Data from 2938742__Reflection_03.txt Node
Date: Sun Mar 15 12:03:42 EDT 2015
User: robert
Spectrometer: USB4E03002
Autoset integration time: false
Trigger mode: 4
Integration Time (sec): 1.000000E-1
Scans to average: 10
Electric dark correction enabled: false
Nonlinearity correction enabled: false
Boxcar width: 5
Stray light correction enabled: false
XAxis mode: Wavelengths
Stop averaging: false
Number of Pixels in Spectrum: 3648
>>>>>Begin Spectral Data<<<<<
177.575	567.6
177.794	475.66
178.014	777.41
178.233	888.41
178.452	1073.43
178.672	1664.86
178.891	1966.17
179.11	-5962.79
179.33	-1518.67
179.549	-1377.44
179.768	-2047.55
179.987	-3790.91
180.207	-1037.99
180.426	-6073.08
180.645	-4892.54
180.864	-47028.57
181.084	3073.21
181.303	-15490.48
181.522	1776.68
181.741	1676.64
181.96	2814.63
182.179	791.96
182.398	738.88
182.618	529.44
182.837	553.26
183.056	492.89
183.275	554.86
183.494	627.08
183.713	511.53
183.932	475.19
184.151	408.3
184.37	389.09
184.589	603
184.808	614.31
185.027	643.18
185.246	666.6
185.465	586.89
185.684	637.85
185.903	582.28
186.122	551.15
186.341	863.22
186.56	1408.91
186.779	1118.71
186.998	997.05
187.216	1178.37
187.435	2136.31
187.654	1955.95
187.873	6556
188.092	2104.94
188.311	1484.85
188.53	2121.15
188.748	1884.7
188.967	1451.72
189.186	1676.44
189.405	1332.56
189.623	1856.54
189.842	1239.66
190.061	1232.76
190.28	1158.25
190.498	2190.91
190.717	1695
190.936	2737.3
191.154	1835.2
191.373	1621.03
191.592	733.06
191.81	654.88
192.029	533.62
192.248	624.32
192.466	898.84
192.685	793.01
192.904	587.35
193.122	828.6
193.341	869.06
193.559	675.71
193.778	735.13
193.996	1627.45
194.215	2429.55
194.433	-11766.67
194.652	3443.18
194.87	2260
195.089	3409.3
195.307	5622.64
195.526	2012.66
195.744	4220.78
195.963	-3442.11
196.181	-7916.28
196.399	-6940
196.618	-2864.8
196.836	-3017.24
197.055	-1386.51
197.273	-1702.91
197.491	-2003.95
197.71	-6525
197.928	-3609.18
198.146	-2939.83
198.365	-3311.01
198.583	-6096.55
198.801	10673.53
199.019	2203.09
199.238	1172.82
199.456	821.09
199.674	1162.42
199.892	1468.51
200.111	1769.95
200.329	1966.67
200.547	741.68
200.765	540.03
200.983	527.85
201.202	490.29
201.42	568.33
201.638	525.57
201.856	641.67
202.074	467.08
202.292	392.7
202.51	471.04
202.728	435.27
202.946	554.09
203.165	715.64
203.383	728.32
203.601	737.23
203.819	720.69
204.037	767.49
204.255	618.56
204.473	522.82
204.691	546.87
204.909	501.8
205.127	543.24
205.345	445.37
205.562	400.4
205.78	534.81
205.998	667.81
206.216	774.07
206.434	762.6
206.652	1062.54
206.87	2741.41
207.088	10094.12
207.306	1619.63
207.523	2262.03
207.741	2435.42
207.959	2910.74
208.177	1100
208.395	802.25
208.612	665.65
208.83	752.49
209.048	793.06
209.266	564.45
209.483	558.07
209.701	671.63
209.919	736.77
210.136	575.13
210.354	485.87
210.572	732.26
210.79	661.59
211.007	522.24
211.225	444.08
211.442	376.34
211.66	413.4
211.878	478.33
212.095	262.12
212.313	237.06
212.53	267.17
212.748	295.02
212.966	256.65
213.183	247.32
213.401	277
213.618	286.82
213.836	270.08
214.053	284.57
214.271	256.23
214.488	506.64
214.705	454.8
214.923	458.85
215.14	418.91
215.358	411.03
215.575	476.73
215.793	379.03
216.01	367.6
216.227	360.39
216.445	333.28
216.662	373.59
216.879	339.52
217.097	329.51
217.314	319.91
217.531	292.57
217.749	272.06
217.966	257.45
218.183	300.9
218.4	292.34
218.618	315.57
218.835	325.7
219.052	245.13
219.269	242.35
219.487	263.96
219.704	260.86
219.921	267.54
220.138	266.13
220.355	211.45
220.572	190.67
220.79	187.22
221.007	174.25
221.224	163.51
221.441	171.16
221.658	164.7
221.875	147.03
222.092	143.1
222.309	135.98
222.526	135.78
222.743	140.64
222.96	143.66
223.177	145.31
223.394	146.51
223.611	147.98
223.828	149.45
224.045	141.54
224.262	142.75
224.479	133.65
224.696	131.08
224.913	125.53
225.13	120.42
225.347	112.32
225.564	103.22
225.781	96.74
225.997	91
226.214	83.01
226.431	79.93
226.648	76.18
226.865	70.45
227.082	63.84
227.298	57.01
227.515	50.69
227.732	44.84
227.949	42.06
228.165	37.71
228.382	34.92
228.599	32.86
228.816	29.63
229.032	27.62
229.249	26.65
229.466	26.56
229.682	26.29
229.899	26.55
230.116	27.04
230.332	26.99
230.549	29.06
230.765	30.23
230.982	31.66
231.199	34.1
231.415	37.39
231.632	39.37
231.848	40.95
232.065	44.1
232.281	45.86
232.498	48.61
232.714	51.55
232.931	50.48
233.147	50.18
233.364	50.7
233.58	50.03
233.797	47.45
234.013	48.63
234.23	48.79
234.446	46.9
234.662	46.72
234.879	47.32
235.095	47.37
235.312	48.88
235.528	50.06
235.744	49.68
235.961	49.72
236.177	49.9
236.393	49.73
236.61	49.42
236.826	49.16
237.042	50.08
237.258	47.73
237.475	46.18
237.691	47.32
237.907	47.63
238.123	47.83
238.339	48.37
238.556	49.51
238.772	47.72
238.988	46.3
239.204	46.8
239.42	45.79
239.636	43.14
239.853	41.64
240.069	39.67
240.285	36
240.501	33.62
240.717	31.35
240.933	28.33
241.149	26.16
241.365	24.79
241.581	22.87
241.797	21.63
242.013	20.74
242.229	20.2
242.445	18.94
242.661	19.5
242.877	19.85
243.093	20.16
243.309	20.77
243.525	21.89
243.741	22.65
243.957	24.31
244.173	24.23
244.388	25
244.604	24.57
244.82	25.47
245.036	23.96
245.252	23.08
245.468	21.95
245.683	21.12
245.899	19.07
246.115	17.86
246.331	16.15
246.547	15.29
246.762	14.68
246.978	14.35
247.194	13.83
247.409	14.14
247.625	13.68
247.841	13.55
248.057	13.34
248.272	13.8
248.488	13.52
248.703	13.75
248.919	14.27
249.135	14.95
249.35	15.89
249.566	16.65
249.782	17.07
249.997	18.38
250.213	19.01
250.428	19.72
250.644	19.85
250.859	21.6
251.075	21.92
251.29	21.99
251.506	21.5
251.721	21.01
251.937	20.78
252.152	20.55
252.368	19.93
252.583	20.26
252.798	20.11
253.014	20.65
253.229	20.08
253.445	20.45
253.66	21.8
253.875	23.13
254.091	24.07
254.306	24.76
254.521	25.57
254.737	26.7
254.952	27.07
255.167	28.23
255.383	27.83
255.598	27.78
255.813	26.94
256.028	25.28
256.244	24.63
256.459	24.29
256.674	24.01
256.889	21.76
257.104	21.09
257.32	20.11
257.535	18.91
257.75	18.02
257.965	17.55
258.18	16.38
258.395	15.71
258.61	14.36
258.826	13.43
259.041	12.31
259.256	12.27
259.471	11.58
259.686	11.1
259.901	10.93
260.116	10.78
260.331	10.42
260.546	10.37
260.761	10.58
260.976	10.62
261.191	11.08
261.406	11.8
261.621	12.42
261.836	13.09
262.05	14.09
262.265	15.15
262.48	15.95
262.695	16.7
262.91	17.94
263.125	18.44
263.34	19.7
263.555	20.25
263.769	20.32
263.984	20.33
264.199	20.22
264.414	19.99
264.629	19.58
264.843	19.17
265.058	19.94
265.273	19.55
265.488	19.19
265.702	18.39
265.917	17.07
266.132	16.61
266.346	16.29
266.561	16.28
266.776	16.22
266.99	15.77
267.205	16.25
267.42	15.38
267.634	15.5
267.849	14.78
268.063	14.94
268.278	14.92
268.492	15.21
268.707	15.18
268.922	15.08
269.136	14.44
269.351	14.49
269.565	14.16
269.78	14.09
269.994	14.11
270.209	14.46
270.423	14.5
270.637	14.6
270.852	13.7
271.066	13.12
271.281	13.08
271.495	12.94
271.709	12.6
271.924	12.57
272.138	12.72
272.353	12.35
272.567	12.33
272.781	12.04
272.996	12.12
273.21	12.31
273.424	13.07
273.638	13.3
273.853	13.64
274.067	13.57
274.281	13.69
274.495	13.75
274.71	13.94
274.924	14.7
275.138	15.31
275.352	15.32
275.566	15.71
275.781	15.29
275.995	15.07
276.209	15.3
276.423	15.87
276.637	15.72
276.851	15.77
277.065	15.49
277.279	15.02
277.493	14.62
277.707	14.46
277.921	14.73
278.135	14.85
278.349	14.81
278.563	14.24
278.777	14.11
278.991	13.97
279.205	13.91
279.419	14.45
279.633	14.35
279.847	13.85
280.061	14.06
280.275	13.49
280.489	13.6
280.703	13.58
280.917	13.59
281.131	12.95
281.344	12.93
281.558	12.87
281.772	12.82
281.986	12.44
282.2	13.14
282.414	12.82
282.627	12.61
282.841	12.33
283.055	12.41
283.269	12.44
283.482	12.82
283.696	12.48
283.91	12.42
284.123	11.68
284.337	11.65
284.551	11.04
284.764	11.21
284.978	11.24
285.192	10.83
285.405	10.62
285.619	10.74
285.833	10.24
286.046	10.51
286.26	10.08
286.473	10.34
286.687	10.37
286.9	10.58
287.114	10.25
287.327	10.4
287.541	10.99
287.754	11.19
287.968	11.07
288.181	11.25
288.395	10.83
288.608	11.22
288.822	11.07
289.035	11.11
289.248	10.79
289.462	10.81
289.675	10.76
289.889	10.37
290.102	9.92
290.315	9.98
290.529	10.01
290.742	10.14
290.955	10.27
291.169	10.26
291.382	10.44
291.595	10.84
291.808	10.82
292.022	11.67
292.235	11.84
292.448	12.13
292.661	11.86
292.875	12.43
293.088	12.73
293.301	12.35
293.514	12.26
293.727	12.06
293.94	11.92
294.153	12.04
294.367	10.94
294.58	10.8
294.793	10.68
295.006	10.64
295.219	10.21
295.432	10.11
295.645	10.22
295.858	10.29
296.071	10.21
296.284	9.97
296.497	9.79
296.71	9.82
296.923	9.53
297.136	9.49
297.349	9.5
297.562	9.17
297.775	8.87
297.988	8.82
298.201	9.07
298.414	9.3
298.626	9.38
298.839	9.66
299.052	9.88
299.265	10.28
299.478	10.34
299.691	10.82
299.903	11.48
300.116	11.6
300.329	12.14
300.542	11.76
300.755	11.5
300.967	11.53
301.18	11.45
301.393	11.4
301.605	11.42
301.818	11.6
302.031	11.34
302.243	11.32
302.456	11.57
302.669	11.28
302.881	11.64
303.094	11.93
303.307	12.03
303.519	12.08
303.732	12.14
303.944	12.09
304.157	12.42
304.37	12.71
304.582	12.94
304.795	13.09
305.007	12.88
305.22	12.98
305.432	12.97
305.645	13.02
305.857	13.54
306.069	13.8
306.282	13.97
306.494	13.63
306.707	13.49
306.919	13.27
307.132	12.95
307.344	12.92
307.556	12.52
307.769	12.87
307.981	12.96
308.193	11.98
308.406	11.65
308.618	11.57
308.83	11.37
309.043	11.41
309.255	11.39
309.467	11.45
309.679	11.28
309.892	11.25
310.104	10.67
310.316	10.15
310.528	10.72
310.74	10.71
310.953	10.77
311.165	10.87
311.377	10.68
311.589	10.68
311.801	10.7
312.013	10.86
312.225	10.95
312.437	11.55
312.649	11.72
312.862	11.74
313.074	11.99
313.286	12.12
313.498	12.14
313.71	12.2
313.922	12.29
314.134	12.77
314.346	13.46
314.558	13.5
314.77	12.76
314.982	13.37
315.193	13.7
315.405	13.41
315.617	13.3
315.829	13.47
316.041	13.84
316.253	13.87
316.465	13.72
316.677	13.22
316.888	14.01
317.1	14.25
317.312	14.37
317.524	14.24
317.736	14.44
317.947	14.7
318.159	15.14
318.371	15.13
318.583	15.5
318.794	15.45
319.006	15.46
319.218	15.23
319.43	15.73
319.641	15.83
319.853	16.24
320.064	16.73
320.276	17.39
320.488	17.09
320.699	17.46
320.911	17.64
321.123	17.67
321.334	17.52
321.546	17.77
321.757	17.39
321.969	17.34
322.18	16.77
322.392	17
322.603	16.54
322.815	17.2
323.026	16.86
323.238	16.41
323.449	16.48
323.661	16.99
323.872	17.03
324.083	17.3
324.295	17.6
324.506	18.1
324.718	17.63
324.929	17.85
325.14	17.53
325.352	18.03
325.563	18.24
325.774	18.39
325.986	18.55
326.197	18.25
326.408	18.96
326.62	18.89
326.831	18.86
327.042	19.41
327.253	19.49
327.464	20.01
327.676	20.15
327.887	20.34
328.098	21.14
328.309	21.43
328.52	21.88
328.732	22.06
328.943	22.33
329.154	22.69
329.365	22.92
329.576	23.46
329.787	23.45
329.998	23.9
330.209	24.65
330.42	24.6
330.631	24.8
330.842	25.09
331.053	25.11
331.264	25.44
331.475	25.56
331.686	26.08
331.897	26.18
332.108	26.1
332.319	25.73
332.53	25.66
332.741	25.6
332.952	25.94
333.163	25.9
333.374	25.38
333.585	25.64
333.795	25.73
334.006	25.36
334.217	25.11
334.428	25.03
334.639	25.15
334.849	25.16
335.06	25.44
335.271	25.45
335.482	25.75
335.692	25.97
335.903	25.8
336.114	25.6
336.325	25.92
336.535	26.52
336.746	26.65
336.957	26.92
337.167	26.96
337.378	26.99
337.589	26.94
337.799	26.69
338.01	27.14
338.22	27.11
338.431	27.31
338.642	27.04
338.852	26.33
339.063	27.06
339.273	26.78
339.484	26.52
339.694	26.46
339.905	26.34
340.115	26.21
340.326	25.94
340.536	25.92
340.746	25.83
340.957	26.29
341.167	26.44
341.378	25.99
341.588	25.44
341.799	25.74
342.009	25.53
342.219	25.42
342.43	25.52
342.64	25.65
342.85	25.54
343.061	25.62
343.271	25.31
343.481	25.31
343.691	25.19
343.902	25.39
344.112	25.21
344.322	25.19
344.532	25.11
344.743	25.1
344.953	24.89
345.163	24.78
345.373	24.57
345.583	24.38
345.793	24.36
346.004	24.36
346.214	24.51
346.424	24.47
346.634	24.39
346.844	24.24
347.054	24.19
347.264	24.1
347.474	24.27
347.684	24.49
347.894	24
348.104	23.76
348.314	23.94
348.524	24.52
348.734	24.29
348.944	24.48
349.154	24.65
349.364	24.46
349.574	24.22
349.784	24.29
349.994	24.3
350.204	24.83
350.413	25.3
350.623	25.15
350.833	25.04
351.043	25
351.253	24.73
351.463	24.74
351.672	24.99
351.882	25.14
352.092	25.06
352.302	24.88
352.511	24.91
352.721	24.31
352.931	24.35
353.141	24.02
353.35	24.33
353.56	24.28
353.77	24.72
353.979	24.43
354.189	24.69
354.399	24.4
354.608	24.28
354.818	24.17
355.027	24.87
355.237	24.63
355.447	24.17
355.656	23.98
355.866	23.96
356.075	23.37
356.285	23.62
356.494	23.44
356.704	23.55
356.913	23.53
357.123	23.49
357.332	22.95
357.542	22.94
357.751	23.17
357.96	23.24
358.17	23.52
358.379	23.43
358.589	23.32
358.798	23.27
359.007	23.32
359.217	23.29
359.426	23.09
359.635	23.12
359.845	23.01
360.054	23.05
360.263	22.9
360.472	22.36
360.682	22.34
360.891	21.91
361.1	21.8
361.309	21.6
361.519	21.37
361.728	21.49
361.937	21.63
362.146	21.58
362.355	21.4
362.564	21.41
362.774	21.51
362.983	21.49
363.192	21.68
363.401	21.61
363.61	21.42
363.819	21.91
364.028	22
364.237	21.81
364.446	21.9
364.655	22.06
364.864	22.09
365.073	22.41
365.282	22.62
365.491	22.55
365.7	22.56
365.909	22.83
366.118	22.55
366.327	22.51
366.536	22.85
366.745	22.74
366.954	23.09
367.162	23.1
367.371	22.85
367.58	22.93
367.789	23.22
367.998	23.11
368.207	23.35
368.415	23.51
368.624	23.11
368.833	22.71
369.042	22.97
369.25	22.81
369.459	23.22
369.668	23.37
369.877	23.25
370.085	23.2
370.294	23.43
370.503	22.91
370.711	22.87
370.92	23.05
371.129	23.2
371.337	23.06
371.546	22.81
371.754	22.52
371.963	22.36
372.171	22.33
372.38	22.47
372.589	22.35
372.797	22.55
373.006	22.25
373.214	22.15
373.423	21.78
373.631	21.82
373.84	21.77
374.048	21.62
374.256	21.62
374.465	21.58
374.673	21.39
374.882	21.43
375.09	21.32
375.298	21.52
375.507	21.66
375.715	21.77
375.923	21.49
376.132	21.39
376.34	21.35
376.548	21.52
376.757	21.54
376.965	21.4
377.173	21.32
377.381	21.48
377.59	21.18
377.798	21.06
378.006	20.79
378.214	21.07
378.423	21.01
378.631	20.86
378.839	20.58
379.047	20.6
379.255	20.67
379.463	20.71
379.671	20.4
379.879	20.47
380.088	20.59
380.296	20.61
380.504	20.4
380.712	20.69
380.92	20.77
381.128	20.76
381.336	20.54
381.544	20.46
381.752	20.38
381.96	20.58
382.168	20.56
382.376	20.51
382.584	20.75
382.791	20.75
382.999	20.56
383.207	20.49
383.415	20.49
383.623	20.39
383.831	20.3
384.039	20.11
384.247	20.18
384.454	20.22
384.662	20.2
384.87	20.24
385.078	20.2
385.285	20.2
385.493	20.28
385.701	20.23
385.909	20.24
386.116	20.16
386.324	20.38
386.532	20.39
386.739	20.45
386.947	20.53
387.155	20.53
387.362	20.32
387.57	20.25
387.778	20.24
387.985	20.36
388.193	20.58
388.4	20.8
388.608	20.92
388.816	21.01
389.023	20.9
389.231	20.89
389.438	20.86
389.646	21.02
389.853	20.9
390.061	20.83
390.268	20.89
390.475	20.69
390.683	20.47
390.89	20.18
391.098	20.02
391.305	19.9
391.512	19.58
391.72	19.45
391.927	19.45
392.135	19.32
392.342	19.42
392.549	19.43
392.756	19.38
392.964	19.38
393.171	19.49
393.378	19.21
393.586	19.27
393.793	19.29
394	19.39
394.207	19.47
394.414	19.81
394.622	19.53
394.829	19.43
395.036	19.19
395.243	19.16
395.45	19.08
395.657	19.2
395.864	19.27
396.072	19.4
396.279	19.27
396.486	19.35
396.693	19.22
396.9	19.26
397.107	18.98
397.314	19.28
397.521	19.19
397.728	19.19
397.935	19.19
398.142	19.15
398.349	19.05
398.556	19.13
398.763	18.77
398.97	18.73
399.177	18.71
399.383	18.98
399.59	18.83
399.797	18.89
400.004	18.82
400.211	18.73
400.418	18.79
400.625	18.78
400.831	18.67
401.038	18.86
401.245	18.78
401.452	19.06
401.658	18.89
401.865	19.14
402.072	19.25
402.279	19.49
402.485	19.84
402.692	19.76
402.899	19.62
403.105	19.62
403.312	19.68
403.519	19.74
403.725	19.45
403.932	19.3
404.138	19.24
404.345	19.05
404.552	18.74
404.758	18.53
404.965	18.53
405.171	18.6
405.378	18.68
405.584	18.77
405.791	18.77
405.997	18.77
406.204	18.98
406.41	19.02
406.617	19.48
406.823	19.71
407.029	19.69
407.236	19.81
407.442	19.91
407.649	20.08
407.855	19.95
408.061	19.97
408.268	20.12
408.474	20.16
408.68	19.99
408.887	19.72
409.093	19.7
409.299	19.71
409.505	19.41
409.712	19.43
409.918	19.2
410.124	19.11
410.33	19.06
410.537	19.11
410.743	19
410.949	18.97
411.155	19.09
411.361	18.98
411.567	18.99
411.773	19.16
411.98	19.04
412.186	19.02
412.392	19
412.598	18.85
412.804	18.87
413.01	18.87
413.216	18.89
413.422	18.84
413.628	18.92
413.834	18.94
414.04	18.81
414.246	18.82
414.452	18.82
414.658	18.91
414.864	18.96
415.07	18.84
415.275	18.89
415.481	18.96
415.687	18.79
415.893	18.69
416.099	18.53
416.305	18.62
416.511	18.61
416.716	18.56
416.922	18.48
417.128	18.39
417.334	18.29
417.539	18.1
417.745	17.89
417.951	17.84
418.157	17.84
418.362	17.76
418.568	17.62
418.774	17.54
418.979	17.4
419.185	17.33
419.391	17.25
419.596	17.19
419.802	17.2
420.008	17.23
420.213	17.22
420.419	17.14
420.624	17.2
420.83	17.21
421.035	17.17
421.241	17.21
421.446	17.08
421.652	17.14
421.857	17.1
422.063	17.07
422.268	17.02
422.474	16.94
422.679	16.91
422.885	16.94
423.09	16.92
423.295	16.85
423.501	16.87
423.706	16.91
423.911	16.87
424.117	16.85
424.322	16.94
424.527	16.9
424.733	16.92
424.938	16.96
425.143	16.88
425.349	16.85
425.554	16.89
425.759	16.97
425.964	17.06
426.169	17.1
426.375	17.17
426.58	17.2
426.785	17.46
426.99	17.52
427.195	17.64
427.4	17.88
427.605	18.01
427.811	18.24
428.016	18.23
428.221	18.14
428.426	18.26
428.631	18.36
428.836	18.3
429.041	18.31
429.246	18.41
429.451	18.52
429.656	18.51
429.861	18.57
430.066	18.43
430.271	18.4
430.476	18.52
430.681	18.43
430.886	18.43
431.09	18.41
431.295	18.32
431.5	18.3
431.705	18.09
431.91	17.99
432.115	17.8
432.32	17.74
432.524	17.65
432.729	17.68
432.934	17.65
433.139	17.65
433.343	17.74
433.548	17.68
433.753	17.63
433.958	17.68
434.162	17.65
434.367	17.74
434.572	17.87
434.776	17.88
434.981	17.85
435.186	17.86
435.39	17.83
435.595	17.82
435.799	17.94
436.004	17.96
436.209	17.99
436.413	18.03
436.618	18.04
436.822	17.92
437.027	18.02
437.231	18.07
437.436	18.16
437.64	18.18
437.845	18.14
438.049	18.05
438.253	18.09
438.458	18.07
438.662	18.01
438.867	18.05
439.071	18.08
439.275	18
439.48	17.88
439.684	17.84
439.888	17.74
440.093	17.72
440.297	17.74
440.501	17.59
440.706	17.58
440.91	17.57
441.114	17.47
441.318	17.38
441.523	17.41
441.727	17.48
441.931	17.45
442.135	17.44
442.339	17.43
442.543	17.41
442.748	17.48
442.952	17.43
443.156	17.48
443.36	17.51
443.564	17.58
443.768	17.56
443.972	17.54
444.176	17.61
444.38	17.65
444.584	17.54
444.788	17.44
444.992	17.47
445.196	17.41
445.4	17.37
445.604	17.3
445.808	17.29
446.012	17.32
446.216	17.24
446.42	17.13
446.624	17.14
446.828	17.25
447.032	17.3
447.235	17.33
447.439	17.43
447.643	17.45
447.847	17.57
448.051	17.61
448.254	17.64
448.458	17.64
448.662	17.68
448.866	17.66
449.069	17.64
449.273	17.72
449.477	17.76
449.681	17.71
449.884	17.72
450.088	17.67
450.292	17.67
450.495	17.7
450.699	17.81
450.902	17.8
451.106	17.81
451.31	17.87
451.513	17.73
451.717	17.63
451.92	17.68
452.124	17.75
452.327	17.89
452.531	17.82
452.734	17.65
452.938	17.69
453.141	17.84
453.345	17.74
453.548	17.68
453.752	17.84
453.955	18.06
454.158	18.06
454.362	17.95
454.565	17.88
454.769	17.96
454.972	18.16
455.175	18.28
455.379	18.21
455.582	18.34
455.785	18.46
455.988	18.48
456.192	18.24
456.395	18.26
456.598	18.37
456.801	18.36
457.005	18.36
457.208	18.35
457.411	18.21
457.614	18.15
457.817	18.05
458.021	17.86
458.224	17.7
458.427	17.6
458.63	17.45
458.833	17.35
459.036	17.29
459.239	17.24
459.442	17.15
459.645	17.18
459.848	17.2
460.051	17.21
460.254	17.27
460.457	17.32
460.66	17.34
460.863	17.46
461.066	17.41
461.269	17.41
461.472	17.47
461.675	17.43
461.878	17.35
462.081	17.46
462.284	17.52
462.486	17.63
462.689	17.61
462.892	17.82
463.095	17.86
463.298	18.04
463.5	18.06
463.703	18.14
463.906	18.17
464.109	18.24
464.311	18.21
464.514	18.24
464.717	18.1
464.92	18.18
465.122	18.08
465.325	18.13
465.528	18.15
465.73	18.3
465.933	18.29
466.135	18.25
466.338	18.33
466.541	18.29
466.743	18.27
466.946	18.21
467.148	18.14
467.351	18.11
467.553	18.15
467.756	18.24
467.958	18.27
468.161	18.17
468.363	18.39
468.566	18.29
468.768	18.31
468.971	18.34
469.173	18.47
469.375	18.58
469.578	18.6
469.78	18.58
469.983	18.55
470.185	18.56
470.387	18.65
470.59	18.62
470.792	18.72
470.994	18.75
471.196	18.74
471.399	18.76
471.601	18.72
471.803	18.75
472.005	18.69
472.208	18.61
472.41	18.52
472.612	18.64
472.814	18.6
473.016	18.65
473.218	18.66
473.421	18.74
473.623	18.64
473.825	18.64
474.027	18.65
474.229	18.73
474.431	18.71
474.633	18.74
474.835	18.63
475.037	18.59
475.239	18.62
475.441	18.68
475.643	18.57
475.845	18.51
476.047	18.65
476.249	18.66
476.451	18.58
476.653	18.52
476.855	18.43
477.057	18.33
477.258	18.32
477.46	18.14
477.662	18.03
477.864	18.05
478.066	18.09
478.268	17.89
478.469	17.91
478.671	17.79
478.873	17.83
479.075	17.79
479.276	17.78
479.478	17.73
479.68	17.73
479.882	17.63
480.083	17.62
480.285	17.61
480.487	17.63
480.688	17.52
480.89	17.56
481.091	17.51
481.293	17.4
481.495	17.28
481.696	17.2
481.898	17.02
482.099	16.96
482.301	16.84
482.502	16.67
482.704	16.53
482.905	16.49
483.107	16.39
483.308	16.35
483.51	16.34
483.711	16.37
483.913	16.32
484.114	16.37
484.315	16.41
484.517	16.41
484.718	16.49
484.92	16.56
485.121	16.6
485.322	16.64
485.524	16.67
485.725	16.7
485.926	16.69
486.127	16.76
486.329	16.71
486.53	16.68
486.731	16.65
486.932	16.65
487.134	16.66
487.335	16.61
487.536	16.63
487.737	16.62
487.938	16.63
488.139	16.63
488.341	16.64
488.542	16.74
488.743	16.78
488.944	16.88
489.145	16.92
489.346	16.98
489.547	17.04
489.748	17.11
489.949	17.11
490.15	17.09
490.351	17.11
490.552	17.12
490.753	17.07
490.954	17.07
491.155	17.02
491.356	17.03
491.557	16.97
491.758	16.98
491.959	16.99
492.159	17.07
492.36	17.17
492.561	17.24
492.762	17.28
492.963	17.34
493.164	17.41
493.364	17.54
493.565	17.6
493.766	17.66
493.967	17.77
494.167	17.86
494.368	17.88
494.569	17.94
494.769	17.95
494.97	18.03
495.171	18.05
495.371	18.02
495.572	18.02
495.773	18.09
495.973	18.17
496.174	18.19
496.375	18.13
496.575	18.13
496.776	18.1
496.976	18.13
497.177	18.12
497.377	18.19
497.578	18.12
497.778	18.11
497.979	18.13
498.179	18.21
498.38	18.24
498.58	18.34
498.78	18.44
498.981	18.57
499.181	18.6
499.382	18.69
499.582	18.72
499.782	18.93
499.983	19.06
500.183	19.03
500.383	19.12
500.584	19.18
500.784	19.23
500.984	19.24
501.184	19.26
501.385	19.2
501.585	19.17
501.785	19.17
501.985	19.29
502.185	19.37
502.386	19.45
502.586	19.38
502.786	19.48
502.986	19.44
503.186	19.44
503.386	19.46
503.586	19.57
503.786	19.58
503.987	19.74
504.187	19.68
504.387	19.65
504.587	19.72
504.787	19.9
504.987	19.79
505.187	19.87
505.387	19.99
505.587	19.98
505.786	20.14
505.986	20.31
506.186	20.24
506.386	20.4
506.586	20.5
506.786	20.37
506.986	20.23
507.186	20.27
507.386	20.31
507.585	20.26
507.785	20.35
507.985	20.3
508.185	20.27
508.384	20.27
508.584	20.09
508.784	20.04
508.984	20.14
509.183	20.27
509.383	20.35
509.583	20.34
509.782	20.46
509.982	20.5
510.182	20.54
510.381	20.51
510.581	20.62
510.781	20.75
510.98	20.88
511.18	21.02
511.379	21.1
511.579	21.25
511.778	21.39
511.978	21.32
512.177	21.39
512.377	21.41
512.576	21.57
512.776	21.65
512.975	21.79
513.175	21.75
513.374	21.81
513.573	21.82
513.773	21.81
513.972	21.81
514.172	21.95
514.371	22.08
514.57	22.29
514.77	22.47
514.969	22.49
515.168	22.46
515.367	22.51
515.567	22.5
515.766	22.64
515.965	22.7
516.164	22.74
516.364	22.73
516.563	22.67
516.762	22.64
516.961	22.64
517.16	22.69
517.359	22.71
517.559	22.8
517.758	22.83
517.957	22.81
518.156	22.87
518.355	23.02
518.554	23.19
518.753	23.26
518.952	23.34
519.151	23.35
519.35	23.48
519.549	23.6
519.748	23.73
519.947	23.87
520.146	24
520.345	24.07
520.544	24.08
520.743	24.16
520.942	24.31
521.141	24.42
521.339	24.59
521.538	24.64
521.737	24.7
521.936	24.73
522.135	24.76
522.333	24.82
522.532	24.97
522.731	25.04
522.93	25.17
523.129	25.2
523.327	25.26
523.526	25.28
523.725	25.35
523.923	25.36
524.122	25.47
524.321	25.52
524.519	25.61
524.718	25.54
524.917	25.61
525.115	25.66
525.314	25.74
525.512	25.83
525.711	25.84
525.909	25.9
526.108	26
526.306	26.05
526.505	26.12
526.703	26.05
526.902	26.06
527.1	25.98
527.299	25.99
527.497	25.96
527.696	25.95
527.894	26.01
528.092	25.98
528.291	26.02
528.489	26.02
528.688	26.07
528.886	26.22
529.084	26.35
529.283	26.51
529.481	26.61
529.679	26.75
529.877	26.89
530.076	27.03
530.274	27.24
530.472	27.4
530.67	27.58
530.869	27.76
531.067	27.88
531.265	27.95
531.463	28.04
531.661	28.06
531.859	28.04
532.057	28.06
532.255	28.17
532.454	28.22
532.652	28.22
532.85	28.27
533.048	28.26
533.246	28.28
533.444	28.41
533.642	28.47
533.84	28.56
534.038	28.75
534.236	28.87
534.434	28.94
534.632	29.03
534.83	29.14
535.027	29.29
535.225	29.49
535.423	29.56
535.621	29.57
535.819	29.69
536.017	29.82
536.215	29.75
536.412	29.79
536.61	29.8
536.808	29.84
537.006	29.97
537.203	30.08
537.401	30.19
537.599	30.28
537.797	30.44
537.994	30.55
538.192	30.68
538.39	30.9
538.587	31.07
538.785	31.18
538.983	31.36
539.18	31.42
539.378	31.42
539.575	31.39
539.773	31.47
539.97	31.45
540.168	31.49
540.366	31.48
540.563	31.5
540.761	31.49
540.958	31.49
541.155	31.47
541.353	31.62
541.55	31.65
541.748	31.66
541.945	31.76
542.143	31.84
542.34	31.95
542.537	32.09
542.735	32.25
542.932	32.42
543.129	32.66
543.327	32.84
543.524	32.91
543.721	33.18
543.919	33.45
544.116	33.61
544.313	33.75
544.51	33.86
544.708	34.07
544.905	34.23
545.102	34.39
545.299	34.54
545.496	34.66
545.693	34.76
545.891	34.78
546.088	34.81
546.285	34.79
546.482	34.95
546.679	35.05
546.876	35.03
547.073	35.04
547.27	35.06
547.467	35.11
547.664	35.15
547.861	35.19
548.058	35.32
548.255	35.4
548.452	35.7
548.649	35.79
548.846	35.89
549.043	35.98
549.24	36
549.437	36.12
549.633	36.21
549.83	36.49
550.027	36.55
550.224	36.57
550.421	36.67
550.618	36.53
550.814	36.67
551.011	36.62
551.208	36.59
551.405	36.68
551.601	36.77
551.798	36.73
551.995	36.57
552.191	36.55
552.388	36.55
552.585	36.65
552.781	36.71
552.978	36.61
553.175	36.75
553.371	36.81
553.568	36.82
553.764	36.85
553.961	36.91
554.157	37.02
554.354	37.11
554.55	37.24
554.747	37.26
554.943	37.32
555.14	37.41
555.336	37.6
555.533	37.65
555.729	37.9
555.926	37.93
556.122	38
556.318	38.21
556.515	38.47
556.711	38.51
556.907	38.6
557.104	38.82
557.3	38.9
557.496	38.89
557.693	38.92
557.889	39.05
558.085	39.04
558.281	39.24
558.478	39.14
558.674	39.04
558.87	39.15
559.066	39.17
559.262	39.19
559.459	39.29
559.655	39.3
559.851	39.45
560.047	39.44
560.243	39.65
560.439	39.49
560.635	39.54
560.831	39.65
561.027	39.7
561.223	39.6
561.419	39.57
561.615	39.66
561.811	39.74
562.007	39.72
562.203	39.6
562.399	39.46
562.595	39.65
562.791	39.9
562.987	39.92
563.183	40.07
563.379	40.22
563.575	40.33
563.771	40.3
563.966	40.18
564.162	40.34
564.358	40.5
564.554	40.59
564.75	40.65
564.945	40.42
565.141	40.36
565.337	40.37
565.533	40.42
565.728	40.38
565.924	40.37
566.12	40.47
566.315	40.46
566.511	40.51
566.707	40.68
566.902	40.58
567.098	40.76
567.293	40.88
567.489	40.92
567.684	41.01
567.88	41.14
568.076	41.39
568.271	41.49
568.467	41.53
568.662	41.68
568.858	41.65
569.053	41.83
569.248	41.89
569.444	41.98
569.639	41.87
569.835	41.89
570.03	42.01
570.225	41.91
570.421	42.02
570.616	41.99
570.812	41.83
571.007	41.86
571.202	41.8
571.397	41.76
571.593	41.8
571.788	41.87
571.983	41.97
572.178	41.99
572.374	42.04
572.569	42.03
572.764	42.18
572.959	42.21
573.154	42.24
573.35	42.33
573.545	42.32
573.74	42.32
573.935	42.32
574.13	42.31
574.325	42.37
574.52	42.4
574.715	42.45
574.91	42.53
575.105	42.77
575.3	42.99
575.495	43.18
575.69	43.25
575.885	43.39
576.08	43.43
576.275	43.55
576.47	43.64
576.665	43.85
576.86	44.15
577.055	44.19
577.25	44.19
577.444	44.21
577.639	44.32
577.834	44.43
578.029	44.55
578.224	44.72
578.418	44.81
578.613	44.9
578.808	45.1
579.003	44.98
579.197	44.96
579.392	44.97
579.587	45.03
579.781	44.91
579.976	45.13
580.171	45.04
580.365	45.06
580.56	45.26
580.755	45.15
580.949	45.01
581.144	45.06
581.338	45.22
581.533	45.5
581.727	45.6
581.922	45.76
582.116	45.72
582.311	45.85
582.505	46.04
582.7	45.93
582.894	46.01
583.089	46.09
583.283	46.23
583.478	46.19
583.672	46.14
583.866	46.21
584.061	46.13
584.255	46.2
584.449	46.28
584.644	46.35
584.838	46.32
585.032	46.32
585.226	46.25
585.421	46.28
585.615	46.44
585.809	46.42
586.003	46.48
586.198	46.53
586.392	46.73
586.586	46.82
586.78	46.81
586.974	46.74
587.168	46.89
587.363	46.93
587.557	46.73
587.751	46.84
587.945	46.83
588.139	46.82
588.333	46.93
588.527	46.72
588.721	46.61
588.915	46.67
589.109	46.78
589.303	46.71
589.497	46.55
589.691	46.55
589.885	46.38
590.079	46.34
590.273	46.17
590.466	46.16
590.66	46.22
590.854	46.29
591.048	46.31
591.242	46.31
591.436	46.44
591.629	46.63
591.823	46.7
592.017	46.78
592.211	46.89
592.404	47.04
592.598	47.01
592.792	47.17
592.986	47.18
593.179	47.19
593.373	47.08
593.567	47.02
593.76	47.06
593.954	46.95
594.147	47.02
594.341	47.07
594.535	46.92
594.728	47.03
594.922	46.77
595.115	46.55
595.309	46.43
595.502	46.61
595.696	46.58
595.889	46.53
596.083	46.66
596.276	46.56
596.47	46.45
596.663	46.46
596.856	46.28
597.05	46.33
597.243	46.52
597.437	46.61
597.63	46.59
597.823	46.61
598.017	46.78
598.21	46.85
598.403	46.82
598.596	46.93
598.79	47.06
598.983	47.34
599.176	47.36
599.369	47.52
599.563	47.57
599.756	47.85
599.949	47.97
600.142	48.01
600.335	47.92
600.528	48.07
600.722	48.09
600.915	48.11
601.108	48.13
601.301	48.22
601.494	47.93
601.687	47.82
601.88	47.61
602.073	47.47
602.266	47.33
602.459	47.2
602.652	47.2
602.845	47.25
603.038	47.27
603.231	47
603.424	46.95
603.617	46.94
603.809	46.87
604.002	46.85
604.195	46.84
604.388	46.74
604.581	46.94
604.774	46.74
604.966	46.57
605.159	46.55
605.352	46.7
605.545	46.75
605.737	46.92
605.93	47.04
606.123	47.11
606.316	47.32
606.508	47.75
606.701	47.91
606.894	48.15
607.086	48.41
607.279	48.52
607.471	48.62
607.664	48.62
607.857	48.75
608.049	49.09
608.242	49.44
608.434	49.85
608.627	49.99
608.819	50.3
609.012	51
609.204	51.6
609.397	52.36
609.589	53.12
609.782	53.9
609.974	54.9
610.166	55.67
610.359	56.58
610.551	57.16
610.743	57.94
610.936	58.58
611.128	59.11
611.32	59.57
611.513	59.78
611.705	59.97
611.897	60.32
612.09	60
612.282	59.74
612.474	59.2
612.666	58.71
612.858	58.11
613.051	57.86
613.243	57.48
613.435	56.95
613.627	56.57
613.819	56.07
614.011	55.96
614.203	55.62
614.395	55.33
614.588	55.01
614.78	54.88
614.972	54.61
615.164	53.97
615.356	53.64
615.548	53.42
615.74	53.17
615.932	53
616.124	52.27
616.315	52.1
616.507	52.04
616.699	51.92
616.891	51.74
617.083	51.65
617.275	51.69
617.467	51.3
617.659	51.34
617.85	51.02
618.042	50.97
618.234	51
618.426	50.72
618.618	50.54
618.809	50.42
619.001	50.4
619.193	50.53
619.384	50.54
619.576	50.66
619.768	50.47
619.959	50.92
620.151	51.13
620.343	51.12
620.534	51.34
620.726	51.27
620.917	51.25
621.109	51.45
621.301	51.25
621.492	51.23
621.684	51.26
621.875	51.34
622.067	50.99
622.258	50.94
622.45	51.18
622.641	51.06
622.832	51.12
623.024	51.2
623.215	50.94
623.407	51.29
623.598	51.23
623.789	51.22
623.981	51.13
624.172	51.22
624.363	51.13
624.555	50.99
624.746	51.01
624.937	50.9
625.129	50.89
625.32	50.87
625.511	50.66
625.702	50.66
625.893	50.65
626.085	50.55
626.276	50.45
626.467	50.25
626.658	49.94
626.849	50.02
627.04	50
627.231	49.89
627.422	49.99
627.614	49.92
627.805	49.97
627.996	50.01
628.187	50.1
628.378	50.33
628.569	50.56
628.76	50.85
628.951	50.74
629.142	50.98
629.332	51.17
629.523	51.31
629.714	51.63
629.905	51.82
630.096	51.97
630.287	52.26
630.478	52.3
630.669	52.4
630.859	52.5
631.05	52.7
631.241	52.81
631.432	52.76
631.623	52.48
631.813	52.17
632.004	52.02
632.195	51.87
632.385	51.82
632.576	51.53
632.767	51.27
632.957	51.15
633.148	51.14
633.339	50.84
633.529	50.71
633.72	50.85
633.91	50.87
634.101	50.68
634.292	50.59
634.482	50.25
634.673	50.1
634.863	50.31
635.054	50.34
635.244	50.12
635.435	50.22
635.625	50.23
635.815	50.07
636.006	50.1
636.196	50.02
636.387	50.19
636.577	50.38
636.767	50.44
636.958	50.29
637.148	50.45
637.338	50.38
637.529	50.37
637.719	50.37
637.909	50.4
638.099	50.39
638.29	50.64
638.48	50.41
638.67	50.31
638.86	50.34
639.05	50.39
639.241	50.02
639.431	50.47
639.621	50.63
639.811	50.77
640.001	50.88
640.191	50.83
640.381	50.78
640.571	51.07
640.761	51.29
640.951	51.42
641.141	51.3
641.331	51.38
641.521	51.34
641.711	51.21
641.901	51.18
642.091	51.27
642.281	51.47
642.471	51.55
642.661	51.68
642.851	51.87
643.041	52.09
643.231	52.1
643.42	52.28
643.61	52.36
643.8	52.57
643.99	52.6
644.18	52.57
644.369	52.41
644.559	52.52
644.749	52.29
644.939	52.12
645.128	51.78
645.318	51.76
645.508	51.6
645.697	51.16
645.887	50.92
646.076	50.97
646.266	50.91
646.456	51.14
646.645	51.36
646.835	51.3
647.024	51.45
647.214	51.75
647.403	51.68
647.593	51.92
647.782	51.97
647.972	52.13
648.161	52.09
648.351	52.23
648.54	52.38
648.73	51.98
648.919	52.07
649.108	52.01
649.298	52.05
649.487	52.34
649.677	52.19
649.866	52.27
650.055	52.18
650.244	52.24
650.434	52.25
650.623	52.13
650.812	52.27
651.002	52.24
651.191	51.9
651.38	51.8
651.569	51.65
651.758	51.74
651.947	51.9
652.137	51.73
652.326	51.7
652.515	51.72
652.704	51.89
652.893	51.96
653.082	52.1
653.271	52.5
653.46	52.52
653.649	52.6
653.838	52.66
654.027	52.61
654.216	52.84
654.405	53.03
654.594	52.87
654.783	52.36
654.972	52.22
655.161	52.18
655.35	52.2
655.539	52.4
655.728	52.43
655.916	51.99
656.105	51.99
656.294	51.94
656.483	51.88
656.672	52.05
656.86	52.15
657.049	52.02
657.238	51.65
657.427	51.51
657.615	51.32
657.804	51.19
657.993	51.36
658.181	51.07
658.37	50.88
658.559	50.67
658.747	50.62
658.936	50.63
659.125	50.51
659.313	50.62
659.502	50.72
659.69	50.75
659.879	50.58
660.067	50.67
660.256	50.9
660.444	51.12
660.633	51.42
660.821	51.46
661.01	51.77
661.198	52.13
661.387	52.46
661.575	52.67
661.763	52.74
661.952	53.24
662.14	53.56
662.328	53.71
662.517	53.84
662.705	53.73
662.893	53.73
663.082	53.61
663.27	53.69
663.458	53.57
663.646	53.41
663.834	53.75
664.023	53.71
664.211	53.44
664.399	53.81
664.587	53.89
664.775	53.68
664.963	54.08
665.152	54.09
665.34	53.93
665.528	54.08
665.716	54.17
665.904	54.11
666.092	54.07
666.28	54.17
666.468	53.93
666.656	54.1
666.844	54.48
667.032	54.63
667.22	54.63
667.408	55.11
667.596	55.24
667.784	55.12
667.971	55.13
668.159	55.36
668.347	55.28
668.535	55.5
668.723	55.14
668.911	55.18
669.098	54.68
669.286	54.91
669.474	54.47
669.662	54.14
669.849	54.04
670.037	54.09
670.225	54.15
670.413	54.21
670.6	54.04
670.788	54.1
670.976	53.99
671.163	54.12
671.351	53.93
671.538	54.22
671.726	54.52
671.913	54.59
672.101	54.33
672.289	54.18
672.476	54.22
672.664	54.34
672.851	54.54
673.039	54.72
673.226	54.96
673.413	55.09
673.601	54.97
673.788	54.92
673.976	54.96
674.163	54.97
674.35	54.8
674.538	55.1
674.725	55.07
674.912	55.16
675.1	55.15
675.287	55.05
675.474	54.87
675.662	55.03
675.849	55.26
676.036	55.26
676.223	55.64
676.411	55.83
676.598	55.58
676.785	55.5
676.972	55.29
677.159	55.11
677.346	55.05
677.533	55.09
677.721	54.81
677.908	54.14
678.095	53.96
678.282	53.58
678.469	53.23
678.656	52.96
678.843	52.9
679.03	52.89
679.217	52.75
679.404	52.65
679.591	52.45
679.778	52.43
679.964	52.79
680.151	52.91
680.338	52.78
680.525	52.78
680.712	53.09
680.899	52.95
681.086	53.11
681.272	53.19
681.459	53.18
681.646	53.57
681.833	53.7
682.02	53.72
682.206	53.76
682.393	54.08
682.58	54.4
682.766	54.28
682.953	54.6
683.14	54.63
683.326	55.03
683.513	55.1
683.7	54.87
683.886	54.79
684.073	54.78
684.259	54.84
684.446	54.78
684.632	54.82
684.819	55.21
685.005	55.26
685.192	55.43
685.378	55.46
685.565	55.6
685.751	55.8
685.938	55.98
686.124	56.2
686.31	56.59
686.497	56.65
686.683	56.85
686.87	56.52
687.056	56.21
687.242	56.02
687.429	55.81
687.615	55.87
687.801	56.15
687.987	56.2
688.174	56.21
688.36	55.86
688.546	56.07
688.732	55.84
688.918	55.67
689.105	55.96
689.291	56.11
689.477	56.15
689.663	56.36
689.849	55.95
690.035	55.96
690.221	55.85
690.407	56.23
690.593	55.92
690.779	56.14
690.965	56.76
691.151	57.09
691.337	57.2
691.523	57.41
691.709	57.28
691.895	57.66
692.081	57.46
692.267	57.91
692.453	57.57
692.639	57.69
692.825	57.47
693.011	57.31
693.196	57
693.382	56.68
693.568	56.38
693.754	56.16
693.94	56.33
694.125	56.68
694.311	56.28
694.497	56.45
694.682	56.68
694.868	56.72
695.054	56.83
695.239	56.97
695.425	57.22
695.611	57.57
695.796	57.37
695.982	56.79
696.168	56.85
696.353	56.59
696.539	56.3
696.724	55.89
696.91	55.6
697.095	55.12
697.281	54.59
697.466	54.02
697.652	53.55
697.837	53.57
698.023	53.56
698.208	53.4
698.393	53.57
698.579	53.66
698.764	53.52
698.949	53.66
699.135	53.71
699.32	53.94
699.505	54.24
699.691	54.42
699.876	54.62
700.061	54.61
700.246	54.75
700.432	54.83
700.617	54.83
700.802	54.91
700.987	55.29
701.172	55.7
701.358	55.91
701.543	56.26
701.728	56.54
701.913	57.1
702.098	57.7
702.283	58.32
702.468	58.53
702.653	58.8
702.838	59.6
703.023	59.75
703.208	59.84
703.393	59.88
703.578	60.26
703.763	60.65
703.948	60.29
704.133	60.72
704.318	60.39
704.503	60.85
704.688	61.21
704.873	61.24
705.057	61.9
705.242	62.22
705.427	62.84
705.612	62.72
705.797	63.17
705.981	63.72
706.166	63.78
706.351	63.96
706.536	63.83
706.72	63.55
706.905	63.5
707.09	63.15
707.274	63.07
707.459	62.94
707.644	62.98
707.828	62.59
708.013	62.72
708.197	62.6
708.382	62.64
708.567	62.74
708.751	62.87
708.936	62.89
709.12	62.76
709.305	62.39
709.489	62.25
709.673	62.1
709.858	61.72
710.042	61.31
710.227	61.51
710.411	61.29
710.596	61.18
710.78	60.97
710.964	60.94
711.149	60.59
711.333	60.69
711.517	60.64
711.702	60.55
711.886	61.17
712.07	60.98
712.254	60.14
712.438	60.29
712.623	60.34
712.807	60.52
712.991	60.53
713.175	60.66
713.359	60.69
713.544	60.44
713.728	60.45
713.912	59.77
714.096	59.59
714.28	59.83
714.464	59.34
714.648	58.62
714.832	58.17
715.016	57.98
715.2	58.09
715.384	58.16
715.568	58.29
715.752	58.47
715.936	58.94
716.12	59.09
716.304	58.96
716.488	58.77
716.671	58.88
716.855	59.32
717.039	59.41
717.223	59.29
717.407	58.97
717.59	58.98
717.774	58.6
717.958	58.25
718.142	58.38
718.325	58.96
718.509	59.51
718.693	59.7
718.877	59.52
719.06	59.81
719.244	59.95
719.428	60.52
719.611	60.71
719.795	61.22
719.978	61.56
720.162	61.6
720.345	61.47
720.529	61.34
720.713	61.93
720.896	62.63
721.08	62.89
721.263	63.37
721.446	63.3
721.63	63.35
721.813	62.84
721.997	62.53
722.18	62.89
722.364	62.81
722.547	63.27
722.73	63.48
722.914	63.12
723.097	62.91
723.28	62.63
723.464	62.57
723.647	62.52
723.83	63.02
724.013	63.27
724.197	63.2
724.38	63.04
724.563	62.75
724.746	63.04
724.929	63.17
725.112	63.15
725.296	63.24
725.479	63.33
725.662	63.42
725.845	63.22
726.028	62.88
726.211	62.59
726.394	63.07
726.577	62.8
726.76	62.06
726.943	61.85
727.126	61.79
727.309	61.35
727.492	61.13
727.675	60.89
727.858	60.91
728.041	61.91
728.224	62.35
728.407	61.61
728.589	61.96
728.772	61.95
728.955	61.62
729.138	61.6
729.321	62.02
729.503	62.38
729.686	62.3
729.869	62.47
730.052	61.55
730.234	61.04
730.417	61.68
730.6	61.51
730.782	61.45
730.965	61.4
731.148	60.98
731.33	60.45
731.513	60.11
731.695	60.12
731.878	60.07
732.061	60.38
732.243	60.67
732.426	60.15
732.608	60.46
732.791	60.55
732.973	60.43
733.156	61.38
733.338	61.38
733.52	61.8
733.703	62.27
733.885	62.28
734.068	62.38
734.25	62.37
734.432	62.62
734.615	62.67
734.797	63.13
734.979	63.64
735.162	63.49
735.344	63.4
735.526	63.51
735.708	63.94
735.891	64.17
736.073	64.16
736.255	64.08
736.437	63.92
736.619	63.61
736.802	63.43
736.984	63.29
737.166	62.99
737.348	63.31
737.53	63.17
737.712	62.95
737.894	62.5
738.076	62.44
738.258	62.64
738.44	62.91
738.622	63.07
738.804	62.65
738.986	62.87
739.168	62.28
739.35	63.11
739.532	63.38
739.714	63.37
739.896	64.24
740.078	64.55
740.259	64.5
740.441	64.97
740.623	65.23
740.805	65.48
740.987	65.96
741.168	67.41
741.35	67.33
741.532	67.35
741.714	67.27
741.895	67.27
742.077	67.46
742.259	67.47
742.44	67.1
742.622	67.25
742.804	67.43
742.985	67.02
743.167	66.54
743.348	65.99
743.53	65.76
743.711	66.42
743.893	66.24
744.075	65.97
744.256	66.8
744.438	67.35
744.619	68.31
744.8	68.8
744.982	69.61
745.163	69.63
745.345	70.96
745.526	71.85
745.707	70.4
745.889	70.46
746.07	70.72
746.252	69.79
746.433	70.17
746.614	68.88
746.795	68.46
746.977	68.43
747.158	68.65
747.339	67.72
747.52	67.7
747.702	68.94
747.883	69.06
748.064	69.14
748.245	69.32
748.426	69.01
748.607	68.94
748.788	69.3
748.97	69.39
749.151	68.73
749.332	69.09
749.513	68.44
749.694	68.23
749.875	68.13
750.056	68.46
750.237	68.48
750.418	67.35
750.599	67.2
750.78	66.94
750.96	66.94
751.141	67.85
751.322	67.49
751.503	68.08
751.684	67.62
751.865	67.67
752.046	67.55
752.226	68.08
752.407	69.08
752.588	69.91
752.769	70.34
752.949	70.37
753.13	70.56
753.311	71.05
753.492	70.33
753.672	70.68
753.853	71.45
754.034	71.62
754.214	71.71
754.395	71.13
754.575	70.88
754.756	70.09
754.937	70.38
755.117	69.6
755.298	69.22
755.478	69.18
755.659	68.89
755.839	68.2
756.02	67.6
756.2	67.09
756.381	67.54
756.561	67.94
756.741	68.4
756.922	66.9
757.102	67.31
757.283	67.67
757.463	68.83
757.643	68.88
757.823	68.62
758.004	68.69
758.184	68.38
758.364	68.44
758.545	67.39
758.725	67.87
758.905	67.83
759.085	66.97
759.265	65.42
759.446	64.05
759.626	63.98
759.806	63.77
759.986	63.34
760.166	63.52
760.346	62.85
760.526	62.4
760.706	61.61
760.886	61.09
761.066	61.14
761.246	61.56
761.426	61.44
761.606	61.11
761.786	60.83
761.966	60.53
762.146	60.71
762.326	60.54
762.506	61.08
762.686	60.64
762.866	60.83
763.046	60.42
763.225	60.65
763.405	60.37
763.585	60.17
763.765	59.8
763.945	59.89
764.124	59.45
764.304	59.73
764.484	59.83
764.664	60.16
764.843	60.41
765.023	60.89
765.203	60.6
765.382	61.1
765.562	61.53
765.741	62.3
765.921	63.25
766.101	64.11
766.28	64.31
766.46	64.05
766.639	64.5
766.819	65.37
766.998	65.89
767.178	66.75
767.357	66.78
767.537	67.16
767.716	67.48
767.896	67.89
768.075	67.86
768.254	67.95
768.434	68.8
768.613	68.91
768.792	68.87
768.972	68.61
769.151	68.66
769.33	69.57
769.51	70.3
769.689	69.97
769.868	69.96
770.047	70.92
770.226	71.66
770.406	72.42
770.585	72.41
770.764	72.05
770.943	72.56
771.122	72.4
771.301	72.15
771.48	72.97
771.66	72.57
771.839	71.89
772.018	71.41
772.197	71.41
772.376	70.82
772.555	72.35
772.734	72.97
772.913	73.5
773.092	73.4
773.271	73.81
773.449	73.42
773.628	75.2
773.807	74.99
773.986	75.08
774.165	75.21
774.344	76.75
774.523	75.78
774.701	75.46
774.88	74.61
775.059	74.93
775.238	74.96
775.417	74.22
775.595	73.94
775.774	75.13
775.953	74.89
776.131	74.55
776.31	73.81
776.489	73.95
776.667	74.27
776.846	74.86
777.025	74.93
777.203	74.42
777.382	75.67
777.56	75.97
777.739	75.29
777.917	76.4
778.096	76.84
778.274	76.16
778.453	75.66
778.631	76.09
778.81	76.02
778.988	76.91
779.166	77.71
779.345	76.89
779.523	75.64
779.702	76.42
779.88	76.1
780.058	75.84
780.237	76.71
780.415	78.3
780.593	78.11
780.771	78.39
780.95	79.11
781.128	79.54
781.306	78.78
781.484	80.93
781.662	80.26
781.841	79.2
782.019	79.77
782.197	78.9
782.375	77.45
782.553	77.9
782.731	76.98
782.909	76.85
783.087	77.24
783.265	78.59
783.443	77.42
783.621	77.38
783.799	77.87
783.977	78.08
784.155	78.29
784.333	79.39
784.511	79.78
784.689	81.29
784.867	80.09
785.045	79.17
785.223	78.92
785.4	79.87
785.578	80.72
785.756	81.22
785.934	81.17
786.112	82.37
786.289	81.35
786.467	81.68
786.645	81.9
786.823	81.44
787	80.89
787.178	79.65
787.356	78.64
787.533	77.92
787.711	76.94
787.889	76.8
788.066	75.38
788.244	74.93
788.421	73.74
788.599	72.66
788.776	72.35
788.954	72.35
789.131	71.89
789.309	72.93
789.486	72.91
789.664	73.04
789.841	72.92
790.019	73.96
790.196	76.05
790.373	77.86
790.551	79.15
790.728	80.22
790.906	82.03
791.083	84.17
791.26	82.56
791.437	82.42
791.615	83.39
791.792	82.46
791.969	81.27
792.146	80.78
792.324	80.22
792.501	79.45
792.678	78.4
792.855	77.03
793.032	76.64
793.209	77.22
793.387	77.55
793.564	76.71
793.741	79.04
793.918	81.29
794.095	79.78
794.272	77.61
794.449	77.49
794.626	79.19
794.803	79.69
794.98	79.69
795.157	79.71
795.334	78.45
795.511	78.56
795.688	77.86
795.864	76.68
796.041	77.13
796.218	78.65
796.395	78.74
796.572	77.5
796.749	77.41
796.925	76.86
797.102	76.91
797.279	78.22
797.456	77.93
797.632	78.05
797.809	78.37
797.986	78.66
798.162	78.71
798.339	77.46
798.516	78.31
798.692	77.88
798.869	77.3
799.046	78.21
799.222	77.38
799.399	78.04
799.575	77.07
799.752	77.95
799.928	77.02
800.105	76.42
800.281	77.32
800.458	76.76
800.634	77.27
800.811	79.59
800.987	78.57
801.163	79.21
801.34	79.43
801.516	79.08
801.692	78.1
801.869	78.88
802.045	79.14
802.221	78.52
802.398	78.57
802.574	78.04
802.75	77.19
802.926	78.32
803.103	79.25
803.279	79.53
803.455	80.6
803.631	79.86
803.807	79.25
803.983	79.95
804.16	83.76
804.336	84.59
804.512	87.15
804.688	88.28
804.864	87.11
805.04	87.27
805.216	87.39
805.392	88.3
805.568	88.87
805.744	89.81
805.92	90.07
806.096	87.91
806.272	88.2
806.448	86.96
806.623	85.95
806.799	86.94
806.975	85.8
807.151	83.79
807.327	83.6
807.503	83.77
807.678	84.33
807.854	83.93
808.03	83.54
808.206	82.34
808.381	80.03
808.557	79.94
808.733	80.2
808.908	80.31
809.084	82.5
809.26	81.81
809.435	80.71
809.611	78.72
809.787	78.79
809.962	79.61
810.138	80.65
810.313	81.19
810.489	83.29
810.664	83.52
810.84	82.9
811.015	82.43
811.191	81.85
811.366	83.6
811.542	86.01
811.717	85
811.892	83.84
812.068	84.96
812.243	85.35
812.419	83.05
812.594	81.74
812.769	83.51
812.944	83.44
813.12	85.76
813.295	86.54
813.47	85.09
813.645	87.05
813.821	87.68
813.996	86.33
814.171	87.9
814.346	87.56
814.521	89.04
814.697	88.5
814.872	89.57
815.047	88.64
815.222	85.95
815.397	87.46
815.572	86.21
815.747	86.02
815.922	85.22
816.097	84.46
816.272	84.27
816.447	82.65
816.622	81
816.797	80.65
816.972	79.29
817.147	80.07
817.322	79.22
817.496	78.51
817.671	78.73
817.846	79.36
818.021	79.26
818.196	79.87
818.371	79.76
818.545	80.07
818.72	79.14
818.895	78.2
819.069	76.76
819.244	76.4
819.419	76.3
819.594	75.44
819.768	73.98
819.943	72.06
820.117	69.98
820.292	66.62
820.467	64.34
820.641	61.83
820.816	59.96
820.99	58.94
821.165	56.65
821.339	54.77
821.514	54.01
821.688	52.75
821.863	51.99
822.037	51.28
822.212	50.99
822.386	50.64
822.56	50.36
822.735	50.24
822.909	49.67
823.084	49.99
823.258	50.12
823.432	49.98
823.606	50.39
823.781	50.7
823.955	51.12
824.129	52.09
824.303	52.6
824.478	53.04
824.652	53.96
824.826	54.98
825	55.64
825.174	56.26
825.348	56.67
825.523	56.9
825.697	57.1
825.871	57.88
826.045	57.64
826.219	57.69
826.393	58.31
826.567	57.19
826.741	57.05
826.915	56.66
827.089	56.79
827.263	56.72
827.437	56.6
827.611	56.66
827.784	57.05
827.958	56.81
828.132	57.06
828.306	57.15
828.48	57.92
828.654	58.53
828.827	58.99
829.001	59.81
829.175	60.24
829.349	61.79
829.522	62.38
829.696	62.83
829.87	64.83
830.044	66.19
830.217	67.94
830.391	69.75
830.565	70.6
830.738	72.8
830.912	73.47
831.085	74.55
831.259	76.08
831.432	76.71
831.606	76.29
831.779	76.08
831.953	73.73
832.126	72.29
832.3	71.55
832.473	70.66
832.647	68.91
832.82	67.13
832.994	66.53
833.167	64.18
833.34	63.52
833.514	62.85
833.687	62
833.86	62.61
834.034	62.57
834.207	61.91
834.38	61.58
834.553	61.92
834.727	62.76
834.9	62.84
835.073	63.92
835.246	64.31
835.419	65.4
835.593	66.41
835.766	67.28
835.939	67.48
836.112	69.14
836.285	71.93
836.458	72.8
836.631	74.49
836.804	76.15
836.977	78.2
837.15	82.13
837.323	83.56
837.496	85.89
837.669	86.96
837.842	89.63
838.015	92.14
838.188	91.8
838.361	93.85
838.533	92.07
838.706	94.46
838.879	93.4
839.052	91.86
839.225	92.46
839.398	89.59
839.57	89.91
839.743	90.1
839.916	86.98
840.088	88.05
840.261	88.53
840.434	90.83
840.607	88.71
840.779	89.52
840.952	91.66
841.124	90.97
841.297	91.78
841.47	92.35
841.642	93.25
841.815	95.34
841.987	96.17
842.16	96.04
842.332	100.74
842.505	101.09
842.677	100.02
842.85	96.37
843.022	98.12
843.194	101.34
843.367	104.75
843.539	104.8
843.712	103.41
843.884	102.39
844.056	106.67
844.229	105.03
844.401	106.15
844.573	112.13
844.745	118.39
844.918	120.91
845.09	122.31
845.262	122
845.434	130.97
845.606	138.87
845.779	143.93
845.951	142.05
846.123	139.47
846.295	141.56
846.467	137.6
846.639	134.43
846.811	135.34
846.983	134.21
847.155	134.45
847.327	127.54
847.499	127.54
847.671	125.21
847.843	126.51
848.015	126.4
848.187	130.77
848.359	132.13
848.531	133.15
848.703	126.27
848.875	130.17
849.047	128.46
849.218	127.11
849.39	130.34
849.562	130.56
849.734	127.91
849.905	135.2
850.077	132.35
850.249	131.44
850.421	132.61
850.592	137.79
850.764	138.26
850.936	144.39
851.107	149.36
851.279	150.41
851.451	156.32
851.622	152.46
851.794	147.06
851.965	148.44
852.137	149.5
852.308	155.09
852.48	154.36
852.651	152.38
852.823	143.71
852.994	142.37
853.166	140.42
853.337	132.98
853.509	135.45
853.68	132.65
853.851	130.02
854.023	129.63
854.194	128.74
854.365	132.83
854.537	131.93
854.708	131.84
854.879	130.98
855.05	133.4
855.222	133.33
855.393	133.88
855.564	134.01
855.735	134.01
855.906	134.16
856.078	131.12
856.249	123.88
856.42	120.03
856.591	123.34
856.762	122.55
856.933	117.56
857.104	121.63
857.275	122.92
857.446	124.59
857.617	132.35
857.788	129.57
857.959	129.18
858.13	136.28
858.301	149.46
858.472	148.84
858.643	152.21
858.814	156.08
858.985	151.65
859.155	153.13
859.326	159.08
859.497	155.2
859.668	164.6
859.839	171.46
860.009	168.82
860.18	160.53
860.351	158.86
860.522	165.49
860.692	160.04
860.863	164.74
861.034	165.63
861.204	165.05
861.375	163.03
861.546	153.98
861.716	150.2
861.887	153.11
862.057	147.45
862.228	145.88
862.398	143.64
862.569	145.78
862.739	142.64
862.91	138.5
863.08	133.75
863.251	133.22
863.421	136.45
863.592	139.58
863.762	136.44
863.932	141.45
864.103	139.44
864.273	142.25
864.443	143.2
864.614	145.14
864.784	142.15
864.954	144.4
865.125	153.29
865.295	152.11
865.465	147.39
865.635	147.72
865.805	148.88
865.976	153.97
866.146	151.44
866.316	153.46
866.486	153.79
866.656	160.84
866.826	164.02
866.996	155.37
867.166	157.58
867.336	159.1
867.506	163.46
867.676	162.3
867.846	157.82
868.016	161.29
868.186	160.32
868.356	163.37
868.526	163.48
868.696	164.66
868.866	165.4
869.036	162.67
869.206	161.79
869.376	153.92
869.545	155.26
869.715	166.48
869.885	151.32
870.055	151.33
870.224	148.78
870.394	148.12
870.564	147.4
870.734	143.52
870.903	144.25
871.073	140.96
871.243	144.34
871.412	135.16
871.582	129.18
871.751	132.79
871.921	130.43
872.091	127.33
872.26	125.3
872.43	122.45
872.599	126.17
872.769	124.6
872.938	128.81
873.108	131.8
873.277	141.91
873.446	136.67
873.616	139.14
873.785	140.71
873.955	141.66
874.124	143.4
874.293	138.49
874.463	135.06
874.632	132.24
874.801	125.01
874.971	121.71
875.14	119.54
875.309	127.14
875.478	128.86
875.647	125.19
875.817	128.32
875.986	127.79
876.155	129.86
876.324	135.28
876.493	143.84
876.662	141.54
876.831	140.66
877	139
877.17	136.78
877.339	134.31
877.508	132.29
877.677	134.12
877.846	126.36
878.015	127.58
878.184	117.84
878.352	114.1
878.521	114.21
878.69	108.35
878.859	109.84
879.028	108.14
879.197	103.2
879.366	102.75
879.534	95.41
879.703	93.83
879.872	89.88
880.041	89.69
880.21	85.05
880.378	81.8
880.547	79
880.716	74.59
880.884	70.71
881.053	68.35
881.222	66.82
881.39	64.34
881.559	62.69
881.727	61.42
881.896	59.43
882.065	58.25
882.233	56.99
882.402	56.66
882.57	55.75
882.739	55.42
882.907	55.22
883.076	54.96
883.244	55.42
883.412	56.82
883.581	56.87
883.749	57.71
883.918	58.92
884.086	60.98
884.254	61.55
884.423	63.56
884.591	66.28
884.759	69.42
884.927	73.4
885.096	76.9
885.264	79.53
885.432	83.28
885.6	87.32
885.769	91.63
885.937	91.84
886.105	97.8
886.273	99.11
886.441	102.18
886.609	105.16
886.777	106.06
886.945	109.85
887.113	113.82
887.281	120.49
887.449	123.77
887.617	131
887.785	137.14
887.953	137.88
888.121	143.96
888.289	148.35
888.457	143.03
888.625	140.13
888.793	141.04
888.961	132.85
889.129	129.2
889.296	127.93
889.464	120.75
889.632	120.79
889.8	122.74
889.967	123.85
890.135	116.7
