Data from 2938777__Reflection_02.txt Node
Date: Fri Mar 13 13:42:25 EDT 2015
User: robert
Spectrometer: USB4E03002
Autoset integration time: false
Trigger mode: 4
Integration Time (sec): 1.000000E-1
Scans to average: 10
Electric dark correction enabled: false
Nonlinearity correction enabled: false
Boxcar width: 5
Stray light correction enabled: false
XAxis mode: Wavelengths
Stop averaging: false
Number of Pixels in Spectrum: 3648
>>>>>Begin Spectral Data<<<<<
177.575	-260.42
177.794	-524.66
178.014	-1611.11
178.233	828.36
178.452	1481.08
178.672	326.14
178.891	192.68
179.11	630.43
179.33	149.25
179.549	138.1
179.768	396.67
179.987	-159.7
180.207	51.85
180.426	132.31
180.645	42.86
180.864	58.06
181.084	21.26
181.303	-106.07
181.522	-612.77
181.741	3173.33
181.96	173.97
182.179	168.7
182.398	142.46
182.618	99.4
182.837	127.31
183.056	100
183.275	108.42
183.494	80.46
183.713	36.99
183.932	40.25
184.151	24.3
184.37	-3.45
184.589	-28.65
184.808	-35.56
185.027	63.51
185.246	17.21
185.465	22.19
185.684	-19.6
185.903	-16.08
186.122	30.42
186.341	25.23
186.56	18.43
186.779	-1.6
186.998	3.64
187.216	33.96
187.435	22.88
187.654	51.3
187.873	34.84
188.092	59.18
188.311	116.76
188.53	132.69
188.748	404.69
188.967	-712.5
189.186	199.28
189.405	268.35
189.623	78.99
189.842	52.66
190.061	72.36
190.28	146.91
190.498	120.53
190.717	92.09
190.936	68.49
191.154	63.8
191.373	74.15
191.592	88.47
191.81	56.94
192.029	74.53
192.248	104.37
192.466	106.34
192.685	83.43
192.904	92.83
193.122	73.58
193.341	82.8
193.559	60.63
193.778	30.11
193.996	-55.72
194.215	-136
194.433	-41.12
194.652	-92.57
194.87	-154.26
195.089	-4160
195.307	-961.54
195.526	182.24
195.744	12.77
195.963	87.98
196.181	148.76
196.399	166.93
196.618	155.99
196.836	211.37
197.055	288.31
197.273	451.65
197.491	1500
197.71	774.07
197.928	296.65
198.146	417.8
198.365	568
198.583	462.12
198.801	-67.25
199.019	-38.97
199.238	21
199.456	17.32
199.674	9.93
199.892	71.95
200.111	67.77
200.329	103.01
200.547	117.37
200.765	125.12
200.983	133.33
201.202	331.78
201.42	533.33
201.638	-691.3
201.856	-246.39
202.074	-551.22
202.292	-9.47
202.51	4.65
202.728	42.98
202.946	91.95
203.165	39.68
203.383	-4600
203.601	24.65
203.819	-65.35
204.037	-23.53
204.255	76.04
204.473	42.05
204.691	20.44
204.909	20.1
205.127	5.02
205.345	-13.31
205.562	-0.33
205.78	82.68
205.998	75.12
206.216	80.29
206.434	78.05
206.652	108.68
206.87	144.1
207.088	104.16
207.306	144.42
207.523	126.79
207.741	124.67
207.959	98.18
208.177	59.47
208.395	50.46
208.612	22.96
208.83	25.54
209.048	-88.89
209.266	-1433.33
209.483	1405.88
209.701	1760
209.919	-646.88
210.136	-6160
210.354	636.11
210.572	213.66
210.79	-113.08
211.007	38.49
211.225	193.22
211.442	65.91
211.66	52.54
211.878	78.6
212.095	220
212.313	284.9
212.53	243.05
212.748	216.84
212.966	167.4
213.183	215.54
213.401	190.67
213.618	138.82
213.836	124.12
214.053	147.39
214.271	141.04
214.488	22.2
214.705	2.03
214.923	6.02
215.14	21.88
215.358	26.41
215.575	18.31
215.793	23.08
216.01	39.28
216.227	51.29
216.445	50.21
216.662	44.37
216.879	44.83
217.097	44.59
217.314	50.44
217.531	37.66
217.749	41.91
217.966	34.2
218.183	29.38
218.4	-5.66
218.618	-9.59
218.835	-14.05
219.052	-17.7
219.269	-17.84
219.487	-2.67
219.704	-1.63
219.921	-1.85
220.138	-1.43
220.355	1.6
220.572	3.82
220.79	12.93
221.007	3.96
221.224	12.1
221.441	16.99
221.658	18.36
221.875	13.43
222.092	18.29
222.309	20.64
222.526	16.72
222.743	8.28
222.96	7.68
223.177	7.36
223.394	16.35
223.611	9.79
223.828	10.52
224.045	11.53
224.262	17.48
224.479	16.82
224.696	16.58
224.913	15.67
225.13	18.36
225.347	22.74
225.564	20.77
225.781	17.78
225.997	16
226.214	15.72
226.431	12.31
226.648	7.33
226.865	6.5
227.082	5.48
227.298	5.35
227.515	5.01
227.732	2.51
227.949	2.51
228.165	2.86
228.382	3.36
228.599	2.22
228.816	2.58
229.032	2.31
229.249	1.85
229.466	2.3
229.682	2.53
229.899	2.17
230.116	2.38
230.332	2.87
230.549	2.57
230.765	2.79
230.982	3.86
231.199	3.41
231.415	4.26
231.632	4.67
231.848	6.05
232.065	3.95
232.281	4.85
232.498	3.92
232.714	4.29
232.931	5.44
233.147	5.47
233.364	4.69
233.58	4.42
233.797	4.32
234.013	4.66
234.23	2.73
234.446	3.42
234.662	2.83
234.879	4
235.095	3.04
235.312	3.43
235.528	2.58
235.744	1.87
235.961	3.61
236.177	2.65
236.393	2.14
236.61	1.88
236.826	3.62
237.042	3.31
237.258	2.22
237.475	2.13
237.691	0.48
237.907	-0.05
238.123	2.75
238.339	1.22
238.556	0.38
238.772	1.43
238.988	0.09
239.204	-0.52
239.42	0.72
239.636	2.36
239.853	2.82
240.069	3.59
240.285	3.82
240.501	3.08
240.717	3.57
240.933	4.68
241.149	4.05
241.365	4.05
241.581	4.36
241.797	4.42
242.013	4.31
242.229	4.12
242.445	4.05
242.661	4.37
242.877	4.39
243.093	4.3
243.309	4.02
243.525	3.89
243.741	3.96
243.957	3.8
244.173	3.43
244.388	2.99
244.604	2.42
244.82	2.22
245.036	1.79
245.252	1.32
245.468	1.51
245.683	2.14
245.899	2.35
246.115	2.65
246.331	2.48
246.547	2.39
246.762	2.62
246.978	2.79
247.194	3.06
247.409	3.26
247.625	3.53
247.841	3.44
248.057	2.96
248.272	2.99
248.488	3.43
248.703	3.82
248.919	3.72
249.135	3.73
249.35	4.11
249.566	3.9
249.782	3.66
249.997	3.6
250.213	4.24
250.428	4.67
250.644	4.77
250.859	3.7
251.075	3.5
251.29	3.49
251.506	4.07
251.721	3.44
251.937	2.93
252.152	3.17
252.368	3.35
252.583	2.29
252.798	1.94
253.014	2
253.229	2.63
253.445	1.94
253.66	1.86
253.875	1.65
254.091	1.86
254.306	2.48
254.521	2.15
254.737	2.44
254.952	3.31
255.167	3.41
255.383	3.2
255.598	2.33
255.813	2.65
256.028	3.26
256.244	2.34
256.459	2.05
256.674	1.76
256.889	2.08
257.104	0.84
257.32	1.59
257.535	1.77
257.75	2.03
257.965	1.87
258.18	1.54
258.395	1.5
258.61	1.93
258.826	2.16
259.041	2.29
259.256	2.21
259.471	2.13
259.686	1.86
259.901	2.18
260.116	2.11
260.331	2.46
260.546	2.58
260.761	2.49
260.976	2.14
261.191	2.32
261.406	2.05
261.621	1.87
261.836	2.23
262.05	1.7
262.265	1.22
262.48	0.83
262.695	0.71
262.91	0.32
263.125	0.05
263.34	0.51
263.555	-0.07
263.769	0.37
263.984	0.28
264.199	-0.37
264.414	0.02
264.629	0.07
264.843	0.31
265.058	-0.13
265.273	1.01
265.488	1.35
265.702	1.67
265.917	1.34
266.132	1.65
266.346	2
266.561	2.89
266.776	3.13
266.99	2.89
267.205	3.05
267.42	2.87
267.634	2.54
267.849	2.45
268.063	2.21
268.278	3.01
268.492	2.51
268.707	2.36
268.922	1.34
269.136	1.86
269.351	1.72
269.565	1.78
269.78	1.98
269.994	1.98
270.209	1.7
270.423	1.61
270.637	1.01
270.852	1.1
271.066	1.5
271.281	1.88
271.495	1.21
271.709	1.3
271.924	1.45
272.138	1.35
272.353	1.5
272.567	1.96
272.781	1.74
272.996	1.77
273.21	1.79
273.424	1.82
273.638	1.8
273.853	2.09
274.067	2.17
274.281	1.88
274.495	1.8
274.71	1.76
274.924	1.99
275.138	1.86
275.352	2.32
275.566	2.18
275.781	1.74
275.995	2.3
276.209	2.28
276.423	2.04
276.637	1.82
276.851	2.2
277.065	2.16
277.279	1.96
277.493	2.27
277.707	2.13
277.921	2.13
278.135	2.23
278.349	1.57
278.563	2.03
278.777	2.43
278.991	2.65
279.205	2.5
279.419	1.99
279.633	1.91
279.847	1.42
280.061	1.04
280.275	1.01
280.489	1.18
280.703	1.2
280.917	1.09
281.131	0.91
281.344	0.91
281.558	0.78
281.772	1.33
281.986	1.27
282.2	1.7
282.414	1.49
282.627	1.62
282.841	1.22
283.055	1.15
283.269	0.84
283.482	0.54
283.696	0.34
283.91	0.38
284.123	0.23
284.337	0.35
284.551	0.43
284.764	0.72
284.978	0.6
285.192	1
285.405	1.26
285.619	1.18
285.833	1.43
286.046	1.29
286.26	1.26
286.473	1.29
286.687	1.04
286.9	0.63
287.114	0.53
287.327	0.43
287.541	0.18
287.754	0.04
287.968	-0.01
288.181	0.18
288.395	0.57
288.608	0.8
288.822	0.59
289.035	0.61
289.248	0.95
289.462	1.17
289.675	1.54
289.889	1.68
290.102	1.57
290.315	1.98
290.529	1.72
290.742	1.84
290.955	1.51
291.169	1.84
291.382	1.88
291.595	1.93
291.808	2.25
292.022	1.72
292.235	1.73
292.448	1.81
292.661	1.64
292.875	1.69
293.088	1.75
293.301	1.69
293.514	1.56
293.727	1.96
293.94	1.89
294.153	1.68
294.367	1.8
294.58	1.54
294.793	1.48
295.006	1.49
295.219	1.24
295.432	0.77
295.645	1.32
295.858	1.03
296.071	0.88
296.284	0.78
296.497	0.74
296.71	0.94
296.923	1.31
297.136	1.42
297.349	1.52
297.562	1.84
297.775	2.09
297.988	2.07
298.201	2.51
298.414	2.49
298.626	2.8
298.839	2.78
299.052	2.96
299.265	2.64
299.478	2.68
299.691	2.35
299.903	2.24
300.116	2.44
300.329	2.13
300.542	2.03
300.755	1.82
300.967	1.48
301.18	1.21
301.393	1.32
301.605	1.58
301.818	1.72
302.031	1.92
302.243	1.92
302.456	1.67
302.669	1.6
302.881	1.58
303.094	1.57
303.307	1.71
303.519	1.63
303.732	1.3
303.944	0.94
304.157	0.85
304.37	0.8
304.582	0.71
304.795	0.84
305.007	1.15
305.22	0.86
305.432	1.02
305.645	1.1
305.857	1.96
306.069	1.84
306.282	2.01
306.494	1.7
306.707	1.65
306.919	1.44
307.132	1.22
307.344	1.31
307.556	1.78
307.769	2.07
307.981	2.08
308.193	1.23
308.406	1.48
308.618	1.52
308.83	1.63
309.043	1.73
309.255	1.9
309.467	1.97
309.679	1.5
309.892	1.19
310.104	1.25
310.316	0.97
310.528	1.03
310.74	1.27
310.953	1
311.165	1.14
311.377	1.19
311.589	1.41
311.801	1.21
312.013	1.27
312.225	1.25
312.437	1.06
312.649	1.3
312.862	1.58
313.074	1.31
313.286	1.8
313.498	1.56
313.71	1.69
313.922	1.73
314.134	2.29
314.346	2.39
314.558	2.7
314.77	2.89
314.982	2.83
315.193	2.98
315.405	3.3
315.617	3.15
315.829	3.39
316.041	3.15
316.253	2.75
316.465	2.75
316.677	2.98
316.888	3.09
317.1	2.34
317.312	2.75
317.524	2.84
317.736	2.44
317.947	2.33
318.159	2.71
318.371	3.06
318.583	3.63
318.794	3.61
319.006	3.61
319.218	3.44
319.43	3.77
319.641	3.92
319.853	4.24
320.064	4.46
320.276	4.92
320.488	4.78
320.699	4.88
320.911	4.87
321.123	4.73
321.334	4.38
321.546	4.64
321.757	4.91
321.969	4.12
322.18	4.27
322.392	4.52
322.603	4.08
322.815	3.94
323.026	3.84
323.238	3.61
323.449	3.8
323.661	4.11
323.872	4.04
324.083	4.38
324.295	5.35
324.506	4.79
324.718	4.8
324.929	5.16
325.14	5.47
325.352	5.56
325.563	5.97
325.774	5.8
325.986	6.27
326.197	6.33
326.408	6.73
326.62	6.72
326.831	7.02
327.042	7.19
327.253	7.34
327.464	7.67
327.676	8.21
327.887	8.69
328.098	9.37
328.309	9.35
328.52	10.18
328.732	10.36
328.943	10.82
329.154	11.12
329.365	11.17
329.576	11.64
329.787	11.69
329.998	11.38
330.209	11.49
330.42	11.56
330.631	12.13
330.842	11.94
331.053	12.15
331.264	12.1
331.475	12.42
331.686	13.06
331.897	13.47
332.108	14.02
332.319	14.82
332.53	15.05
332.741	15.68
332.952	15.62
333.163	15.7
333.374	15.48
333.585	15.81
333.795	16.14
334.006	16.18
334.217	16.23
334.428	16.14
334.639	16.22
334.849	16
335.06	15.78
335.271	16.34
335.482	16.6
335.692	17.02
335.903	16.8
336.114	17.14
336.325	16.99
336.535	16.78
336.746	17.14
336.957	17.06
337.167	17.32
337.378	17.44
337.589	17.26
337.799	17.1
338.01	17.58
338.22	17.73
338.431	17.06
338.642	17.05
338.852	17.35
339.063	17.39
339.273	17.11
339.484	17.15
339.694	16.9
339.905	16.72
340.115	16.97
340.326	16.46
340.536	16.68
340.746	17.04
340.957	17.63
341.167	17.46
341.378	17.04
341.588	17.15
341.799	17.17
342.009	17.4
342.219	17.52
342.43	17.41
342.64	17.58
342.85	17.46
343.061	17.54
343.271	17.13
343.481	16.93
343.691	16.81
343.902	17.06
344.112	17.12
344.322	16.95
344.532	17.13
344.743	17.32
344.953	17.11
345.163	16.87
345.373	16.61
345.583	16.59
345.793	16.77
346.004	16.88
346.214	16.72
346.424	16.6
346.634	16.83
346.844	16.52
347.054	16.07
347.264	16.33
347.474	16.71
347.684	16.97
347.894	17.2
348.104	17.35
348.314	17.42
348.524	17.59
348.734	17.45
348.944	17.49
349.154	17.55
349.364	17.9
349.574	17.65
349.784	17.68
349.994	17.85
350.204	17.74
350.413	17.88
350.623	18.08
350.833	17.87
351.043	17.86
351.253	17.86
351.463	18.08
351.672	17.98
351.882	18.38
352.092	18.13
352.302	18.1
352.511	18.16
352.721	17.89
352.931	17.95
353.141	17.78
353.35	17.97
353.56	17.77
353.77	17.55
353.979	17.68
354.189	17.2
354.399	17.25
354.608	16.97
354.818	16.87
355.027	17.06
355.237	16.87
355.447	16.98
355.656	16.86
355.866	16.8
356.075	16.65
356.285	16.44
356.494	16.37
356.704	16.33
356.913	16.42
357.123	16.52
357.332	16.28
357.542	16.28
357.751	16.28
357.96	16.45
358.17	16.24
358.379	16.24
358.589	16.26
358.798	16.58
359.007	16.5
359.217	16.51
359.426	16.53
359.635	16.5
359.845	16.38
360.054	16.28
360.263	16.06
360.472	16.18
360.682	16.3
360.891	16.32
361.1	16.05
361.309	16.09
361.519	16.04
361.728	15.94
361.937	16.05
362.146	16.07
362.355	16.09
362.564	16.26
362.774	16.34
362.983	16.23
363.192	16.16
363.401	16.24
363.61	16.2
363.819	15.97
364.028	15.77
364.237	15.75
364.446	15.67
364.655	15.72
364.864	15.62
365.073	15.41
365.282	15.45
365.491	15.31
365.7	15.15
365.909	15.12
366.118	15.29
366.327	15.4
366.536	15.41
366.745	15.53
366.954	15.36
367.162	15.3
367.371	15.37
367.58	15.4
367.789	15.58
367.998	15.69
368.207	15.54
368.415	15.47
368.624	15.65
368.833	15.57
369.042	15.56
369.25	15.82
369.459	15.87
369.668	15.93
369.877	15.71
370.085	15.67
370.294	15.76
370.503	16.17
370.711	16.36
370.92	16.13
371.129	15.83
371.337	15.73
371.546	15.6
371.754	15.77
371.963	15.6
372.171	15.91
372.38	15.91
372.589	15.97
372.797	15.63
373.006	15.43
373.214	15.42
373.423	15.54
373.631	15.6
373.84	15.58
374.048	15.12
374.256	15.38
374.465	15.49
374.673	15.55
374.882	15.38
375.09	15.57
375.298	15.92
375.507	15.84
375.715	15.96
375.923	15.82
376.132	15.93
376.34	16.22
376.548	16.4
376.757	16
376.965	15.82
377.173	15.79
377.381	15.73
377.59	15.63
377.798	15.83
378.006	15.63
378.214	15.87
378.423	15.79
378.631	15.77
378.839	15.57
379.047	15.83
379.255	16.03
379.463	16.07
379.671	15.83
379.879	15.86
380.088	15.72
380.296	15.85
380.504	15.46
380.712	15.55
380.92	15.41
381.128	15.25
381.336	14.98
381.544	14.84
381.752	14.65
381.96	14.82
382.168	14.63
382.376	14.86
382.584	14.85
382.791	15
382.999	14.91
383.207	14.99
383.415	15.15
383.623	15.05
383.831	15.19
384.039	15.49
384.247	15.39
384.454	15.48
384.662	15.42
384.87	15.33
385.078	15.25
385.285	15.22
385.493	15.06
385.701	15.02
385.909	15.14
386.116	15.37
386.324	15.15
386.532	15.29
386.739	15.2
386.947	15.01
387.155	15.24
387.362	15.4
387.57	15.34
387.778	15.48
387.985	15.48
388.193	15.6
388.4	15.21
388.608	15.36
388.816	15.32
389.023	15.4
389.231	15.4
389.438	15.24
389.646	15.18
389.853	15.26
390.061	15.23
390.268	15.04
390.475	14.9
390.683	14.87
390.89	14.67
391.098	14.65
391.305	14.56
391.512	14.49
391.72	14.48
391.927	14.37
392.135	14.31
392.342	14.27
392.549	14.46
392.756	14.45
392.964	14.54
393.171	14.72
393.378	14.62
393.586	14.59
393.793	14.74
394	14.7
394.207	14.77
394.414	14.78
394.622	14.64
394.829	14.37
395.036	14.4
395.243	14.31
395.45	14.13
395.657	14.16
395.864	14.04
396.072	13.91
396.279	14.02
396.486	13.89
396.693	13.97
396.9	14.28
397.107	14.35
397.314	14.42
397.521	14.38
397.728	14.49
397.935	14.65
398.142	14.88
398.349	14.94
398.556	14.86
398.763	14.83
398.97	14.77
399.177	14.6
399.383	14.64
399.59	14.69
399.797	14.72
400.004	14.65
400.211	14.49
400.418	14.22
400.625	14.14
400.831	14.25
401.038	14.52
401.245	14.54
401.452	14.63
401.658	14.61
401.865	14.46
402.072	14.52
402.279	14.43
402.485	14.5
402.692	14.82
402.899	14.87
403.105	14.79
403.312	14.55
403.519	14.55
403.725	14.58
403.932	14.64
404.138	14.86
404.345	14.96
404.552	14.95
404.758	14.91
404.965	14.69
405.171	14.77
405.378	14.88
405.584	14.89
405.791	14.81
405.997	14.64
406.204	14.62
406.41	14.61
406.617	14.62
406.823	14.79
407.029	14.73
407.236	14.75
407.442	14.63
407.649	14.52
407.855	14.57
408.061	14.65
408.268	14.71
408.474	14.75
408.68	14.55
408.887	14.57
409.093	14.57
409.299	14.65
409.505	14.62
409.712	14.61
409.918	14.73
410.124	14.86
410.33	15
410.537	15.16
410.743	15.15
410.949	15.15
411.155	15.05
411.361	15.05
411.567	15.16
411.773	15.34
411.98	15.48
412.186	15.34
412.392	15.26
412.598	15.13
412.804	14.99
413.01	15.03
413.216	15.2
413.422	15.08
413.628	15.05
413.834	14.93
414.04	14.89
414.246	14.74
414.452	14.74
414.658	14.73
414.864	14.63
415.07	14.82
415.275	14.72
415.481	14.61
415.687	14.72
415.893	14.6
416.099	14.57
416.305	14.49
416.511	14.62
416.716	14.6
416.922	14.66
417.128	14.68
417.334	14.55
417.539	14.57
417.745	14.58
417.951	14.48
418.157	14.5
418.362	14.48
418.568	14.42
418.774	14.25
418.979	14.36
419.185	14.41
419.391	14.4
419.596	14.45
419.802	14.41
420.008	14.36
420.213	13.83
420.419	13.83
420.624	13.84
420.83	13.91
421.035	13.96
421.241	13.84
421.446	13.76
421.652	13.79
421.857	13.8
422.063	13.83
422.268	13.93
422.474	14.5
422.679	14.55
422.885	14.54
423.09	14.51
423.295	14.55
423.501	14.6
423.706	14.61
423.911	14.56
424.117	14.5
424.322	14.49
424.527	14.41
424.733	14.35
424.938	14.28
425.143	14.34
425.349	14.35
425.554	14.36
425.759	14.28
425.964	14.3
426.169	14.31
426.375	14.31
426.58	14.27
426.785	14.23
426.99	14.24
427.195	14.35
427.4	14.34
427.605	14.45
427.811	14.44
428.016	14.42
428.221	14.35
428.426	14.42
428.631	14.45
428.836	14.5
429.041	14.53
429.246	14.51
429.451	14.49
429.656	14.42
429.861	14.29
430.066	14.36
430.271	14.48
430.476	14.55
430.681	14.56
430.886	14.5
431.09	14.54
431.295	14.73
431.5	14.86
431.705	14.8
431.91	14.85
432.115	14.85
432.32	14.91
432.524	14.9
432.729	14.85
432.934	14.79
433.139	14.81
433.343	14.84
433.548	14.76
433.753	14.74
433.958	14.75
434.162	14.76
434.367	14.84
434.572	14.71
434.776	14.69
434.981	14.79
435.186	14.86
435.39	14.86
435.595	14.77
435.799	14.77
436.004	14.76
436.209	14.8
436.413	14.92
436.618	14.82
436.822	14.87
437.027	14.87
437.231	14.8
437.436	14.74
437.64	14.74
437.845	14.79
438.049	14.78
438.253	14.78
438.458	14.74
438.662	14.59
438.867	14.72
439.071	14.68
439.275	14.78
439.48	14.67
439.684	14.7
439.888	14.7
440.093	14.66
440.297	14.57
440.501	14.53
440.706	14.61
440.91	14.72
441.114	14.69
441.318	14.68
441.523	14.62
441.727	14.72
441.931	14.71
442.135	14.72
442.339	14.79
442.543	14.82
442.748	14.84
442.952	14.71
443.156	14.64
443.36	14.68
443.564	14.68
443.768	14.68
443.972	14.61
444.176	14.55
444.38	14.56
444.584	14.55
444.788	14.62
444.992	14.62
445.196	14.62
445.4	14.71
445.604	14.65
445.808	14.66
446.012	14.61
446.216	14.68
446.42	14.65
446.624	14.59
446.828	14.55
447.032	14.47
447.235	14.47
447.439	14.47
447.643	14.39
447.847	14.34
448.051	14.29
448.254	14.3
448.458	14.22
448.662	14.38
448.866	14.48
449.069	14.56
449.273	14.67
449.477	14.73
449.681	14.69
449.884	14.7
450.088	14.8
450.292	14.94
450.495	15.03
450.699	15.03
450.902	14.96
451.106	14.84
451.31	14.86
451.513	14.9
451.717	14.79
451.92	14.85
452.124	14.77
452.327	14.72
452.531	14.71
452.734	14.61
452.938	14.63
453.141	14.56
453.345	14.55
453.548	14.41
453.752	14.23
453.955	14.3
454.158	14.37
454.362	14.5
454.565	14.53
454.769	14.47
454.972	14.55
455.175	14.66
455.379	14.78
455.582	14.98
455.785	15.07
455.988	15.12
456.192	15.21
456.395	15.26
456.598	15.22
456.801	15.25
457.005	15.31
457.208	15.24
457.411	15.28
457.614	15.16
457.817	15.03
458.021	14.91
458.224	15
458.427	14.93
458.63	14.76
458.833	14.75
459.036	14.64
459.239	14.57
459.442	14.55
459.645	14.44
459.848	14.47
460.051	14.47
460.254	14.51
460.457	14.44
460.66	14.45
460.863	14.56
461.066	14.6
461.269	14.66
461.472	14.76
461.675	14.8
461.878	14.82
462.081	14.84
462.284	14.89
462.486	14.94
462.689	14.99
462.892	14.93
463.095	14.87
463.298	14.87
463.5	14.89
463.703	14.85
463.906	14.9
464.109	14.93
464.311	14.97
464.514	14.99
464.717	14.98
464.92	15.02
465.122	15.04
465.325	15.05
465.528	14.98
465.73	14.93
465.933	14.98
466.135	14.99
466.338	15.02
466.541	15.1
466.743	14.99
466.946	15
467.148	15.09
467.351	15.12
467.553	15.2
467.756	15.24
467.958	15.33
468.161	15.31
468.363	15.3
468.566	15.22
468.768	15.06
468.971	15.08
469.173	15.08
469.375	15.02
469.578	14.97
469.78	14.95
469.983	14.95
470.185	14.82
470.387	14.86
470.59	14.85
470.792	14.88
470.994	15.01
471.196	15.03
471.399	15.13
471.601	15.17
471.803	15.28
472.005	15.25
472.208	15.34
472.41	15.52
472.612	15.4
472.814	15.4
473.016	15.39
473.218	15.36
473.421	15.28
473.623	15.16
473.825	15.06
474.027	15.12
474.229	15.16
474.431	15.07
474.633	15.09
474.835	15.16
475.037	15.28
475.239	15.35
475.441	15.31
475.643	15.43
475.845	15.44
476.047	15.43
476.249	15.43
476.451	15.39
476.653	15.39
476.855	15.26
477.057	15.24
477.258	15.18
477.46	15.14
477.662	15.14
477.864	15.2
478.066	15.2
478.268	15.17
478.469	15.17
478.671	15.17
478.873	15.21
479.075	15.19
479.276	15.27
479.478	15.29
479.68	15.33
479.882	15.35
480.083	15.32
480.285	15.39
480.487	15.41
480.688	15.26
480.89	15.36
481.091	15.25
481.293	15.29
481.495	15.19
481.696	15.1
481.898	15.07
482.099	15.02
482.301	14.98
482.502	14.95
482.704	14.97
482.905	14.97
483.107	14.9
483.308	14.94
483.51	14.92
483.711	14.92
483.913	14.87
484.114	14.84
484.315	14.83
484.517	14.84
484.718	14.82
484.92	14.78
485.121	14.77
485.322	14.8
485.524	14.78
485.725	14.75
485.926	14.75
486.127	14.8
486.329	14.83
486.53	14.89
486.731	14.91
486.932	14.92
487.134	14.94
487.335	14.99
487.536	14.97
487.737	14.95
487.938	15.01
488.139	15.07
488.341	15.09
488.542	15.11
488.743	15.1
488.944	15.12
489.145	15.13
489.346	15.2
489.547	15.21
489.748	15.27
489.949	15.3
490.15	15.3
490.351	15.23
490.552	15.28
490.753	15.31
490.954	15.28
491.155	15.22
491.356	15.24
491.557	15.2
491.758	15.15
491.959	15.1
492.159	15.16
492.36	15.12
492.561	15.18
492.762	15.17
492.963	15.15
493.164	15.2
493.364	15.23
493.565	15.26
493.766	15.25
493.967	15.38
494.167	15.38
494.368	15.36
494.569	15.46
494.769	15.48
494.97	15.54
495.171	15.57
495.371	15.53
495.572	15.64
495.773	15.61
495.973	15.64
496.174	15.54
496.375	15.62
496.575	15.66
496.776	15.66
496.976	15.65
497.177	15.58
497.377	15.58
497.578	15.6
497.778	15.66
497.979	15.65
498.179	15.7
498.38	15.75
498.58	15.67
498.78	15.59
498.981	15.56
499.181	15.53
499.382	15.56
499.582	15.57
499.782	15.63
499.983	15.47
500.183	15.46
500.383	15.36
500.584	15.32
500.784	15.38
500.984	15.47
501.184	15.53
501.385	15.51
501.585	15.52
501.785	15.57
501.985	15.5
502.185	15.65
502.386	15.76
502.586	15.83
502.786	15.81
502.986	15.88
503.186	15.89
503.386	15.81
503.586	15.93
503.786	15.91
503.987	15.96
504.187	16
504.387	15.96
504.587	16
504.787	16.08
504.987	16.23
505.187	16.32
505.387	16.33
505.587	16.42
505.786	16.3
505.986	16.31
506.186	16.34
506.386	16.42
506.586	16.42
506.786	16.42
506.986	16.53
507.186	16.4
507.386	16.34
507.585	16.31
507.785	16.23
507.985	16.34
508.185	16.4
508.384	16.32
508.584	16.26
508.784	16.25
508.984	16.21
509.183	16.07
509.383	16.28
509.583	16.29
509.782	16.29
509.982	16.37
510.182	16.32
510.381	16.31
510.581	16.31
510.781	16.33
510.98	16.34
511.18	16.38
511.379	16.38
511.579	16.28
511.778	16.25
511.978	16.28
512.177	16.21
512.377	16.25
512.576	16.3
512.776	16.38
512.975	16.43
513.175	16.55
513.374	16.39
513.573	16.45
513.773	16.45
513.972	16.48
514.172	16.52
514.371	16.61
514.57	16.6
514.77	16.53
514.969	16.48
515.168	16.51
515.367	16.39
515.567	16.6
515.766	16.56
515.965	16.5
516.164	16.54
516.364	16.54
516.563	16.56
516.762	16.55
516.961	16.55
517.16	16.57
517.359	16.54
517.559	16.58
517.758	16.58
517.957	16.65
518.156	16.7
518.355	16.66
518.554	16.69
518.753	16.69
518.952	16.76
519.151	16.85
519.35	16.86
519.549	16.88
519.748	16.9
519.947	16.88
520.146	16.88
520.345	16.84
520.544	16.91
520.743	16.89
520.942	16.94
521.141	17
521.339	17.05
521.538	17.11
521.737	17.18
521.936	17.21
522.135	17.3
522.333	17.35
522.532	17.39
522.731	17.39
522.93	17.47
523.129	17.53
523.327	17.49
523.526	17.43
523.725	17.4
523.923	17.43
524.122	17.47
524.321	17.4
524.519	17.36
524.718	17.46
524.917	17.47
525.115	17.4
525.314	17.39
525.512	17.41
525.711	17.45
525.909	17.43
526.108	17.41
526.306	17.32
526.505	17.36
526.703	17.36
526.902	17.31
527.1	17.26
527.299	17.3
527.497	17.25
527.696	17.17
527.894	17.12
528.092	17.12
528.291	17.09
528.489	17.1
528.688	17.1
528.886	17.11
529.084	17.08
529.283	17.1
529.481	17.07
529.679	17.07
529.877	17.1
530.076	17.11
530.274	17.13
530.472	17.14
530.67	17.21
530.869	17.23
531.067	17.23
531.265	17.25
531.463	17.3
531.661	17.35
531.859	17.41
532.057	17.44
532.255	17.47
532.454	17.47
532.652	17.5
532.85	17.49
533.048	17.5
533.246	17.52
533.444	17.56
533.642	17.55
533.84	17.53
534.038	17.53
534.236	17.58
534.434	17.59
534.632	17.61
534.83	17.62
535.027	17.63
535.225	17.66
535.423	17.73
535.621	17.78
535.819	17.87
536.017	17.93
536.215	17.93
536.412	17.95
536.61	18
536.808	18.05
537.006	18.1
537.203	18.13
537.401	18.13
537.599	18.12
537.797	18.19
537.994	18.18
538.192	18.25
538.39	18.35
538.587	18.49
538.785	18.6
538.983	18.81
539.18	18.86
539.378	18.95
539.575	19.07
539.773	19.1
539.97	19.07
540.168	19.13
540.366	19.18
540.563	19.18
540.761	19.13
540.958	19.08
541.155	19.01
541.353	19.03
541.55	19.06
541.748	19.04
541.945	19.03
542.143	19.08
542.34	19.05
542.537	19.06
542.735	19.08
542.932	19.1
543.129	19.2
543.327	19.29
543.524	19.3
543.721	19.48
543.919	19.63
544.116	19.82
544.313	19.97
544.51	20.16
544.708	20.34
544.905	20.54
545.102	20.81
545.299	20.94
545.496	21.06
545.693	21.23
545.891	21.17
546.088	21.12
546.285	21.08
546.482	21.04
546.679	21.01
546.876	20.92
547.073	20.77
547.27	20.65
547.467	20.64
547.664	20.51
547.861	20.45
548.058	20.44
548.255	20.47
548.452	20.45
548.649	20.46
548.846	20.47
549.043	20.49
549.24	20.48
549.437	20.53
549.633	20.54
549.83	20.6
550.027	20.56
550.224	20.58
550.421	20.49
550.618	20.44
550.814	20.47
551.011	20.35
551.208	20.27
551.405	20.39
551.601	20.35
551.798	20.27
551.995	20.23
552.191	20.22
552.388	20.19
552.585	20.25
552.781	20.23
552.978	20.16
553.175	20.23
553.371	20.21
553.568	20.18
553.764	20.15
553.961	20.17
554.157	20.08
554.354	20.19
554.55	20.16
554.747	20.18
554.943	20.24
555.14	20.17
555.336	20.12
555.533	20.12
555.729	20.1
555.926	20.07
556.122	20.03
556.318	20.17
556.515	19.98
556.711	19.86
556.907	19.78
557.104	19.81
557.3	19.8
557.496	19.78
557.693	19.86
557.889	19.84
558.085	19.86
558.281	19.78
558.478	19.86
558.674	20.01
558.87	20.1
559.066	20.1
559.262	20.09
559.459	20.15
559.655	20.17
559.851	20.11
560.047	20.23
560.243	20.15
560.439	20.17
560.635	20.06
560.831	20.03
561.027	20.09
561.223	20.11
561.419	19.96
561.615	20.1
561.811	20.09
562.007	20.07
562.203	20.17
562.399	20.28
562.595	20.37
562.791	20.37
562.987	20.36
563.183	20.39
563.379	20.47
563.575	20.62
563.771	20.52
563.966	20.51
564.162	20.6
564.358	20.45
564.554	20.38
564.75	20.33
564.945	20.4
565.141	20.33
565.337	20.24
565.533	20.19
565.728	20.2
565.924	20.28
566.12	20.29
566.315	20.28
566.511	20.35
566.707	20.41
566.902	20.47
567.098	20.45
567.293	20.44
567.489	20.58
567.684	20.6
567.88	20.58
568.076	20.57
568.271	20.69
568.467	20.64
568.662	20.53
568.858	20.48
569.053	20.43
569.248	20.5
569.444	20.57
569.639	20.49
569.835	20.47
570.03	20.48
570.225	20.43
570.421	20.38
570.616	20.41
570.812	20.49
571.007	20.56
571.202	20.48
571.397	20.33
571.593	20.29
571.788	20.32
571.983	20.23
572.178	20.23
572.374	20.29
572.569	20.2
572.764	20.27
572.959	20.24
573.154	20.17
573.35	20.34
573.545	20.45
573.74	20.57
573.935	20.55
574.13	20.67
574.325	20.66
574.52	20.66
574.715	20.77
574.91	20.79
575.105	20.88
575.3	21.02
575.495	20.99
575.69	21.14
575.885	21.24
576.08	21.37
576.275	21.44
576.47	21.56
576.665	21.76
576.86	21.92
577.055	21.95
577.25	22.05
577.444	22.14
577.639	22.32
577.834	22.31
578.029	22.32
578.224	22.42
578.418	22.47
578.613	22.52
578.808	22.35
579.003	22.39
579.197	22.41
579.392	22.39
579.587	22.45
579.781	22.47
579.976	22.49
580.171	22.46
580.365	22.38
580.56	22.43
580.755	22.59
580.949	22.72
581.144	22.63
581.338	22.78
581.533	22.79
581.727	22.85
581.922	22.87
582.116	22.79
582.311	22.78
582.505	22.86
582.7	22.9
582.894	22.84
583.089	22.94
583.283	23.03
583.478	23.07
583.672	23.1
583.866	23
584.061	23.03
584.255	23.12
584.449	23.23
584.644	23.22
584.838	23.41
585.032	23.55
585.226	23.54
585.421	23.54
585.615	23.5
585.809	23.56
586.003	23.63
586.198	23.71
586.392	23.88
586.586	23.96
586.78	23.99
586.974	23.8
587.168	23.76
587.363	23.61
587.557	23.61
587.751	23.56
587.945	23.44
588.139	23.35
588.333	23.22
588.527	23.11
588.721	22.93
588.915	22.78
589.109	22.69
589.303	22.55
589.497	22.61
589.691	22.69
589.885	22.71
590.079	22.85
590.273	22.96
590.466	22.95
590.66	23.01
590.854	23.07
591.048	23.22
591.242	23.47
591.436	23.54
591.629	23.71
591.823	23.68
592.017	23.78
592.211	23.77
592.404	23.77
592.598	23.85
592.792	23.76
592.986	23.84
593.179	23.86
593.373	23.89
593.567	23.95
593.76	23.8
593.954	23.79
594.147	23.89
594.341	23.82
594.535	23.75
594.728	23.78
594.922	23.78
595.115	23.76
595.309	23.73
595.502	23.47
595.696	23.36
595.889	23.33
596.083	23.33
596.276	23.05
596.47	23.13
596.663	23.02
596.856	22.87
597.05	22.89
597.243	22.81
597.437	22.83
597.63	23.03
597.823	23.21
598.017	23.29
598.21	23.37
598.403	23.5
598.596	23.51
598.79	23.74
598.983	24.02
599.176	24.01
599.369	24.15
599.563	24.21
599.756	24.27
599.949	24.04
600.142	24.04
600.335	24
600.528	24.11
600.722	24.06
600.915	23.86
601.108	23.71
601.301	23.83
601.494	23.78
601.687	23.7
601.88	23.6
602.073	23.81
602.266	23.87
602.459	23.77
602.652	23.62
602.845	23.6
603.038	23.68
603.231	23.58
603.424	23.52
603.617	23.42
603.809	23.36
604.002	23.36
604.195	23.34
604.388	23.33
604.581	23.37
604.774	23.49
604.966	23.46
605.159	23.49
605.352	23.6
605.545	23.66
605.737	23.81
605.93	23.94
606.123	24.04
606.316	24.06
606.508	24.07
606.701	24.14
606.894	24.27
607.086	24.57
607.279	24.75
607.471	25.05
607.664	25.31
607.857	25.72
608.049	26.12
608.242	26.58
608.434	27.05
608.627	27.75
608.819	28.59
609.012	29.49
609.204	30.53
609.397	31.55
609.589	32.71
609.782	34.17
609.974	35.43
610.166	36.79
610.359	38.17
610.551	39.47
610.743	40.62
610.936	41.73
611.128	42.61
611.32	43.18
611.513	43.72
611.705	43.78
611.897	43.5
612.09	43.23
612.282	42.86
612.474	42.17
612.666	41.53
612.858	40.99
613.051	40.07
613.243	39.22
613.435	38.38
613.627	37.56
613.819	37.03
614.011	36.48
614.203	35.74
614.395	35.09
614.588	34.68
614.78	34.23
614.972	33.56
615.164	33.25
615.356	32.76
615.548	32.26
615.74	31.92
615.932	31.62
616.124	31.01
616.315	30.76
616.507	30.26
616.699	29.84
616.891	29.56
617.083	29.2
617.275	28.78
617.467	28.65
617.659	28.6
617.85	28.31
618.042	28.17
618.234	28.19
618.426	28.28
618.618	28.2
618.809	28.19
619.001	28.16
619.193	28.17
619.384	28.25
619.576	28.05
619.768	28.02
619.959	27.99
620.151	27.71
620.343	27.81
620.534	27.58
620.726	27.73
620.917	27.67
621.109	27.57
621.301	27.7
621.492	27.67
621.684	27.79
621.875	27.73
622.067	27.87
622.258	28.13
622.45	27.99
622.641	28.02
622.832	28.33
623.024	28.39
623.215	28.46
623.407	28.42
623.598	28.45
623.789	28.49
623.981	28.72
624.172	28.69
624.363	28.81
624.555	28.86
624.746	28.91
624.937	28.61
625.129	28.46
625.32	28.39
625.511	28.27
625.702	28.25
625.893	28.19
626.085	28.02
626.276	27.91
626.467	27.71
626.658	27.73
626.849	27.6
627.04	27.52
627.231	27.69
627.422	27.79
627.614	27.88
627.805	27.93
627.996	27.95
628.187	28.08
628.378	28.35
628.569	28.49
628.76	28.53
628.951	28.76
629.142	29.11
629.332	29.41
629.523	29.46
629.714	29.61
629.905	29.77
630.096	29.99
630.287	30.09
630.478	30.13
630.669	30.28
630.859	30.39
631.05	30.34
631.241	30.33
631.432	29.83
631.623	29.65
631.813	29.53
632.004	29.42
632.195	29.14
632.385	29.02
632.576	28.79
632.767	28.45
632.957	28.2
633.148	28.13
633.339	27.97
633.529	28.06
633.72	28.07
633.91	27.74
634.101	27.63
634.292	27.59
634.482	27.49
634.673	27.35
634.863	27.3
635.054	27.26
635.244	27.17
635.435	27.14
635.625	27.09
635.815	27.01
636.006	27.25
636.196	27.19
636.387	27.12
636.577	27.15
636.767	27.4
636.958	27.56
637.148	27.65
637.338	27.88
637.529	27.93
637.719	28.18
637.909	28.35
638.099	28.52
638.29	28.63
638.48	28.67
638.67	28.7
638.86	28.65
639.05	28.67
639.241	28.94
639.431	28.85
639.621	28.68
639.811	28.34
640.001	28.69
640.191	28.53
640.381	28.49
640.571	28.56
640.761	28.51
640.951	28.37
641.141	28.42
641.331	28.26
641.521	28.31
641.711	28.64
641.901	28.81
642.091	28.51
642.281	28.57
642.471	28.35
642.661	28.28
642.851	28.24
643.041	28.54
643.231	28.65
643.42	28.6
643.61	28.29
643.8	28.22
643.99	28.29
644.18	28.31
644.369	28.42
644.559	28.73
644.749	28.95
644.939	29.11
645.128	28.82
645.318	28.65
645.508	28.71
645.697	29.08
645.887	28.91
646.076	28.99
646.266	28.74
646.456	28.59
646.645	28.44
646.835	28.52
647.024	28.48
647.214	28.53
647.403	28.74
647.593	28.7
647.782	28.56
647.972	28.87
648.161	28.99
648.351	29.11
648.54	29.29
648.73	29.5
648.919	29.58
649.108	29.57
649.298	29.83
649.487	29.97
649.677	30.04
649.866	30.21
650.055	30.02
650.244	29.92
650.434	30.08
650.623	30.01
650.812	29.91
651.002	29.72
651.191	29.92
651.38	29.9
651.569	29.7
651.758	29.7
651.947	29.69
652.137	29.66
652.326	29.67
652.515	29.39
652.704	29.49
652.893	29.65
653.082	29.75
653.271	29.6
653.46	29.49
653.649	29.29
653.838	29.39
654.027	29.41
654.216	29.31
654.405	29.19
654.594	29.33
654.783	29.22
654.972	29.07
655.161	29.01
655.35	28.85
655.539	28.83
655.728	28.94
655.916	28.9
656.105	28.66
656.294	28.9
656.483	28.9
656.672	28.73
656.86	28.77
657.049	28.61
657.238	28.65
657.427	28.67
657.615	28.71
657.804	28.65
657.993	28.35
658.181	28.33
658.37	28.1
658.559	28.15
658.747	28.26
658.936	28.12
659.125	28.03
659.313	28.03
659.502	28.15
659.69	28.14
659.879	28.22
660.067	28.61
660.256	28.54
660.444	28.7
660.633	28.76
660.821	28.95
661.01	29.21
661.198	29.42
661.387	29.65
661.575	29.64
661.763	29.6
661.952	29.71
662.14	29.88
662.328	30.3
662.517	30.36
662.705	30.31
662.893	30.26
663.082	30.2
663.27	30.21
663.458	30.1
663.646	30.12
663.834	30.31
664.023	30.4
664.211	30.34
664.399	30.23
664.587	30.06
664.775	30.24
664.963	30.43
665.152	30.41
665.34	30.61
665.528	30.29
665.716	30.34
665.904	30.31
666.092	30.14
666.28	29.9
666.468	29.77
666.656	29.96
666.844	29.96
667.032	29.93
667.22	30.13
667.408	30.1
667.596	30.34
667.784	30.29
667.971	30.25
668.159	30.23
668.347	30.27
668.535	30.36
668.723	30.43
668.911	30.36
669.098	30.14
669.286	30.05
669.474	30.11
669.662	30.09
669.849	30.21
670.037	29.97
670.225	30.12
670.413	30.12
670.6	30.44
670.788	30.58
670.976	30.45
671.163	30.88
671.351	30.58
671.538	30.58
671.726	30.68
671.913	30.7
672.101	31.44
672.289	31.56
672.476	31.64
672.664	31.57
672.851	31.39
673.039	31.66
673.226	31.59
673.413	31.95
673.601	32.1
673.788	32.19
673.976	32.19
674.163	31.93
674.35	31.95
674.538	32.17
674.725	32.2
674.912	32.3
675.1	32.43
675.287	32.37
675.474	32.33
675.662	32.45
675.849	32.4
676.036	32.55
676.223	32.63
676.411	32.5
676.598	32.14
676.785	32.04
676.972	32.05
677.159	31.76
677.346	31.73
677.533	31.6
677.721	31.41
677.908	31.49
678.095	31.17
678.282	31.02
678.469	30.56
678.656	30.54
678.843	30.52
679.03	30.3
679.217	30.36
679.404	30.26
679.591	30.3
679.778	30.14
679.964	29.88
680.151	30
680.338	29.98
680.525	30.36
680.712	30.24
680.899	30.23
681.086	30.6
681.272	30.5
681.459	30.71
681.646	30.85
681.833	31.16
682.02	31.29
682.206	31.11
682.393	30.96
682.58	30.87
682.766	31.1
682.953	31.17
683.14	30.97
683.326	31.03
683.513	30.97
683.7	30.92
683.886	30.78
684.073	30.96
684.259	31.22
684.446	31.61
684.632	31.87
684.819	31.91
685.005	31.87
685.192	31.77
685.378	32.06
685.565	32.19
685.751	32.25
685.938	32.19
686.124	32.2
686.31	31.98
686.497	32.04
686.683	32.02
686.87	32.02
687.056	32.06
687.242	31.94
687.429	31.7
687.615	31.51
687.801	31.46
687.987	31.56
688.174	31.4
688.36	31.76
688.546	31.48
688.732	31.5
688.918	31.38
689.105	31.19
689.291	31.42
689.477	31.44
689.663	31.52
689.849	31.55
690.035	31.57
690.221	31.7
690.407	31.76
690.593	31.87
690.779	31.91
690.965	31.98
691.151	32.3
691.337	32.42
691.523	32.48
691.709	32.86
691.895	32.84
692.081	32.68
692.267	32.73
692.453	32.91
692.639	32.91
692.825	32.92
693.011	33.46
693.196	33.75
693.382	33.62
693.568	33.76
693.754	33.63
693.94	34.02
694.125	34.23
694.311	33.94
694.497	33.81
694.682	33.81
694.868	33.59
695.054	33.1
695.239	32.88
695.425	33.16
695.611	33.14
695.796	32.84
695.982	32.27
696.168	32.34
696.353	32.4
696.539	32.16
696.724	32.1
696.91	31.96
697.095	31.8
697.281	31.75
697.466	31.69
697.652	31.31
697.837	31.25
698.023	31.25
698.208	30.88
698.393	30.91
698.579	30.73
698.764	30.74
698.949	30.57
699.135	30.63
699.32	30.57
699.505	30.38
699.691	30.52
699.876	30.43
700.061	30.45
700.246	30.55
700.432	30.55
700.617	30.67
700.802	30.75
700.987	31.15
701.172	31.46
701.358	31.76
701.543	32.05
701.728	32.37
701.913	32.63
702.098	32.96
702.283	33.4
702.468	33.65
702.653	34.05
702.838	34.77
703.023	35.05
703.208	35.43
703.393	35.26
703.578	35.27
703.763	35.62
703.948	36.08
704.133	36.26
704.318	36.61
704.503	37.21
704.688	37.5
704.873	37.61
705.057	38.23
705.242	38.44
705.427	38.87
705.612	39.23
705.797	39.64
705.981	39.7
706.166	39.96
706.351	40.19
706.536	40.15
706.72	40.31
706.905	40.23
707.09	39.79
707.274	39.58
707.459	39.73
707.644	39.82
707.828	39.76
708.013	39.9
708.197	39.91
708.382	39.72
708.567	39.74
708.751	39.43
708.936	39.25
709.12	39.37
709.305	39.44
709.489	39.23
709.673	39.08
709.858	38.62
710.042	38.49
710.227	38.87
710.411	38.98
710.596	38.38
710.78	38.45
710.964	38.54
711.149	38.59
711.333	38.63
711.517	38.37
711.702	38.53
711.886	38.64
712.07	38.47
712.254	37.97
712.438	37.85
712.623	38.34
712.807	38.08
712.991	37.8
713.175	37.67
713.359	37.19
713.544	37.03
713.728	36.7
713.912	36.33
714.096	36.08
714.28	35.57
714.464	35.46
714.648	35.05
714.832	34.79
715.016	34.46
715.2	33.99
715.384	33.77
715.568	33.5
715.752	33.38
715.936	33.54
716.12	32.97
716.304	32.98
716.488	32.53
716.671	32.3
716.855	32.48
717.039	32.22
717.223	32.54
717.407	32.9
717.59	33.34
717.774	33.31
717.958	33.31
718.142	33.51
718.325	33.81
718.509	34.18
718.693	34.16
718.877	34.01
719.06	34.28
719.244	34
719.428	34.11
719.611	33.78
719.795	34.15
719.978	33.83
720.162	34.14
720.345	34.11
720.529	33.68
720.713	34.31
720.896	34.76
721.08	34.8
721.263	35.01
721.446	34.31
721.63	34.5
721.813	33.94
721.997	34.34
722.18	34.28
722.364	34.52
722.547	34.75
722.73	33.86
722.914	33.8
723.097	34.17
723.28	33.93
723.464	34
723.647	34.07
723.83	34.2
724.013	34.21
724.197	34.01
724.38	33.82
724.563	34.07
724.746	34.2
724.929	33.9
725.112	34.19
725.296	34.32
725.479	34.28
725.662	33.82
725.845	34.08
726.028	33.93
726.211	34.09
726.394	34.17
726.577	33.82
726.76	34.19
726.943	34.33
727.126	33.6
727.309	33.3
727.492	33.56
727.675	33.81
727.858	33.55
728.041	33.56
728.224	33.56
728.407	33.21
728.589	33.47
728.772	33.09
728.955	33.04
729.138	33.09
729.321	33
729.503	33.26
729.686	33
729.869	33.15
730.052	32.8
730.234	33.23
730.417	33.45
730.6	32.84
730.782	33
730.965	32.88
731.148	33.14
731.33	33.45
731.513	33.29
731.695	33.57
731.878	33.56
732.061	34.27
732.243	34.54
732.426	34.88
732.608	35.4
732.791	35.9
732.973	35.8
733.156	35.78
733.338	35.75
733.52	35.99
733.703	36.24
733.885	36.3
734.068	35.99
734.25	35.65
734.432	35.44
734.615	35.29
734.797	35.46
734.979	35.99
735.162	35.98
735.344	36.6
735.526	36.67
735.708	36.6
735.891	36.5
736.073	36.74
736.255	36.77
736.437	37.48
736.619	37.74
736.802	37.49
736.984	37.2
737.166	37.76
737.348	37.62
737.53	37.61
737.712	37.72
737.894	37.85
738.076	37.37
738.258	37.39
738.44	36.86
738.622	36.68
738.804	36.49
738.986	36.27
739.168	36.02
739.35	35.33
739.532	35.34
739.714	35.36
739.896	35.76
740.078	35.98
740.259	35.96
740.441	35.78
740.623	36.04
740.805	35.76
740.987	36.21
741.168	36.29
741.35	36.88
741.532	36.7
741.714	36.66
741.895	36.17
742.077	36.48
742.259	36.61
742.44	36.77
742.622	36.62
742.804	37.24
742.985	37.65
743.167	37.78
743.348	37.82
743.53	38.11
743.711	38.36
743.893	38.6
744.075	38.42
744.256	38.68
744.438	38.49
744.619	38.41
744.8	38.81
744.982	38.54
745.163	38.29
745.345	38.65
745.526	38.78
745.707	38.35
745.889	38.46
746.07	38.81
746.252	39.06
746.433	39.52
746.614	40.34
746.795	40.67
746.977	40.97
747.158	40.89
747.339	40.77
747.52	40.47
747.702	40.88
747.883	40.82
748.064	40.55
748.245	40.23
748.426	40.04
748.607	39.4
748.788	38.74
748.97	38.31
749.151	38.06
749.332	37.77
749.513	38.1
749.694	37.98
749.875	37.43
750.056	37.11
750.237	36.96
750.418	36.98
750.599	36.88
750.78	37.01
750.96	36.97
751.141	37.77
751.322	37.9
751.503	37.5
751.684	37.15
751.865	38.42
752.046	39.05
752.226	38.83
752.407	38.31
752.588	38.54
752.769	38.2
752.949	38.32
753.13	37.81
753.311	37.42
753.492	37.49
753.672	37.41
753.853	36.48
754.034	36.51
754.214	36.24
754.395	36.53
754.575	37
754.756	36.86
754.937	36.43
755.117	36.95
755.298	36.92
755.478	37.4
755.659	37.75
755.839	38.32
756.02	38.64
756.2	39.04
756.381	39.2
756.561	38.72
756.741	38.95
756.922	38.99
757.102	37.83
757.283	38.24
757.463	37.83
757.643	38.02
757.823	36.7
758.004	35.51
758.184	35.33
758.364	34.58
758.545	34.66
758.725	33.89
758.905	34.16
759.085	33.63
759.265	32.71
759.446	31.45
759.626	30.23
759.806	30.37
759.986	30
760.166	29.78
760.346	29.85
760.526	29.48
760.706	29.78
760.886	29.5
761.066	30.25
761.246	30.74
761.426	31.33
761.606	31.47
761.786	30.89
761.966	31.72
762.146	31.91
762.326	31.35
762.506	30.62
762.686	30.39
762.866	30.43
763.046	29.9
763.225	29.43
763.405	29.5
763.585	29.78
763.765	30.05
763.945	29.42
764.124	29.23
764.304	29.73
764.484	30.27
764.664	30.48
764.843	30.43
765.023	30.87
765.203	31.44
765.382	32.01
765.562	32.74
765.741	32.96
765.921	33.3
766.101	33.38
766.28	33.81
766.46	34.16
766.639	34.68
766.819	35.52
766.998	35.69
767.178	35.93
767.357	35.34
767.537	35.54
767.716	36.53
767.896	37.38
768.075	37.74
768.254	37.83
768.434	38.21
768.613	38.28
768.792	37.91
768.972	38.97
769.151	39.19
769.33	40.27
769.51	40.25
769.689	41.02
769.868	40.86
770.047	40.39
770.226	40.28
770.406	39.86
770.585	39.52
770.764	39.66
770.943	38.72
771.122	38.22
771.301	37.67
771.48	37.27
771.66	36.15
771.839	36.54
772.018	37.7
772.197	37.69
772.376	38.05
772.555	38.4
772.734	38.44
772.913	38.93
773.092	40.62
773.271	40.69
773.449	40.63
773.628	40.83
773.807	40.88
773.986	40.69
774.165	40.85
774.344	41.05
774.523	41.12
774.701	41.42
774.88	40.97
775.059	39.77
775.238	40.24
775.417	40.3
775.595	40.05
775.774	39.72
775.953	39.36
776.131	39.69
776.31	39.29
776.489	39.46
776.667	39.37
776.846	39.43
777.025	39.39
777.203	38.98
777.382	39.69
777.56	40.01
777.739	40.74
777.917	40.08
778.096	39.6
778.274	39.77
778.453	40.02
778.631	39.57
778.81	39.48
778.988	40.15
779.166	40.33
779.345	39.85
779.523	39.58
779.702	38.61
779.88	40.22
780.058	40.89
780.237	40.62
780.415	40.88
780.593	40.39
780.771	40.7
780.95	40
781.128	39.71
781.306	39.57
781.484	40.17
781.662	40.74
781.841	40.64
782.019	39.33
782.197	39.86
782.375	38.57
782.553	40.15
782.731	40.02
782.909	40.46
783.087	40.13
783.265	40.3
783.443	39.72
783.621	39.41
783.799	39.51
783.977	40.61
784.155	39.91
784.333	40.9
784.511	39.4
784.689	40.35
784.867	40.53
785.045	40.25
785.223	39.28
785.4	39.28
785.578	41
785.756	40.26
785.934	39.77
786.112	39.25
786.289	39.38
786.467	39.27
786.645	38.85
786.823	38.24
787	38.1
787.178	38.7
787.356	39.27
787.533	37.31
787.711	36.65
787.889	36.76
788.066	37.75
788.244	36.85
788.421	36.74
788.599	36.2
788.776	36.08
788.954	36.91
789.131	36.55
789.309	36.2
789.486	35.46
789.664	36.66
789.841	36.98
790.019	36.36
790.196	36.47
790.373	36.97
790.551	37.57
790.728	37.58
790.906	38.53
791.083	39.46
791.26	39.06
791.437	40.05
791.615	39.72
791.792	39
791.969	39.39
792.146	40.1
792.324	40.46
792.501	40.74
792.678	40.69
792.855	39.65
793.032	39.71
793.209	39.35
793.387	40.61
793.564	39.66
793.741	40.02
793.918	39.85
794.095	39.15
794.272	38.8
794.449	37.81
794.626	38.17
794.803	38.4
794.98	37.68
795.157	37.37
795.334	36.57
795.511	37.39
795.688	38.01
795.864	38.8
796.041	39.42
796.218	38.99
796.395	38.8
796.572	38.59
796.749	38.06
796.925	37.62
797.102	38.09
797.279	37.49
797.456	36.75
797.632	36.17
797.809	34.62
797.986	33.97
798.162	34.13
798.339	34.51
798.516	33.99
798.692	33.8
798.869	34.05
799.046	33.59
799.222	34.52
799.399	35.69
799.575	36.21
799.752	38.09
799.928	37.64
800.105	37.23
800.281	37.66
800.458	38.33
800.634	38.79
800.811	38.83
800.987	39.97
801.163	39.74
801.34	38.41
801.516	37.87
801.692	36.26
801.869	36.55
802.045	37.62
802.221	37.8
802.398	37.32
802.574	37.16
802.75	36.34
802.926	34.88
803.103	35.48
803.279	36.99
803.455	36.28
803.631	36.35
803.807	37.8
803.983	38.48
804.16	38.38
804.336	39.1
804.512	39.91
804.688	40.77
804.864	41.57
805.04	41.7
805.216	40.62
805.392	42.25
805.568	43.21
805.744	41.97
805.92	40.58
806.096	40.87
806.272	40.21
806.448	38.82
806.623	39
806.799	38.69
806.975	37.29
807.151	37.62
807.327	37.47
807.503	36.44
807.678	37.36
807.854	37.67
808.03	38.15
808.206	38.06
808.381	38.99
808.557	38.23
808.733	38.78
808.908	38.62
809.084	37.85
809.26	37.43
809.435	38.89
809.611	38.75
809.787	40.09
809.962	38.56
810.138	38.35
810.313	37.49
810.489	37.96
810.664	38.2
810.84	39.35
811.015	41.19
811.191	41.55
811.366	39.48
811.542	38.28
811.717	36.75
811.892	37.34
812.068	37.16
812.243	36.75
812.419	36.97
812.594	35.47
812.769	34.75
812.944	33.66
813.12	34.12
813.295	36.07
813.47	35.5
813.645	35.28
813.821	35.31
813.996	36.42
814.171	37.77
814.346	37.1
814.521	36.48
814.697	35.89
814.872	35.15
815.047	33.27
815.222	31.09
815.397	31
815.572	30.75
815.747	29.11
815.922	28.46
816.097	27.67
816.272	27.67
816.447	29.08
816.622	30.59
816.797	30.68
816.972	32.02
817.147	32.65
817.322	33.12
817.496	33.6
817.671	33.51
817.846	32.9
818.021	32.98
818.196	33.63
818.371	33.35
818.545	32.55
818.72	32.05
818.895	31.28
819.069	31.81
819.244	31.39
819.419	30.29
819.594	31.04
819.768	30.85
819.943	30.57
820.117	29.51
820.292	28.43
820.467	27.48
820.641	27.77
820.816	27.53
820.99	27.17
821.165	26.81
821.339	26.39
821.514	25.81
821.688	25.71
821.863	25.42
822.037	25.39
822.212	25.34
822.386	25.28
822.56	24.89
822.735	24.83
822.909	24.65
823.084	24.85
823.258	25.07
823.432	25.32
823.606	25.37
823.781	25.59
823.955	25.59
824.129	26
824.303	26.27
824.478	26.53
824.652	26.88
824.826	27.29
825	27.31
825.174	27.42
825.348	27.94
825.523	27.92
825.697	27.81
825.871	28.12
826.045	27.69
826.219	27.47
826.393	27.33
826.567	27.3
826.741	27.34
826.915	27.37
827.089	27.2
827.263	26.17
827.437	25.99
827.611	26.13
827.784	25.81
827.958	25.71
828.132	25.7
828.306	25.93
828.48	25.32
828.654	25.25
828.827	25.09
829.001	25.83
829.175	26.3
829.349	26.73
829.522	26.76
829.696	27.25
829.87	28.59
830.044	30.02
830.217	30.71
830.391	31.47
830.565	31.46
830.738	31.6
830.912	29.45
831.085	29.95
831.259	31.64
831.432	30.62
831.606	31.11
831.779	29.7
831.953	28.57
832.126	27.99
832.3	28.08
832.473	27.63
832.647	27.75
832.82	29
832.994	28.25
833.167	27.6
833.34	27.94
833.514	27.24
833.687	27.2
833.86	26.86
834.034	27.43
834.207	26.98
834.38	27.86
834.553	27.72
834.727	27.52
834.9	28.07
835.073	27.73
835.246	28.1
835.419	28.9
835.593	29.32
835.766	30.05
835.939	31.03
836.112	32.36
836.285	31.6
836.458	32.62
836.631	32.92
836.804	33.18
836.977	33.58
837.15	33.41
837.323	33.35
837.496	35.6
837.669	36.99
837.842	35.57
838.015	34.72
838.188	36.14
838.361	36.36
838.533	37.72
838.706	38.58
838.879	38.88
839.052	38.74
839.225	38.9
839.398	37.53
839.57	35.89
839.743	35.64
839.916	34.9
840.088	33.29
840.261	33.38
840.434	32.07
840.607	31
840.779	30.75
840.952	31.58
841.124	32.46
841.297	32.09
841.47	30.37
841.642	30.27
841.815	31.97
841.987	33.07
842.16	31.39
842.332	33.33
842.505	34.5
842.677	36.43
842.85	37.57
843.022	35.86
843.194	36.53
843.367	40.58
843.539	40.57
843.712	39.56
843.884	41.76
844.056	43.3
844.229	44.82
844.401	43.88
844.573	42.16
844.745	39.66
844.918	40
845.09	38.79
845.262	37.16
845.434	38.13
845.606	39.41
845.779	37.17
845.951	39.63
846.123	36.46
846.295	39.19
846.467	38.89
846.639	41.78
846.811	40.85
846.983	42.44
847.155	44.24
847.327	44.36
847.499	41.66
847.671	42.89
847.843	40.96
848.015	42.33
848.187	40.58
848.359	40.44
848.531	40.17
848.703	41.02
848.875	39.46
849.047	37.57
849.218	39.35
849.39	43.41
849.562	41.74
849.734	41.9
849.905	44.21
850.077	44.11
850.249	46.54
850.421	46.72
850.592	47.27
850.764	46.08
850.936	44.7
851.107	41.86
851.279	41.84
851.451	44.57
851.622	39.77
851.794	36.34
851.965	31.13
852.137	26.47
852.308	24.98
852.48	23.52
852.651	27.09
852.823	28.19
852.994	31.18
853.166	30.91
853.337	25.77
853.509	31.24
853.68	29.73
853.851	38.17
854.023	41.05
854.194	41.62
854.365	42.91
854.537	42.33
854.708	45.52
854.879	41.24
855.05	42.01
855.222	47.18
855.393	47.6
855.564	51.64
855.735	44
855.906	42.13
856.078	45.34
856.249	46.83
856.42	45.46
856.591	46.52
856.762	50.43
856.933	45.28
857.104	41.98
857.275	41.66
857.446	43.05
857.617	45.84
857.788	46.01
857.959	43.96
858.13	40.71
858.301	43.52
858.472	40.48
858.643	37.54
858.814	40.06
858.985	41.74
859.155	35.6
859.326	34.04
859.497	33.76
859.668	34.31
859.839	38
860.009	41.63
860.18	39.85
860.351	37.88
860.522	38.03
860.692	39.24
860.863	41.98
861.034	43.87
861.204	44.25
861.375	45.56
861.546	45.21
861.716	38.67
861.887	40.45
862.057	40.97
862.228	44.66
862.398	46.92
862.569	48.7
862.739	46.2
862.91	53.79
863.08	52.21
863.251	52.95
863.421	57.97
863.592	61.57
863.762	57.6
863.932	57.27
864.103	52.88
864.273	47.49
864.443	44.49
864.614	46.13
864.784	40.98
864.954	41.92
865.125	42.74
865.295	39.35
865.465	34.09
865.635	35.02
865.805	32.78
865.976	33.65
866.146	36.15
866.316	40
866.486	39.23
866.656	40.89
866.826	37.29
866.996	32.36
867.166	34.23
867.336	38.32
867.506	36.81
867.676	36.15
867.846	37.41
868.016	38.64
868.186	35.71
868.356	36.62
868.526	33.48
868.696	37.55
868.866	36.12
869.036	34
869.206	31.44
869.376	32.99
869.545	34.99
869.715	38.78
869.885	39.61
870.055	40.63
870.224	39.06
870.394	40.98
870.564	40.65
870.734	45.3
870.903	44.24
871.073	46.39
871.243	51.24
871.412	53.8
871.582	50.9
871.751	50.08
871.921	46.17
872.091	45.72
872.26	45.46
872.43	47.32
872.599	43.36
872.769	41.38
872.938	42.05
873.108	39.21
873.277	34.32
873.446	35.93
873.616	33.49
873.785	31.81
873.955	28.6
874.124	29.15
874.293	26.3
874.463	25.23
874.632	30.16
874.801	25.21
874.971	23.96
875.14	25.58
875.309	23.91
875.478	26.26
875.647	28.45
875.817	32.54
875.986	34.33
876.155	32.15
876.324	36.28
876.493	32.52
876.662	36.26
876.831	33.96
877	30.11
877.17	29.68
877.339	30.32
877.508	33.19
877.677	35.75
877.846	30.91
878.015	32.09
878.184	29.09
878.352	28.72
878.521	25.43
878.69	31.13
878.859	37.14
879.028	36.85
879.197	34.13
879.366	33.03
879.534	27
879.703	26.89
879.872	27.71
880.041	29.03
880.21	29.62
880.378	30.35
880.547	28.65
880.716	25.87
880.884	24.96
881.053	23.42
881.222	22.59
881.39	23.39
881.559	24.07
881.727	23.15
881.896	22.77
882.065	21.98
882.233	21.82
882.402	22.13
882.57	22.08
882.739	22.1
882.907	23.2
883.076	23.54
883.244	23.45
883.412	23.26
883.581	23.67
883.749	23.43
883.918	23.43
884.086	23.04
884.254	22.96
884.423	23.53
884.591	23.46
884.759	21.99
884.927	22.51
885.096	23.16
885.264	24.24
885.432	24.3
885.6	23.92
885.769	23.65
885.937	23.4
886.105	22.92
886.273	24.29
886.441	23.76
886.609	27.66
886.777	27.07
886.945	27.83
887.113	27.65
887.281	29.38
887.449	31.53
887.617	32.3
887.785	32.74
887.953	34.4
888.121	30.98
888.289	30.66
888.457	28.93
888.625	28.77
888.793	29.5
888.961	29.85
889.129	27.92
889.296	27.44
889.464	29.72
889.632	32.19
889.8	28.89
889.967	32.6
890.135	38.68
