Data from 2938815__Reflection_01.txt Node
Date: Thu Mar 12 15:42:32 EDT 2015
User: robert
Spectrometer: USB4E03002
Autoset integration time: false
Trigger mode: 4
Integration Time (sec): 1.000000E-1
Scans to average: 10
Electric dark correction enabled: false
Nonlinearity correction enabled: false
Boxcar width: 5
Stray light correction enabled: false
XAxis mode: Wavelengths
Stop averaging: false
Number of Pixels in Spectrum: 3648
>>>>>Begin Spectral Data<<<<<
177.575	-795.24
177.794	-573.85
178.014	-356.45
178.233	-2012.9
178.452	1121.79
178.672	-3300
178.891	-629.84
179.11	-641.45
179.33	-876.51
179.549	-1012.84
179.768	-7654.55
179.987	-6200
180.207	-1037.58
180.426	2784.38
180.645	-1726.8
180.864	-1387.29
181.084	2718.75
181.303	992.57
181.522	5906.25
181.741	0
181.96	44475
182.179	-6725.93
182.398	-3766
182.618	2156.84
182.837	-2822.97
183.056	-3776.27
183.275	-3444.26
183.494	-6372.73
183.713	3432.79
183.932	1251.72
184.151	1221.48
184.37	512.04
184.589	438.16
184.808	357.2
185.027	264.4
185.246	270.11
185.465	202.74
185.684	238.86
185.903	260.8
186.122	318.63
186.341	358.37
186.56	334.64
186.779	370.35
186.998	523.12
187.216	515.04
187.435	848.46
187.654	709.9
187.873	1130.81
188.092	935.44
188.311	648.5
188.53	506.71
188.748	432.68
188.967	475.47
189.186	906.67
189.405	465.06
189.623	465.63
189.842	504.08
190.061	486.74
190.28	494.65
190.498	493.37
190.717	1078.92
190.936	1454.17
191.154	976.54
191.373	876
191.592	1458.97
191.81	-59033.33
192.029	-1187.5
192.248	-607.88
192.466	-421.74
192.685	-575.54
192.904	-509.56
193.122	-370.13
193.341	-445.83
193.559	-486.97
193.778	-412.5
193.996	-2526.15
194.215	4350
194.433	600.31
194.652	378.43
194.87	347.46
195.089	435.07
195.307	493.27
195.526	395.95
195.744	358.18
195.963	320.89
196.181	336.36
196.399	355.84
196.618	369.52
196.836	514.1
197.055	869.4
197.273	649.84
197.491	514.52
197.71	340.55
197.928	333.13
198.146	365.83
198.365	610.69
198.583	607.87
198.801	675.15
199.019	831.91
199.238	594.09
199.456	446.15
199.674	550.6
199.892	646.53
200.111	746.1
200.329	625.76
200.547	476.09
200.765	412.08
200.983	441.6
201.202	389.78
201.42	342.73
201.638	396.02
201.856	435.1
202.074	354.34
202.292	303.77
202.51	596.85
202.728	649.84
202.946	938.5
203.165	589.31
203.383	580.97
203.601	641.48
203.819	948.84
204.037	808.33
204.255	608.47
204.473	766.17
204.691	3109.09
204.909	650.61
205.127	743.11
205.345	455.74
205.562	303.09
205.78	315.16
205.998	273.31
206.216	245.49
206.434	230.06
206.652	225.09
206.87	211.91
207.088	194.81
207.306	169.57
207.523	148.3
207.741	163.78
207.959	256.85
208.177	256.29
208.395	261.48
208.612	247.88
208.83	269.52
209.048	343.82
209.266	366.21
209.483	243.03
209.701	242.17
209.919	278.12
210.136	354.87
210.354	281.83
210.572	240.94
210.79	220.77
211.007	244.15
211.225	232.95
211.442	194.47
211.66	170.42
211.878	185.23
212.095	187.79
212.313	191
212.53	199.52
212.748	186.85
212.966	183.12
213.183	190.57
213.401	184.14
213.618	187.38
213.836	203.18
214.053	203.68
214.271	226.22
214.488	255.35
214.705	243.47
214.923	207.56
215.14	215.8
215.358	217.54
215.575	227.79
215.793	196.19
216.01	192.02
216.227	181.35
216.445	195.33
216.662	182.02
216.879	182.21
217.097	180.26
217.314	183.22
217.531	179.1
217.749	185.83
217.966	162.16
218.183	173.6
218.4	161.16
218.618	172.83
218.835	159.53
219.052	157.55
219.269	153.36
219.487	141.59
219.704	140.01
219.921	146.62
220.138	140.64
220.355	140.04
220.572	138.44
220.79	140.82
221.007	128.18
221.224	131.22
221.441	130.15
221.658	121.95
221.875	117.39
222.092	103.81
222.309	95.86
222.526	98.81
222.743	104.25
222.96	95.17
223.177	92.28
223.394	85.25
223.611	80.87
223.828	81.17
224.045	78.3
224.262	81.12
224.479	80.15
224.696	74.88
224.913	67.73
225.13	66.59
225.347	64.77
225.564	61.53
225.781	59.57
225.997	58.33
226.214	51.9
226.431	52.5
226.648	48.35
226.865	43.21
227.082	39.46
227.298	34.76
227.515	30.66
227.732	28.02
227.949	25.58
228.165	23.81
228.382	22.5
228.599	21.45
228.816	18.85
229.032	17.3
229.249	16.62
229.466	16.29
229.682	16.26
229.899	16.84
230.116	16.4
230.332	16.68
230.549	17.24
230.765	16.97
230.982	16.74
231.199	18.15
231.415	19.96
231.632	21.13
231.848	22.85
232.065	23.04
232.281	22.81
232.498	23.65
232.714	23.79
232.931	23.9
233.147	25.45
233.364	25.87
233.58	25.09
233.797	23.25
234.013	23.6
234.23	21.37
234.446	20.86
234.662	20.51
234.879	21.52
235.095	21.04
235.312	20.58
235.528	20.57
235.744	20.63
235.961	21.95
236.177	21.82
236.393	21.33
236.61	22.8
236.826	24.84
237.042	25.68
237.258	24.85
237.475	25.82
237.691	26.58
237.907	25.47
238.123	25.73
238.339	24.67
238.556	25.58
238.772	26.17
238.988	27.06
239.204	25.92
239.42	26.24
239.636	25.48
239.853	24.82
240.069	23.77
240.285	22.32
240.501	20.81
240.717	20.54
240.933	19.75
241.149	18.21
241.365	16.95
241.581	16.41
241.797	16.03
242.013	15.5
242.229	14.28
242.445	13.47
242.661	13.48
242.877	13.6
243.093	13.28
243.309	13.33
243.525	13.9
243.741	14.14
243.957	14.1
244.173	13.26
244.388	13.74
244.604	14.61
244.82	15.31
245.036	14.85
245.252	14.44
245.468	14.32
245.683	13.25
245.899	12.3
246.115	11.52
246.331	11.35
246.547	11
246.762	10.89
246.978	10.55
247.194	10.37
247.409	10.26
247.625	10.31
247.841	9.95
248.057	10.15
248.272	10
248.488	10.1
248.703	9.99
248.919	10.49
249.135	10.45
249.35	10.38
249.566	11.34
249.782	11.51
249.997	12.17
250.213	12.27
250.428	12.25
250.644	12.32
250.859	11.82
251.075	12.65
251.29	12.52
251.506	12.74
251.721	13.58
251.937	12.8
252.152	12.94
252.368	12.12
252.583	12.8
252.798	13.14
253.014	14
253.229	14.77
253.445	15.2
253.66	15.59
253.875	15.62
254.091	15.42
254.306	15.76
254.521	16.58
254.737	17.29
254.952	16.49
255.167	16.24
255.383	15.55
255.598	15.11
255.813	14.36
256.028	12.68
256.244	12.55
256.459	12.32
256.674	12.11
256.889	11.33
257.104	10.86
257.32	11.6
257.535	11.42
257.75	11.36
257.965	11.2
258.18	10.68
258.395	10.64
258.61	10.11
258.826	9.6
259.041	9.08
259.256	9.14
259.471	8.95
259.686	8.46
259.901	8.17
260.116	8.05
260.331	7.74
260.546	7.69
260.761	7.84
260.976	7.95
261.191	8.27
261.406	8.48
261.621	8.03
261.836	8.21
262.05	8.26
262.265	8.76
262.48	9.04
262.695	9.18
262.91	9.16
263.125	9.09
263.34	9.38
263.555	9.24
263.769	9.41
263.984	9.45
264.199	9.58
264.414	10.14
264.629	10.06
264.843	9.9
265.058	11.14
265.273	11.26
265.488	11.66
265.702	11.33
265.917	10.73
266.132	10.8
266.346	11.08
266.561	11.07
266.776	10.53
266.99	10.05
267.205	10.35
267.42	10
267.634	10.28
267.849	9.81
268.063	9.4
268.278	9.43
268.492	9.33
268.707	9.59
268.922	8.8
269.136	8.86
269.351	9.31
269.565	8.32
269.78	8.45
269.994	7.88
270.209	7.71
270.423	7.99
270.637	7.94
270.852	7.55
271.066	7.21
271.281	7.38
271.495	7.23
271.709	7.25
271.924	7.96
272.138	7.71
272.353	7.78
272.567	7.86
272.781	8.05
272.996	8.76
273.21	8.88
273.424	9.22
273.638	9.62
273.853	10.04
274.067	9.91
274.281	9.69
274.495	9.89
274.71	9.94
274.924	10.16
275.138	9.97
275.352	9.75
275.566	10.37
275.781	10.27
275.995	9.95
276.209	10.4
276.423	10.42
276.637	10.03
276.851	9.76
277.065	9.92
277.279	9.9
277.493	10.11
277.707	9.69
277.921	8.77
278.135	8.92
278.349	9.06
278.563	8.85
278.777	9.27
278.991	9.53
279.205	9.94
279.419	9.81
279.633	9.65
279.847	9.62
280.061	9.5
280.275	9.54
280.489	8.73
280.703	9.15
280.917	8.8
281.131	8.13
281.344	7.98
281.558	7.71
281.772	7.72
281.986	7.62
282.2	7.3
282.414	7.26
282.627	7.39
282.841	7.88
283.055	7.4
283.269	7.75
283.482	8.07
283.696	7.88
283.91	7.6
284.123	7.5
284.337	7.53
284.551	7.7
284.764	7.56
284.978	7.57
285.192	7.34
285.405	7.19
285.619	6.75
285.833	6.66
286.046	6.73
286.26	7.03
286.473	6.95
286.687	7.08
286.9	7.09
287.114	7.32
287.327	7.48
287.541	7.57
287.754	7.83
287.968	7.96
288.181	7.68
288.395	7.74
288.608	7.59
288.822	7.73
289.035	7.62
289.248	7.44
289.462	7.3
289.675	7.28
289.889	7.41
290.102	7.33
290.315	7.35
290.529	7.6
290.742	7.7
290.955	7.36
291.169	7.44
291.382	7.81
291.595	7.94
291.808	7.99
292.022	7.77
292.235	7.61
292.448	7.9
292.661	7.97
292.875	8.02
293.088	8.07
293.301	8.72
293.514	8.35
293.727	7.8
293.94	7.79
294.153	8.17
294.367	8.51
294.58	8.34
294.793	8.08
295.006	8.09
295.219	7.86
295.432	7.84
295.645	7.38
295.858	7.3
296.071	7.44
296.284	7.42
296.497	7.12
296.71	6.78
296.923	6.79
297.136	6.78
297.349	6.97
297.562	7.18
297.775	7.18
297.988	7.49
298.201	7.66
298.414	7.45
298.626	7.32
298.839	7.39
299.052	7.47
299.265	7.61
299.478	7.82
299.691	7.47
299.903	7.43
300.116	7.51
300.329	7.69
300.542	7.74
300.755	8.02
300.967	8.13
301.18	7.98
301.393	7.99
301.605	8.16
301.818	8.17
302.031	8.49
302.243	8.75
302.456	9.1
302.669	8.97
302.881	9.12
303.094	9.07
303.307	9.26
303.519	9.61
303.732	9.78
303.944	9.72
304.157	9.5
304.37	9.07
304.582	8.89
304.795	8.6
305.007	8.51
305.22	8.3
305.432	8.34
305.645	8.49
305.857	8.67
306.069	8.98
306.282	9.01
306.494	9.29
306.707	9.99
306.919	10.03
307.132	10.13
307.344	10.29
307.556	10.87
307.769	11.19
307.981	10.74
308.193	10.36
308.406	10.19
308.618	10.36
308.83	10.15
309.043	9.8
309.255	9.59
309.467	9.55
309.679	9.44
309.892	9.11
310.104	8.66
310.316	8.85
310.528	8.84
310.74	8.79
310.953	8.85
311.165	8.86
311.377	8.9
311.589	9.07
311.801	8.9
312.013	8.52
312.225	8.66
312.437	9.07
312.649	9.19
312.862	9.68
313.074	9.82
313.286	9.93
313.498	9.97
313.71	10.01
313.922	9.96
314.134	10.21
314.346	10.51
314.558	10.86
314.77	10.89
314.982	11.08
315.193	10.76
315.405	10.88
315.617	10.59
315.829	10.9
316.041	10.8
316.253	11.18
316.465	11.3
316.677	11.96
316.888	11.9
317.1	11.96
317.312	11.4
317.524	11.5
317.736	12.08
317.947	12.19
318.159	12.13
318.371	12.57
318.583	12.77
318.794	13.06
319.006	13.36
319.218	13.02
319.43	13.27
319.641	13.96
319.853	13.99
320.064	13.42
320.276	13.61
320.488	14.16
320.699	14.18
320.911	13.88
321.123	13.96
321.334	13.71
321.546	14.26
321.757	14.57
321.969	14.37
322.18	14.61
322.392	14.71
322.603	14.77
322.815	14.59
323.026	14.56
323.238	14.63
323.449	14.4
323.661	13.87
323.872	13.48
324.083	13.41
324.295	13.49
324.506	13.27
324.718	13.01
324.929	12.86
325.14	12.71
325.352	12.23
325.563	11.91
325.774	12.15
325.986	12.16
326.197	12.26
326.408	11.93
326.62	11.89
326.831	12.08
327.042	12.35
327.253	12.48
327.464	12.29
327.676	13.15
327.887	13.63
328.098	13.61
328.309	13.96
328.52	14.17
328.732	14.52
328.943	14.73
329.154	14.7
329.365	14.83
329.576	14.88
329.787	15.2
329.998	14.86
330.209	14.88
330.42	14.81
330.631	15.09
330.842	15.25
331.053	15.14
331.264	14.98
331.475	15.23
331.686	15.17
331.897	15.03
332.108	15.11
332.319	14.91
332.53	14.94
332.741	14.64
332.952	14.66
333.163	14.36
333.374	14.49
333.585	14.47
333.795	14.43
334.006	14.21
334.217	14.5
334.428	14.29
334.639	14.46
334.849	14.33
335.06	14.6
335.271	14.58
335.482	14.83
335.692	14.75
335.903	15.22
336.114	14.84
336.325	15.11
336.535	15.14
336.746	15.48
336.957	15.53
337.167	15.81
337.378	15.9
337.589	15.8
337.799	15.75
338.01	15.79
338.22	15.56
338.431	16.19
338.642	16.29
338.852	15.99
339.063	15.71
339.273	15.34
339.484	15.18
339.694	15.35
339.905	15.49
340.115	15.18
340.326	15.19
340.536	15.18
340.746	14.7
340.957	14.48
341.167	14.93
341.378	15.23
341.588	15.64
341.799	15.45
342.009	15.08
342.219	14.99
342.43	15.76
342.64	15.45
342.85	15.32
343.061	15.16
343.271	15.37
343.481	14.82
343.691	14.78
343.902	14.46
344.112	14.55
344.322	14.57
344.532	14.75
344.743	14.17
344.953	14.64
345.163	14.52
345.373	14.84
345.583	14.44
345.793	14.66
346.004	14.83
346.214	15.09
346.424	15.17
346.634	15.16
346.844	14.75
347.054	14.79
347.264	14.31
347.474	14.55
347.684	14.69
347.894	14.7
348.104	14.63
348.314	14
348.524	13.79
348.734	13.67
348.944	13.68
349.154	13.6
349.364	13.85
349.574	14
349.784	13.94
349.994	13.5
350.204	13.78
350.413	13.98
350.623	14.27
350.833	14.3
351.043	14.15
351.253	14.26
351.463	14.63
351.672	14.32
351.882	14.32
352.092	14.18
352.302	14.45
352.511	14.39
352.721	14.33
352.931	14.42
353.141	14.23
353.35	14.25
353.56	14.32
353.77	14.14
353.979	14.13
354.189	14.21
354.399	14.43
354.608	14.4
354.818	14.23
355.027	14.05
355.237	13.94
355.447	14.1
355.656	13.99
355.866	13.91
356.075	13.84
356.285	13.81
356.494	13.34
356.704	12.89
356.913	12.79
357.123	12.66
357.332	12.62
357.542	12.63
357.751	12.53
357.96	12.85
358.17	12.6
358.379	12.58
358.589	12.71
358.798	13.06
359.007	13.47
359.217	13.22
359.426	13.28
359.635	13.37
359.845	13.18
360.054	13.18
360.263	12.87
360.472	12.89
360.682	12.84
360.891	12.7
361.1	12.52
361.309	12.31
361.519	12.41
361.728	12.22
361.937	12.1
362.146	11.97
362.355	12.08
362.564	12.19
362.774	12.09
362.983	11.98
363.192	11.88
363.401	11.92
363.61	11.81
363.819	12.11
364.028	12.31
364.237	12.54
364.446	12.91
364.655	12.76
364.864	12.72
365.073	12.94
365.282	13.09
365.491	13.07
365.7	12.94
365.909	13.18
366.118	12.92
366.327	12.98
366.536	12.67
366.745	12.57
366.954	12.42
367.162	12.33
367.371	12.19
367.58	12.18
367.789	12.19
367.998	12.36
368.207	12.21
368.415	11.95
368.624	12.34
368.833	12.48
369.042	12.65
369.25	12.97
369.459	12.91
369.668	12.98
369.877	12.87
370.085	12.8
370.294	12.8
370.503	12.79
370.711	12.67
370.92	12.23
371.129	12.25
371.337	11.81
371.546	11.52
371.754	11.82
371.963	11.88
372.171	11.91
372.38	11.68
372.589	11.48
372.797	11.62
373.006	11.78
373.214	11.8
373.423	11.79
373.631	12.03
373.84	12.02
374.048	11.86
374.256	11.61
374.465	11.43
374.673	11.71
374.882	11.81
375.09	11.77
375.298	11.66
375.507	11.66
375.715	11.58
375.923	11.34
376.132	11.36
376.34	11.22
376.548	11.23
376.757	11.45
376.965	11.74
377.173	11.7
377.381	11.67
377.59	11.84
377.798	11.79
378.006	11.55
378.214	11.6
378.423	11.5
378.631	11.58
378.839	11.6
379.047	11.37
379.255	11.07
379.463	11.14
379.671	11.05
379.879	10.91
380.088	10.81
380.296	10.98
380.504	11.19
380.712	11.19
380.92	11.02
381.128	11.12
381.336	11.23
381.544	11.5
381.752	11.36
381.96	11.25
382.168	11.47
382.376	11.47
382.584	11.5
382.791	11.35
382.999	11.18
383.207	11.43
383.415	11.59
383.623	11.66
383.831	11.29
384.039	11.36
384.247	11.23
384.454	11.04
384.662	10.85
384.87	10.88
385.078	10.73
385.285	10.89
385.493	10.53
385.701	10.32
385.909	10.25
386.116	10.31
386.324	10.11
386.532	10.28
386.739	10.32
386.947	10.42
387.155	10.36
387.362	10.17
387.57	10.21
387.778	10.17
387.985	10.08
388.193	10.09
388.4	9.99
388.608	10.22
388.816	10.07
389.023	9.94
389.231	9.94
389.438	9.84
389.646	10.11
389.853	10.08
390.061	10.16
390.268	10.14
390.475	10.01
390.683	9.91
390.89	9.71
391.098	9.85
391.305	9.84
391.512	9.85
391.72	9.74
391.927	9.44
392.135	9.2
392.342	9.32
392.549	9.41
392.756	9.28
392.964	9.22
393.171	9.22
393.378	8.99
393.586	8.96
393.793	8.91
394	8.82
394.207	8.89
394.414	8.93
394.622	8.79
394.829	8.67
395.036	8.82
395.243	8.86
395.45	8.78
395.657	8.87
395.864	8.88
396.072	8.63
396.279	8.56
396.486	8.63
396.693	8.74
396.9	8.54
397.107	8.24
397.314	8.42
397.521	8.46
397.728	8.38
397.935	8.44
398.142	8.4
398.349	8.67
398.556	8.8
398.763	8.87
398.97	8.93
399.177	9.14
399.383	9.5
399.59	9.45
399.797	9.47
400.004	9.6
400.211	9.47
400.418	9.56
400.625	9.65
400.831	9.88
401.038	9.86
401.245	9.72
401.452	9.68
401.658	9.61
401.865	9.33
402.072	9.43
402.279	9.46
402.485	9.51
402.692	9.36
402.899	9.23
403.105	9.03
403.312	8.97
403.519	8.95
403.725	9.08
403.932	9.08
404.138	9.19
404.345	9
404.552	8.89
404.758	8.76
404.965	8.71
405.171	8.84
405.378	8.9
405.584	9
405.791	9.01
405.997	8.95
406.204	8.84
406.41	8.75
406.617	8.79
406.823	8.73
407.029	8.89
407.236	9.09
407.442	8.93
407.649	8.79
407.855	8.59
408.061	8.53
408.268	8.54
408.474	8.71
408.68	8.87
408.887	8.84
409.093	9.07
409.299	8.88
409.505	8.74
409.712	8.78
409.918	8.87
410.124	8.93
410.33	8.88
410.537	8.79
410.743	8.57
410.949	8.38
411.155	8.37
411.361	8.21
411.567	8.44
411.773	8.45
411.98	8.33
412.186	8.34
412.392	8.41
412.598	8.54
412.804	8.56
413.01	8.48
413.216	8.54
413.422	8.64
413.628	8.59
413.834	8.33
414.04	8.28
414.246	8.27
414.452	8.25
414.658	8.25
414.864	8.27
415.07	8.26
415.275	8.43
415.481	8.43
415.687	8.47
415.893	8.56
416.099	8.6
416.305	8.66
416.511	8.68
416.716	8.68
416.922	8.6
417.128	8.43
417.334	8.38
417.539	8.34
417.745	8.34
417.951	8.13
418.157	7.95
418.362	7.87
418.568	7.77
418.774	7.71
418.979	7.72
419.185	7.69
419.391	7.74
419.596	7.69
419.802	7.64
420.008	7.53
420.213	7.71
420.419	7.8
420.624	7.89
420.83	7.93
421.035	7.9
421.241	7.85
421.446	7.82
421.652	7.8
421.857	7.75
422.063	7.79
422.268	7.84
422.474	7.7
422.679	7.61
422.885	7.57
423.09	7.48
423.295	7.53
423.501	7.51
423.706	7.56
423.911	7.54
424.117	7.64
424.322	7.65
424.527	7.73
424.733	7.74
424.938	7.82
425.143	7.81
425.349	7.91
425.554	7.85
425.759	7.91
425.964	7.98
426.169	7.99
426.375	7.98
426.58	7.88
426.785	7.81
426.99	7.97
427.195	7.91
427.4	7.93
427.605	7.99
427.811	8.16
428.016	8.08
428.221	8.07
428.426	8.07
428.631	8.11
428.836	8.12
429.041	8.05
429.246	8
429.451	8.08
429.656	8.01
429.861	7.9
430.066	7.86
430.271	7.9
430.476	7.77
430.681	7.91
430.886	7.96
431.09	8.08
431.295	8.17
431.5	8.05
431.705	8.1
431.91	8.1
432.115	8.26
432.32	8.28
432.524	8.3
432.729	8.38
432.934	8.37
433.139	8.25
433.343	8.12
433.548	8.14
433.753	8.19
433.958	8.2
434.162	8.24
434.367	8.23
434.572	8.21
434.776	8.17
434.981	8.07
435.186	8.02
435.39	8.09
435.595	8.25
435.799	8.26
436.004	8.31
436.209	8.36
436.413	8.45
436.618	8.31
436.822	8.38
437.027	8.33
437.231	8.4
437.436	8.44
437.64	8.43
437.845	8.36
438.049	8.35
438.253	8.26
438.458	8.13
438.662	8.07
438.867	8.06
439.071	7.9
439.275	7.96
439.48	7.93
439.684	7.93
439.888	7.93
440.093	8.01
440.297	7.92
440.501	7.92
440.706	7.96
440.91	7.98
441.114	7.93
441.318	7.96
441.523	8.02
441.727	8.09
441.931	8.05
442.135	7.97
442.339	7.9
442.543	7.93
442.748	7.96
442.952	7.96
443.156	7.85
443.36	8.03
443.564	8.15
443.768	8.05
443.972	8.08
444.176	8.02
444.38	8.08
444.584	8.11
444.788	8.2
444.992	8.21
445.196	8.14
445.4	8.18
445.604	8.07
445.808	8.04
446.012	8.05
446.216	7.98
446.42	8
446.624	8.03
446.828	8.01
447.032	7.9
447.235	7.88
447.439	7.89
447.643	7.85
447.847	7.87
448.051	7.88
448.254	7.85
448.458	7.87
448.662	7.84
448.866	7.79
449.069	7.78
449.273	7.83
449.477	7.85
449.681	7.89
449.884	7.95
450.088	8.02
450.292	7.97
450.495	8.06
450.699	8.19
450.902	8.09
451.106	8.11
451.31	8.16
451.513	8.14
451.717	8.14
451.92	8.06
452.124	8.14
452.327	8.07
452.531	8.11
452.734	8.06
452.938	7.92
453.141	8.02
453.345	8.05
453.548	7.99
453.752	8.01
453.955	8.01
454.158	7.99
454.362	8.02
454.565	8.02
454.769	7.94
454.972	7.88
455.175	7.95
455.379	7.95
455.582	7.93
455.785	7.93
455.988	7.82
456.192	7.75
456.395	7.82
456.598	7.7
456.801	7.76
457.005	7.8
457.208	7.88
457.411	7.84
457.614	7.92
457.817	7.98
458.021	7.91
458.224	7.99
458.427	7.98
458.63	8.01
458.833	8.05
459.036	8.04
459.239	7.94
459.442	7.89
459.645	7.85
459.848	7.79
460.051	7.76
460.254	7.85
460.457	7.94
460.66	7.93
460.863	7.96
461.066	7.95
461.269	7.9
461.472	7.98
461.675	7.99
461.878	8.08
462.081	8.09
462.284	8.07
462.486	7.99
462.689	7.84
462.892	7.87
463.095	7.85
463.298	7.88
463.5	7.94
463.703	8.07
463.906	8.1
464.109	7.95
464.311	8.07
464.514	8.13
464.717	8.19
464.92	8.33
465.122	8.4
465.325	8.46
465.528	8.44
465.73	8.56
465.933	8.47
466.135	8.51
466.338	8.72
466.541	8.61
466.743	8.6
466.946	8.58
467.148	8.48
467.351	8.46
467.553	8.4
467.756	8.45
467.958	8.23
468.161	8.16
468.363	8.12
468.566	8.09
468.768	8.22
468.971	8.25
469.173	8.28
469.375	8.3
469.578	8.47
469.78	8.49
469.983	8.4
470.185	8.56
470.387	8.72
470.59	8.71
470.792	8.69
470.994	8.72
471.196	8.72
471.399	8.7
471.601	8.68
471.803	8.55
472.005	8.58
472.208	8.66
472.41	8.72
472.612	8.61
472.814	8.69
473.016	8.71
473.218	8.6
473.421	8.68
473.623	8.72
473.825	8.71
474.027	8.67
474.229	8.7
474.431	8.69
474.633	8.58
474.835	8.62
475.037	8.65
475.239	8.66
475.441	8.77
475.643	8.66
475.845	8.67
476.047	8.74
476.249	8.78
476.451	8.72
476.653	8.66
476.855	8.61
477.057	8.51
477.258	8.43
477.46	8.31
477.662	8.22
477.864	8.29
478.066	8.2
478.268	8.14
478.469	8.08
478.671	8
478.873	8.12
479.075	8.15
479.276	8.12
479.478	8.23
479.68	8.28
479.882	8.23
480.083	8.08
480.285	8.08
480.487	8.1
480.688	8.11
480.89	8.08
481.091	7.92
481.293	7.91
481.495	7.89
481.696	7.77
481.898	7.65
482.099	7.53
482.301	7.54
482.502	7.5
482.704	7.43
482.905	7.4
483.107	7.37
483.308	7.35
483.51	7.32
483.711	7.34
483.913	7.34
484.114	7.37
484.315	7.39
484.517	7.43
484.718	7.49
484.92	7.52
485.121	7.55
485.322	7.58
485.524	7.65
485.725	7.68
485.926	7.67
486.127	7.66
486.329	7.62
486.53	7.63
486.731	7.57
486.932	7.5
487.134	7.51
487.335	7.49
487.536	7.47
487.737	7.4
487.938	7.37
488.139	7.39
488.341	7.42
488.542	7.5
488.743	7.5
488.944	7.53
489.145	7.6
489.346	7.57
489.547	7.55
489.748	7.57
489.949	7.64
490.15	7.66
490.351	7.63
490.552	7.61
490.753	7.53
490.954	7.58
491.155	7.6
491.356	7.61
491.557	7.66
491.758	7.73
491.959	7.74
492.159	7.8
492.36	7.87
492.561	7.94
492.762	7.99
492.963	8.12
493.164	8.15
493.364	8.15
493.565	8.2
493.766	8.22
493.967	8.25
494.167	8.37
494.368	8.38
494.569	8.34
494.769	8.36
494.97	8.31
495.171	8.33
495.371	8.38
495.572	8.48
495.773	8.45
495.973	8.43
496.174	8.37
496.375	8.34
496.575	8.35
496.776	8.41
496.976	8.46
497.177	8.54
497.377	8.49
497.578	8.53
497.778	8.46
497.979	8.56
498.179	8.72
498.38	8.79
498.58	8.81
498.78	8.86
498.981	8.86
499.181	8.91
499.382	8.99
499.582	9.03
499.782	9.02
499.983	9.15
500.183	9.14
500.383	9.03
500.584	9.03
500.784	9.13
500.984	9.16
501.184	9.19
501.385	9.28
501.585	9.43
501.785	9.5
501.985	9.67
502.185	9.61
502.386	9.64
502.586	9.7
502.786	9.75
502.986	9.79
503.186	9.89
503.386	9.92
503.586	9.9
503.786	9.79
503.987	9.83
504.187	9.75
504.387	9.81
504.587	9.86
504.787	9.88
504.987	9.91
505.187	9.86
505.387	9.78
505.587	9.9
505.786	9.86
505.986	9.92
506.186	9.91
506.386	9.9
506.586	9.98
506.786	9.93
506.986	10.04
507.186	10.09
507.386	10.2
507.585	10.32
507.785	10.26
507.985	10.37
508.185	10.41
508.384	10.54
508.584	10.61
508.784	10.62
508.984	10.71
509.183	10.75
509.383	10.88
509.583	10.84
509.782	10.83
509.982	10.96
510.182	11.02
510.381	11.03
510.581	11.08
510.781	11.15
510.98	11.27
511.18	11.4
511.379	11.41
511.579	11.38
511.778	11.52
511.978	11.67
512.177	11.76
512.377	11.85
512.576	11.91
512.776	11.87
512.975	11.97
513.175	12.01
513.374	12.13
513.573	12.37
513.773	12.54
513.972	12.59
514.172	12.61
514.371	12.54
514.57	12.58
514.77	12.71
514.969	12.86
515.168	12.88
515.367	12.9
515.567	12.91
515.766	12.79
515.965	12.88
516.164	12.94
516.364	13.09
516.563	13.21
516.762	13.23
516.961	13.23
517.16	13.27
517.359	13.25
517.559	13.36
517.758	13.46
517.957	13.65
518.156	13.62
518.355	13.62
518.554	13.65
518.753	13.7
518.952	13.76
519.151	13.89
519.35	14
519.549	14.13
519.748	14.23
519.947	14.35
520.146	14.35
520.345	14.44
520.544	14.58
520.743	14.63
520.942	14.82
521.141	15.01
521.339	15.11
521.538	15.2
521.737	15.31
521.936	15.37
522.135	15.34
522.333	15.43
522.532	15.56
522.731	15.67
522.93	15.77
523.129	15.88
523.327	15.9
523.526	15.95
523.725	16.01
523.923	16.12
524.122	16.2
524.321	16.29
524.519	16.36
524.718	16.46
524.917	16.43
525.115	16.5
525.314	16.48
525.512	16.53
525.711	16.62
525.909	16.71
526.108	16.78
526.306	16.84
526.505	16.82
526.703	16.87
526.902	16.86
527.1	16.93
527.299	16.95
527.497	17.04
527.696	17.09
527.894	17.1
528.092	17.18
528.291	17.19
528.489	17.24
528.688	17.31
528.886	17.37
529.084	17.5
529.283	17.62
529.481	17.75
529.679	17.84
529.877	17.93
530.076	18.06
530.274	18.14
530.472	18.27
530.67	18.38
530.869	18.54
531.067	18.58
531.265	18.67
531.463	18.71
531.661	18.74
531.859	18.78
532.057	18.82
532.255	18.86
532.454	18.92
532.652	19
532.85	19.1
533.048	19.17
533.246	19.32
533.444	19.35
533.642	19.47
533.84	19.56
534.038	19.7
534.236	19.83
534.434	19.95
534.632	19.98
534.83	20.09
535.027	20.11
535.225	20.22
535.423	20.27
535.621	20.4
535.819	20.49
536.017	20.57
536.215	20.59
536.412	20.6
536.61	20.78
536.808	20.96
537.006	21
537.203	21.18
537.401	21.29
537.599	21.41
537.797	21.54
537.994	21.54
538.192	21.65
538.39	21.71
538.587	21.87
538.785	21.9
538.983	21.92
539.18	22.12
539.378	22.08
539.575	22.07
539.773	22.12
539.97	22.02
540.168	22.15
540.366	22.18
540.563	22.29
540.761	22.34
540.958	22.39
541.155	22.45
541.353	22.53
541.55	22.66
541.748	22.75
541.945	22.87
542.143	23.03
542.34	23.14
542.537	23.22
542.735	23.35
542.932	23.53
543.129	23.61
543.327	23.82
543.524	23.88
543.721	24.08
543.919	24.31
544.116	24.44
544.313	24.6
544.51	24.76
544.708	24.97
544.905	25.09
545.102	25.24
545.299	25.39
545.496	25.45
545.693	25.63
545.891	25.63
546.088	25.58
546.285	25.61
546.482	25.68
546.679	25.66
546.876	25.66
547.073	25.7
547.27	25.72
547.467	25.79
547.664	25.79
547.861	25.76
548.058	25.84
548.255	26.03
548.452	26.16
548.649	26.26
548.846	26.4
549.043	26.57
549.24	26.6
549.437	26.68
549.633	26.67
549.83	26.78
550.027	26.89
550.224	26.83
550.421	26.78
550.618	26.88
550.814	26.85
551.011	26.87
551.208	26.76
551.405	26.73
551.601	26.71
551.798	26.86
551.995	26.91
552.191	26.97
552.388	27
552.585	27.01
552.781	26.98
552.978	27.02
553.175	27.2
553.371	27.36
553.568	27.47
553.764	27.51
553.961	27.58
554.157	27.62
554.354	27.66
554.55	27.84
554.747	27.93
554.943	27.94
555.14	28.05
555.336	27.94
555.533	27.81
555.729	27.87
555.926	27.88
556.122	27.95
556.318	28.01
556.515	28.06
556.711	27.93
556.907	27.93
557.104	27.95
557.3	27.86
557.496	27.79
557.693	28.05
557.889	28.2
558.085	28.36
558.281	28.34
558.478	28.41
558.674	28.39
558.87	28.49
559.066	28.6
559.262	28.8
559.459	28.94
559.655	29.13
559.851	29.11
560.047	29.02
560.243	28.99
560.439	29.02
560.635	29.01
560.831	29.05
561.027	29.05
561.223	28.91
561.419	28.86
561.615	28.96
561.811	28.97
562.007	29.01
562.203	29.02
562.399	29.1
562.595	29.05
562.791	28.99
562.987	29.08
563.183	29.15
563.379	29.36
563.575	29.46
563.771	29.37
563.966	29.19
564.162	29.12
564.358	29.15
564.554	29.08
564.75	29.17
564.945	29.3
565.141	29.44
565.337	29.58
565.533	29.52
565.728	29.57
565.924	29.59
566.12	29.82
566.315	30.1
566.511	30.16
566.707	30.22
566.902	30.26
567.098	30.24
567.293	30.2
567.489	30.2
567.684	30.29
567.88	30.25
568.076	30.31
568.271	30.31
568.467	30.22
568.662	30.28
568.858	30.42
569.053	30.49
569.248	30.41
569.444	30.36
569.639	30.25
569.835	30.34
570.03	30.25
570.225	30.27
570.421	30.26
570.616	30.27
570.812	30.32
571.007	30.19
571.202	30.16
571.397	30.27
571.593	30.38
571.788	30.5
571.983	30.42
572.178	30.5
572.374	30.55
572.569	30.5
572.764	30.47
572.959	30.51
573.154	30.69
573.35	30.73
573.545	30.82
573.74	30.76
573.935	30.9
574.13	31.09
574.325	31.14
574.52	31.27
574.715	31.39
574.91	31.39
575.105	31.37
575.3	31.29
575.495	31.42
575.69	31.45
575.885	31.58
576.08	31.57
576.275	31.63
576.47	31.7
576.665	31.85
576.86	32.13
577.055	32.31
577.25	32.54
577.444	32.66
577.639	32.7
577.834	32.81
578.029	32.85
578.224	32.95
578.418	32.94
578.613	33.02
578.808	32.9
579.003	32.83
579.197	32.82
579.392	32.65
579.587	32.67
579.781	32.71
579.976	32.68
580.171	32.7
580.365	32.6
580.56	32.65
580.755	32.84
580.949	32.88
581.144	32.84
581.338	32.91
581.533	32.99
581.727	33.09
581.922	33.09
582.116	33.18
582.311	33.17
582.505	33.36
582.7	33.51
582.894	33.43
583.089	33.54
583.283	33.63
583.478	33.72
583.672	33.88
583.866	33.83
584.061	33.81
584.255	33.84
584.449	33.95
584.644	33.82
584.838	33.63
585.032	33.69
585.226	33.62
585.421	33.75
585.615	33.75
585.809	33.74
586.003	33.75
586.198	34.01
586.392	33.96
586.586	34.02
586.78	34.19
586.974	34.26
587.168	34.14
587.363	34.23
587.557	34.04
587.751	33.99
587.945	34.05
588.139	34.11
588.333	33.89
588.527	33.94
588.721	33.88
588.915	33.79
589.109	33.72
589.303	33.74
589.497	33.7
589.691	33.71
589.885	33.59
590.079	33.42
590.273	33.55
590.466	33.73
590.66	33.78
590.854	33.84
591.048	33.87
591.242	33.96
591.436	34.05
591.629	34.1
591.823	34.21
592.017	34.55
592.211	34.72
592.404	34.75
592.598	34.64
592.792	34.55
592.986	34.51
593.179	34.58
593.373	34.72
593.567	34.76
593.76	34.71
593.954	34.82
594.147	34.71
594.341	34.57
594.535	34.43
594.728	34.38
594.922	34.3
595.115	34.25
595.309	34.01
595.502	33.88
595.696	33.9
595.889	33.88
596.083	33.83
596.276	33.88
596.47	33.88
596.663	33.92
596.856	33.95
597.05	34.14
597.243	34.22
597.437	34.36
597.63	34.33
597.823	34.26
598.017	34.34
598.21	34.37
598.403	34.26
598.596	34.38
598.79	34.38
598.983	34.5
599.176	34.6
599.369	34.52
599.563	34.66
599.756	34.79
599.949	34.95
600.142	35.02
600.335	34.93
600.528	35.02
600.722	35.09
600.915	35.16
601.108	35.2
601.301	35.2
601.494	35.33
601.687	35.15
601.88	35.17
602.073	35.07
602.266	34.97
602.459	34.95
602.652	34.73
602.845	34.56
603.038	34.48
603.231	34.33
603.424	34.1
603.617	33.89
603.809	33.85
604.002	33.85
604.195	33.81
604.388	33.8
604.581	33.81
604.774	33.96
604.966	34.04
605.159	34.09
605.352	34.2
605.545	34.44
605.737	34.71
605.93	34.87
606.123	34.91
606.316	34.99
606.508	34.98
606.701	35
606.894	35.21
607.086	35.47
607.279	35.43
607.471	35.46
607.664	35.38
607.857	35.58
608.049	35.74
608.242	35.91
608.434	36.4
608.627	36.66
608.819	37.16
609.012	37.59
609.204	37.96
609.397	38.73
609.589	39.36
609.782	40
609.974	40.54
610.166	41.25
610.359	41.94
610.551	42.43
610.743	43.12
610.936	43.49
611.128	43.63
611.32	43.88
611.513	43.84
611.705	43.92
611.897	44.03
612.09	43.72
612.282	43.33
612.474	43
612.666	42.59
612.858	42.23
613.051	42.09
613.243	41.68
613.435	41.41
613.627	41.2
613.819	41.01
614.011	40.69
614.203	40.67
614.395	40.53
614.588	40.36
614.78	40.24
614.972	40.13
615.164	39.88
615.356	39.74
615.548	39.52
615.74	39.37
615.932	39.1
616.124	39.01
616.315	38.77
616.507	38.64
616.699	38.43
616.891	38.25
617.083	37.94
617.275	37.98
617.467	38.03
617.659	38.08
617.85	37.98
618.042	37.79
618.234	37.5
618.426	37.42
618.618	37.37
618.809	37.35
619.001	37.31
619.193	37.39
619.384	37.2
619.576	37.28
619.768	37.02
619.959	36.99
620.151	37.17
620.343	37.23
620.534	37.19
620.726	37.42
620.917	37.36
621.109	37.32
621.301	37.44
621.492	37.32
621.684	37.25
621.875	37.55
622.067	37.52
622.258	37.4
622.45	37.36
622.641	37.42
622.832	37.26
623.024	37.37
623.215	37.33
623.407	37.22
623.598	37.45
623.789	37.54
623.981	37.37
624.172	37.31
624.363	37.42
624.555	37.37
624.746	37.51
624.937	37.49
625.129	37.4
625.32	37.45
625.511	37.25
625.702	37.17
625.893	37.08
626.085	37.12
626.276	37.17
626.467	37.16
626.658	37.29
626.849	37.16
627.04	37
627.231	36.99
627.422	36.94
627.614	37.11
627.805	37.22
627.996	37.35
628.187	37.37
628.378	37.46
628.569	37.62
628.76	37.63
628.951	37.71
629.142	38.05
629.332	38.31
629.523	38.67
629.714	38.71
629.905	38.7
630.096	38.74
630.287	39.03
630.478	39.07
630.669	38.98
630.859	39.15
631.05	39.15
631.241	39.28
631.432	39.22
631.623	39.02
631.813	39.06
632.004	39
632.195	38.98
632.385	38.65
632.576	38.67
632.767	38.42
632.957	38.28
633.148	38.16
633.339	37.87
633.529	37.69
633.72	37.58
633.91	37.43
634.101	37.45
634.292	37.29
634.482	37.32
634.673	37.15
634.863	37.26
635.054	37.24
635.244	37.36
635.435	37.38
635.625	37.34
635.815	37.59
636.006	37.7
636.196	37.69
636.387	37.8
636.577	37.73
636.767	37.61
636.958	37.77
637.148	37.7
637.338	37.78
637.529	37.9
637.719	38.14
637.909	37.86
638.099	37.7
638.29	37.72
638.48	37.72
638.67	37.66
638.86	38.05
639.05	37.69
639.241	37.96
639.431	37.83
639.621	37.57
639.811	37.49
640.001	37.43
640.191	37.6
640.381	37.79
640.571	37.56
640.761	37.87
640.951	37.9
641.141	38.12
641.331	37.86
641.521	38.3
641.711	38.58
641.901	38.5
642.091	38.57
642.281	38.52
642.471	38.47
642.661	38.93
642.851	39.05
643.041	38.8
643.231	39.01
643.42	39.18
643.61	38.7
643.8	38.55
643.99	38.67
644.18	38.99
644.369	39.24
644.559	39.22
644.749	38.92
644.939	38.74
645.128	38.86
645.318	38.65
645.508	38.64
645.697	38.91
645.887	38.81
646.076	38.98
646.266	38.95
646.456	38.84
646.645	38.98
646.835	39.03
647.024	39.03
647.214	39.21
647.403	39.25
647.593	39.33
647.782	39.45
647.972	39.94
648.161	39.84
648.351	39.63
648.54	39.64
648.73	39.46
648.919	39.67
649.108	39.57
649.298	39.55
649.487	39.57
649.677	39.76
649.866	39.82
650.055	39.75
650.244	39.78
650.434	40.07
650.623	39.98
650.812	40.06
651.002	39.91
651.191	40.03
651.38	39.91
651.569	40.04
651.758	39.7
651.947	39.35
652.137	39.24
652.326	39.21
652.515	39.18
652.704	39.17
652.893	39.24
653.082	39.03
653.271	39.14
653.46	39.16
653.649	39.2
653.838	39.22
654.027	39.51
654.216	39.48
654.405	39.62
654.594	39.47
654.783	39.6
654.972	39.69
655.161	40.27
655.35	40.07
655.539	40.09
655.728	40.02
655.916	40.12
656.105	40.14
656.294	40.02
656.483	39.78
656.672	39.88
656.86	40.12
657.049	39.88
657.238	39.78
657.427	39.68
657.615	39.79
657.804	39.64
657.993	39.56
658.181	39.53
658.37	39.36
658.559	39.42
658.747	39.44
658.936	39.18
659.125	39.23
659.313	39.05
659.502	39.39
659.69	39.37
659.879	39.34
660.067	39.51
660.256	39.41
660.444	39.72
660.633	39.82
660.821	39.78
661.01	39.76
661.198	39.47
661.387	39.84
661.575	39.7
661.763	39.63
661.952	39.87
662.14	39.86
662.328	40.09
662.517	40.29
662.705	40.34
662.893	40.33
663.082	40.8
663.27	41.12
663.458	40.8
663.646	40.82
663.834	40.96
664.023	41.23
664.211	41.2
664.399	41.16
664.587	40.9
664.775	40.95
664.963	41.22
665.152	40.94
665.34	41.21
665.528	41.28
665.716	41.51
665.904	41.66
666.092	41.47
666.28	41.66
666.468	41.82
666.656	42.1
666.844	42.09
667.032	41.89
667.22	42.15
667.408	42.37
667.596	42.12
667.784	41.84
667.971	41.54
668.159	41.47
668.347	41.07
668.535	40.75
668.723	40.64
668.911	40.54
669.098	40.67
669.286	40.36
669.474	39.6
669.662	39.9
669.849	39.98
670.037	40.13
670.225	40.17
670.413	40.36
670.6	40.63
670.788	40.43
670.976	40.29
671.163	40
671.351	40.18
671.538	40.5
671.726	40.65
671.913	40.77
672.101	40.91
672.289	41.04
672.476	41.07
672.664	41.05
672.851	41.28
673.039	41.55
673.226	41.91
673.413	41.94
673.601	42.17
673.788	42.02
673.976	41.87
674.163	41.95
674.35	41.88
674.538	42.03
674.725	42.11
674.912	42.05
675.1	42.25
675.287	42.17
675.474	42.29
675.662	42.27
675.849	42.19
676.036	42.39
676.223	42.39
676.411	42.49
676.598	42.2
676.785	41.97
676.972	42.07
677.159	41.72
677.346	41.48
677.533	41.29
677.721	41.22
677.908	41.29
678.095	41.23
678.282	41.13
678.469	41.13
678.656	41.29
678.843	41.28
679.03	41.21
679.217	41.31
679.404	41.42
679.591	41.5
679.778	41.41
679.964	41.59
680.151	41.31
680.338	41.09
680.525	41.03
680.712	41.06
680.899	41.15
681.086	41.03
681.272	41.03
681.459	40.96
681.646	40.71
681.833	41.02
682.02	40.91
682.206	41.26
682.393	41.36
682.58	41.32
682.766	41.46
682.953	41.31
683.14	41.41
683.326	41.56
683.513	41.72
683.7	42.13
683.886	42.19
684.073	41.91
684.259	41.94
684.446	42.03
684.632	42.17
684.819	42.02
685.005	42.19
685.192	42.45
685.378	42.44
685.565	42.25
685.751	42
685.938	41.69
686.124	42.34
686.31	42.49
686.497	42.71
686.683	42.53
686.87	42.31
687.056	42.31
687.242	42.16
687.429	42.03
687.615	42.1
687.801	42.31
687.987	42.42
688.174	41.87
688.36	41.44
688.546	41.41
688.732	41.41
688.918	41.73
689.105	42.01
689.291	42.27
689.477	42.34
689.663	42.58
689.849	42.61
690.035	42.74
690.221	42.8
690.407	43.09
690.593	42.87
690.779	43.15
690.965	43.29
691.151	42.91
691.337	42.61
691.523	42.68
691.709	42.7
691.895	42.77
692.081	42.66
692.267	43.04
692.453	43.02
692.639	43.24
692.825	43.09
693.011	43
693.196	43.27
693.382	43.59
693.568	43.11
693.754	43.31
693.94	42.97
694.125	42.9
694.311	42.56
694.497	42.49
694.682	42.23
694.868	42.1
695.054	42.08
695.239	42.07
695.425	41.95
695.611	42.54
695.796	42.43
695.982	42.41
696.168	42.07
696.353	42.17
696.539	41.73
696.724	41.6
696.91	41.8
697.095	41.71
697.281	41.66
697.466	41.53
697.652	41.17
697.837	40.69
698.023	40.71
698.208	40.87
698.393	40.82
698.579	41.11
698.764	41.15
698.949	40.94
699.135	41.07
699.32	40.89
699.505	40.92
699.691	40.89
699.876	41.13
700.061	41.2
700.246	41.35
700.432	41.52
700.617	41.55
700.802	41.7
700.987	42.22
701.172	42.48
701.358	42.66
701.543	43.15
701.728	43.52
701.913	43.89
702.098	44.32
702.283	44.04
702.468	44.24
702.653	44.73
702.838	45.07
703.023	44.99
703.208	44.57
703.393	44.63
703.578	44.28
703.763	44.81
703.948	44.99
704.133	44.71
704.318	45.26
704.503	45.11
704.688	45.36
704.873	45.3
705.057	45.13
705.242	45.57
705.427	46.13
705.612	46.54
705.797	46.41
705.981	46.55
706.166	46.85
706.351	47.27
706.536	47.67
706.72	47.02
706.905	47.47
707.09	47.5
707.274	47.05
707.459	47.01
707.644	46.96
707.828	46.89
708.013	46.51
708.197	46.3
708.382	45.59
708.567	45.34
708.751	45.75
708.936	45.4
709.12	45.78
709.305	45.84
709.489	46.16
709.673	45.68
709.858	45.57
710.042	45.54
710.227	45.86
710.411	46.01
710.596	45.92
710.78	45.73
710.964	45.67
711.149	45.41
711.333	45.33
711.517	44.51
711.702	44.71
711.886	44.91
712.07	44.92
712.254	44.81
712.438	44.49
712.623	44.91
712.807	44.84
712.991	44.72
713.175	44.44
713.359	44.54
713.544	44.62
713.728	44.74
713.912	44.45
714.096	44.58
714.28	44.29
714.464	44.6
714.648	43.67
714.832	43.78
715.016	44.1
715.2	44.32
715.384	44.58
715.568	44.87
715.752	44.59
715.936	44.99
716.12	44.86
716.304	45.08
716.488	44.77
716.671	45.36
716.855	45.4
717.039	45.32
717.223	45.03
717.407	44.65
717.59	44.73
717.774	45.02
717.958	44.59
718.142	44.87
718.325	44.62
718.509	45.02
718.693	45
718.877	44.38
719.06	44.08
719.244	44.33
719.428	44.74
719.611	44.79
719.795	44.75
719.978	45.09
720.162	44.51
720.345	44.9
720.529	44.73
720.713	44.77
720.896	45.33
721.08	45.37
721.263	45.39
721.446	45.1
721.63	45.16
721.813	44.64
721.997	44.29
722.18	44.46
722.364	44.45
722.547	44.59
722.73	44.5
722.914	44.63
723.097	45.05
723.28	45.58
723.464	45.93
723.647	45.93
723.83	46.46
724.013	46.65
724.197	46.78
724.38	47.04
724.563	47.02
724.746	46.43
724.929	46.25
725.112	46.57
725.296	46.33
725.479	46.32
725.662	45.86
725.845	45.78
726.028	45.77
726.211	45.66
726.394	44.81
726.577	45.1
726.76	45.59
726.943	45.64
727.126	45.26
727.309	45.18
727.492	45.05
727.675	45.4
727.858	45.47
728.041	45.42
728.224	45.67
728.407	46.06
728.589	45.98
728.772	45.99
728.955	45.96
729.138	45.96
729.321	45.4
729.503	45.8
729.686	46.04
729.869	45.68
730.052	45.8
730.234	45.38
730.417	45.15
730.6	45.09
730.782	45.01
730.965	45.13
731.148	44.72
731.33	45.42
731.513	45.17
731.695	44.86
731.878	44.65
732.061	44.73
732.243	45.34
732.426	45.6
732.608	45.54
732.791	45.8
732.973	46
733.156	46.13
733.338	46.35
733.52	46.08
733.703	45.73
733.885	46.13
734.068	46.07
734.25	46.07
734.432	45.99
734.615	46
734.797	45.83
734.979	45.36
735.162	45.92
735.344	45.31
735.526	45.25
735.708	45.47
735.891	45.75
736.073	45.28
736.255	45.08
736.437	44.88
736.619	45.32
736.802	45.61
736.984	46.15
737.166	45.82
737.348	46.37
737.53	46.97
737.712	47.06
737.894	47.22
738.076	47.97
738.258	48.13
738.44	48.24
738.622	48.21
738.804	48.62
738.986	48.87
739.168	48.84
739.35	48.98
739.532	48.39
739.714	49.08
739.896	49.02
740.078	48.85
740.259	48.55
740.441	49.2
740.623	48.93
740.805	48.28
740.987	48.12
741.168	47.99
741.35	47.52
741.532	47.63
741.714	47.1
741.895	46.98
742.077	46.73
742.259	47.3
742.44	47.46
742.622	47.42
742.804	47.84
742.985	47.63
743.167	48.14
743.348	47.98
743.53	48.25
743.711	48.19
743.893	48
744.075	48.16
744.256	47.82
744.438	47.95
744.619	49.13
744.8	49.02
744.982	48.48
745.163	47.77
745.345	48.06
745.526	48.92
745.707	49.04
745.889	48.72
746.07	49.55
746.252	49.9
746.433	49.79
746.614	49.13
746.795	49.23
746.977	49.74
747.158	50.91
747.339	50.95
747.52	50.33
747.702	50.93
747.883	51.93
748.064	50.76
748.245	50.5
748.426	50.28
748.607	50.31
748.788	50.51
748.97	50.15
749.151	49.65
749.332	49.57
749.513	49.68
749.694	49.75
749.875	49.62
750.056	50.55
750.237	50.49
750.418	50.14
750.599	49.89
750.78	49.78
750.96	50.3
751.141	50
751.322	49.94
751.503	50.18
751.684	49.69
751.865	48.98
752.046	48.27
752.226	48.73
752.407	49.07
752.588	49.39
752.769	49.6
752.949	49.66
753.13	50.18
753.311	50.2
753.492	50.21
753.672	50.46
753.853	50.86
754.034	50.83
754.214	50.63
754.395	50.71
754.575	50.22
754.756	49.47
754.937	49.34
755.117	49.06
755.298	49.33
755.478	49.29
755.659	48.82
755.839	49.3
756.02	49.77
756.2	49.21
756.381	48.84
756.561	49.21
756.741	49.24
756.922	49.46
757.102	49.55
757.283	49.81
757.463	49.46
757.643	49.44
757.823	48.64
758.004	48.25
758.184	48.26
758.364	48.32
758.545	47.56
758.725	47.33
758.905	46.57
759.085	46.42
759.265	45.35
759.446	44.33
759.626	44.57
759.806	44.89
759.986	44.97
760.166	44.81
760.346	44.88
760.526	45.24
760.706	45.61
760.886	45.55
761.066	45.6
761.246	45.86
761.426	46.63
761.606	46.36
761.786	46.03
761.966	45.54
762.146	45.94
762.326	45.47
762.506	44.7
762.686	44.62
762.866	45.01
763.046	44.43
763.225	44.12
763.405	43.95
763.585	43.46
763.765	43.53
763.945	43.38
764.124	43.01
764.304	43.24
764.484	43.65
764.664	43.21
764.843	43.04
765.023	43.06
765.203	43.51
765.382	43.62
765.562	44.46
765.741	44.27
765.921	44.84
766.101	45.28
766.28	44.99
766.46	45.04
766.639	45.62
766.819	45.7
766.998	46.58
767.178	46.88
767.357	47.31
767.537	47.29
767.716	48.32
767.896	48.1
768.075	48.07
768.254	49.22
768.434	50.5
768.613	50.74
768.792	51.16
768.972	51.16
769.151	50.91
769.33	50.71
769.51	51.66
769.689	51.45
769.868	51.82
770.047	51.98
770.226	51.49
770.406	49.99
770.585	50.78
770.764	50.71
770.943	50.77
771.122	50.14
771.301	50.32
771.48	49.15
771.66	49.58
771.839	49.68
772.018	50.11
772.197	50.19
772.376	50.75
772.555	49.76
772.734	50.11
772.913	49.39
773.092	50.4
773.271	50.7
773.449	49.93
773.628	49.51
773.807	50.42
773.986	49.67
774.165	50.13
774.344	50.94
774.523	51.1
774.701	50.85
774.88	51.77
775.059	52.07
775.238	52.29
775.417	53.01
775.595	53.58
775.774	52.81
775.953	53.51
776.131	53.76
776.31	53.12
776.489	53.39
776.667	53.54
776.846	54.14
777.025	53.55
777.203	53.15
777.382	54.22
777.56	53.65
777.739	54.5
777.917	54.29
778.096	53.54
778.274	54.11
778.453	53.6
778.631	54.22
778.81	53.23
778.988	53.46
779.166	53.43
779.345	53.55
779.523	52.78
779.702	51.57
779.88	52.3
780.058	51.49
780.237	50.65
780.415	52.32
780.593	51.64
780.771	51.62
780.95	51.54
781.128	52.49
781.306	51.89
781.484	52.36
781.662	53.73
781.841	53.78
782.019	54.4
782.197	54.59
782.375	53.83
782.553	53.95
782.731	54.2
782.909	54.15
783.087	53.06
783.265	52.08
783.443	52.71
783.621	52.03
783.799	52.06
783.977	52.21
784.155	52.68
784.333	52.23
784.511	52.38
784.689	52.96
784.867	53.2
785.045	53.64
785.223	55.29
785.4	56.16
785.578	56.01
785.756	55.88
785.934	55.81
786.112	55.76
786.289	55.16
786.467	54.89
786.645	54.78
786.823	54.72
787	55.25
787.178	53.73
787.356	52.61
787.533	52.39
787.711	51.3
787.889	51.67
788.066	50.61
788.244	50.71
788.421	50.64
788.599	50.26
788.776	50.66
788.954	49.83
789.131	51.14
789.309	50.49
789.486	50.06
789.664	51.07
789.841	50.98
790.019	51.07
790.196	51.96
790.373	52.24
790.551	52.46
790.728	51.63
790.906	51.56
791.083	50.97
791.26	51.43
791.437	52.29
791.615	52.14
791.792	52.33
791.969	53.37
792.146	52.94
792.324	53.17
792.501	52.06
792.678	53.09
792.855	53.39
793.032	52.66
793.209	53.98
793.387	54.11
793.564	55.34
793.741	54.81
793.918	53.83
794.095	54.55
794.272	54.99
794.449	55.57
794.626	55
794.803	56.05
794.98	57.28
795.157	56.5
795.334	56.15
795.511	55.06
795.688	56.49
795.864	57.17
796.041	57.09
796.218	56.14
796.395	56.6
796.572	57.16
796.749	55.25
796.925	53.84
797.102	54.46
797.279	54.64
797.456	53.87
797.632	53.09
797.809	53.36
797.986	53.08
798.162	52.93
798.339	52.12
798.516	51.67
798.692	52.24
798.869	53
799.046	52.33
799.222	52.52
799.399	53.8
799.575	53.9
799.752	53.15
799.928	52.95
800.105	53.96
800.281	54.87
800.458	55.6
800.634	56.56
800.811	55.07
800.987	56.21
801.163	55.92
801.34	55.77
801.516	55.91
801.692	57.23
801.869	56.88
802.045	56.79
802.221	57.09
802.398	56.42
802.574	56.61
802.75	58.06
802.926	57.45
803.103	57.28
803.279	56.6
803.455	55.02
803.631	54.1
803.807	55.11
803.983	55.75
804.16	55.38
804.336	55.47
804.512	55.3
804.688	56.05
804.864	56.14
805.04	56.44
805.216	55.75
805.392	57.15
805.568	58.22
805.744	57.55
805.92	56.26
806.096	55.06
806.272	56.21
806.448	55.69
806.623	54.78
806.799	54.07
806.975	53.82
807.151	54.92
807.327	55.11
807.503	53.54
807.678	54.09
807.854	55.2
808.03	55.43
808.206	54.5
808.381	54.72
808.557	55.06
808.733	54.53
808.908	54.51
809.084	54.54
809.26	53.62
809.435	54.72
809.611	55.13
809.787	54.75
809.962	56.22
810.138	55.9
810.313	55.91
810.489	55.39
810.664	55.96
810.84	56.87
811.015	56.19
811.191	57.69
811.366	58.09
811.542	56.86
811.717	56.59
811.892	56.53
812.068	56.44
812.243	55.11
812.419	55.58
812.594	54.44
812.769	53.87
812.944	55.39
813.12	55.24
813.295	55.68
813.47	54.76
813.645	54.69
813.821	53.81
813.996	54.3
814.171	55.88
814.346	56.03
814.521	57.44
814.697	57.71
814.872	56.17
815.047	55.8
815.222	54.18
815.397	55.7
815.572	57.03
815.747	56.92
815.922	57.18
816.097	57.51
816.272	57.92
816.447	58.11
816.622	58.65
816.797	58.37
816.972	57.91
817.147	59.21
817.322	58.4
817.496	55.64
817.671	55.96
817.846	56
818.021	53.89
818.196	53.83
818.371	53.01
818.545	51.54
818.72	51.81
818.895	51.42
819.069	50.25
819.244	50.64
819.419	50.54
819.594	50.47
819.768	49.32
819.943	50.39
820.117	48.72
820.292	47.15
820.467	45.93
820.641	44.33
820.816	43.63
820.99	42.3
821.165	41.23
821.339	40.62
821.514	39.99
821.688	39.53
821.863	38.69
822.037	38.26
822.212	38.27
822.386	38.13
822.56	38.1
822.735	37.53
822.909	37.36
823.084	37.4
823.258	37.19
823.432	36.94
823.606	36.91
823.781	36.94
823.955	37.2
824.129	37.28
824.303	37.65
824.478	37.82
824.652	38.68
824.826	39.02
825	39.3
825.174	40.49
825.348	40.93
825.523	41.04
825.697	41.49
825.871	41.76
826.045	41.38
826.219	41.07
826.393	40.82
826.567	40.86
826.741	41.02
826.915	40.96
827.089	40.48
827.263	40.65
827.437	40.78
827.611	40.98
827.784	40.91
827.958	41.15
828.132	41.3
828.306	41.71
828.48	41.57
828.654	41.88
828.827	42.21
829.001	42.48
829.175	43.45
829.349	44.08
829.522	44.04
829.696	45.05
829.87	46.33
830.044	47.26
830.217	48.12
830.391	48.37
830.565	49.5
830.738	50.99
830.912	52.19
831.085	52.13
831.259	52.4
831.432	52.15
831.606	52.4
831.779	51.19
831.953	50.38
832.126	50.08
832.3	50.24
832.473	49.93
832.647	47.81
832.82	46.51
832.994	45.09
833.167	44.27
833.34	44.55
833.514	44.01
833.687	44.21
833.86	44.42
834.034	44.7
834.207	44.71
834.38	44.29
834.553	44.2
834.727	44.4
834.9	44.8
835.073	44.68
835.246	45.2
835.419	45.19
835.593	45.07
835.766	45.22
835.939	45.16
836.112	44.45
836.285	45.1
836.458	46.4
836.631	47.35
836.804	48.24
836.977	48.32
837.15	48.18
837.323	49.13
837.496	49.51
837.669	50.95
837.842	52.92
838.015	57.8
838.188	58.05
838.361	58.91
838.533	59.92
838.706	59.84
838.879	61.86
839.052	62.38
839.225	62.82
839.398	64.77
839.57	65.07
839.743	62.03
839.916	59.72
840.088	61.61
840.261	61.67
840.434	61.43
840.607	59.45
840.779	57.76
840.952	55.45
841.124	55.7
841.297	56.18
841.47	55.43
841.642	55
841.815	54.5
841.987	53.18
842.16	52.58
842.332	52.48
842.505	55.96
842.677	60.36
842.85	65.58
843.022	66.04
843.194	64.21
843.367	65.7
843.539	65.45
843.712	68.34
843.884	69.64
844.056	70.47
844.229	69.4
844.401	68.02
844.573	67.18
844.745	65.52
844.918	63.91
845.09	63.7
845.262	60.88
845.434	65.77
845.606	61.57
845.779	61.12
845.951	63.34
846.123	65.71
846.295	67.06
846.467	70.28
846.639	70.76
846.811	74.25
846.983	79.6
847.155	80.49
847.327	83.41
847.499	85.34
847.671	81.87
847.843	81.49
848.015	81.27
848.187	83.83
848.359	81.51
848.531	79.28
848.703	79.96
848.875	76.39
849.047	77.06
849.218	75.57
849.39	76.95
849.562	81.47
849.734	82.5
849.905	86.59
850.077	85.31
850.249	89.18
850.421	92.29
850.592	89.89
850.764	91.69
850.936	91.75
851.107	89.76
851.279	90.01
851.451	88.9
851.622	89.3
851.794	89.24
851.965	89.13
852.137	89.89
852.308	89.49
852.48	86.63
852.651	84.48
852.823	82.98
852.994	85.96
853.166	83.92
853.337	87.6
853.509	88.27
853.68	85.19
853.851	83.99
854.023	79.83
854.194	80.74
854.365	83.7
854.537	87.74
854.708	89.25
854.879	88.96
855.05	92.16
855.222	91.19
855.393	90.05
855.564	93.73
855.735	93.7
855.906	95.15
856.078	90.89
856.249	89.6
856.42	90.47
856.591	95.57
856.762	91.85
856.933	91.86
857.104	89.48
857.275	88.13
857.446	82.88
857.617	86.04
857.788	82.01
857.959	86.26
858.13	91.77
858.301	89.24
858.472	84.31
858.643	88.82
858.814	87.44
858.985	85.54
859.155	89.53
859.326	94.52
859.497	92.61
859.668	99.85
859.839	98.19
860.009	95.81
860.18	96.54
860.351	99.97
860.522	96.67
860.692	96.33
860.863	103.35
861.034	101.51
861.204	95.9
861.375	93.79
861.546	87.43
861.716	85.59
861.887	81.35
862.057	82.49
862.228	81.6
862.398	79
862.569	78.94
862.739	74.53
862.91	73.66
863.08	74.49
863.251	76.66
863.421	79.07
863.592	83.78
863.762	87.21
863.932	90.04
864.103	89.94
864.273	92.01
864.443	93.38
864.614	93.94
864.784	91.11
864.954	95.79
865.125	93.7
865.295	96.09
865.465	92.54
865.635	94.19
865.805	94.16
865.976	93.21
866.146	95.4
866.316	92.35
866.486	96.98
866.656	97.67
866.826	95.81
866.996	96.62
867.166	97.24
867.336	100.67
867.506	98.88
867.676	92.09
867.846	92.65
868.016	87.3
868.186	94.66
868.356	94.01
868.526	90.26
868.696	89.91
868.866	90.73
869.036	90.5
869.206	91.5
869.376	96.44
869.545	96.28
869.715	99.21
869.885	100.2
870.055	90.67
870.224	92.39
870.394	94.42
870.564	89.55
870.734	86.29
870.903	86.57
871.073	80.22
871.243	75.47
871.412	75.65
871.582	72.55
871.751	75.79
871.921	78.31
872.091	75.74
872.26	73.1
872.43	76.01
872.599	78.09
872.769	77.13
872.938	80.57
873.108	81.63
873.277	83.34
873.446	82
873.616	80.54
873.785	81.78
873.955	82.11
874.124	89.4
874.293	88.45
874.463	87.88
874.632	85.8
874.801	79.4
874.971	80.55
875.14	83.53
875.309	84.71
875.478	86.16
875.647	85.29
875.817	83.13
875.986	80.39
876.155	79.34
876.324	82.51
876.493	82.71
876.662	88.84
876.831	84.33
877	82.33
877.17	81.52
877.339	84.29
877.508	84.35
877.677	87.41
877.846	83.95
878.015	86.31
878.184	80.85
878.352	78.15
878.521	73.72
878.69	76.99
878.859	80.2
879.028	81.22
879.197	74.97
879.366	70.14
879.534	66.37
879.703	65.76
879.872	61.48
880.041	60.35
880.21	57.59
880.378	57.45
880.547	53.63
880.716	49.02
880.884	46.3
881.053	44.07
881.222	43.64
881.39	41.67
881.559	40.71
881.727	40.09
881.896	39.01
882.065	38.44
882.233	37.23
882.402	37.54
882.57	37.37
882.739	37.59
882.907	38.41
883.076	38.49
883.244	39.16
883.412	38.63
883.581	39.6
883.749	40.29
883.918	40.63
884.086	41.72
884.254	42.12
884.423	42.82
884.591	44
884.759	45.05
884.927	46.38
885.096	47.26
885.264	48.78
885.432	48.61
885.6	50.01
885.769	53.91
885.937	55.17
886.105	55.2
886.273	57.78
886.441	58.67
886.609	60.08
886.777	60.26
886.945	63.28
887.113	66.66
887.281	69.67
887.449	71.8
887.617	73.53
887.785	76.34
887.953	78.35
888.121	78.9
888.289	78.4
888.457	79.25
888.625	81.15
888.793	81.97
888.961	85.48
889.129	88.65
889.296	91.39
889.464	92.13
889.632	91.57
889.8	94.51
889.967	95.69
890.135	100.36
