Data from 2938768__Reflection_02.txt Node
Date: Fri Mar 13 15:39:16 EDT 2015
User: robert
Spectrometer: USB4E03002
Autoset integration time: false
Trigger mode: 4
Integration Time (sec): 1.000000E-1
Scans to average: 10
Electric dark correction enabled: false
Nonlinearity correction enabled: false
Boxcar width: 5
Stray light correction enabled: false
XAxis mode: Wavelengths
Stop averaging: false
Number of Pixels in Spectrum: 3648
>>>>>Begin Spectral Data<<<<<
177.575	-43.7
177.794	57.14
178.014	534.62
178.233	860.87
178.452	4100
178.672	109.46
178.891	358.06
179.11	409.8
179.33	-3571.43
179.549	-3840
179.768	235.59
179.987	141.55
180.207	76.6
180.426	45.56
180.645	44.53
180.864	38.68
181.084	61.41
181.303	64.13
181.522	72.41
181.741	38.1
181.96	48.39
182.179	24.61
182.398	62.6
182.618	33.12
182.837	10.64
183.056	-84.32
183.275	-115.97
183.494	-126.53
183.713	-68.94
183.932	-72.58
184.151	-34.62
184.37	-16.32
184.589	-2.32
184.808	-5.66
185.027	6.97
185.246	7.81
185.465	15.38
185.684	15.21
185.903	21.98
186.122	25.45
186.341	25.51
186.56	17.51
186.779	5.51
186.998	-15.1
187.216	-21.24
187.435	-30.21
187.654	-49.45
187.873	-6.45
188.092	33.72
188.311	24.43
188.53	32.27
188.748	65.35
188.967	94.97
189.186	62.58
189.405	308.86
189.623	106.09
189.842	93.28
190.061	90.78
190.28	-59.62
190.498	-69.88
190.717	-35.41
190.936	-96.03
191.154	-127.06
191.373	-72.39
191.592	0.42
191.81	-7
192.029	31.9
192.248	32.88
192.466	20.29
192.685	53.77
192.904	45.1
193.122	37.57
193.341	33.48
193.559	43.48
193.778	34.16
193.996	29.75
194.215	17.94
194.433	-15.37
194.652	-111.03
194.87	-86.7
195.089	-338.21
195.307	-239.89
195.526	-100.25
195.744	-145.58
195.963	-167.77
196.181	-187.59
196.399	-153.53
196.618	-147.42
196.836	-188.07
197.055	-141.78
197.273	-82.9
197.491	-43.27
197.71	-33.16
197.928	-15.27
198.146	54.82
198.365	89.3
198.583	130.17
198.801	93.7
199.019	70.31
199.238	56.3
199.456	48.44
199.674	50.54
199.892	47.34
200.111	50.05
200.329	60.22
200.547	56.74
200.765	61.66
200.983	48.26
201.202	59.67
201.42	103.51
201.638	88.21
201.856	74.85
202.074	67.13
202.292	79.16
202.51	55.21
202.728	36.97
202.946	14.19
203.165	-10.36
203.383	-23.29
203.601	-46.86
203.819	-71.91
204.037	-82.39
204.255	-106.24
204.473	-73.08
204.691	-142.48
204.909	-65.56
205.127	-113.49
205.345	-181.33
205.562	-109.76
205.78	-129.45
205.998	-80.75
206.216	-54.52
206.434	-27.56
206.652	-18.58
206.87	-23.82
207.088	-14.76
207.306	-30.06
207.523	-9.18
207.741	-8.93
207.959	5.54
208.177	-18
208.395	-21.03
208.612	-48.25
208.83	-125.17
209.048	-259.46
209.266	-590.59
209.483	-214.29
209.701	-130.12
209.919	-184.58
210.136	-71.54
210.354	-90.34
210.572	1.08
210.79	4.62
211.007	-20.8
211.225	-1.16
211.442	7.36
211.66	17.67
211.878	12.49
212.095	10.42
212.313	20.7
212.53	3.07
212.748	1.05
212.966	-5.39
213.183	-6.98
213.401	12.43
213.618	12.81
213.836	5.25
214.053	1.66
214.271	-3.58
214.488	-3.33
214.705	-8.11
214.923	6.02
215.14	14.35
215.358	19.11
215.575	28.36
215.793	26.99
216.01	23.03
216.227	43.65
216.445	43.54
216.662	48.99
216.879	39.31
217.097	41.71
217.314	38.91
217.531	31.68
217.749	23.1
217.966	10.19
218.183	6.8
218.4	5.44
218.618	-10.04
218.835	-2.16
219.052	2.86
219.269	10.69
219.487	1.5
219.704	0
219.921	-5.14
220.138	-1.13
220.355	-5.3
220.572	-7.85
220.79	-8.17
221.007	-10.19
221.224	-12.24
221.441	-9.95
221.658	-6.45
221.875	-5.74
222.092	-3.16
222.309	0.52
222.526	1.06
222.743	0.8
222.96	-5.7
223.177	-2.82
223.394	2.63
223.611	2.64
223.828	-3.49
224.045	-12.11
224.262	-10.2
224.479	-8.78
224.696	-3.46
224.913	-8.47
225.13	-2.65
225.347	2.98
225.564	1.1
225.781	-3.4
225.997	-2.67
226.214	-1.54
226.431	2.76
226.648	2.5
226.865	3.84
227.082	2.67
227.298	4.39
227.515	3.17
227.732	2.45
227.949	1.69
228.165	3.63
228.382	3.2
228.599	4.06
228.816	3.47
229.032	3.5
229.249	2.89
229.466	2.6
229.682	2.91
229.899	3.14
230.116	3.29
230.332	4.61
230.549	4.04
230.765	4.23
230.982	4.15
231.199	3.86
231.415	4.03
231.632	3.72
231.848	2.78
232.065	1.81
232.281	1.49
232.498	1.45
232.714	-0.3
232.931	-1.13
233.147	-0.19
233.364	-0.35
233.58	0.23
233.797	-0.7
234.013	-0.63
234.23	0.48
234.446	-0.17
234.662	-0.12
234.879	0.16
235.095	-0.17
235.312	-0.82
235.528	-1.47
235.744	-1.72
235.961	-1.85
236.177	-2.47
236.393	-0.84
236.61	-1.86
236.826	-0.23
237.042	-1.2
237.258	-1.88
237.475	-1.69
237.691	-0.14
237.907	-0.3
238.123	1.54
238.339	2.07
238.556	2.15
238.772	2.78
238.988	3.68
239.204	2.45
239.42	3.88
239.636	3.67
239.853	3.89
240.069	3.65
240.285	3.73
240.501	2
240.717	2.23
240.933	2.63
241.149	1.58
241.365	1.64
241.581	1.69
241.797	1.86
242.013	1.86
242.229	1.75
242.445	1.73
242.661	1.8
242.877	2.1
243.093	2.15
243.309	2.17
243.525	2.32
243.741	2.59
243.957	2.64
244.173	2.54
244.388	3.13
244.604	3.75
244.82	3.74
245.036	3.63
245.252	3.29
245.468	2.93
245.683	3.39
245.899	3.3
246.115	2.93
246.331	2.79
246.547	2.72
246.762	2.5
246.978	2.25
247.194	2.4
247.409	2.41
247.625	2.73
247.841	2.94
248.057	2.62
248.272	2.46
248.488	2.47
248.703	2.33
248.919	2.34
249.135	2.29
249.35	2.56
249.566	1.72
249.782	1.96
249.997	1.15
250.213	1.24
250.428	1.38
250.644	1.68
250.859	1.46
251.075	2.14
251.29	2.32
251.506	2.09
251.721	2
251.937	2.76
252.152	2.63
252.368	3.31
252.583	2.65
252.798	2.46
253.014	2.51
253.229	2.17
253.445	2.38
253.66	2.16
253.875	2.52
254.091	1.42
254.306	1.34
254.521	0.17
254.737	-0.8
254.952	-0.64
255.167	-0.43
255.383	-0.66
255.598	-0.21
255.813	-1.78
256.028	-1.92
256.244	-1.49
256.459	-0.08
256.674	0.2
256.889	0.71
257.104	1.3
257.32	1.83
257.535	1.6
257.75	1.82
257.965	2
258.18	2.86
258.395	2.85
258.61	2.51
258.826	2.54
259.041	2.5
259.256	2.43
259.471	2.19
259.686	2.02
259.901	2.23
260.116	2.06
260.331	2.31
260.546	2.28
260.761	2.25
260.976	2.37
261.191	2.44
261.406	2.38
261.621	2.61
261.836	2.67
262.05	2.68
262.265	2.26
262.48	2.68
262.695	2.19
262.91	1.91
263.125	1.84
263.34	1.08
263.555	0.08
263.769	-0.15
263.984	-0.27
264.199	-0.1
264.414	-0.21
264.629	0.22
264.843	0.07
265.058	0.39
265.273	0.91
265.488	0.8
265.702	1.1
265.917	1.59
266.132	1.69
266.346	1.35
266.561	1.61
266.776	1.59
266.99	1.34
267.205	1.02
267.42	1.08
267.634	0.5
267.849	0.18
268.063	0.08
268.278	0.19
268.492	0.15
268.707	0.39
268.922	0.36
269.136	0.32
269.351	0.45
269.565	0.77
269.78	0.87
269.994	1.09
270.209	1.47
270.423	2.03
270.637	2.09
270.852	1.97
271.066	2.04
271.281	2.28
271.495	2.39
271.709	2.34
271.924	2.39
272.138	2.05
272.353	1.95
272.567	1.87
272.781	1.73
272.996	1.73
273.21	1.67
273.424	1.52
273.638	1.1
273.853	1.02
274.067	1.28
274.281	1.14
274.495	1.11
274.71	1.13
274.924	1.21
275.138	1.11
275.352	1.01
275.566	1.55
275.781	1.45
275.995	1.36
276.209	1.41
276.423	1.21
276.637	1.06
276.851	0.77
277.065	0.97
277.279	0.91
277.493	0.92
277.707	0.68
277.921	-0.04
278.135	0.09
278.349	0.01
278.563	0.03
278.777	-0.05
278.991	0.16
279.205	0.35
279.419	0.61
279.633	0.55
279.847	0.37
280.061	0.86
280.275	1.32
280.489	0.88
280.703	1.01
280.917	1.31
281.131	1.44
281.344	1.21
281.558	1.46
281.772	1.19
281.986	1.3
282.2	1.47
282.414	1.22
282.627	1.01
282.841	1.52
283.055	1.88
283.269	1.77
283.482	1.83
283.696	1.95
283.91	2.06
284.123	1.97
284.337	1.88
284.551	2.01
284.764	2.1
284.978	2.16
285.192	2
285.405	1.8
285.619	1.54
285.833	1.51
286.046	1.42
286.26	1.13
286.473	1.2
286.687	1.05
286.9	0.84
287.114	0.78
287.327	0.73
287.541	0.62
287.754	0.49
287.968	0.48
288.181	0.46
288.395	0.8
288.608	1.06
288.822	0.88
289.035	0.9
289.248	0.92
289.462	1.08
289.675	1.19
289.889	1.3
290.102	1.28
290.315	1.25
290.529	1.45
290.742	1.35
290.955	1.55
291.169	1.77
291.382	2.09
291.595	2.05
291.808	1.81
292.022	1.81
292.235	1.59
292.448	1.85
292.661	1.84
292.875	1.57
293.088	1.37
293.301	0.98
293.514	0.83
293.727	0.69
293.94	0.61
294.153	0.58
294.367	0.48
294.58	0.72
294.793	0.54
295.006	0.75
295.219	0.79
295.432	0.86
295.645	0.84
295.858	0.78
296.071	0.81
296.284	1.1
296.497	1.42
296.71	1.48
296.923	1.52
297.136	1.68
297.349	1.57
297.562	1.53
297.775	1.72
297.988	1.85
298.201	2.01
298.414	2
298.626	2.09
298.839	2.06
299.052	2.04
299.265	2.15
299.478	1.98
299.691	2.2
299.903	1.95
300.116	1.86
300.329	1.73
300.542	1.47
300.755	1.65
300.967	1.37
301.18	1.01
301.393	0.85
301.605	0.78
301.818	0.62
302.031	0.09
302.243	0.46
302.456	0.63
302.669	0.57
302.881	1.01
303.094	1.03
303.307	1.41
303.519	1.67
303.732	2.32
303.944	2.47
304.157	2.99
304.37	3.29
304.582	3.11
304.795	2.7
305.007	2.96
305.22	2.83
305.432	2.58
305.645	2.56
305.857	2.65
306.069	2.4
306.282	2.37
306.494	2.14
306.707	2.04
306.919	1.95
307.132	1.76
307.344	1.7
307.556	1.73
307.769	2.14
307.981	1.93
308.193	1.73
308.406	1.53
308.618	1.65
308.83	1.57
309.043	1.92
309.255	2.01
309.467	2.01
309.679	2.02
309.892	1.98
310.104	1.7
310.316	1.7
310.528	1.62
310.74	1.98
310.953	1.95
311.165	2.21
311.377	1.93
311.589	2.06
311.801	2.56
312.013	2.8
312.225	2.84
312.437	2.95
312.649	3.18
312.862	3.32
313.074	3.09
313.286	2.76
313.498	2.67
313.71	2.89
313.922	3.25
314.134	3.06
314.346	2.83
314.558	2.68
314.77	2.59
314.982	2.63
315.193	2.97
315.405	2.71
315.617	2.96
315.829	3.01
316.041	3.21
316.253	2.91
316.465	2.69
316.677	2.55
316.888	2.81
317.1	2.96
317.312	2.76
317.524	2.48
317.736	2.83
317.947	3.04
318.159	3.18
318.371	3.41
318.583	3.44
318.794	3.7
319.006	4.11
319.218	4.1
319.43	3.95
319.641	4.18
319.853	4.64
320.064	4.84
320.276	4.67
320.488	4.75
320.699	4.76
320.911	4.85
321.123	4.88
321.334	4.83
321.546	4.98
321.757	5.4
321.969	5.57
322.18	4.83
322.392	4.99
322.603	5.05
322.815	5.18
323.026	5.33
323.238	5.78
323.449	6.01
323.661	6.17
323.872	6.38
324.083	6.34
324.295	6.18
324.506	6.64
324.718	6.58
324.929	6.92
325.14	7.17
325.352	7.08
325.563	6.95
325.774	6.83
325.986	7.06
326.197	7.17
326.408	7.61
326.62	7.92
326.831	8.34
327.042	8.55
327.253	8.99
327.464	8.89
327.676	9.05
327.887	9.26
328.098	9.9
328.309	10
328.52	10.26
328.732	10.64
328.943	11.1
329.154	11.29
329.365	11.76
329.576	11.83
329.787	12.34
329.998	13
330.209	13.32
330.42	13.44
330.631	13.9
330.842	14.59
331.053	14.89
331.264	15.04
331.475	15.41
331.686	15.74
331.897	16.38
332.108	16.71
332.319	16.78
332.53	16.92
332.741	17.1
332.952	16.82
333.163	16.84
333.374	16.73
333.585	17.02
333.795	17.07
334.006	16.76
334.217	16.66
334.428	16.67
334.639	16.98
334.849	16.96
335.06	17.3
335.271	17.63
335.482	17.8
335.692	17.88
335.903	17.78
336.114	18.01
336.325	18.59
336.535	18.83
336.746	18.78
336.957	18.51
337.167	18.69
337.378	18.61
337.589	18.88
337.799	18.66
338.01	19.06
338.22	19.12
338.431	19.23
338.642	19.31
338.852	19.1
339.063	18.93
339.273	19.41
339.484	19.93
339.694	19.71
339.905	19.63
340.115	19.79
340.326	19.49
340.536	20.04
340.746	19.92
340.957	20.01
341.167	20.08
341.378	20.46
341.588	20.14
341.799	19.94
342.009	20.12
342.219	20.33
342.43	20.24
342.64	20.17
342.85	19.77
343.061	19.68
343.271	19.63
343.481	19.65
343.691	19.78
343.902	19.99
344.112	19.6
344.322	19.51
344.532	19.43
344.743	19.31
344.953	19.74
345.163	19.76
345.373	19.68
345.583	19.69
345.793	19.63
346.004	19.62
346.214	19.41
346.424	19.7
346.634	19.75
346.844	19.51
347.054	19.71
347.264	19.33
347.474	19.2
347.684	19.5
347.894	19.38
348.104	19.33
348.314	19.12
348.524	19.36
348.734	19.16
348.944	19.16
349.154	19.39
349.364	19.31
349.574	19.51
349.784	19.66
349.994	19.41
350.204	19.1
350.413	18.75
350.623	19
350.833	18.53
351.043	18.8
351.253	18.78
351.463	18.63
351.672	18.43
351.882	18.34
352.092	18.24
352.302	18.32
352.511	18.73
352.721	18.91
352.931	18.46
353.141	18.76
353.35	18.55
353.56	18.49
353.77	18.51
353.979	18.65
354.189	18.56
354.399	18.53
354.608	18.24
354.818	17.88
355.027	17.91
355.237	17.91
355.447	17.74
355.656	18.03
355.866	18.12
356.075	18.05
356.285	17.99
356.494	17.86
356.704	17.86
356.913	18.01
357.123	17.99
357.332	18.08
357.542	18.02
357.751	18.22
357.96	18.04
358.17	18.1
358.379	18.17
358.589	18.22
358.798	18.31
359.007	18.24
359.217	18.14
359.426	18.09
359.635	17.83
359.845	18.06
360.054	17.95
360.263	17.74
360.472	17.66
360.682	17.57
360.891	17.63
361.1	17.53
361.309	17.37
361.519	17.37
361.728	17.45
361.937	17.55
362.146	17.51
362.355	17.37
362.564	17.55
362.774	17.48
362.983	17.44
363.192	17.21
363.401	17.35
363.61	17.51
363.819	17.52
364.028	17.48
364.237	17.69
364.446	17.47
364.655	17.48
364.864	17.29
365.073	17.4
365.282	17.35
365.491	17.48
365.7	17.41
365.909	17.25
366.118	17.33
366.327	17.35
366.536	17.39
366.745	17.42
366.954	17.39
367.162	17.5
367.371	17.09
367.58	17.01
367.789	16.93
367.998	16.89
368.207	16.88
368.415	16.72
368.624	16.44
368.833	16.04
369.042	16.12
369.25	16.23
369.459	16.18
369.668	16.57
369.877	16.86
370.085	16.74
370.294	16.83
370.503	17.06
370.711	17.1
370.92	17.56
371.129	17.62
371.337	17.74
371.546	17.52
371.754	17.62
371.963	17.7
372.171	17.33
372.38	17.3
372.589	17.17
372.797	16.94
373.006	17.02
373.214	16.74
373.423	16.58
373.631	16.38
373.84	16.62
374.048	16.53
374.256	16.44
374.465	16.45
374.673	16.57
374.882	16.75
375.09	16.94
375.298	17.05
375.507	16.93
375.715	17.1
375.923	17.06
376.132	17.11
376.34	16.98
376.548	16.69
376.757	16.94
376.965	16.7
377.173	16.48
377.381	16.31
377.59	16.16
377.798	16.39
378.006	16.28
378.214	16.35
378.423	16.31
378.631	16.25
378.839	16.32
379.047	16.34
379.255	16.64
379.463	16.74
379.671	16.74
379.879	16.81
380.088	16.8
380.296	16.94
380.504	16.77
380.712	16.6
380.92	16.69
381.128	16.73
381.336	16.72
381.544	16.54
381.752	16.55
381.96	16.66
382.168	16.46
382.376	16.34
382.584	16.14
382.791	16.35
382.999	16.26
383.207	16.32
383.415	16.49
383.623	16.4
383.831	16.62
384.039	16.63
384.247	16.51
384.454	16.4
384.662	16.37
384.87	16.35
385.078	16.33
385.285	16.55
385.493	16.59
385.701	16.44
385.909	16.57
386.116	16.24
386.324	16.2
386.532	16.3
386.739	16.36
386.947	16.43
387.155	16.32
387.362	16.44
387.57	16.37
387.778	16.24
387.985	16.26
388.193	16.15
388.4	16.39
388.608	16.33
388.816	16.35
389.023	16.27
389.231	16.16
389.438	16.39
389.646	16.25
389.853	16.18
390.061	16.23
390.268	16.16
390.475	16.29
390.683	16.24
390.89	16.14
391.098	16.26
391.305	16.48
391.512	16.44
391.72	16.11
391.927	16.04
392.135	16.01
392.342	16.03
392.549	16.16
392.756	16.07
392.964	16.1
393.171	16.19
393.378	16.03
393.586	16.08
393.793	16.28
394	16.66
394.207	16.63
394.414	16.76
394.622	16.68
394.829	16.74
395.036	16.71
395.243	16.67
395.45	16.55
395.657	16.55
395.864	16.5
396.072	16.2
396.279	16.1
396.486	16.14
396.693	16.16
396.9	16.24
397.107	16.12
397.314	16.21
397.521	16.22
397.728	16.52
397.935	16.63
398.142	16.56
398.349	16.86
398.556	16.81
398.763	16.98
398.97	17
399.177	16.93
399.383	16.99
399.59	16.84
399.797	16.72
400.004	16.53
400.211	16.33
400.418	16.24
400.625	16.25
400.831	16.18
401.038	16.24
401.245	15.94
401.452	16
401.658	15.81
401.865	15.91
402.072	16.11
402.279	16.18
402.485	16.44
402.692	16.62
402.899	16.55
403.105	16.73
403.312	16.77
403.519	16.95
403.725	16.9
403.932	17.14
404.138	17.06
404.345	17.07
404.552	17
404.758	16.87
404.965	16.79
405.171	16.78
405.378	16.73
405.584	16.56
405.791	16.52
405.997	16.58
406.204	16.55
406.41	16.77
406.617	16.68
406.823	16.77
407.029	16.77
407.236	16.85
407.442	16.96
407.649	17.06
407.855	17.04
408.061	17.2
408.268	17.2
408.474	17.31
408.68	17.17
408.887	17.2
409.093	17.24
409.299	17.25
409.505	17.25
409.712	17.26
409.918	17.22
410.124	17.36
410.33	17.38
410.537	17.29
410.743	17.41
410.949	17.43
411.155	17.47
411.361	17.36
411.567	17.34
411.773	17.31
411.98	17.43
412.186	17.5
412.392	17.53
412.598	17.53
412.804	17.64
413.01	17.42
413.216	17.34
413.422	17.5
413.628	17.48
413.834	17.63
414.04	17.75
414.246	17.61
414.452	17.5
414.658	17.38
414.864	17.37
415.07	17.62
415.275	17.64
415.481	17.83
415.687	17.71
415.893	17.77
416.099	17.88
416.305	17.79
416.511	17.69
416.716	17.67
416.922	17.72
417.128	17.75
417.334	17.72
417.539	17.66
417.745	17.54
417.951	17.56
418.157	17.51
418.362	17.38
418.568	17.42
418.774	17.46
418.979	17.48
419.185	17.47
419.391	17.51
419.596	17.54
419.802	17.64
420.008	17.67
420.213	17.65
420.419	17.71
420.624	17.83
420.83	17.92
421.035	17.85
421.241	17.87
421.446	17.87
421.652	17.85
421.857	17.82
422.063	17.75
422.268	17.74
422.474	17.74
422.679	17.73
422.885	17.6
423.09	17.53
423.295	17.64
423.501	17.69
423.706	17.71
423.911	17.69
424.117	17.63
424.322	17.68
424.527	17.69
424.733	17.66
424.938	17.72
425.143	17.76
425.349	17.8
425.554	17.82
425.759	17.85
425.964	17.86
426.169	17.94
426.375	17.97
426.58	17.9
426.785	17.89
426.99	18
427.195	17.98
427.4	18.04
427.605	18.03
427.811	18.04
428.016	18.01
428.221	17.87
428.426	17.84
428.631	17.78
428.836	17.85
429.041	18.04
429.246	18.03
429.451	18.14
429.656	18.09
429.861	18.15
430.066	18.18
430.271	18.23
430.476	18.34
430.681	18.37
430.886	18.4
431.09	18.43
431.295	18.38
431.5	18.46
431.705	18.33
431.91	18.37
432.115	18.31
432.32	18.36
432.524	18.34
432.729	18.39
432.934	18.39
433.139	18.43
433.343	18.54
433.548	18.52
433.753	18.44
433.958	18.53
434.162	18.61
434.367	18.65
434.572	18.62
434.776	18.63
434.981	18.69
435.186	18.73
435.39	18.75
435.595	18.79
435.799	18.81
436.004	18.85
436.209	18.82
436.413	18.72
436.618	18.73
436.822	18.65
437.027	18.6
437.231	18.54
437.436	18.44
437.64	18.44
437.845	18.33
438.049	18.26
438.253	18.29
438.458	18.33
438.662	18.42
438.867	18.47
439.071	18.61
439.275	18.73
439.48	18.69
439.684	18.79
439.888	18.86
440.093	18.85
440.297	18.89
440.501	18.96
440.706	18.87
440.91	18.94
441.114	18.89
441.318	18.9
441.523	18.84
441.727	18.84
441.931	18.81
442.135	18.73
442.339	18.79
442.543	18.76
442.748	18.7
442.952	18.78
443.156	18.69
443.36	18.69
443.564	18.61
443.768	18.6
443.972	18.73
444.176	18.71
444.38	18.85
444.584	18.81
444.788	18.87
444.992	18.9
445.196	18.92
445.4	18.88
445.604	18.95
445.808	18.95
446.012	18.97
446.216	18.94
446.42	18.87
446.624	18.79
446.828	18.77
447.032	18.69
447.235	18.68
447.439	18.65
447.643	18.69
447.847	18.7
448.051	18.73
448.254	18.69
448.458	18.66
448.662	18.76
448.866	18.79
449.069	18.87
449.273	18.98
449.477	19.01
449.681	19.03
449.884	19
450.088	18.92
450.292	18.92
450.495	19
450.699	19.03
450.902	18.99
451.106	18.99
451.31	18.95
451.513	18.83
451.717	18.83
451.92	18.84
452.124	18.83
452.327	18.93
452.531	18.97
452.734	18.95
452.938	19.08
453.141	19.13
453.345	19.07
453.548	19.13
453.752	19.23
453.955	19.15
454.158	19.16
454.362	19.26
454.565	19.23
454.769	19.12
454.972	19.08
455.175	18.9
455.379	18.95
455.582	18.99
455.785	18.95
455.988	18.89
456.192	18.92
456.395	18.83
456.598	18.72
456.801	18.65
457.005	18.74
457.208	18.87
457.411	18.82
457.614	18.82
457.817	18.92
458.021	18.93
458.224	18.9
458.427	18.95
458.63	18.98
458.833	19.04
459.036	19.11
459.239	19.1
459.442	18.96
459.645	19.03
459.848	18.99
460.051	18.89
460.254	18.81
460.457	18.92
460.66	18.98
460.863	18.94
461.066	18.89
461.269	18.78
461.472	18.73
461.675	18.84
461.878	18.86
462.081	18.88
462.284	19.03
462.486	19.17
462.689	19.09
462.892	19.03
463.095	19.2
463.298	19.32
463.5	19.3
463.703	19.34
463.906	19.27
464.109	19.21
464.311	19.13
464.514	18.96
464.717	18.96
464.92	18.99
465.122	19.04
465.325	18.91
465.528	18.85
465.73	18.93
465.933	18.84
466.135	18.81
466.338	18.89
466.541	18.94
466.743	18.95
466.946	18.94
467.148	18.99
467.351	18.94
467.553	18.98
467.756	19.05
467.958	19.02
468.161	19.03
468.363	19.18
468.566	19.11
468.768	19.14
468.971	19.17
469.173	19.13
469.375	19.06
469.578	19.01
469.78	18.97
469.983	18.8
470.185	18.88
470.387	19.02
470.59	19
470.792	18.99
470.994	18.97
471.196	18.95
471.399	19.01
471.601	18.95
471.803	18.98
472.005	19.08
472.208	19.2
472.41	19.27
472.612	19.25
472.814	19.23
473.016	19.22
473.218	19.18
473.421	19.3
473.623	19.24
473.825	19.4
474.027	19.37
474.229	19.38
474.431	19.4
474.633	19.27
474.835	19.27
475.037	19.18
475.239	19.3
475.441	19.38
475.643	19.29
475.845	19.36
476.047	19.3
476.249	19.28
476.451	19.33
476.653	19.29
476.855	19.31
477.057	19.36
477.258	19.37
477.46	19.37
477.662	19.4
477.864	19.48
478.066	19.35
478.268	19.39
478.469	19.38
478.671	19.26
478.873	19.34
479.075	19.32
479.276	19.18
479.478	19.27
479.68	19.27
479.882	19.23
480.083	19.1
480.285	19.23
480.487	19.2
480.688	19.28
480.89	19.32
481.091	19.27
481.293	19.28
481.495	19.35
481.696	19.31
481.898	19.27
482.099	19.34
482.301	19.41
482.502	19.36
482.704	19.36
482.905	19.29
483.107	19.28
483.308	19.25
483.51	19.23
483.711	19.19
483.913	19.18
484.114	19.19
484.315	19.17
484.517	19.13
484.718	19.12
484.92	19.09
485.121	19.16
485.322	19.17
485.524	19.19
485.725	19.25
485.926	19.28
486.127	19.29
486.329	19.3
486.53	19.3
486.731	19.31
486.932	19.35
487.134	19.4
487.335	19.37
487.536	19.36
487.737	19.36
487.938	19.32
488.139	19.36
488.341	19.38
488.542	19.38
488.743	19.34
488.944	19.37
489.145	19.37
489.346	19.32
489.547	19.3
489.748	19.31
489.949	19.32
490.15	19.39
490.351	19.32
490.552	19.36
490.753	19.36
490.954	19.39
491.155	19.38
491.356	19.41
491.557	19.44
491.758	19.45
491.959	19.46
492.159	19.47
492.36	19.49
492.561	19.52
492.762	19.53
492.963	19.51
493.164	19.53
493.364	19.52
493.565	19.44
493.766	19.42
493.967	19.48
494.167	19.49
494.368	19.55
494.569	19.52
494.769	19.61
494.97	19.65
495.171	19.68
495.371	19.66
495.572	19.74
495.773	19.79
495.973	19.84
496.174	19.87
496.375	19.89
496.575	19.83
496.776	19.89
496.976	19.89
497.177	19.79
497.377	19.85
497.578	19.9
497.778	19.91
497.979	20
498.179	19.99
498.38	19.99
498.58	20
498.78	20.05
498.981	19.99
499.181	19.97
499.382	20.02
499.582	20.08
499.782	20.2
499.983	20.2
500.183	20.18
500.383	20.24
500.584	20.17
500.784	20.25
500.984	20.26
501.184	20.32
501.385	20.36
501.585	20.3
501.785	20.28
501.985	20.15
502.185	20.08
502.386	20.03
502.586	19.98
502.786	20.04
502.986	20.04
503.186	20.1
503.386	20.15
503.586	20.07
503.786	20.19
503.987	20.17
504.187	20.25
504.387	20.35
504.587	20.39
504.787	20.48
504.987	20.54
505.187	20.51
505.387	20.45
505.587	20.49
505.786	20.66
505.986	20.66
506.186	20.75
506.386	20.64
506.586	20.65
506.786	20.75
506.986	20.66
507.186	20.68
507.386	20.79
507.585	20.9
507.785	20.84
507.985	20.71
508.185	20.71
508.384	20.69
508.584	20.77
508.784	20.73
508.984	20.63
509.183	20.75
509.383	20.77
509.583	20.77
509.782	20.77
509.982	20.85
510.182	20.9
510.381	20.98
510.581	21.01
510.781	21.02
510.98	21.07
511.18	21.16
511.379	21.14
511.579	21.23
511.778	21.18
511.978	21.13
512.177	21.08
512.377	21.12
512.576	21.15
512.776	21.15
512.975	21.25
513.175	21.33
513.374	21.38
513.573	21.42
513.773	21.36
513.972	21.46
514.172	21.56
514.371	21.63
514.57	21.68
514.77	21.66
514.969	21.76
515.168	21.74
515.367	21.72
515.567	21.74
515.766	21.77
515.965	21.91
516.164	21.9
516.364	21.93
516.563	22.03
516.762	22.09
516.961	22.1
517.16	22.14
517.359	22.21
517.559	22.27
517.758	22.36
517.957	22.38
518.156	22.4
518.355	22.46
518.554	22.5
518.753	22.5
518.952	22.55
519.151	22.66
519.35	22.66
519.549	22.69
519.748	22.71
519.947	22.71
520.146	22.82
520.345	22.81
520.544	22.83
520.743	22.83
520.942	22.9
521.141	22.9
521.339	22.94
521.538	23.05
521.737	23.15
521.936	23.24
522.135	23.31
522.333	23.32
522.532	23.44
522.731	23.51
522.93	23.61
523.129	23.69
523.327	23.79
523.526	23.84
523.725	23.85
523.923	23.96
524.122	24
524.321	24.02
524.519	24.08
524.718	24.08
524.917	24.16
525.115	24.26
525.314	24.32
525.512	24.31
525.711	24.34
525.909	24.29
526.108	24.33
526.306	24.32
526.505	24.38
526.703	24.38
526.902	24.43
527.1	24.49
527.299	24.49
527.497	24.5
527.696	24.54
527.894	24.57
528.092	24.68
528.291	24.68
528.489	24.72
528.688	24.77
528.886	24.85
529.084	24.86
529.283	24.84
529.481	24.85
529.679	24.89
529.877	24.92
530.076	24.96
530.274	24.95
530.472	25.02
530.67	25.09
530.869	25.12
531.067	25.14
531.265	25.21
531.463	25.32
531.661	25.43
531.859	25.48
532.057	25.54
532.255	25.56
532.454	25.6
532.652	25.64
532.85	25.7
533.048	25.76
533.246	25.86
533.444	25.94
533.642	25.93
533.84	26
534.038	26.03
534.236	26.08
534.434	26.14
534.632	26.2
534.83	26.2
535.027	26.25
535.225	26.32
535.423	26.34
535.621	26.33
535.819	26.47
536.017	26.46
536.215	26.49
536.412	26.53
536.61	26.62
536.808	26.69
537.006	26.81
537.203	26.82
537.401	26.85
537.599	26.86
537.797	26.95
537.994	26.96
538.192	27.05
538.39	27.2
538.587	27.32
538.785	27.35
538.983	27.45
539.18	27.52
539.378	27.66
539.575	27.76
539.773	27.86
539.97	27.85
540.168	27.96
540.366	28.02
540.563	28.01
540.761	27.97
540.958	28.06
541.155	28.1
541.353	28.08
541.55	28.08
541.748	28.12
541.945	28.15
542.143	28.16
542.34	28.18
542.537	28.23
542.735	28.28
542.932	28.43
543.129	28.49
543.327	28.57
543.524	28.74
543.721	28.85
543.919	28.93
544.116	29.02
544.313	29.28
544.51	29.36
544.708	29.47
544.905	29.61
545.102	29.72
545.299	29.86
545.496	30.01
545.693	30.01
545.891	30.06
546.088	30.02
546.285	30.1
546.482	30
546.679	29.94
546.876	29.87
547.073	29.84
547.27	29.73
547.467	29.63
547.664	29.45
547.861	29.38
548.058	29.37
548.255	29.35
548.452	29.21
548.649	29.15
548.846	29.19
549.043	29.21
549.24	29.17
549.437	29.05
549.633	28.97
549.83	29.03
550.027	28.96
550.224	28.86
550.421	28.78
550.618	28.72
550.814	28.75
551.011	28.63
551.208	28.59
551.405	28.57
551.601	28.58
551.798	28.57
551.995	28.43
552.191	28.37
552.388	28.41
552.585	28.38
552.781	28.41
552.978	28.4
553.175	28.56
553.371	28.49
553.568	28.5
553.764	28.51
553.961	28.51
554.157	28.61
554.354	28.65
554.55	28.53
554.747	28.69
554.943	28.68
555.14	28.67
555.336	28.55
555.533	28.62
555.729	28.61
555.926	28.66
556.122	28.73
556.318	28.6
556.515	28.7
556.711	28.78
556.907	28.65
557.104	28.59
557.3	28.66
557.496	28.57
557.693	28.46
557.889	28.45
558.085	28.47
558.281	28.34
558.478	28.55
558.674	28.4
558.87	28.41
559.066	28.5
559.262	28.62
559.459	28.57
559.655	28.67
559.851	28.72
560.047	28.79
560.243	28.75
560.439	28.88
560.635	28.75
560.831	28.83
561.027	28.85
561.223	28.83
561.419	28.74
561.615	28.75
561.811	28.82
562.007	28.87
562.203	28.89
562.399	28.85
562.595	28.71
562.791	28.71
562.987	28.78
563.183	28.78
563.379	28.84
563.575	28.91
563.771	28.97
563.966	28.99
564.162	29.11
564.358	28.99
564.554	29.02
564.75	29.14
564.945	29.22
565.141	29.15
565.337	29.14
565.533	29.15
565.728	29.03
565.924	29.02
566.12	28.99
566.315	28.98
566.511	29.11
566.707	29.17
566.902	29.17
567.098	29.16
567.293	29.23
567.489	29.22
567.684	29.13
567.88	29.23
568.076	29.2
568.271	29.24
568.467	29.18
568.662	29.08
568.858	28.97
569.053	28.94
569.248	28.9
569.444	28.78
569.639	28.84
569.835	28.91
570.03	28.82
570.225	28.89
570.421	28.8
570.616	28.82
570.812	28.9
571.007	28.93
571.202	28.96
571.397	29.04
571.593	29.15
571.788	29.15
571.983	29.13
572.178	29.18
572.374	29.16
572.569	29.21
572.764	29.14
572.959	29.13
573.154	29.11
573.35	29.1
573.545	29.18
573.74	29.2
573.935	29.17
574.13	29.17
574.325	29.22
574.52	29.27
574.715	29.35
574.91	29.47
575.105	29.5
575.3	29.6
575.495	29.55
575.69	29.51
575.885	29.53
576.08	29.52
576.275	29.63
576.47	29.64
576.665	29.78
576.86	29.75
577.055	29.77
577.25	29.77
577.444	29.77
577.639	29.91
577.834	29.95
578.029	30.13
578.224	30.16
578.418	30.07
578.613	30.21
578.808	30.12
579.003	30.07
579.197	30.07
579.392	30.05
579.587	30.13
579.781	30.12
579.976	30.1
580.171	30.06
580.365	30.17
580.56	30.16
580.755	30.15
580.949	30.13
581.144	30.17
581.338	30.27
581.533	30.38
581.727	30.4
581.922	30.34
582.116	30.31
582.311	30.36
582.505	30.32
582.7	30.44
582.894	30.37
583.089	30.33
583.283	30.38
583.478	30.18
583.672	30.19
583.866	30.18
584.061	30.22
584.255	30.32
584.449	30.19
584.644	30.22
584.838	30.23
585.032	30.31
585.226	30.46
585.421	30.61
585.615	30.76
585.809	30.85
586.003	30.89
586.198	31.11
586.392	31.12
586.586	31.15
586.78	31.17
586.974	31.15
587.168	31.06
587.363	30.95
587.557	30.81
587.751	30.86
587.945	30.77
588.139	30.68
588.333	30.61
588.527	30.67
588.721	30.69
588.915	30.67
589.109	30.59
589.303	30.64
589.497	30.72
589.691	30.61
589.885	30.57
590.079	30.67
590.273	30.73
590.466	30.67
590.66	30.61
590.854	30.63
591.048	30.63
591.242	30.97
591.436	31.04
591.629	30.98
591.823	31.13
592.017	31.37
592.211	31.26
592.404	31.25
592.598	31.21
592.792	31.24
592.986	31.24
593.179	31.42
593.373	31.21
593.567	31.25
593.76	31.35
593.954	31.28
594.147	31.05
594.341	30.96
594.535	30.92
594.728	31.11
594.922	31.07
595.115	30.9
595.309	30.64
595.502	30.67
595.696	30.59
595.889	30.46
596.083	30.55
596.276	30.56
596.47	30.64
596.663	30.71
596.856	30.7
597.05	30.76
597.243	30.84
597.437	30.93
597.63	30.98
597.823	30.97
598.017	31.04
598.21	31.19
598.403	31.31
598.596	31.35
598.79	31.4
598.983	31.36
599.176	31.37
599.369	31.46
599.563	31.49
599.756	31.52
599.949	31.62
600.142	31.67
600.335	31.6
600.528	31.55
600.722	31.56
600.915	31.5
601.108	31.54
601.301	31.6
601.494	31.6
601.687	31.53
601.88	31.51
602.073	31.44
602.266	31.45
602.459	31.31
602.652	31.28
602.845	31.3
603.038	31.22
603.231	31.11
603.424	31.03
603.617	31.05
603.809	31.11
604.002	31.04
604.195	31.13
604.388	31.17
604.581	31.32
604.774	31.38
604.966	31.42
605.159	31.52
605.352	31.64
605.545	31.69
605.737	31.68
605.93	31.91
606.123	32.06
606.316	32.09
606.508	32.1
606.701	32.17
606.894	32.25
607.086	32.26
607.279	32.55
607.471	32.66
607.664	32.91
607.857	33.07
608.049	33.21
608.242	33.61
608.434	34.03
608.627	34.64
608.819	35.13
609.012	35.88
609.204	36.75
609.397	37.53
609.589	38.58
609.782	39.6
609.974	40.72
610.166	41.9
610.359	42.83
610.551	44.03
610.743	44.94
610.936	45.88
611.128	46.35
611.32	46.58
611.513	46.69
611.705	46.67
611.897	46.38
612.09	46.09
612.282	45.64
612.474	45.26
612.666	44.49
612.858	43.86
613.051	43.18
613.243	42.65
613.435	42.31
613.627	41.98
613.819	41.61
614.011	41.15
614.203	40.84
614.395	40.38
614.588	39.78
614.78	39.32
614.972	38.81
615.164	38.3
615.356	37.92
615.548	37.39
615.74	36.9
615.932	36.53
616.124	36.26
616.315	35.82
616.507	35.41
616.699	35.07
616.891	34.71
617.083	34.4
617.275	34.13
617.467	34.08
617.659	34.12
617.85	34.12
618.042	33.91
618.234	33.76
618.426	33.86
618.618	33.8
618.809	33.77
619.001	33.8
619.193	33.89
619.384	33.89
619.576	33.83
619.768	33.63
619.959	33.6
620.151	33.67
620.343	33.85
620.534	33.63
620.726	33.64
620.917	33.86
621.109	33.81
621.301	33.74
621.492	33.93
621.684	33.99
621.875	34.15
622.067	34.11
622.258	34.03
622.45	33.97
622.641	34.15
622.832	34.09
623.024	33.97
623.215	34.14
623.407	34
623.598	33.83
623.789	33.77
623.981	33.74
624.172	33.83
624.363	33.9
624.555	33.94
624.746	33.86
624.937	33.89
625.129	33.94
625.32	33.93
625.511	34.13
625.702	34.31
625.893	34.29
626.085	34.26
626.276	34.22
626.467	34.15
626.658	34.11
626.849	34.13
627.04	34.14
627.231	34.07
627.422	34.05
627.614	34.04
627.805	33.89
627.996	33.81
628.187	33.77
628.378	33.78
628.569	33.97
628.76	33.98
628.951	33.98
629.142	34.24
629.332	34.42
629.523	34.5
629.714	34.72
629.905	34.94
630.096	34.96
630.287	35.29
630.478	35.39
630.669	35.34
630.859	35.38
631.05	35.35
631.241	35.1
631.432	34.98
631.623	34.91
631.813	34.54
632.004	34.23
632.195	34.1
632.385	33.8
632.576	33.57
632.767	33.37
632.957	33.28
633.148	33.19
633.339	33.02
633.529	32.96
633.72	32.93
633.91	32.99
634.101	33.1
634.292	33.07
634.482	32.88
634.673	32.79
634.863	32.82
635.054	32.86
635.244	32.74
635.435	32.68
635.625	32.75
635.815	32.67
636.006	32.76
636.196	32.72
636.387	32.79
636.577	32.98
636.767	33.01
636.958	32.88
637.148	32.77
637.338	32.89
637.529	33.22
637.719	33.18
637.909	33.24
638.099	33.12
638.29	33.06
638.48	33.03
638.67	32.82
638.86	32.98
639.05	33.25
639.241	33.07
639.431	32.96
639.621	32.79
639.811	32.63
640.001	32.72
640.191	32.64
640.381	32.77
640.571	32.68
640.761	33.07
640.951	33.14
641.141	33
641.331	33.24
641.521	33.32
641.711	33.39
641.901	33.47
642.091	33.4
642.281	33.6
642.471	33.72
642.661	33.84
642.851	33.54
643.041	33.39
643.231	33.44
643.42	33.55
643.61	33.51
643.8	33.67
643.99	33.81
644.18	33.82
644.369	33.68
644.559	33.5
644.749	33.54
644.939	33.55
645.128	33.76
645.318	33.81
645.508	33.83
645.697	33.87
645.887	33.63
646.076	33.35
646.266	33.35
646.456	33.44
646.645	33.42
646.835	33.38
647.024	33.55
647.214	33.53
647.403	33.63
647.593	33.51
647.782	33.79
647.972	33.91
648.161	34.17
648.351	34.28
648.54	34.4
648.73	34.51
648.919	34.68
649.108	34.89
649.298	34.82
649.487	34.76
649.677	34.93
649.866	34.88
650.055	35.03
650.244	35.16
650.434	35.23
650.623	35.15
650.812	35.21
651.002	35.27
651.191	35.19
651.38	35.2
651.569	35.13
651.758	35.22
651.947	35.5
652.137	35.49
652.326	35.29
652.515	35.15
652.704	35.34
652.893	35.38
653.082	35.34
653.271	35.34
653.46	35.43
653.649	35.66
653.838	35.39
654.027	35.11
654.216	34.79
654.405	35.01
654.594	34.79
654.783	34.52
654.972	34.38
655.161	34.42
655.35	34.34
655.539	34.26
655.728	34.02
655.916	34.21
656.105	34.33
656.294	34.57
656.483	34.46
656.672	34.69
656.86	34.88
657.049	35.01
657.238	34.89
657.427	34.84
657.615	34.75
657.804	34.89
657.993	34.61
658.181	34.36
658.37	34.39
658.559	34.37
658.747	34.49
658.936	34.32
659.125	34.13
659.313	34.32
659.502	34.27
659.69	34.32
659.879	34.32
660.067	34.61
660.256	34.53
660.444	34.74
660.633	34.79
660.821	34.62
661.01	34.63
661.198	35
661.387	34.83
661.575	35.03
661.763	35.28
661.952	35.17
662.14	35.17
662.328	35.49
662.517	35.42
662.705	35.51
662.893	35.72
663.082	36.08
663.27	35.96
663.458	36.16
663.646	36.51
663.834	36.52
664.023	36.68
664.211	36.74
664.399	36.64
664.587	36.65
664.775	36.61
664.963	36.36
665.152	36.08
665.34	35.92
665.528	35.88
665.716	35.45
665.904	35.2
666.092	35.12
666.28	35.08
666.468	34.98
666.656	34.99
666.844	34.8
667.032	35.29
667.22	35.42
667.408	35.67
667.596	35.52
667.784	35.88
667.971	36.02
668.159	36.03
668.347	36.34
668.535	36.61
668.723	36.58
668.911	36.72
669.098	36.36
669.286	36.33
669.474	36.27
669.662	36.56
669.849	36.43
670.037	36.49
670.225	36.54
670.413	36.1
670.6	36.08
670.788	35.85
670.976	35.72
671.163	35.84
671.351	36.17
671.538	35.76
671.726	35.58
671.913	35.58
672.101	35.35
672.289	35.4
672.476	35.42
672.664	35.37
672.851	35.49
673.039	35.68
673.226	35.55
673.413	35.4
673.601	35.69
673.788	35.84
673.976	35.41
674.163	35.61
674.35	35.23
674.538	35.6
674.725	35.71
674.912	35.78
675.1	35.8
675.287	35.79
675.474	35.64
675.662	36.02
675.849	35.73
676.036	36.06
676.223	35.95
676.411	36.27
676.598	36.33
676.785	36.06
676.972	36.24
677.159	36.34
677.346	36.58
677.533	36.67
677.721	36.31
677.908	36.54
678.095	36.65
678.282	36.71
678.469	36.58
678.656	36.32
678.843	36.47
679.03	36.61
679.217	36.47
679.404	36.51
679.591	36.38
679.778	36.87
679.964	36.99
680.151	36.99
680.338	37.12
680.525	37.27
680.712	37.34
680.899	37.34
681.086	36.99
681.272	36.99
681.459	37.08
681.646	37.45
681.833	37.39
682.02	37.42
682.206	37.23
682.393	37.14
682.58	37.31
682.766	37.44
682.953	37.33
683.14	37.42
683.326	37.53
683.513	37.23
683.7	37.12
683.886	36.88
684.073	36.91
684.259	37.19
684.446	37.34
684.632	37.39
684.819	37.17
685.005	37.2
685.192	37.31
685.378	37.36
685.565	37.77
685.751	37.71
685.938	37.79
686.124	37.77
686.31	37.57
686.497	37.59
686.683	37.35
686.87	37.55
687.056	37.73
687.242	37.77
687.429	38.03
687.615	38.03
687.801	38.27
687.987	38.47
688.174	38.3
688.36	38.6
688.546	38.83
688.732	38.86
688.918	38.71
689.105	38.91
689.291	38.97
689.477	39.02
689.663	38.83
689.849	38.65
690.035	38.64
690.221	38.88
690.407	38.46
690.593	38.16
690.779	38.04
690.965	38.27
691.151	38.09
691.337	38.03
691.523	38.06
691.709	38.06
691.895	38.01
692.081	37.76
692.267	37.57
692.453	38.03
692.639	38.01
692.825	38.42
693.011	38.71
693.196	38.82
693.382	38.97
693.568	38.67
693.754	38.93
693.94	39.03
694.125	39.2
694.311	39.3
694.497	39.15
694.682	38.99
694.868	38.75
695.054	38.44
695.239	38.36
695.425	38.38
695.611	38.44
695.796	38.1
695.982	38.11
696.168	38.03
696.353	37.67
696.539	37.38
696.724	37.31
696.91	37.25
697.095	37.32
697.281	37.43
697.466	37.31
697.652	37.37
697.837	37.24
698.023	37.23
698.208	37.2
698.393	37.34
698.579	37.7
698.764	37.78
698.949	37.91
699.135	37.84
699.32	37.58
699.505	37.54
699.691	37.7
699.876	37.89
700.061	37.71
700.246	37.59
700.432	37.84
700.617	37.89
700.802	37.92
700.987	37.93
701.172	37.93
701.358	38.07
701.543	38.37
701.728	38.56
701.913	38.92
702.098	39.36
702.283	39.75
702.468	39.57
702.653	39.24
702.838	39.57
703.023	39.97
703.208	40.35
703.393	40.67
703.578	40.53
703.763	40.29
703.948	40.32
704.133	40.24
704.318	40.35
704.503	40.69
704.688	41.4
704.873	41.25
705.057	41.16
705.242	41.16
705.427	41.25
705.612	41.48
705.797	41.4
705.981	41.58
706.166	41.94
706.351	42.19
706.536	42.42
706.72	42.22
706.905	42.87
707.09	43.26
707.274	43.35
707.459	43.72
707.644	44.13
707.828	44.43
708.013	44.3
708.197	44.44
708.382	44.59
708.567	44.71
708.751	44.56
708.936	44.04
709.12	43.59
709.305	43.5
709.489	43.36
709.673	42.84
709.858	42.8
710.042	42.66
710.227	42.4
710.411	42.27
710.596	41.86
710.78	42.15
710.964	42.52
711.149	42.27
711.333	42.34
711.517	42.16
711.702	42.43
711.886	42.19
712.07	42.28
712.254	42
712.438	41.4
712.623	41.37
712.807	41.18
712.991	40.88
713.175	41.22
713.359	41.08
713.544	40.54
713.728	39.99
713.912	39.82
714.096	39.55
714.28	39.44
714.464	39.31
714.648	39.03
714.832	38.44
715.016	38.63
715.2	38.12
715.384	38.14
715.568	38.45
715.752	38.3
715.936	38.52
716.12	38.48
716.304	38.55
716.488	38.81
716.671	38.8
716.855	38.96
717.039	38.34
717.223	38.66
717.407	38.41
717.59	38.55
717.774	38.72
717.958	38.42
718.142	38.68
718.325	38.86
718.509	39.06
718.693	39.08
718.877	39.15
719.06	39.58
719.244	39.48
719.428	39.72
719.611	39.81
719.795	40.44
719.978	40.23
720.162	40.41
720.345	40.12
720.529	40.1
720.713	40.02
720.896	40.46
721.08	40.29
721.263	40.45
721.446	40.04
721.63	39.97
721.813	39.69
721.997	39.93
722.18	39.3
722.364	39.03
722.547	39.09
722.73	39.27
722.914	39.03
723.097	39.24
723.28	39.03
723.464	39.14
723.647	38.61
723.83	38.73
724.013	39.28
724.197	39.25
724.38	39.64
724.563	39.54
724.746	39.58
724.929	39.7
725.112	39.44
725.296	39.44
725.479	39.42
725.662	40.06
725.845	39.89
726.028	39.5
726.211	40.31
726.394	40.44
726.577	40.18
726.76	40.85
726.943	40.59
727.126	40.4
727.309	40.63
727.492	40.83
727.675	40.54
727.858	40.07
728.041	40.29
728.224	39.42
728.407	39.57
728.589	39.74
728.772	39.34
728.955	39.43
729.138	39.39
729.321	39.03
729.503	38.84
729.686	38.79
729.869	39.33
730.052	39.08
730.234	39.37
730.417	38.73
730.6	38.75
730.782	38.61
730.965	38.69
731.148	39.26
731.33	39.34
731.513	39.44
731.695	39.67
731.878	39.84
732.061	39.97
732.243	39.86
732.426	40.55
732.608	40.78
732.791	40.84
732.973	41.01
733.156	40.88
733.338	40.74
733.52	40.82
733.703	41.11
733.885	40.59
734.068	40.43
734.25	40.38
734.432	40.05
734.615	39.58
734.797	39.58
734.979	39.47
735.162	39.75
735.344	40.41
735.526	40.75
735.708	40.49
735.891	40.64
736.073	40.95
736.255	41.5
736.437	41.61
736.619	42.36
736.802	42.67
736.984	42.51
737.166	42.5
737.348	42.43
737.53	42.14
737.712	41.93
737.894	42.26
738.076	42.03
738.258	41.67
738.44	41.51
738.622	41.1
738.804	40.93
738.986	40.81
739.168	40.67
739.35	40.47
739.532	40.28
739.714	40.26
739.896	39.66
740.078	39.64
740.259	39.71
740.441	39.5
740.623	39.56
740.805	39.6
740.987	39.52
741.168	39.54
741.35	39.64
741.532	40.28
741.714	40.28
741.895	40.42
742.077	40.49
742.259	40.9
742.44	41.42
742.622	41.51
742.804	41.24
742.985	41.36
743.167	41.71
743.348	41.72
743.53	41.62
743.711	41.99
743.893	41.77
744.075	41.66
744.256	41.31
744.438	40.99
744.619	41.32
744.8	41.21
744.982	41.42
745.163	40.7
745.345	40.41
745.526	40.33
745.707	40.5
745.889	41.08
746.07	40.72
746.252	40.61
746.433	41.48
746.614	42
746.795	42.12
746.977	42.19
747.158	42.16
747.339	42.46
747.52	42.27
747.702	41.99
747.883	41.68
748.064	42.49
748.245	42.56
748.426	41.83
748.607	40.86
748.788	41.41
748.97	41.5
749.151	41.27
749.332	40.94
749.513	40.67
749.694	40.73
749.875	41.17
750.056	41.33
750.237	41.3
750.418	41.58
750.599	40.82
750.78	40.49
750.96	40.62
751.141	40.52
751.322	40.78
751.503	40.95
751.684	40.52
751.865	40.16
752.046	39.66
752.226	39.52
752.407	39.39
752.588	40.39
752.769	40.62
752.949	39.87
753.13	40.65
753.311	41.07
753.492	40.62
753.672	40.79
753.853	40.77
754.034	40.66
754.214	40.48
754.395	40.28
754.575	39.67
754.756	39.64
754.937	40
755.117	39.66
755.298	39.72
755.478	40.19
755.659	40.26
755.839	40.62
756.02	40.77
756.2	41.28
756.381	41.17
756.561	41.36
756.741	40.78
756.922	40.85
757.102	41.07
757.283	40.52
757.463	39.88
757.643	39.79
757.823	40.4
758.004	40.18
758.184	39.56
758.364	39.78
758.545	39.51
758.725	39.18
758.905	39.69
759.085	39.53
759.265	39.6
759.446	39.8
759.626	39.67
759.806	39.06
759.986	38.96
760.166	39.69
760.346	40.24
760.526	40.57
760.706	41.07
760.886	40.04
761.066	39.92
761.246	39.98
761.426	40.3
761.606	40.64
761.786	40.31
761.966	40.87
762.146	40.77
762.326	40.4
762.506	40.38
762.686	40.56
762.866	40.63
763.046	41.13
763.225	40.73
763.405	40.96
763.585	40.48
763.765	40.5
763.945	40.49
764.124	40.55
764.304	40.38
764.484	40.23
764.664	39.85
764.843	39.99
765.023	39.97
765.203	40.25
765.382	39.96
765.562	40.2
765.741	40.41
765.921	39.87
766.101	39.57
766.28	39.58
766.46	39.92
766.639	40.01
766.819	40.32
766.998	39.69
767.178	39.62
767.357	40.06
767.537	40.48
767.716	40.31
767.896	40.96
768.075	40.7
768.254	40.4
768.434	40.15
768.613	39.65
768.792	39.32
768.972	39.83
769.151	39.79
769.33	39.3
769.51	38.72
769.689	38.18
769.868	38.03
770.047	38.24
770.226	38.78
770.406	39.86
770.585	41.05
770.764	42.02
770.943	41.04
771.122	40.97
771.301	40.99
771.48	41.78
771.66	42.49
771.839	41.95
772.018	41.71
772.197	41.51
772.376	41.09
772.555	40.8
772.734	40.56
772.913	40.4
773.092	40.52
773.271	39.97
773.449	39.32
773.628	39.26
773.807	39.64
773.986	39.78
774.165	40.1
774.344	39.78
774.523	39.23
774.701	38.88
774.88	39.75
775.059	40
775.238	41.66
775.417	42.39
775.595	42.95
775.774	42.61
775.953	42.3
776.131	41.92
776.31	41.79
776.489	43.02
776.667	42.76
776.846	42.82
777.025	43.04
777.203	41.15
777.382	40.78
777.56	40.97
777.739	41.03
777.917	41.54
778.096	42.45
778.274	42.14
778.453	41.22
778.631	41.02
778.81	40.37
778.988	40.82
779.166	42.02
779.345	41.91
779.523	41.9
779.702	42.09
779.88	42.4
780.058	42.2
780.237	42.85
780.415	42.91
780.593	43.68
780.771	44.57
780.95	43.75
781.128	43.05
781.306	43.53
781.484	42.88
781.662	42.31
781.841	41.53
782.019	41.04
782.197	40.18
782.375	41.1
782.553	39.66
782.731	39.23
782.909	40.13
783.087	40.27
783.265	39.66
783.443	39.4
783.621	39.68
783.799	40.24
783.977	38.98
784.155	38.61
784.333	37.16
784.511	37.47
784.689	37.37
784.867	36.11
785.045	35.69
785.223	36.41
785.4	37.32
785.578	39.29
785.756	39.58
785.934	40.22
786.112	41.17
786.289	41.75
786.467	42.05
786.645	42.56
786.823	43.39
787	43.77
787.178	43.56
787.356	43.66
787.533	41.39
787.711	40.3
787.889	40.95
788.066	41.31
788.244	41.65
788.421	41.29
788.599	40.45
788.776	39.46
788.954	39.13
789.131	38.5
789.309	39
789.486	39.47
789.664	39.98
789.841	39.97
790.019	39.26
790.196	39.01
790.373	40.36
790.551	41.52
790.728	42.5
790.906	43.07
791.083	44.41
791.26	42.28
791.437	42.28
791.615	42.13
791.792	41.89
791.969	41.12
792.146	40.73
792.324	41.08
792.501	40.29
792.678	40.21
792.855	40.13
793.032	39.15
793.209	39.98
793.387	39.84
793.564	39.2
793.741	38.96
793.918	39.02
794.095	38.61
794.272	38.13
794.449	38.55
794.626	37.84
794.803	36.74
794.98	36.45
795.157	36.74
795.334	37.06
795.511	37.8
795.688	37.58
795.864	38.23
796.041	38.88
796.218	38.09
796.395	37.08
796.572	36.95
796.749	38.56
796.925	38.6
797.102	38.77
797.279	38.25
797.456	38.84
797.632	38.73
797.809	38.54
797.986	38.3
798.162	38.86
798.339	38.56
798.516	38.78
798.692	36.76
798.869	36.84
799.046	36.27
799.222	37.13
799.399	36.98
799.575	36.83
799.752	37.2
799.928	38.16
800.105	36.8
800.281	37.61
800.458	37.21
800.634	37.65
800.811	37.53
800.987	37.29
801.163	36.07
801.34	35.61
801.516	36.72
801.692	35.64
801.869	34.03
802.045	35.4
802.221	35.7
802.398	36.46
802.574	37.27
802.75	37.74
802.926	38.05
803.103	39.53
803.279	39.49
803.455	39.18
803.631	41
803.807	41.41
803.983	40.34
804.16	39.92
804.336	39.28
804.512	39.24
804.688	38.99
804.864	39.19
805.04	39.07
805.216	39.93
805.392	39.92
805.568	38.64
805.744	38.7
805.92	39.1
806.096	38.6
806.272	38.84
806.448	39.3
806.623	40.02
806.799	38.98
806.975	37.84
807.151	36.49
807.327	37.07
807.503	36.79
807.678	36.37
807.854	35.84
808.03	37.07
808.206	38.33
808.381	36.79
808.557	35.52
808.733	36.27
808.908	36.87
809.084	36.76
809.26	35.54
809.435	35.98
809.611	35.98
809.787	36.63
809.962	37.01
810.138	35.8
810.313	36.27
810.489	37.14
810.664	36.51
810.84	35.47
811.015	36.88
811.191	37.17
811.366	37.31
811.542	38.1
811.717	38.41
811.892	37.76
812.068	38.41
812.243	37.21
812.419	37.14
812.594	37.59
812.769	36.44
812.944	35.42
813.12	34.47
813.295	34.13
813.47	33.53
813.645	32.76
813.821	31.94
813.996	30.35
814.171	31.74
814.346	30.97
814.521	30.77
814.697	32.27
814.872	31.76
815.047	31.55
815.222	31.39
815.397	30.18
815.572	31.28
815.747	31.62
815.922	32.5
816.097	32.32
816.272	31.37
816.447	30.73
816.622	29.29
816.797	30.09
816.972	31.71
817.147	32.12
817.322	33.64
817.496	34.12
817.671	33.65
817.846	33.52
818.021	33.7
818.196	34.9
818.371	35.38
818.545	36.68
818.72	36.41
818.895	35.55
819.069	35.09
819.244	35.11
819.419	33.93
819.594	34.09
819.768	33.65
819.943	33.85
820.117	33.12
820.292	33.75
820.467	33.84
820.641	33.73
820.816	34.16
820.99	34.27
821.165	34.02
821.339	34.21
821.514	34.37
821.688	34.25
821.863	34.21
822.037	34.13
822.212	33.89
822.386	34.04
822.56	34.23
822.735	34.23
822.909	34.21
823.084	34.32
823.258	34.22
823.432	34.23
823.606	34.22
823.781	34.33
823.955	34.61
824.129	34.73
824.303	34.57
824.478	34.29
824.652	34.26
824.826	34.51
825	34.42
825.174	34.44
825.348	34.27
825.523	34.32
825.697	34.23
825.871	33.99
826.045	34.14
826.219	34
826.393	34.45
826.567	34.27
826.741	34.18
826.915	34.16
827.089	34.18
827.263	34.58
827.437	35.01
827.611	35.03
827.784	35.02
827.958	35.12
828.132	35.11
828.306	34.84
828.48	35.35
828.654	35.17
828.827	35.41
829.001	35.64
829.175	35.35
829.349	35.12
829.522	34.4
829.696	34.1
829.87	33.41
830.044	32.93
830.217	32.98
830.391	31.46
830.565	30.77
830.738	29.72
830.912	29.26
831.085	28.97
831.259	28.78
831.432	29.25
831.606	29.85
831.779	29.92
831.953	30.99
832.126	30
832.3	29.93
832.473	30.41
832.647	31.2
832.82	29.98
832.994	29.26
833.167	29.31
833.34	29.9
833.514	30.32
833.687	30.32
833.86	30.55
834.034	31.17
834.207	31.45
834.38	30.89
834.553	30.52
834.727	31.06
834.9	31.92
835.073	31.84
835.246	31.3
835.419	30.59
835.593	31
835.766	30.16
835.939	29.76
836.112	29.67
836.285	29.92
836.458	30.57
836.631	31.07
836.804	30.87
836.977	30.76
837.15	31.17
837.323	32.15
837.496	32.65
837.669	33.61
837.842	34.17
838.015	32.82
838.188	33.94
838.361	33.23
838.533	34.09
838.706	34.19
838.879	33.03
839.052	32.4
839.225	31.9
839.398	28.14
839.57	26.67
839.743	25.63
839.916	28.26
840.088	28.92
840.261	29.49
840.434	28.43
840.607	29.07
840.779	31.42
840.952	32.51
841.124	32.25
841.297	34.39
841.47	36.85
841.642	38.61
841.815	38.1
841.987	37.44
842.16	36.5
842.332	36.73
842.505	35.6
842.677	34.46
842.85	32.26
843.022	32.12
843.194	32.86
843.367	30.03
843.539	27.7
843.712	26.07
843.884	23.12
844.056	26.58
844.229	25.43
844.401	25.53
844.573	24.6
844.745	25.02
844.918	25.32
845.09	28.72
845.262	31.87
845.434	35.54
845.606	37.1
845.779	40.76
845.951	35.91
846.123	36.64
846.295	35.24
846.467	34.48
846.639	35
846.811	37.97
846.983	34.98
847.155	32.91
847.327	32.17
847.499	30.52
847.671	31.71
847.843	35.22
848.015	35.58
848.187	36.65
848.359	42.73
848.531	42.74
848.703	39.54
848.875	34.89
849.047	34.04
849.218	33
849.39	32.15
849.562	30.56
849.734	31.13
849.905	30.08
850.077	29.88
850.249	25.12
850.421	24.44
850.592	25.01
850.764	29.55
850.936	27.9
851.107	26.53
851.279	27.07
851.451	24.82
851.622	23.85
851.794	25.91
851.965	25.77
852.137	27.37
852.308	30.16
852.48	31.96
852.651	26.95
852.823	29.23
852.994	27.31
853.166	29.38
853.337	30.66
853.509	28.43
853.68	25.53
853.851	26.4
854.023	23.71
854.194	20.04
854.365	22.12
854.537	24.84
854.708	22.78
854.879	24.92
855.05	24.47
855.222	22.35
855.393	24.61
855.564	24.34
855.735	21.04
855.906	23.46
856.078	24.93
856.249	15.96
856.42	19.96
856.591	23.69
856.762	22.6
856.933	22.9
857.104	24.31
857.275	25.03
857.446	30.01
857.617	33.83
857.788	35.1
857.959	34.08
858.13	39.27
858.301	34.99
858.472	30.58
858.643	27.96
858.814	24.38
858.985	23.32
859.155	20.7
859.326	17.78
859.497	21.34
859.668	17.51
859.839	20.12
860.009	20.38
860.18	21.86
860.351	24.81
860.522	29.28
860.692	30.39
860.863	30.51
861.034	32.06
861.204	32.32
861.375	28.88
861.546	32.43
861.716	33.91
861.887	31.64
862.057	32.64
862.228	30.36
862.398	32.03
862.569	30.68
862.739	33.03
862.91	34.98
863.08	34.77
863.251	32.95
863.421	25.49
863.592	21.33
863.762	22.77
863.932	20.23
864.103	23.39
864.273	16.37
864.443	18.82
864.614	19.05
864.784	14.61
864.954	16.72
865.125	15.5
865.295	17.56
865.465	20.73
865.635	20.15
865.805	23.93
865.976	24.66
866.146	27.28
866.316	29.24
866.486	27.11
866.656	31.71
866.826	31.14
866.996	34
867.166	36.85
867.336	37.24
867.506	36
867.676	31.1
867.846	28.18
868.016	31.33
868.186	31.58
868.356	33.13
868.526	30.17
868.696	26.7
868.866	29.36
869.036	28.18
869.206	27.39
869.376	26.87
869.545	28.55
869.715	29.22
869.885	27.24
870.055	22.72
870.224	20.14
870.394	20.78
870.564	20.46
870.734	17.86
870.903	16.99
871.073	17.05
871.243	19.89
871.412	20.42
871.582	21.76
871.751	21.35
871.921	24.46
872.091	24.44
872.26	25.18
872.43	27.97
872.599	28.06
872.769	29.65
872.938	29.8
873.108	30.46
873.277	29.06
873.446	28.24
873.616	27.45
873.785	31.34
873.955	33.61
874.124	29.9
874.293	23.8
874.463	24.35
874.632	22.45
874.801	18.67
874.971	17.25
875.14	17.37
875.309	19.4
875.478	19.53
875.647	15.45
875.817	15.17
875.986	18.71
876.155	24.08
876.324	21.32
876.493	24.79
876.662	28.15
876.831	29.82
877	31.98
877.17	28.99
877.339	28.65
877.508	29.69
877.677	30.45
877.846	26.41
878.015	24.31
878.184	23.31
878.352	21.75
878.521	22.51
878.69	21.23
878.859	22.27
879.028	22.53
879.197	20.87
879.366	19.93
879.534	20
879.703	22.7
879.872	24.23
880.041	25.4
880.21	24.99
880.378	23.91
880.547	24.62
880.716	24.45
880.884	25.31
881.053	26.36
881.222	26.25
881.39	25.57
881.559	25.85
881.727	25.23
881.896	24.82
882.065	25.03
882.233	25.47
882.402	25.69
882.57	25.61
882.739	24.95
882.907	24.61
883.076	24.82
883.244	25.39
883.412	24.94
883.581	25.15
883.749	26.14
883.918	26.3
884.086	25.47
884.254	25.39
884.423	25.12
884.591	25.38
884.759	25.68
884.927	25.6
885.096	25.14
885.264	25.48
885.432	25.62
885.6	24.63
885.769	22.44
885.937	24.48
886.105	23.6
886.273	22.79
886.441	21.16
886.609	21.34
886.777	19.67
886.945	21
887.113	20.12
887.281	20.62
887.449	21.47
887.617	24.71
887.785	23.35
887.953	23.8
888.121	26.25
888.289	28.1
888.457	26.05
888.625	28.7
888.793	27.38
888.961	30.87
889.129	29.15
889.296	29.73
889.464	30.32
889.632	30.52
889.8	30.01
889.967	29.27
890.135	32.32
