Data from 2938739__Reflection_02.txt Node
Date: Sun Mar 15 12:38:23 EDT 2015
User: robert
Spectrometer: USB4E03002
Autoset integration time: false
Trigger mode: 4
Integration Time (sec): 1.000000E-1
Scans to average: 10
Electric dark correction enabled: false
Nonlinearity correction enabled: false
Boxcar width: 5
Stray light correction enabled: false
XAxis mode: Wavelengths
Stop averaging: false
Number of Pixels in Spectrum: 3648
>>>>>Begin Spectral Data<<<<<
177.575	-188.96
177.794	-571.94
178.014	-998.75
178.233	-1747.92
178.452	1515.49
178.672	673.4
178.891	385.14
179.11	227.74
179.33	197.63
179.549	163.16
179.768	162.3
179.987	152.86
180.207	147.04
180.426	185.35
180.645	201.11
180.864	198.29
181.084	222.64
181.303	194.26
181.522	195.56
181.741	145.98
181.96	224.14
182.179	201.85
182.398	212.78
182.618	248.81
182.837	209.93
183.056	181.6
183.275	163.12
183.494	150.26
183.713	164.12
183.932	155.03
184.151	171.51
184.37	150.66
184.589	161.45
184.808	161.74
185.027	154.36
185.246	141.6
185.465	134.85
185.684	135.41
185.903	144.98
186.122	153.05
186.341	165.89
186.56	165.64
186.779	179.44
186.998	163.95
187.216	182.25
187.435	154.37
187.654	156.07
187.873	179.98
188.092	192.77
188.311	179.17
188.53	164.01
188.748	143.46
188.967	145.7
189.186	138.49
189.405	127.52
189.623	108.86
189.842	119.06
190.061	116.28
190.28	123.98
190.498	122.23
190.717	116.12
190.936	111.48
191.154	112.59
191.373	116.36
191.592	106.31
191.81	114.35
192.029	121.4
192.248	132.83
192.466	136.16
192.685	121
192.904	114.76
193.122	121.56
193.341	136.03
193.559	168.99
193.778	155.36
193.996	178.16
194.215	175.19
194.433	153.31
194.652	148.58
194.87	149.27
195.089	152.84
195.307	151.7
195.526	152.86
195.744	141.84
195.963	132.62
196.181	136.3
196.399	138.44
196.618	144.57
196.836	149.97
197.055	134.55
197.273	135.4
197.491	136.45
197.71	141.53
197.928	147.79
198.146	170.37
198.365	154.29
198.583	147.41
198.801	136.63
199.019	147.24
199.238	147.14
199.456	174.47
199.674	147.06
199.892	143.49
200.111	144.15
200.329	130.58
200.547	122.98
200.765	131.15
200.983	135.87
201.202	135.76
201.42	118.83
201.638	109.93
201.856	108.49
202.074	126.05
202.292	118.88
202.51	122.33
202.728	124.42
202.946	129.66
203.165	120.97
203.383	109.78
203.601	96.07
203.819	100.98
204.037	113
204.255	97.98
204.473	100.84
204.691	99.86
204.909	92.84
205.127	91.76
205.345	90.34
205.562	92.86
205.78	96.28
205.998	105.6
206.216	105.28
206.434	104.79
206.652	113.06
206.87	103.12
207.088	104.56
207.306	111.85
207.523	114.22
207.741	112.57
207.959	107.19
208.177	108.28
208.395	120.25
208.612	117.89
208.83	120.09
209.048	118.48
209.266	115.24
209.483	124.27
209.701	118.7
209.919	124.53
210.136	116.08
210.354	109.95
210.572	110.38
210.79	110.62
211.007	114.36
211.225	113.96
211.442	114.4
211.66	113.31
211.878	103.72
212.095	100.24
212.313	92.98
212.53	91.77
212.748	101.07
212.966	96.4
213.183	82.4
213.401	74.63
213.618	72.75
213.836	69.64
214.053	72.53
214.271	73.97
214.488	74.68
214.705	73.31
214.923	73.57
215.14	68.99
215.358	72.96
215.575	81.47
215.793	94.97
216.01	92.19
216.227	88.58
216.445	90.05
216.662	90.42
216.879	94.12
217.097	89.58
217.314	92.75
217.531	95.83
217.749	102.42
217.966	99.61
218.183	87.26
218.4	80.26
218.618	93.73
218.835	91.55
219.052	88.89
219.269	87.18
219.487	86.69
219.704	82.94
219.921	79.8
220.138	79.09
220.355	76.13
220.572	70.22
220.79	71.73
221.007	66.32
221.224	67.34
221.441	58.56
221.658	55.36
221.875	55.3
222.092	52.2
222.309	47.02
222.526	43.11
222.743	37.86
222.96	41.61
223.177	42.04
223.394	42.86
223.611	38.15
223.828	46.7
224.045	48.54
224.262	48.88
224.479	47.72
224.696	49.27
224.913	42.53
225.13	42.1
225.347	39.44
225.564	39.99
225.781	36.53
225.997	33.33
226.214	29.56
226.431	24
226.648	21.44
226.865	19.67
227.082	18.23
227.298	18.34
227.515	18.01
227.732	16.19
227.949	13.14
228.165	12.33
228.382	12.31
228.599	11.67
228.816	12.02
229.032	11.81
229.249	11.61
229.466	11.23
229.682	11.19
229.899	11.26
230.116	11.95
230.332	12.12
230.549	12.74
230.765	13.01
230.982	13.39
231.199	13.4
231.415	13.93
231.632	13.68
231.848	14.43
232.065	15.08
232.281	13.84
232.498	13.21
232.714	15.7
232.931	14.8
233.147	13.93
233.364	13.34
233.58	13.85
233.797	13.97
234.013	14.54
234.23	14.36
234.446	13.61
234.662	14.08
234.879	13.42
235.095	13.33
235.312	14.6
235.528	14.98
235.744	14.25
235.961	16.23
236.177	15.2
236.393	15.04
236.61	13.59
236.826	13.9
237.042	13.35
237.258	14.63
237.475	13.93
237.691	12.36
237.907	13.01
238.123	15.23
238.339	13.41
238.556	14.54
238.772	15.18
238.988	16.87
239.204	17.02
239.42	19.03
239.636	18.03
239.853	17.74
240.069	17.59
240.285	16.59
240.501	15.04
240.717	14.19
240.933	13.4
241.149	13.56
241.365	13.1
241.581	12.42
241.797	11.22
242.013	10.73
242.229	10.8
242.445	10.54
242.661	10.48
242.877	11.12
243.093	10.86
243.309	10.71
243.525	10.21
243.741	9.77
243.957	9.96
244.173	9.51
244.388	9.92
244.604	9.43
244.82	9.62
245.036	9.38
245.252	7.96
245.468	7.71
245.683	7.63
245.899	7.33
246.115	7.65
246.331	7.3
246.547	7.44
246.762	7.12
246.978	6.97
247.194	6.75
247.409	6.55
247.625	6.7
247.841	6.77
248.057	7.03
248.272	6.91
248.488	6.48
248.703	6.7
248.919	6.93
249.135	6.85
249.35	7.14
249.566	7.57
249.782	8.42
249.997	8.78
250.213	8.79
250.428	8.11
250.644	8.45
250.859	8.84
251.075	8.87
251.29	8.64
251.506	9.12
251.721	9.07
251.937	9.02
252.152	8.83
252.368	8.96
252.583	9.05
252.798	8.93
253.014	8.7
253.229	9.11
253.445	8.75
253.66	9.24
253.875	9.3
254.091	9.48
254.306	8.97
254.521	9.16
254.737	9.2
254.952	9.9
255.167	10.46
255.383	11.88
255.598	11.37
255.813	11.65
256.028	11.96
256.244	11.61
256.459	10.93
256.674	12.31
256.889	10.94
257.104	10.61
257.32	10.25
257.535	9.97
257.75	8.57
257.965	8.25
258.18	8.15
258.395	7.33
258.61	7.13
258.826	6.91
259.041	5.95
259.256	6.21
259.471	5.96
259.686	5.66
259.901	5.49
260.116	5.7
260.331	5.78
260.546	5.53
260.761	5.66
260.976	5.7
261.191	5.72
261.406	6.05
261.621	5.95
261.836	5.64
262.05	6.1
262.265	6.35
262.48	6.7
262.695	6.86
262.91	7.24
263.125	7.48
263.34	7.78
263.555	8.26
263.769	8.79
263.984	9.07
264.199	9.93
264.414	9.99
264.629	10.54
264.843	9.93
265.058	10.25
265.273	9.75
265.488	9.5
265.702	9.68
265.917	9.14
266.132	8.77
266.346	8.58
266.561	8.77
266.776	8.32
266.99	7.99
267.205	8.42
267.42	7.53
267.634	7.71
267.849	7.69
268.063	7.56
268.278	7.85
268.492	7.37
268.707	7.4
268.922	7.01
269.136	7.08
269.351	7.17
269.565	6.57
269.78	6.76
269.994	6.7
270.209	6.41
270.423	6.35
270.637	6.08
270.852	6.2
271.066	5.79
271.281	5.92
271.495	5.89
271.709	5.38
271.924	5.33
272.138	5.14
272.353	4.82
272.567	5.16
272.781	5.03
272.996	5.27
273.21	5.71
273.424	6.17
273.638	5.74
273.853	5.77
274.067	5.92
274.281	6.13
274.495	6.75
274.71	7.35
274.924	7.03
275.138	7.39
275.352	7.01
275.566	6.39
275.781	6.12
275.995	6.62
276.209	7
276.423	7
276.637	6.93
276.851	6.86
277.065	6.51
277.279	7.03
277.493	6.58
277.707	6.91
277.921	7.4
278.135	7.76
278.349	7.53
278.563	7.12
278.777	6.83
278.991	6.93
279.205	7.43
279.419	7.56
279.633	7.18
279.847	7.46
280.061	7.02
280.275	6.7
280.489	6.26
280.703	6.33
280.917	6.12
281.131	6.36
281.344	6.2
281.558	5.56
281.772	5.64
281.986	5.66
282.2	5.36
282.414	5.27
282.627	5.08
282.841	4.84
283.055	4.81
283.269	5.11
283.482	5.23
283.696	5.07
283.91	4.81
284.123	4.38
284.337	4.01
284.551	3.97
284.764	4.29
284.978	4.6
285.192	4.85
285.405	4.72
285.619	4.57
285.833	4.77
286.046	4.81
286.26	4.85
286.473	5.24
286.687	5.6
286.9	5.78
287.114	5.45
287.327	5.22
287.541	5.27
287.754	5.79
287.968	5.74
288.181	5.49
288.395	5.68
288.608	6.08
288.822	5.84
289.035	5.42
289.248	5.4
289.462	5.83
289.675	5.64
289.889	5.79
290.102	5.65
290.315	5.88
290.529	6.03
290.742	6.07
290.955	6.09
291.169	6.19
291.382	6.73
291.595	6.49
291.808	6.63
292.022	6.82
292.235	6.8
292.448	6.37
292.661	6.2
292.875	6.03
293.088	6.49
293.301	6.02
293.514	6.11
293.727	6.03
293.94	6.11
294.153	6.16
294.367	6.31
294.58	6.47
294.793	6.91
295.006	6.86
295.219	6.49
295.432	5.98
295.645	6.28
295.858	6.07
296.071	6.04
296.284	6.14
296.497	5.94
296.71	5.75
296.923	5.7
297.136	5.84
297.349	5.76
297.562	6.27
297.775	6.52
297.988	6.62
298.201	6.82
298.414	6.88
298.626	6.75
298.839	7.04
299.052	7.54
299.265	7.83
299.478	7.62
299.691	7.87
299.903	7.92
300.116	8.05
300.329	8.21
300.542	8.22
300.755	8.29
300.967	8.62
301.18	8.71
301.393	8.83
301.605	8.67
301.818	8.75
302.031	8.65
302.243	8.27
302.456	8.57
302.669	8.45
302.881	8.36
303.094	8.25
303.307	8.49
303.519	8.49
303.732	8.35
303.944	8.42
304.157	8.68
304.37	8.6
304.582	8.84
304.795	8.55
305.007	8.97
305.22	9.51
305.432	9.74
305.645	9.76
305.857	9.62
306.069	10.12
306.282	9.93
306.494	9.89
306.707	10.06
306.919	10.42
307.132	10.11
307.344	9.93
307.556	9.53
307.769	9.5
307.981	8.91
308.193	8.48
308.406	7.79
308.618	7.97
308.83	7.53
309.043	7.78
309.255	7.5
309.467	7.88
309.679	7.61
309.892	7.69
310.104	7.45
310.316	7.95
310.528	8.21
310.74	8.15
310.953	7.9
311.165	7.98
311.377	8.13
311.589	8.31
311.801	8.36
312.013	8.12
312.225	8.48
312.437	8.64
312.649	8.54
312.862	8.86
313.074	8.96
313.286	9.63
313.498	9.85
313.71	9.9
313.922	9.92
314.134	9.61
314.346	10.25
314.558	10.19
314.77	9.95
314.982	10.17
315.193	9.75
315.405	9.79
315.617	9.84
315.829	10.51
316.041	10.33
316.253	10.42
316.465	10.73
316.677	10.76
316.888	10.68
317.1	11.33
317.312	11.11
317.524	11.36
317.736	11.89
317.947	11.58
318.159	10.9
318.371	10.85
318.583	10.86
318.794	10.49
319.006	10.33
319.218	10.19
319.43	9.92
319.641	10.37
319.853	10.58
320.064	10.3
320.276	10.47
320.488	11.19
320.699	11.43
320.911	11.33
321.123	11.63
321.334	11.58
321.546	11.78
321.757	12.2
321.969	12.32
322.18	11.94
322.392	11.63
322.603	11.76
322.815	11.61
323.026	11.63
323.238	11.85
323.449	11.79
323.661	11.97
323.872	12.11
324.083	12.22
324.295	11.73
324.506	11.66
324.718	11.8
324.929	11.83
325.14	11.71
325.352	11.92
325.563	11.33
325.774	11.47
325.986	11.35
326.197	11.13
326.408	10.87
326.62	11.21
326.831	11.43
327.042	11.64
327.253	11.5
327.464	12.14
327.676	12.41
327.887	12.93
328.098	13.23
328.309	14.14
328.52	14.17
328.732	14.83
328.943	14.81
329.154	15.17
329.365	15.47
329.576	15.25
329.787	14.31
329.998	14.52
330.209	14.92
330.42	14.63
330.631	14.39
330.842	14.54
331.053	14.25
331.264	13.97
331.475	14
331.686	13.51
331.897	13.93
332.108	14.28
332.319	14.29
332.53	13.83
332.741	13.85
332.952	13.59
333.163	13.92
333.374	13.9
333.585	14.3
333.795	14.32
334.006	15.06
334.217	15.17
334.428	15.4
334.639	15.2
334.849	15.45
335.06	15.81
335.271	15.75
335.482	15.35
335.692	15.52
335.903	15.64
336.114	15.35
336.325	15.2
336.535	15.09
336.746	14.71
336.957	14.46
337.167	14.67
337.378	14.33
337.589	14.23
337.799	14.82
338.01	14.38
338.22	14.07
338.431	14.64
338.642	14.53
338.852	14.54
339.063	14.94
339.273	14.97
339.484	14.79
339.694	14.79
339.905	15
340.115	14.38
340.326	14.42
340.536	14.97
340.746	14.59
340.957	14.4
341.167	14.47
341.378	14.21
341.588	14.28
341.799	14.53
342.009	14.56
342.219	14.14
342.43	14.45
342.64	14.46
342.85	13.92
343.061	13.89
343.271	13.88
343.481	13.56
343.691	13.86
343.902	14.06
344.112	13.88
344.322	13.78
344.532	13.96
344.743	13.93
344.953	13.95
345.163	13.78
345.373	13.81
345.583	13.4
345.793	13.43
346.004	13.31
346.214	13.12
346.424	12.99
346.634	12.91
346.844	13.08
347.054	12.79
347.264	12.75
347.474	13.07
347.684	12.91
347.894	13.76
348.104	14.06
348.314	13.72
348.524	13.55
348.734	13.44
348.944	13.63
349.154	13.58
349.364	13.82
349.574	13.52
349.784	13.42
349.994	13.6
350.204	13.08
350.413	12.93
350.623	13.15
350.833	13.05
351.043	13.09
351.253	13.33
351.463	13.18
351.672	13.08
351.882	13.24
352.092	13.12
352.302	12.96
352.511	13.33
352.721	13.27
352.931	13.26
353.141	13.49
353.35	13.67
353.56	13.35
353.77	13.46
353.979	13.52
354.189	13.8
354.399	14.03
354.608	13.97
354.818	13.83
355.027	13.6
355.237	13.39
355.447	13.34
355.656	13.32
355.866	13.08
356.075	13.1
356.285	12.93
356.494	12.82
356.704	12.81
356.913	12.66
357.123	12.74
357.332	12.79
357.542	12.94
357.751	13
357.96	13.12
358.17	13.29
358.379	13.11
358.589	13.1
358.798	12.84
359.007	12.63
359.217	13.03
359.426	12.51
359.635	12.73
359.845	12.56
360.054	12.38
360.263	11.98
360.472	11.82
360.682	11.72
360.891	11.64
361.1	11.83
361.309	11.89
361.519	11.55
361.728	11.6
361.937	11.4
362.146	11.57
362.355	11.6
362.564	11.66
362.774	11.84
362.983	11.97
363.192	12.17
363.401	12.31
363.61	12.23
363.819	12.38
364.028	12.36
364.237	12.69
364.446	12.64
364.655	12.65
364.864	12.71
365.073	12.59
365.282	12.74
365.491	12.68
365.7	12.38
365.909	12.4
366.118	12.52
366.327	12.88
366.536	12.37
366.745	12.47
366.954	12.4
367.162	12.35
367.371	12.61
367.58	12.6
367.789	12.59
367.998	12.79
368.207	12.9
368.415	12.83
368.624	12.48
368.833	12.73
369.042	12.64
369.25	12.89
369.459	12.93
369.668	12.75
369.877	12.65
370.085	12.5
370.294	12.44
370.503	12.29
370.711	12.32
370.92	12.52
371.129	12.49
371.337	12.41
371.546	12.14
371.754	12.09
371.963	11.85
372.171	11.87
372.38	11.91
372.589	11.78
372.797	11.75
373.006	11.47
373.214	11.55
373.423	11.48
373.631	11.52
373.84	11.3
374.048	11.44
374.256	11.57
374.465	11.6
374.673	11.39
374.882	11.37
375.09	11.45
375.298	11.36
375.507	11.1
375.715	11.09
375.923	10.91
376.132	10.95
376.34	10.89
376.548	10.88
376.757	10.9
376.965	10.97
377.173	10.96
377.381	10.95
377.59	11.09
377.798	11.21
378.006	11.07
378.214	10.99
378.423	11.09
378.631	10.96
378.839	10.93
379.047	10.71
379.255	10.67
379.463	10.57
379.671	10.58
379.879	10.73
380.088	10.58
380.296	10.65
380.504	10.59
380.712	10.44
380.92	10.31
381.128	10.26
381.336	10.15
381.544	10.32
381.752	10.56
381.96	10.34
382.168	10.16
382.376	10.11
382.584	10.33
382.791	10.53
382.999	10.42
383.207	10.56
383.415	10.46
383.623	10.64
383.831	10.58
384.039	10.23
384.247	10.4
384.454	10.35
384.662	10.25
384.87	9.84
385.078	9.52
385.285	9.63
385.493	9.66
385.701	9.6
385.909	9.66
386.116	9.54
386.324	9.69
386.532	9.73
386.739	9.71
386.947	9.84
387.155	9.97
387.362	10.35
387.57	10.42
387.778	10.1
387.985	10.23
388.193	10.02
388.4	10.07
388.608	10.23
388.816	10.21
389.023	10.59
389.231	10.54
389.438	10.29
389.646	10.16
389.853	10.14
390.061	10.2
390.268	10.23
390.475	10.2
390.683	10.19
390.89	10.05
391.098	9.6
391.305	9.27
391.512	9.25
391.72	9.44
391.927	9.52
392.135	9.51
392.342	9.46
392.549	9.55
392.756	9.6
392.964	9.34
393.171	9.27
393.378	9.43
393.586	9.31
393.793	9.49
394	9.4
394.207	9.11
394.414	9.22
394.622	9.23
394.829	9.08
395.036	9.02
395.243	9.22
395.45	9.32
395.657	9.37
395.864	9.5
396.072	9.28
396.279	9.43
396.486	9.47
396.693	9.36
396.9	9.55
397.107	9.54
397.314	9.7
397.521	9.5
397.728	9.24
397.935	9.32
398.142	9.15
398.349	9.18
398.556	9.11
398.763	9.2
398.97	9.22
399.177	9.1
399.383	9.25
399.59	9.14
399.797	9.46
400.004	9.73
400.211	9.67
400.418	9.92
400.625	10.01
400.831	10
401.038	10.04
401.245	9.98
401.452	10.07
401.658	9.76
401.865	9.76
402.072	9.77
402.279	9.7
402.485	9.71
402.692	9.36
402.899	9.43
403.105	9.62
403.312	9.7
403.519	9.89
403.725	9.86
403.932	9.99
404.138	9.95
404.345	9.7
404.552	9.75
404.758	9.72
404.965	9.87
405.171	9.83
405.378	9.79
405.584	9.5
405.791	9.27
405.997	9.4
406.204	9.34
406.41	9.35
406.617	9.55
406.823	9.63
407.029	9.69
407.236	9.83
407.442	9.78
407.649	9.68
407.855	9.74
408.061	9.8
408.268	9.76
408.474	9.79
408.68	9.73
408.887	9.68
409.093	9.37
409.299	9.31
409.505	9.33
409.712	9.3
409.918	9.23
410.124	9.39
410.33	9.53
410.537	9.53
410.743	9.58
410.949	9.56
411.155	9.6
411.361	9.68
411.567	9.8
411.773	9.75
411.98	9.8
412.186	10.03
412.392	10.19
412.598	10.06
412.804	10.06
413.01	10.01
413.216	10.16
413.422	10.24
413.628	10.45
413.834	10.44
414.04	10.53
414.246	10.5
414.452	10.54
414.658	10.5
414.864	10.6
415.07	10.62
415.275	10.73
415.481	10.64
415.687	10.41
415.893	10.3
416.099	10.36
416.305	10.26
416.511	10.26
416.716	10.19
416.922	10.11
417.128	9.9
417.334	9.84
417.539	9.64
417.745	9.68
417.951	9.77
418.157	9.85
418.362	9.93
418.568	9.97
418.774	10.04
418.979	10.03
419.185	10.09
419.391	10.18
419.596	10.26
419.802	10.46
420.008	10.42
420.213	10.5
420.419	10.52
420.624	10.37
420.83	10.36
421.035	10.21
421.241	10.32
421.446	10.24
421.652	10.2
421.857	10.15
422.063	10.09
422.268	10.14
422.474	10.05
422.679	10.01
422.885	10.03
423.09	10.1
423.295	10.2
423.501	10.15
423.706	10.2
423.911	10.37
424.117	10.37
424.322	10.4
424.527	10.39
424.733	10.45
424.938	10.5
425.143	10.63
425.349	10.53
425.554	10.58
425.759	10.63
425.964	10.62
426.169	10.5
426.375	10.52
426.58	10.53
426.785	10.62
426.99	10.6
427.195	10.57
427.4	10.58
427.605	10.72
427.811	10.72
428.016	10.68
428.221	10.71
428.426	10.89
428.631	11.03
428.836	11.06
429.041	11.05
429.246	11.18
429.451	11.28
429.656	11.26
429.861	11.32
430.066	11.38
430.271	11.39
430.476	11.37
430.681	11.32
430.886	11.42
431.09	11.47
431.295	11.53
431.5	11.48
431.705	11.56
431.91	11.6
432.115	11.64
432.32	11.68
432.524	11.74
432.729	11.87
432.934	11.9
433.139	11.7
433.343	11.7
433.548	11.69
433.753	11.69
433.958	11.56
434.162	11.53
434.367	11.5
434.572	11.53
434.776	11.47
434.981	11.54
435.186	11.55
435.39	11.66
435.595	11.66
435.799	11.76
436.004	11.79
436.209	11.86
436.413	11.9
436.618	12
436.822	11.98
437.027	12.04
437.231	11.98
437.436	11.96
437.64	12.06
437.845	12.14
438.049	12.13
438.253	12.22
438.458	12.26
438.662	12.34
438.867	12.33
439.071	12.33
439.275	12.43
439.48	12.44
439.684	12.52
439.888	12.42
440.093	12.48
440.297	12.44
440.501	12.45
440.706	12.49
440.91	12.51
441.114	12.46
441.318	12.56
441.523	12.57
441.727	12.68
441.931	12.72
442.135	12.78
442.339	12.76
442.543	12.78
442.748	12.83
442.952	12.74
443.156	12.76
443.36	12.81
443.564	12.8
443.768	12.82
443.972	12.83
444.176	12.81
444.38	12.91
444.584	12.89
444.788	12.98
444.992	12.96
445.196	12.97
445.4	12.96
445.604	12.94
445.808	12.9
446.012	12.92
446.216	12.87
446.42	12.83
446.624	12.78
446.828	12.8
447.032	12.77
447.235	12.73
447.439	12.74
447.643	12.7
447.847	12.73
448.051	12.74
448.254	12.62
448.458	12.58
448.662	12.58
448.866	12.59
449.069	12.57
449.273	12.61
449.477	12.65
449.681	12.7
449.884	12.78
450.088	12.77
450.292	12.89
450.495	12.99
450.699	12.94
450.902	13.09
451.106	13.14
451.31	13.15
451.513	13.18
451.717	13.17
451.92	13.22
452.124	13.14
452.327	13.21
452.531	13.16
452.734	13.23
452.938	13.32
453.141	13.26
453.345	13.25
453.548	13.24
453.752	13.34
453.955	13.44
454.158	13.49
454.362	13.52
454.565	13.47
454.769	13.45
454.972	13.49
455.175	13.59
455.379	13.59
455.582	13.7
455.785	13.67
455.988	13.5
456.192	13.51
456.395	13.47
456.598	13.55
456.801	13.54
457.005	13.52
457.208	13.49
457.411	13.38
457.614	13.39
457.817	13.29
458.021	13.36
458.224	13.46
458.427	13.39
458.63	13.42
458.833	13.48
459.036	13.52
459.239	13.49
459.442	13.48
459.645	13.47
459.848	13.41
460.051	13.37
460.254	13.35
460.457	13.3
460.66	13.35
460.863	13.29
461.066	13.24
461.269	13.2
461.472	13.29
461.675	13.3
461.878	13.27
462.081	13.33
462.284	13.4
462.486	13.45
462.689	13.42
462.892	13.4
463.095	13.55
463.298	13.5
463.5	13.54
463.703	13.57
463.906	13.54
464.109	13.69
464.311	13.83
464.514	13.78
464.717	13.82
464.92	13.78
465.122	13.74
465.325	13.74
465.528	13.85
465.73	13.85
465.933	13.78
466.135	13.84
466.338	13.78
466.541	13.66
466.743	13.73
466.946	13.74
467.148	13.76
467.351	13.83
467.553	13.86
467.756	13.77
467.958	13.76
468.161	13.85
468.363	13.83
468.566	13.85
468.768	13.9
468.971	14.02
469.173	13.9
469.375	13.89
469.578	13.84
469.78	13.64
469.983	13.65
470.185	13.63
470.387	13.53
470.59	13.58
470.792	13.55
470.994	13.54
471.196	13.45
471.399	13.57
471.601	13.66
471.803	13.72
472.005	13.81
472.208	13.84
472.41	13.91
472.612	14
472.814	14.01
473.016	14.2
473.218	14.2
473.421	14.24
473.623	14.23
473.825	14.21
474.027	14.19
474.229	14.2
474.431	14.11
474.633	14.01
474.835	13.87
475.037	13.77
475.239	13.54
475.441	13.52
475.643	13.44
475.845	13.48
476.047	13.46
476.249	13.51
476.451	13.51
476.653	13.56
476.855	13.71
477.057	13.82
477.258	13.83
477.46	14
477.662	14.05
477.864	14.03
478.066	13.95
478.268	14.06
478.469	14
478.671	14.01
478.873	14.01
479.075	13.91
479.276	13.9
479.478	13.94
479.68	13.86
479.882	13.84
480.083	13.89
480.285	13.89
480.487	13.79
480.688	13.8
480.89	13.83
481.091	13.75
481.293	13.72
481.495	13.63
481.696	13.59
481.898	13.52
482.099	13.4
482.301	13.35
482.502	13.3
482.704	13.31
482.905	13.24
483.107	13.19
483.308	13.17
483.51	13.15
483.711	13.14
483.913	13.12
484.114	13.13
484.315	13.17
484.517	13.17
484.718	13.14
484.92	13.12
485.121	13.15
485.322	13.19
485.524	13.21
485.725	13.26
485.926	13.28
486.127	13.31
486.329	13.3
486.53	13.28
486.731	13.31
486.932	13.35
487.134	13.3
487.335	13.3
487.536	13.28
487.737	13.31
487.938	13.29
488.139	13.26
488.341	13.21
488.542	13.25
488.743	13.29
488.944	13.28
489.145	13.3
489.346	13.37
489.547	13.39
489.748	13.42
489.949	13.43
490.15	13.5
490.351	13.5
490.552	13.57
490.753	13.57
490.954	13.51
491.155	13.47
491.356	13.46
491.557	13.43
491.758	13.46
491.959	13.47
492.159	13.44
492.36	13.39
492.561	13.47
492.762	13.49
492.963	13.48
493.164	13.59
493.364	13.7
493.565	13.75
493.766	13.86
493.967	13.84
494.167	13.83
494.368	13.91
494.569	13.99
494.769	13.9
494.97	13.91
495.171	13.96
495.371	13.9
495.572	13.93
495.773	13.93
495.973	13.86
496.174	13.9
496.375	13.98
496.575	13.94
496.776	13.86
496.976	13.91
497.177	13.95
497.377	13.98
497.578	13.97
497.778	13.99
497.979	13.98
498.179	14.14
498.38	14.16
498.58	14.14
498.78	14.2
498.981	14.28
499.181	14.26
499.382	14.27
499.582	14.33
499.782	14.44
499.983	14.53
500.183	14.61
500.383	14.5
500.584	14.49
500.784	14.48
500.984	14.53
501.184	14.51
501.385	14.54
501.585	14.63
501.785	14.51
501.985	14.48
502.185	14.43
502.386	14.42
502.586	14.47
502.786	14.43
502.986	14.39
503.186	14.28
503.386	14.34
503.586	14.42
503.786	14.47
503.987	14.54
504.187	14.57
504.387	14.58
504.587	14.59
504.787	14.62
504.987	14.8
505.187	14.97
505.387	15.04
505.587	15.03
505.786	15.03
505.986	14.98
506.186	15.04
506.386	15.17
506.586	15.24
506.786	15.29
506.986	15.36
507.186	15.4
507.386	15.38
507.585	15.55
507.785	15.52
507.985	15.6
508.185	15.55
508.384	15.58
508.584	15.44
508.784	15.43
508.984	15.4
509.183	15.46
509.383	15.38
509.583	15.47
509.782	15.41
509.982	15.54
510.182	15.68
510.381	15.79
510.581	15.77
510.781	15.88
510.98	15.91
511.18	15.91
511.379	15.93
511.579	16.08
511.778	16.11
511.978	16.07
512.177	16.06
512.377	15.91
512.576	15.88
512.776	15.92
512.975	15.98
513.175	16.01
513.374	16.12
513.573	16.14
513.773	16.12
513.972	16.07
514.172	16.31
514.371	16.49
514.57	16.68
514.77	16.72
514.969	16.76
515.168	16.82
515.367	16.78
515.567	16.72
515.766	16.77
515.965	16.94
516.164	17.02
516.364	16.96
516.563	16.92
516.762	16.91
516.961	17.01
517.16	17.08
517.359	17.05
517.559	17.17
517.758	17.25
517.957	17.24
518.156	17.16
518.355	17.19
518.554	17.3
518.753	17.39
518.952	17.45
519.151	17.47
519.35	17.52
519.549	17.67
519.748	17.67
519.947	17.87
520.146	17.95
520.345	17.99
520.544	18.1
520.743	18.15
520.942	18.13
521.141	18.2
521.339	18.21
521.538	18.3
521.737	18.29
521.936	18.43
522.135	18.43
522.333	18.57
522.532	18.68
522.731	18.74
522.93	18.89
523.129	18.93
523.327	19.03
523.526	19.26
523.725	19.28
523.923	19.35
524.122	19.48
524.321	19.47
524.519	19.56
524.718	19.63
524.917	19.6
525.115	19.59
525.314	19.66
525.512	19.63
525.711	19.68
525.909	19.76
526.108	19.79
526.306	19.79
526.505	19.9
526.703	19.91
526.902	19.94
527.1	20.1
527.299	20.13
527.497	20.15
527.696	20.21
527.894	20.17
528.092	20.2
528.291	20.26
528.489	20.29
528.688	20.32
528.886	20.38
529.084	20.44
529.283	20.45
529.481	20.5
529.679	20.64
529.877	20.72
530.076	20.85
530.274	20.97
530.472	21.05
530.67	21.15
530.869	21.16
531.067	21.25
531.265	21.35
531.463	21.43
531.661	21.51
531.859	21.52
532.057	21.56
532.255	21.62
532.454	21.64
532.652	21.65
532.85	21.72
533.048	21.83
533.246	21.9
533.444	21.98
533.642	22
533.84	22.08
534.038	22.15
534.236	22.26
534.434	22.23
534.632	22.26
534.83	22.4
535.027	22.44
535.225	22.5
535.423	22.49
535.621	22.54
535.819	22.67
536.017	22.71
536.215	22.76
536.412	22.83
536.61	22.93
536.808	23.03
537.006	23.02
537.203	23.09
537.401	23.13
537.599	23.17
537.797	23.23
537.994	23.2
538.192	23.27
538.39	23.3
538.587	23.28
538.785	23.37
538.983	23.34
539.18	23.42
539.378	23.51
539.575	23.58
539.773	23.77
539.97	23.72
540.168	23.72
540.366	23.73
540.563	23.67
540.761	23.74
540.958	23.76
541.155	23.78
541.353	23.75
541.55	23.73
541.748	23.74
541.945	23.7
542.143	23.71
542.34	23.76
542.537	23.78
542.735	23.91
542.932	23.98
543.129	23.97
543.327	24.07
543.524	24.24
543.721	24.32
543.919	24.38
544.116	24.46
544.313	24.53
544.51	24.6
544.708	24.7
544.905	24.61
545.102	24.63
545.299	24.75
545.496	24.79
545.693	24.72
545.891	24.76
546.088	24.72
546.285	24.67
546.482	24.67
546.679	24.6
546.876	24.6
547.073	24.69
547.27	24.68
547.467	24.79
547.664	24.82
547.861	24.88
548.058	24.87
548.255	24.98
548.452	25.13
548.649	25.15
548.846	25.29
549.043	25.23
549.24	25.29
549.437	25.27
549.633	25.13
549.83	25.07
550.027	25.13
550.224	25.12
550.421	25.11
550.618	25.08
550.814	25.13
551.011	25.07
551.208	25.23
551.405	25.35
551.601	25.36
551.798	25.41
551.995	25.4
552.191	25.38
552.388	25.42
552.585	25.36
552.781	25.38
552.978	25.43
553.175	25.45
553.371	25.36
553.568	25.29
553.764	25.32
553.961	25.22
554.157	25.27
554.354	25.34
554.55	25.38
554.747	25.45
554.943	25.35
555.14	25.49
555.336	25.57
555.533	25.62
555.729	25.65
555.926	25.67
556.122	25.7
556.318	25.87
556.515	25.79
556.711	25.69
556.907	25.61
557.104	25.72
557.3	25.64
557.496	25.63
557.693	25.55
557.889	25.59
558.085	25.57
558.281	25.64
558.478	25.64
558.674	25.68
558.87	25.76
559.066	25.86
559.262	25.81
559.459	25.78
559.655	25.8
559.851	25.82
560.047	25.74
560.243	25.91
560.439	25.91
560.635	25.88
560.831	25.83
561.027	25.95
561.223	26.03
561.419	26.12
561.615	26.23
561.811	26.2
562.007	26.29
562.203	26.28
562.399	26.15
562.595	26.16
562.791	26.19
562.987	26.27
563.183	26.13
563.379	26.04
563.575	26.04
563.771	25.98
563.966	26.01
564.162	26.02
564.358	26.01
564.554	26.11
564.75	26.19
564.945	26.12
565.141	26.12
565.337	26.09
565.533	26.1
565.728	26.02
565.924	26.04
566.12	26.04
566.315	25.97
566.511	25.96
566.707	25.84
566.902	25.8
567.098	25.77
567.293	25.73
567.489	25.83
567.684	25.93
567.88	25.95
568.076	25.92
568.271	26.08
568.467	26.14
568.662	26.17
568.858	26.22
569.053	26.22
569.248	26.15
569.444	26.21
569.639	26.07
569.835	26.11
570.03	26.15
570.225	26.21
570.421	25.96
570.616	25.97
570.812	26.04
571.007	26
571.202	25.95
571.397	25.94
571.593	26.07
571.788	26.17
571.983	26.08
572.178	26.22
572.374	26.21
572.569	26.36
572.764	26.36
572.959	26.34
573.154	26.33
573.35	26.37
573.545	26.44
573.74	26.32
573.935	26.34
574.13	26.51
574.325	26.44
574.52	26.44
574.715	26.43
574.91	26.52
575.105	26.59
575.3	26.64
575.495	26.74
575.69	26.7
575.885	26.73
576.08	26.72
576.275	26.64
576.47	26.52
576.665	26.58
576.86	26.58
577.055	26.5
577.25	26.64
577.444	26.64
577.639	26.54
577.834	26.62
578.029	26.79
578.224	26.78
578.418	26.72
578.613	26.81
578.808	26.74
579.003	26.88
579.197	26.95
579.392	26.79
579.587	26.84
579.781	26.95
579.976	27.04
580.171	26.98
580.365	27
580.56	26.95
580.755	27.1
580.949	27.31
581.144	27.11
581.338	27.07
581.533	27.07
581.727	27.12
581.922	27.14
582.116	27.18
582.311	27.19
582.505	27.33
582.7	27.34
582.894	27.19
583.089	27.14
583.283	27.27
583.478	27.49
583.672	27.4
583.866	27.36
584.061	27.39
584.255	27.42
584.449	27.29
584.644	27.35
584.838	27.43
585.032	27.62
585.226	27.54
585.421	27.45
585.615	27.4
585.809	27.59
586.003	27.65
586.198	27.78
586.392	27.65
586.586	27.79
586.78	27.75
586.974	27.72
587.168	27.61
587.363	27.7
587.557	27.8
587.751	27.85
587.945	27.81
588.139	27.77
588.333	27.55
588.527	27.59
588.721	27.37
588.915	27.34
589.109	27.38
589.303	27.34
589.497	27.22
589.691	27.19
589.885	26.94
590.079	26.88
590.273	26.86
590.466	26.74
590.66	26.79
590.854	26.91
591.048	26.86
591.242	27
591.436	26.91
591.629	27.02
591.823	26.97
592.017	27.25
592.211	27.31
592.404	27.39
592.598	27.62
592.792	27.48
592.986	27.59
593.179	27.55
593.373	27.4
593.567	27.51
593.76	27.39
593.954	27.53
594.147	27.46
594.341	27.38
594.535	27.37
594.728	27.26
594.922	27.35
595.115	27.34
595.309	27.29
595.502	27.25
595.696	27.27
595.889	27.36
596.083	27.3
596.276	27.19
596.47	27.21
596.663	27.17
596.856	27.14
597.05	27.19
597.243	27.18
597.437	27.24
597.63	27.34
597.823	27.42
598.017	27.45
598.21	27.48
598.403	27.63
598.596	27.71
598.79	27.66
598.983	27.76
599.176	27.7
599.369	27.68
599.563	27.7
599.756	27.75
599.949	27.62
600.142	27.54
600.335	27.53
600.528	27.45
600.722	27.56
600.915	27.76
601.108	27.98
601.301	28.04
601.494	28.11
601.687	28.24
601.88	28.36
602.073	28.45
602.266	28.54
602.459	28.54
602.652	28.47
602.845	28.37
603.038	28.31
603.231	28.09
603.424	28.15
603.617	28.06
603.809	27.91
604.002	27.73
604.195	27.6
604.388	27.57
604.581	27.49
604.774	27.45
604.966	27.5
605.159	27.41
605.352	27.57
605.545	27.53
605.737	27.57
605.93	27.57
606.123	27.71
606.316	27.91
606.508	27.96
606.701	28.01
606.894	28.21
607.086	28.4
607.279	28.55
607.471	28.44
607.664	28.58
607.857	28.7
608.049	28.96
608.242	28.82
608.434	28.93
608.627	29.08
608.819	29.24
609.012	29.4
609.204	29.56
609.397	29.84
609.589	30.32
609.782	30.55
609.974	30.82
610.166	31
610.359	31.34
610.551	31.55
610.743	31.82
610.936	32.23
611.128	32.27
611.32	32.41
611.513	32.43
611.705	32.32
611.897	32.31
612.09	32.16
612.282	32.15
612.474	32.19
612.666	32.05
612.858	31.81
613.051	31.53
613.243	31.49
613.435	31.25
613.627	31.28
613.819	31.21
614.011	31.21
614.203	31.15
614.395	31.22
614.588	31.16
614.78	31.08
614.972	31.08
615.164	31.12
615.356	30.98
615.548	30.75
615.74	30.61
615.932	30.46
616.124	30.42
616.315	30.33
616.507	30.03
616.699	29.86
616.891	29.87
617.083	29.75
617.275	29.42
617.467	29.6
617.659	29.71
617.85	29.54
618.042	29.42
618.234	29.08
618.426	29.25
618.618	29.36
618.809	29.48
619.001	29.46
619.193	29.35
619.384	29.44
619.576	29.4
619.768	29.21
619.959	29.37
620.151	29.57
620.343	29.83
620.534	29.61
620.726	29.47
620.917	29.38
621.109	29.24
621.301	29.35
621.492	29.41
621.684	29.31
621.875	29.53
622.067	29.28
622.258	29.16
622.45	29.13
622.641	29.33
622.832	29.45
623.024	29.35
623.215	29.3
623.407	29.32
623.598	29.58
623.789	29.59
623.981	29.61
624.172	29.84
624.363	29.89
624.555	29.74
624.746	29.54
624.937	29.58
625.129	29.54
625.32	29.67
625.511	29.69
625.702	29.54
625.893	29.43
626.085	29.24
626.276	29.21
626.467	29.2
626.658	29.15
626.849	29.24
627.04	29
627.231	29.17
627.422	29.08
627.614	28.96
627.805	28.85
627.996	29.06
628.187	29.2
628.378	29.04
628.569	29.04
628.76	29.13
628.951	29.05
629.142	29.25
629.332	29.17
629.523	29.3
629.714	29.33
629.905	29.26
630.096	29.06
630.287	29
630.478	29.29
630.669	29.26
630.859	29.06
631.05	29.12
631.241	28.96
631.432	28.88
631.623	28.7
631.813	28.81
632.004	28.77
632.195	28.78
632.385	28.74
632.576	28.48
632.767	28.41
632.957	28.49
633.148	28.41
633.339	28.49
633.529	28.51
633.72	28.71
633.91	28.67
634.101	28.76
634.292	28.75
634.482	28.94
634.673	29.08
634.863	29.06
635.054	29.08
635.244	29.08
635.435	29.23
635.625	29.38
635.815	29.3
636.006	29.08
636.196	29.14
636.387	28.92
636.577	28.82
636.767	29.06
636.958	29.24
637.148	29.24
637.338	29.38
637.529	29.18
637.719	29.03
637.909	29.09
638.099	29.33
638.29	29.28
638.48	29.44
638.67	29.56
638.86	29.5
639.05	29.3
639.241	29.49
639.431	29.32
639.621	29.41
639.811	29.52
640.001	29.54
640.191	29.43
640.381	29.5
640.571	29.84
640.761	29.63
640.951	29.34
641.141	29.34
641.331	29.21
641.521	29.19
641.711	29.4
641.901	29.59
642.091	29.42
642.281	29.66
642.471	29.59
642.661	29.42
642.851	29.69
643.041	29.73
643.231	29.83
643.42	29.86
643.61	30.01
643.8	29.82
643.99	29.57
644.18	29.72
644.369	29.77
644.559	29.85
644.749	29.82
644.939	29.59
645.128	29.62
645.318	29.72
645.508	29.95
645.697	30.07
645.887	30.15
646.076	30.16
646.266	30.14
646.456	29.96
646.645	29.71
646.835	29.79
647.024	30.15
647.214	30.07
647.403	29.94
647.593	29.76
647.782	29.78
647.972	29.76
648.161	29.74
648.351	29.72
648.54	29.74
648.73	29.99
648.919	29.75
649.108	29.63
649.298	29.67
649.487	29.7
649.677	29.79
649.866	29.74
650.055	29.76
650.244	29.69
650.434	29.84
650.623	29.8
650.812	29.78
651.002	29.94
651.191	29.94
651.38	30.11
651.569	30.05
651.758	29.91
651.947	29.8
652.137	29.79
652.326	29.87
652.515	29.89
652.704	29.88
652.893	30.01
653.082	30.07
653.271	30.15
653.46	30.19
653.649	30.32
653.838	30.7
654.027	30.75
654.216	30.48
654.405	30.42
654.594	30.39
654.783	30.41
654.972	30.47
655.161	30.33
655.35	30.09
655.539	30.02
655.728	29.8
655.916	29.49
656.105	29.44
656.294	29.61
656.483	29.58
656.672	29.6
656.86	29.61
657.049	29.29
657.238	29.45
657.427	29.42
657.615	29.28
657.804	29.49
657.993	29.42
658.181	29.42
658.37	29.59
658.559	29.65
658.747	29.57
658.936	29.53
659.125	29.67
659.313	29.46
659.502	29.54
659.69	29.54
659.879	29.46
660.067	29.45
660.256	29.67
660.444	29.73
660.633	29.62
660.821	29.69
661.01	29.56
661.198	29.72
661.387	30
661.575	29.91
661.763	30.14
661.952	30.31
662.14	30.56
662.328	30.28
662.517	30.16
662.705	30.55
662.893	30.68
663.082	31.08
663.27	31.14
663.458	31
663.646	31.11
663.834	31.05
664.023	30.96
664.211	30.85
664.399	31.01
664.587	30.98
664.775	31.05
664.963	30.9
665.152	30.62
665.34	30.44
665.528	30.58
665.716	30.65
665.904	30.8
666.092	30.7
666.28	30.71
666.468	30.83
666.656	30.89
666.844	30.46
667.032	30.56
667.22	30.83
667.408	30.75
667.596	30.58
667.784	30.5
667.971	30.48
668.159	30.58
668.347	30.34
668.535	30.18
668.723	29.94
668.911	30.11
669.098	30.11
669.286	30.18
669.474	30.32
669.662	30.64
669.849	30.64
670.037	30.5
670.225	30.74
670.413	31.2
670.6	31.3
670.788	31.54
670.976	31.84
671.163	31.68
671.351	31.69
671.538	31.72
671.726	31.48
671.913	31.47
672.101	31.33
672.289	31.16
672.476	30.86
672.664	31.09
672.851	31.19
673.039	30.57
673.226	30.55
673.413	30.12
673.601	29.95
673.788	30.08
673.976	30.09
674.163	30.37
674.35	30.46
674.538	30.63
674.725	30.43
674.912	30.46
675.1	30.93
675.287	31.17
675.474	31.66
675.662	31.6
675.849	31.67
676.036	31.67
676.223	31.42
676.411	31.35
676.598	31.4
676.785	31.32
676.972	30.96
677.159	30.96
677.346	30.71
677.533	30.5
677.721	30.76
677.908	30.87
678.095	30.8
678.282	30.69
678.469	30.7
678.656	30.79
678.843	31
679.03	31.07
679.217	31.34
679.404	31.58
679.591	31.7
679.778	31.68
679.964	31.64
680.151	31.78
680.338	31.85
680.525	31.77
680.712	31.69
680.899	31.77
681.086	32.05
681.272	31.96
681.459	31.74
681.646	31.43
681.833	31.56
682.02	31.33
682.206	31.36
682.393	31.45
682.58	31.44
682.766	31.57
682.953	31.35
683.14	31.21
683.326	31.28
683.513	31.39
683.7	31.91
683.886	32.02
684.073	32.21
684.259	32.28
684.446	32.37
684.632	32.74
684.819	32.54
685.005	32.66
685.192	32.84
685.378	32.54
685.565	32.49
685.751	32.14
685.938	32
686.124	31.92
686.31	31.86
686.497	32.22
686.683	32.3
686.87	32.25
687.056	32.37
687.242	32.18
687.429	32.27
687.615	32.38
687.801	32.49
687.987	32.54
688.174	32.74
688.36	32.66
688.546	32.37
688.732	32.1
688.918	32.02
689.105	32.06
689.291	31.96
689.477	31.83
689.663	31.97
689.849	32.02
690.035	32.18
690.221	32.21
690.407	32.52
690.593	32.55
690.779	32.37
690.965	32.52
691.151	32.29
691.337	32.62
691.523	32.8
691.709	33.04
691.895	33.39
692.081	33.34
692.267	32.85
692.453	32.66
692.639	32.66
692.825	32.74
693.011	33.23
693.196	33.07
693.382	32.82
693.568	32.93
693.754	32.67
693.94	32.39
694.125	32.61
694.311	33.03
694.497	33.05
694.682	33.24
694.868	33.64
695.054	33.28
695.239	33.62
695.425	33.74
695.611	33.91
695.796	33.86
695.982	33.65
696.168	33.09
696.353	33.46
696.539	33.46
696.724	33.37
696.91	32.94
697.095	32.77
697.281	32.6
697.466	32.65
697.652	32.45
697.837	32.33
698.023	32.16
698.208	32.05
698.393	31.82
698.579	31.73
698.764	31.53
698.949	31.61
699.135	31.85
699.32	31.95
699.505	31.75
699.691	31.6
699.876	31.89
700.061	32.06
700.246	32.12
700.432	32.28
700.617	32.74
700.802	32.99
700.987	32.98
701.172	33.01
701.358	33.21
701.543	33.58
701.728	33.62
701.913	33.51
702.098	33.83
702.283	34.22
702.468	34.2
702.653	34.02
702.838	34.44
703.023	34.79
703.208	34.89
703.393	34.66
703.578	34.91
703.763	35.35
703.948	35.47
704.133	35.36
704.318	35.36
704.503	35.43
704.688	35.22
704.873	35.05
705.057	35.34
705.242	35.31
705.427	35.68
705.612	35.72
705.797	35.76
705.981	36.12
706.166	36.3
706.351	36.43
706.536	36.14
706.72	36.26
706.905	36.7
707.09	36.42
707.274	36.61
707.459	36.05
707.644	35.96
707.828	36.07
708.013	36.18
708.197	36.41
708.382	36.28
708.567	36.69
708.751	36.7
708.936	36.07
709.12	36.47
709.305	35.96
709.489	36.58
709.673	36.46
709.858	36.53
710.042	36.01
710.227	35.98
710.411	35.99
710.596	36.01
710.78	36.14
710.964	36.08
711.149	35.73
711.333	36.03
711.517	36.06
711.702	36.12
711.886	36.15
712.07	36.42
712.254	35.8
712.438	35.91
712.623	35.86
712.807	35.71
712.991	35.81
713.175	35.73
713.359	35.64
713.544	35.71
713.728	35.37
713.912	35.01
714.096	34.65
714.28	34.84
714.464	34.56
714.648	34.45
714.832	34.32
715.016	34.36
715.2	34.38
715.384	34.55
715.568	34.12
715.752	34.13
715.936	33.87
716.12	33.83
716.304	34
716.488	33.87
716.671	34.06
716.855	34.13
717.039	34.22
717.223	34.19
717.407	33.79
717.59	33.77
717.774	34.47
717.958	34.95
718.142	34.89
718.325	34.96
718.509	35.04
718.693	34.68
718.877	34.46
719.06	34.62
719.244	34.63
719.428	34.99
719.611	35
719.795	34.58
719.978	34.7
720.162	34.98
720.345	34.73
720.529	35.06
720.713	35.47
720.896	35.95
721.08	35.69
721.263	36.25
721.446	35.93
721.63	36.32
721.813	36.24
721.997	35.7
722.18	35.96
722.364	35.94
722.547	35.95
722.73	35.57
722.914	35.47
723.097	35.32
723.28	34.74
723.464	35.01
723.647	34.79
723.83	34.78
724.013	35.07
724.197	34.95
724.38	35.71
724.563	36.15
724.746	36.32
724.929	36.14
725.112	36.92
725.296	36.61
725.479	36.19
725.662	36.33
725.845	36.43
726.028	36.37
726.211	36.29
726.394	35.64
726.577	34.85
726.76	34.79
726.943	34.93
727.126	34.34
727.309	34.77
727.492	35.22
727.675	34.89
727.858	35.07
728.041	34.58
728.224	34.37
728.407	34.68
728.589	34.95
728.772	34.95
728.955	35.12
729.138	35.16
729.321	35.22
729.503	35.13
729.686	34.92
729.869	34.78
730.052	35.29
730.234	35.55
730.417	35.78
730.6	35.48
730.782	35.65
730.965	35.3
731.148	35.16
731.33	34.93
731.513	35
731.695	35.44
731.878	35.58
732.061	35.35
732.243	35.47
732.426	35.07
732.608	35.3
732.791	35.03
732.973	35.34
733.156	35.39
733.338	35.61
733.52	35.65
733.703	35.5
733.885	35.64
734.068	36.03
734.25	35.78
734.432	36.21
734.615	36.23
734.797	37.01
734.979	36.89
735.162	36.91
735.344	36.89
735.526	36.99
735.708	37.07
735.891	36.72
736.073	37.56
736.255	37.81
736.437	37.38
736.619	37.37
736.802	36.77
736.984	37.26
737.166	38.09
737.348	38.52
737.53	38.94
737.712	39.47
737.894	39.68
738.076	38.78
738.258	38.83
738.44	39.2
738.622	39.56
738.804	39.79
738.986	39.39
739.168	38.68
739.35	37.47
739.532	37.1
739.714	37
739.896	36.81
740.078	37.12
740.259	37.1
740.441	37.23
740.623	38.1
740.805	37.97
740.987	38.21
741.168	38.25
741.35	39.51
741.532	38.98
741.714	38.77
741.895	38.48
742.077	38.01
742.259	37.71
742.44	38.35
742.622	36.98
742.804	36.94
742.985	37.19
743.167	37.32
743.348	36.94
743.53	37.49
743.711	37.57
743.893	38.41
744.075	38.56
744.256	39.19
744.438	37.98
744.619	38.8
744.8	38.62
744.982	37.72
745.163	37.52
745.345	37.76
745.526	38.06
745.707	37.95
745.889	37.84
746.07	38.16
746.252	38.25
746.433	38.67
746.614	38.89
746.795	39.93
746.977	40.36
747.158	40.53
747.339	40.26
747.52	40.13
747.702	39.9
747.883	39.92
748.064	40.4
748.245	39.89
748.426	39.95
748.607	39.15
748.788	38.8
748.97	39.19
749.151	39.34
749.332	39.48
749.513	39.32
749.694	39.69
749.875	40.04
750.056	39.49
750.237	39.58
750.418	39.31
750.599	39.54
750.78	39.11
750.96	38.96
751.141	38.77
751.322	38.45
751.503	39.21
751.684	39.47
751.865	38.81
752.046	38.88
752.226	38.56
752.407	38.91
752.588	38.8
752.769	38.71
752.949	38.71
753.13	38.95
753.311	39.85
753.492	39.43
753.672	38.94
753.853	38.75
754.034	38.37
754.214	39.13
754.395	39.2
754.575	39.72
754.756	39.54
754.937	40.02
755.117	40.04
755.298	39.85
755.478	38.58
755.659	39.34
755.839	39.58
756.02	40.18
756.2	40.55
756.381	40.46
756.561	40.17
756.741	40.53
756.922	40.31
757.102	40.55
757.283	40.8
757.463	41.05
757.643	41.16
757.823	40.61
758.004	39.63
758.184	39.05
758.364	39.04
758.545	38.73
758.725	39.33
758.905	38.82
759.085	38.14
759.265	37.42
759.446	38
759.626	37.09
759.806	36.97
759.986	38.06
760.166	38.11
760.346	37.6
760.526	37.68
760.706	37.02
760.886	37.16
761.066	37.48
761.246	38.01
761.426	37.85
761.606	37.66
761.786	38.32
761.966	37.33
762.146	36.83
762.326	36.57
762.506	36.58
762.686	36.24
762.866	36.12
763.046	36.08
763.225	35.86
763.405	35.59
763.585	35.56
763.765	35.7
763.945	35.83
764.124	35.99
764.304	36.25
764.484	36.14
764.664	36.13
764.843	36.16
765.023	36.47
765.203	36.29
765.382	36.84
765.562	37.36
765.741	37.35
765.921	37.73
766.101	38.54
766.28	38.44
766.46	38.53
766.639	38.89
766.819	38.99
766.998	39.52
767.178	39.55
767.357	39.69
767.537	40.14
767.716	40.48
767.896	40.89
768.075	40.09
768.254	40.63
768.434	40.8
768.613	41.63
768.792	42.23
768.972	41.49
769.151	41.96
769.33	42.2
769.51	42.06
769.689	41.51
769.868	41.21
770.047	41.49
770.226	41.94
770.406	42.99
770.585	41.69
770.764	41.05
770.943	41.58
771.122	42.32
771.301	42.55
771.48	42
771.66	42.27
771.839	42.76
772.018	43.57
772.197	43.94
772.376	44.05
772.555	45.07
772.734	45.7
772.913	45.24
773.092	45.33
773.271	44.57
773.449	44.94
773.628	45
773.807	45.43
773.986	44.86
774.165	43.74
774.344	43.52
774.523	43.8
774.701	43.93
774.88	45.25
775.059	44.36
775.238	45
775.417	44.92
775.595	44.74
775.774	44.46
775.953	44.81
776.131	45.65
776.31	45.66
776.489	45.32
776.667	45.58
776.846	45.15
777.025	45.39
777.203	45.22
777.382	45.45
777.56	46.43
777.739	45.44
777.917	44.83
778.096	44.84
778.274	43.76
778.453	44.05
778.631	43.08
778.81	42.57
778.988	41.8
779.166	41.84
779.345	41.28
779.523	40.93
779.702	41.22
779.88	41.68
780.058	41.14
780.237	41.3
780.415	41.24
780.593	42.49
780.771	41.3
780.95	43.23
781.128	42.85
781.306	43.03
781.484	43.56
781.662	44.15
781.841	43.97
782.019	44.37
782.197	44.9
782.375	44.11
782.553	44.12
782.731	44.74
782.909	44.47
783.087	44.47
783.265	45.5
783.443	45.17
783.621	45.32
783.799	45.76
783.977	46.69
784.155	46.14
784.333	47.67
784.511	47.21
784.689	46.83
784.867	45.84
785.045	45.91
785.223	44.15
785.4	43.68
785.578	43.47
785.756	43.06
785.934	41.71
786.112	41.97
786.289	41.27
786.467	41.28
786.645	41.82
786.823	41.98
787	42.21
787.178	42.3
787.356	41.84
787.533	41.8
787.711	41.39
787.889	41.79
788.066	41.67
788.244	42.11
788.421	41.23
788.599	41.85
788.776	41.4
788.954	41.73
789.131	43.34
789.309	44.15
789.486	43.94
789.664	44.39
789.841	43.8
790.019	42.62
790.196	42.03
790.373	43.04
790.551	42.52
790.728	43.26
790.906	43.38
791.083	42.51
791.26	42.18
791.437	42.85
791.615	42.71
791.792	43.83
791.969	45.78
792.146	45.26
792.324	46.18
792.501	46.7
792.678	47.09
792.855	47.25
793.032	47.2
793.209	47.42
793.387	46.11
793.564	46.01
793.741	45.06
793.918	45
794.095	44.9
794.272	43.68
794.449	43.32
794.626	42.01
794.803	41.26
794.98	40.74
795.157	41.41
795.334	42.41
795.511	42.71
795.688	42.03
795.864	41.59
796.041	42.06
796.218	43.11
796.395	43.34
796.572	42.99
796.749	43.61
796.925	44.25
797.102	44.31
797.279	45.04
797.456	44.46
797.632	46.18
797.809	46.51
797.986	46.45
798.162	44.86
798.339	44.75
798.516	45.39
798.692	45.15
798.869	44.98
799.046	43.64
799.222	42
799.399	42.71
799.575	42.67
799.752	41.92
799.928	42.05
800.105	42.84
800.281	43.03
800.458	44.05
800.634	44.52
800.811	45.21
800.987	45.94
801.163	45.98
801.34	45.72
801.516	45.74
801.692	47.01
801.869	47.78
802.045	47.18
802.221	46.45
802.398	45.82
802.574	46.1
802.75	45.56
802.926	45.51
803.103	46.75
803.279	46.68
803.455	45.08
803.631	45.06
803.807	43.52
803.983	43.55
804.16	44.81
804.336	44.41
804.512	43.42
804.688	44
804.864	44.3
805.04	43.39
805.216	43.65
805.392	44.47
805.568	44.51
805.744	45.68
805.92	46.01
806.096	45.26
806.272	46.91
806.448	47.64
806.623	48.34
806.799	49.41
806.975	49.69
807.151	49.17
807.327	48.75
807.503	48.81
807.678	48.76
807.854	48.64
808.03	48.24
808.206	46.97
808.381	45.48
808.557	45.02
808.733	42.38
808.908	41.26
809.084	41.57
809.26	42.04
809.435	42.8
809.611	41.06
809.787	41.81
809.962	42.86
810.138	41.63
810.313	42.54
810.489	39.78
810.664	38.97
810.84	41.04
811.015	40.87
811.191	39.06
811.366	38.89
811.542	40.23
811.717	39.63
811.892	38.79
812.068	38.91
812.243	38.87
812.419	40.88
812.594	44.18
812.769	43.97
812.944	45.24
813.12	48.6
813.295	46.83
813.47	47.04
813.645	46.65
813.821	47.2
813.996	48.51
814.171	48.17
814.346	47.09
814.521	45.96
814.697	43.74
814.872	43.31
815.047	42.22
815.222	42.88
815.397	41.38
815.572	43.22
815.747	43.22
815.922	41.95
816.097	40.79
816.272	40.3
816.447	39.23
816.622	40.15
816.797	39.68
816.972	38.68
817.147	37.87
817.322	39.03
817.496	37.47
817.671	37.12
817.846	39.04
818.021	40.71
818.196	41.29
818.371	41.3
818.545	40.72
818.72	40.07
818.895	41.28
819.069	41.71
819.244	40.8
819.419	40.82
819.594	39.99
819.768	37.91
819.943	37.06
820.117	36.97
820.292	36.56
820.467	36.1
820.641	36.24
820.816	35.05
820.99	34.71
821.165	34.41
821.339	33.69
821.514	33.07
821.688	33.22
821.863	33.13
822.037	32.67
822.212	32.37
822.386	32.17
822.56	31.83
822.735	31.75
822.909	31.52
823.084	31.51
823.258	31.55
823.432	31.53
823.606	31.52
823.781	31.3
823.955	31.51
824.129	31.66
824.303	32
824.478	31.99
824.652	32.3
824.826	32.41
825	32.62
825.174	32.92
825.348	33.82
825.523	34.27
825.697	34.67
825.871	35.03
826.045	35.12
826.219	35.07
826.393	35.82
826.567	35.57
826.741	36.26
826.915	36.22
827.089	35.95
827.263	35.93
827.437	35.48
827.611	35.39
827.784	35.54
827.958	35.87
828.132	36.32
828.306	35.91
828.48	36.23
828.654	36.73
828.827	36.68
829.001	37.63
829.175	37.67
829.349	37.87
829.522	38.46
829.696	38.76
829.87	39.71
830.044	39.2
830.217	39.2
830.391	38.24
830.565	36.29
830.738	36.84
830.912	36.07
831.085	36.15
831.259	36.21
831.432	35
831.606	36.34
831.779	35
831.953	35.48
832.126	36.24
832.3	37.36
832.473	37.94
832.647	38.22
832.82	37.89
832.994	37.89
833.167	37.86
833.34	38.89
833.514	38.49
833.687	38.37
833.86	37.66
834.034	36.74
834.207	36.88
834.38	37.07
834.553	37.13
834.727	37.64
834.9	37.31
835.073	36.45
835.246	36.93
835.419	36.69
835.593	37.51
835.766	38.79
835.939	40.78
836.112	41.17
836.285	40.67
836.458	40.41
836.631	40
836.804	40.75
836.977	43.62
837.15	43.91
837.323	44.44
837.496	42.94
837.669	42.6
837.842	41.63
838.015	44.27
838.188	46.06
838.361	46.77
838.533	47.69
838.706	47.82
838.879	50.55
839.052	50.48
839.225	48.74
839.398	50.25
839.57	48.87
839.743	48.91
839.916	47.51
840.088	49.2
840.261	49.29
840.434	50.32
840.607	50.25
840.779	47.93
840.952	46.23
841.124	49.22
841.297	49.31
841.47	51.9
841.642	52.68
841.815	52.02
841.987	48.95
842.16	48.93
842.332	49.13
842.505	49.19
842.677	48.93
842.85	49.57
843.022	47.83
843.194	48.67
843.367	48.76
843.539	49.7
843.712	50.87
843.884	54.37
844.056	56.1
844.229	52.26
844.401	51.42
844.573	51.02
844.745	50.32
844.918	50.77
845.09	49.95
845.262	49.96
845.434	47.69
845.606	49.04
845.779	48.25
845.951	48.95
846.123	51.92
846.295	55.56
846.467	56.55
846.639	61.27
846.811	59.54
846.983	63.8
847.155	61.21
847.327	64.74
847.499	62.99
847.671	64.75
847.843	64.79
848.015	68.39
848.187	67.13
848.359	69.32
848.531	66.87
848.703	68.36
848.875	65.22
849.047	67.58
849.218	68.26
849.39	69.73
849.562	67.32
849.734	64.75
849.905	61.93
850.077	65.21
850.249	61.2
850.421	63.71
850.592	62.32
850.764	64.29
850.936	63.82
851.107	61.91
851.279	59.82
851.451	58.54
851.622	60.74
851.794	57.19
851.965	59.73
852.137	65.67
852.308	64.86
852.48	68.44
852.651	70.54
852.823	73.25
852.994	71.25
853.166	73.77
853.337	78.16
853.509	79.68
853.68	80.04
853.851	76.7
854.023	70.86
854.194	67.78
854.365	67.88
854.537	66.2
854.708	65.73
854.879	68
855.05	66.95
855.222	63.73
855.393	61.78
855.564	62.07
855.735	56.15
855.906	60.48
856.078	58.44
856.249	56.53
856.42	53.62
856.591	52.33
856.762	51.37
856.933	48.11
857.104	48.12
857.275	49.05
857.446	52.77
857.617	57.73
857.788	53.74
857.959	57.97
858.13	60.58
858.301	62.8
858.472	60.3
858.643	58.83
858.814	60.23
858.985	63.44
859.155	61.57
859.326	59.61
859.497	59.51
859.668	62.08
859.839	60.16
860.009	56.7
860.18	57.59
860.351	58.04
860.522	61.69
860.692	64.53
860.863	62.47
861.034	63.52
861.204	62.67
861.375	63.63
861.546	63.32
861.716	62.18
861.887	66.71
862.057	66.59
862.228	72.06
862.398	70.92
862.569	71.22
862.739	71.27
862.91	69.58
863.08	71.26
863.251	68.76
863.421	69.77
863.592	72.05
863.762	66.23
863.932	65.69
864.103	63.12
864.273	66.66
864.443	66.52
864.614	66.43
864.784	67.44
864.954	64.97
865.125	70.8
865.295	72.09
865.465	67.57
865.635	70.77
865.805	72.7
865.976	74.52
866.146	71.04
866.316	69.51
866.486	67.1
866.656	68.75
866.826	68.05
866.996	61.48
867.166	58.25
867.336	62.4
867.506	62.13
867.676	56.08
867.846	57.83
868.016	55.99
868.186	55.93
868.356	56.26
868.526	57.46
868.696	57.72
868.866	59.99
869.036	58.56
869.206	57.77
869.376	58.56
869.545	61.87
869.715	57.33
869.885	56.28
870.055	58.49
870.224	63.14
870.394	60.8
870.564	62.31
870.734	63.95
870.903	64.1
871.073	67.47
871.243	65.81
871.412	66.48
871.582	68.59
871.751	71.6
871.921	69.59
872.091	66.92
872.26	65.53
872.43	67.53
872.599	65.93
872.769	63.78
872.938	62.87
873.108	64.62
873.277	62.7
873.446	62.94
873.616	63.59
873.785	61.16
873.955	60.45
874.124	60
874.293	57.25
874.463	56.05
874.632	57.91
874.801	53.84
874.971	52.58
875.14	55.61
875.309	49.71
875.478	48.33
875.647	49.73
875.817	51.83
875.986	49.7
876.155	52.18
876.324	55.08
876.493	54.8
876.662	58.27
876.831	55.19
877	55.06
877.17	56.47
877.339	55.38
877.508	57.25
877.677	52.09
877.846	56.3
878.015	51.95
878.184	49.47
878.352	49.25
878.521	47.68
878.69	50.95
878.859	49.42
879.028	52.48
879.197	53.36
879.366	49.64
879.534	49.49
879.703	46.91
879.872	47.2
880.041	44.07
880.21	42.92
880.378	41.17
880.547	39.55
880.716	38.15
880.884	36.46
881.053	35.08
881.222	35.06
881.39	34.68
881.559	34.21
881.727	33.64
881.896	33.56
882.065	34.04
882.233	34.3
882.402	33.39
882.57	33.25
882.739	33.38
882.907	33.99
883.076	33.7
883.244	34.02
883.412	34.59
883.581	35.1
883.749	35.45
883.918	34.77
884.086	35.15
884.254	36.42
884.423	36.72
884.591	36.64
884.759	36.87
884.927	38.22
885.096	38.9
885.264	39.64
885.432	40.21
885.6	41.99
885.769	43.25
885.937	43.87
886.105	43.89
886.273	45.38
886.441	48.86
886.609	50.1
886.777	50.01
886.945	49.69
887.113	50.31
887.281	50.68
887.449	51.56
887.617	54.96
887.785	55.14
887.953	61.84
888.121	61.82
888.289	61.2
888.457	62.5
888.625	65.05
888.793	67.53
888.961	67.33
889.129	70.81
889.296	72.4
889.464	70.23
889.632	73.01
889.8	69.32
889.967	71.77
890.135	73.61
