Data from 2938840__Reflection_01.txt Node
Date: Wed Mar 11 15:44:00 EDT 2015
User: robert
Spectrometer: USB4E03002
Autoset integration time: false
Trigger mode: 4
Integration Time (sec): 1.000000E-1
Scans to average: 10
Electric dark correction enabled: false
Nonlinearity correction enabled: false
Boxcar width: 5
Stray light correction enabled: false
XAxis mode: Wavelengths
Stop averaging: false
Number of Pixels in Spectrum: 3648
>>>>>Begin Spectral Data<<<<<
177.575	915.56
177.794	323.33
178.014	376.76
178.233	425
178.452	1074.19
178.672	1309.37
178.891	1507.69
179.11	-6228.57
179.33	-294.21
179.549	-270.56
179.768	-442.38
179.987	-396.7
180.207	-470.51
180.426	-340.64
180.645	-413.97
180.864	-507.97
181.084	-307.32
181.303	-140.87
181.522	-87.56
181.741	-747.5
181.96	387.84
182.179	421.28
182.398	548
182.618	-124.49
182.837	-275.25
183.056	-217.01
183.275	-137.04
183.494	-109.93
183.713	-592.54
183.932	-278.64
184.151	-174.44
184.37	9375
184.589	1252.5
184.808	324.8
185.027	268.84
185.246	237
185.465	136.8
185.684	120.9
185.903	95.85
186.122	166.32
186.341	195.08
186.56	94.27
186.779	145.27
186.998	131.62
187.216	136.78
187.435	130.18
187.654	181.5
187.873	85.1
188.092	85.39
188.311	150.4
188.53	93.26
188.748	129.87
188.967	273.02
189.186	-95.62
189.405	-33.73
189.623	-10.27
189.842	-68.56
190.061	-361.54
190.28	-191.61
190.498	-69.93
190.717	-56.03
190.936	5.28
191.154	18.27
191.373	-34.81
191.592	230.86
191.81	210.71
192.029	114.57
192.248	155.7
192.466	90
192.685	78.11
192.904	100.2
193.122	83.19
193.341	110.8
193.559	96.48
193.778	81.82
193.996	103.42
194.215	114.8
194.433	102.1
194.652	124.43
194.87	203.9
195.089	151.91
195.307	50
195.526	119.84
195.744	450
195.963	-494.74
196.181	150.33
196.399	58.27
196.618	50.93
196.836	79.6
197.055	64.47
197.273	61.24
197.491	77.67
197.71	77.99
197.928	62.5
198.146	6.76
198.365	53.74
198.583	68.93
198.801	51.57
199.019	82.21
199.238	-0.84
199.456	-10.37
199.674	-386.79
199.892	205.63
200.111	164.31
200.329	202.93
200.547	170.77
200.765	105.17
200.983	92.06
201.202	92.75
201.42	81.74
201.638	51.77
201.856	56.02
202.074	49.53
202.292	81.07
202.51	119.81
202.728	108.55
202.946	239.16
203.165	363.64
203.383	258.29
203.601	411.97
203.819	223.16
204.037	249.21
204.255	593.68
204.473	270.52
204.691	282.5
204.909	124.62
205.127	112.52
205.345	84.54
205.562	81.08
205.78	84.93
205.998	85.27
206.216	97.95
206.434	70.58
206.652	69.41
206.87	70.13
207.088	37.73
207.306	33.92
207.523	44.28
207.741	101.3
207.959	-140.68
208.177	-2.54
208.395	63.23
208.612	53.95
208.83	24.32
209.048	78.87
209.266	113.81
209.483	58.45
209.701	27.5
209.919	-1.33
210.136	52.63
210.354	-168.57
210.572	35.14
210.79	106.03
211.007	90.91
211.225	214.29
211.442	246.32
211.66	158.57
211.878	154.13
212.095	602.35
212.313	395.65
212.53	431.88
212.748	440.55
212.966	286.34
213.183	234.26
213.401	206.54
213.618	225.17
213.836	206.58
214.053	178.08
214.271	172.09
214.488	33.63
214.705	55.28
214.923	68.18
215.14	60.77
215.358	61.05
215.575	57.18
215.793	49.75
216.01	52.38
216.227	36.26
216.445	29.96
216.662	34.88
216.879	42.13
217.097	44.73
217.314	45.08
217.531	56.97
217.749	59.76
217.966	48.48
218.183	47.3
218.4	42.33
218.618	44.8
218.835	42.59
219.052	46.97
219.269	38.72
219.487	35.84
219.704	30.84
219.921	20.26
220.138	19.56
220.355	20.44
220.572	15.47
220.79	16.43
221.007	18.38
221.224	27.33
221.441	15.92
221.658	23.18
221.875	21.71
222.092	24.01
222.309	23.62
222.526	20.91
222.743	16.88
222.96	21.64
223.177	24.83
223.394	23.9
223.611	20.15
223.828	22.48
224.045	21.06
224.262	20.21
224.479	17.79
224.696	19.21
224.913	15.78
225.13	14
225.347	8.73
225.564	2.29
225.781	-0.36
225.997	2.01
226.214	3.85
226.431	1.51
226.648	2.88
226.865	3.09
227.082	3.07
227.298	2.36
227.515	3.87
227.732	4.74
227.949	5.17
228.165	5.55
228.382	4.94
228.599	5.33
228.816	5.2
229.032	3.95
229.249	2.98
229.466	2.95
229.682	2.64
229.899	2.62
230.116	2.39
230.332	2.94
230.549	3.23
230.765	3.01
230.982	0.41
231.199	-0.36
231.415	-0.22
231.632	-0.52
231.848	-1.78
232.065	-0.28
232.281	0.35
232.498	0.11
232.714	-0.26
232.931	-1.11
233.147	-1.75
233.364	0.75
233.58	1.89
233.797	3.07
234.013	4.32
234.23	4.91
234.446	2.8
234.662	-0.14
234.879	-0.83
235.095	-0.98
235.312	-1.59
235.528	-0.02
235.744	-0.94
235.961	-0.69
236.177	-1.98
236.393	-1.83
236.61	-1.58
236.826	0.16
237.042	2.01
237.258	1.5
237.475	0.36
237.691	-0.66
237.907	-2.26
238.123	-0.47
238.339	-1.2
238.556	0.94
238.772	2.61
238.988	2.39
239.204	3.36
239.42	2.62
239.636	3.38
239.853	4.86
240.069	6.29
240.285	6.23
240.501	4.83
240.717	5.74
240.933	6.32
241.149	4.8
241.365	5.69
241.581	5.76
241.797	6.4
242.013	7.15
242.229	6.65
242.445	6.38
242.661	6.19
242.877	6.8
243.093	6.05
243.309	5.28
243.525	5.69
243.741	5.14
243.957	4.54
244.173	4.37
244.388	3.91
244.604	3.74
244.82	3.8
245.036	4.24
245.252	4.3
245.468	4.6
245.683	5.05
245.899	5.6
246.115	5.47
246.331	5.41
246.547	5.51
246.762	5.5
246.978	5.74
247.194	5.58
247.409	5.51
247.625	5.64
247.841	5.83
248.057	5.75
248.272	5.74
248.488	5.78
248.703	5.78
248.919	5.67
249.135	5.2
249.35	4.93
249.566	5.33
249.782	5.19
249.997	4.57
250.213	4.36
250.428	3.98
250.644	3.29
250.859	3.52
251.075	3.99
251.29	3.83
251.506	3.94
251.721	3.88
251.937	3.26
252.152	2.96
252.368	2.83
252.583	2.96
252.798	2.68
253.014	2.49
253.229	1.8
253.445	1.79
253.66	1.77
253.875	2.37
254.091	3.03
254.306	3.45
254.521	3.56
254.737	4.38
254.952	4.09
255.167	4.99
255.383	6.51
255.598	6.49
255.813	6.24
256.028	5.7
256.244	4.89
256.459	3.82
256.674	3.99
256.889	5.05
257.104	3.58
257.32	3.94
257.535	3.52
257.75	2.86
257.965	3.45
258.18	3.41
258.395	3.94
258.61	4.15
258.826	4.38
259.041	4.21
259.256	3.96
259.471	4.33
259.686	4.24
259.901	4.15
260.116	4.11
260.331	4.07
260.546	3.93
260.761	3.74
260.976	3.59
261.191	3.68
261.406	3.59
261.621	3.68
261.836	3.55
262.05	3.56
262.265	3.54
262.48	3.36
262.695	2.98
262.91	2.86
263.125	2.3
263.34	2.34
263.555	1.7
263.769	1.7
263.984	1.61
264.199	1.35
264.414	0.81
264.629	1.29
264.843	1.59
265.058	2.14
265.273	2.93
265.488	3.54
265.702	3.43
265.917	3.87
266.132	4.22
266.346	4.01
266.561	4.38
266.776	4.67
266.99	4.59
267.205	4.29
267.42	4.22
267.634	3.8
267.849	4.1
268.063	4.07
268.278	4.42
268.492	3.84
268.707	3.61
268.922	3.64
269.136	3.44
269.351	3.58
269.565	3.5
269.78	3.17
269.994	3.02
270.209	2.79
270.423	2.9
270.637	2.7
270.852	3.15
271.066	2.9
271.281	2.95
271.495	2.9
271.709	2.76
271.924	3.21
272.138	3.36
272.353	3.34
272.567	3.51
272.781	3.67
272.996	3.36
273.21	3
273.424	3.12
273.638	2.89
273.853	3.15
274.067	3.03
274.281	2.95
274.495	2.8
274.71	2.68
274.924	2.19
275.138	1.91
275.352	1.79
275.566	1.99
275.781	2.72
275.995	2.84
276.209	3.07
276.423	3.23
276.637	3.06
276.851	3.02
277.065	3.57
277.279	3.49
277.493	3.7
277.707	3.65
277.921	3.64
278.135	2.84
278.349	3.03
278.563	2.79
278.777	2.57
278.991	2.72
279.205	2.99
279.419	2.48
279.633	2.76
279.847	2.45
280.061	2.64
280.275	2.66
280.489	3.2
280.703	2.87
280.917	3.02
281.131	2.98
281.344	2.87
281.558	2.61
281.772	3.08
281.986	3.26
282.2	3.4
282.414	3.56
282.627	3.45
282.841	3.33
283.055	3.44
283.269	3.15
283.482	3.27
283.696	3.29
283.91	3.65
284.123	3.76
284.337	3.6
284.551	3.32
284.764	3.55
284.978	3.49
285.192	3.46
285.405	3.32
285.619	3.53
285.833	3.43
286.046	3.42
286.26	3.37
286.473	3.01
286.687	3.1
286.9	3.36
287.114	3.38
287.327	3.69
287.541	3.57
287.754	3.79
287.968	3.67
288.181	3.73
288.395	3.97
288.608	3.76
288.822	3.63
289.035	3.23
289.248	3.23
289.462	2.79
289.675	2.84
289.889	3.19
290.102	3.13
290.315	3.18
290.529	3.59
290.742	3.46
290.955	3.77
291.169	4.14
291.382	4.8
291.595	4.91
291.808	4.99
292.022	4.78
292.235	4.85
292.448	4.76
292.661	4.83
292.875	4.72
293.088	4.68
293.301	4.88
293.514	4.43
293.727	3.99
293.94	4.12
294.153	4.34
294.367	4.36
294.58	4.1
294.793	4.31
295.006	4.33
295.219	4.2
295.432	4.23
295.645	4.1
295.858	4.56
296.071	4.82
296.284	4.7
296.497	4.6
296.71	4.79
296.923	4.83
297.136	4.8
297.349	4.79
297.562	4.85
297.775	4.73
297.988	4.75
298.201	4.76
298.414	4.7
298.626	4.79
298.839	4.83
299.052	4.54
299.265	4.29
299.478	4.37
299.691	4.34
299.903	4.46
300.116	4.67
300.329	4.74
300.542	4.66
300.755	4.71
300.967	4.78
301.18	4.87
301.393	5.03
301.605	5.38
301.818	5.3
302.031	5.07
302.243	4.86
302.456	4.92
302.669	4.82
302.881	4.95
303.094	4.93
303.307	5.28
303.519	5.28
303.732	5.47
303.944	5.71
304.157	6.11
304.37	6.21
304.582	6.22
304.795	6.23
305.007	6.3
305.22	5.97
305.432	6
305.645	5.86
305.857	6.01
306.069	6.18
306.282	5.77
306.494	5.38
306.707	5.67
306.919	5.58
307.132	5.52
307.344	5.45
307.556	5.82
307.769	6.06
307.981	5.91
308.193	5.84
308.406	5.73
308.618	5.79
308.83	6.25
309.043	6.08
309.255	6.16
309.467	6.24
309.679	6.29
309.892	6.19
310.104	6.04
310.316	6.06
310.528	6.08
310.74	6.16
310.953	6.2
311.165	5.93
311.377	6.14
311.589	6.21
311.801	6.16
312.013	6.1
312.225	6.2
312.437	5.94
312.649	6.02
312.862	5.88
313.074	5.76
313.286	5.92
313.498	5.79
313.71	5.78
313.922	5.75
314.134	5.88
314.346	5.94
314.558	5.57
314.77	6.15
314.982	6.39
315.193	6.67
315.405	6.35
315.617	6.34
315.829	6.38
316.041	6.19
316.253	6.41
316.465	6.51
316.677	6.85
316.888	6.93
317.1	6.88
317.312	6.21
317.524	5.82
317.736	6.05
317.947	6.22
318.159	6.36
318.371	6.61
318.583	6.5
318.794	6.37
319.006	6.08
319.218	6.52
319.43	6.35
319.641	6.97
319.853	7.46
320.064	7.59
320.276	7.3
320.488	7.29
320.699	6.99
320.911	6.98
321.123	6.89
321.334	6.79
321.546	6.76
321.757	7.3
321.969	7.23
322.18	7.45
322.392	7.76
322.603	8.07
322.815	8.45
323.026	9.06
323.238	9.25
323.449	9.64
323.661	9.4
323.872	9.31
324.083	9
324.295	9.21
324.506	8.92
324.718	8.55
324.929	8.72
325.14	8.95
325.352	8.57
325.563	8.9
325.774	8.51
325.986	9.06
326.197	9.42
326.408	9.89
326.62	9.96
326.831	10.43
327.042	11.14
327.253	11.28
327.464	11.15
327.676	11.45
327.887	11.61
328.098	12.15
328.309	12.53
328.52	12.7
328.732	12.27
328.943	12.37
329.154	12.47
329.365	12.19
329.576	12.28
329.787	12.41
329.998	12.59
330.209	12.64
330.42	12.72
330.631	12.6
330.842	12.66
331.053	12.99
331.264	13.4
331.475	13.58
331.686	14.32
331.897	14.35
332.108	14.74
332.319	14.83
332.53	14.74
332.741	15.18
332.952	15.36
333.163	15.34
333.374	15.44
333.585	15.11
333.795	14.94
334.006	14.93
334.217	15.04
334.428	14.9
334.639	14.98
334.849	14.81
335.06	14.44
335.271	14.26
335.482	14.75
335.692	14.58
335.903	15.02
336.114	15.04
336.325	14.75
336.535	14.72
336.746	14.95
336.957	15.01
337.167	15.18
337.378	15.37
337.589	15.49
337.799	15.31
338.01	15.32
338.22	14.8
338.431	14.85
338.642	14.81
338.852	14.82
339.063	14.54
339.273	14.49
339.484	14.5
339.694	14.37
339.905	14.26
340.115	13.83
340.326	14.19
340.536	14.4
340.746	14.35
340.957	14.48
341.167	14.46
341.378	14.46
341.588	14.57
341.799	14.99
342.009	15.24
342.219	15.29
342.43	15.55
342.64	15.48
342.85	15.26
343.061	15.34
343.271	15.17
343.481	15.26
343.691	15.08
343.902	14.97
344.112	14.37
344.322	14.27
344.532	14.26
344.743	14.31
344.953	14.03
345.163	14.35
345.373	14.09
345.583	14.03
345.793	14.16
346.004	14.45
346.214	14.28
346.424	14.41
346.634	14.24
346.844	14.44
347.054	14.28
347.264	14.38
347.474	14.14
347.684	14.47
347.894	14.52
348.104	14.5
348.314	14.25
348.524	14.6
348.734	14.67
348.944	14.81
349.154	14.79
349.364	14.94
349.574	15
349.784	15.13
349.994	15.05
350.204	15.15
350.413	14.97
350.623	15.11
350.833	14.73
351.043	14.52
351.253	14.26
351.463	14.3
351.672	14.12
351.882	14.22
352.092	14.31
352.302	14.3
352.511	14.37
352.721	14.08
352.931	13.97
353.141	14.07
353.35	14.3
353.56	14.34
353.77	14.21
353.979	14.26
354.189	14.01
354.399	14.05
354.608	13.95
354.818	13.93
355.027	14.19
355.237	14.26
355.447	14.19
355.656	13.85
355.866	13.92
356.075	14.07
356.285	14.29
356.494	14.35
356.704	14.24
356.913	14.31
357.123	14
357.332	14.19
357.542	13.98
357.751	14.36
357.96	14.61
358.17	14.55
358.379	14.37
358.589	14.03
358.798	14.03
359.007	13.91
359.217	13.9
359.426	14.21
359.635	14
359.845	14.01
360.054	13.84
360.263	13.76
360.472	13.65
360.682	13.7
360.891	13.75
361.1	13.93
361.309	13.9
361.519	13.82
361.728	13.56
361.937	13.48
362.146	13.65
362.355	13.67
362.564	13.54
362.774	13.84
362.983	13.81
363.192	13.88
363.401	13.72
363.61	13.85
363.819	13.89
364.028	13.99
364.237	13.94
364.446	13.68
364.655	13.57
364.864	13.81
365.073	13.38
365.282	13.31
365.491	13.09
365.7	12.97
365.909	12.86
366.118	12.97
366.327	12.99
366.536	13.12
366.745	13.31
366.954	13.16
367.162	13.16
367.371	13.12
367.58	13.13
367.789	13.35
367.998	13.48
368.207	13.61
368.415	13.55
368.624	13.29
368.833	13.33
369.042	13.15
369.25	12.98
369.459	12.83
369.668	12.81
369.877	12.66
370.085	12.26
370.294	12.14
370.503	11.98
370.711	11.71
370.92	12.05
371.129	11.67
371.337	11.71
371.546	11.76
371.754	11.6
371.963	11.72
372.171	11.62
372.38	11.7
372.589	11.63
372.797	11.54
373.006	11.38
373.214	11.21
373.423	11.21
373.631	10.94
373.84	10.74
374.048	10.86
374.256	10.81
374.465	10.94
374.673	11.04
374.882	10.89
375.09	10.54
375.298	10.63
375.507	10.44
375.715	10.35
375.923	10.46
376.132	10.68
376.34	10.52
376.548	10.36
376.757	10.15
376.965	9.93
377.173	9.91
377.381	10.11
377.59	10.14
377.798	10.13
378.006	10.16
378.214	10.11
378.423	9.93
378.631	9.87
378.839	9.87
379.047	9.94
379.255	10.02
379.463	9.92
379.671	9.58
379.879	9.35
380.088	9.42
380.296	9.45
380.504	9.41
380.712	9.46
380.92	9.52
381.128	9.59
381.336	9.37
381.544	9.14
381.752	9.33
381.96	9.52
382.168	9.6
382.376	9.45
382.584	9.41
382.791	9.27
382.999	9.21
383.207	9
383.415	8.93
383.623	9.03
383.831	8.88
384.039	8.79
384.247	8.75
384.454	8.74
384.662	8.6
384.87	8.62
385.078	8.45
385.285	8.28
385.493	8.4
385.701	8.34
385.909	8.21
386.116	8.4
386.324	8.35
386.532	8.13
386.739	8.03
386.947	8.05
387.155	7.87
387.362	8.12
387.57	8.18
387.778	8.17
387.985	8.1
388.193	8.14
388.4	7.9
388.608	7.82
388.816	7.86
389.023	7.8
389.231	7.84
389.438	7.81
389.646	7.73
389.853	7.7
390.061	7.6
390.268	7.47
390.475	7.31
390.683	7.47
390.89	7.59
391.098	7.45
391.305	7.64
391.512	7.78
391.72	7.87
391.927	7.74
392.135	7.71
392.342	7.77
392.549	7.87
392.756	7.74
392.964	7.64
393.171	7.49
393.378	7.7
393.586	7.45
393.793	7.15
394	7
394.207	7.12
394.414	7.12
394.622	6.89
394.829	6.88
395.036	7.06
395.243	7.08
395.45	7.03
395.657	6.72
395.864	6.69
396.072	6.8
396.279	6.87
396.486	6.74
396.693	6.71
396.9	6.92
397.107	6.77
397.314	6.86
397.521	6.94
397.728	6.88
397.935	7.1
398.142	7.02
398.349	6.9
398.556	6.96
398.763	7.02
398.97	6.98
399.177	6.73
399.383	6.78
399.59	6.46
399.797	6.42
400.004	6.33
400.211	6.38
400.418	6.49
400.625	6.33
400.831	6.21
401.038	6.22
401.245	6.1
401.452	6.24
401.658	6.18
401.865	6.33
402.072	6.18
402.279	6.22
402.485	5.9
402.692	5.91
402.899	6.01
403.105	6
403.312	5.91
403.519	5.84
403.725	5.74
403.932	5.67
404.138	5.68
404.345	5.67
404.552	5.73
404.758	5.8
404.965	5.76
405.171	5.83
405.378	5.93
405.584	5.82
405.791	5.79
405.997	5.67
406.204	5.77
406.41	5.64
406.617	5.77
406.823	5.65
407.029	5.83
407.236	5.7
407.442	5.61
407.649	5.47
407.855	5.55
408.061	5.45
408.268	5.48
408.474	5.39
408.68	5.3
408.887	5.12
409.093	5.08
409.299	5
409.505	5.09
409.712	5.08
409.918	5.11
410.124	5.14
410.33	5.32
410.537	5.27
410.743	5.23
410.949	5.41
411.155	5.48
411.361	5.51
411.567	5.53
411.773	5.57
411.98	5.77
412.186	5.93
412.392	5.85
412.598	5.88
412.804	5.88
413.01	5.76
413.216	5.82
413.422	5.8
413.628	5.76
413.834	5.66
414.04	5.53
414.246	5.37
414.452	5.2
414.658	5.19
414.864	5.16
415.07	5.22
415.275	5.29
415.481	5.3
415.687	5.36
415.893	5.53
416.099	5.56
416.305	5.62
416.511	5.54
416.716	5.49
416.922	5.63
417.128	5.69
417.334	5.79
417.539	5.91
417.745	5.83
417.951	5.76
418.157	5.71
418.362	5.76
418.568	5.71
418.774	5.82
418.979	5.83
419.185	5.65
419.391	5.65
419.596	5.64
419.802	5.56
420.008	5.52
420.213	5.61
420.419	5.58
420.624	5.55
420.83	5.56
421.035	5.54
421.241	5.51
421.446	5.56
421.652	5.53
421.857	5.45
422.063	5.4
422.268	5.37
422.474	5.32
422.679	5.31
422.885	5.3
423.09	5.33
423.295	5.3
423.501	5.35
423.706	5.42
423.911	5.37
424.117	5.42
424.322	5.46
424.527	5.48
424.733	5.45
424.938	5.46
425.143	5.41
425.349	5.41
425.554	5.29
425.759	5.25
425.964	5.21
426.169	5.27
426.375	5.16
426.58	5.19
426.785	5.2
426.99	5.15
427.195	5.2
427.4	5.2
427.605	5.18
427.811	5.34
428.016	5.35
428.221	5.24
428.426	5.09
428.631	5.19
428.836	5.1
429.041	5.06
429.246	5.09
429.451	4.93
429.656	4.96
429.861	5.02
430.066	5.14
430.271	5.16
430.476	5.12
430.681	5.31
430.886	5.26
431.09	5.4
431.295	5.36
431.5	5.44
431.705	5.44
431.91	5.39
432.115	5.22
432.32	5.12
432.524	5.05
432.729	5.21
432.934	5.29
433.139	5.38
433.343	5.3
433.548	5.25
433.753	5.25
433.958	5.3
434.162	5.44
434.367	5.54
434.572	5.46
434.776	5.46
434.981	5.39
435.186	5.18
435.39	5.11
435.595	5.12
435.799	5.26
436.004	5.25
436.209	5.29
436.413	5.26
436.618	5.17
436.822	5.3
437.027	5.35
437.231	5.28
437.436	5.29
437.64	5.45
437.845	5.36
438.049	5.45
438.253	5.43
438.458	5.47
438.662	5.38
438.867	5.41
439.071	5.4
439.275	5.38
439.48	5.45
439.684	5.56
439.888	5.46
440.093	5.57
440.297	5.5
440.501	5.49
440.706	5.37
440.91	5.35
441.114	5.33
441.318	5.35
441.523	5.38
441.727	5.27
441.931	5.17
442.135	5.17
442.339	5.05
442.543	5.07
442.748	5.06
442.952	5.18
443.156	5.21
443.36	5.24
443.564	5.21
443.768	5.23
443.972	5.34
444.176	5.42
444.38	5.41
444.584	5.48
444.788	5.41
444.992	5.42
445.196	5.34
445.4	5.38
445.604	5.45
445.808	5.44
446.012	5.44
446.216	5.47
446.42	5.4
446.624	5.37
446.828	5.37
447.032	5.38
447.235	5.41
447.439	5.4
447.643	5.33
447.847	5.29
448.051	5.3
448.254	5.3
448.458	5.28
448.662	5.32
448.866	5.39
449.069	5.34
449.273	5.37
449.477	5.39
449.681	5.41
449.884	5.42
450.088	5.39
450.292	5.34
450.495	5.27
450.699	5.22
450.902	5.24
451.106	5.16
451.31	5.18
451.513	5.16
451.717	5.01
451.92	4.97
452.124	5.07
452.327	5
452.531	5.05
452.734	5.02
452.938	4.99
453.141	4.92
453.345	4.9
453.548	4.89
453.752	4.89
453.955	4.94
454.158	5
454.362	5.01
454.565	5.1
454.769	5.13
454.972	5.11
455.175	5.16
455.379	5.2
455.582	5.21
455.785	5.18
455.988	5.16
456.192	5.22
456.395	5.23
456.598	5.03
456.801	4.98
457.005	5.02
457.208	5.01
457.411	5.05
457.614	4.97
457.817	4.96
458.021	5.04
458.224	5.05
458.427	4.97
458.63	4.95
458.833	5.03
459.036	5.02
459.239	4.96
459.442	4.96
459.645	4.9
459.848	4.98
460.051	4.94
460.254	4.93
460.457	4.93
460.66	4.96
460.863	4.95
461.066	4.93
461.269	4.96
461.472	4.92
461.675	4.94
461.878	4.88
462.081	4.8
462.284	4.87
462.486	4.78
462.689	4.82
462.892	4.86
463.095	4.87
463.298	4.86
463.5	4.92
463.703	4.94
463.906	5.02
464.109	5.13
464.311	5.27
464.514	5.23
464.717	5.32
464.92	5.19
465.122	5.18
465.325	5.27
465.528	5.31
465.73	5.29
465.933	5.3
466.135	5.23
466.338	5.27
466.541	5.18
466.743	5.17
466.946	5.16
467.148	5.21
467.351	5.15
467.553	5.12
467.756	5.19
467.958	5.11
468.161	5.1
468.363	5.15
468.566	5.15
468.768	5.08
468.971	5.11
469.173	5.11
469.375	5.11
469.578	5.13
469.78	5.14
469.983	5
470.185	5
470.387	5.05
470.59	4.91
470.792	4.86
470.994	4.99
471.196	5.04
471.399	5.11
471.601	5.17
471.803	5.21
472.005	5.17
472.208	5.31
472.41	5.39
472.612	5.38
472.814	5.42
473.016	5.41
473.218	5.36
473.421	5.26
473.623	5.26
473.825	5.23
474.027	5.23
474.229	5.26
474.431	5.24
474.633	5.23
474.835	5.19
475.037	5.25
475.239	5.36
475.441	5.41
475.643	5.45
475.845	5.38
476.047	5.41
476.249	5.41
476.451	5.31
476.653	5.34
476.855	5.31
477.057	5.35
477.258	5.42
477.46	5.3
477.662	5.31
477.864	5.3
478.066	5.35
478.268	5.4
478.469	5.41
478.671	5.49
478.873	5.51
479.075	5.5
479.276	5.51
479.478	5.49
479.68	5.53
479.882	5.5
480.083	5.49
480.285	5.51
480.487	5.55
480.688	5.52
480.89	5.53
481.091	5.45
481.293	5.45
481.495	5.46
481.696	5.41
481.898	5.42
482.099	5.38
482.301	5.41
482.502	5.33
482.704	5.3
482.905	5.3
483.107	5.28
483.308	5.31
483.51	5.34
483.711	5.32
483.913	5.3
484.114	5.3
484.315	5.32
484.517	5.32
484.718	5.34
484.92	5.33
485.121	5.36
485.322	5.34
485.524	5.34
485.725	5.29
485.926	5.28
486.127	5.3
486.329	5.29
486.53	5.31
486.731	5.28
486.932	5.26
487.134	5.26
487.335	5.28
487.536	5.28
487.737	5.27
487.938	5.27
488.139	5.3
488.341	5.32
488.542	5.32
488.743	5.3
488.944	5.37
489.145	5.41
489.346	5.4
489.547	5.39
489.748	5.46
489.949	5.47
490.15	5.48
490.351	5.48
490.552	5.5
490.753	5.56
490.954	5.56
491.155	5.54
491.356	5.57
491.557	5.61
491.758	5.56
491.959	5.52
492.159	5.53
492.36	5.6
492.561	5.6
492.762	5.62
492.963	5.6
493.164	5.62
493.364	5.67
493.565	5.64
493.766	5.68
493.967	5.8
494.167	5.85
494.368	5.87
494.569	5.87
494.769	5.91
494.97	5.88
495.171	5.83
495.371	5.84
495.572	5.85
495.773	5.94
495.973	5.92
496.174	5.87
496.375	5.9
496.575	5.97
496.776	6.03
496.976	6.04
497.177	6.14
497.377	6.22
497.578	6.3
497.778	6.27
497.979	6.23
498.179	6.27
498.38	6.36
498.58	6.36
498.78	6.31
498.981	6.27
499.181	6.25
499.382	6.29
499.582	6.3
499.782	6.23
499.983	6.32
500.183	6.32
500.383	6.4
500.584	6.4
500.784	6.48
500.984	6.6
501.184	6.65
501.385	6.72
501.585	6.71
501.785	6.77
501.985	6.82
502.185	6.85
502.386	6.95
502.586	6.94
502.786	6.99
502.986	7.08
503.186	7.15
503.386	7.16
503.586	7.21
503.786	7.3
503.987	7.31
504.187	7.37
504.387	7.36
504.587	7.37
504.787	7.38
504.987	7.41
505.187	7.4
505.387	7.4
505.587	7.53
505.786	7.54
505.986	7.61
506.186	7.72
506.386	7.8
506.586	7.87
506.786	7.97
506.986	8.09
507.186	8.08
507.386	8.12
507.585	8.22
507.785	8.29
507.985	8.4
508.185	8.46
508.384	8.46
508.584	8.5
508.784	8.58
508.984	8.7
509.183	8.71
509.383	8.85
509.583	8.97
509.782	8.93
509.982	8.94
510.182	8.98
510.381	9.07
510.581	9.2
510.781	9.28
510.98	9.3
511.18	9.37
511.379	9.49
511.579	9.62
511.778	9.62
511.978	9.78
512.177	9.84
512.377	9.89
512.576	10.04
512.776	10.07
512.975	10.21
513.175	10.41
513.374	10.42
513.573	10.53
513.773	10.6
513.972	10.77
514.172	10.88
514.371	11.02
514.57	11.19
514.77	11.24
514.969	11.35
515.168	11.38
515.367	11.49
515.567	11.62
515.766	11.68
515.965	11.77
516.164	11.85
516.364	12.04
516.563	12.13
516.762	12.3
516.961	12.42
517.16	12.55
517.359	12.7
517.559	12.79
517.758	12.95
517.957	13.02
518.156	13.07
518.355	13.18
518.554	13.19
518.753	13.35
518.952	13.38
519.151	13.47
519.35	13.58
519.549	13.65
519.748	13.73
519.947	13.75
520.146	13.92
520.345	14.09
520.544	14.24
520.743	14.37
520.942	14.44
521.141	14.54
521.339	14.57
521.538	14.67
521.737	14.77
521.936	14.94
522.135	15.14
522.333	15.25
522.532	15.45
522.731	15.6
522.93	15.81
523.129	15.99
523.327	16.15
523.526	16.47
523.725	16.67
523.923	16.86
524.122	16.99
524.321	17.09
524.519	17.27
524.718	17.29
524.917	17.4
525.115	17.46
525.314	17.58
525.512	17.75
525.711	17.82
525.909	17.94
526.108	18.1
526.306	18.27
526.505	18.44
526.703	18.59
526.902	18.79
527.1	18.9
527.299	19.09
527.497	19.23
527.696	19.34
527.894	19.47
528.092	19.55
528.291	19.65
528.489	19.71
528.688	19.8
528.886	19.89
529.084	19.98
529.283	20.08
529.481	20.16
529.679	20.24
529.877	20.33
530.076	20.39
530.274	20.47
530.472	20.61
530.67	20.75
530.869	20.89
531.067	21.08
531.265	21.22
531.463	21.4
531.661	21.53
531.859	21.75
532.057	21.91
532.255	22.08
532.454	22.27
532.652	22.41
532.85	22.56
533.048	22.7
533.246	22.77
533.444	22.9
533.642	22.99
533.84	23.12
534.038	23.18
534.236	23.25
534.434	23.37
534.632	23.47
534.83	23.54
535.027	23.64
535.225	23.68
535.423	23.81
535.621	23.93
535.819	24.08
536.017	24.24
536.215	24.34
536.412	24.52
536.61	24.67
536.808	24.8
537.006	24.95
537.203	25.08
537.401	25.26
537.599	25.4
537.797	25.52
537.994	25.58
538.192	25.65
538.39	25.85
538.587	25.94
538.785	26.05
538.983	26.24
539.18	26.39
539.378	26.49
539.575	26.67
539.773	26.8
539.97	26.91
540.168	27.08
540.366	27.17
540.563	27.27
540.761	27.33
540.958	27.39
541.155	27.48
541.353	27.52
541.55	27.58
541.748	27.62
541.945	27.67
542.143	27.71
542.34	27.78
542.537	27.85
542.735	27.89
542.932	28.01
543.129	28.11
543.327	28.19
543.524	28.3
543.721	28.49
543.919	28.68
544.116	28.82
544.313	29.06
544.51	29.24
544.708	29.42
544.905	29.64
545.102	29.85
545.299	30.01
545.496	30.17
545.693	30.39
545.891	30.44
546.088	30.48
546.285	30.46
546.482	30.47
546.679	30.44
546.876	30.47
547.073	30.47
547.27	30.45
547.467	30.4
547.664	30.34
547.861	30.21
548.058	30.17
548.255	30.19
548.452	30.21
548.649	30.17
548.846	30.14
549.043	30.19
549.24	30.18
549.437	30.07
549.633	30.15
549.83	30.15
550.027	30.13
550.224	30.15
550.421	30.14
550.618	30.24
550.814	30.25
551.011	30.34
551.208	30.29
551.405	30.29
551.601	30.41
551.798	30.38
551.995	30.4
552.191	30.43
552.388	30.49
552.585	30.47
552.781	30.49
552.978	30.47
553.175	30.57
553.371	30.6
553.568	30.6
553.764	30.5
553.961	30.66
554.157	30.68
554.354	30.75
554.55	30.77
554.747	30.88
554.943	30.88
555.14	30.97
555.336	30.88
555.533	31
555.729	31.09
555.926	31.11
556.122	31.01
556.318	31.05
556.515	31.11
556.711	31.19
556.907	31.15
557.104	31.2
557.3	31.27
557.496	31.39
557.693	31.29
557.889	31.3
558.085	31.44
558.281	31.49
558.478	31.61
558.674	31.62
558.87	31.49
559.066	31.47
559.262	31.44
559.459	31.33
559.655	31.27
559.851	31.3
560.047	31.35
560.243	31.28
560.439	31.36
560.635	31.29
560.831	31.2
561.027	31.31
561.223	31.34
561.419	31.36
561.615	31.47
561.811	31.49
562.007	31.5
562.203	31.49
562.399	31.54
562.595	31.52
562.791	31.47
562.987	31.66
563.183	31.68
563.379	31.83
563.575	31.89
563.771	31.85
563.966	31.94
564.162	32.1
564.358	32.05
564.554	32.14
564.75	32.15
564.945	32.2
565.141	32.16
565.337	32.15
565.533	32.11
565.728	32.21
565.924	32.3
566.12	32.23
566.315	32.09
566.511	32.16
566.707	32.16
566.902	32.26
567.098	32.23
567.293	32.3
567.489	32.35
567.684	32.33
567.88	32.39
568.076	32.32
568.271	32.38
568.467	32.4
568.662	32.33
568.858	32.37
569.053	32.31
569.248	32.49
569.444	32.42
569.639	32.49
569.835	32.66
570.03	32.43
570.225	32.53
570.421	32.58
570.616	32.71
570.812	32.79
571.007	32.76
571.202	32.79
571.397	32.66
571.593	32.7
571.788	32.59
571.983	32.46
572.178	32.6
572.374	32.66
572.569	32.62
572.764	32.68
572.959	32.71
573.154	32.67
573.35	32.63
573.545	32.77
573.74	32.75
573.935	32.83
574.13	32.85
574.325	32.94
574.52	32.91
574.715	32.92
574.91	32.85
575.105	32.82
575.3	33.04
575.495	33.15
575.69	33.14
575.885	33.23
576.08	33.26
576.275	33.33
576.47	33.29
576.665	33.32
576.86	33.38
577.055	33.53
577.25	33.62
577.444	33.54
577.639	33.53
577.834	33.59
578.029	33.54
578.224	33.56
578.418	33.58
578.613	33.76
578.808	33.75
579.003	33.87
579.197	33.81
579.392	33.85
579.587	33.97
579.781	34.03
579.976	34
580.171	34.04
580.365	34.08
580.56	34.09
580.755	33.78
580.949	33.84
581.144	33.69
581.338	33.74
581.533	33.8
581.727	33.74
581.922	33.76
582.116	33.84
582.311	33.89
582.505	33.93
582.7	34.07
582.894	34.37
583.089	34.38
583.283	34.58
583.478	34.55
583.672	34.51
583.866	34.49
584.061	34.51
584.255	34.5
584.449	34.53
584.644	34.52
584.838	34.41
585.032	34.39
585.226	34.39
585.421	34.43
585.615	34.47
585.809	34.39
586.003	34.57
586.198	34.53
586.392	34.43
586.586	34.61
586.78	34.71
586.974	34.79
587.168	34.87
587.363	34.93
587.557	34.9
587.751	34.99
587.945	35.01
588.139	34.98
588.333	34.95
588.527	35.08
588.721	35.07
588.915	35.03
589.109	35.05
589.303	34.84
589.497	34.7
589.691	34.67
589.885	34.7
590.079	34.82
590.273	34.82
590.466	34.94
590.66	34.93
590.854	34.77
591.048	34.82
591.242	34.78
591.436	34.91
591.629	35.17
591.823	35.25
592.017	35.31
592.211	35.19
592.404	35.04
592.598	34.94
592.792	35.04
592.986	35.07
593.179	35.07
593.373	35.12
593.567	35.03
593.76	34.97
593.954	34.83
594.147	34.71
594.341	34.86
594.535	34.99
594.728	35.01
594.922	34.86
595.115	34.86
595.309	34.86
595.502	34.77
595.696	34.79
595.889	34.69
596.083	34.74
596.276	34.81
596.47	34.82
596.663	34.87
596.856	34.93
597.05	35.04
597.243	35.04
597.437	35.06
597.63	35.14
597.823	35.14
598.017	35.21
598.21	35.22
598.403	35.07
598.596	35.03
598.79	35.01
598.983	34.89
599.176	34.99
599.369	35.02
599.563	34.87
599.756	34.83
599.949	34.95
600.142	35.05
600.335	35.07
600.528	35.2
600.722	35.28
600.915	35.29
601.108	35.33
601.301	35.15
601.494	35.25
601.687	35.31
601.88	35.42
602.073	35.28
602.266	35.28
602.459	35.29
602.652	35.21
602.845	35.2
603.038	35.13
603.231	35.18
603.424	35.26
603.617	35.17
603.809	35.2
604.002	35.09
604.195	35.12
604.388	35.02
604.581	35.07
604.774	35.13
604.966	35.12
605.159	35.11
605.352	35.2
605.545	35.24
605.737	35.18
605.93	35.2
606.123	35.31
606.316	35.42
606.508	35.48
606.701	35.43
606.894	35.52
607.086	35.57
607.279	35.56
607.471	35.62
607.664	35.54
607.857	35.84
608.049	36.1
608.242	36.35
608.434	36.73
608.627	37.09
608.819	37.57
609.012	38.02
609.204	38.55
609.397	39.38
609.589	40.01
609.782	40.86
609.974	41.62
610.166	42.24
610.359	42.9
610.551	43.52
610.743	44.11
610.936	44.57
611.128	45
611.32	45.32
611.513	45.41
611.705	45.4
611.897	45.19
612.09	44.83
612.282	44.61
612.474	44.42
612.666	44.07
612.858	43.57
613.051	43.17
613.243	42.59
613.435	42.25
613.627	41.75
613.819	41.63
614.011	41.25
614.203	41.06
614.395	40.76
614.588	40.32
614.78	39.95
614.972	39.87
615.164	39.7
615.356	39.39
615.548	39.02
615.74	38.88
615.932	38.62
616.124	38.59
616.315	38.26
616.507	38.1
616.699	38.01
616.891	37.7
617.083	37.45
617.275	37.21
617.467	37.32
617.659	37.28
617.85	37.26
618.042	37.12
618.234	36.85
618.426	36.9
618.618	36.94
618.809	36.73
619.001	36.85
619.193	36.86
619.384	36.77
619.576	36.76
619.768	36.64
619.959	36.51
620.151	36.46
620.343	36.62
620.534	36.67
620.726	36.56
620.917	36.57
621.109	36.74
621.301	36.87
621.492	37
621.684	36.95
621.875	37.14
622.067	37.19
622.258	37.03
622.45	37.2
622.641	37.17
622.832	37.29
623.024	37.45
623.215	37.37
623.407	37.11
623.598	37.09
623.789	37.21
623.981	37.16
624.172	37.26
624.363	37.49
624.555	37.35
624.746	37.4
624.937	37.3
625.129	37.11
625.32	37.09
625.511	37.2
625.702	37.33
625.893	37.37
626.085	37.3
626.276	37.27
626.467	37.13
626.658	37.09
626.849	36.95
627.04	37.07
627.231	37.17
627.422	37.21
627.614	37.24
627.805	37.12
627.996	37.07
628.187	37.28
628.378	37.24
628.569	37.43
628.76	37.51
628.951	37.73
629.142	37.79
629.332	37.82
629.523	37.72
629.714	37.79
629.905	38.02
630.096	38.03
630.287	37.91
630.478	38.02
630.669	37.96
630.859	37.91
631.05	37.85
631.241	37.62
631.432	37.68
631.623	37.68
631.813	37.62
632.004	37.29
632.195	37.12
632.385	37.13
632.576	37.01
632.767	36.93
632.957	36.91
633.148	36.84
633.339	36.81
633.529	36.48
633.72	36.47
633.91	36.4
634.101	36.46
634.292	36.53
634.482	36.47
634.673	36.48
634.863	36.31
635.054	36.26
635.244	36.28
635.435	36.23
635.625	36.46
635.815	36.42
636.006	36.55
636.196	36.63
636.387	36.51
636.577	36.54
636.767	36.48
636.958	36.64
637.148	36.61
637.338	36.6
637.529	36.83
637.719	36.68
637.909	36.66
638.099	36.61
638.29	36.62
638.48	36.55
638.67	36.61
638.86	36.63
639.05	36.54
639.241	36.57
639.431	36.58
639.621	36.34
639.811	36.67
640.001	36.73
640.191	36.49
640.381	36.38
640.571	36.48
640.761	36.39
640.951	36.28
641.141	36.27
641.331	36.42
641.521	36.24
641.711	36.35
641.901	36.32
642.091	36.49
642.281	36.58
642.471	36.61
642.661	36.82
642.851	36.83
643.041	36.93
643.231	37.03
643.42	36.87
643.61	36.9
643.8	36.81
643.99	36.61
644.18	36.64
644.369	36.79
644.559	36.71
644.749	36.77
644.939	36.58
645.128	36.57
645.318	36.55
645.508	36.69
645.697	36.68
645.887	36.67
646.076	36.61
646.266	36.44
646.456	36.53
646.645	36.62
646.835	36.47
647.024	36.6
647.214	36.7
647.403	36.8
647.593	36.74
647.782	36.93
647.972	37.17
648.161	37.4
648.351	37.47
648.54	37.55
648.73	37.6
648.919	37.71
649.108	37.98
649.298	37.98
649.487	37.98
649.677	37.99
649.866	37.86
650.055	37.86
650.244	37.8
650.434	37.78
650.623	37.62
650.812	37.58
651.002	37.56
651.191	37.41
651.38	37.37
651.569	37.39
651.758	37.44
651.947	37.73
652.137	37.68
652.326	37.58
652.515	37.72
652.704	37.67
652.893	37.72
653.082	37.57
653.271	37.62
653.46	37.55
653.649	37.52
653.838	37.39
654.027	37.29
654.216	37.2
654.405	37.05
654.594	36.89
654.783	36.78
654.972	37.02
655.161	37.15
655.35	37.35
655.539	37.55
655.728	37.55
655.916	37.58
656.105	37.36
656.294	37.34
656.483	37.46
656.672	37.53
656.86	37.57
657.049	37.27
657.238	37.28
657.427	36.91
657.615	36.73
657.804	36.77
657.993	36.78
658.181	36.94
658.37	36.9
658.559	36.86
658.747	36.76
658.936	36.83
659.125	36.59
659.313	36.4
659.502	36.5
659.69	36.56
659.879	36.39
660.067	36.51
660.256	36.36
660.444	36.54
660.633	36.62
660.821	36.51
661.01	36.55
661.198	36.82
661.387	37.15
661.575	37.19
661.763	37.12
661.952	37.28
662.14	37.06
662.328	37.25
662.517	37.38
662.705	37.51
662.893	37.86
663.082	37.8
663.27	37.72
663.458	37.62
663.646	37.5
663.834	37.72
664.023	37.67
664.211	37.72
664.399	37.68
664.587	37.4
664.775	37.35
664.963	37.37
665.152	37.42
665.34	37.58
665.528	37.6
665.716	37.79
665.904	37.62
666.092	37.68
666.28	37.74
666.468	37.73
666.656	37.8
666.844	37.97
667.032	37.84
667.22	38.07
667.408	38.04
667.596	37.86
667.784	37.51
667.971	37.62
668.159	37.62
668.347	37.63
668.535	37.66
668.723	37.76
668.911	37.54
669.098	37.49
669.286	37.18
669.474	37.23
669.662	37.29
669.849	37.34
670.037	37.42
670.225	37.49
670.413	37.55
670.6	37.5
670.788	37.28
670.976	37.24
671.163	37.27
671.351	37.15
671.538	37.26
671.726	37.29
671.913	37.35
672.101	37.17
672.289	36.99
672.476	36.87
672.664	37.11
672.851	37.21
673.039	37.33
673.226	37.3
673.413	37.45
673.601	37.23
673.788	37.22
673.976	37.48
674.163	37.53
674.35	37.63
674.538	37.66
674.725	37.4
674.912	37.47
675.1	37.35
675.287	37.66
675.474	37.89
675.662	37.85
675.849	37.63
676.036	37.75
676.223	37.65
676.411	37.53
676.598	37.54
676.785	37.96
676.972	37.95
677.159	37.95
677.346	37.6
677.533	37.37
677.721	37.47
677.908	37.59
678.095	37.36
678.282	37.26
678.469	37.34
678.656	37.21
678.843	36.93
679.03	36.94
679.217	37.2
679.404	37.2
679.591	37.23
679.778	37.3
679.964	37.37
680.151	37.38
680.338	37.7
680.525	37.67
680.712	37.72
680.899	37.71
681.086	37.78
681.272	37.58
681.459	37.71
681.646	37.71
681.833	37.69
682.02	37.63
682.206	37.69
682.393	37.39
682.58	37.58
682.766	37.43
682.953	37.38
683.14	37.35
683.326	37.73
683.513	37.74
683.7	37.55
683.886	37.59
684.073	37.53
684.259	37.27
684.446	37.31
684.632	37.05
684.819	37.35
685.005	37.46
685.192	37.2
685.378	37.11
685.565	37.02
685.751	37.35
685.938	37.11
686.124	37.35
686.31	37.85
686.497	38.04
686.683	38.22
686.87	38.33
687.056	38.3
687.242	38.3
687.429	38.08
687.615	38.04
687.801	37.78
687.987	38.19
688.174	38.18
688.36	38.02
688.546	37.91
688.732	37.82
688.918	37.56
689.105	37.71
689.291	37.84
689.477	37.99
689.663	38.22
689.849	38.45
690.035	38.12
690.221	38.09
690.407	38.06
690.593	38.28
690.779	38.26
690.965	38.47
691.151	38.11
691.337	38.29
691.523	38.08
691.709	37.93
691.895	37.89
692.081	37.92
692.267	38.16
692.453	38.18
692.639	38.06
692.825	38.1
693.011	38.23
693.196	38.65
693.382	38.51
693.568	38.57
693.754	38.76
693.94	38.82
694.125	38.84
694.311	38.85
694.497	38.61
694.682	38.76
694.868	38.89
695.054	38.7
695.239	38.63
695.425	38.85
695.611	38.93
695.796	39
695.982	38.85
696.168	38.82
696.353	37.87
696.539	37.81
696.724	37.72
696.91	37.77
697.095	37.77
697.281	37.5
697.466	37.21
697.652	37.32
697.837	37.06
698.023	37.33
698.208	37.42
698.393	37.83
698.579	38.02
698.764	37.87
698.949	37.86
699.135	37.94
699.32	37.91
699.505	38.17
699.691	37.89
699.876	38.09
700.061	37.86
700.246	37.7
700.432	37.84
700.617	37.92
700.802	37.82
700.987	37.78
701.172	38.1
701.358	38.46
701.543	38.55
701.728	38.92
701.913	38.82
702.098	38.77
702.283	38.94
702.468	39.02
702.653	38.89
702.838	39.23
703.023	39.17
703.208	38.69
703.393	38.37
703.578	38.25
703.763	38.42
703.948	38.91
704.133	39.05
704.318	39.12
704.503	39.38
704.688	39.48
704.873	39.73
705.057	39.94
705.242	40.35
705.427	40.87
705.612	40.84
705.797	41.02
705.981	40.94
706.166	41.16
706.351	41.53
706.536	41.86
706.72	42.33
706.905	42.38
707.09	42.52
707.274	42.4
707.459	42.29
707.644	42.68
707.828	42.84
708.013	42.73
708.197	42.83
708.382	42.7
708.567	42.1
708.751	41.65
708.936	41.43
709.12	41.21
709.305	40.89
709.489	41.15
709.673	40.76
709.858	40.46
710.042	40.34
710.227	40.23
710.411	40.15
710.596	40.22
710.78	40.18
710.964	40.38
711.149	40.46
711.333	40.67
711.517	40.23
711.702	40.16
711.886	39.83
712.07	39.82
712.254	39.95
712.438	39.73
712.623	39.56
712.807	39.29
712.991	39.32
713.175	39.53
713.359	39.39
713.544	39.44
713.728	39.46
713.912	39.36
714.096	39.17
714.28	39.03
714.464	38.9
714.648	38.98
714.832	39.05
715.016	38.8
715.2	38.54
715.384	38.55
715.568	38.39
715.752	38.21
715.936	38.58
716.12	38.5
716.304	38.35
716.488	38.16
716.671	38.19
716.855	38.16
717.039	37.67
717.223	37.45
717.407	37.49
717.59	37.45
717.774	37.47
717.958	36.94
718.142	37.1
718.325	36.99
718.509	37.46
718.693	37.14
718.877	37.27
719.06	37.64
719.244	37.54
719.428	37.24
719.611	37.27
719.795	37.68
719.978	37.73
720.162	37.93
720.345	38.02
720.529	38.2
720.713	38.5
720.896	38.35
721.08	38.42
721.263	38.34
721.446	38.85
721.63	38.99
721.813	38.49
721.997	38.55
722.18	38.44
722.364	38.45
722.547	37.87
722.73	37.46
722.914	37.68
723.097	38.23
723.28	38.88
723.464	38.49
723.647	38.13
723.83	38.14
724.013	37.9
724.197	37.96
724.38	38.07
724.563	38.51
724.746	38.68
724.929	38.79
725.112	38.44
725.296	38.37
725.479	38.21
725.662	38.31
725.845	38.39
726.028	38.8
726.211	38.28
726.394	37.95
726.577	37.57
726.76	37.79
726.943	37.23
727.126	36.76
727.309	36.7
727.492	36.8
727.675	37.09
727.858	37.05
728.041	36.81
728.224	37.14
728.407	37.43
728.589	37.47
728.772	37.33
728.955	37.43
729.138	37.78
729.321	37.34
729.503	37.35
729.686	36.83
729.869	36.82
730.052	36.83
730.234	36.48
730.417	36.35
730.6	36.53
730.782	36.73
730.965	37.03
731.148	37.2
731.33	37.3
731.513	37.23
731.695	37.52
731.878	37.93
732.061	37.89
732.243	38.24
732.426	38.32
732.608	38.83
732.791	39.01
732.973	38.9
733.156	38.52
733.338	38.66
733.52	38.9
733.703	39.11
733.885	38.86
734.068	39.07
734.25	38.87
734.432	38.93
734.615	38.7
734.797	38.75
734.979	38.92
735.162	39.2
735.344	39.76
735.526	39.51
735.708	39.33
735.891	39.8
736.073	39.85
736.255	40.16
736.437	39.98
736.619	39.6
736.802	38.94
736.984	39.21
737.166	39.13
737.348	38.61
737.53	38.7
737.712	38.75
737.894	38.33
738.076	38.82
738.258	38.79
738.44	39.3
738.622	39.53
738.804	39.97
738.986	40
739.168	40.09
739.35	39.82
739.532	39.99
739.714	40.08
739.896	39.94
740.078	39.53
740.259	39.43
740.441	38.86
740.623	38.46
740.805	38.6
740.987	38.54
741.168	38.18
741.35	38.88
741.532	38.68
741.714	38.83
741.895	38.75
742.077	38.38
742.259	38.55
742.44	38.56
742.622	38.94
742.804	38.92
742.985	38.96
743.167	39.04
743.348	39.24
743.53	39.19
743.711	38.57
743.893	38.41
744.075	38.83
744.256	39
744.438	39.51
744.619	39.71
744.8	39.19
744.982	39.12
745.163	39.06
745.345	38.46
745.526	39.53
745.707	40.05
745.889	40.61
746.07	40.37
746.252	40.77
746.433	40.85
746.614	40.75
746.795	40.93
746.977	40.8
747.158	41.37
747.339	41.65
747.52	40.93
747.702	40.82
747.883	40.37
748.064	40.23
748.245	39.4
748.426	39.44
748.607	39.29
748.788	39.96
748.97	39.64
749.151	39.29
749.332	39.5
749.513	39.82
749.694	39.94
749.875	40
750.056	40.82
750.237	40.81
750.418	40.71
750.599	40.66
750.78	39.94
750.96	40.01
751.141	39.88
751.322	38.74
751.503	38.96
751.684	39.17
751.865	39.51
752.046	39.01
752.226	39.27
752.407	38.59
752.588	38.81
752.769	38.79
752.949	38.41
753.13	38.65
753.311	39.34
753.492	38.42
753.672	38.36
753.853	38.63
754.034	38.96
754.214	38.72
754.395	38.89
754.575	38.26
754.756	38.45
754.937	39.04
755.117	39.47
755.298	39.52
755.478	39.71
755.659	38.92
755.839	38.34
756.02	37.9
756.2	37.8
756.381	37.66
756.561	39.05
756.741	39.2
756.922	39.63
757.102	39.08
757.283	38.74
757.463	39.49
757.643	39.75
757.823	39.96
758.004	39.76
758.184	39.49
758.364	39.15
758.545	38.25
758.725	37.85
758.905	37.42
759.085	37.01
759.265	36.97
759.446	36.13
759.626	36.07
759.806	35.66
759.986	36.04
760.166	36.05
760.346	36.49
760.526	36.75
760.706	36.68
760.886	36.9
761.066	37.04
761.246	37
761.426	37.34
761.606	37.68
761.786	37.61
761.966	37.54
762.146	37.87
762.326	38.07
762.506	38.08
762.686	38.29
762.866	38
763.046	38.15
763.225	38.48
763.405	38.38
763.585	37.96
763.765	38.32
763.945	38.16
764.124	37.97
764.304	37.81
764.484	37.15
764.664	36.92
764.843	37.18
765.023	37.29
765.203	37.08
765.382	36.64
765.562	36.77
765.741	36.12
765.921	36.27
766.101	36.74
766.28	37.42
766.46	37.94
766.639	38.44
766.819	38.02
766.998	38.1
767.178	38.31
767.357	38.95
767.537	39.41
767.716	40.24
767.896	41.1
768.075	41.07
768.254	40.61
768.434	40.71
768.613	40.64
768.792	40.85
768.972	40.46
769.151	40.59
769.33	40.17
769.51	40
769.689	40.03
769.868	39.26
770.047	39.28
770.226	38.68
770.406	38.28
770.585	37.67
770.764	37.95
770.943	38.41
771.122	38.22
771.301	39.07
771.48	39.91
771.66	40.26
771.839	40.81
772.018	40.3
772.197	41.36
772.376	41.54
772.555	42.36
772.734	41.91
772.913	41.74
773.092	41.07
773.271	41.3
773.449	40.13
773.628	39.57
773.807	38.68
773.986	38.85
774.165	38.98
774.344	39.7
774.523	39.63
774.701	39.61
774.88	39.13
775.059	39.21
775.238	38.96
775.417	39.77
775.595	40.28
775.774	40.38
775.953	40.82
776.131	40.16
776.31	39.45
776.489	38.52
776.667	38.75
776.846	39.6
777.025	40.25
777.203	40.09
777.382	40.38
777.56	39.86
777.739	39.94
777.917	39.37
778.096	38.88
778.274	39.06
778.453	40.02
778.631	40.3
778.81	40.26
778.988	40.98
779.166	41.34
779.345	41.07
779.523	41.49
779.702	42.2
779.88	42.22
780.058	42.55
780.237	42.8
780.415	41.98
780.593	41.15
780.771	41.06
780.95	40.35
781.128	39.76
781.306	38.98
781.484	39.02
781.662	38.02
781.841	38.16
782.019	37.77
782.197	38.61
782.375	38.91
782.553	40.13
782.731	40.39
782.909	40.26
783.087	40.55
783.265	41.23
783.443	40.77
783.621	41.3
783.799	41.91
783.977	42.4
784.155	41.15
784.333	40.93
784.511	40.39
784.689	40.18
784.867	40.93
785.045	41.49
785.223	41.03
785.4	41.7
785.578	41.26
785.756	40.18
785.934	40.07
786.112	40.98
786.289	41.01
786.467	40.57
786.645	40.54
786.823	39.17
787	38.7
787.178	38.09
787.356	37.24
787.533	37.63
787.711	38.2
787.889	37.96
788.066	37.47
788.244	37.14
788.421	37.8
788.599	37.24
788.776	37.92
788.954	37.76
789.131	38.35
789.309	39.09
789.486	38.62
789.664	38.24
789.841	38.61
790.019	38.58
790.196	40.05
790.373	39.28
790.551	40.28
790.728	40.2
790.906	39.62
791.083	39.8
791.26	39.06
791.437	38.78
791.615	39.41
791.792	38.75
791.969	38.58
792.146	37.13
792.324	37.9
792.501	36.76
792.678	35.9
792.855	36.08
793.032	35.26
793.209	35.65
793.387	37.06
793.564	36.4
793.741	36.29
793.918	36.36
794.095	36.24
794.272	35.8
794.449	36.1
794.626	37.11
794.803	37.85
794.98	38.04
795.157	36.48
795.334	34.91
795.511	34.55
795.688	35.32
795.864	34.78
796.041	36.02
796.218	35.2
796.395	35.44
796.572	35.29
796.749	35.1
796.925	35.77
797.102	36.55
797.279	37.28
797.456	38.25
797.632	38.46
797.809	38.43
797.986	37.77
798.162	39.22
798.339	39.45
798.516	39.08
798.692	39.27
798.869	38.87
799.046	39.63
799.222	39.11
799.399	39.19
799.575	38.96
799.752	38.76
799.928	38.72
800.105	37.54
800.281	37.23
800.458	37.78
800.634	37.97
800.811	37.25
800.987	35.83
801.163	36.6
801.34	35.51
801.516	35.5
801.692	36.24
801.869	36.79
802.045	37.95
802.221	38.45
802.398	38.75
802.574	36.9
802.75	37.51
802.926	38.23
803.103	38.09
803.279	38.89
803.455	39.03
803.631	39.03
803.807	38.73
803.983	37.91
804.16	36.72
804.336	35.56
804.512	36.23
804.688	35.82
804.864	36.74
805.04	36
805.216	35.33
805.392	34.92
805.568	34.42
805.744	34.03
805.92	34.6
806.096	35.99
806.272	36.36
806.448	36.51
806.623	37.67
806.799	36.84
806.975	37.13
807.151	37.56
807.327	37.69
807.503	37.8
807.678	39.84
807.854	39.76
808.03	39.24
808.206	38.67
808.381	38.13
808.557	39.23
808.733	39.29
808.908	39.2
809.084	39.73
809.26	39.28
809.435	38.25
809.611	37.26
809.787	37.65
809.962	37.91
810.138	38.73
810.313	38.94
810.489	37.48
810.664	38.05
810.84	38.33
811.015	39.29
811.191	39.99
811.366	42.38
811.542	41.54
811.717	40.33
811.892	39.61
812.068	38.95
812.243	39.11
812.419	39.49
812.594	39.84
812.769	39.96
812.944	37.46
813.12	36.25
813.295	34.12
813.47	34.53
813.645	35.51
813.821	35.77
813.996	35.47
814.171	34.29
814.346	33.51
814.521	32.66
814.697	31.85
814.872	31.99
815.047	32.52
815.222	33.84
815.397	32.61
815.572	32.21
815.747	32.5
815.922	34.89
816.097	36.28
816.272	37.37
816.447	37.24
816.622	38.91
816.797	39.52
816.972	38.63
817.147	39.35
817.322	39.54
817.496	39.22
817.671	38.6
817.846	37.52
818.021	36.44
818.196	35.07
818.371	34.56
818.545	33.96
818.72	33.64
818.895	33.97
819.069	31.85
819.244	31.62
819.419	32.43
819.594	32.42
819.768	31.82
819.943	32.62
820.117	32.81
820.292	33.9
820.467	33.42
820.641	33.07
820.816	33.93
820.99	34.4
821.165	34.27
821.339	33.51
821.514	33.66
821.688	33.55
821.863	33.63
822.037	33.81
822.212	33.41
822.386	33.36
822.56	33.54
822.735	33.17
822.909	33.3
823.084	33.34
823.258	33.37
823.432	33.33
823.606	33.27
823.781	33.32
823.955	33.27
824.129	33.23
824.303	33.63
824.478	33.85
824.652	34.16
824.826	34.25
825	34.03
825.174	34.64
825.348	34.74
825.523	35.08
825.697	34.47
825.871	34.32
826.045	34.58
826.219	34.12
826.393	33.51
826.567	33.4
826.741	33.41
826.915	33.74
827.089	33.21
827.263	32.82
827.437	32.73
827.611	33.15
827.784	32.94
827.958	33.08
828.132	33.23
828.306	33.46
828.48	33.22
828.654	32.99
828.827	33.34
829.001	33.26
829.175	33.87
829.349	33.99
829.522	34.03
829.696	34.56
829.87	34.35
830.044	34.47
830.217	35
830.391	35.84
830.565	35.91
830.738	35.85
830.912	36.04
831.085	35.72
831.259	35.66
831.432	35.78
831.606	35.4
831.779	36.21
831.953	35.86
832.126	35
832.3	34.23
832.473	34.04
832.647	33.93
832.82	34.5
832.994	33.8
833.167	34.14
833.34	34.52
833.514	34.74
833.687	34
833.86	33.87
834.034	34.01
834.207	34.18
834.38	34.23
834.553	33.71
834.727	33.65
834.9	33.77
835.073	33.26
835.246	32.51
835.419	32.21
835.593	32.35
835.766	32.4
835.939	32.62
836.112	32.32
836.285	31.89
836.458	31.89
836.631	31.8
836.804	31.95
836.977	32.58
837.15	32.49
837.323	32.42
837.496	33.54
837.669	32.52
837.842	32.38
838.015	33.87
838.188	35.11
838.361	34.36
838.533	33.67
838.706	34.44
838.879	35.51
839.052	34.34
839.225	35.35
839.398	33.47
839.57	34.53
839.743	34.14
839.916	34.78
840.088	33.85
840.261	34.7
840.434	35.73
840.607	35.38
840.779	34.39
840.952	36.53
841.124	35.69
841.297	35.98
841.47	34.73
841.642	34.77
841.815	33.88
841.987	33.21
842.16	32.22
842.332	33.76
842.505	33.38
842.677	32.92
842.85	33.6
843.022	33.26
843.194	34.89
843.367	37.87
843.539	36.62
843.712	36.94
843.884	38.01
844.056	42.2
844.229	40.45
844.401	41.62
844.573	43.85
844.745	46.56
844.918	45.42
845.09	43.65
845.262	41.36
845.434	41.18
845.606	41.12
845.779	40.86
845.951	39.06
846.123	37.85
846.295	37.06
846.467	36.83
846.639	32.66
846.811	34.17
846.983	34.29
847.155	31.79
847.327	34.49
847.499	33.59
847.671	36.13
847.843	33.29
848.015	31.47
848.187	33.64
848.359	33.8
848.531	34.79
848.703	37.3
848.875	38.49
849.047	41.08
849.218	40.05
849.39	40.77
849.562	37.98
849.734	37.55
849.905	39.96
850.077	37.92
850.249	36.18
850.421	34.56
850.592	32.68
850.764	33.67
850.936	34.24
851.107	34.8
851.279	32.8
851.451	37.57
851.622	40.95
851.794	41.38
851.965	41.35
852.137	42.17
852.308	42.73
852.48	44.2
852.651	43.87
852.823	44.55
852.994	43.51
853.166	41.39
853.337	38.81
853.509	37.27
853.68	39.4
853.851	37.92
854.023	35.53
854.194	36.02
854.365	36.33
854.537	37.48
854.708	38.98
854.879	40.31
855.05	42.49
855.222	38.45
855.393	42.06
855.564	39.09
855.735	42.95
855.906	43.04
856.078	38.16
856.249	33.45
856.42	27.46
856.591	25.02
856.762	24.33
856.933	27.72
857.104	30.34
857.275	29.67
857.446	27.53
857.617	26.51
857.788	27.52
857.959	34.51
858.13	37.64
858.301	42.8
858.472	42.05
858.643	44.34
858.814	42.35
858.985	45.08
859.155	45.78
859.326	48.34
859.497	47.53
859.668	50.74
859.839	47.18
860.009	42.65
860.18	41.89
860.351	40.86
860.522	39.3
860.692	37.01
860.863	32.66
861.034	36.4
861.204	36.85
861.375	40.78
861.546	41.33
861.716	43
861.887	50.19
862.057	48.75
862.228	48.59
862.398	46.23
862.569	49.41
862.739	48.74
862.91	43.06
863.08	40.21
863.251	39.94
863.421	40.62
863.592	41.31
863.762	38.54
863.932	40.23
864.103	40.98
864.273	43.04
864.443	38.59
864.614	41.07
864.784	42.44
864.954	42.39
865.125	36.66
865.295	33.05
865.465	28.38
865.635	31.02
865.805	28.19
865.976	31.84
866.146	32.68
866.316	31.48
866.486	32.24
866.656	33.2
866.826	34.92
866.996	38.11
867.166	39.92
867.336	38.66
867.506	34.65
867.676	33.94
867.846	31.84
868.016	31.66
868.186	34.91
868.356	33.71
868.526	30.8
868.696	33.59
868.866	30.21
869.036	28.38
869.206	29.63
869.376	32.97
869.545	35.28
869.715	36.74
869.885	37.45
870.055	34.6
870.224	34.01
870.394	32.16
870.564	31.01
870.734	32.88
870.903	33.23
871.073	35.02
871.243	32.25
871.412	31.64
871.582	34.8
871.751	37.49
871.921	39.43
872.091	38.23
872.26	40.24
872.43	34.94
872.599	35.01
872.769	34.66
872.938	34.39
873.108	36.7
873.277	33.75
873.446	30.65
873.616	23.86
873.785	25.66
873.955	27.98
874.124	26.16
874.293	34.79
874.463	34.03
874.632	38.61
874.801	40.77
874.971	41.87
875.14	43.35
875.309	42.46
875.478	42.82
875.647	41.49
875.817	40.91
875.986	43.82
876.155	40.54
876.324	42.64
876.493	41.63
876.662	40.41
876.831	38.41
877	39.68
877.17	40.54
877.339	44.32
877.508	45.69
877.677	41.05
877.846	40.11
878.015	38.42
878.184	35.28
878.352	29.94
878.521	30.64
878.69	31.53
878.859	30.88
879.028	32.55
879.197	28.96
879.366	29.44
879.534	33.11
879.703	32.95
879.872	33.05
880.041	32.97
880.21	33.32
880.378	31.83
880.547	32.37
880.716	32.83
880.884	31.14
881.053	31.92
881.222	31.04
881.39	30.8
881.559	30.62
881.727	30.6
881.896	30.62
882.065	30.23
882.233	30.67
882.402	30.93
882.57	30.35
882.739	30.57
882.907	31.09
883.076	31.58
883.244	31.88
883.412	32
883.581	32.36
883.749	32.48
883.918	32.93
884.086	32.36
884.254	31.85
884.423	32.26
884.591	32.76
884.759	32.57
884.927	32.31
885.096	32.07
885.264	32.2
885.432	33.31
885.6	31.6
885.769	30.97
885.937	31.77
886.105	31.42
886.273	31.63
886.441	30.56
886.609	31.76
886.777	31.13
886.945	31
887.113	32.07
887.281	29.26
887.449	33.47
887.617	35.68
887.785	35.79
887.953	36.81
888.121	39.02
888.289	39.95
888.457	37.09
888.625	40.5
888.793	39.91
888.961	37.48
889.129	39.26
889.296	38.27
889.464	39.03
889.632	39.92
889.8	39.34
889.967	36.66
890.135	37.92
