Data from 2938783__Reflection_03.txt Node
Date: Fri Mar 13 12:23:23 EDT 2015
User: robert
Spectrometer: USB4E03002
Autoset integration time: false
Trigger mode: 4
Integration Time (sec): 1.000000E-1
Scans to average: 10
Electric dark correction enabled: false
Nonlinearity correction enabled: false
Boxcar width: 5
Stray light correction enabled: false
XAxis mode: Wavelengths
Stop averaging: false
Number of Pixels in Spectrum: 3648
>>>>>Begin Spectral Data<<<<<
177.575	87.14
177.794	89.25
178.014	87.89
178.233	86.48
178.452	91.69
178.672	83.11
178.891	85.98
179.11	80.67
179.33	82.87
179.549	89.85
179.768	87.91
179.987	87.42
180.207	84.82
180.426	81.51
180.645	84.49
180.864	79.53
181.084	80.61
181.303	77.45
181.522	78.1
181.741	76.92
181.96	76.62
182.179	76.73
182.398	73.47
182.618	74.26
182.837	75.74
183.056	72.66
183.275	72.18
183.494	73.04
183.713	74.8
183.932	81.11
184.151	80.16
184.37	78.86
184.589	81.55
184.808	82.3
185.027	82.58
185.246	84.49
185.465	85.62
185.684	89.88
185.903	92.61
186.122	87.32
186.341	81.7
186.56	79.12
186.779	80
186.998	78.9
187.216	77.81
187.435	76.2
187.654	74.65
187.873	72.26
188.092	71.05
188.311	66.89
188.53	72.05
188.748	74.38
188.967	75.14
189.186	75.97
189.405	75.5
189.623	77.77
189.842	76.78
190.061	76.98
190.28	81.48
190.498	82.71
190.717	87.96
190.936	84.77
191.154	83.64
191.373	82.57
191.592	79.7
191.81	79.35
192.029	75.5
192.248	74.55
192.466	78.08
192.685	73.66
192.904	70.58
193.122	65.53
193.341	66.01
193.559	66.93
193.778	64.96
193.996	70.95
194.215	68.16
194.433	71.63
194.652	72.46
194.87	69.8
195.089	73.41
195.307	76.13
195.526	80.52
195.744	80.44
195.963	80.15
196.181	83.75
196.399	76.62
196.618	79.33
196.836	78.55
197.055	78.2
197.273	79.43
197.491	78.22
197.71	76.1
197.928	76.04
198.146	74.47
198.365	73.47
198.583	76.79
198.801	78.44
199.019	77.15
199.238	73.67
199.456	74.49
199.674	73.36
199.892	70.71
200.111	71.13
200.329	73.19
200.547	74.19
200.765	72.65
200.983	68.36
201.202	68.17
201.42	72.58
201.638	75.8
201.856	74.74
202.074	78.41
202.292	77.96
202.51	76.45
202.728	74.69
202.946	75.46
203.165	77.36
203.383	76.9
203.601	80.81
203.819	76.85
204.037	79.26
204.255	81.79
204.473	78.96
204.691	81.35
204.909	84.47
205.127	81.39
205.345	78.59
205.562	73.68
205.78	76.32
205.998	75.42
206.216	77.49
206.434	71.71
206.652	73.32
206.87	73.58
207.088	74.82
207.306	74.12
207.523	74.85
207.741	76.5
207.959	78.58
208.177	77.41
208.395	75.57
208.612	75.24
208.83	76.42
209.048	73.64
209.266	71.27
209.483	68.88
209.701	67.93
209.919	66.21
210.136	69.4
210.354	68.17
210.572	69.54
210.79	71.2
211.007	69.57
211.225	72.38
211.442	70.73
211.66	72.72
211.878	76.15
212.095	77.06
212.313	78.71
212.53	78.92
212.748	80.24
212.966	78.83
213.183	78.27
213.401	79.61
213.618	77.78
213.836	83.12
214.053	81.19
214.271	79.06
214.488	76.6
214.705	75.97
214.923	71.5
215.14	70.56
215.358	72.47
215.575	71.54
215.793	72.48
216.01	74.14
216.227	70.5
216.445	68.09
216.662	67.08
216.879	69.75
217.097	70.17
217.314	67.94
217.531	66.92
217.749	63
217.966	64.33
218.183	64.65
218.4	59.71
218.618	59.26
218.835	60.04
219.052	59.34
219.269	59.02
219.487	61.1
219.704	65.26
219.921	65.65
220.138	65.74
220.355	62.75
220.572	59.86
220.79	60.63
221.007	61.84
221.224	60.23
221.441	59.05
221.658	58.15
221.875	55.36
222.092	53.73
222.309	52.2
222.526	49.29
222.743	50.14
222.96	47.55
223.177	47.57
223.394	43.22
223.611	44.09
223.828	46.39
224.045	44.54
224.262	43.82
224.479	41.63
224.696	41.56
224.913	43.25
225.13	41.36
225.347	41.71
225.564	41.02
225.781	41.72
225.997	40.61
226.214	35.69
226.431	32.52
226.648	29.76
226.865	29.86
227.082	28.52
227.298	24.48
227.515	21.76
227.732	20.21
227.949	18.79
228.165	17.08
228.382	16.54
228.599	16.97
228.816	16.78
229.032	16.23
229.249	15.04
229.466	14.36
229.682	15.11
229.899	15.57
230.116	15.33
230.332	15.38
230.549	16.5
230.765	16.32
230.982	16.23
231.199	17.03
231.415	18.14
231.632	19.42
231.848	19.59
232.065	19.94
232.281	20.87
232.498	21.2
232.714	21
232.931	21.62
233.147	22.35
233.364	22.34
233.58	22.34
233.797	22.79
234.013	22.41
234.23	22.94
234.446	22.49
234.662	21.23
234.879	21.86
235.095	21.96
235.312	20.12
235.528	20.63
235.744	20.57
235.961	20.37
236.177	19.98
236.393	20.17
236.61	19.53
236.826	19.43
237.042	19.99
237.258	19.71
237.475	20.66
237.691	21.65
237.907	22.66
238.123	22.06
238.339	22.84
238.556	23.01
238.772	22.99
238.988	22.96
239.204	22.63
239.42	21.96
239.636	21.53
239.853	20.63
240.069	20.04
240.285	17.99
240.501	16.79
240.717	15.18
240.933	14.01
241.149	13.07
241.365	12.31
241.581	12.03
241.797	11.56
242.013	10.79
242.229	10.28
242.445	9.54
242.661	9.76
242.877	9.69
243.093	9.85
243.309	9.89
243.525	9.8
243.741	9.9
243.957	10.03
244.173	11.4
244.388	11.73
244.604	12.01
244.82	12.44
245.036	11.67
245.252	11.47
245.468	10.82
245.683	10.75
245.899	10.03
246.115	9.63
246.331	8.88
246.547	7.96
246.762	7.5
246.978	7.24
247.194	7.16
247.409	6.76
247.625	6.62
247.841	6.25
248.057	6.04
248.272	6.25
248.488	6.07
248.703	6.08
248.919	6.31
249.135	6.68
249.35	6.95
249.566	7.15
249.782	7.89
249.997	8.1
250.213	8.62
250.428	8.89
250.644	9.6
250.859	10.37
251.075	10.78
251.29	11.01
251.506	10.98
251.721	10.99
251.937	10.63
252.152	10.87
252.368	11.27
252.583	11.89
252.798	11.67
253.014	11.55
253.229	11.88
253.445	12.04
253.66	11.62
253.875	11.97
254.091	12.55
254.306	12.78
254.521	13.68
254.737	14.39
254.952	14.07
255.167	14.46
255.383	14.35
255.598	13.79
255.813	13.78
256.028	14.05
256.244	13.36
256.459	13.13
256.674	12.58
256.889	11.4
257.104	11.2
257.32	10.69
257.535	10.13
257.75	9.46
257.965	9.37
258.18	9.09
258.395	8.47
258.61	8.1
258.826	7.33
259.041	7.33
259.256	6.96
259.471	6.39
259.686	6.13
259.901	5.9
260.116	5.71
260.331	5.48
260.546	5.36
260.761	5.43
260.976	5.59
261.191	5.49
261.406	5.31
261.621	5.64
261.836	5.97
262.05	6.94
262.265	7.44
262.48	8.22
262.695	8.89
262.91	9.49
263.125	10.27
263.34	10.74
263.555	11.58
263.769	12.52
263.984	12.5
264.199	12.77
264.414	12.2
264.629	12.56
264.843	12.59
265.058	12.28
265.273	11.71
265.488	10.69
265.702	10.23
265.917	10.5
266.132	10.19
266.346	9.8
266.561	9.43
266.776	9.16
266.99	8.83
267.205	8.51
267.42	8.33
267.634	7.9
267.849	8.26
268.063	8.3
268.278	7.93
268.492	7.96
268.707	8.01
268.922	7.71
269.136	7.88
269.351	7.17
269.565	6.95
269.78	6.67
269.994	6.62
270.209	6.29
270.423	5.85
270.637	5.73
270.852	5.33
271.066	5.28
271.281	5.69
271.495	5.36
271.709	5.68
271.924	5.85
272.138	6.15
272.353	6.52
272.567	6.46
272.781	6.94
272.996	6.93
273.21	7.05
273.424	7.16
273.638	6.91
273.853	7.18
274.067	7.59
274.281	7.76
274.495	8.04
274.71	8.22
274.924	8.33
275.138	8.35
275.352	8.23
275.566	8.49
275.781	8.4
275.995	8.59
276.209	8.32
276.423	8.18
276.637	8.14
276.851	7.99
277.065	7.69
277.279	7.87
277.493	7.42
277.707	7.75
277.921	7.42
278.135	7.41
278.349	7.28
278.563	7.62
278.777	7.61
278.991	7.59
279.205	7.72
279.419	8.21
279.633	7.77
279.847	8.11
280.061	7.96
280.275	7.48
280.489	7.77
280.703	8.06
280.917	7.8
281.131	7.76
281.344	7.7
281.558	7.15
281.772	6.82
281.986	6.91
282.2	6.94
282.414	7.29
282.627	7.7
282.841	7.55
283.055	7.54
283.269	7.46
283.482	7.11
283.696	6.74
283.91	7.17
284.123	6.57
284.337	6.4
284.551	6.21
284.764	5.9
284.978	5.49
285.192	5.33
285.405	5.2
285.619	5.17
285.833	5.3
286.046	5.32
286.26	5.15
286.473	5.58
286.687	5.76
286.9	5.66
287.114	5.46
287.327	5.51
287.541	5.57
287.754	5.48
287.968	5.58
288.181	5.72
288.395	5.88
288.608	5.9
288.822	5.8
289.035	5.52
289.248	5.23
289.462	4.99
289.675	5.14
289.889	5.2
290.102	4.84
290.315	4.82
290.529	4.74
290.742	4.85
290.955	4.84
291.169	5.1
291.382	5.57
291.595	5.98
291.808	6.49
292.022	6.87
292.235	6.82
292.448	7.33
292.661	7.43
292.875	7.34
293.088	7.25
293.301	7.28
293.514	6.97
293.727	6.43
293.94	6.42
294.153	6.44
294.367	6.06
294.58	5.85
294.793	5.67
295.006	5.47
295.219	5.47
295.432	5.33
295.645	4.98
295.858	4.86
296.071	4.78
296.284	4.6
296.497	4.42
296.71	4.53
296.923	4.76
297.136	4.84
297.349	4.77
297.562	4.9
297.775	4.83
297.988	4.97
298.201	5.22
298.414	5.51
298.626	5.63
298.839	5.46
299.052	5.4
299.265	5.67
299.478	5.53
299.691	6.02
299.903	6.12
300.116	6.6
300.329	6.67
300.542	6.3
300.755	6.38
300.967	6.64
301.18	6.93
301.393	7.12
301.605	6.84
301.818	6.9
302.031	6.79
302.243	6.62
302.456	6.42
302.669	6.79
302.881	7.17
303.094	7.44
303.307	7.15
303.519	7.19
303.732	7.24
303.944	7.13
304.157	7.21
304.37	6.91
304.582	7.24
304.795	7.33
305.007	7.04
305.22	7.15
305.432	6.6
305.645	6.75
305.857	6.84
306.069	6.82
306.282	6.73
306.494	6.79
306.707	7.01
306.919	6.93
307.132	6.63
307.344	6.64
307.556	6.48
307.769	6.78
307.981	6.74
308.193	6.4
308.406	6.28
308.618	6.29
308.83	6.24
309.043	6.04
309.255	6.09
309.467	6.11
309.679	5.81
309.892	5.99
310.104	6.06
310.316	6.12
310.528	6.25
310.74	6.25
310.953	6.15
311.165	6.42
311.377	6.94
311.589	6.91
311.801	7.09
312.013	7.39
312.225	7.28
312.437	7.16
312.649	7.26
312.862	7.32
313.074	7.68
313.286	7.97
313.498	8.15
313.71	7.81
313.922	7.57
314.134	7.57
314.346	7.55
314.558	7.66
314.77	7.87
314.982	7.95
315.193	8.09
315.405	8.03
315.617	8.29
315.829	8.01
316.041	8.31
316.253	8.44
316.465	8.38
316.677	8.74
316.888	8.57
317.1	8.89
317.312	8.82
317.524	9.15
317.736	9.02
317.947	9.14
318.159	9.11
318.371	8.87
318.583	8.95
318.794	9.39
319.006	9.53
319.218	9.59
319.43	9.24
319.641	9.05
319.853	8.82
320.064	9.13
320.276	8.82
320.488	9.2
320.699	8.87
320.911	9.13
321.123	8.95
321.334	8.38
321.546	8.71
321.757	8.96
321.969	9.63
322.18	9.89
322.392	9.59
322.603	9.91
322.815	9.31
323.026	9.79
323.238	9.39
323.449	8.95
323.661	9.52
323.872	9.09
324.083	8.75
324.295	8.27
324.506	8
324.718	7.68
324.929	7.41
325.14	7.5
325.352	7.17
325.563	7.61
325.774	7.97
325.986	7.53
326.197	7.9
326.408	8.2
326.62	8.44
326.831	8.33
327.042	8.87
327.253	9.47
327.464	9.73
327.676	9.77
327.887	9.58
328.098	9.76
328.309	9.9
328.52	9.89
328.732	9.72
328.943	9.85
329.154	10.3
329.365	10.42
329.576	10.23
329.787	10.43
329.998	11.19
330.209	11.25
330.42	11.46
330.631	11.45
330.842	11.22
331.053	11.58
331.264	11.35
331.475	11.22
331.686	11.13
331.897	11.18
332.108	11.19
332.319	10.72
332.53	10.65
332.741	10.34
332.952	10.5
333.163	10.44
333.374	10.44
333.585	10.46
333.795	10.6
334.006	10.56
334.217	10.16
334.428	9.97
334.639	10.29
334.849	10.43
335.06	10.41
335.271	10.34
335.482	11.04
335.692	10.72
335.903	11.01
336.114	10.37
336.325	10.29
336.535	10.4
336.746	10.18
336.957	10.1
337.167	10.17
337.378	10.42
337.589	10.58
337.799	9.94
338.01	10.14
338.22	9.85
338.431	10.37
338.642	10.23
338.852	10.15
339.063	10.33
339.273	10.16
339.484	9.56
339.694	9.1
339.905	9.01
340.115	9.21
340.326	9.1
340.536	9.15
340.746	8.96
340.957	9.11
341.167	9.27
341.378	9.27
341.588	9.2
341.799	9.75
342.009	9.77
342.219	9.69
342.43	9.39
342.64	9.4
342.85	9.37
343.061	9.56
343.271	9.56
343.481	9.5
343.691	9.3
343.902	9.41
344.112	9.33
344.322	9.33
344.532	9.28
344.743	9.44
344.953	9.41
345.163	9.26
345.373	8.94
345.583	8.82
345.793	8.73
346.004	8.75
346.214	8.6
346.424	8.48
346.634	8.67
346.844	8.74
347.054	8.92
347.264	8.97
347.474	8.95
347.684	9.2
347.894	9.1
348.104	9.13
348.314	9.01
348.524	9.16
348.734	9.18
348.944	9.31
349.154	9.14
349.364	8.95
349.574	8.72
349.784	9
349.994	9.02
350.204	9.27
350.413	9.09
350.623	9.35
350.833	9.14
351.043	9.09
351.253	8.95
351.463	8.96
351.672	9.08
351.882	9.27
352.092	9.13
352.302	8.95
352.511	9.03
352.721	9.06
352.931	9.09
353.141	9.05
353.35	9.09
353.56	8.95
353.77	9.26
353.979	9.1
354.189	8.83
354.399	8.71
354.608	8.79
354.818	8.53
355.027	8.54
355.237	8.39
355.447	8.57
355.656	8.54
355.866	8.49
356.075	8.36
356.285	8.61
356.494	8.66
356.704	8.78
356.913	8.67
357.123	8.7
357.332	8.73
357.542	8.76
357.751	8.47
357.96	8.54
358.17	8.52
358.379	8.42
358.589	8.1
358.798	8.22
359.007	8.17
359.217	8.29
359.426	8.09
359.635	7.88
359.845	7.87
360.054	7.86
360.263	7.76
360.472	7.76
360.682	7.62
360.891	7.69
361.1	7.51
361.309	7.3
361.519	7.26
361.728	7.16
361.937	7.28
362.146	7.19
362.355	7.23
362.564	7.35
362.774	7.13
362.983	7.2
363.192	7.15
363.401	7.13
363.61	7.16
363.819	7.33
364.028	7.54
364.237	7.64
364.446	7.53
364.655	7.56
364.864	7.2
365.073	7.56
365.282	7.48
365.491	7.42
365.7	7.44
365.909	7.5
366.118	7.27
366.327	7.41
366.536	7.51
366.745	7.63
366.954	7.69
367.162	7.97
367.371	7.8
367.58	8.09
367.789	8.23
367.998	8.23
368.207	8.06
368.415	7.93
368.624	7.9
368.833	7.69
369.042	7.81
369.25	7.9
369.459	8.09
369.668	7.96
369.877	7.67
370.085	7.45
370.294	7.67
370.503	8.07
370.711	8
370.92	7.78
371.129	7.92
371.337	7.82
371.546	7.68
371.754	7.41
371.963	7.44
372.171	7.5
372.38	7.84
372.589	7.7
372.797	7.57
373.006	7.68
373.214	7.82
373.423	7.53
373.631	7.5
373.84	7.36
374.048	7.07
374.256	7.09
374.465	7.03
374.673	6.77
374.882	6.92
375.09	6.94
375.298	6.84
375.507	6.72
375.715	6.71
375.923	6.74
376.132	6.88
376.34	7.03
376.548	7.09
376.757	7.01
376.965	7.13
377.173	6.99
377.381	6.68
377.59	6.9
377.798	6.97
378.006	7.1
378.214	7.01
378.423	7
378.631	6.97
378.839	6.84
379.047	6.86
379.255	6.74
379.463	6.84
379.671	6.9
379.879	6.63
380.088	6.5
380.296	6.4
380.504	6.47
380.712	6.24
380.92	6.39
381.128	6.4
381.336	6.42
381.544	6.11
381.752	5.94
381.96	6.14
382.168	6.25
382.376	6.27
382.584	6.3
382.791	6.25
382.999	6.19
383.207	6.03
383.415	6.28
383.623	6.15
383.831	6.41
384.039	6.35
384.247	6.25
384.454	6.2
384.662	6.25
384.87	6.14
385.078	6.05
385.285	6.27
385.493	6.18
385.701	5.89
385.909	5.98
386.116	5.98
386.324	6
386.532	5.99
386.739	5.97
386.947	6.03
387.155	6.14
387.362	6.21
387.57	6.11
387.778	6.26
387.985	6.4
388.193	6.33
388.4	6.18
388.608	6.31
388.816	6.11
389.023	6.2
389.231	6.07
389.438	5.78
389.646	5.71
389.853	5.73
390.061	5.61
390.268	5.61
390.475	5.6
390.683	5.59
390.89	5.33
391.098	5.51
391.305	5.33
391.512	5.11
391.72	5.37
391.927	5.35
392.135	5.3
392.342	5.38
392.549	5.38
392.756	5.31
392.964	5.29
393.171	5.51
393.378	5.37
393.586	5.39
393.793	5.43
394	5.26
394.207	5.4
394.414	5.32
394.622	5.22
394.829	5.08
395.036	5.09
395.243	5.13
395.45	5.04
395.657	5.09
395.864	4.96
396.072	4.94
396.279	5.03
396.486	5.02
396.693	5.1
396.9	5.07
397.107	5.04
397.314	5.12
397.521	5.16
397.728	5.07
397.935	5.07
398.142	5.19
398.349	5.51
398.556	5.52
398.763	5.4
398.97	5.26
399.177	5.26
399.383	5.37
399.59	5.43
399.797	5.49
400.004	5.49
400.211	5.55
400.418	5.58
400.625	5.37
400.831	5.36
401.038	5.42
401.245	5.49
401.452	5.54
401.658	5.59
401.865	5.67
402.072	5.59
402.279	5.62
402.485	5.46
402.692	5.54
402.899	5.52
403.105	5.44
403.312	5.41
403.519	5.36
403.725	5.24
403.932	5
404.138	4.74
404.345	4.73
404.552	4.62
404.758	4.72
404.965	4.51
405.171	4.62
405.378	4.59
405.584	4.49
405.791	4.57
405.997	4.62
406.204	4.89
406.41	4.86
406.617	4.96
406.823	5.1
407.029	5.05
407.236	5.25
407.442	5.09
407.649	5.27
407.855	5.39
408.061	5.42
408.268	5.43
408.474	5.18
408.68	5.33
408.887	5.12
409.093	5
409.299	5.09
409.505	5.06
409.712	4.99
409.918	4.81
410.124	4.71
410.33	4.74
410.537	4.64
410.743	4.73
410.949	4.78
411.155	4.87
411.361	4.89
411.567	4.64
411.773	4.5
411.98	4.66
412.186	4.65
412.392	4.82
412.598	4.81
412.804	4.9
413.01	4.91
413.216	4.91
413.422	4.76
413.628	4.77
413.834	4.91
414.04	5.09
414.246	5.12
414.452	5.04
414.658	4.92
414.864	4.73
415.07	4.78
415.275	4.61
415.481	4.54
415.687	4.6
415.893	4.53
416.099	4.45
416.305	4.28
416.511	4.12
416.716	4.12
416.922	3.98
417.128	3.94
417.334	3.81
417.539	3.84
417.745	3.69
417.951	3.63
418.157	3.61
418.362	3.62
418.568	3.66
418.774	3.65
418.979	3.54
419.185	3.51
419.391	3.46
419.596	3.42
419.802	3.35
420.008	3.31
420.213	3.27
420.419	3.25
420.624	3.17
420.83	3.11
421.035	3.17
421.241	3.25
421.446	3.22
421.652	3.23
421.857	3.2
422.063	3.25
422.268	3.25
422.474	3.26
422.679	3.27
422.885	3.32
423.09	3.28
423.295	3.11
423.501	3.05
423.706	3.09
423.911	3.12
424.117	3.16
424.322	3.12
424.527	3.13
424.733	3.13
424.938	3.13
425.143	3.08
425.349	3.09
425.554	3.14
425.759	3.19
425.964	3.22
426.169	3.25
426.375	3.26
426.58	3.29
426.785	3.35
426.99	3.41
427.195	3.45
427.4	3.54
427.605	3.6
427.811	3.65
428.016	3.69
428.221	3.74
428.426	3.66
428.631	3.73
428.836	3.77
429.041	3.82
429.246	3.77
429.451	3.74
429.656	3.81
429.861	3.89
430.066	3.85
430.271	3.93
430.476	3.82
430.681	3.86
430.886	3.82
431.09	3.8
431.295	3.76
431.5	3.88
431.705	3.81
431.91	3.8
432.115	3.69
432.32	3.79
432.524	3.6
432.729	3.7
432.934	3.72
433.139	3.66
433.343	3.62
433.548	3.6
433.753	3.61
433.958	3.64
434.162	3.64
434.367	3.78
434.572	3.76
434.776	3.87
434.981	3.84
435.186	3.83
435.39	3.96
435.595	4.03
435.799	4.01
436.004	3.99
436.209	4.07
436.413	4.09
436.618	3.91
436.822	3.89
437.027	3.89
437.231	3.95
437.436	3.96
437.64	3.88
437.845	3.86
438.049	3.98
438.253	3.86
438.458	3.7
438.662	3.58
438.867	3.55
439.071	3.55
439.275	3.44
439.48	3.34
439.684	3.29
439.888	3.28
440.093	3.22
440.297	3.06
440.501	3.08
440.706	3.15
440.91	3.17
441.114	3.22
441.318	3.22
441.523	3.29
441.727	3.27
441.931	3.31
442.135	3.29
442.339	3.35
442.543	3.56
442.748	3.53
442.952	3.57
443.156	3.5
443.36	3.49
443.564	3.49
443.768	3.49
443.972	3.49
444.176	3.44
444.38	3.43
444.584	3.37
444.788	3.19
444.992	3.23
445.196	3.22
445.4	3.23
445.604	3.27
445.808	3.33
446.012	3.25
446.216	3.26
446.42	3.32
446.624	3.26
446.828	3.28
447.032	3.28
447.235	3.25
447.439	3.22
447.643	3.29
447.847	3.24
448.051	3.24
448.254	3.23
448.458	3.24
448.662	3.16
448.866	3.16
449.069	3.2
449.273	3.29
449.477	3.28
449.681	3.21
449.884	3.17
450.088	3.26
450.292	3.18
450.495	3.3
450.699	3.36
450.902	3.32
451.106	3.41
451.31	3.43
451.513	3.44
451.717	3.45
451.92	3.5
452.124	3.59
452.327	3.52
452.531	3.48
452.734	3.46
452.938	3.42
453.141	3.58
453.345	3.71
453.548	3.68
453.752	3.64
453.955	3.74
454.158	3.81
454.362	3.75
454.565	3.78
454.769	3.77
454.972	3.74
455.175	3.8
455.379	3.77
455.582	3.68
455.785	3.69
455.988	3.67
456.192	3.61
456.395	3.53
456.598	3.54
456.801	3.56
457.005	3.59
457.208	3.67
457.411	3.64
457.614	3.55
457.817	3.51
458.021	3.39
458.224	3.35
458.427	3.25
458.63	3.27
458.833	3.21
459.036	3.11
459.239	3.1
459.442	2.99
459.645	2.89
459.848	2.87
460.051	2.9
460.254	3.01
460.457	3.01
460.66	3.13
460.863	3.11
461.066	3.16
461.269	3.16
461.472	3.24
461.675	3.31
461.878	3.42
462.081	3.48
462.284	3.44
462.486	3.32
462.689	3.33
462.892	3.26
463.095	3.22
463.298	3.33
463.5	3.53
463.703	3.41
463.906	3.45
464.109	3.44
464.311	3.45
464.514	3.46
464.717	3.63
464.92	3.69
465.122	3.76
465.325	3.88
465.528	3.73
465.73	3.66
465.933	3.74
466.135	3.78
466.338	3.78
466.541	3.72
466.743	3.69
466.946	3.64
467.148	3.64
467.351	3.57
467.553	3.6
467.756	3.58
467.958	3.51
468.161	3.54
468.363	3.49
468.566	3.49
468.768	3.57
468.971	3.59
469.173	3.62
469.375	3.6
469.578	3.69
469.78	3.66
469.983	3.69
470.185	3.7
470.387	3.72
470.59	3.71
470.792	3.7
470.994	3.79
471.196	3.79
471.399	3.78
471.601	3.79
471.803	3.66
472.005	3.58
472.208	3.6
472.41	3.57
472.612	3.53
472.814	3.62
473.016	3.71
473.218	3.68
473.421	3.67
473.623	3.67
473.825	3.7
474.027	3.78
474.229	3.78
474.431	3.82
474.633	3.91
474.835	3.91
475.037	3.91
475.239	3.75
475.441	3.65
475.643	3.69
475.845	3.6
476.047	3.59
476.249	3.59
476.451	3.65
476.653	3.63
476.855	3.61
477.057	3.59
477.258	3.49
477.46	3.49
477.662	3.53
477.864	3.55
478.066	3.64
478.268	3.58
478.469	3.54
478.671	3.42
478.873	3.42
479.075	3.35
479.276	3.3
479.478	3.4
479.68	3.47
479.882	3.4
480.083	3.38
480.285	3.29
480.487	3.3
480.688	3.3
480.89	3.32
481.091	3.25
481.293	3.22
481.495	3.17
481.696	2.98
481.898	2.88
482.099	2.85
482.301	2.76
482.502	2.7
482.704	2.65
482.905	2.59
483.107	2.53
483.308	2.48
483.51	2.4
483.711	2.4
483.913	2.4
484.114	2.39
484.315	2.38
484.517	2.37
484.718	2.37
484.92	2.4
485.121	2.41
485.322	2.45
485.524	2.47
485.725	2.52
485.926	2.53
486.127	2.54
486.329	2.57
486.53	2.51
486.731	2.54
486.932	2.53
487.134	2.51
487.335	2.49
487.536	2.45
487.737	2.43
487.938	2.44
488.139	2.45
488.341	2.5
488.542	2.52
488.743	2.59
488.944	2.59
489.145	2.65
489.346	2.7
489.547	2.73
489.748	2.8
489.949	2.89
490.15	2.88
490.351	2.85
490.552	2.81
490.753	2.79
490.954	2.76
491.155	2.75
491.356	2.75
491.557	2.71
491.758	2.72
491.959	2.69
492.159	2.66
492.36	2.71
492.561	2.78
492.762	2.82
492.963	2.84
493.164	2.88
493.364	2.89
493.565	2.86
493.766	2.9
493.967	2.88
494.167	2.99
494.368	3.08
494.569	3.11
494.769	3.12
494.97	3.17
495.171	3.31
495.371	3.34
495.572	3.37
495.773	3.39
495.973	3.44
496.174	3.46
496.375	3.47
496.575	3.42
496.776	3.51
496.976	3.46
497.177	3.4
497.377	3.29
497.578	3.32
497.778	3.34
497.979	3.44
498.179	3.44
498.38	3.52
498.58	3.53
498.78	3.53
498.981	3.53
499.181	3.61
499.382	3.72
499.582	3.85
499.782	3.87
499.983	3.94
500.183	3.97
500.383	3.95
500.584	3.9
500.784	3.88
500.984	3.9
501.184	3.84
501.385	3.8
501.585	3.75
501.785	3.67
501.985	3.68
502.185	3.72
502.386	3.64
502.586	3.72
502.786	3.76
502.986	3.83
503.186	3.87
503.386	3.92
503.586	3.93
503.786	3.98
503.987	3.99
504.187	3.92
504.387	3.84
504.587	3.89
504.787	3.8
504.987	3.87
505.187	3.82
505.387	3.81
505.587	3.84
505.786	3.82
505.986	3.78
506.186	3.87
506.386	4
506.586	4.11
506.786	4.14
506.986	4.2
507.186	4.14
507.386	4.23
507.585	4.25
507.785	4.21
507.985	4.2
508.185	4.19
508.384	4.2
508.584	4.11
508.784	4.04
508.984	4.12
509.183	4.18
509.383	4.15
509.583	4.15
509.782	4.16
509.982	4.22
510.182	4.25
510.381	4.33
510.581	4.33
510.781	4.33
510.98	4.35
511.18	4.22
511.379	4.21
511.579	4.25
511.778	4.25
511.978	4.29
512.177	4.29
512.377	4.4
512.576	4.35
512.776	4.32
512.975	4.42
513.175	4.55
513.374	4.63
513.573	4.72
513.773	4.83
513.972	4.9
514.172	5
514.371	5.17
514.57	5.14
514.77	5.26
514.969	5.3
515.168	5.36
515.367	5.38
515.567	5.39
515.766	5.32
515.965	5.31
516.164	5.23
516.364	5.13
516.563	4.92
516.762	4.95
516.961	4.89
517.16	4.95
517.359	4.95
517.559	4.94
517.758	4.93
517.957	4.95
518.156	4.99
518.355	5.05
518.554	5.06
518.753	5.13
518.952	5.18
519.151	5.21
519.35	5.23
519.549	5.24
519.748	5.21
519.947	5.3
520.146	5.31
520.345	5.37
520.544	5.4
520.743	5.48
520.942	5.54
521.141	5.48
521.339	5.58
521.538	5.59
521.737	5.6
521.936	5.68
522.135	5.7
522.333	5.78
522.532	5.78
522.731	5.82
522.93	5.78
523.129	5.82
523.327	5.88
523.526	5.87
523.725	5.9
523.923	5.89
524.122	5.94
524.321	5.92
524.519	5.95
524.718	5.86
524.917	5.83
525.115	5.86
525.314	5.82
525.512	5.86
525.711	5.86
525.909	5.86
526.108	5.88
526.306	5.81
526.505	5.85
526.703	5.8
526.902	5.8
527.1	5.77
527.299	5.79
527.497	5.8
527.696	5.8
527.894	5.78
528.092	5.77
528.291	5.77
528.489	5.82
528.688	5.81
528.886	5.83
529.084	5.85
529.283	5.88
529.481	5.92
529.679	5.95
529.877	5.98
530.076	6.04
530.274	6.08
530.472	6.16
530.67	6.21
530.869	6.25
531.067	6.36
531.265	6.45
531.463	6.51
531.661	6.53
531.859	6.57
532.057	6.57
532.255	6.58
532.454	6.61
532.652	6.54
532.85	6.55
533.048	6.59
533.246	6.58
533.444	6.6
533.642	6.65
533.84	6.67
534.038	6.7
534.236	6.77
534.434	6.8
534.632	6.86
534.83	7.02
535.027	7.05
535.225	7.04
535.423	7.12
535.621	7.21
535.819	7.2
536.017	7.28
536.215	7.32
536.412	7.36
536.61	7.4
536.808	7.41
537.006	7.39
537.203	7.47
537.401	7.61
537.599	7.66
537.797	7.71
537.994	7.86
538.192	7.95
538.39	8.08
538.587	8.23
538.785	8.34
538.983	8.43
539.18	8.52
539.378	8.62
539.575	8.64
539.773	8.7
539.97	8.72
540.168	8.67
540.366	8.68
540.563	8.67
540.761	8.61
540.958	8.62
541.155	8.66
541.353	8.7
541.55	8.67
541.748	8.68
541.945	8.69
542.143	8.77
542.34	8.88
542.537	8.9
542.735	9
542.932	9.13
543.129	9.33
543.327	9.43
543.524	9.61
543.721	9.81
543.919	10.05
544.116	10.26
544.313	10.47
544.51	10.61
544.708	10.91
544.905	11.11
545.102	11.4
545.299	11.48
545.496	11.65
545.693	11.77
545.891	11.91
546.088	11.99
546.285	12.04
546.482	11.96
546.679	11.99
546.876	11.9
547.073	11.84
547.27	11.71
547.467	11.63
547.664	11.57
547.861	11.5
548.058	11.53
548.255	11.49
548.452	11.54
548.649	11.64
548.846	11.7
549.043	11.74
549.24	11.86
549.437	11.85
549.633	12.03
549.83	12.16
550.027	12.27
550.224	12.14
550.421	12.08
550.618	11.99
550.814	11.98
551.011	11.97
551.208	12.03
551.405	11.98
551.601	12.06
551.798	11.87
551.995	11.76
552.191	11.68
552.388	11.78
552.585	11.84
552.781	11.86
552.978	11.87
553.175	11.92
553.371	11.93
553.568	11.9
553.764	11.86
553.961	12.07
554.157	12.18
554.354	12.29
554.55	12.23
554.747	12.34
554.943	12.53
555.14	12.63
555.336	12.64
555.533	12.61
555.729	12.78
555.926	12.87
556.122	12.88
556.318	12.98
556.515	12.96
556.711	12.98
556.907	12.94
557.104	12.92
557.3	12.99
557.496	12.98
557.693	13.15
557.889	13.23
558.085	13.27
558.281	13.34
558.478	13.45
558.674	13.51
558.87	13.68
559.066	13.75
559.262	13.88
559.459	13.8
559.655	13.98
559.851	13.95
560.047	13.98
560.243	14.04
560.439	14.01
560.635	13.99
560.831	14.05
561.027	14.12
561.223	14.11
561.419	14.09
561.615	14.16
561.811	14.25
562.007	14.38
562.203	14.59
562.399	14.64
562.595	14.62
562.791	14.69
562.987	14.81
563.183	14.81
563.379	14.91
563.575	14.89
563.771	15.03
563.966	15.01
564.162	14.93
564.358	14.73
564.554	14.8
564.75	14.93
564.945	14.89
565.141	14.77
565.337	14.9
565.533	14.95
565.728	14.94
565.924	14.98
566.12	15.03
566.315	15.05
566.511	15.24
566.707	15.23
566.902	15.13
567.098	15.21
567.293	15.35
567.489	15.33
567.684	15.24
567.88	15.31
568.076	15.27
568.271	15.32
568.467	15.5
568.662	15.38
568.858	15.51
569.053	15.71
569.248	15.76
569.444	15.86
569.639	15.82
569.835	16.02
570.03	16.08
570.225	16.05
570.421	16.05
570.616	16
570.812	16.03
571.007	16
571.202	16.01
571.397	16.1
571.593	16.08
571.788	16.19
571.983	16.22
572.178	16.26
572.374	16.38
572.569	16.52
572.764	16.59
572.959	16.7
573.154	16.76
573.35	16.86
573.545	16.95
573.74	17.09
573.935	17.18
574.13	17.23
574.325	17.4
574.52	17.57
574.715	17.62
574.91	17.8
575.105	18.01
575.3	18.16
575.495	18.31
575.69	18.46
575.885	18.66
576.08	18.81
576.275	19.03
576.47	19.21
576.665	19.39
576.86	19.53
577.055	19.71
577.25	19.95
577.444	20.23
577.639	20.47
577.834	20.54
578.029	20.69
578.224	20.84
578.418	20.97
578.613	21.16
578.808	21.24
579.003	21.44
579.197	21.51
579.392	21.44
579.587	21.5
579.781	21.48
579.976	21.56
580.171	21.52
580.365	21.58
580.56	21.62
580.755	21.63
580.949	21.66
581.144	21.69
581.338	21.72
581.533	21.81
581.727	21.95
581.922	22
582.116	22.17
582.311	22.47
582.505	22.52
582.7	22.62
582.894	22.67
583.089	22.87
583.283	22.81
583.478	22.99
583.672	23.14
583.866	23.15
584.061	23.14
584.255	23.12
584.449	22.99
584.644	23.09
584.838	23.27
585.032	23.42
585.226	23.55
585.421	23.81
585.615	23.97
585.809	24.14
586.003	24.13
586.198	24.34
586.392	24.5
586.586	24.51
586.78	24.62
586.974	24.56
587.168	24.4
587.363	24.21
587.557	24.1
587.751	23.93
587.945	23.59
588.139	23.61
588.333	23.44
588.527	23.35
588.721	23.29
588.915	23.12
589.109	22.89
589.303	22.72
589.497	22.64
589.691	22.53
589.885	22.54
590.079	22.68
590.273	22.57
590.466	22.71
590.66	22.75
590.854	23.02
591.048	23.08
591.242	23.43
591.436	23.74
591.629	24.06
591.823	24.37
592.017	24.5
592.211	24.49
592.404	24.61
592.598	24.72
592.792	24.67
592.986	24.57
593.179	24.62
593.373	24.39
593.567	24.24
593.76	24
593.954	23.76
594.147	23.66
594.341	23.63
594.535	23.54
594.728	23.39
594.922	23.27
595.115	23.1
595.309	22.95
595.502	22.87
595.696	22.86
595.889	22.72
596.083	22.52
596.276	22.42
596.47	22.53
596.663	22.54
596.856	22.48
597.05	22.62
597.243	22.68
597.437	22.9
597.63	23.11
597.823	23.25
598.017	23.51
598.21	23.91
598.403	24.09
598.596	24.2
598.79	24.4
598.983	24.66
599.176	24.71
599.369	24.86
599.563	24.83
599.756	24.92
599.949	24.93
600.142	24.88
600.335	24.91
600.528	24.83
600.722	24.79
600.915	24.68
601.108	24.55
601.301	24.47
601.494	24.39
601.687	24.14
601.88	23.94
602.073	23.87
602.266	23.77
602.459	23.51
602.652	23.44
602.845	23.21
603.038	23.09
603.231	22.96
603.424	22.84
603.617	22.77
603.809	22.82
604.002	22.74
604.195	22.65
604.388	22.75
604.581	22.8
604.774	22.77
604.966	22.83
605.159	22.99
605.352	23.12
605.545	23.41
605.737	23.55
605.93	23.73
606.123	24.04
606.316	24.39
606.508	24.57
606.701	24.87
606.894	25.24
607.086	25.69
607.279	26.1
607.471	26.3
607.664	26.58
607.857	26.92
608.049	27.55
608.242	28.14
608.434	28.88
608.627	30.01
608.819	31.17
609.012	32.63
609.204	34.16
609.397	35.78
609.589	37.83
609.782	39.79
609.974	42.07
610.166	44.2
610.359	46.33
610.551	48.42
610.743	50.22
610.936	51.83
611.128	53.11
611.32	54.05
611.513	54.56
611.705	54.93
611.897	54.95
612.09	54.47
612.282	53.7
612.474	52.84
612.666	51.87
612.858	50.83
613.051	49.88
613.243	48.78
613.435	47.73
613.627	46.88
613.819	45.8
614.011	44.98
614.203	44.19
614.395	43.43
614.588	42.44
614.78	41.53
614.972	40.47
615.164	39.46
615.356	38.48
615.548	37.72
615.74	37.05
615.932	36.2
616.124	35.4
616.315	34.57
616.507	34.01
616.699	33.45
616.891	32.8
617.083	32.48
617.275	31.98
617.467	31.8
617.659	31.36
617.85	30.86
618.042	30.56
618.234	30.18
618.426	30.16
618.618	29.82
618.809	29.55
619.001	29.43
619.193	29.29
619.384	29.32
619.576	29.3
619.768	29.36
619.959	29.51
620.151	29.57
620.343	29.67
620.534	29.52
620.726	29.58
620.917	29.76
621.109	29.79
621.301	29.78
621.492	29.8
621.684	29.66
621.875	29.57
622.067	29.49
622.258	29.69
622.45	29.89
622.641	29.88
622.832	29.92
623.024	30.02
623.215	30.12
623.407	30.1
623.598	30.06
623.789	30.13
623.981	30.1
624.172	30.1
624.363	29.88
624.555	29.79
624.746	29.74
624.937	29.75
625.129	29.51
625.32	29.17
625.511	29.01
625.702	28.81
625.893	28.72
626.085	28.67
626.276	28.54
626.467	28.5
626.658	28.42
626.849	28.29
627.04	28.2
627.231	28.22
627.422	28.51
627.614	28.63
627.805	28.74
627.996	28.8
628.187	29.07
628.378	29.13
628.569	29.35
628.76	29.63
628.951	29.88
629.142	30.35
629.332	30.76
629.523	31.01
629.714	31.42
629.905	31.92
630.096	32.2
630.287	32.43
630.478	32.67
630.669	32.81
630.859	32.81
631.05	32.83
631.241	32.5
631.432	32.33
631.623	31.97
631.813	31.51
632.004	30.85
632.195	30.3
632.385	29.64
632.576	29.34
632.767	28.88
632.957	28.47
633.148	28.08
633.339	27.82
633.529	27.61
633.72	27.34
633.91	27.07
634.101	27.17
634.292	27.24
634.482	27.34
634.673	27.33
634.863	27.32
635.054	27.17
635.244	27.24
635.435	27.31
635.625	27.06
635.815	27.05
636.006	27.23
636.196	27
636.387	26.89
636.577	26.9
636.767	26.8
636.958	26.93
637.148	27.02
637.338	27.16
637.529	27.13
637.719	27.4
637.909	27.49
638.099	27.44
638.29	27.54
638.48	27.72
638.67	27.72
638.86	27.67
639.05	27.68
639.241	27.82
639.431	27.8
639.621	27.74
639.811	27.69
640.001	27.84
640.191	27.83
640.381	27.88
640.571	27.86
640.761	27.96
640.951	28.07
641.141	27.96
641.331	27.86
641.521	27.86
641.711	27.98
641.901	28.01
642.091	27.94
642.281	28.08
642.471	28.15
642.661	28.2
642.851	28.27
643.041	28.36
643.231	28.51
643.42	28.46
643.61	28.66
643.8	28.61
643.99	28.52
644.18	28.68
644.369	28.8
644.559	28.91
644.749	28.96
644.939	28.86
645.128	28.89
645.318	28.69
645.508	28.82
645.697	28.56
645.887	28.64
646.076	28.8
646.266	28.6
646.456	28.53
646.645	28.4
646.835	28.25
647.024	28.08
647.214	28.05
647.403	28.12
647.593	28.07
647.782	28.28
647.972	28.29
648.161	28.34
648.351	28.53
648.54	28.67
648.73	28.8
648.919	29.12
649.108	29.34
649.298	29.54
649.487	29.71
649.677	29.7
649.866	29.7
650.055	29.87
650.244	29.88
650.434	29.84
650.623	29.75
650.812	29.81
651.002	29.64
651.191	29.72
651.38	29.72
651.569	29.89
651.758	29.88
651.947	29.78
652.137	29.74
652.326	29.64
652.515	29.56
652.704	29.59
652.893	29.66
653.082	29.6
653.271	29.48
653.46	29.36
653.649	29.33
653.838	29.43
654.027	29.51
654.216	29.39
654.405	29.29
654.594	29.39
654.783	29.38
654.972	29.13
655.161	29.18
655.35	29.25
655.539	29.26
655.728	29.14
655.916	29.11
656.105	29.02
656.294	29.14
656.483	29.04
656.672	29.01
656.86	28.78
657.049	28.81
657.238	28.45
657.427	28.25
657.615	28.1
657.804	27.81
657.993	27.57
658.181	27.66
658.37	27.27
658.559	27.45
658.747	27.28
658.936	27.24
659.125	26.76
659.313	27.04
659.502	27.03
659.69	27.04
659.879	27.05
660.067	27.35
660.256	27.38
660.444	27.6
660.633	27.61
660.821	27.77
661.01	28.07
661.198	28.66
661.387	28.87
661.575	28.99
661.763	29.21
661.952	29.36
662.14	29.55
662.328	29.52
662.517	29.64
662.705	29.91
662.893	30.15
663.082	29.99
663.27	30.09
663.458	29.96
663.646	30.2
663.834	30.35
664.023	30.62
664.211	30.41
664.399	30.62
664.587	30.68
664.775	30.44
664.963	30.39
665.152	30.48
665.34	30.28
665.528	30.31
665.716	30.2
665.904	30.04
666.092	30.3
666.28	30.48
666.468	30.25
666.656	30.26
666.844	30.4
667.032	30.6
667.22	30.59
667.408	30.87
667.596	30.91
667.784	30.94
667.971	30.63
668.159	30.2
668.347	30.16
668.535	30.26
668.723	30.21
668.911	30.07
669.098	29.73
669.286	29.76
669.474	29.61
669.662	29.75
669.849	29.88
670.037	30.21
670.225	30.43
670.413	30.4
670.6	30.62
670.788	30.78
670.976	30.84
671.163	30.86
671.351	31.15
671.538	31.31
671.726	31.33
671.913	31.21
672.101	31.2
672.289	31.33
672.476	31.14
672.664	31.16
672.851	31.08
673.039	31.19
673.226	31.42
673.413	31.09
673.601	30.97
673.788	31.01
673.976	31.12
674.163	31.21
674.35	31.13
674.538	31.35
674.725	31.26
674.912	31.23
675.1	31.28
675.287	31.04
675.474	31.14
675.662	31.32
675.849	31.33
676.036	31.26
676.223	31.4
676.411	31.38
676.598	31.48
676.785	31.2
676.972	31.31
677.159	31.31
677.346	31.47
677.533	31.39
677.721	31.34
677.908	30.96
678.095	30.9
678.282	30.79
678.469	30.51
678.656	30.3
678.843	30.28
679.03	30.22
679.217	30.03
679.404	30.08
679.591	30.03
679.778	29.73
679.964	29.97
680.151	29.69
680.338	29.58
680.525	29.78
680.712	29.85
680.899	30.05
681.086	30.25
681.272	30.38
681.459	30.34
681.646	30.53
681.833	30.85
682.02	30.94
682.206	31.47
682.393	31.46
682.58	31.47
682.766	31.68
682.953	31.65
683.14	31.48
683.326	31.87
683.513	32.07
683.7	32.03
683.886	31.8
684.073	31.94
684.259	31.63
684.446	31.79
684.632	32.03
684.819	31.84
685.005	32.16
685.192	32.34
685.378	32.18
685.565	32.13
685.751	32.27
685.938	32.55
686.124	32.48
686.31	32.85
686.497	33
686.683	32.94
686.87	33.19
687.056	32.69
687.242	32.68
687.429	32.56
687.615	32.6
687.801	32.44
687.987	32.25
688.174	31.94
688.36	31.95
688.546	32.1
688.732	31.89
688.918	31.61
689.105	31.9
689.291	31.68
689.477	31.81
689.663	32
689.849	32.14
690.035	32.46
690.221	32.77
690.407	32.51
690.593	32.24
690.779	32.31
690.965	32.51
691.151	32.58
691.337	32.88
691.523	32.8
691.709	32.57
691.895	32.75
692.081	32.87
692.267	32.97
692.453	33.32
692.639	33.6
692.825	33.85
693.011	33.78
693.196	33.59
693.382	33.54
693.568	33.6
693.754	33.84
693.94	33.64
694.125	33.42
694.311	33.21
694.497	32.94
694.682	33.06
694.868	32.64
695.054	32.92
695.239	33.06
695.425	33.14
695.611	33.05
695.796	32.86
695.982	32.87
696.168	32.81
696.353	32.59
696.539	32.54
696.724	32.05
696.91	31.88
697.095	31.44
697.281	31.21
697.466	30.91
697.652	30.61
697.837	30.23
698.023	30.08
698.208	29.83
698.393	29.77
698.579	29.62
698.764	29.41
698.949	29.44
699.135	29.41
699.32	29.51
699.505	29.3
699.691	29.42
699.876	29.51
700.061	29.6
700.246	29.84
700.432	30.01
700.617	29.95
700.802	30.46
700.987	30.51
701.172	30.69
701.358	31.19
701.543	31.77
701.728	32.39
701.913	32.87
702.098	33.38
702.283	33.63
702.468	34.02
702.653	35.1
702.838	35.29
703.023	35.65
703.208	36.11
703.393	36.09
703.578	36.4
703.763	36.62
703.948	37.08
704.133	37.31
704.318	37.77
704.503	38.19
704.688	38.38
704.873	39.06
705.057	39.98
705.242	40.48
705.427	41.02
705.612	41.55
705.797	41.93
705.981	41.98
706.166	42.31
706.351	42.99
706.536	43.26
706.72	43.31
706.905	43.47
707.09	43.45
707.274	43.6
707.459	43.59
707.644	43.42
707.828	43.47
708.013	44.11
708.197	44.1
708.382	43.73
708.567	43.5
708.751	43.33
708.936	43.08
709.12	42.77
709.305	42.36
709.489	41.89
709.673	41.95
709.858	41.63
710.042	40.95
710.227	40.91
710.411	40.53
710.596	40.63
710.78	40.58
710.964	40.66
711.149	40.64
711.333	40.76
711.517	40.98
711.702	40.82
711.886	40.58
712.07	40.54
712.254	40.32
712.438	40.35
712.623	40.4
712.807	39.96
712.991	39.63
713.175	39.55
713.359	39.19
713.544	38.87
713.728	38.26
713.912	37.84
714.096	37.53
714.28	36.61
714.464	35.97
714.648	35.16
714.832	34.95
715.016	34.56
715.2	34.32
715.384	33.81
715.568	33.65
715.752	33.67
715.936	33.43
716.12	33.04
716.304	33.18
716.488	33.3
716.671	33.32
716.855	33.23
717.039	32.94
717.223	32.81
717.407	32.74
717.59	32.39
717.774	32.24
717.958	32.21
718.142	32.23
718.325	32.05
718.509	31.91
718.693	31.54
718.877	31.59
719.06	31.76
719.244	31.63
719.428	31.78
719.611	32.32
719.795	32.31
719.978	32.91
720.162	33.23
720.345	33.83
720.529	34.37
720.713	34.76
720.896	34.93
721.08	35.29
721.263	35.63
721.446	36.27
721.63	36.11
721.813	36.68
721.997	36.68
722.18	36.69
722.364	36.97
722.547	36.71
722.73	36.8
722.914	36.44
723.097	36
723.28	35.74
723.464	35.21
723.647	35.27
723.83	34.39
724.013	34.08
724.197	34.22
724.38	33.6
724.563	33.47
724.746	33.48
724.929	33.36
725.112	33.51
725.296	33.41
725.479	33.87
725.662	34.14
725.845	34.01
726.028	33.83
726.211	33.7
726.394	33.65
726.577	34.26
726.76	34.12
726.943	34.2
727.126	33.42
727.309	33.44
727.492	33.17
727.675	32.65
727.858	32.94
728.041	33.04
728.224	32.52
728.407	32.83
728.589	32.35
728.772	32.38
728.955	32.73
729.138	33.38
729.321	33.43
729.503	33.67
729.686	33.48
729.869	33.89
730.052	33.91
730.234	34.69
730.417	34.77
730.6	34.5
730.782	35
730.965	34.6
731.148	34.88
731.33	35.11
731.513	34.94
731.695	35.12
731.878	34.85
732.061	35.01
732.243	34.63
732.426	34.26
732.608	34.62
732.791	34.35
732.973	34.56
733.156	34.32
733.338	34.11
733.52	34.29
733.703	34.71
733.885	34.95
734.068	35.04
734.25	35.73
734.432	36.02
734.615	36.16
734.797	36.19
734.979	36.39
735.162	37.06
735.344	37.05
735.526	37.16
735.708	37.44
735.891	37.71
736.073	38
736.255	37.71
736.437	37.91
736.619	37.98
736.802	37.8
736.984	38.19
737.166	38.31
737.348	38.87
737.53	38.64
737.712	38.4
737.894	38.45
738.076	38.14
738.258	38.17
738.44	38.21
738.622	38.23
738.804	38.35
738.986	38.29
739.168	37.72
739.35	37.98
739.532	38.38
739.714	38.65
739.896	38.87
740.078	39.06
740.259	38.87
740.441	39.03
740.623	39.48
740.805	39.65
740.987	39.44
741.168	39.88
741.35	39.22
741.532	39.66
741.714	39.6
741.895	39.95
742.077	40.39
742.259	40.8
742.44	40.95
742.622	40.72
742.804	41.04
742.985	41.49
743.167	41.29
743.348	41.77
743.53	41.32
743.711	41.35
743.893	41.47
744.075	41.47
744.256	41.11
744.438	40.67
744.619	41.08
744.8	41.13
744.982	41.1
745.163	41.8
745.345	41.77
745.526	41.95
745.707	42.11
745.889	41.95
746.07	41.73
746.252	42.31
746.433	42.1
746.614	42.05
746.795	41.7
746.977	41.9
747.158	41.76
747.339	42.48
747.52	42.12
747.702	42.54
747.883	41.5
748.064	41.88
748.245	42
748.426	42.6
748.607	42.34
748.788	42.72
748.97	42.42
749.151	42.2
749.332	41.74
749.513	42.29
749.694	41.62
749.875	42.28
750.056	42.12
750.237	42.16
750.418	41.99
750.599	41.74
750.78	42.12
750.96	42.61
751.141	43.08
751.322	43.27
751.503	42.84
751.684	43.08
751.865	43.32
752.046	42.8
752.226	42.36
752.407	42.46
752.588	43.09
752.769	43.01
752.949	42.55
753.13	41.91
753.311	41.91
753.492	42.52
753.672	42.77
753.853	42.82
754.034	44.07
754.214	44.27
754.395	44.09
754.575	43.66
754.756	43.31
754.937	43.3
755.117	43.16
755.298	43.24
755.478	43.53
755.659	43.53
755.839	43.8
756.02	43.07
756.2	42.49
756.381	42.63
756.561	42.76
756.741	43.11
756.922	43.59
757.102	43.71
757.283	42.67
757.463	41.47
757.643	41.13
757.823	40.18
758.004	39.34
758.184	39.57
758.364	39.24
758.545	38.52
758.725	37.42
758.905	36.1
759.085	35.56
759.265	35.51
759.446	35.14
759.626	34.35
759.806	34.32
759.986	34.22
760.166	34.01
760.346	33.48
760.526	33.59
760.706	33.16
760.886	32.97
761.066	32.71
761.246	32.69
761.426	33.09
761.606	33.27
761.786	33.12
761.966	33.06
762.146	32.35
762.326	32.61
762.506	32.07
762.686	32.34
762.866	32.37
763.046	32.27
763.225	31.94
763.405	31.59
763.585	31.56
763.765	31.61
763.945	31.73
764.124	31.95
764.304	31.9
764.484	32.37
764.664	32.82
764.843	33.21
765.023	33.76
765.203	34.4
765.382	34.86
765.562	34.91
765.741	35.47
765.921	36.22
766.101	36.85
766.28	37.72
766.46	37.7
766.639	38.3
766.819	39.14
766.998	39.35
767.178	40.04
767.357	40.6
767.537	41.53
767.716	42.14
767.896	42.19
768.075	42.8
768.254	42.57
768.434	43.29
768.613	43.36
768.792	43.5
768.972	43.96
769.151	43.64
769.33	43.2
769.51	42.87
769.689	43
769.868	42.94
770.047	43.17
770.226	43.54
770.406	43.13
770.585	43.79
770.764	43.37
770.943	43.69
771.122	44.13
771.301	44.45
771.48	44.84
771.66	44.43
771.839	44.63
772.018	44.63
772.197	44.96
772.376	45.73
772.555	45.68
772.734	45.63
772.913	45.54
773.092	45.46
773.271	46.21
773.449	46.76
773.628	47.39
773.807	47.84
773.986	48.16
774.165	48.1
774.344	48.23
774.523	48.07
774.701	48.77
774.88	48.88
775.059	48.7
775.238	48.13
775.417	47.71
775.595	48.06
775.774	47.72
775.953	46.9
776.131	47.2
776.31	47.41
776.489	47.88
776.667	47.89
776.846	48.22
777.025	48.48
777.203	49.06
777.382	49.31
777.56	48.59
777.739	49.19
777.917	49.11
778.096	48.99
778.274	48.92
778.453	48.26
778.631	48.42
778.81	47.87
778.988	47.32
779.166	47.07
779.345	47.43
779.523	47.41
779.702	47.51
779.88	47.82
780.058	48.18
780.237	48.35
780.415	48.83
780.593	48.94
780.771	49.39
780.95	49.5
781.128	49.35
781.306	48.61
781.484	49.4
781.662	48.91
781.841	49.01
782.019	48.78
782.197	48.38
782.375	48.43
782.553	48.57
782.731	48.09
782.909	48.75
783.087	49
783.265	49.48
783.443	47.8
783.621	47.82
783.799	47.96
783.977	47.96
784.155	48.48
784.333	47.89
784.511	47.71
784.689	48.68
784.867	48.63
785.045	48.72
785.223	48.42
785.4	49.92
785.578	50.85
785.756	50.25
785.934	49.64
786.112	49.42
786.289	49.79
786.467	48.92
786.645	47.81
786.823	47.43
787	46.01
787.178	45.89
787.356	45.05
787.533	43.62
787.711	43.76
787.889	43.94
788.066	43.27
788.244	41.45
788.421	41.01
788.599	40.28
788.776	40.84
788.954	41.36
789.131	41.13
789.309	40.61
789.486	40.66
789.664	40.91
789.841	40.21
790.019	40.66
790.196	41.22
790.373	41.67
790.551	43.24
790.728	42.85
790.906	42.92
791.083	43.79
791.26	44.34
791.437	44.44
791.615	44.29
791.792	44.93
791.969	44.45
792.146	45.59
792.324	46.15
792.501	46.13
792.678	46.47
792.855	46.38
793.032	45.76
793.209	45.8
793.387	46.16
793.564	46.75
793.741	46.68
793.918	47.42
794.095	46.94
794.272	46.43
794.449	45.42
794.626	45.68
794.803	45.49
794.98	46.3
795.157	46.37
795.334	46.2
795.511	46.04
795.688	45.47
795.864	44.82
796.041	44.78
796.218	45.25
796.395	45.8
796.572	43.88
796.749	44.35
796.925	43.38
797.102	43.64
797.279	43.95
797.456	43.14
797.632	44.19
797.809	44.26
797.986	44.37
798.162	44.08
798.339	42.92
798.516	44.12
798.692	44.56
798.869	44.48
799.046	43.65
799.222	43.37
799.399	43.54
799.575	43.61
799.752	43.99
799.928	43.97
800.105	44.77
800.281	45.39
800.458	45.78
800.634	45.53
800.811	46.07
800.987	46.8
801.163	46.82
801.34	48.24
801.516	47.71
801.692	47.26
801.869	47.42
802.045	47.06
802.221	47.68
802.398	48.22
802.574	48.06
802.75	48.33
802.926	49
803.103	49.01
803.279	47.28
803.455	47.36
803.631	48.57
803.807	49.17
803.983	49.43
804.16	50.03
804.336	49.6
804.512	49.83
804.688	49.4
804.864	48.13
805.04	47.63
805.216	47.99
805.392	47.42
805.568	46.6
805.744	46.74
805.92	45.54
806.096	45.51
806.272	45.42
806.448	46.09
806.623	45.87
806.799	46.35
806.975	46.93
807.151	46.94
807.327	47.8
807.503	47.94
807.678	47.99
807.854	48.2
808.03	47.42
808.206	47.46
808.381	46.4
808.557	46.33
808.733	46.06
808.908	45.63
809.084	46.54
809.26	46.11
809.435	46.02
809.611	46.21
809.787	46.58
809.962	46.67
810.138	47.31
810.313	49.14
810.489	49.11
810.664	49.27
810.84	48.9
811.015	48.48
811.191	49.5
811.366	49.46
811.542	48.59
811.717	48.83
811.892	49.07
812.068	47.93
812.243	47.07
812.419	47.2
812.594	46.03
812.769	46.18
812.944	45.21
813.12	44.89
813.295	45.19
813.47	44.89
813.645	43.48
813.821	43.16
813.996	43.65
814.171	43.33
814.346	44.07
814.521	44.66
814.697	45.31
814.872	45.75
815.047	46.14
815.222	45.57
815.397	44.95
815.572	45.92
815.747	45.65
815.922	44.34
816.097	43.82
816.272	43.13
816.447	44.31
816.622	43.98
816.797	43.06
816.972	42
817.147	41.17
817.322	40.94
817.496	40.59
817.671	39.99
817.846	40.73
818.021	40.55
818.196	41.13
818.371	40.67
818.545	40.2
818.72	41.02
818.895	40.94
819.069	40.9
819.244	41.18
819.419	40.25
819.594	40.08
819.768	38.94
819.943	38.55
820.117	37.14
820.292	35.92
820.467	34.59
820.641	33.4
820.816	31.59
820.99	30.63
821.165	29.38
821.339	28.7
821.514	27.89
821.688	27.12
821.863	26.09
822.037	25.5
822.212	24.73
822.386	24.49
822.56	24.12
822.735	24.18
822.909	24.24
823.084	23.98
823.258	24.08
823.432	24.03
823.606	24.1
823.781	24.49
823.955	24.5
824.129	25.08
824.303	25.42
824.478	25.58
824.652	25.55
824.826	25.77
825	26.53
825.174	26.87
825.348	27.52
825.523	27.97
825.697	28.17
825.871	28.85
826.045	29
826.219	29.04
826.393	29.72
826.567	30.18
826.741	30.13
826.915	30.08
827.089	29.37
827.263	29
827.437	29.2
827.611	29.51
827.784	29.53
827.958	29.67
828.132	29.38
828.306	29.34
828.48	29.23
828.654	29.63
828.827	30.51
829.001	30.77
829.175	31.53
829.349	32.14
829.522	32.44
829.696	32.99
829.87	33.3
830.044	34.35
830.217	34.9
830.391	35.9
830.565	35.72
830.738	35.43
830.912	37.53
831.085	37.14
831.259	38.11
831.432	37.77
831.606	37.73
831.779	37.22
831.953	38.27
832.126	37.38
832.3	36.83
832.473	36.31
832.647	35.35
832.82	34.88
832.994	34.55
833.167	34.01
833.34	33.71
833.514	32.83
833.687	32.93
833.86	32.03
834.034	32.27
834.207	31.92
834.38	32.46
834.553	32.54
834.727	32.01
834.9	32.31
835.073	32.02
835.246	32.35
835.419	33
835.593	32.94
835.766	33.7
835.939	34.78
836.112	36.12
836.285	36.77
836.458	37.82
836.631	39.03
836.804	39.75
836.977	41.18
837.15	42.62
837.323	43.84
837.496	45.45
837.669	46.35
837.842	45.11
838.015	45.21
838.188	46.1
838.361	46.78
838.533	47.26
838.706	47.3
838.879	46.77
839.052	46.1
839.225	46.82
839.398	46.71
839.57	46.09
839.743	47.63
839.916	46.72
840.088	45.89
840.261	46.87
840.434	47.5
840.607	48.63
840.779	47.99
840.952	48.58
841.124	49.16
841.297	48.57
841.47	49.29
841.642	49.18
841.815	51.22
841.987	52.42
842.16	52.01
842.332	52.4
842.505	53.51
842.677	54.79
842.85	55
843.022	53.94
843.194	55.76
843.367	56.38
843.539	56.91
843.712	55.86
843.884	55.33
844.056	54.37
844.229	54.83
844.401	53.58
844.573	54.53
844.745	55.21
844.918	55.5
845.09	53.79
845.262	54.79
845.434	57.07
845.606	57.89
845.779	59.4
845.951	60.62
846.123	59.11
846.295	58.87
846.467	57.85
846.639	58.94
846.811	60.4
846.983	61.17
847.155	59.46
847.327	57.09
847.499	57.11
847.671	55.32
847.843	55.19
848.015	56.83
848.187	56.69
848.359	57.46
848.531	57.26
848.703	55.41
848.875	56.31
849.047	58.09
849.218	59.97
849.39	59.6
849.562	59.18
849.734	59.53
849.905	58.94
850.077	60.63
850.249	61.24
850.421	59.52
850.592	61.42
850.764	62.79
850.936	61.43
851.107	61.02
851.279	62.07
851.451	61.87
851.622	61.99
851.794	62.29
851.965	62.88
852.137	63.18
852.308	63.81
852.48	62.84
852.651	63.89
852.823	62.33
852.994	59.96
853.166	58.17
853.337	59.47
853.509	56.75
853.68	55.78
853.851	54.5
854.023	53.74
854.194	53.43
854.365	52.23
854.537	51.96
854.708	53.28
854.879	54.6
855.05	57.03
855.222	56.81
855.393	59.34
855.564	62.1
855.735	60.68
855.906	61.93
856.078	64.15
856.249	64.66
856.42	64.02
856.591	64.71
856.762	66.23
856.933	65.78
857.104	64.86
857.275	65.97
857.446	63.61
857.617	64.49
857.788	62.55
857.959	61.01
858.13	62.15
858.301	61.71
858.472	61.44
858.643	57.69
858.814	56.53
858.985	56.19
859.155	55.43
859.326	56.19
859.497	56.4
859.668	57.07
859.839	56.35
860.009	57.23
860.18	56.59
860.351	56.51
860.522	58.53
860.692	58.1
860.863	57.64
861.034	56.61
861.204	57.17
861.375	59.04
861.546	61.04
861.716	61.76
861.887	60.6
862.057	60.3
862.228	60.65
862.398	59.54
862.569	62.15
862.739	66.28
862.91	68.21
863.08	67.62
863.251	66.6
863.421	64.82
863.592	65.17
863.762	62.85
863.932	62.46
864.103	61.21
864.273	61.71
864.443	58.78
864.614	55.91
864.784	53.43
864.954	53.56
865.125	52.4
865.295	54.59
865.465	55.69
865.635	56.82
865.805	57.86
865.976	58.37
866.146	58.33
866.316	59.15
866.486	60.35
866.656	61.13
866.826	61.33
866.996	61.87
867.166	58.76
867.336	57.28
867.506	57.55
867.676	58.89
867.846	60.13
868.016	58.59
868.186	60.6
868.356	60.59
868.526	59.97
868.696	61.18
868.866	62.66
869.036	62.46
869.206	60.78
869.376	62.23
869.545	59.78
869.715	59.03
869.885	60.53
870.055	57.15
870.224	54.09
870.394	54.94
870.564	53.6
870.734	53.12
870.903	53.78
871.073	55.55
871.243	53.83
871.412	55.49
871.582	56.56
871.751	56.14
871.921	58.55
872.091	59.72
872.26	58.93
872.43	57.53
872.599	54.94
872.769	56.27
872.938	54.55
873.108	55.78
873.277	55.8
873.446	53.04
873.616	56.93
873.785	55.81
873.955	57.27
874.124	58.13
874.293	57.37
874.463	59.34
874.632	56.41
874.801	58.98
874.971	59.02
875.14	57.7
875.309	59.01
875.478	55.69
875.647	55.37
875.817	55.46
875.986	56.32
876.155	58.38
876.324	58.87
876.493	61.1
876.662	57.99
876.831	57.28
877	57.26
877.17	54.75
877.339	55.05
877.508	56.44
877.677	56.73
877.846	56.25
878.015	56.44
878.184	54.85
878.352	54.67
878.521	56.22
878.69	56.71
878.859	55.46
879.028	55.5
879.197	53.71
879.366	49.96
879.534	48.54
879.703	46.93
879.872	44.57
880.041	43.09
880.21	40.92
880.378	38.97
880.547	36.06
880.716	34.82
880.884	33.64
881.053	33.31
881.222	33.14
881.39	31.7
881.559	30.04
881.727	28.91
881.896	28.55
882.065	28.65
882.233	28.25
882.402	28.4
882.57	28.81
882.739	29.33
882.907	28.56
883.076	28.89
883.244	28.96
883.412	29.62
883.581	30.27
883.749	30.3
883.918	29.99
884.086	30.52
884.254	30.83
884.423	30.53
884.591	30.34
884.759	31.55
884.927	31.48
885.096	31.99
885.264	32.01
885.432	33.24
885.6	33.87
885.769	34.58
885.937	35.91
886.105	37.12
886.273	39.5
886.441	42.9
886.609	43.97
886.777	44.75
886.945	45.45
887.113	47.42
887.281	47.39
887.449	49.87
887.617	50.04
887.785	50.97
887.953	51.79
888.121	50.96
888.289	47.56
888.457	49.72
888.625	50.09
888.793	51.89
888.961	51.59
889.129	53.61
889.296	53.57
889.464	55.56
889.632	54.84
889.8	54.72
889.967	56.5
890.135	59.73
