Data from 2938720__Reflection_01.txt Node
Date: Tue Mar 17 10:56:55 EDT 2015
User: robert
Spectrometer: USB4E03002
Autoset integration time: false
Trigger mode: 4
Integration Time (sec): 1.000000E-1
Scans to average: 10
Electric dark correction enabled: false
Nonlinearity correction enabled: false
Boxcar width: 5
Stray light correction enabled: false
XAxis mode: Wavelengths
Stop averaging: false
Number of Pixels in Spectrum: 3648
>>>>>Begin Spectral Data<<<<<
177.575	109.78
177.794	419.15
178.014	156.19
178.233	139.2
178.452	65.45
178.672	-206.78
178.891	-94.23
179.11	-126.76
179.33	-8.09
179.549	45.12
179.768	19.78
179.987	100
180.207	8.24
180.426	-55.56
180.645	16.43
180.864	-33.6
181.084	-63.33
181.303	-31.52
181.522	15.35
181.741	65.32
181.96	2
182.179	-113.93
182.398	-5.48
182.618	61.22
182.837	275
183.056	273.68
183.275	-760
183.494	-262.73
183.713	-115.38
183.932	-59.33
184.151	-93.79
184.37	-180.15
184.589	-441.35
184.808	-141.43
185.027	-119.77
185.246	-36.89
185.465	-89.19
185.684	-11.03
185.903	2.68
186.122	-35.92
186.341	-780
186.56	620
186.779	-608.33
186.998	430.77
187.216	259.46
187.435	164.84
187.654	165.37
187.873	453.33
188.092	198.3
188.311	163.52
188.53	170.04
188.748	248.98
188.967	169.47
189.186	74.03
189.405	82.46
189.623	75.93
189.842	-3020
190.061	-535.85
190.28	-229.73
190.498	-396
190.717	232.19
190.936	172.66
191.154	88.11
191.373	133.78
191.592	170.59
191.81	223.97
192.029	123.85
192.248	78.05
192.466	63.75
192.685	71.25
192.904	95.69
193.122	112.88
193.341	75.15
193.559	101.48
193.778	57.58
193.996	42.73
194.215	27.45
194.433	23.94
194.652	33.49
194.87	27.91
195.089	-11.11
195.307	-8.66
195.526	-95.29
195.744	-138.36
195.963	338.46
196.181	63.9
196.399	-51.77
196.618	-24.2
196.836	2.12
197.055	-13
197.273	46.53
197.491	-117.81
197.71	22.64
197.928	71.81
198.146	58.12
198.365	14.23
198.583	-11.01
198.801	12.84
199.019	25.21
199.238	43.19
199.456	56.55
199.674	35.96
199.892	-15.31
200.111	16.48
200.329	24.73
200.547	73.91
200.765	69.05
200.983	66.56
201.202	6.11
201.42	2.61
201.638	-1.83
201.856	-3.29
202.074	51.15
202.292	63.27
202.51	51.63
202.728	38.36
202.946	6.64
203.165	5.46
203.383	34.82
203.601	66.57
203.819	75.7
204.037	71.17
204.255	84.89
204.473	78.83
204.691	185.12
204.909	143.6
205.127	127.86
205.345	89.64
205.562	96.04
205.78	73.99
205.998	30.04
206.216	-47.21
206.434	27.92
206.652	-1.73
206.87	19.93
207.088	13.3
207.306	-6.68
207.523	-15.31
207.741	-10.75
207.959	-13.32
208.177	-14.55
208.395	-8.29
208.612	4.48
208.83	-62.11
209.048	-54.79
209.266	-102.2
209.483	-28.47
209.701	-36.2
209.919	-28.47
210.136	-3.12
210.354	-26.7
210.572	-51.17
210.79	-25.85
211.007	-38.61
211.225	6
211.442	1.73
211.66	-4.26
211.878	-5.06
212.095	4.68
212.313	-2.78
212.53	-40.32
212.748	-21.81
212.966	-29.1
213.183	-83.4
213.401	-97.52
213.618	-101.1
213.836	-87.13
214.053	-69.49
214.271	-94.5
214.488	-79.82
214.705	-72.27
214.923	-9.3
215.14	-22.7
215.358	-0.25
215.575	26.04
215.793	27.08
216.01	3.7
216.227	-9.18
216.445	-6.57
216.662	-3.42
216.879	9.89
217.097	7.45
217.314	-0.22
217.531	10.67
217.749	14.45
217.966	2.58
218.183	6.84
218.4	17.28
218.618	27.97
218.835	20.39
219.052	11.19
219.269	5.59
219.487	-1.57
219.704	-8.63
219.921	-18.02
220.138	-21.99
220.355	-16.83
220.572	-5.82
220.79	-10.09
221.007	-29.13
221.224	-21.73
221.441	-14.22
221.658	-26.16
221.875	-16.73
222.092	-20.02
222.309	-6.66
222.526	-6.61
222.743	-3.61
222.96	-14.04
223.177	-16.57
223.394	-7.13
223.611	-6.59
223.828	-9.9
224.045	-12.92
224.262	-6.89
224.479	-7.23
224.696	-9.68
224.913	-1.83
225.13	-1.68
225.347	3.2
225.564	8.31
225.781	6.64
225.997	6.02
226.214	6.88
226.431	14.66
226.648	10.4
226.865	11.29
227.082	8.48
227.298	4.63
227.515	5.26
227.732	5.03
227.949	2.28
228.165	3.47
228.382	2.73
228.599	2.75
228.816	2.52
229.032	2.79
229.249	3.06
229.466	3.56
229.682	3.93
229.899	3.8
230.116	3.27
230.332	4.7
230.549	4.51
230.765	5.11
230.982	5.36
231.199	5.07
231.415	5.38
231.632	3.78
231.848	2.42
232.065	3.03
232.281	1.24
232.498	1.04
232.714	1.3
232.931	-0.71
233.147	-0.54
233.364	-2.62
233.58	-2.29
233.797	-3.95
234.013	-0.87
234.23	1.12
234.446	1.08
234.662	3.34
234.879	3.21
235.095	2.16
235.312	2.21
235.528	1.44
235.744	2.43
235.961	3.33
236.177	5.56
236.393	6.1
236.61	7.37
236.826	6.74
237.042	6.77
237.258	6.51
237.475	7.28
237.691	8.99
237.907	9.07
238.123	10.92
238.339	10.04
238.556	8.7
238.772	7.32
238.988	3.8
239.204	4.72
239.42	5.29
239.636	5.19
239.853	5.28
240.069	3.74
240.285	4.54
240.501	4.73
240.717	4.43
240.933	4.81
241.149	3.87
241.365	4.08
241.581	3.56
241.797	3.45
242.013	3.56
242.229	3.35
242.445	3.47
242.661	3.44
242.877	2.24
243.093	2.02
243.309	1.71
243.525	2.55
243.741	2.9
243.957	3.15
244.173	2.74
244.388	2.7
244.604	2.18
244.82	3.11
245.036	2.75
245.252	3.57
245.468	4.37
245.683	4.52
245.899	4.36
246.115	4.23
246.331	3.93
246.547	4.37
246.762	4.48
246.978	4.83
247.194	4.6
247.409	4.96
247.625	4.92
247.841	4.69
248.057	4.73
248.272	4.51
248.488	4.85
248.703	4.81
248.919	4.54
249.135	4.1
249.35	3.85
249.566	4.09
249.782	3.37
249.997	2.82
250.213	3.17
250.428	3.21
250.644	3.14
250.859	2.76
251.075	3.23
251.29	2.59
251.506	2.92
251.721	3.13
251.937	2.86
252.152	3.26
252.368	3.21
252.583	2.09
252.798	1.95
253.014	2.1
253.229	1.75
253.445	1.77
253.66	2.53
253.875	2.6
254.091	1.7
254.306	1.51
254.521	0.98
254.737	1.38
254.952	2.53
255.167	3.32
255.383	3.16
255.598	3.28
255.813	3.5
256.028	2.75
256.244	3.8
256.459	4.43
256.674	4.11
256.889	4.84
257.104	4.64
257.32	4.37
257.535	3.94
257.75	3.78
257.965	3.46
258.18	2.71
258.395	3.03
258.61	3.16
258.826	2.73
259.041	2.65
259.256	2.18
259.471	2.27
259.686	2.45
259.901	2.14
260.116	2.18
260.331	2.37
260.546	2.62
260.761	2.52
260.976	2.12
261.191	2.29
261.406	2.57
261.621	2.76
261.836	2.92
262.05	2.86
262.265	2.98
262.48	2.69
262.695	2.13
262.91	2.05
263.125	2.93
263.34	3.3
263.555	3.55
263.769	2.79
263.984	2.92
264.199	2.76
264.414	2.68
264.629	1.73
264.843	2.28
265.058	2.97
265.273	2.17
265.488	0.82
265.702	0.4
265.917	0.43
266.132	1.3
266.346	1.03
266.561	0.61
266.776	0.99
266.99	1.59
267.205	1.77
267.42	2.01
267.634	2.48
267.849	2.56
268.063	2.61
268.278	2.58
268.492	2.51
268.707	2.91
268.922	2.84
269.136	3.09
269.351	3.63
269.565	3.69
269.78	3.45
269.994	3.46
270.209	3.56
270.423	3.67
270.637	3.57
270.852	3.53
271.066	3.13
271.281	3.83
271.495	3.09
271.709	2.76
271.924	2.61
272.138	2.88
272.353	2.76
272.567	2.66
272.781	2.8
272.996	3.31
273.21	3.32
273.424	3.33
273.638	3.03
273.853	2.83
274.067	3.35
274.281	3.21
274.495	3.3
274.71	3.37
274.924	3.62
275.138	3.61
275.352	2.85
275.566	2.91
275.781	3.61
275.995	4.59
276.209	5.3
276.423	5.16
276.637	5.38
276.851	4.84
277.065	4.6
277.279	4.38
277.493	4.4
277.707	5
277.921	4.56
278.135	4.05
278.349	2.78
278.563	2.72
278.777	2.57
278.991	2.39
279.205	2.46
279.419	3.03
279.633	2.82
279.847	2.48
280.061	2.14
280.275	2.01
280.489	1.89
280.703	2.29
280.917	2.09
281.131	1.95
281.344	2.13
281.558	2.32
281.772	2.25
281.986	3
282.2	3.23
282.414	2.92
282.627	2.95
282.841	3.26
283.055	3.02
283.269	2.82
283.482	2.99
283.696	3.07
283.91	2.9
284.123	2.62
284.337	2.17
284.551	2.04
284.764	2.53
284.978	2.64
285.192	2.63
285.405	2.53
285.619	2.85
285.833	2.73
286.046	2.42
286.26	2.48
286.473	2.75
286.687	2.86
286.9	2.74
287.114	2.67
287.327	2.68
287.541	2.53
287.754	3.26
287.968	3.09
288.181	2.91
288.395	3.32
288.608	3.45
288.822	3.26
289.035	3.11
289.248	3.33
289.462	3.5
289.675	3.59
289.889	3.56
290.102	3.23
290.315	3.35
290.529	3.57
290.742	3.32
290.955	3.36
291.169	3.38
291.382	3.64
291.595	3.58
291.808	3.08
292.022	3.06
292.235	3.02
292.448	2.79
292.661	2.59
292.875	2.26
293.088	2.47
293.301	2.61
293.514	2.49
293.727	2.41
293.94	2.86
294.153	3.48
294.367	3.45
294.58	3.46
294.793	3.68
295.006	3.69
295.219	3.81
295.432	3.66
295.645	3.5
295.858	3.74
296.071	3.85
296.284	3.51
296.497	3.24
296.71	3.38
296.923	3.49
297.136	3.27
297.349	3.17
297.562	3.42
297.775	3.33
297.988	3.17
298.201	3.22
298.414	3.02
298.626	3.15
298.839	3.2
299.052	3.28
299.265	2.97
299.478	2.8
299.691	2.92
299.903	2.74
300.116	3.2
300.329	3.35
300.542	3.24
300.755	3.34
300.967	3.05
301.18	2.98
301.393	3
301.605	3.4
301.818	3.84
302.031	3.68
302.243	3.56
302.456	3.32
302.669	3.5
302.881	3.46
303.094	3.61
303.307	3.55
303.519	3.65
303.732	3.69
303.944	4.04
304.157	3.93
304.37	4.46
304.582	4.59
304.795	4.65
305.007	4.8
305.22	4.93
305.432	4.85
305.645	5.46
305.857	5.66
306.069	5.65
306.282	5.03
306.494	5.22
306.707	4.92
306.919	5.07
307.132	5.13
307.344	4.78
307.556	4.32
307.769	4.51
307.981	4.11
308.193	4.02
308.406	4
308.618	4.1
308.83	4.03
309.043	4.37
309.255	4.55
309.467	4.49
309.679	4.44
309.892	4.97
310.104	4.89
310.316	5.21
310.528	4.93
310.74	4.73
310.953	5.17
311.165	5.22
311.377	5.29
311.589	5.21
311.801	5.43
312.013	5.56
312.225	5.53
312.437	5.48
312.649	5.22
312.862	5.59
313.074	5.7
313.286	5.19
313.498	5.33
313.71	5.1
313.922	4.59
314.134	4.53
314.346	4.87
314.558	4.9
314.77	5
314.982	5.21
315.193	5.32
315.405	5.49
315.617	5.87
315.829	6.17
316.041	6.6
316.253	6.63
316.465	6.67
316.677	6.18
316.888	6.2
317.1	6.21
317.312	6.15
317.524	6.1
317.736	5.97
317.947	6.04
318.159	6.28
318.371	5.68
318.583	6.22
318.794	5.91
319.006	6.2
319.218	5.75
319.43	5.92
319.641	6.28
319.853	6.18
320.064	6.32
320.276	6.51
320.488	6.18
320.699	6.22
320.911	6.28
321.123	5.99
321.334	6.1
321.546	6.96
321.757	7.33
321.969	7.17
322.18	7.31
322.392	7.48
322.603	7.17
322.815	7.31
323.026	7.66
323.238	8.14
323.449	8.21
323.661	8.17
323.872	7.84
324.083	7.57
324.295	8.04
324.506	7.56
324.718	7.86
324.929	8
325.14	8.06
325.352	8.08
325.563	7.87
325.774	8.19
325.986	8.3
326.197	8.58
326.408	8.4
326.62	7.99
326.831	8.32
327.042	8.23
327.253	8.19
327.464	8.31
327.676	8.35
327.887	8.47
328.098	8.91
328.309	9.41
328.52	9.59
328.732	10.06
328.943	10.36
329.154	11.24
329.365	11.54
329.576	11.9
329.787	11.86
329.998	12.32
330.209	12.58
330.42	12.54
330.631	12.13
330.842	12.17
331.053	12.22
331.264	12.81
331.475	12.64
331.686	12.32
331.897	12.42
332.108	12.78
332.319	12.86
332.53	12.71
332.741	12.66
332.952	12.92
333.163	13.02
333.374	13.24
333.585	13
333.795	13.09
334.006	13.66
334.217	13.57
334.428	13.46
334.639	13.58
334.849	13.73
335.06	13.94
335.271	14
335.482	13.75
335.692	13.81
335.903	13.87
336.114	13.91
336.325	13.49
336.535	13.71
336.746	13.57
336.957	13.34
337.167	13.32
337.378	13.11
337.589	12.71
337.799	12.68
338.01	12.68
338.22	12.74
338.431	12.4
338.642	12.76
338.852	12.72
339.063	12.92
339.273	13.03
339.484	12.75
339.694	13.14
339.905	13.3
340.115	13.56
340.326	13.03
340.536	12.82
340.746	12.93
340.957	12.79
341.167	13.11
341.378	12.96
341.588	12.7
341.799	12.71
342.009	12.49
342.219	12.62
342.43	12.64
342.64	12.82
342.85	12.99
343.061	12.86
343.271	12.93
343.481	12.62
343.691	12.77
343.902	12.72
344.112	12.6
344.322	12.61
344.532	12.64
344.743	12.7
344.953	12.73
345.163	12.61
345.373	12.92
345.583	12.71
345.793	12.47
346.004	12.4
346.214	12.57
346.424	12.68
346.634	13.02
346.844	13.25
347.054	12.93
347.264	12.87
347.474	12.6
347.684	12.36
347.894	12.49
348.104	12.55
348.314	12.59
348.524	12.6
348.734	12.38
348.944	12.03
349.154	11.74
349.364	12.01
349.574	12.32
349.784	12.46
349.994	12.47
350.204	12.28
350.413	12.34
350.623	12.05
350.833	11.78
351.043	11.86
351.253	11.74
351.463	11.73
351.672	11.51
351.882	11.54
352.092	11.55
352.302	11.45
352.511	11.65
352.721	11.58
352.931	11.96
353.141	12.22
353.35	12.48
353.56	12.34
353.77	12.38
353.979	12.52
354.189	12.07
354.399	11.88
354.608	11.85
354.818	11.73
355.027	11.85
355.237	11.66
355.447	11.4
355.656	11.46
355.866	11.56
356.075	11.63
356.285	11.65
356.494	11.59
356.704	11.77
356.913	11.84
357.123	11.95
357.332	11.91
357.542	11.83
357.751	12.09
357.96	12.15
358.17	12.2
358.379	12.22
358.589	12.18
358.798	12.34
359.007	12.3
359.217	12.34
359.426	12.29
359.635	12.01
359.845	11.89
360.054	11.74
360.263	11.74
360.472	11.82
360.682	11.37
360.891	11.3
361.1	11.4
361.309	11.47
361.519	11.34
361.728	11.05
361.937	11.36
362.146	11.58
362.355	11.69
362.564	11.66
362.774	11.6
362.983	11.99
363.192	11.98
363.401	12.03
363.61	12.12
363.819	12.16
364.028	12.45
364.237	12.55
364.446	12.21
364.655	12.38
364.864	12.19
365.073	12.12
365.282	12.06
365.491	12.2
365.7	11.85
365.909	11.52
366.118	11.82
366.327	11.75
366.536	11.43
366.745	11.58
366.954	11.2
367.162	11.19
367.371	11.3
367.58	11.2
367.789	11
367.998	11.22
368.207	11.4
368.415	11.01
368.624	11.15
368.833	11.38
369.042	11.34
369.25	11.36
369.459	11.51
369.668	11.42
369.877	11.39
370.085	11.26
370.294	11.26
370.503	11.11
370.711	11.53
370.92	11.17
371.129	11.14
371.337	11.27
371.546	11.31
371.754	11.11
371.963	11.12
372.171	11.02
372.38	11.13
372.589	11.22
372.797	11.41
373.006	11.26
373.214	11.48
373.423	11.22
373.631	11.2
373.84	10.95
374.048	11.18
374.256	11.1
374.465	11.27
374.673	11.37
374.882	11.25
375.09	11.15
375.298	10.96
375.507	10.76
375.715	11
375.923	10.83
376.132	11.1
376.34	10.88
376.548	10.8
376.757	10.91
376.965	10.72
377.173	10.33
377.381	10.49
377.59	10.64
377.798	10.66
378.006	10.35
378.214	10.64
378.423	10.82
378.631	10.95
378.839	11.06
379.047	10.85
379.255	10.84
379.463	11.03
379.671	10.94
379.879	10.96
380.088	10.96
380.296	11.08
380.504	10.85
380.712	10.64
380.92	10.45
381.128	10.41
381.336	10.28
381.544	10.47
381.752	10.63
381.96	10.36
382.168	10.07
382.376	10.26
382.584	10.37
382.791	10.37
382.999	10.28
383.207	10.38
383.415	10.47
383.623	10.55
383.831	10.57
384.039	10.48
384.247	10.46
384.454	10.54
384.662	10.39
384.87	10.3
385.078	10.3
385.285	10.13
385.493	10.01
385.701	9.86
385.909	9.87
386.116	9.66
386.324	9.71
386.532	9.77
386.739	9.59
386.947	9.51
387.155	9.48
387.362	9.38
387.57	9.35
387.778	9.27
387.985	9.38
388.193	9.48
388.4	9.47
388.608	9.44
388.816	9.33
389.023	9.55
389.231	9.59
389.438	9.55
389.646	9.44
389.853	9.35
390.061	9.51
390.268	9.36
390.475	9.17
390.683	9.27
390.89	9.37
391.098	9.45
391.305	9.27
391.512	9.31
391.72	9.24
391.927	9.63
392.135	9.65
392.342	9.63
392.549	9.65
392.756	9.66
392.964	9.47
393.171	9.36
393.378	9.33
393.586	9.42
393.793	9.38
394	9.37
394.207	9.12
394.414	9.19
394.622	9.07
394.829	9.12
395.036	9.14
395.243	9.31
395.45	9.29
395.657	9.28
395.864	9.21
396.072	9.36
396.279	9.29
396.486	9.3
396.693	9.44
396.9	9.5
397.107	9.23
397.314	9.27
397.521	9.03
397.728	9.11
397.935	9.13
398.142	9.08
398.349	8.97
398.556	8.99
398.763	8.89
398.97	8.85
399.177	8.95
399.383	9.01
399.59	8.85
399.797	8.82
400.004	8.9
400.211	8.94
400.418	9.08
400.625	9.25
400.831	9.23
401.038	9.17
401.245	9.2
401.452	9.11
401.658	9.19
401.865	9.21
402.072	9.36
402.279	9.35
402.485	9.22
402.692	9.25
402.899	9.16
403.105	9.25
403.312	9.41
403.519	9.41
403.725	9.38
403.932	9.52
404.138	9.58
404.345	9.57
404.552	9.53
404.758	9.4
404.965	9.4
405.171	9.32
405.378	9.25
405.584	9.11
405.791	9.14
405.997	9.09
406.204	8.95
406.41	9.01
406.617	8.9
406.823	8.66
407.029	8.84
407.236	8.77
407.442	8.9
407.649	9.04
407.855	9.15
408.061	9.05
408.268	8.94
408.474	8.96
408.68	8.78
408.887	8.98
409.093	9.19
409.299	9.19
409.505	9.15
409.712	9.17
409.918	9.11
410.124	9.34
410.33	9.27
410.537	9.41
410.743	9.51
410.949	9.65
411.155	9.56
411.361	9.58
411.567	9.54
411.773	9.58
411.98	9.39
412.186	9.44
412.392	9.19
412.598	9.28
412.804	9.14
413.01	9.01
413.216	9.05
413.422	9.12
413.628	8.95
413.834	9.11
414.04	8.98
414.246	9.16
414.452	9.22
414.658	9.21
414.864	9.11
415.07	9.26
415.275	9.18
415.481	9.13
415.687	9.03
415.893	8.97
416.099	8.82
416.305	8.91
416.511	8.75
416.716	8.69
416.922	8.67
417.128	8.76
417.334	8.9
417.539	8.95
417.745	9.01
417.951	9.17
418.157	9.37
418.362	9.41
418.568	9.48
418.774	9.48
418.979	9.55
419.185	9.51
419.391	9.51
419.596	9.44
419.802	9.49
420.008	9.41
420.213	9.9
420.419	9.83
420.624	9.79
420.83	9.72
421.035	9.83
421.241	9.87
421.446	9.92
421.652	9.83
421.857	9.82
422.063	9.77
422.268	9.91
422.474	9.43
422.679	9.4
422.885	9.46
423.09	9.46
423.295	9.37
423.501	9.32
423.706	9.37
423.911	9.38
424.117	9.35
424.322	9.4
424.527	9.32
424.733	9.31
424.938	9.28
425.143	9.3
425.349	9.32
425.554	9.33
425.759	9.32
425.964	9.25
426.169	9.37
426.375	9.43
426.58	9.47
426.785	9.53
426.99	9.5
427.195	9.64
427.4	9.64
427.605	9.76
427.811	9.77
428.016	9.72
428.221	9.85
428.426	9.83
428.631	9.73
428.836	9.68
429.041	9.62
429.246	9.55
429.451	9.53
429.656	9.43
429.861	9.35
430.066	9.43
430.271	9.57
430.476	9.42
430.681	9.41
430.886	9.48
431.09	9.38
431.295	9.37
431.5	9.56
431.705	9.46
431.91	9.54
432.115	9.63
432.32	9.51
432.524	9.39
432.729	9.37
432.934	9.33
433.139	9.32
433.343	9.46
433.548	9.54
433.753	9.49
433.958	9.55
434.162	9.53
434.367	9.5
434.572	9.5
434.776	9.52
434.981	9.64
435.186	9.75
435.39	9.9
435.595	9.81
435.799	9.75
436.004	9.75
436.209	9.77
436.413	9.85
436.618	9.83
436.822	9.96
437.027	10.03
437.231	10
437.436	10.02
437.64	9.87
437.845	10.01
438.049	10.06
438.253	10.07
438.458	10.09
438.662	10.16
438.867	10.22
439.071	10.13
439.275	10.02
439.48	9.99
439.684	9.9
439.888	10.02
440.093	9.96
440.297	9.89
440.501	9.94
440.706	9.98
440.91	9.95
441.114	9.86
441.318	9.94
441.523	10.03
441.727	10.1
441.931	10.16
442.135	10.04
442.339	10.05
442.543	10.11
442.748	10.1
442.952	10.07
443.156	10.06
443.36	10.2
443.564	10.18
443.768	10.13
443.972	10.11
444.176	10.1
444.38	10.15
444.584	10.14
444.788	10.18
444.992	10.16
445.196	10.15
445.4	10.12
445.604	9.99
445.808	9.97
446.012	9.99
446.216	10
446.42	10.02
446.624	10.08
446.828	10.16
447.032	10.04
447.235	10.1
447.439	10.08
447.643	10.08
447.847	10.09
448.051	10.09
448.254	10.04
448.458	10.04
448.662	10.01
448.866	9.98
449.069	9.86
449.273	9.95
449.477	9.82
449.681	9.8
449.884	9.78
450.088	9.8
450.292	9.75
450.495	9.88
450.699	9.84
450.902	9.78
451.106	9.77
451.31	9.78
451.513	9.74
451.717	9.79
451.92	9.91
452.124	9.96
452.327	9.93
452.531	9.98
452.734	9.9
452.938	9.87
453.141	9.99
453.345	10
453.548	9.9
453.752	9.97
453.955	9.94
454.158	9.8
454.362	9.71
454.565	9.77
454.769	9.75
454.972	9.81
455.175	9.92
455.379	9.86
455.582	9.89
455.785	10.05
455.988	10.03
456.192	10.05
456.395	10.18
456.598	10.35
456.801	10.43
457.005	10.45
457.208	10.4
457.411	10.38
457.614	10.38
457.817	10.28
458.021	10.21
458.224	10.26
458.427	10.26
458.63	10.2
458.833	10.11
459.036	10.04
459.239	10.11
459.442	10.15
459.645	10.11
459.848	10.09
460.051	10.08
460.254	10.07
460.457	9.97
460.66	9.98
460.863	9.99
461.066	9.99
461.269	9.97
461.472	9.88
461.675	9.84
461.878	9.91
462.081	9.97
462.284	9.95
462.486	9.96
462.689	10.06
462.892	10.06
463.095	10.04
463.298	10.02
463.5	10
463.703	10.06
463.906	10.05
464.109	9.95
464.311	9.84
464.514	9.97
464.717	9.93
464.92	9.9
465.122	9.95
465.325	9.94
465.528	9.97
465.73	9.93
465.933	9.92
466.135	9.97
466.338	9.9
466.541	9.94
466.743	9.88
466.946	9.99
467.148	9.94
467.351	9.87
467.553	9.93
467.756	9.96
467.958	9.95
468.161	9.91
468.363	9.84
468.566	9.97
468.768	10.05
468.971	9.96
469.173	9.84
469.375	9.97
469.578	10.02
469.78	9.95
469.983	9.97
470.185	10.02
470.387	10.01
470.59	10.1
470.792	10.09
470.994	10.05
471.196	10.07
471.399	10.18
471.601	10.11
471.803	10.16
472.005	10.18
472.208	10.1
472.41	10.09
472.612	10.08
472.814	10.06
473.016	10.17
473.218	10.13
473.421	10.12
473.623	10.12
473.825	10.07
474.027	10.05
474.229	10.12
474.431	10.17
474.633	10.24
474.835	10.28
475.037	10.28
475.239	10.17
475.441	10.22
475.643	10.3
475.845	10.24
476.047	10.34
476.249	10.28
476.451	10.21
476.653	10.26
476.855	10.29
477.057	10.28
477.258	10.26
477.46	10.26
477.662	10.31
477.864	10.35
478.066	10.44
478.268	10.43
478.469	10.39
478.671	10.32
478.873	10.27
479.075	10.21
479.276	10.27
479.478	10.33
479.68	10.41
479.882	10.35
480.083	10.35
480.285	10.32
480.487	10.37
480.688	10.47
480.89	10.53
481.091	10.58
481.293	10.62
481.495	10.53
481.696	10.47
481.898	10.37
482.099	10.35
482.301	10.37
482.502	10.35
482.704	10.31
482.905	10.26
483.107	10.27
483.308	10.25
483.51	10.23
483.711	10.24
483.913	10.22
484.114	10.21
484.315	10.2
484.517	10.2
484.718	10.19
484.92	10.2
485.121	10.22
485.322	10.23
485.524	10.23
485.725	10.25
485.926	10.28
486.127	10.28
486.329	10.33
486.53	10.36
486.731	10.32
486.932	10.37
487.134	10.36
487.335	10.37
487.536	10.36
487.737	10.37
487.938	10.36
488.139	10.35
488.341	10.38
488.542	10.33
488.743	10.32
488.944	10.34
489.145	10.29
489.346	10.31
489.547	10.29
489.748	10.24
489.949	10.22
490.15	10.18
490.351	10.18
490.552	10.18
490.753	10.22
490.954	10.23
491.155	10.23
491.356	10.21
491.557	10.19
491.758	10.2
491.959	10.25
492.159	10.25
492.36	10.24
492.561	10.22
492.762	10.21
492.963	10.19
493.164	10.17
493.364	10.16
493.565	10.2
493.766	10.21
493.967	10.3
494.167	10.23
494.368	10.28
494.569	10.39
494.769	10.45
494.97	10.55
495.171	10.5
495.371	10.51
495.572	10.48
495.773	10.49
495.973	10.41
496.174	10.28
496.375	10.4
496.575	10.32
496.776	10.29
496.976	10.19
497.177	10.11
497.377	10.16
497.578	10.21
497.778	10.24
497.979	10.27
498.179	10.37
498.38	10.43
498.58	10.38
498.78	10.4
498.981	10.37
499.181	10.41
499.382	10.4
499.582	10.4
499.782	10.44
499.983	10.47
500.183	10.41
500.383	10.44
500.584	10.35
500.784	10.29
500.984	10.27
501.184	10.33
501.385	10.39
501.585	10.45
501.785	10.5
501.985	10.47
502.185	10.41
502.386	10.46
502.586	10.34
502.786	10.34
502.986	10.39
503.186	10.53
503.386	10.49
503.586	10.55
503.786	10.55
503.987	10.57
504.187	10.59
504.387	10.67
504.587	10.69
504.787	10.81
504.987	10.84
505.187	10.92
505.387	10.87
505.587	10.89
505.786	10.87
505.986	11
506.186	10.97
506.386	10.99
506.586	11
506.786	11.03
506.986	11.02
507.186	11.07
507.386	11.17
507.585	11.17
507.785	11.26
507.985	11.29
508.185	11.22
508.384	11.29
508.584	11.26
508.784	11.28
508.984	11.29
509.183	11.38
509.383	11.41
509.583	11.39
509.782	11.46
509.982	11.46
510.182	11.57
510.381	11.6
510.581	11.61
510.781	11.67
510.98	11.68
511.18	11.66
511.379	11.57
511.579	11.6
511.778	11.57
511.978	11.6
512.177	11.65
512.377	11.56
512.576	11.61
512.776	11.71
512.975	11.73
513.175	11.75
513.374	11.82
513.573	11.93
513.773	12.02
513.972	12.11
514.172	12.11
514.371	12.2
514.57	12.31
514.77	12.34
514.969	12.35
515.168	12.42
515.367	12.48
515.567	12.51
515.766	12.57
515.965	12.63
516.164	12.62
516.364	12.64
516.563	12.58
516.762	12.63
516.961	12.61
517.16	12.58
517.359	12.62
517.559	12.68
517.758	12.75
517.957	12.77
518.156	12.77
518.355	12.81
518.554	12.86
518.753	12.91
518.952	12.91
519.151	12.99
519.35	13.08
519.549	13.13
519.748	13.23
519.947	13.29
520.146	13.37
520.345	13.49
520.544	13.55
520.743	13.59
520.942	13.64
521.141	13.71
521.339	13.7
521.538	13.74
521.737	13.74
521.936	13.65
522.135	13.61
522.333	13.71
522.532	13.76
522.731	13.82
522.93	13.84
523.129	13.85
523.327	13.85
523.526	13.98
523.725	14.08
523.923	14.26
524.122	14.4
524.321	14.44
524.519	14.4
524.718	14.34
524.917	14.4
525.115	14.49
525.314	14.62
525.512	14.71
525.711	14.83
525.909	14.88
526.108	14.86
526.306	14.88
526.505	14.99
526.703	15
526.902	15.13
527.1	15.19
527.299	15.2
527.497	15.22
527.696	15.26
527.894	15.26
528.092	15.27
528.291	15.31
528.489	15.33
528.688	15.35
528.886	15.43
529.084	15.45
529.283	15.43
529.481	15.5
529.679	15.55
529.877	15.61
530.076	15.65
530.274	15.7
530.472	15.74
530.67	15.8
530.869	15.92
531.067	15.93
531.265	15.94
531.463	16.06
531.661	16.12
531.859	16.15
532.057	16.19
532.255	16.22
532.454	16.24
532.652	16.32
532.85	16.37
533.048	16.33
533.246	16.38
533.444	16.45
533.642	16.47
533.84	16.51
534.038	16.56
534.236	16.55
534.434	16.65
534.632	16.77
534.83	16.8
535.027	16.87
535.225	16.91
535.423	16.95
535.621	16.93
535.819	16.97
536.017	16.99
536.215	17.06
536.412	17.12
536.61	17.13
536.808	17.12
537.006	17.14
537.203	17.18
537.401	17.28
537.599	17.36
537.797	17.47
537.994	17.51
538.192	17.59
538.39	17.5
538.587	17.56
538.785	17.59
538.983	17.64
539.18	17.72
539.378	17.79
539.575	17.84
539.773	17.92
539.97	18.03
540.168	18.08
540.366	18.11
540.563	18.17
540.761	18.15
540.958	18.16
541.155	18.26
541.353	18.29
541.55	18.32
541.748	18.31
541.945	18.31
542.143	18.28
542.34	18.34
542.537	18.36
542.735	18.42
542.932	18.52
543.129	18.58
543.327	18.57
543.524	18.63
543.721	18.67
543.919	18.82
544.116	18.99
544.313	19.17
544.51	19.23
544.708	19.34
544.905	19.41
545.102	19.45
545.299	19.57
545.496	19.64
545.693	19.68
545.891	19.69
546.088	19.67
546.285	19.58
546.482	19.47
546.679	19.47
546.876	19.45
547.073	19.53
547.27	19.54
547.467	19.47
547.664	19.48
547.861	19.51
548.058	19.46
548.255	19.41
548.452	19.35
548.649	19.35
548.846	19.35
549.043	19.35
549.24	19.32
549.437	19.33
549.633	19.44
549.83	19.42
550.027	19.32
550.224	19.51
550.421	19.58
550.618	19.59
550.814	19.69
551.011	19.71
551.208	19.76
551.405	19.66
551.601	19.7
551.798	19.66
551.995	19.67
552.191	19.8
552.388	19.65
552.585	19.65
552.781	19.76
552.978	19.71
553.175	19.68
553.371	19.7
553.568	19.76
553.764	19.77
553.961	19.71
554.157	19.74
554.354	19.73
554.55	19.77
554.747	19.78
554.943	19.86
555.14	19.88
555.336	20.04
555.533	20.03
555.729	20.09
555.926	20.13
556.122	20.22
556.318	20.17
556.515	20.16
556.711	20.28
556.907	20.25
557.104	20.12
557.3	20.21
557.496	20.09
557.693	20.08
557.889	20.03
558.085	20.05
558.281	20.08
558.478	20.11
558.674	20.04
558.87	19.97
559.066	20.1
559.262	20.29
559.459	20.2
559.655	20.21
559.851	20.25
560.047	20.26
560.243	20.21
560.439	20.15
560.635	20.19
560.831	20.29
561.027	20.49
561.223	20.38
561.419	20.29
561.615	20.32
561.811	20.42
562.007	20.5
562.203	20.7
562.399	20.87
562.595	20.92
562.791	20.85
562.987	20.96
563.183	20.86
563.379	20.96
563.575	20.91
563.771	21.07
563.966	21.12
564.162	21.08
564.358	21.02
564.554	20.93
564.75	20.87
564.945	21
565.141	20.94
565.337	21.03
565.533	21.03
565.728	21.15
565.924	21.19
566.12	21.14
566.315	21.19
566.511	21.15
566.707	21.19
566.902	21.25
567.098	21.11
567.293	21.1
567.489	21.09
567.684	21.11
567.88	21.05
568.076	20.94
568.271	20.83
568.467	20.76
568.662	20.78
568.858	20.8
569.053	20.83
569.248	21.01
569.444	21
569.639	20.98
569.835	21.01
570.03	21.04
570.225	21.18
570.421	21.34
570.616	21.36
570.812	21.35
571.007	21.37
571.202	21.38
571.397	21.31
571.593	21.38
571.788	21.43
571.983	21.5
572.178	21.53
572.374	21.47
572.569	21.46
572.764	21.43
572.959	21.48
573.154	21.41
573.35	21.41
573.545	21.5
573.74	21.51
573.935	21.51
574.13	21.54
574.325	21.56
574.52	21.56
574.715	21.64
574.91	21.69
575.105	21.77
575.3	21.85
575.495	21.94
575.69	21.96
575.885	21.86
576.08	21.89
576.275	21.92
576.47	21.97
576.665	21.92
576.86	21.86
577.055	21.98
577.25	21.93
577.444	21.98
577.639	22.03
577.834	22.05
578.029	22.24
578.224	22.28
578.418	22.29
578.613	22.34
578.808	22.35
579.003	22.32
579.197	22.29
579.392	22.29
579.587	22.28
579.781	22.29
579.976	22.32
580.171	22.23
580.365	22.22
580.56	22.07
580.755	21.98
580.949	22.17
581.144	22.29
581.338	22.43
581.533	22.33
581.727	22.42
581.922	22.45
582.116	22.59
582.311	22.61
582.505	22.66
582.7	22.84
582.894	22.88
583.089	22.82
583.283	22.71
583.478	22.67
583.672	22.82
583.866	22.77
584.061	22.86
584.255	22.73
584.449	22.76
584.644	22.81
584.838	22.68
585.032	22.66
585.226	22.63
585.421	22.97
585.615	23.08
585.809	23.17
586.003	23.08
586.198	22.92
586.392	22.92
586.586	22.87
586.78	22.76
586.974	22.75
587.168	22.78
587.363	22.77
587.557	22.58
587.751	22.53
587.945	22.51
588.139	22.61
588.333	22.66
588.527	22.76
588.721	22.87
588.915	22.93
589.109	23.04
589.303	23.01
589.497	23.01
589.691	22.98
589.885	22.89
590.079	22.88
590.273	22.87
590.466	22.91
590.66	22.88
590.854	22.86
591.048	22.91
591.242	22.94
591.436	22.9
591.629	22.95
591.823	22.92
592.017	22.96
592.211	22.92
592.404	22.95
592.598	22.93
592.792	22.78
592.986	22.85
593.179	22.88
593.373	22.85
593.567	22.91
593.76	22.87
593.954	22.9
594.147	22.95
594.341	22.97
594.535	22.82
594.728	22.86
594.922	22.95
595.115	22.89
595.309	22.84
595.502	22.77
595.696	22.82
595.889	22.82
596.083	22.78
596.276	22.68
596.47	22.66
596.663	22.64
596.856	22.62
597.05	22.65
597.243	22.65
597.437	22.74
597.63	22.92
597.823	23.07
598.017	23.13
598.21	23.23
598.403	23.3
598.596	23.42
598.79	23.68
598.983	23.72
599.176	23.79
599.369	23.79
599.563	23.67
599.756	23.49
599.949	23.32
600.142	23.28
600.335	23.28
600.528	23.21
600.722	23.11
600.915	23
601.108	22.96
601.301	22.89
601.494	22.91
601.687	22.91
601.88	23
602.073	22.99
602.266	22.95
602.459	22.87
602.652	22.97
602.845	23.1
603.038	23.22
603.231	23.27
603.424	23.32
603.617	23.28
603.809	23.33
604.002	23.3
604.195	23.35
604.388	23.46
604.581	23.55
604.774	23.52
604.966	23.4
605.159	23.33
605.352	23.35
605.545	23.35
605.737	23.46
605.93	23.51
606.123	23.49
606.316	23.37
606.508	23.32
606.701	23.28
606.894	23.35
607.086	23.45
607.279	23.47
607.471	23.54
607.664	23.56
607.857	23.61
608.049	23.55
608.242	23.72
608.434	23.91
608.627	24.26
608.819	24.67
609.012	24.93
609.204	25.29
609.397	25.67
609.589	25.97
609.782	26.37
609.974	26.82
610.166	27.29
610.359	27.64
610.551	28.04
610.743	28.29
610.936	28.48
611.128	28.79
611.32	29.06
611.513	29.06
611.705	29.08
611.897	29.03
612.09	28.73
612.282	28.68
612.474	28.51
612.666	28.22
612.858	27.98
613.051	27.77
613.243	27.54
613.435	27.09
613.627	27.12
613.819	27.02
614.011	26.89
614.203	26.84
614.395	26.56
614.588	26.49
614.78	26.49
614.972	26.35
615.164	26.21
615.356	25.93
615.548	25.78
615.74	25.33
615.932	25.07
616.124	24.85
616.315	24.85
616.507	24.64
616.699	24.44
616.891	24.32
617.083	24.26
617.275	24.14
617.467	23.93
617.659	23.99
617.85	24.06
618.042	24.06
618.234	23.91
618.426	23.78
618.618	23.85
618.809	23.8
619.001	23.83
619.193	23.6
619.384	23.71
619.576	23.77
619.768	23.64
619.959	23.65
620.151	23.7
620.343	23.91
620.534	23.83
620.726	23.87
620.917	23.8
621.109	23.78
621.301	23.95
621.492	23.93
621.684	24.02
621.875	24.18
622.067	24.16
622.258	24.25
622.45	24.32
622.641	24.46
622.832	24.46
623.024	24.61
623.215	24.48
623.407	24.44
623.598	24.37
623.789	24.42
623.981	24.45
624.172	24.67
624.363	24.58
624.555	24.51
624.746	24.54
624.937	24.54
625.129	24.57
625.32	24.63
625.511	24.65
625.702	24.57
625.893	24.55
626.085	24.54
626.276	24.29
626.467	24.32
626.658	24.33
626.849	24.28
627.04	24.44
627.231	24.33
627.422	24.38
627.614	24.46
627.805	24.49
627.996	24.55
628.187	24.45
628.378	24.57
628.569	24.52
628.76	24.66
628.951	24.63
629.142	24.49
629.332	24.75
629.523	24.81
629.714	24.89
629.905	25.07
630.096	25.22
630.287	25.24
630.478	25.25
630.669	25.44
630.859	25.32
631.05	25.26
631.241	25.17
631.432	25.02
631.623	24.93
631.813	24.89
632.004	24.71
632.195	24.47
632.385	24.65
632.576	24.67
632.767	24.36
632.957	24.27
633.148	24.27
633.339	24.31
633.529	24.2
633.72	24.18
633.91	24.14
634.101	24.2
634.292	23.99
634.482	23.62
634.673	23.61
634.863	23.79
635.054	23.82
635.244	23.97
635.435	24.12
635.625	24.33
635.815	24.24
636.006	24.15
636.196	23.97
636.387	24.07
636.577	24.36
636.767	24.3
636.958	24.19
637.148	24.24
637.338	24.07
637.529	24.09
637.719	24.04
637.909	24.2
638.099	24.19
638.29	24.33
638.48	24.23
638.67	24.23
638.86	24.18
639.05	24.13
639.241	23.98
639.431	24.21
639.621	24.09
639.811	24.13
640.001	23.85
640.191	23.82
640.381	23.73
640.571	24.04
640.761	23.87
640.951	23.99
641.141	24.14
641.331	24.26
641.521	24.06
641.711	24.22
641.901	24.15
642.091	24.41
642.281	24.52
642.471	24.48
642.661	24.42
642.851	24.52
643.041	24.49
643.231	24.39
643.42	24.41
643.61	24.48
643.8	24.11
643.99	24.21
644.18	24.1
644.369	24.11
644.559	24.21
644.749	24.04
644.939	23.84
645.128	23.65
645.318	23.61
645.508	23.72
645.697	23.81
645.887	23.99
646.076	23.76
646.266	23.86
646.456	23.86
646.645	23.92
646.835	24.02
647.024	24.31
647.214	24.54
647.403	24.66
647.593	24.57
647.782	24.45
647.972	24.47
648.161	24.64
648.351	24.56
648.54	24.46
648.73	24.52
648.919	24.75
649.108	24.53
649.298	24.49
649.487	24.5
649.677	24.57
649.866	24.65
650.055	24.56
650.244	24.48
650.434	24.93
650.623	24.96
650.812	25.05
651.002	25.11
651.191	25.25
651.38	25.33
651.569	25.4
651.758	25.21
651.947	25.16
652.137	25.28
652.326	25.41
652.515	25.16
652.704	25.33
652.893	25.39
653.082	25.07
653.271	25.25
653.46	25.12
653.649	25.05
653.838	25.22
654.027	25.15
654.216	25.01
654.405	24.86
654.594	24.78
654.783	24.74
654.972	24.44
655.161	24.74
655.35	24.59
655.539	24.45
655.728	24.32
655.916	24.17
656.105	24.34
656.294	24.62
656.483	24.6
656.672	24.45
656.86	24
657.049	24.14
657.238	23.88
657.427	24
657.615	23.98
657.804	24.47
657.993	24.69
658.181	24.84
658.37	24.69
658.559	24.77
658.747	24.84
658.936	25.22
659.125	24.94
659.313	25.13
659.502	25.21
659.69	25.35
659.879	25.09
660.067	25.01
660.256	24.98
660.444	24.8
660.633	24.76
660.821	24.85
661.01	25.09
661.198	25.4
661.387	25.1
661.575	24.89
661.763	24.85
661.952	25.02
662.14	24.94
662.328	24.65
662.517	24.78
662.705	24.76
662.893	24.49
663.082	24.12
663.27	24.14
663.458	24.6
663.646	24.69
663.834	24.65
664.023	24.72
664.211	24.8
664.399	25.31
664.587	25.36
664.775	25.37
664.963	25.75
665.152	25.67
665.34	25.51
665.528	25.23
665.716	25.01
665.904	25.03
666.092	24.82
666.28	24.71
666.468	24.25
666.656	24.38
666.844	24.36
667.032	24.18
667.22	24.48
667.408	24.66
667.596	24.61
667.784	24.84
667.971	25.02
668.159	24.91
668.347	24.95
668.535	25.03
668.723	25.17
668.911	25.19
669.098	25.3
669.286	25.05
669.474	25.06
669.662	25.09
669.849	25.18
670.037	25.21
670.225	25.34
670.413	25.34
670.6	25.24
670.788	25.27
670.976	25.32
671.163	25.28
671.351	25.15
671.538	24.97
671.726	25.09
671.913	25.01
672.101	24.98
672.289	24.79
672.476	24.73
672.664	24.82
672.851	24.43
673.039	24.53
673.226	24.68
673.413	25.04
673.601	25.24
673.788	25.38
673.976	25.19
674.163	24.96
674.35	25.05
674.538	24.93
674.725	25.18
674.912	25.36
675.1	25.34
675.287	25.14
675.474	24.99
675.662	25.17
675.849	24.97
676.036	25.12
676.223	25.29
676.411	25.56
676.598	26.12
676.785	25.83
676.972	25.9
677.159	26.01
677.346	26.13
677.533	26.35
677.721	26.06
677.908	26.27
678.095	26.38
678.282	26.21
678.469	25.92
678.656	25.73
678.843	25.79
679.03	25.68
679.217	25.43
679.404	25.13
679.591	25.01
679.778	24.99
679.964	24.7
680.151	24.75
680.338	24.69
680.525	24.93
680.712	24.85
680.899	24.72
681.086	24.69
681.272	24.8
681.459	24.87
681.646	24.88
681.833	25.15
682.02	25.29
682.206	25.07
682.393	25.25
682.58	25.12
682.766	25.2
682.953	25.36
683.14	25.61
683.326	25.57
683.513	25.55
683.7	25.38
683.886	25.27
684.073	25.41
684.259	25.47
684.446	25.34
684.632	25.33
684.819	25.16
685.005	25.31
685.192	25.33
685.378	25.18
685.565	25.47
685.751	25.47
685.938	25.13
686.124	24.81
686.31	24.79
686.497	24.88
686.683	25.15
686.87	25.01
687.056	25.13
687.242	24.91
687.429	25.3
687.615	25.38
687.801	25.49
687.987	25.89
688.174	26.04
688.36	26.01
688.546	26.12
688.732	25.93
688.918	26.1
689.105	25.79
689.291	25.72
689.477	25.83
689.663	25.76
689.849	25.84
690.035	25.63
690.221	25.7
690.407	25.35
690.593	25.41
690.779	25.38
690.965	25.48
691.151	25.86
691.337	26.2
691.523	26.24
691.709	26.18
691.895	25.99
692.081	26.09
692.267	26.19
692.453	26.51
692.639	26.15
692.825	26.1
693.011	26.33
693.196	26.11
693.382	25.65
693.568	25.21
693.754	25.39
693.94	25.54
694.125	25.52
694.311	25.42
694.497	25.72
694.682	26
694.868	25.74
695.054	25.37
695.239	25.44
695.425	25.47
695.611	25.54
695.796	25.03
695.982	25.21
696.168	25.21
696.353	25.28
696.539	25.38
696.724	25.43
696.91	25.84
697.095	25.8
697.281	25.85
697.466	25.9
697.652	26.09
697.837	26.24
698.023	26
698.208	25.9
698.393	25.69
698.579	25.4
698.764	25.51
698.949	25.23
699.135	25.37
699.32	25.03
699.505	25.04
699.691	24.67
699.876	24.64
700.061	24.56
700.246	24.55
700.432	24.67
700.617	25.03
700.802	24.85
700.987	25
701.172	25.06
701.358	25.32
701.543	25.42
701.728	25.64
701.913	26.06
702.098	26.57
702.283	26.93
702.468	26.81
702.653	26.46
702.838	26.61
703.023	26.69
703.208	26.61
703.393	26.77
703.578	26.97
703.763	27.11
703.948	26.88
704.133	26.82
704.318	26.82
704.503	26.99
704.688	27.21
704.873	27.02
705.057	27.51
705.242	27.46
705.427	27.47
705.612	27.29
705.797	27.41
705.981	27.65
706.166	27.64
706.351	27.33
706.536	27.45
706.72	27.61
706.905	27.83
707.09	27.53
707.274	27.81
707.459	28.09
707.644	28.06
707.828	28.11
708.013	28.03
708.197	27.57
708.382	27.66
708.567	28.02
708.751	27.77
708.936	27.68
709.12	27.7
709.305	27.56
709.489	27.46
709.673	27.72
709.858	27.71
710.042	27.34
710.227	27.52
710.411	27.93
710.596	27.53
710.78	27.43
710.964	27.63
711.149	27.27
711.333	27.09
711.517	26.77
711.702	26.73
711.886	26.72
712.07	26.98
712.254	26.96
712.438	26.63
712.623	26.32
712.807	26.68
712.991	26.46
713.175	26.68
713.359	26.59
713.544	26.67
713.728	27.02
713.912	27.08
714.096	26.99
714.28	26.93
714.464	26.6
714.648	27.09
714.832	26.87
715.016	26.8
715.2	26.71
715.384	26.79
715.568	26.66
715.752	26.11
715.936	26.12
716.12	25.93
716.304	25.79
716.488	26.13
716.671	25.95
716.855	25.92
717.039	26.11
717.223	25.99
717.407	25.79
717.59	25.61
717.774	25.72
717.958	25.41
718.142	25.5
718.325	25.42
718.509	25.63
718.693	25.43
718.877	25.34
719.06	24.82
719.244	25.02
719.428	24.95
719.611	25.46
719.795	25.6
719.978	25.6
720.162	25.53
720.345	25.65
720.529	25.06
720.713	25.38
720.896	25.12
721.08	25.19
721.263	25.29
721.446	25.34
721.63	25.21
721.813	24.7
721.997	24.86
722.18	25.03
722.364	25.13
722.547	25.52
722.73	25.51
722.914	25.69
723.097	25.65
723.28	25.23
723.464	25.38
723.647	24.95
723.83	25.31
724.013	25.49
724.197	25.34
724.38	25.26
724.563	25.34
724.746	25.51
724.929	25.35
725.112	25.7
725.296	25.47
725.479	25.66
725.662	25.86
725.845	25.72
726.028	25.48
726.211	25.74
726.394	25.94
726.577	26.03
726.76	25.43
726.943	25.53
727.126	25.48
727.309	26.16
727.492	25.98
727.675	26.29
727.858	26.32
728.041	25.95
728.224	25.77
728.407	25.94
728.589	25.73
728.772	26.05
728.955	26.38
729.138	26.33
729.321	26.07
729.503	26.26
729.686	26.15
729.869	26.39
730.052	26.5
730.234	26.11
730.417	26.12
730.6	26.04
730.782	26.06
730.965	25.95
731.148	25.78
731.33	25.5
731.513	25.01
731.695	24.58
731.878	24.77
732.061	24.93
732.243	25.31
732.426	25.29
732.608	25.38
732.791	25.56
732.973	25.41
733.156	25.79
733.338	26.33
733.52	26.68
733.703	26.82
733.885	26.14
734.068	26.42
734.25	26.8
734.432	27.01
734.615	27.03
734.797	27.39
734.979	27.9
735.162	27.63
735.344	27.32
735.526	27.39
735.708	27.83
735.891	28
736.073	28.04
736.255	27.67
736.437	27.65
736.619	27.54
736.802	26.9
736.984	26.55
737.166	26.54
737.348	26.75
737.53	26.58
737.712	26.77
737.894	26.84
738.076	26.64
738.258	26.55
738.44	26.32
738.622	26.35
738.804	26.57
738.986	26.7
739.168	26.85
739.35	26.5
739.532	26.65
739.714	27.03
739.896	27.53
740.078	28.2
740.259	28.46
740.441	28.23
740.623	28.25
740.805	28.42
740.987	29.03
741.168	28.83
741.35	29.32
741.532	29.85
741.714	28.89
741.895	28.61
742.077	27.16
742.259	27
742.44	27.61
742.622	27.67
742.804	27.58
742.985	26.86
743.167	26.92
743.348	26.98
743.53	26.77
743.711	27.11
743.893	27.49
744.075	28.51
744.256	28.54
744.438	28.49
744.619	28.56
744.8	27.89
744.982	28.2
745.163	28.19
745.345	28.25
745.526	28.16
745.707	28.21
745.889	28.16
746.07	28.24
746.252	28.42
746.433	28.69
746.614	28.98
746.795	29
746.977	28.33
747.158	28.43
747.339	28.32
747.52	27.82
747.702	27.82
747.883	27.76
748.064	26.81
748.245	26.63
748.426	26.38
748.607	25.81
748.788	26.55
748.97	27.2
749.151	27.76
749.332	27.56
749.513	28.34
749.694	28.8
749.875	28.84
750.056	29.45
750.237	30.12
750.418	29.36
750.599	29.44
750.78	29.16
750.96	28.93
751.141	28.29
751.322	28.38
751.503	28
751.684	27.57
751.865	27.5
752.046	27.94
752.226	27.6
752.407	27.7
752.588	27.7
752.769	27.42
752.949	26.99
753.13	27.17
753.311	27.62
753.492	28.46
753.672	28.7
753.853	28.25
754.034	27.11
754.214	26.24
754.395	26.99
754.575	27.24
754.756	27.67
754.937	28.07
755.117	28.34
755.298	27.79
755.478	26.75
755.659	26.96
755.839	27.47
756.02	27.69
756.2	28.4
756.381	27.99
756.561	27.48
756.741	27.62
756.922	27.99
757.102	27.66
757.283	27.14
757.463	27.19
757.643	26.04
757.823	26.08
758.004	26.5
758.184	26.35
758.364	26.31
758.545	26.55
758.725	26.45
758.905	25.91
759.085	26.14
759.265	26.71
759.446	26.08
759.626	26.8
759.806	26.04
759.986	25.58
760.166	25.49
760.346	25.44
760.526	25.5
760.706	25.41
760.886	26.02
761.066	25.47
761.246	25.1
761.426	25.25
761.606	25.18
761.786	25.16
761.966	25.49
762.146	25.42
762.326	25.18
762.506	24.69
762.686	24.68
762.866	23.94
763.046	24.39
763.225	24.75
763.405	25.4
763.585	25.07
763.765	25.5
763.945	25.47
764.124	25.69
764.304	25.81
764.484	26.36
764.664	26.14
764.843	26.63
765.023	26.29
765.203	26.24
765.382	25.97
765.562	26.47
765.741	26.24
765.921	26.85
766.101	26.07
766.28	26.26
766.46	25.88
766.639	26.05
766.819	25.93
766.998	26.5
767.178	26.1
767.357	25.77
767.537	25.7
767.716	26.04
767.896	25.48
768.075	26.18
768.254	25.89
768.434	26.14
768.613	25.84
768.792	25.91
768.972	25.97
769.151	26.24
769.33	26.49
769.51	25.98
769.689	26.22
769.868	26.36
770.047	26.09
770.226	27.23
770.406	26.93
770.585	27.02
770.764	27.28
770.943	26.19
771.122	25.65
771.301	26.2
771.48	27.32
771.66	26.43
771.839	25.3
772.018	25.65
772.197	24.99
772.376	26.44
772.555	27.63
772.734	26.92
772.913	27.91
773.092	28.48
773.271	27.9
773.449	27.44
773.628	27.55
773.807	28
773.986	27.07
774.165	27.27
774.344	26.02
774.523	25.47
774.701	25.36
774.88	25.87
775.059	26.38
775.238	27.23
775.417	27.4
775.595	28.31
775.774	29.89
775.953	30.74
776.131	30.22
776.31	29.68
776.489	29.34
776.667	29.5
776.846	28.95
777.025	28.87
777.203	28.39
777.382	28.05
777.56	27.36
777.739	27.09
777.917	26.73
778.096	26.69
778.274	28.04
778.453	28.1
778.631	28.24
778.81	28.32
778.988	28.27
779.166	28.32
779.345	28.59
779.523	29.04
779.702	27.58
779.88	27.92
780.058	27.38
780.237	27.17
780.415	27.11
780.593	27.14
780.771	26.54
780.95	25.44
781.128	25.65
781.306	25.67
781.484	24.92
781.662	25.94
781.841	27.05
782.019	27.78
782.197	27.68
782.375	27.75
782.553	28.4
782.731	28.99
782.909	29.72
783.087	29.45
783.265	28.61
783.443	28.81
783.621	28.29
783.799	27.38
783.977	27.27
784.155	27.48
784.333	27.25
784.511	27.04
784.689	26.88
784.867	26.93
785.045	26.8
785.223	27.12
785.4	26.68
785.578	27.34
785.756	27.07
785.934	27.99
786.112	27.97
786.289	27.89
786.467	28.33
786.645	28.06
786.823	28.31
787	28.22
787.178	28.23
787.356	28.86
787.533	27.98
787.711	27.42
787.889	26.68
788.066	25.5
788.244	25.36
788.421	25.22
788.599	24.71
788.776	24.66
788.954	25.34
789.131	25.49
789.309	25
789.486	25.1
789.664	25.57
789.841	24.89
790.019	26.24
790.196	26
790.373	25.37
790.551	25.87
790.728	25.93
790.906	26.06
791.083	25.11
791.26	25.11
791.437	24.39
791.615	24.31
791.792	26
791.969	24.34
792.146	25.6
792.324	25.41
792.501	26.66
792.678	26.2
792.855	25.39
793.032	26.02
793.209	26.66
793.387	28.16
793.564	29.24
793.741	27.96
793.918	27.91
794.095	28.28
794.272	27.88
794.449	26.41
794.626	27.77
794.803	27.71
794.98	27.28
795.157	27.61
795.334	27.24
795.511	26.68
795.688	27.09
795.864	27.84
796.041	27.29
796.218	27.32
796.395	27.28
796.572	27.12
796.749	27.55
796.925	27.39
797.102	27.12
797.279	27.05
797.456	27.22
797.632	26.73
797.809	27.74
797.986	27.65
798.162	27.7
798.339	27.89
798.516	27.03
798.692	27.2
798.869	27.52
799.046	26.98
799.222	27.11
799.399	26.81
799.575	27.74
799.752	26.48
799.928	26.45
800.105	27.22
800.281	28.41
800.458	28.38
800.634	27.7
800.811	27.33
800.987	28.15
801.163	27.04
801.34	27.46
801.516	27.17
801.692	26.95
801.869	27.04
802.045	26.89
802.221	23.99
802.398	23.81
802.574	23.12
802.75	24.22
802.926	23.98
803.103	24.47
803.279	23.3
803.455	22.63
803.631	23.09
803.807	22.73
803.983	22.42
804.16	23.78
804.336	24.15
804.512	25.69
804.688	25.75
804.864	24.78
805.04	25.66
805.216	26.98
805.392	28.16
805.568	28.4
805.744	29.05
805.92	27.96
806.096	28.33
806.272	27.77
806.448	27.55
806.623	26.72
806.799	26.59
806.975	25.49
807.151	25
807.327	24.1
807.503	22.66
807.678	22.08
807.854	25.26
808.03	26.06
808.206	26.95
808.381	26.4
808.557	27.36
808.733	27.94
808.908	28.93
809.084	29.03
809.26	29.28
809.435	30.25
809.611	29.48
809.787	27.32
809.962	26.52
810.138	25.75
810.313	25.48
810.489	25.68
810.664	25.55
810.84	24.76
811.015	25.08
811.191	25.42
811.366	24.88
811.542	25.48
811.717	26.23
811.892	27.02
812.068	27.14
812.243	26.68
812.419	25.85
812.594	26.83
812.769	27.99
812.944	26.88
813.12	25.8
813.295	26.03
813.47	25.49
813.645	24.18
813.821	22.59
813.996	24.56
814.171	25.68
814.346	26.28
814.521	24.57
814.697	24.92
814.872	24.49
815.047	24.73
815.222	25.4
815.397	25.86
815.572	26.73
815.747	27.86
815.922	25.34
816.097	25.42
816.272	23.7
816.447	24.2
816.622	23.84
816.797	23.29
816.972	23.65
817.147	23.78
817.322	23.02
817.496	22.28
817.671	22.89
817.846	24.19
818.021	23.76
818.196	24.44
818.371	26.14
818.545	25.83
818.72	27.18
818.895	26.16
819.069	25.24
819.244	25.1
819.419	26.06
819.594	26.41
819.768	25.31
819.943	25.83
820.117	25.49
820.292	24.09
820.467	23.53
820.641	23.44
820.816	23.65
820.99	23.95
821.165	24.34
821.339	23.95
821.514	23.4
821.688	23.64
821.863	23.16
822.037	22.9
822.212	22.95
822.386	23.18
822.56	22.9
822.735	23.06
822.909	23.04
823.084	22.85
823.258	22.91
823.432	22.79
823.606	22.64
823.781	22.78
823.955	23.02
824.129	23.35
824.303	23.59
824.478	23.96
824.652	23.46
824.826	23.63
825	23.72
825.174	23.81
825.348	24.28
825.523	24.4
825.697	24.35
825.871	24.36
826.045	23.59
826.219	22.97
826.393	22.82
826.567	23.49
826.741	22.92
826.915	23.1
827.089	22.28
827.263	22.61
827.437	22.66
827.611	22.63
827.784	23.16
827.958	23.23
828.132	23.34
828.306	23.22
828.48	23.16
828.654	23.46
828.827	23.37
829.001	23.89
829.175	22.67
829.349	22.44
829.522	22.37
829.696	21.18
829.87	21.08
830.044	21.55
830.217	22.22
830.391	22.27
830.565	22.23
830.738	22.96
830.912	23.11
831.085	24.11
831.259	25.49
831.432	25.83
831.606	27.68
831.779	26.68
831.953	25.64
832.126	26.07
832.3	25.87
832.473	25.29
832.647	23.99
832.82	24.83
832.994	24.24
833.167	23.19
833.34	23.25
833.514	22.21
833.687	23.28
833.86	23.08
834.034	22.52
834.207	22.24
834.38	22.46
834.553	23.23
834.727	23.06
834.9	23.11
835.073	22.89
835.246	23.1
835.419	23.19
835.593	23.14
835.766	23.18
835.939	22.71
836.112	22.98
836.285	23.09
836.458	23.44
836.631	22.91
836.804	23.39
836.977	24.16
837.15	23.47
837.323	23.58
837.496	24.59
837.669	24.41
837.842	26.3
838.015	26.9
838.188	28.16
838.361	27.74
838.533	28.33
838.706	28.41
838.879	28.2
839.052	28.62
839.225	30.43
839.398	28.52
839.57	28.1
839.743	26.34
839.916	26.36
840.088	25.68
840.261	25.01
840.434	25.4
840.607	25.93
840.779	25.38
840.952	23.94
841.124	23.39
841.297	22.96
841.47	23.01
841.642	24.29
841.815	24.18
841.987	23.83
842.16	22.88
842.332	19.93
842.505	18.2
842.677	20.63
842.85	22.87
843.022	21.68
843.194	24.04
843.367	23.78
843.539	24.47
843.712	23.48
843.884	26.29
844.056	29.19
844.229	32.29
844.401	34.72
844.573	32.48
844.745	31.93
844.918	32.59
845.09	31.03
845.262	32.34
845.434	30.33
845.606	32.48
845.779	30.08
845.951	27.84
846.123	25.98
846.295	26.13
846.467	26.89
846.639	29.25
846.811	29.69
846.983	29.46
847.155	28.59
847.327	28.59
847.499	29.64
847.671	30.38
847.843	30.18
848.015	30.65
848.187	29.58
848.359	29.55
848.531	26.37
848.703	26.53
848.875	28.08
849.047	28.71
849.218	31
849.39	24.4
849.562	24.41
849.734	23.88
849.905	25.69
850.077	25.9
850.249	23.5
850.421	21.58
850.592	22.14
850.764	21.72
850.936	23.18
851.107	23.07
851.279	27.05
851.451	27.19
851.622	30.79
851.794	29.07
851.965	30.71
852.137	31.29
852.308	33.25
852.48	30.07
852.651	30.4
852.823	30.77
852.994	25.51
853.166	22.85
853.337	18.2
853.509	15.02
853.68	15.31
853.851	16.91
854.023	16.26
854.194	17.83
854.365	19.92
854.537	20.87
854.708	21.28
854.879	24.05
855.05	27.43
855.222	32.2
855.393	30.08
855.564	32.16
855.735	28.23
855.906	25.31
856.078	23.07
856.249	23.15
856.42	21.85
856.591	20.96
856.762	22.01
856.933	19.69
857.104	11.86
857.275	16.99
857.446	17.79
857.617	20.4
857.788	25.35
857.959	28.09
858.13	24.68
858.301	22.14
858.472	22.17
858.643	22.42
858.814	28.05
858.985	37.06
859.155	38.03
859.326	36.78
859.497	35.75
859.668	31.21
859.839	24.14
860.009	26.82
860.18	29.48
860.351	26.9
860.522	24.49
860.692	23.91
860.863	20.64
861.034	16.48
861.204	17.36
861.375	16.98
861.546	21.15
861.716	28.87
861.887	28.58
862.057	28.89
862.228	32.53
862.398	35.22
862.569	33.25
862.739	33.12
862.91	34.51
863.08	31.27
863.251	30.84
863.421	26.88
863.592	19.71
863.762	22.89
863.932	20.94
864.103	22.62
864.273	22.81
864.443	21.13
864.614	24.9
864.784	24.78
864.954	24.55
865.125	23.25
865.295	29.27
865.465	31.98
865.635	31.1
865.805	30.85
865.976	23.25
866.146	21.56
866.316	18.88
866.486	16.48
866.656	15.89
866.826	18.59
866.996	21.16
867.166	17.17
867.336	19.31
867.506	17.2
867.676	20.92
867.846	25.76
868.016	33.03
868.186	33.64
868.356	29.17
868.526	31.93
868.696	26.68
868.866	23.35
869.036	22.72
869.206	21.84
869.376	23.62
869.545	22.79
869.715	22.82
869.885	15.01
870.055	19.1
870.224	18.06
870.394	17.32
870.564	22.24
870.734	24.21
870.903	20.85
871.073	18.58
871.243	17.04
871.412	16.2
871.582	13.61
871.751	13.35
871.921	10.4
872.091	14.66
872.26	12.14
872.43	10.54
872.599	11.38
872.769	15.22
872.938	20.16
873.108	17.82
873.277	16.65
873.446	17.36
873.616	17.39
873.785	16.95
873.955	15.51
874.124	13.34
874.293	14.81
874.463	10.03
874.632	8.47
874.801	8.52
874.971	13.02
875.14	12.62
875.309	14.1
875.478	14.08
875.647	19.44
875.817	25.45
875.986	30.6
876.155	28.15
876.324	29.13
876.493	31.99
876.662	31.07
876.831	31.01
877	27.61
877.17	28.1
877.339	29.32
877.508	30.96
877.677	25.7
877.846	23.02
878.015	24.89
878.184	28.84
878.352	27.41
878.521	23.81
878.69	23.71
878.859	27.34
879.028	27.42
879.197	28.04
879.366	27.16
879.534	27.24
879.703	28.56
879.872	25.12
880.041	23.85
880.21	24.41
880.378	24.89
880.547	22.21
880.716	21.46
880.884	20.91
881.053	21.23
881.222	19.69
881.39	19.47
881.559	20.41
881.727	21.89
881.896	22.19
882.065	21.84
882.233	22.19
882.402	23.36
882.57	23.23
882.739	23.22
882.907	22.96
883.076	23.34
883.244	23.57
883.412	22.66
883.581	22.48
883.749	21.97
883.918	22.18
884.086	22.56
884.254	21.29
884.423	22.06
884.591	22.42
884.759	21.99
884.927	22.02
885.096	22.67
885.264	22.28
885.432	21.76
885.6	22.05
885.769	21.68
885.937	18.52
886.105	18.91
886.273	19.42
886.441	17.87
886.609	18.03
886.777	16.58
886.945	15.61
887.113	19.28
887.281	17.8
887.449	18.74
887.617	19.08
887.785	22.22
887.953	22.21
888.121	16.26
888.289	18.36
888.457	17.29
888.625	19.87
888.793	20.23
888.961	18.25
889.129	20.49
889.296	20.77
889.464	20.86
889.632	21.14
889.8	23.43
889.967	28.96
890.135	28.52
