Data from 2938815__Reflection_02.txt Node
Date: Thu Mar 12 15:43:00 EDT 2015
User: robert
Spectrometer: USB4E03002
Autoset integration time: false
Trigger mode: 4
Integration Time (sec): 1.000000E-1
Scans to average: 10
Electric dark correction enabled: false
Nonlinearity correction enabled: false
Boxcar width: 5
Stray light correction enabled: false
XAxis mode: Wavelengths
Stop averaging: false
Number of Pixels in Spectrum: 3648
>>>>>Begin Spectral Data<<<<<
177.575	-988.1
177.794	-981.54
178.014	-646.77
178.233	-3254.84
178.452	1648.72
178.672	-4577.42
178.891	-893.72
179.11	-983.94
179.33	-1254.82
179.549	-1505.41
179.768	-10995.45
179.987	-8425
180.207	-1329.09
180.426	3571.88
180.645	-2337.11
180.864	-1904.24
181.084	3718.75
181.303	1293.71
181.522	7046.87
181.741	0
181.96	57650
182.179	-8488.89
182.398	-4562
182.618	2513.68
182.837	-3110.81
183.056	-3737.29
183.275	-3436.07
183.494	-6606.06
183.713	3632.79
183.932	1455.17
184.151	1315.44
184.37	553.93
184.589	502.66
184.808	406.58
185.027	290.84
185.246	326.17
185.465	274.94
185.684	312.4
185.903	346.3
186.122	435.69
186.341	470.72
186.56	457.55
186.779	503.07
186.998	724.86
187.216	697.63
187.435	1188.11
187.654	943.69
187.873	1330.3
188.092	1104.64
188.311	729.34
188.53	572.22
188.748	495.3
188.967	521.38
189.186	996.44
189.405	517.7
189.623	519.09
189.842	594.84
190.061	550.93
190.28	620.85
190.498	638.9
190.717	1336.14
190.936	1877.5
191.154	1241.9
191.373	1122
191.592	1885.47
191.81	-70200
192.029	-1505.88
192.248	-778.84
192.466	-542.86
192.685	-710.73
192.904	-576.84
193.122	-474.21
193.341	-512.85
193.559	-507.04
193.778	-432.81
193.996	-2529.23
194.215	4197.37
194.433	560.06
194.652	335.65
194.87	310.32
195.089	402.92
195.307	477.96
195.526	368.24
195.744	336.63
195.963	319.66
196.181	346.63
196.399	398.54
196.618	427.05
196.836	570.74
197.055	970.26
197.273	753.02
197.491	546.54
197.71	362.35
197.928	370.57
198.146	386.27
198.365	607.63
198.583	637.27
198.801	667.46
199.019	795.74
199.238	584.32
199.456	422.7
199.674	512.41
199.892	612.14
200.111	746.1
200.329	592.8
200.547	487.83
200.765	452.26
200.983	445.23
201.202	397.32
201.42	369.7
201.638	460.04
201.856	523.04
202.074	413.09
202.292	376.15
202.51	714.33
202.728	804.44
202.946	1088.5
203.165	669.08
203.383	705.74
203.601	770.1
203.819	1118.6
204.037	852.9
204.255	643.79
204.473	840.6
204.691	3281.82
204.909	670.73
205.127	767.14
205.345	508.9
205.562	348.75
205.78	346.21
205.998	295.48
206.216	269.22
206.434	254.34
206.652	256.72
206.87	256.28
207.088	254.16
207.306	230.61
207.523	207.69
207.741	216.31
207.959	337.52
208.177	323.27
208.395	349.21
208.612	334.62
208.83	372.75
209.048	443.49
209.266	435
209.483	274.23
209.701	277.15
209.919	328.59
210.136	414.8
210.354	311.54
210.572	289.29
210.79	260.09
211.007	280.19
211.225	273.86
211.442	228.54
211.66	211.64
211.878	229.25
212.095	212.12
212.313	190.13
212.53	204.28
212.748	198.7
212.966	183.12
213.183	182.82
213.401	185.48
213.618	187.38
213.836	208.68
214.053	202.14
214.271	234.76
214.488	278.24
214.705	274.94
214.923	221.3
215.14	211.58
215.358	222.98
215.575	238.95
215.793	214.86
216.01	196.39
216.227	173
216.445	192.43
216.662	174.71
216.879	162.24
217.097	165.31
217.314	172.92
217.531	189.78
217.749	192.87
217.966	182.32
218.183	187.21
218.4	182.21
218.618	202.52
218.835	190.05
219.052	185.78
219.269	180.64
219.487	164.48
219.704	158.16
219.921	154.41
220.138	145.11
220.355	140.85
220.572	131.83
220.79	132.37
221.007	124.51
221.224	123.37
221.441	120.39
221.658	119.14
221.875	113.47
222.092	105.51
222.309	95.77
222.526	94.3
222.743	91.69
222.96	88.15
223.177	81.71
223.394	74.48
223.611	70.79
223.828	68.99
224.045	72.36
224.262	73.18
224.479	72.9
224.696	73.62
224.913	72.06
225.13	68.66
225.347	67.25
225.564	65.74
225.781	62.02
225.997	59.01
226.214	54.23
226.431	51.48
226.648	48.05
226.865	44.1
227.082	40.66
227.298	35.74
227.515	33.05
227.732	30.29
227.949	29.01
228.165	27.12
228.382	25.73
228.599	24.36
228.816	21.68
229.032	20.01
229.249	19.72
229.466	19.21
229.682	19.42
229.899	19.3
230.116	18.25
230.332	18.16
230.549	19.15
230.765	19.74
230.982	20.32
231.199	21.6
231.415	23.55
231.632	23.29
231.848	23.47
232.065	23.91
232.281	25.17
232.498	25.69
232.714	25.96
232.931	25.52
233.147	25.03
233.364	25.36
233.58	25.5
233.797	25.05
234.013	25.77
234.23	26.21
234.446	25.61
234.662	25.26
234.879	25.9
235.095	24.43
235.312	25.21
235.528	26.9
235.744	27.1
235.961	27.8
236.177	29
236.393	28.6
236.61	29.04
236.826	30.04
237.042	30.53
237.258	31.7
237.475	33.29
237.691	32.31
237.907	30.48
238.123	30.55
238.339	30.17
238.556	29.44
238.772	29.34
238.988	29.24
239.204	27.91
239.42	26.57
239.636	26.8
239.853	25.78
240.069	24.66
240.285	23.54
240.501	21.75
240.717	19.98
240.933	19.17
241.149	17.54
241.365	16.38
241.581	16.08
241.797	15.74
242.013	14.44
242.229	13.21
242.445	12.78
242.661	13
242.877	13.07
243.093	13.35
243.309	13.47
243.525	14.48
243.741	14.99
243.957	15.19
244.173	15.15
244.388	16.14
244.604	16.78
244.82	16.72
245.036	16.17
245.252	15.65
245.468	15.01
245.683	13.99
245.899	12.98
246.115	12.55
246.331	11.6
246.547	11.36
246.762	10.89
246.978	10.68
247.194	10.73
247.409	10.54
247.625	10.43
247.841	10.48
248.057	10.62
248.272	10.38
248.488	10.12
248.703	10.5
248.919	10.8
249.135	10.74
249.35	10.87
249.566	11.69
249.782	12.14
249.997	12.41
250.213	12.42
250.428	12.18
250.644	12.04
250.859	12.07
251.075	12.45
251.29	12.69
251.506	12.96
251.721	13.2
251.937	13.31
252.152	13.22
252.368	13.27
252.583	13.5
252.798	14
253.014	15.06
253.229	15.23
253.445	15.9
253.66	16.13
253.875	16
254.091	16
254.306	15.78
254.521	15.84
254.737	17.19
254.952	16.82
255.167	16.52
255.383	16.38
255.598	16.26
255.813	15.36
256.028	13.87
256.244	13.91
256.459	14.55
256.674	13.94
256.889	13.59
257.104	12.12
257.32	12.98
257.535	12.76
257.75	11.86
257.965	11.67
258.18	11.25
258.395	11.22
258.61	10.75
258.826	10.06
259.041	9.52
259.256	9.52
259.471	9.42
259.686	8.76
259.901	8.77
260.116	8.92
260.331	8.56
260.546	8.69
260.761	8.76
260.976	9.08
261.191	9.36
261.406	9.65
261.621	9.26
261.836	9.54
262.05	9.95
262.265	10.58
262.48	10.79
262.695	11.58
262.91	11.58
263.125	11.49
263.34	11.12
263.555	11.27
263.769	11.4
263.984	12.02
264.199	11.49
264.414	11.86
264.629	11.32
264.843	11.35
265.058	12.34
265.273	12.36
265.488	12.58
265.702	12.87
265.917	12.6
266.132	12.56
266.346	12.57
266.561	12.39
266.776	11.77
266.99	11.4
267.205	11.38
267.42	10.68
267.634	10.54
267.849	10.26
268.063	9.8
268.278	9.55
268.492	9.23
268.707	8.75
268.922	8.55
269.136	8.76
269.351	8.83
269.565	8.2
269.78	8.23
269.994	7.72
270.209	7.97
270.423	8.16
270.637	8.5
270.852	8.51
271.066	8.87
271.281	9.01
271.495	9.2
271.709	9.17
271.924	9.18
272.138	9.18
272.353	9.15
272.567	9.02
272.781	9.33
272.996	9.39
273.21	9.48
273.424	9.34
273.638	9.58
273.853	9.33
274.067	9.25
274.281	9.74
274.495	9.53
274.71	9.83
274.924	9.84
275.138	9.42
275.352	9.53
275.566	9.69
275.781	9.97
275.995	9.77
276.209	10.28
276.423	10.53
276.637	10.16
276.851	9.96
277.065	10.21
277.279	10.52
277.493	10.99
277.707	10.49
277.921	9.87
278.135	9.79
278.349	9.46
278.563	9.29
278.777	9.67
278.991	9.84
279.205	10.63
279.419	10.35
279.633	10.38
279.847	10.07
280.061	10.43
280.275	10.89
280.489	10.68
280.703	11.26
280.917	11.13
281.131	10.36
281.344	10.32
281.558	9.83
281.772	10.07
281.986	9.69
282.2	9.47
282.414	9.2
282.627	8.84
282.841	8.78
283.055	8.68
283.269	8.85
283.482	9
283.696	8.92
283.91	8.66
284.123	8.21
284.337	8.32
284.551	8.09
284.764	7.98
284.978	8.11
285.192	8
285.405	7.53
285.619	7.2
285.833	7.38
286.046	7.27
286.26	7.24
286.473	7.35
286.687	7.4
286.9	7.73
287.114	8.12
287.327	8.17
287.541	8.04
287.754	8.34
287.968	8.5
288.181	8.17
288.395	8.03
288.608	8.15
288.822	8.16
289.035	8.08
289.248	7.65
289.462	7.14
289.675	7.28
289.889	7.69
290.102	7.97
290.315	7.91
290.529	7.85
290.742	7.93
290.955	8.06
291.169	8.4
291.382	8.49
291.595	8.77
291.808	8.96
292.022	8.83
292.235	8.75
292.448	8.91
292.661	8.9
292.875	9.31
293.088	9.52
293.301	9.64
293.514	9.23
293.727	8.94
293.94	9.28
294.153	9.7
294.367	9.91
294.58	9.72
294.793	9.37
295.006	9.35
295.219	9.16
295.432	9.14
295.645	8.88
295.858	8.83
296.071	8.72
296.284	8.49
296.497	8.28
296.71	8.15
296.923	8.07
297.136	8.11
297.349	8.14
297.562	8.2
297.775	8.1
297.988	8.1
298.201	8.37
298.414	8.32
298.626	8.36
298.839	8.04
299.052	8.1
299.265	8.28
299.478	8.42
299.691	8.55
299.903	8.37
300.116	8.68
300.329	9.14
300.542	9.29
300.755	9.99
300.967	9.94
301.18	10.13
301.393	9.97
301.605	10.25
301.818	10.28
302.031	10.29
302.243	10.57
302.456	10.75
302.669	10.8
302.881	10.6
303.094	10.45
303.307	10.53
303.519	10.65
303.732	10.81
303.944	10.64
304.157	10.25
304.37	10.11
304.582	10.32
304.795	10.29
305.007	10.18
305.22	10.08
305.432	10.06
305.645	10.21
305.857	10.38
306.069	10.52
306.282	10.7
306.494	11.17
306.707	11.51
306.919	11.74
307.132	11.53
307.344	11.53
307.556	11.99
307.769	11.86
307.981	11.78
308.193	11.8
308.406	11.98
308.618	11.78
308.83	11.67
309.043	11.46
309.255	11.15
309.467	11.09
309.679	11.17
309.892	10.83
310.104	10.51
310.316	10.66
310.528	10.63
310.74	10.51
310.953	10.86
311.165	10.86
311.377	10.95
311.589	10.87
311.801	11.1
312.013	10.95
312.225	11.07
312.437	11.5
312.649	11.44
312.862	11.6
313.074	11.77
313.286	11.74
313.498	11.86
313.71	11.86
313.922	12.09
314.134	12.24
314.346	12.56
314.558	12.96
314.77	13.03
314.982	13.54
315.193	13.47
315.405	13.47
315.617	13.28
315.829	13.19
316.041	12.87
316.253	12.87
316.465	12.8
316.677	13.31
316.888	12.63
317.1	12.88
317.312	12.51
317.524	12.44
317.736	13.13
317.947	13.43
318.159	13.58
318.371	14.22
318.583	14.05
318.794	14.53
319.006	14.26
319.218	14.58
319.43	14.28
319.641	14.22
319.853	14.63
320.064	14.24
320.276	14.14
320.488	14.67
320.699	15.19
320.911	15.17
321.123	14.92
321.334	14.94
321.546	15.23
321.757	15.5
321.969	15.61
322.18	15.33
322.392	15.18
322.603	15.4
322.815	15.43
323.026	14.8
323.238	15.12
323.449	15.2
323.661	14.66
323.872	14.63
324.083	15.17
324.295	15.1
324.506	15.18
324.718	14.73
324.929	14.79
325.14	14.54
325.352	14.6
325.563	14.32
325.774	14.46
325.986	14.72
326.197	15.06
326.408	14.65
326.62	14.69
326.831	14.9
327.042	15.33
327.253	15.17
327.464	14.89
327.676	15.22
327.887	15.93
328.098	15.65
328.309	15.85
328.52	15.61
328.732	15.85
328.943	16.12
329.154	16.62
329.365	16.76
329.576	16.76
329.787	17.43
329.998	17.29
330.209	17.14
330.42	17.75
330.631	18.07
330.842	18.15
331.053	18.19
331.264	18.16
331.475	17.95
331.686	18.03
331.897	18.64
332.108	18.64
332.319	18.48
332.53	18.51
332.741	18.14
332.952	17.97
333.163	18.01
333.374	18.07
333.585	18.05
333.795	17.65
334.006	17.43
334.217	17.54
334.428	17.54
334.639	18.08
334.849	18.15
335.06	18.25
335.271	18.32
335.482	18.54
335.692	18.7
335.903	18.86
336.114	18.97
336.325	19.16
336.535	19.13
336.746	18.81
336.957	18.63
337.167	18.85
337.378	18.92
337.589	19.05
337.799	19.05
338.01	18.84
338.22	18.81
338.431	19.18
338.642	19.47
338.852	19.2
339.063	19.42
339.273	19.24
339.484	18.83
339.694	18.86
339.905	18.65
340.115	18.4
340.326	18.46
340.536	18.52
340.746	18.13
340.957	17.64
341.167	17.96
341.378	18.01
341.588	17.9
341.799	17.67
342.009	17.45
342.219	17.59
342.43	18
342.64	17.32
342.85	17.16
343.061	16.84
343.271	17.14
343.481	16.53
343.691	16.52
343.902	16.53
344.112	16.76
344.322	16.72
344.532	16.68
344.743	16.25
344.953	16.73
345.163	16.8
345.373	17.2
345.583	17.09
345.793	17.4
346.004	17.4
346.214	17.64
346.424	18
346.634	18.06
346.844	18.09
347.054	18.19
347.264	18.35
347.474	18.23
347.684	18.38
347.894	18.16
348.104	17.72
348.314	17.72
348.524	17.54
348.734	17.53
348.944	17.57
349.154	17.29
349.364	17.34
349.574	17.31
349.784	17.32
349.994	17.21
350.204	17.32
350.413	17.61
350.623	17.39
350.833	17.66
351.043	17.39
351.253	17.25
351.463	17.51
351.672	17.34
351.882	17.17
352.092	17.15
352.302	17.13
352.511	17.29
352.721	17.29
352.931	17.51
353.141	17.14
353.35	17.18
353.56	17.2
353.77	16.99
353.979	16.98
354.189	16.86
354.399	17
354.608	16.86
354.818	16.69
355.027	16.56
355.237	16.76
355.447	16.63
355.656	16.4
355.866	16.16
356.075	16.17
356.285	16.14
356.494	16.1
356.704	15.84
356.913	15.68
357.123	15.6
357.332	15.55
357.542	15.31
357.751	15.41
357.96	15.53
358.17	15.84
358.379	15.89
358.589	16.1
358.798	16.21
359.007	16.44
359.217	16.52
359.426	16.58
359.635	16.75
359.845	16.56
360.054	16.48
360.263	16.21
360.472	15.94
360.682	15.76
360.891	15.67
361.1	15.56
361.309	15.1
361.519	15.01
361.728	14.85
361.937	14.66
362.146	14.72
362.355	14.7
362.564	14.76
362.774	14.87
362.983	14.61
363.192	14.36
363.401	14.26
363.61	14.49
363.819	14.71
364.028	14.86
364.237	14.84
364.446	14.83
364.655	14.7
364.864	14.68
365.073	14.85
365.282	15.12
365.491	15.19
365.7	15.11
365.909	15.31
366.118	15.06
366.327	14.94
366.536	15.06
366.745	15.06
366.954	15.13
367.162	15.17
367.371	15.08
367.58	15.07
367.789	14.99
367.998	14.86
368.207	14.63
368.415	14.39
368.624	14.5
368.833	14.34
369.042	14.51
369.25	14.66
369.459	14.56
369.668	14.48
369.877	14.28
370.085	14.26
370.294	14.2
370.503	14.46
370.711	14.53
370.92	14.54
371.129	14.68
371.337	14.19
371.546	14.09
371.754	14.34
371.963	14.31
372.171	14.58
372.38	14.58
372.589	14.72
372.797	14.64
373.006	14.7
373.214	14.62
373.423	14.52
373.631	14.9
373.84	14.91
374.048	14.62
374.256	14.37
374.465	14.07
374.673	14.1
374.882	14.22
375.09	14.15
375.298	14.25
375.507	14.06
375.715	13.92
375.923	13.43
376.132	13.24
376.34	13.15
376.548	13.08
376.757	13.06
376.965	13.04
377.173	12.91
377.381	12.92
377.59	12.73
377.798	12.54
378.006	12.34
378.214	12.35
378.423	12.46
378.631	12.6
378.839	12.7
379.047	12.55
379.255	12.58
379.463	12.54
379.671	12.25
379.879	12.26
380.088	12.44
380.296	12.46
380.504	12.8
380.712	12.64
380.92	12.3
381.128	12.15
381.336	12.6
381.544	12.64
381.752	12.63
381.96	12.75
382.168	12.8
382.376	12.69
382.584	12.79
382.791	12.58
382.999	12.52
383.207	12.78
383.415	13.1
383.623	12.73
383.831	12.34
384.039	12.31
384.247	12.19
384.454	12.28
384.662	12.35
384.87	12.33
385.078	12.06
385.285	12.02
385.493	11.76
385.701	11.55
385.909	11.74
386.116	11.87
386.324	11.76
386.532	11.76
386.739	11.49
386.947	11.39
387.155	11.39
387.362	11.34
387.57	11.38
387.778	11.46
387.985	11.32
388.193	11.18
388.4	11.15
388.608	11.27
388.816	11.3
389.023	11.39
389.231	11.27
389.438	11.12
389.646	11.47
389.853	11.42
390.061	11.32
390.268	11.21
390.475	10.99
390.683	10.95
390.89	10.81
391.098	10.9
391.305	10.63
391.512	10.74
391.72	10.64
391.927	10.17
392.135	9.97
392.342	9.99
392.549	10.29
392.756	10.26
392.964	10.19
393.171	10.35
393.378	10.11
393.586	10.26
393.793	10.16
394	10.28
394.207	10.61
394.414	10.69
394.622	10.66
394.829	10.56
395.036	10.85
395.243	10.77
395.45	10.61
395.657	10.45
395.864	10.48
396.072	10.32
396.279	10.22
396.486	10.02
396.693	9.98
396.9	9.83
397.107	9.57
397.314	9.67
397.521	9.95
397.728	9.88
397.935	10.2
398.142	10.16
398.349	10.32
398.556	10.3
398.763	10.53
398.97	10.67
399.177	10.75
399.383	10.92
399.59	10.64
399.797	10.44
400.004	10.38
400.211	10.18
400.418	10.15
400.625	10.03
400.831	10.17
401.038	10.03
401.245	9.95
401.452	9.84
401.658	9.83
401.865	9.81
402.072	9.78
402.279	9.95
402.485	10.13
402.692	10.05
402.899	10.12
403.105	10.06
403.312	9.95
403.519	9.91
403.725	9.91
403.932	9.99
404.138	9.96
404.345	9.88
404.552	9.76
404.758	9.61
404.965	9.62
405.171	9.77
405.378	9.81
405.584	10.08
405.791	10.03
405.997	10.14
406.204	9.89
406.41	9.77
406.617	9.86
406.823	9.89
407.029	9.8
407.236	9.91
407.442	9.7
407.649	9.48
407.855	9.19
408.061	9.32
408.268	9.28
408.474	9.35
408.68	9.49
408.887	9.47
409.093	9.52
409.299	9.42
409.505	9.38
409.712	9.49
409.918	9.57
410.124	9.69
410.33	9.48
410.537	9.43
410.743	9.46
410.949	9.42
411.155	9.5
411.361	9.29
411.567	9.5
411.773	9.46
411.98	9.33
412.186	9.44
412.392	9.37
412.598	9.51
412.804	9.52
413.01	9.37
413.216	9.43
413.422	9.44
413.628	9.6
413.834	9.54
414.04	9.38
414.246	9.34
414.452	9.33
414.658	9.36
414.864	9.37
415.07	9.42
415.275	9.46
415.481	9.51
415.687	9.52
415.893	9.48
416.099	9.35
416.305	9.36
416.511	9.4
416.716	9.35
416.922	9.35
417.128	9.29
417.334	9.25
417.539	9.19
417.745	9.08
417.951	8.9
418.157	8.85
418.362	8.8
418.568	8.83
418.774	8.81
418.979	8.81
419.185	8.72
419.391	8.64
419.596	8.54
419.802	8.47
420.008	8.45
420.213	8.5
420.419	8.52
420.624	8.58
420.83	8.53
421.035	8.54
421.241	8.5
421.446	8.5
421.652	8.55
421.857	8.56
422.063	8.68
422.268	8.62
422.474	8.58
422.679	8.5
422.885	8.48
423.09	8.43
423.295	8.37
423.501	8.35
423.706	8.35
423.911	8.33
424.117	8.43
424.322	8.34
424.527	8.43
424.733	8.46
424.938	8.52
425.143	8.52
425.349	8.6
425.554	8.63
425.759	8.62
425.964	8.71
426.169	8.7
426.375	8.68
426.58	8.65
426.785	8.67
426.99	8.76
427.195	8.85
427.4	8.93
427.605	9.03
427.811	9.09
428.016	9.03
428.221	8.92
428.426	9
428.631	9.13
428.836	9.24
429.041	9.18
429.246	9.14
429.451	9.16
429.656	9.19
429.861	9.07
430.066	9.18
430.271	9.44
430.476	9.47
430.681	9.57
430.886	9.38
431.09	9.47
431.295	9.45
431.5	9.3
431.705	9.22
431.91	9.15
432.115	9.24
432.32	9.15
432.524	9.06
432.729	9.04
432.934	8.97
433.139	8.94
433.343	8.82
433.548	8.82
433.753	8.96
433.958	9.03
434.162	8.97
434.367	8.86
434.572	8.85
434.776	8.7
434.981	8.62
435.186	8.56
435.39	8.65
435.595	8.75
435.799	8.8
436.004	8.73
436.209	8.7
436.413	8.92
436.618	9
436.822	9.1
437.027	9.13
437.231	9.3
437.436	9.36
437.64	9.32
437.845	9.38
438.049	9.35
438.253	9.34
438.458	9.32
438.662	9.17
438.867	9.12
439.071	9
439.275	9.03
439.48	8.91
439.684	8.95
439.888	8.99
440.093	8.93
440.297	8.87
440.501	8.91
440.706	8.82
440.91	8.91
441.114	8.9
441.318	8.96
441.523	8.97
441.727	9.01
441.931	8.94
442.135	8.9
442.339	8.84
442.543	9.01
442.748	8.9
442.952	9.02
443.156	8.91
443.36	9.02
443.564	9.05
443.768	9.04
443.972	9.12
444.176	9.15
444.38	9.17
444.584	9.25
444.788	9.16
444.992	9.27
445.196	9.18
445.4	9.12
445.604	8.99
445.808	8.92
446.012	8.88
446.216	8.73
446.42	8.72
446.624	8.73
446.828	8.66
447.032	8.62
447.235	8.53
447.439	8.58
447.643	8.63
447.847	8.73
448.051	8.84
448.254	8.93
448.458	9.05
448.662	9.07
448.866	9.01
449.069	9.08
449.273	9.21
449.477	9.33
449.681	9.38
449.884	9.44
450.088	9.5
450.292	9.39
450.495	9.43
450.699	9.5
450.902	9.41
451.106	9.43
451.31	9.43
451.513	9.26
451.717	9.21
451.92	9.09
452.124	9.17
452.327	9.07
452.531	9.13
452.734	9.18
452.938	9.08
453.141	9.09
453.345	9.14
453.548	9.05
453.752	9.14
453.955	9.17
454.158	9.2
454.362	9.13
454.565	9.17
454.769	9.16
454.972	8.92
455.175	8.98
455.379	8.97
455.582	9.01
455.785	9
455.988	8.93
456.192	8.84
456.395	8.84
456.598	8.78
456.801	8.73
457.005	8.75
457.208	8.87
457.411	8.88
457.614	8.88
457.817	8.83
458.021	8.74
458.224	8.85
458.427	8.83
458.63	8.93
458.833	8.96
459.036	8.96
459.239	8.87
459.442	8.78
459.645	8.68
459.848	8.72
460.051	8.74
460.254	8.91
460.457	8.92
460.66	9
460.863	8.95
461.066	8.92
461.269	8.92
461.472	9.01
461.675	9.06
461.878	9.23
462.081	9.25
462.284	9.27
462.486	9.09
462.689	8.97
462.892	8.99
463.095	9.06
463.298	9.15
463.5	9.11
463.703	9.16
463.906	9.29
464.109	9.27
464.311	9.4
464.514	9.33
464.717	9.47
464.92	9.53
465.122	9.45
465.325	9.45
465.528	9.45
465.73	9.54
465.933	9.51
466.135	9.48
466.338	9.5
466.541	9.37
466.743	9.35
466.946	9.33
467.148	9.26
467.351	9.35
467.553	9.32
467.756	9.37
467.958	9.32
468.161	9.22
468.363	9.24
468.566	9.21
468.768	9.3
468.971	9.36
469.173	9.34
469.375	9.5
469.578	9.61
469.78	9.57
469.983	9.47
470.185	9.54
470.387	9.73
470.59	9.66
470.792	9.67
470.994	9.67
471.196	9.61
471.399	9.64
471.601	9.52
471.803	9.43
472.005	9.5
472.208	9.46
472.41	9.44
472.612	9.31
472.814	9.38
473.016	9.41
473.218	9.41
473.421	9.54
473.623	9.5
473.825	9.47
474.027	9.35
474.229	9.39
474.431	9.44
474.633	9.48
474.835	9.41
475.037	9.44
475.239	9.41
475.441	9.41
475.643	9.34
475.845	9.39
476.047	9.48
476.249	9.51
476.451	9.42
476.653	9.37
476.855	9.3
477.057	9.4
477.258	9.31
477.46	9.22
477.662	9.19
477.864	9.26
478.066	9.19
478.268	9.1
478.469	9.12
478.671	9.09
478.873	9.09
479.075	9.12
479.276	9.03
479.478	9.08
479.68	9.08
479.882	9.07
480.083	8.99
480.285	9
480.487	9.05
480.688	9.02
480.89	9
481.091	8.91
481.293	8.85
481.495	8.87
481.696	8.74
481.898	8.67
482.099	8.57
482.301	8.47
482.502	8.4
482.704	8.32
482.905	8.29
483.107	8.23
483.308	8.21
483.51	8.18
483.711	8.13
483.913	8.13
484.114	8.11
484.315	8.07
484.517	8.08
484.718	8.13
484.92	8.14
485.121	8.16
485.322	8.19
485.524	8.22
485.725	8.25
485.926	8.28
486.127	8.3
486.329	8.29
486.53	8.3
486.731	8.3
486.932	8.26
487.134	8.28
487.335	8.25
487.536	8.22
487.737	8.2
487.938	8.18
488.139	8.15
488.341	8.14
488.542	8.2
488.743	8.23
488.944	8.28
489.145	8.29
489.346	8.29
489.547	8.29
489.748	8.32
489.949	8.36
490.15	8.39
490.351	8.38
490.552	8.41
490.753	8.39
490.954	8.41
491.155	8.39
491.356	8.45
491.557	8.47
491.758	8.51
491.959	8.53
492.159	8.53
492.36	8.56
492.561	8.61
492.762	8.64
492.963	8.67
493.164	8.65
493.364	8.65
493.565	8.6
493.766	8.6
493.967	8.61
494.167	8.64
494.368	8.75
494.569	8.72
494.769	8.77
494.97	8.78
495.171	8.88
495.371	8.97
495.572	9.06
495.773	9.07
495.973	9.07
496.174	9.09
496.375	9.14
496.575	9.03
496.776	9.03
496.976	9.06
497.177	9.09
497.377	9.09
497.578	9.12
497.778	9.12
497.979	9.18
498.179	9.28
498.38	9.24
498.58	9.22
498.78	9.31
498.981	9.37
499.181	9.45
499.382	9.48
499.582	9.48
499.782	9.47
499.983	9.5
500.183	9.6
500.383	9.64
500.584	9.71
500.784	9.8
500.984	9.86
501.184	9.91
501.385	9.95
501.585	10.03
501.785	10.11
501.985	10.21
502.185	10.22
502.386	10.04
502.586	10.03
502.786	10.07
502.986	10.13
503.186	10.18
503.386	10.14
503.586	10.1
503.786	10.1
503.987	10.05
504.187	10.04
504.387	10.1
504.587	10.29
504.787	10.25
504.987	10.3
505.187	10.25
505.387	10.27
505.587	10.33
505.786	10.41
505.986	10.45
506.186	10.48
506.386	10.47
506.586	10.49
506.786	10.49
506.986	10.56
507.186	10.61
507.386	10.7
507.585	10.77
507.785	10.8
507.985	10.77
508.185	10.77
508.384	10.86
508.584	10.95
508.784	10.93
508.984	11.02
509.183	11.15
509.383	11.16
509.583	11.14
509.782	11.11
509.982	11.26
510.182	11.36
510.381	11.41
510.581	11.51
510.781	11.56
510.98	11.68
511.18	11.72
511.379	11.73
511.579	11.8
511.778	12
511.978	12.12
512.177	12.14
512.377	12.22
512.576	12.35
512.776	12.34
512.975	12.42
513.175	12.52
513.374	12.58
513.573	12.71
513.773	12.82
513.972	12.84
514.172	12.84
514.371	12.95
514.57	12.97
514.77	13.04
514.969	13.16
515.168	13.25
515.367	13.28
515.567	13.43
515.766	13.45
515.965	13.42
516.164	13.49
516.364	13.63
516.563	13.67
516.762	13.82
516.961	13.92
517.16	13.96
517.359	13.96
517.559	14.02
517.758	14.05
517.957	14.16
518.156	14.32
518.355	14.35
518.554	14.42
518.753	14.49
518.952	14.53
519.151	14.6
519.35	14.71
519.549	14.81
519.748	14.97
519.947	15.08
520.146	15.12
520.345	15.22
520.544	15.39
520.743	15.53
520.942	15.7
521.141	15.83
521.339	15.93
521.538	16.11
521.737	16.31
521.936	16.37
522.135	16.42
522.333	16.49
522.532	16.59
522.731	16.66
522.93	16.77
523.129	16.9
523.327	17.04
523.526	17.1
523.725	17.16
523.923	17.19
524.122	17.31
524.321	17.43
524.519	17.56
524.718	17.59
524.917	17.61
525.115	17.64
525.314	17.65
525.512	17.65
525.711	17.76
525.909	17.88
526.108	17.97
526.306	18.01
526.505	18.05
526.703	18.11
526.902	18.2
527.1	18.29
527.299	18.42
527.497	18.51
527.696	18.52
527.894	18.56
528.092	18.6
528.291	18.57
528.489	18.64
528.688	18.7
528.886	18.75
529.084	18.81
529.283	18.85
529.481	18.86
529.679	18.91
529.877	19.04
530.076	19.12
530.274	19.16
530.472	19.34
530.67	19.41
530.869	19.55
531.067	19.67
531.265	19.76
531.463	19.9
531.661	20.04
531.859	20.09
532.057	20.17
532.255	20.19
532.454	20.28
532.652	20.37
532.85	20.46
533.048	20.5
533.246	20.56
533.444	20.6
533.642	20.68
533.84	20.66
534.038	20.74
534.236	20.86
534.434	20.92
534.632	21
534.83	21.07
535.027	21.16
535.225	21.18
535.423	21.24
535.621	21.35
535.819	21.45
536.017	21.56
536.215	21.6
536.412	21.58
536.61	21.76
536.808	21.85
537.006	21.86
537.203	21.9
537.401	22.05
537.599	22.12
537.797	22.13
537.994	22.05
538.192	22.16
538.39	22.32
538.587	22.42
538.785	22.47
538.983	22.49
539.18	22.54
539.378	22.55
539.575	22.53
539.773	22.57
539.97	22.67
540.168	22.78
540.366	22.79
540.563	22.69
540.761	22.68
540.958	22.7
541.155	22.7
541.353	22.75
541.55	22.79
541.748	22.85
541.945	22.9
542.143	22.91
542.34	22.93
542.537	22.96
542.735	23.11
542.932	23.27
543.129	23.3
543.327	23.39
543.524	23.48
543.721	23.66
543.919	23.79
544.116	23.99
544.313	24.14
544.51	24.32
544.708	24.48
544.905	24.57
545.102	24.63
545.299	24.76
545.496	24.8
545.693	24.93
545.891	24.88
546.088	24.92
546.285	24.87
546.482	24.85
546.679	24.76
546.876	24.69
547.073	24.64
547.27	24.62
547.467	24.59
547.664	24.62
547.861	24.54
548.058	24.59
548.255	24.57
548.452	24.5
548.649	24.64
548.846	24.73
549.043	24.88
549.24	24.92
549.437	24.94
549.633	24.91
549.83	25.07
550.027	25.14
550.224	25.11
550.421	25.11
550.618	25.2
550.814	25.09
551.011	25.09
551.208	25.01
551.405	25.04
551.601	25
551.798	25.05
551.995	24.91
552.191	24.79
552.388	24.78
552.585	24.74
552.781	24.74
552.978	24.76
553.175	24.87
553.371	24.9
553.568	24.87
553.764	24.92
553.961	24.97
554.157	25.07
554.354	25.16
554.55	25.34
554.747	25.4
554.943	25.34
555.14	25.35
555.336	25.24
555.533	25.22
555.729	25.35
555.926	25.34
556.122	25.36
556.318	25.25
556.515	25.35
556.711	25.18
556.907	25.13
557.104	25.08
557.3	25.08
557.496	25.05
557.693	25.13
557.889	25.13
558.085	25.23
558.281	25.25
558.478	25.28
558.674	25.22
558.87	25.28
559.066	25.46
559.262	25.62
559.459	25.69
559.655	25.7
559.851	25.75
560.047	25.57
560.243	25.61
560.439	25.55
560.635	25.6
560.831	25.58
561.027	25.57
561.223	25.45
561.419	25.42
561.615	25.47
561.811	25.48
562.007	25.35
562.203	25.46
562.399	25.36
562.595	25.41
562.791	25.42
562.987	25.59
563.183	25.54
563.379	25.57
563.575	25.57
563.771	25.39
563.966	25.32
564.162	25.35
564.358	25.42
564.554	25.4
564.75	25.32
564.945	25.39
565.141	25.31
565.337	25.39
565.533	25.36
565.728	25.34
565.924	25.44
566.12	25.57
566.315	25.65
566.511	25.58
566.707	25.58
566.902	25.68
567.098	25.57
567.293	25.57
567.489	25.61
567.684	25.65
567.88	25.63
568.076	25.58
568.271	25.57
568.467	25.54
568.662	25.57
568.858	25.73
569.053	25.69
569.248	25.69
569.444	25.66
569.639	25.62
569.835	25.58
570.03	25.58
570.225	25.51
570.421	25.54
570.616	25.57
570.812	25.69
571.007	25.58
571.202	25.59
571.397	25.55
571.593	25.64
571.788	25.7
571.983	25.65
572.178	25.62
572.374	25.71
572.569	25.68
572.764	25.68
572.959	25.56
573.154	25.6
573.35	25.55
573.545	25.65
573.74	25.58
573.935	25.54
574.13	25.66
574.325	25.71
574.52	25.85
574.715	25.91
574.91	25.87
575.105	25.89
575.3	25.87
575.495	25.99
575.69	26.12
575.885	26.11
576.08	26.32
576.275	26.4
576.47	26.55
576.665	26.54
576.86	26.67
577.055	26.81
577.25	26.95
577.444	27
577.639	27.15
577.834	27.15
578.029	27.21
578.224	27.01
578.418	26.98
578.613	26.99
578.808	27.02
579.003	26.88
579.197	26.88
579.392	26.99
579.587	27.08
579.781	27.08
579.976	27.06
580.171	27.23
580.365	27.4
580.56	27.51
580.755	27.5
580.949	27.57
581.144	27.59
581.338	27.61
581.533	27.51
581.727	27.46
581.922	27.33
582.116	27.53
582.311	27.48
582.505	27.57
582.7	27.69
582.894	27.63
583.089	27.56
583.283	27.7
583.478	27.9
583.672	27.96
583.866	28.06
584.061	28.01
584.255	27.92
584.449	27.85
584.644	27.86
584.838	27.74
585.032	27.92
585.226	27.92
585.421	27.89
585.615	27.87
585.809	27.79
586.003	27.73
586.198	27.93
586.392	27.96
586.586	27.99
586.78	28.05
586.974	28.01
587.168	27.9
587.363	28.06
587.557	28.11
587.751	28.07
587.945	28.16
588.139	28.2
588.333	28.19
588.527	28.23
588.721	28.25
588.915	28.14
589.109	28.29
589.303	28.23
589.497	28.11
589.691	27.91
589.885	27.85
590.079	27.91
590.273	28.03
590.466	28.11
590.66	28.14
590.854	28.27
591.048	28.26
591.242	28.26
591.436	28.37
591.629	28.38
591.823	28.63
592.017	28.75
592.211	28.66
592.404	28.68
592.598	28.48
592.792	28.41
592.986	28.5
593.179	28.57
593.373	28.46
593.567	28.59
593.76	28.64
593.954	28.69
594.147	28.69
594.341	28.74
594.535	28.67
594.728	28.71
594.922	28.66
595.115	28.44
595.309	28.36
595.502	28.37
595.696	28.33
595.889	28.31
596.083	28.25
596.276	28.15
596.47	28.2
596.663	28.26
596.856	28.3
597.05	28.3
597.243	28.4
597.437	28.4
597.63	28.38
597.823	28.39
598.017	28.41
598.21	28.44
598.403	28.6
598.596	28.7
598.79	28.66
598.983	28.69
599.176	28.76
599.369	28.84
599.563	28.98
599.756	29.16
599.949	29.14
600.142	29.13
600.335	29.18
600.528	29.17
600.722	29.22
600.915	29.3
601.108	29.33
601.301	29.43
601.494	29.39
601.687	29.25
601.88	29.15
602.073	28.96
602.266	29.04
602.459	28.96
602.652	28.82
602.845	28.58
603.038	28.53
603.231	28.56
603.424	28.46
603.617	28.3
603.809	28.39
604.002	28.42
604.195	28.58
604.388	28.51
604.581	28.5
604.774	28.7
604.966	28.74
605.159	28.68
605.352	28.71
605.545	28.74
605.737	28.96
605.93	28.97
606.123	29.13
606.316	29.1
606.508	29.31
606.701	29.48
606.894	29.45
607.086	29.66
607.279	29.85
607.471	30.03
607.664	30.26
607.857	30.36
608.049	30.54
608.242	30.57
608.434	31.02
608.627	31.31
608.819	31.57
609.012	32.1
609.204	32.41
609.397	32.95
609.589	33.4
609.782	33.82
609.974	34.37
610.166	35.03
610.359	35.8
610.551	36.21
610.743	36.58
610.936	36.99
611.128	37.07
611.32	37.34
611.513	37.41
611.705	37.35
611.897	37.38
612.09	37.13
612.282	36.93
612.474	36.54
612.666	36.32
612.858	36.13
613.051	35.88
613.243	35.51
613.435	35.44
613.627	35.07
613.819	35.03
614.011	34.91
614.203	34.79
614.395	34.44
614.588	34.16
614.78	33.85
614.972	33.65
615.164	33.46
615.356	33.64
615.548	33.44
615.74	33.49
615.932	33.29
616.124	33.21
616.315	33.17
616.507	32.9
616.699	32.9
616.891	32.84
617.083	32.89
617.275	32.79
617.467	32.58
617.659	32.44
617.85	32.36
618.042	32.3
618.234	32.09
618.426	32.23
618.618	32.26
618.809	32.15
619.001	32.13
619.193	32.02
619.384	32.01
619.576	31.9
619.768	31.82
619.959	31.8
620.151	31.92
620.343	31.95
620.534	31.75
620.726	31.69
620.917	31.78
621.109	31.68
621.301	31.75
621.492	31.79
621.684	31.74
621.875	31.78
622.067	31.65
622.258	31.52
622.45	31.54
622.641	31.44
622.832	31.62
623.024	31.51
623.215	31.61
623.407	31.56
623.598	31.57
623.789	31.67
623.981	31.71
624.172	31.84
624.363	31.92
624.555	31.83
624.746	31.86
624.937	31.81
625.129	32.03
625.32	31.94
625.511	31.81
625.702	31.79
625.893	31.96
626.085	31.92
626.276	31.86
626.467	31.82
626.658	31.97
626.849	31.98
627.04	31.98
627.231	31.8
627.422	31.92
627.614	31.97
627.805	32.09
627.996	32.11
628.187	32.26
628.378	32.31
628.569	32.54
628.76	32.58
628.951	32.74
629.142	32.9
629.332	32.97
629.523	33.1
629.714	33.13
629.905	33.2
630.096	33.16
630.287	33.1
630.478	33.24
630.669	32.98
630.859	33.05
631.05	32.93
631.241	32.94
631.432	32.94
631.623	32.75
631.813	32.81
632.004	32.65
632.195	32.58
632.385	32.34
632.576	32.21
632.767	32.25
632.957	32.05
633.148	32.13
633.339	31.99
633.529	31.97
633.72	31.91
633.91	31.74
634.101	31.68
634.292	31.61
634.482	31.62
634.673	31.82
634.863	31.71
635.054	31.7
635.244	31.78
635.435	31.79
635.625	31.88
635.815	32.05
636.006	32.12
636.196	32.12
636.387	32.21
636.577	32.21
636.767	32.02
636.958	32.04
637.148	32.07
637.338	32.05
637.529	32.18
637.719	32.18
637.909	32.06
638.099	32.21
638.29	32.29
638.48	32.22
638.67	32.49
638.86	32.67
639.05	32.45
639.241	32.51
639.431	32.47
639.621	32.36
639.811	32.3
640.001	32.27
640.191	32.23
640.381	32.34
640.571	32.34
640.761	32.45
640.951	32.48
641.141	32.89
641.331	32.98
641.521	32.99
641.711	33.02
641.901	33.03
642.091	32.86
642.281	32.78
642.471	32.77
642.661	32.92
642.851	33.07
643.041	33.06
643.231	33.03
643.42	33.01
643.61	33.03
643.8	33.12
643.99	33.17
644.18	33.36
644.369	33.59
644.559	33.7
644.749	33.61
644.939	33.45
645.128	33.16
645.318	33.11
645.508	33.11
645.697	33.19
645.887	33.05
646.076	33.07
646.266	33.35
646.456	33.25
646.645	33.23
646.835	33.34
647.024	33.12
647.214	33.27
647.403	33.27
647.593	33.31
647.782	33.39
647.972	33.46
648.161	33.5
648.351	33.12
648.54	33.16
648.73	33.04
648.919	33.02
649.108	32.95
649.298	33.04
649.487	33.11
649.677	33.06
649.866	33.09
650.055	33.23
650.244	33.23
650.434	33.54
650.623	33.52
650.812	33.47
651.002	33.44
651.191	33.56
651.38	33.59
651.569	33.72
651.758	33.45
651.947	33.41
652.137	33.28
652.326	33.23
652.515	33.36
652.704	33.26
652.893	33.51
653.082	33.4
653.271	33.7
653.46	33.7
653.649	33.8
653.838	34.07
654.027	34.2
654.216	34.4
654.405	34.49
654.594	34.18
654.783	34.25
654.972	34.02
655.161	34.34
655.35	34.09
655.539	33.79
655.728	33.55
655.916	33.52
656.105	33.29
656.294	33.12
656.483	33.09
656.672	33.17
656.86	33.07
657.049	33.15
657.238	33.12
657.427	33.04
657.615	33.15
657.804	32.96
657.993	32.89
658.181	33.06
658.37	33.01
658.559	33
658.747	33.07
658.936	33.07
659.125	33.11
659.313	32.93
659.502	32.91
659.69	33.08
659.879	33.33
660.067	33.45
660.256	33.42
660.444	33.51
660.633	33.52
660.821	33.55
661.01	33.64
661.198	33.43
661.387	33.77
661.575	34
661.763	33.83
661.952	33.84
662.14	33.79
662.328	33.73
662.517	33.88
662.705	33.73
662.893	33.78
663.082	33.84
663.27	34.27
663.458	34.16
663.646	34.23
663.834	34.47
664.023	34.7
664.211	34.66
664.399	34.55
664.587	34.48
664.775	34.58
664.963	34.76
665.152	34.69
665.34	34.44
665.528	34.38
665.716	34.29
665.904	34.38
666.092	34.33
666.28	34.6
666.468	34.81
666.656	34.94
666.844	35.24
667.032	34.84
667.22	35.14
667.408	35.3
667.596	35.18
667.784	35.05
667.971	35
668.159	34.83
668.347	34.76
668.535	34.45
668.723	34.52
668.911	34.39
669.098	34.41
669.286	34.24
669.474	34.01
669.662	34.23
669.849	34.36
670.037	34.34
670.225	34.43
670.413	34.64
670.6	34.94
670.788	34.56
670.976	34.5
671.163	34.54
671.351	34.57
671.538	34.7
671.726	34.74
671.913	34.72
672.101	34.75
672.289	34.7
672.476	34.39
672.664	34.29
672.851	34.46
673.039	34.68
673.226	34.91
673.413	34.87
673.601	34.98
673.788	34.76
673.976	34.78
674.163	34.78
674.35	34.87
674.538	35.14
674.725	35.44
674.912	35.72
675.1	35.68
675.287	35.74
675.474	35.62
675.662	35.73
675.849	35.94
676.036	36.22
676.223	36.19
676.411	36.01
676.598	35.74
676.785	35.72
676.972	35.59
677.159	35.49
677.346	35.25
677.533	35.31
677.721	35.22
677.908	35.04
678.095	34.75
678.282	34.7
678.469	34.77
678.656	34.8
678.843	34.36
679.03	34.26
679.217	34.19
679.404	34.38
679.591	34.54
679.778	34.63
679.964	34.74
680.151	34.6
680.338	34.72
680.525	34.72
680.712	34.88
680.899	35.25
681.086	35.37
681.272	35.29
681.459	35.16
681.646	34.98
681.833	35.03
682.02	35.17
682.206	35.56
682.393	35.54
682.58	35.78
682.766	35.78
682.953	35.53
683.14	35.57
683.326	35.56
683.513	35.83
683.7	36.14
683.886	35.78
684.073	35.64
684.259	35.34
684.446	35.45
684.632	35.33
684.819	35.17
685.005	35.21
685.192	35.43
685.378	35.95
685.565	35.78
685.751	35.56
685.938	35.8
686.124	36.03
686.31	36.73
686.497	36.76
686.683	36.69
686.87	36.92
687.056	36.98
687.242	36.7
687.429	36.65
687.615	36.45
687.801	36.7
687.987	36.58
688.174	36.36
688.36	36
688.546	35.95
688.732	35.81
688.918	35.96
689.105	36.21
689.291	36.12
689.477	35.9
689.663	36.07
689.849	35.85
690.035	36.07
690.221	36.37
690.407	36.4
690.593	36.43
690.779	36.82
690.965	36.68
691.151	36.58
691.337	36.95
691.523	36.83
691.709	37.13
691.895	37.42
692.081	37.46
692.267	37.27
692.453	37.27
692.639	37.25
692.825	36.89
693.011	36.6
693.196	36.66
693.382	36.42
693.568	36.57
693.754	36.6
693.94	36.37
694.125	36.29
694.311	36.3
694.497	36.01
694.682	36.31
694.868	36.56
695.054	36.71
695.239	36.76
695.425	36.8
695.611	36.78
695.796	36.64
695.982	36.83
696.168	36.34
696.353	36.24
696.539	36.09
696.724	35.67
696.91	35.66
697.095	35.64
697.281	35.38
697.466	35.13
697.652	35.1
697.837	34.91
698.023	34.73
698.208	34.97
698.393	35.07
698.579	35.4
698.764	35.37
698.949	35.2
699.135	35.25
699.32	35.27
699.505	35.33
699.691	35.18
699.876	35.3
700.061	35.2
700.246	35.27
700.432	35.33
700.617	35.03
700.802	34.99
700.987	35.12
701.172	35.2
701.358	35.4
701.543	35.74
701.728	36.07
701.913	36.32
702.098	36.99
702.283	37.43
702.468	37.67
702.653	38.18
702.838	38.42
703.023	38.63
703.208	38.69
703.393	38.95
703.578	38.94
703.763	39.04
703.948	38.78
704.133	38.61
704.318	38.86
704.503	38.7
704.688	38.95
704.873	38.75
705.057	38.94
705.242	39.19
705.427	39.43
705.612	39.69
705.797	39.91
705.981	40.64
706.166	40.73
706.351	40.57
706.536	40.88
706.72	40.47
706.905	40.89
707.09	40.8
707.274	40.55
707.459	40.39
707.644	40.31
707.828	40.18
708.013	39.74
708.197	39.88
708.382	39.59
708.567	39.47
708.751	39.82
708.936	39.63
709.12	39.68
709.305	39.58
709.489	39.9
709.673	39.47
709.858	39.73
710.042	39.67
710.227	39.32
710.411	39.39
710.596	39.26
710.78	39.12
710.964	39.09
711.149	39.56
711.333	39.93
711.517	39.48
711.702	39.87
711.886	39.83
712.07	40.02
712.254	40.26
712.438	40.05
712.623	40.18
712.807	39.93
712.991	39.98
713.175	39.58
713.359	39.22
713.544	39.3
713.728	39.02
713.912	38.77
714.096	38.71
714.28	38.54
714.464	38.44
714.648	38.11
714.832	38.25
715.016	38.03
715.2	37.94
715.384	38.22
715.568	38.03
715.752	38.21
715.936	38.36
716.12	38.28
716.304	38.07
716.488	37.9
716.671	37.95
716.855	37.64
717.039	37.89
717.223	37.63
717.407	37.22
717.59	37.33
717.774	37.37
717.958	37.18
718.142	37.32
718.325	37.48
718.509	37.99
718.693	37.89
718.877	38.18
719.06	38.33
719.244	38.59
719.428	39.07
719.611	39
719.795	39.29
719.978	39.49
720.162	39.21
720.345	39.14
720.529	39.11
720.713	39.35
720.896	38.82
721.08	38.88
721.263	38.93
721.446	38.68
721.63	38.75
721.813	37.81
721.997	37.62
722.18	37.83
722.364	37.94
722.547	37.98
722.73	38.28
722.914	38.94
723.097	38.74
723.28	38.58
723.464	39.43
723.647	39.54
723.83	40.27
724.013	40.49
724.197	41.01
724.38	41.06
724.563	40.91
724.746	40.86
724.929	41.07
725.112	41.73
725.296	41.88
725.479	41.4
725.662	41.21
725.845	41.03
726.028	41.1
726.211	40.2
726.394	39.91
726.577	39.85
726.76	39.73
726.943	39.56
727.126	38.87
727.309	38.9
727.492	38.73
727.675	38.67
727.858	38.29
728.041	37.83
728.224	38.04
728.407	38.6
728.589	39.08
728.772	39.05
728.955	38.83
729.138	38.84
729.321	38.51
729.503	38.39
729.686	38.7
729.869	38.64
730.052	38.8
730.234	38.78
730.417	38.4
730.6	37.42
730.782	37.32
730.965	37.45
731.148	37.34
731.33	37.95
731.513	37.84
731.695	37.53
731.878	37.54
732.061	37.54
732.243	37.84
732.426	38.08
732.608	38.28
732.791	38.62
732.973	38.78
733.156	39.08
733.338	38.96
733.52	39.19
733.703	39.16
733.885	39.76
734.068	39.78
734.25	39.66
734.432	39.43
734.615	40.24
734.797	39.75
734.979	39.49
735.162	39.48
735.344	39.23
735.526	39.36
735.708	39.7
735.891	40.29
736.073	40.46
736.255	40.97
736.437	41.16
736.619	41.35
736.802	41.58
736.984	42.1
737.166	42.52
737.348	43.18
737.53	42.78
737.712	42.41
737.894	41.49
738.076	41.8
738.258	41
738.44	41.14
738.622	41.09
738.804	40.99
738.986	40.86
739.168	40.41
739.35	40.24
739.532	40.44
739.714	41.1
739.896	41.48
740.078	41.29
740.259	41.43
740.441	41.57
740.623	41.26
740.805	41.61
740.987	40.9
741.168	40.6
741.35	40.56
741.532	40.62
741.714	40.61
741.895	40.79
742.077	40.6
742.259	40.75
742.44	40.3
742.622	40.26
742.804	40.47
742.985	41.37
743.167	41.98
743.348	41.57
743.53	41.48
743.711	41.59
743.893	41.62
744.075	42.1
744.256	42.22
744.438	43.06
744.619	43.6
744.8	43.52
744.982	42.97
745.163	42.72
745.345	43.36
745.526	44.04
745.707	43.7
745.889	43.68
746.07	43.87
746.252	44.37
746.433	44.1
746.614	43.83
746.795	43.88
746.977	44.23
747.158	44.43
747.339	44.2
747.52	44.38
747.702	44.45
747.883	44.07
748.064	43.96
748.245	43.5
748.426	43.28
748.607	43.2
748.788	43.3
748.97	42.93
749.151	42.98
749.332	43.1
749.513	42.72
749.694	43.18
749.875	43.61
750.056	43.49
750.237	43.38
750.418	43.73
750.599	43.57
750.78	42.89
750.96	43.59
751.141	43.47
751.322	43.34
751.503	43.25
751.684	42.8
751.865	42.37
752.046	42.15
752.226	42.02
752.407	42
752.588	42.86
752.769	43.51
752.949	42.87
753.13	43.43
753.311	43.36
753.492	43.47
753.672	43.44
753.853	43.28
754.034	42.61
754.214	43.64
754.395	43.89
754.575	43.35
754.756	43.39
754.937	43.34
755.117	43.01
755.298	42.7
755.478	42.79
755.659	42.78
755.839	43.53
756.02	44.6
756.2	43.9
756.381	43.05
756.561	43.46
756.741	43.95
756.922	44.42
757.102	44.05
757.283	44.44
757.463	44.05
757.643	44.4
757.823	43.78
758.004	43.32
758.184	43.25
758.364	43.42
758.545	42.57
758.725	41.33
758.905	41.13
759.085	40.88
759.265	39.97
759.446	39.58
759.626	39.57
759.806	39.84
759.986	40.29
760.166	40.06
760.346	40.26
760.526	39.94
760.706	40.25
760.886	39.66
761.066	39.71
761.246	39.95
761.426	40.14
761.606	39.53
761.786	39.33
761.966	38.68
762.146	38.69
762.326	38.89
762.506	38.98
762.686	39.04
762.866	39.24
763.046	39.22
763.225	39.19
763.405	38.83
763.585	38.79
763.765	38.86
763.945	38.69
764.124	38.87
764.304	38.83
764.484	38.99
764.664	39.11
764.843	39.23
765.023	39.03
765.203	39.51
765.382	40.01
765.562	40.24
765.741	40.01
765.921	40.73
766.101	40.92
766.28	40.57
766.46	40.49
766.639	40.81
766.819	41.49
766.998	41.91
767.178	41.61
767.357	42
767.537	42.34
767.716	43.39
767.896	42.9
768.075	43.29
768.254	43.78
768.434	44.91
768.613	45.2
768.792	44.65
768.972	44.75
769.151	44.74
769.33	44.6
769.51	44.97
769.689	43.98
769.868	44.13
770.047	43.54
770.226	44.7
770.406	44.05
770.585	43.91
770.764	45.11
770.943	45.54
771.122	45.49
771.301	45.13
771.48	45
771.66	46.49
771.839	46.16
772.018	46.32
772.197	45.5
772.376	45.22
772.555	45.31
772.734	45.19
772.913	45.16
773.092	45
773.271	45.53
773.449	44.36
773.628	43.48
773.807	45.2
773.986	45.38
774.165	45.36
774.344	46.11
774.523	45.53
774.701	44.86
774.88	45.81
775.059	46.5
775.238	47.28
775.417	48.16
775.595	48.64
775.774	47.92
775.953	48.35
776.131	48.32
776.31	48.45
776.489	49.54
776.667	49.79
776.846	49.53
777.025	49.64
777.203	49.36
777.382	49.83
777.56	49.3
777.739	49.76
777.917	48.94
778.096	49.6
778.274	49.24
778.453	48.4
778.631	48.54
778.81	48.83
778.988	49.07
779.166	49.36
779.345	48.83
779.523	48.84
779.702	48.66
779.88	49.31
780.058	47.91
780.237	48.14
780.415	48.81
780.593	48.7
780.771	47.49
780.95	47.86
781.128	47.28
781.306	47.57
781.484	48.16
781.662	47.76
781.841	48.19
782.019	48.54
782.197	48.59
782.375	47.24
782.553	46.91
782.731	47.32
782.909	47.48
783.087	47.31
783.265	46.71
783.443	46.88
783.621	47.13
783.799	46.83
783.977	46.85
784.155	46.92
784.333	47.53
784.511	47.93
784.689	47.51
784.867	47.32
785.045	48.14
785.223	49.68
785.4	49.36
785.578	49.3
785.756	48.54
785.934	49.25
786.112	48.97
786.289	49.24
786.467	49.65
786.645	49.46
786.823	49.19
787	48.68
787.178	47.09
787.356	47.05
787.533	47.07
787.711	47.16
787.889	46.71
788.066	45.96
788.244	44.98
788.421	44.72
788.599	45.13
788.776	44.12
788.954	44.16
789.131	44.84
789.309	45.19
789.486	45.23
789.664	45.4
789.841	44.91
790.019	45.22
790.196	45.96
790.373	46.29
790.551	46.72
790.728	46.94
790.906	47.12
791.083	46.79
791.26	45.62
791.437	46.15
791.615	46.38
791.792	47.32
791.969	48.1
792.146	47.78
792.324	46.63
792.501	46.88
792.678	47.69
792.855	47.52
793.032	47.73
793.209	48.62
793.387	47.53
793.564	47.7
793.741	47.5
793.918	47.18
794.095	47.65
794.272	48.52
794.449	47.63
794.626	48.1
794.803	48
794.98	47.74
795.157	47.66
795.334	47.4
795.511	47.18
795.688	47.17
795.864	47.11
796.041	47.36
796.218	47.06
796.395	48.3
796.572	47.9
796.749	47.68
796.925	47.11
797.102	46.85
797.279	48.04
797.456	47.85
797.632	47.27
797.809	47.36
797.986	47.53
798.162	47.09
798.339	46.04
798.516	46.07
798.692	45.66
798.869	46.68
799.046	46.3
799.222	44.95
799.399	45.24
799.575	46.34
799.752	46.88
799.928	46.71
800.105	48.05
800.281	48.34
800.458	48.99
800.634	49.72
800.811	49.87
800.987	50
801.163	50.87
801.34	51.09
801.516	51.63
801.692	50.18
801.869	50.01
802.045	49.35
802.221	49.49
802.398	49.84
802.574	50.05
802.75	50.15
802.926	50.22
803.103	51.52
803.279	50.9
803.455	50
803.631	51.5
803.807	52.41
803.983	52.28
804.16	53.09
804.336	51.53
804.512	51.59
804.688	51.22
804.864	53.14
805.04	51.02
805.216	50.36
805.392	50.21
805.568	50.65
805.744	49.39
805.92	48.91
806.096	47.23
806.272	48.44
806.448	48.84
806.623	48.84
806.799	47.64
806.975	48.38
807.151	49.57
807.327	49.33
807.503	48.12
807.678	48.48
807.854	48.17
808.03	48.13
808.206	48.39
808.381	48.37
808.557	49.27
808.733	49.5
808.908	48.94
809.084	49.57
809.26	49.81
809.435	49.94
809.611	49.4
809.787	50.12
809.962	50.8
810.138	49.96
810.313	49.4
810.489	48.75
810.664	47.6
810.84	48.7
811.015	48.2
811.191	47.8
811.366	48.64
811.542	48.92
811.717	49.52
811.892	49.68
812.068	49.5
812.243	48.3
812.419	48.52
812.594	48.3
812.769	46.75
812.944	46.12
813.12	46.11
813.295	45.36
813.47	46.2
813.645	45.76
813.821	46.02
813.996	45.32
814.171	46.8
814.346	46.87
814.521	48.34
814.697	50.71
814.872	49.99
815.047	49.82
815.222	49.66
815.397	49.38
815.572	50.2
815.747	50.11
815.922	51.41
816.097	50.62
816.272	51.28
816.447	50.81
816.622	49.92
816.797	49.75
816.972	49.75
817.147	51.05
817.322	50.39
817.496	48.2
817.671	48.47
817.846	47.98
818.021	48.14
818.196	47.81
818.371	47.15
818.545	46.03
818.72	47.25
818.895	47.36
819.069	46.19
819.244	46.08
819.419	46.68
819.594	45.13
819.768	44.11
819.943	43.6
820.117	42.47
820.292	41.32
820.467	40.11
820.641	38.79
820.816	37.33
820.99	36.34
821.165	35.5
821.339	34.62
821.514	34.63
821.688	33.81
821.863	32.95
822.037	32.32
822.212	32.18
822.386	31.93
822.56	31.72
822.735	31.52
822.909	31.38
823.084	31.32
823.258	31.54
823.432	30.98
823.606	31.24
823.781	31.47
823.955	31.89
824.129	31.69
824.303	32.4
824.478	32.52
824.652	33.19
824.826	33.56
825	33.99
825.174	34.24
825.348	34.88
825.523	35.08
825.697	36.01
825.871	35.73
826.045	36.22
826.219	35.61
826.393	35.59
826.567	35.78
826.741	35.74
826.915	35.22
827.089	35.04
827.263	35.67
827.437	36.01
827.611	35.13
827.784	35.55
827.958	35.67
828.132	36.19
828.306	36.78
828.48	36.63
828.654	36.84
828.827	37.45
829.001	37.51
829.175	37.33
829.349	37.58
829.522	38.46
829.696	39.13
829.87	41.36
830.044	42.46
830.217	43.29
830.391	43.91
830.565	44.45
830.738	45.63
830.912	46.52
831.085	47.53
831.259	47.68
831.432	48.39
831.606	48.76
831.779	45.82
831.953	44.8
832.126	43.75
832.3	43.65
832.473	43.69
832.647	42.08
832.82	41.45
832.994	40.83
833.167	40.15
833.34	39.46
833.514	38.25
833.687	38.64
833.86	38.02
834.034	38.39
834.207	38.13
834.38	38.01
834.553	38.09
834.727	38.04
834.9	37.92
835.073	37.81
835.246	38.37
835.419	38.66
835.593	38.38
835.766	39.23
835.939	38.94
836.112	39.61
836.285	39.59
836.458	40.6
836.631	41.55
836.804	42.27
836.977	42.82
837.15	44.1
837.323	44.87
837.496	45.52
837.669	46.18
837.842	48
838.015	49.48
838.188	52.4
838.361	53.88
838.533	54.35
838.706	55.98
838.879	57.89
839.052	57.45
839.225	57.29
839.398	59.88
839.57	59.39
839.743	58.88
839.916	57.02
840.088	55.96
840.261	56.55
840.434	57.18
840.607	53.59
840.779	51.49
840.952	50.78
841.124	52.45
841.297	51.18
841.47	51.62
841.642	51.64
841.815	53.32
841.987	52.15
842.16	50.73
842.332	50.37
842.505	52.06
842.677	54.05
842.85	54.49
843.022	56.5
843.194	56.93
843.367	57.18
843.539	56.24
843.712	57.36
843.884	59.2
844.056	61.24
844.229	61.09
844.401	63.59
844.573	65.77
844.745	66.03
844.918	64.84
845.09	65.92
845.262	65.2
845.434	69.28
845.606	64.02
845.779	65.56
845.951	64.47
846.123	68.13
846.295	69.39
846.467	68.71
846.639	73.1
846.811	73.32
846.983	75.89
847.155	77.92
847.327	80.32
847.499	85.75
847.671	86.22
847.843	88.82
848.015	87.98
848.187	91.26
848.359	95.06
848.531	92.56
848.703	94.75
848.875	96.71
849.047	97.96
849.218	90.65
849.39	93.42
849.562	92
849.734	92.81
849.905	95.44
850.077	93.73
850.249	94.09
850.421	96.84
850.592	92.91
850.764	87.41
850.936	86.88
851.107	90.19
851.279	87.87
851.451	88.76
851.622	88.56
851.794	86.56
851.965	86.01
852.137	84.42
852.308	80.6
852.48	84.75
852.651	86.42
852.823	85.99
852.994	86.54
853.166	84.24
853.337	83.14
853.509	83.21
853.68	82.47
853.851	81.7
854.023	83.35
854.194	84.68
854.365	81.86
854.537	82.71
854.708	82.63
854.879	82.36
855.05	84.95
855.222	84.24
855.393	84.03
855.564	84.04
855.735	82.75
855.906	79.24
856.078	76.15
856.249	76
856.42	76.4
856.591	81.1
856.762	79.24
856.933	78.74
857.104	79.36
857.275	78.31
857.446	75.81
857.617	75.91
857.788	76
857.959	76.36
858.13	79.42
858.301	78.59
858.472	75.29
858.643	79.79
858.814	78.42
858.985	77.02
859.155	75.07
859.326	79.21
859.497	78.14
859.668	82.65
859.839	82.56
860.009	80.2
860.18	78.49
860.351	79.23
860.522	79.39
860.692	80.24
860.863	81.73
861.034	90.11
861.204	86.77
861.375	85.96
861.546	79.8
861.716	80.42
861.887	79
862.057	81.08
862.228	82.01
862.398	78.98
862.569	79.49
862.739	82.7
862.91	76.88
863.08	76.37
863.251	76.69
863.421	78.51
863.592	83.57
863.762	86.32
863.932	84.48
864.103	84.31
864.273	85.39
864.443	84.98
864.614	83.07
864.784	82.94
864.954	84.92
865.125	82.75
865.295	83.65
865.465	81.47
865.635	79.63
865.805	84.36
865.976	83.59
866.146	83.78
866.316	85.68
866.486	88.39
866.656	90.98
866.826	93.38
866.996	99
867.166	101.68
867.336	98.55
867.506	96.65
867.676	93.23
867.846	93.93
868.016	94.84
868.186	96.77
868.356	92.41
868.526	87.16
868.696	88.59
868.866	85.73
869.036	87.09
869.206	91.72
869.376	97.64
869.545	95.01
869.715	96
869.885	92.74
870.055	85.53
870.224	88.32
870.394	88.79
870.564	83.93
870.734	85.49
870.903	88.2
871.073	84.44
871.243	78.29
871.412	79.08
871.582	76.1
871.751	79.17
871.921	82.23
872.091	80.14
872.26	79.29
872.43	78.43
872.599	78.92
872.769	74.16
872.938	76.1
873.108	79.21
873.277	80.7
873.446	81.22
873.616	76.93
873.785	78.21
873.955	83.44
874.124	86.8
874.293	89.93
874.463	86.59
874.632	87.89
874.801	84.44
874.971	84.29
875.14	84.2
875.309	85.91
875.478	89.87
875.647	87.27
875.817	81.97
875.986	82.74
876.155	80.36
876.324	81.39
876.493	80.2
876.662	82.3
876.831	80.92
877	78.11
877.17	75.91
877.339	75.49
877.508	75.15
877.677	77.85
877.846	75.25
878.015	80.04
878.184	80.1
878.352	77.97
878.521	76.93
878.69	77.18
878.859	79.26
879.028	77.2
879.197	71.17
879.366	68.76
879.534	63.92
879.703	62.14
879.872	58.19
880.041	54
880.21	50.54
880.378	49.71
880.547	45.49
880.716	41.99
880.884	40.2
881.053	38.52
881.222	37.74
881.39	37.3
881.559	36.17
881.727	34.44
881.896	34.28
882.065	33.96
882.233	32.17
882.402	33.01
882.57	33.41
882.739	33.6
882.907	34.42
883.076	34.67
883.244	34.5
883.412	35.05
883.581	35.38
883.749	35.25
883.918	35.39
884.086	36.78
884.254	37.26
884.423	37.73
884.591	39.18
884.759	39.7
884.927	40.34
885.096	40.77
885.264	42.06
885.432	44.1
885.6	45.69
885.769	49.96
885.937	51.22
886.105	53.07
886.273	54.89
886.441	55.87
886.609	56.44
886.777	55.67
886.945	58.92
887.113	58.93
887.281	60.09
887.449	62.11
887.617	61.78
887.785	64.42
887.953	66.31
888.121	65.06
888.289	64.72
888.457	68.71
888.625	74.27
888.793	75.72
888.961	77.74
889.129	77.68
889.296	81.39
889.464	82.55
889.632	80.96
889.8	77.92
889.967	82.12
890.135	84.25
