Data from 2938843__Reflection_01.txt Node
Date: Wed Mar 11 14:44:01 EDT 2015
User: robert
Spectrometer: USB4E03002
Autoset integration time: false
Trigger mode: 4
Integration Time (sec): 1.000000E-1
Scans to average: 10
Electric dark correction enabled: false
Nonlinearity correction enabled: false
Boxcar width: 5
Stray light correction enabled: false
XAxis mode: Wavelengths
Stop averaging: false
Number of Pixels in Spectrum: 3648
>>>>>Begin Spectral Data<<<<<
177.575	143.9
177.794	222.86
178.014	524.18
178.233	562.03
178.452	1705
178.672	-414.46
178.891	-116.5
179.11	-37.29
179.33	-64.9
179.549	-25.68
179.768	-16.45
179.987	-22.1
180.207	-0.82
180.426	-29.04
180.645	-67.81
180.864	-67.39
181.084	-33.66
181.303	-95.53
181.522	-77.4
181.741	31.14
181.96	36.89
182.179	53.64
182.398	100
182.618	56.29
182.837	87.26
183.056	74.04
183.275	87.5
183.494	22.19
183.713	50.44
183.932	29.35
184.151	7.07
184.37	16
184.589	8.89
184.808	1.55
185.027	-6.51
185.246	7.91
185.465	-4.71
185.684	25.89
185.903	-8.14
186.122	-68.6
186.341	-32.24
186.56	-130.1
186.779	-81.31
186.998	-103.5
187.216	-77
187.435	-77.44
187.654	-55.06
187.873	-52.94
188.092	-61.67
188.311	-110.04
188.53	-99.48
188.748	-78.32
188.967	9.31
189.186	-47.44
189.405	-0.71
189.623	-28.99
189.842	-85.71
190.061	-334.96
190.28	-573.4
190.498	813.7
190.717	-1969.23
190.936	-790.24
191.154	15420
191.373	-627.54
191.592	-293.31
191.81	-850
192.029	1886.96
192.248	-489.1
192.466	-230.73
192.685	-110.82
192.904	-83.14
193.122	-46.26
193.341	28.42
193.559	46.49
193.778	39.77
193.996	46.5
194.215	57.39
194.433	74.39
194.652	70.46
194.87	76.43
195.089	64.19
195.307	70.8
195.526	77.11
195.744	41.23
195.963	39.82
196.181	46.05
196.399	51.37
196.618	29.43
196.836	-13.19
197.055	22.26
197.273	-0.32
197.491	-11.48
197.71	-34.67
197.928	-2.3
198.146	27.84
198.365	-23.64
198.583	-48.73
198.801	-64.49
199.019	-99.79
199.238	-63.14
199.456	-70.53
199.674	-65.66
199.892	-69.04
200.111	-53.2
200.329	-59.43
200.547	-48.56
200.765	-48.02
200.983	-62.15
201.202	-48.27
201.42	10.67
201.638	-8.32
201.856	-3.92
202.074	2.88
202.292	-8.48
202.51	-3.88
202.728	-9.95
202.946	-24.06
203.165	12.61
203.383	21.17
203.601	11.07
203.819	-8.28
204.037	8.73
204.255	17.4
204.473	5.43
204.691	6.9
204.909	3.12
205.127	-12.05
205.345	-8.37
205.562	-35.69
205.78	-46.52
205.998	-62.48
206.216	-44.77
206.434	-49.3
206.652	-66.49
206.87	-72.64
207.088	-63.68
207.306	-72.24
207.523	-51.77
207.741	-99.71
207.959	-100.75
208.177	-97.35
208.395	-79.78
208.612	-78.21
208.83	-92.23
209.048	-87.84
209.266	-89
209.483	-86.62
209.701	-119.66
209.919	-124.31
210.136	-116.44
210.354	-107.98
210.572	-75.19
210.79	-51.78
211.007	-66.57
211.225	-75.08
211.442	-47.69
211.66	-42.25
211.878	-48.03
212.095	-24.8
212.313	-14.38
212.53	2.08
212.748	19.26
212.966	13.5
213.183	15.78
213.401	25.37
213.618	28.33
213.836	23.97
214.053	28.39
214.271	27.13
214.488	22.06
214.705	17.44
214.923	8.32
215.14	-2.61
215.358	-0.07
215.575	-2.48
215.793	-10.99
216.01	-1.37
216.227	-8.88
216.445	-19.42
216.662	-15.73
216.879	-5.38
217.097	-13.8
217.314	-8.23
217.531	-0.96
217.749	-0.45
217.966	-10.46
218.183	-3.83
218.4	-10.4
218.618	-8.21
218.835	-1.45
219.052	-4.55
219.269	-6.16
219.487	-6.57
219.704	-3.12
219.921	-1.11
220.138	0.54
220.355	8.52
220.572	6.75
220.79	8.75
221.007	6.33
221.224	3.78
221.441	7.21
221.658	8.55
221.875	11.26
222.092	7.56
222.309	0.56
222.526	-5.38
222.743	-4.66
222.96	-6.97
223.177	-8.19
223.394	-7.3
223.611	-3.97
223.828	-7.93
224.045	-8.92
224.262	-5.87
224.479	-6.81
224.696	-6.12
224.913	-2.13
225.13	0.89
225.347	4.92
225.564	3.51
225.781	3.11
225.997	4.35
226.214	4.35
226.431	4.68
226.648	6.24
226.865	8.55
227.082	8.99
227.298	8.8
227.515	8.52
227.732	7.37
227.949	7.46
228.165	7.81
228.382	7.54
228.599	8.26
228.816	7.65
229.032	6.28
229.249	5.52
229.466	5.97
229.682	5.87
229.899	5.16
230.116	5
230.332	5.39
230.549	5.17
230.765	4.19
230.982	3.34
231.199	3.53
231.415	4.1
231.632	3.97
231.848	2.99
232.065	2.25
232.281	3.77
232.498	4.06
232.714	3.68
232.931	3.3
233.147	5.59
233.364	7.18
233.58	8.06
233.797	7.92
234.013	7.88
234.23	6.68
234.446	7.15
234.662	6.45
234.879	6.76
235.095	5.68
235.312	6.54
235.528	4.12
235.744	2.7
235.961	2.98
236.177	3.29
236.393	3.91
236.61	5.4
236.826	4.97
237.042	3.96
237.258	2.76
237.475	4.01
237.691	3.7
237.907	3.74
238.123	4.83
238.339	3.95
238.556	4.28
238.772	5.84
238.988	5.97
239.204	6.85
239.42	7.93
239.636	8.38
239.853	7.49
240.069	7.57
240.285	7.16
240.501	6.35
240.717	6.39
240.933	5.52
241.149	5.5
241.365	5.71
241.581	5.33
241.797	4.74
242.013	5.02
242.229	5.43
242.445	5.67
242.661	6.01
242.877	5.63
243.093	5.71
243.309	6.23
243.525	5.53
243.741	5.28
243.957	5.01
244.173	5.85
244.388	5.95
244.604	5.45
244.82	5.33
245.036	6.15
245.252	6.28
245.468	6.04
245.683	5.89
245.899	5.85
246.115	5.72
246.331	5.84
246.547	5.66
246.762	5.78
246.978	5.83
247.194	5.57
247.409	5.28
247.625	5.47
247.841	5.27
248.057	5.18
248.272	5.33
248.488	5.13
248.703	5.41
248.919	5.31
249.135	4.47
249.35	4.42
249.566	4.81
249.782	4.76
249.997	4.77
250.213	4.83
250.428	4.87
250.644	4.44
250.859	4.76
251.075	4.25
251.29	4.3
251.506	4.72
251.721	4.65
251.937	4.21
252.152	4.67
252.368	4.26
252.583	4.74
252.798	4.74
253.014	4.32
253.229	4.88
253.445	4.75
253.66	5.03
253.875	4.97
254.091	5.27
254.306	4.91
254.521	4.55
254.737	5.67
254.952	5.62
255.167	5.45
255.383	6.62
255.598	6.21
255.813	7.23
256.028	6.77
256.244	7.56
256.459	7.17
256.674	7.22
256.889	6.9
257.104	6.4
257.32	5.96
257.535	6.05
257.75	5.81
257.965	5.73
258.18	5.24
258.395	5.07
258.61	4.74
258.826	4.58
259.041	4.62
259.256	4.61
259.471	4.58
259.686	4.53
259.901	4.47
260.116	4.4
260.331	4.31
260.546	4.36
260.761	4.27
260.976	4.23
261.191	4.47
261.406	4.56
261.621	4.29
261.836	4.03
262.05	3.94
262.265	3.92
262.48	3.84
262.695	3.4
262.91	2.97
263.125	3.17
263.34	3.33
263.555	2.71
263.769	2.79
263.984	2.65
264.199	3.04
264.414	3.86
264.629	3.92
264.843	3.99
265.058	4.88
265.273	4.65
265.488	4.78
265.702	4.35
265.917	4.5
266.132	3.51
266.346	4.06
266.561	4
266.776	3.61
266.99	3.43
267.205	3.52
267.42	2.97
267.634	3.13
267.849	2.95
268.063	3.07
268.278	3.12
268.492	3.53
268.707	3.08
268.922	2.96
269.136	2.93
269.351	2.84
269.565	2.64
269.78	2.97
269.994	3.11
270.209	3.38
270.423	3.23
270.637	3.03
270.852	3.5
271.066	4.07
271.281	3.94
271.495	4.07
271.709	4.26
271.924	4.52
272.138	4.33
272.353	4.48
272.567	4.42
272.781	4.57
272.996	4.84
273.21	4.84
273.424	4.57
273.638	4.48
273.853	4.36
274.067	4.21
274.281	3.78
274.495	3.95
274.71	3.92
274.924	3.8
275.138	3.7
275.352	3.7
275.566	3.36
275.781	3.57
275.995	3.74
276.209	3.72
276.423	3.91
276.637	4.06
276.851	4.27
277.065	3.99
277.279	3.76
277.493	3.89
277.707	3.99
277.921	4.04
278.135	3.89
278.349	3.92
278.563	3.78
278.777	3.67
278.991	3.76
279.205	3.56
279.419	3.52
279.633	3.45
279.847	3.67
280.061	3.76
280.275	3.73
280.489	3.94
280.703	3.96
280.917	3.72
281.131	3.65
281.344	3.62
281.558	3.68
281.772	3.62
281.986	3.85
282.2	3.67
282.414	3.44
282.627	3.47
282.841	3.05
283.055	3.22
283.269	3.59
283.482	3.68
283.696	3.75
283.91	3.72
284.123	3.87
284.337	3.7
284.551	3.57
284.764	3.39
284.978	3.45
285.192	3.49
285.405	3.34
285.619	3.19
285.833	3.17
286.046	3.21
286.26	3.24
286.473	3.35
286.687	3.35
286.9	3.57
287.114	3.52
287.327	3.51
287.541	3.62
287.754	3.72
287.968	3.85
288.181	3.72
288.395	3.67
288.608	3.48
288.822	3.46
289.035	3.53
289.248	3.48
289.462	4.01
289.675	3.72
289.889	3.5
290.102	3.24
290.315	3.4
290.529	3.66
290.742	3.71
290.955	3.58
291.169	3.45
291.382	3.46
291.595	3.34
291.808	2.93
292.022	3.11
292.235	3.33
292.448	3.65
292.661	3.57
292.875	3.56
293.088	3.64
293.301	3.76
293.514	3.95
293.727	4.01
293.94	4.28
294.153	4.32
294.367	4.48
294.58	4.54
294.793	4.55
295.006	4.62
295.219	4.73
295.432	4.63
295.645	4.98
295.858	4.68
296.071	4.71
296.284	4.79
296.497	4.88
296.71	4.91
296.923	4.85
297.136	4.84
297.349	4.62
297.562	4.55
297.775	4.54
297.988	4.45
298.201	4.58
298.414	4.68
298.626	4.3
298.839	4.27
299.052	4.37
299.265	4.71
299.478	4.54
299.691	4.86
299.903	4.61
300.116	4.81
300.329	4.83
300.542	5.3
300.755	5.09
300.967	5.27
301.18	5.3
301.393	5.13
301.605	4.85
301.818	5.03
302.031	5.14
302.243	5.36
302.456	5.19
302.669	5.24
302.881	5.25
303.094	5.45
303.307	5.7
303.519	5.62
303.732	5.73
303.944	5.75
304.157	5.78
304.37	5.38
304.582	5.43
304.795	5.67
305.007	5.44
305.22	5.15
305.432	5.03
305.645	4.96
305.857	4.87
306.069	4.91
306.282	4.83
306.494	4.98
306.707	5.53
306.919	5.47
307.132	5.35
307.344	5.68
307.556	5.45
307.769	5.47
307.981	5.6
308.193	5.97
308.406	5.87
308.618	6.15
308.83	6.12
309.043	5.77
309.255	5.77
309.467	5.94
309.679	5.94
309.892	6.25
310.104	6.36
310.316	6.12
310.528	6.15
310.74	6.14
310.953	5.97
311.165	5.85
311.377	5.9
311.589	6.09
311.801	6.01
312.013	6.12
312.225	5.93
312.437	5.65
312.649	5.65
312.862	5.27
313.074	5.23
313.286	5.22
313.498	5.3
313.71	5.53
313.922	5.2
314.134	5.06
314.346	4.76
314.558	4.69
314.77	4.65
314.982	4.98
315.193	5.01
315.405	5.24
315.617	5.59
315.829	5.35
316.041	5.24
316.253	5.43
316.465	5.47
316.677	5.48
316.888	5.56
317.1	6.22
317.312	6.14
317.524	6.51
317.736	6.14
317.947	5.83
318.159	6.3
318.371	6.26
318.583	6.23
318.794	6.02
319.006	5.9
319.218	6.28
319.43	6.08
319.641	5.84
319.853	5.9
320.064	6.27
320.276	6.56
320.488	6.61
320.699	6.82
320.911	7.52
321.123	7.85
321.334	7.93
321.546	7.74
321.757	7.79
321.969	8.09
322.18	7.96
322.392	7.78
322.603	7.79
322.815	7.75
323.026	7.68
323.238	7.12
323.449	7.42
323.661	7.37
323.872	7.69
324.083	7.42
324.295	7
324.506	6.92
324.718	6.75
324.929	6.72
325.14	6.69
325.352	6.45
325.563	6.15
325.774	5.74
325.986	5.8
326.197	5.7
326.408	6
326.62	6.41
326.831	6.8
327.042	7
327.253	7.05
327.464	7.15
327.676	7.32
327.887	7.54
328.098	7.67
328.309	7.71
328.52	7.58
328.732	7.39
328.943	7.37
329.154	6.88
329.365	6.85
329.576	6.59
329.787	6.42
329.998	5.96
330.209	6.33
330.42	6.41
330.631	6.41
330.842	5.95
331.053	5.99
331.264	5.89
331.475	6.23
331.686	6.37
331.897	6.61
332.108	6.47
332.319	6.9
332.53	6.69
332.741	6.93
332.952	7.37
333.163	7.8
333.374	7.79
333.585	7.96
333.795	8.04
334.006	8.11
334.217	8.16
334.428	8.31
334.639	8.24
334.849	8.23
335.06	8.3
335.271	7.96
335.482	7.95
335.692	8
335.903	8.18
336.114	7.97
336.325	7.97
336.535	7.6
336.746	7.7
336.957	7.68
337.167	7.63
337.378	6.95
337.589	6.91
337.799	6.84
338.01	6.52
338.22	6.25
338.431	6.4
338.642	6.21
338.852	6.45
339.063	6.2
339.273	5.93
339.484	6.08
339.694	6.97
339.905	6.94
340.115	7.15
340.326	7.17
340.536	7.27
340.746	6.83
340.957	6.63
341.167	6.67
341.378	6.59
341.588	6.68
341.799	6.52
342.009	5.95
342.219	5.83
342.43	5.68
342.64	6.25
342.85	6.06
343.061	6.2
343.271	6.38
343.481	6.47
343.691	6.58
343.902	6.93
344.112	6.94
344.322	7.32
344.532	7.44
344.743	7.53
344.953	7.36
345.163	7.28
345.373	7.4
345.583	7.4
345.793	7.55
346.004	7.48
346.214	7.33
346.424	7.17
346.634	6.77
346.844	6.67
347.054	6.77
347.264	6.72
347.474	6.66
347.684	6.66
347.894	6.74
348.104	6.54
348.314	6.48
348.524	6.33
348.734	6.43
348.944	6.57
349.154	6.85
349.364	6.66
349.574	6.78
349.784	6.88
349.994	6.64
350.204	6.66
350.413	6.39
350.623	6.41
350.833	6.53
351.043	6.69
351.253	6.85
351.463	6.77
351.672	6.76
351.882	6.71
352.092	6.76
352.302	7.04
352.511	6.9
352.721	6.98
352.931	7.22
353.141	7.18
353.35	7
353.56	7.29
353.77	7.13
353.979	6.89
354.189	6.81
354.399	6.82
354.608	6.73
354.818	6.58
355.027	6.77
355.237	6.65
355.447	6.76
355.656	6.55
355.866	6.16
356.075	6.01
356.285	6.27
356.494	6.05
356.704	6.18
356.913	6.14
357.123	6.26
357.332	6.17
357.542	6.02
357.751	5.84
357.96	5.99
358.17	6.03
358.379	6.28
358.589	6.14
358.798	6.15
359.007	6.18
359.217	6.2
359.426	6.19
359.635	6.3
359.845	6.45
360.054	6.54
360.263	6.54
360.472	6.37
360.682	6.23
360.891	6.23
361.1	6.38
361.309	6.4
361.519	6.29
361.728	6.23
361.937	6.33
362.146	6.27
362.355	6.26
362.564	6.29
362.774	6.31
362.983	6.55
363.192	6.54
363.401	6.55
363.61	6.48
363.819	6.74
364.028	6.77
364.237	6.53
364.446	6.55
364.655	6.37
364.864	6.32
365.073	6.36
365.282	6.26
365.491	6.21
365.7	5.94
365.909	5.7
366.118	5.4
366.327	5.55
366.536	5.46
366.745	5.47
366.954	5.56
367.162	5.56
367.371	5.54
367.58	5.49
367.789	5.36
367.998	5.56
368.207	5.83
368.415	5.87
368.624	5.76
368.833	5.63
369.042	5.69
369.25	5.82
369.459	6.13
369.668	6.06
369.877	5.89
370.085	6.2
370.294	6.35
370.503	6.03
370.711	6.13
370.92	6.14
371.129	6.06
371.337	5.95
371.546	5.71
371.754	5.35
371.963	5.51
372.171	5.68
372.38	5.42
372.589	5.24
372.797	5.43
373.006	5.49
373.214	5.54
373.423	5.7
373.631	5.58
373.84	5.69
374.048	5.83
374.256	5.9
374.465	5.4
374.673	5.44
374.882	5.43
375.09	5.39
375.298	5.1
375.507	4.98
375.715	5.13
375.923	5.14
376.132	5.18
376.34	5.12
376.548	4.98
376.757	5.23
376.965	5.33
377.173	5.05
377.381	4.92
377.59	4.91
377.798	4.89
378.006	4.81
378.214	4.78
378.423	4.63
378.631	4.63
378.839	4.56
379.047	4.64
379.255	4.53
379.463	4.65
379.671	4.76
379.879	4.82
380.088	4.73
380.296	4.83
380.504	4.7
380.712	4.78
380.92	4.74
381.128	4.67
381.336	4.54
381.544	4.69
381.752	4.83
381.96	4.86
382.168	4.79
382.376	4.98
382.584	4.71
382.791	4.93
382.999	4.99
383.207	5.07
383.415	5.13
383.623	5
383.831	4.44
384.039	4.54
384.247	4.42
384.454	4.55
384.662	4.24
384.87	4.34
385.078	4.29
385.285	4.27
385.493	4
385.701	3.92
385.909	3.89
386.116	4.15
386.324	3.74
386.532	3.67
386.739	3.65
386.947	3.79
387.155	3.82
387.362	3.82
387.57	3.78
387.778	3.75
387.985	3.77
388.193	3.85
388.4	4.06
388.608	4.32
388.816	4.43
389.023	4.49
389.231	4.6
389.438	4.54
389.646	4.52
389.853	4.41
390.061	4.59
390.268	4.63
390.475	4.64
390.683	4.51
390.89	4.39
391.098	4.3
391.305	4.17
391.512	4.14
391.72	4.08
391.927	4.13
392.135	4.08
392.342	3.99
392.549	3.8
392.756	3.77
392.964	3.71
393.171	3.77
393.378	3.72
393.586	3.67
393.793	3.6
394	3.51
394.207	3.4
394.414	3.58
394.622	3.64
394.829	3.71
395.036	3.62
395.243	3.77
395.45	3.79
395.657	3.76
395.864	4.05
396.072	4.02
396.279	3.96
396.486	3.88
396.693	3.77
396.9	3.64
397.107	3.62
397.314	3.74
397.521	3.63
397.728	3.54
397.935	3.68
398.142	3.5
398.349	3.55
398.556	3.58
398.763	3.65
398.97	3.57
399.177	3.66
399.383	3.65
399.59	3.7
399.797	3.55
400.004	3.67
400.211	3.68
400.418	3.61
400.625	3.53
400.831	3.71
401.038	3.71
401.245	3.89
401.452	3.68
401.658	3.78
401.865	3.77
402.072	3.82
402.279	3.76
402.485	3.6
402.692	3.64
402.899	3.54
403.105	3.5
403.312	3.54
403.519	3.51
403.725	3.62
403.932	3.64
404.138	3.44
404.345	3.48
404.552	3.35
404.758	3.32
404.965	3.22
405.171	3.17
405.378	3.15
405.584	3.32
405.791	3.22
405.997	3.27
406.204	3.15
406.41	3.24
406.617	3.12
406.823	3.21
407.029	3.36
407.236	3.61
407.442	3.68
407.649	3.63
407.855	3.46
408.061	3.43
408.268	3.58
408.474	3.64
408.68	3.7
408.887	3.67
409.093	3.67
409.299	3.66
409.505	3.48
409.712	3.56
409.918	3.57
410.124	3.49
410.33	3.58
410.537	3.52
410.743	3.56
410.949	3.71
411.155	3.89
411.361	3.97
411.567	3.92
411.773	3.88
411.98	3.74
412.186	3.72
412.392	3.84
412.598	3.68
412.804	3.65
413.01	3.52
413.216	3.42
413.422	3.38
413.628	3.29
413.834	3.27
414.04	3.32
414.246	3.53
414.452	3.48
414.658	3.43
414.864	3.38
415.07	3.35
415.275	3.47
415.481	3.41
415.687	3.43
415.893	3.5
416.099	3.49
416.305	3.44
416.511	3.42
416.716	3.62
416.922	3.58
417.128	3.72
417.334	3.76
417.539	3.74
417.745	3.7
417.951	3.52
418.157	3.44
418.362	3.4
418.568	3.44
418.774	3.41
418.979	3.28
419.185	3.31
419.391	3.3
419.596	3.3
419.802	3.25
420.008	3.38
420.213	4.1
420.419	4.1
420.624	4.16
420.83	4.19
421.035	4.25
421.241	4.28
421.446	4.28
421.652	4.31
421.857	4.31
422.063	4.38
422.268	4.32
422.474	3.77
422.679	3.81
422.885	3.76
423.09	3.76
423.295	3.67
423.501	3.63
423.706	3.58
423.911	3.55
424.117	3.52
424.322	3.41
424.527	3.4
424.733	3.4
424.938	3.33
425.143	3.31
425.349	3.26
425.554	3.27
425.759	3.27
425.964	3.29
426.169	3.26
426.375	3.25
426.58	3.34
426.785	3.3
426.99	3.23
427.195	3.19
427.4	3.25
427.605	3.32
427.811	3.32
428.016	3.4
428.221	3.46
428.426	3.43
428.631	3.44
428.836	3.39
429.041	3.39
429.246	3.49
429.451	3.6
429.656	3.64
429.861	3.64
430.066	3.63
430.271	3.63
430.476	3.68
430.681	3.73
430.886	3.72
431.09	3.71
431.295	3.69
431.5	3.65
431.705	3.74
431.91	3.78
432.115	3.61
432.32	3.57
432.524	3.54
432.729	3.56
432.934	3.53
433.139	3.58
433.343	3.71
433.548	3.71
433.753	3.66
433.958	3.65
434.162	3.47
434.367	3.63
434.572	3.68
434.776	3.62
434.981	3.53
435.186	3.61
435.39	3.62
435.595	3.54
435.799	3.53
436.004	3.56
436.209	3.49
436.413	3.55
436.618	3.5
436.822	3.48
437.027	3.57
437.231	3.51
437.436	3.39
437.64	3.32
437.845	3.27
438.049	3.32
438.253	3.34
438.458	3.36
438.662	3.52
438.867	3.63
439.071	3.66
439.275	3.68
439.48	3.77
439.684	3.82
439.888	3.84
440.093	3.87
440.297	3.86
440.501	3.92
440.706	3.89
440.91	3.84
441.114	3.73
441.318	3.78
441.523	3.71
441.727	3.7
441.931	3.7
442.135	3.7
442.339	3.66
442.543	3.71
442.748	3.71
442.952	3.77
443.156	3.69
443.36	3.73
443.564	3.69
443.768	3.73
443.972	3.77
444.176	3.79
444.38	3.78
444.584	3.81
444.788	3.76
444.992	3.65
445.196	3.6
445.4	3.63
445.604	3.63
445.808	3.66
446.012	3.64
446.216	3.61
446.42	3.57
446.624	3.6
446.828	3.56
447.032	3.58
447.235	3.67
447.439	3.76
447.643	3.73
447.847	3.75
448.051	3.75
448.254	3.81
448.458	3.76
448.662	3.75
448.866	3.72
449.069	3.86
449.273	3.92
449.477	3.9
449.681	3.8
449.884	3.79
450.088	3.75
450.292	3.7
450.495	3.66
450.699	3.71
450.902	3.74
451.106	3.78
451.31	3.69
451.513	3.64
451.717	3.69
451.92	3.73
452.124	3.8
452.327	3.82
452.531	3.79
452.734	3.73
452.938	3.71
453.141	3.73
453.345	3.64
453.548	3.59
453.752	3.6
453.955	3.53
454.158	3.44
454.362	3.4
454.565	3.36
454.769	3.4
454.972	3.46
455.175	3.58
455.379	3.61
455.582	3.65
455.785	3.68
455.988	3.66
456.192	3.61
456.395	3.63
456.598	3.7
456.801	3.81
457.005	3.69
457.208	3.63
457.411	3.55
457.614	3.6
457.817	3.57
458.021	3.61
458.224	3.61
458.427	3.56
458.63	3.57
458.833	3.52
459.036	3.49
459.239	3.61
459.442	3.64
459.645	3.63
459.848	3.55
460.051	3.55
460.254	3.59
460.457	3.56
460.66	3.6
460.863	3.63
461.066	3.67
461.269	3.72
461.472	3.61
461.675	3.63
461.878	3.62
462.081	3.61
462.284	3.64
462.486	3.56
462.689	3.6
462.892	3.7
463.095	3.69
463.298	3.66
463.5	3.6
463.703	3.66
463.906	3.64
464.109	3.59
464.311	3.65
464.514	3.71
464.717	3.62
464.92	3.61
465.122	3.47
465.325	3.56
465.528	3.51
465.73	3.46
465.933	3.42
466.135	3.47
466.338	3.58
466.541	3.68
466.743	3.61
466.946	3.75
467.148	3.76
467.351	3.86
467.553	3.89
467.756	3.94
467.958	3.97
468.161	3.89
468.363	3.87
468.566	3.81
468.768	3.76
468.971	3.82
469.173	3.82
469.375	3.8
469.578	3.78
469.78	3.74
469.983	3.8
470.185	3.82
470.387	3.94
470.59	4.08
470.792	4.03
470.994	3.95
471.196	3.98
471.399	3.95
471.601	4.02
471.803	3.98
472.005	3.88
472.208	3.91
472.41	3.86
472.612	3.82
472.814	3.64
473.016	3.8
473.218	3.85
473.421	3.8
473.623	3.69
473.825	3.6
474.027	3.65
474.229	3.71
474.431	3.59
474.633	3.61
474.835	3.59
475.037	3.64
475.239	3.62
475.441	3.62
475.643	3.65
475.845	3.78
476.047	3.8
476.249	3.81
476.451	3.83
476.653	3.88
476.855	3.87
477.057	3.97
477.258	3.91
477.46	3.74
477.662	3.72
477.864	3.71
478.066	3.62
478.268	3.65
478.469	3.6
478.671	3.64
478.873	3.61
479.075	3.61
479.276	3.54
479.478	3.56
479.68	3.7
479.882	3.67
480.083	3.67
480.285	3.73
480.487	3.77
480.688	3.76
480.89	3.7
481.091	3.82
481.293	3.9
481.495	3.93
481.696	4
481.898	3.96
482.099	3.97
482.301	3.95
482.502	3.97
482.704	3.92
482.905	3.93
483.107	3.92
483.308	3.82
483.51	3.78
483.711	3.78
483.913	3.78
484.114	3.76
484.315	3.75
484.517	3.74
484.718	3.68
484.92	3.67
485.121	3.65
485.322	3.65
485.524	3.65
485.725	3.64
485.926	3.6
486.127	3.54
486.329	3.54
486.53	3.56
486.731	3.57
486.932	3.63
487.134	3.66
487.335	3.67
487.536	3.67
487.737	3.71
487.938	3.75
488.139	3.76
488.341	3.79
488.542	3.78
488.743	3.75
488.944	3.76
489.145	3.73
489.346	3.72
489.547	3.73
489.748	3.69
489.949	3.72
490.15	3.71
490.351	3.74
490.552	3.77
490.753	3.83
490.954	3.86
491.155	3.82
491.356	3.84
491.557	3.86
491.758	3.86
491.959	3.86
492.159	3.85
492.36	3.82
492.561	3.79
492.762	3.81
492.963	3.81
493.164	3.76
493.364	3.78
493.565	3.75
493.766	3.74
493.967	3.77
494.167	3.86
494.368	3.9
494.569	3.94
494.769	3.94
494.97	3.92
495.171	3.86
495.371	3.91
495.572	3.94
495.773	4.03
495.973	4.03
496.174	3.95
496.375	3.94
496.575	3.96
496.776	4.03
496.976	4.08
497.177	4.08
497.377	4.18
497.578	4.11
497.778	4.13
497.979	4.17
498.179	4.2
498.38	4.22
498.58	4.13
498.78	4.1
498.981	4.03
499.181	4.09
499.382	4.11
499.582	4.06
499.782	4.19
499.983	4.21
500.183	4.13
500.383	4.11
500.584	4.1
500.784	4.18
500.984	4.23
501.184	4.27
501.385	4.23
501.585	4.24
501.785	4.24
501.985	4.32
502.185	4.33
502.386	4.29
502.586	4.36
502.786	4.49
502.986	4.62
503.186	4.59
503.386	4.62
503.586	4.71
503.786	4.77
503.987	4.83
504.187	4.76
504.387	4.79
504.587	4.85
504.787	4.89
504.987	4.84
505.187	4.83
505.387	4.84
505.587	4.87
505.786	4.83
505.986	4.83
506.186	4.76
506.386	4.83
506.586	4.88
506.786	4.92
506.986	4.9
507.186	4.93
507.386	4.92
507.585	5.06
507.785	5.09
507.985	5.18
508.185	5.16
508.384	5.26
508.584	5.3
508.784	5.34
508.984	5.34
509.183	5.4
509.383	5.39
509.583	5.43
509.782	5.39
509.982	5.43
510.182	5.41
510.381	5.49
510.581	5.59
510.781	5.67
510.98	5.63
511.18	5.72
511.379	5.77
511.579	5.91
511.778	5.94
511.978	5.96
512.177	5.99
512.377	6.13
512.576	6.24
512.776	6.23
512.975	6.2
513.175	6.27
513.374	6.26
513.573	6.35
513.773	6.41
513.972	6.48
514.172	6.58
514.371	6.6
514.57	6.53
514.77	6.46
514.969	6.56
515.168	6.62
515.367	6.74
515.567	6.86
515.766	6.86
515.965	6.97
516.164	7
516.364	7
516.563	7.07
516.762	7.16
516.961	7.36
517.16	7.4
517.359	7.48
517.559	7.56
517.758	7.6
517.957	7.63
518.156	7.63
518.355	7.76
518.554	7.81
518.753	7.89
518.952	7.94
519.151	7.89
519.35	7.92
519.549	7.95
519.748	7.94
519.947	8.01
520.146	8.05
520.345	8.09
520.544	8.12
520.743	8.18
520.942	8.24
521.141	8.36
521.339	8.45
521.538	8.45
521.737	8.48
521.936	8.51
522.135	8.55
522.333	8.61
522.532	8.69
522.731	8.7
522.93	8.78
523.129	8.81
523.327	8.8
523.526	8.84
523.725	8.98
523.923	9.11
524.122	9.23
524.321	9.39
524.519	9.46
524.718	9.46
524.917	9.54
525.115	9.57
525.314	9.67
525.512	9.78
525.711	9.85
525.909	9.86
526.108	9.92
526.306	9.96
526.505	9.95
526.703	10.05
526.902	10.19
527.1	10.24
527.299	10.31
527.497	10.34
527.696	10.36
527.894	10.39
528.092	10.42
528.291	10.47
528.489	10.48
528.688	10.51
528.886	10.52
529.084	10.52
529.283	10.54
529.481	10.59
529.679	10.59
529.877	10.61
530.076	10.65
530.274	10.73
530.472	10.73
530.67	10.81
530.869	10.89
531.067	10.95
531.265	11.02
531.463	11.13
531.661	11.22
531.859	11.31
532.057	11.39
532.255	11.5
532.454	11.57
532.652	11.63
532.85	11.71
533.048	11.76
533.246	11.8
533.444	11.86
533.642	11.84
533.84	11.88
534.038	11.96
534.236	11.99
534.434	11.98
534.632	12.01
534.83	12.07
535.027	12.1
535.225	12.12
535.423	12.15
535.621	12.21
535.819	12.3
536.017	12.34
536.215	12.33
536.412	12.4
536.61	12.45
536.808	12.48
537.006	12.52
537.203	12.53
537.401	12.58
537.599	12.63
537.797	12.64
537.994	12.63
538.192	12.61
538.39	12.66
538.587	12.7
538.785	12.73
538.983	12.83
539.18	12.94
539.378	13.06
539.575	13.17
539.773	13.31
539.97	13.47
540.168	13.6
540.366	13.72
540.563	13.81
540.761	13.86
540.958	13.91
541.155	13.97
541.353	13.98
541.55	13.99
541.748	14.05
541.945	14.11
542.143	14.08
542.34	14.13
542.537	14.17
542.735	14.18
542.932	14.23
543.129	14.33
543.327	14.37
543.524	14.5
543.721	14.67
543.919	14.74
544.116	14.77
544.313	14.91
544.51	14.96
544.708	15.06
544.905	15.19
545.102	15.32
545.299	15.4
545.496	15.42
545.693	15.46
545.891	15.45
546.088	15.45
546.285	15.48
546.482	15.5
546.679	15.59
546.876	15.62
547.073	15.6
547.27	15.62
547.467	15.63
547.664	15.73
547.861	15.74
548.058	15.76
548.255	15.85
548.452	15.83
548.649	15.82
548.846	15.81
549.043	15.81
549.24	15.89
549.437	15.91
549.633	15.91
549.83	15.96
550.027	15.97
550.224	16.05
550.421	16.1
550.618	16.25
550.814	16.42
551.011	16.45
551.208	16.53
551.405	16.54
551.601	16.59
551.798	16.63
551.995	16.64
552.191	16.75
552.388	16.75
552.585	16.84
552.781	16.88
552.978	16.85
553.175	16.84
553.371	16.76
553.568	16.77
553.764	16.78
553.961	16.96
554.157	16.99
554.354	16.88
554.55	16.94
554.747	16.89
554.943	16.96
555.14	16.98
555.336	17.07
555.533	17.17
555.729	17.26
555.926	17.33
556.122	17.15
556.318	17.15
556.515	17.25
556.711	17.25
556.907	17.33
557.104	17.27
557.3	17.23
557.496	17.27
557.693	17.3
557.889	17.32
558.085	17.36
558.281	17.46
558.478	17.56
558.674	17.55
558.87	17.54
559.066	17.53
559.262	17.48
559.459	17.49
559.655	17.43
559.851	17.47
560.047	17.56
560.243	17.59
560.439	17.68
560.635	17.79
560.831	17.85
561.027	17.92
561.223	17.94
561.419	18.16
561.615	18.26
561.811	18.45
562.007	18.4
562.203	18.4
562.399	18.43
562.595	18.44
562.791	18.27
562.987	18.32
563.183	18.29
563.379	18.3
563.575	18.28
563.771	18.33
563.966	18.32
564.162	18.44
564.358	18.52
564.554	18.57
564.75	18.58
564.945	18.74
565.141	18.79
565.337	18.86
565.533	18.98
565.728	18.98
565.924	19.1
566.12	19.2
566.315	19.12
566.511	19.13
566.707	19.17
566.902	19.24
567.098	19.21
567.293	19.26
567.489	19.33
567.684	19.31
567.88	19.3
568.076	19.28
568.271	19.26
568.467	19.35
568.662	19.42
568.858	19.34
569.053	19.35
569.248	19.47
569.444	19.52
569.639	19.5
569.835	19.46
570.03	19.53
570.225	19.57
570.421	19.48
570.616	19.56
570.812	19.56
571.007	19.67
571.202	19.61
571.397	19.65
571.593	19.67
571.788	19.68
571.983	19.84
572.178	19.9
572.374	19.92
572.569	20.03
572.764	19.99
572.959	19.95
573.154	19.97
573.35	20.07
573.545	19.98
573.74	19.94
573.935	20.03
574.13	20
574.325	19.93
574.52	19.94
574.715	19.95
574.91	19.99
575.105	20.06
575.3	20.18
575.495	20.21
575.69	20.31
575.885	20.32
576.08	20.37
576.275	20.43
576.47	20.59
576.665	20.72
576.86	20.74
577.055	20.76
577.25	20.79
577.444	20.84
577.639	20.85
577.834	20.86
578.029	20.96
578.224	20.99
578.418	21.06
578.613	20.89
578.808	20.79
579.003	20.89
579.197	21.09
579.392	21.13
579.587	20.94
579.781	20.97
579.976	21.07
580.171	21.22
580.365	21.35
580.56	21.26
580.755	21.53
580.949	21.53
581.144	21.56
581.338	21.56
581.533	21.58
581.727	21.82
581.922	21.85
582.116	21.73
582.311	21.78
582.505	21.65
582.7	21.73
582.894	21.62
583.089	21.77
583.283	21.64
583.478	21.6
583.672	21.68
583.866	21.66
584.061	21.65
584.255	21.74
584.449	21.77
584.644	21.73
584.838	21.71
585.032	21.84
585.226	21.81
585.421	22.03
585.615	22.05
585.809	22.12
586.003	22.06
586.198	22.17
586.392	22.35
586.586	22.25
586.78	22.3
586.974	22.31
587.168	22.21
587.363	22.28
587.557	22.13
587.751	22.12
587.945	21.95
588.139	21.92
588.333	22
588.527	21.98
588.721	21.93
588.915	21.88
589.109	21.99
589.303	22
589.497	22.01
589.691	21.98
589.885	22.07
590.079	22.21
590.273	22.35
590.466	22.24
590.66	22.28
590.854	22.41
591.048	22.52
591.242	22.47
591.436	22.62
591.629	22.62
591.823	22.89
592.017	22.82
592.211	22.87
592.404	22.89
592.598	22.88
592.792	22.65
592.986	22.64
593.179	22.6
593.373	22.62
593.567	22.45
593.76	22.47
593.954	22.28
594.147	22.32
594.341	22.24
594.535	22.1
594.728	22.08
594.922	22.09
595.115	21.94
595.309	22.07
595.502	21.95
595.696	22.02
595.889	21.98
596.083	22.03
596.276	21.98
596.47	22.01
596.663	22.03
596.856	22.03
597.05	22.13
597.243	22.18
597.437	22.18
597.63	22.29
597.823	22.4
598.017	22.41
598.21	22.46
598.403	22.59
598.596	22.6
598.79	22.74
598.983	22.87
599.176	22.84
599.369	22.95
599.563	22.93
599.756	22.79
599.949	22.73
600.142	22.87
600.335	22.94
600.528	22.86
600.722	22.95
600.915	22.91
601.108	22.84
601.301	22.87
601.494	22.88
601.687	22.87
601.88	23.01
602.073	22.96
602.266	22.77
602.459	22.71
602.652	22.81
602.845	22.75
603.038	22.81
603.231	22.83
603.424	22.93
603.617	22.96
603.809	22.97
604.002	22.88
604.195	22.96
604.388	23.05
604.581	22.97
604.774	22.96
604.966	22.95
605.159	22.93
605.352	22.97
605.545	22.94
605.737	22.95
605.93	22.92
606.123	22.93
606.316	22.92
606.508	22.92
606.701	23.04
606.894	22.99
607.086	23.13
607.279	23.15
607.471	23.06
607.664	23.21
607.857	23.14
608.049	23.38
608.242	23.73
608.434	23.85
608.627	24.18
608.819	24.49
609.012	24.77
609.204	25.17
609.397	25.59
609.589	26.23
609.782	26.71
609.974	27.43
610.166	27.98
610.359	28.38
610.551	28.95
610.743	29.38
610.936	29.79
611.128	30.1
611.32	30.27
611.513	30.48
611.705	30.56
611.897	30.45
612.09	30.22
612.282	30
612.474	29.82
612.666	29.46
612.858	29.25
613.051	29.01
613.243	28.88
613.435	28.75
613.627	28.46
613.819	28.05
614.011	27.77
614.203	27.7
614.395	27.41
614.588	27.26
614.78	27.07
614.972	26.82
615.164	26.55
615.356	26.2
615.548	25.96
615.74	25.59
615.932	25.57
616.124	25.51
616.315	25.16
616.507	24.89
616.699	24.73
616.891	24.66
617.083	24.63
617.275	24.47
617.467	24.43
617.659	24.43
617.85	24.47
618.042	24.35
618.234	24.21
618.426	24.26
618.618	24.31
618.809	24.33
619.001	24.4
619.193	24.14
619.384	24.11
619.576	24.2
619.768	23.89
619.959	23.95
620.151	24.03
620.343	24.15
620.534	24.32
620.726	24.43
620.917	24.49
621.109	24.42
621.301	24.54
621.492	24.69
621.684	24.71
621.875	24.93
622.067	24.88
622.258	24.78
622.45	24.79
622.641	24.54
622.832	24.48
623.024	24.51
623.215	24.64
623.407	24.81
623.598	24.82
623.789	24.87
623.981	24.8
624.172	24.94
624.363	25.11
624.555	25.29
624.746	25.23
624.937	25.36
625.129	25.22
625.32	25.15
625.511	25.08
625.702	24.93
625.893	24.86
626.085	24.98
626.276	24.95
626.467	24.87
626.658	24.68
626.849	24.79
627.04	24.89
627.231	24.88
627.422	24.73
627.614	24.8
627.805	24.94
627.996	25.02
628.187	24.86
628.378	24.88
628.569	24.98
628.76	25.05
628.951	25.11
629.142	25.09
629.332	25.11
629.523	25.13
629.714	25.09
629.905	25.07
630.096	25.1
630.287	25.3
630.478	25.42
630.669	25.34
630.859	25.37
631.05	25.51
631.241	25.26
631.432	25.41
631.623	25.57
631.813	25.63
632.004	25.46
632.195	25.5
632.385	25.44
632.576	25.35
632.767	25.26
632.957	25.1
633.148	24.9
633.339	24.98
633.529	24.95
633.72	24.83
633.91	24.58
634.101	24.83
634.292	24.73
634.482	24.59
634.673	24.55
634.863	24.54
635.054	24.65
635.244	24.65
635.435	24.69
635.625	24.48
635.815	24.58
636.006	24.54
636.196	24.47
636.387	24.29
636.577	24.35
636.767	24.28
636.958	24.34
637.148	24.35
637.338	24.22
637.529	24.06
637.719	24.12
637.909	24.1
638.099	24.17
638.29	24.12
638.48	24.28
638.67	24.15
638.86	24.14
639.05	24.15
639.241	24
639.431	24
639.621	24.3
639.811	24.28
640.001	24.28
640.191	24.24
640.381	24.27
640.571	24.27
640.761	24.28
640.951	24.35
641.141	24.25
641.331	24.5
641.521	24.59
641.711	24.48
641.901	24.66
642.091	24.6
642.281	24.69
642.471	24.72
642.661	24.55
642.851	24.75
643.041	24.77
643.231	24.79
643.42	24.63
643.61	24.68
643.8	24.4
643.99	24.35
644.18	24.38
644.369	24.23
644.559	24.13
644.749	24.34
644.939	24.28
645.128	24.19
645.318	24.29
645.508	24.33
645.697	24.46
645.887	24.68
646.076	24.79
646.266	24.92
646.456	25.02
646.645	25.06
646.835	25.1
647.024	25.22
647.214	25.34
647.403	25.21
647.593	25.08
647.782	25.13
647.972	25.19
648.161	25.16
648.351	25.22
648.54	25.54
648.73	25.63
648.919	25.55
649.108	25.5
649.298	25.44
649.487	25.8
649.677	25.87
649.866	25.8
650.055	25.71
650.244	25.68
650.434	25.69
650.623	25.49
650.812	25.46
651.002	25.69
651.191	25.65
651.38	25.69
651.569	25.45
651.758	25.64
651.947	25.61
652.137	25.8
652.326	25.75
652.515	25.88
652.704	25.94
652.893	25.8
653.082	25.86
653.271	25.83
653.46	25.71
653.649	25.69
653.838	25.67
654.027	25.69
654.216	25.75
654.405	25.7
654.594	25.41
654.783	25.14
654.972	25.22
655.161	24.9
655.35	25.01
655.539	25.15
655.728	25.09
655.916	25.01
656.105	24.99
656.294	24.76
656.483	24.81
656.672	24.83
656.86	25.1
657.049	25
657.238	24.94
657.427	24.91
657.615	24.79
657.804	24.96
657.993	24.96
658.181	24.97
658.37	24.94
658.559	24.98
658.747	25
658.936	24.88
659.125	24.71
659.313	24.78
659.502	24.9
659.69	25.07
659.879	25.02
660.067	25.12
660.256	25.09
660.444	25.12
660.633	25.1
660.821	25.19
661.01	25.42
661.198	25.77
661.387	25.8
661.575	25.83
661.763	25.87
661.952	25.89
662.14	25.74
662.328	25.76
662.517	25.86
662.705	25.92
662.893	25.85
663.082	25.6
663.27	25.59
663.458	25.62
663.646	25.48
663.834	25.4
664.023	25.64
664.211	25.74
664.399	25.82
664.587	25.72
664.775	25.76
664.963	25.82
665.152	25.94
665.34	26.07
665.528	26.07
665.716	25.96
665.904	25.97
666.092	25.55
666.28	25.61
666.468	25.41
666.656	25.28
666.844	25
667.032	24.92
667.22	24.77
667.408	24.67
667.596	24.76
667.784	24.8
667.971	24.89
668.159	25.16
668.347	25.14
668.535	25.28
668.723	25.37
668.911	25.61
669.098	25.75
669.286	25.81
669.474	25.69
669.662	25.66
669.849	25.48
670.037	25.41
670.225	25.29
670.413	25.17
670.6	25.28
670.788	25.3
670.976	25.28
671.163	25.15
671.351	25.39
671.538	25.25
671.726	25.41
671.913	25.69
672.101	25.69
672.289	25.81
672.476	25.92
672.664	26.06
672.851	26.46
673.039	26.51
673.226	26.43
673.413	26.46
673.601	26.77
673.788	26.57
673.976	26.66
674.163	26.63
674.35	26.58
674.538	26.7
674.725	26.65
674.912	26.41
675.1	26.45
675.287	26.58
675.474	26.44
675.662	26.22
675.849	26.39
676.036	26.35
676.223	26.35
676.411	26.32
676.598	26.06
676.785	25.9
676.972	25.87
677.159	25.81
677.346	25.91
677.533	25.97
677.721	26.19
677.908	26.27
678.095	26.12
678.282	26.21
678.469	26.18
678.656	26.25
678.843	26.24
679.03	26.23
679.217	26.35
679.404	26.5
679.591	26.46
679.778	26.29
679.964	26.06
680.151	26.12
680.338	25.93
680.525	25.91
680.712	25.83
680.899	25.84
681.086	25.91
681.272	25.7
681.459	25.52
681.646	25.45
681.833	25.63
682.02	25.73
682.206	25.52
682.393	25.6
682.58	25.54
682.766	25.69
682.953	25.6
683.14	25.24
683.326	25.27
683.513	25.25
683.7	25.43
683.886	25.66
684.073	25.66
684.259	25.83
684.446	25.95
684.632	26.14
684.819	26.3
685.005	26.48
685.192	26.68
685.378	26.52
685.565	26.58
685.751	26.52
685.938	26.03
686.124	26.17
686.31	26.44
686.497	26.46
686.683	26.61
686.87	26.44
687.056	26.49
687.242	26.86
687.429	27.11
687.615	27.06
687.801	26.75
687.987	27.02
688.174	26.78
688.36	26.67
688.546	26.53
688.732	26.51
688.918	26.44
689.105	26.72
689.291	26.26
689.477	26.3
689.663	26.26
689.849	26.58
690.035	26.71
690.221	27.05
690.407	27.07
690.593	27.13
690.779	27.12
690.965	27.2
691.151	26.59
691.337	26.64
691.523	26.72
691.709	26.82
691.895	26.42
692.081	26.26
692.267	25.99
692.453	25.93
692.639	25.99
692.825	25.97
693.011	26.22
693.196	26.65
693.382	26.56
693.568	26.57
693.754	26.56
693.94	26.96
694.125	27.02
694.311	27.05
694.497	27.27
694.682	27.18
694.868	27.03
695.054	26.75
695.239	26.71
695.425	27.19
695.611	26.84
695.796	26.78
695.982	26.76
696.168	26.79
696.353	27.01
696.539	26.91
696.724	26.88
696.91	27.15
697.095	27.03
697.281	26.94
697.466	26.59
697.652	26.67
697.837	26.74
698.023	26.65
698.208	26.64
698.393	26.29
698.579	26.21
698.764	26.28
698.949	26.05
699.135	26.26
699.32	26.16
699.505	26.2
699.691	26.34
699.876	26.45
700.061	26.63
700.246	26.62
700.432	27.07
700.617	27.1
700.802	26.96
700.987	27.1
701.172	27.01
701.358	27.27
701.543	27.42
701.728	27.53
701.913	27.52
702.098	27.6
702.283	27.42
702.468	27.34
702.653	27.49
702.838	27.65
703.023	27.73
703.208	27.64
703.393	27.4
703.578	27.43
703.763	27.26
703.948	26.82
704.133	26.98
704.318	27.39
704.503	27.49
704.688	27.26
704.873	27.98
705.057	27.65
705.242	27.76
705.427	28.07
705.612	28.23
705.797	28.15
705.981	28.62
706.166	28.52
706.351	28.57
706.536	28.8
706.72	29.06
706.905	28.88
707.09	29.43
707.274	29.53
707.459	29.34
707.644	29.76
707.828	29.98
708.013	29.97
708.197	29.96
708.382	29.88
708.567	29.43
708.751	29.26
708.936	28.77
709.12	28.37
709.305	28.54
709.489	28.77
709.673	28.15
709.858	28.07
710.042	27.98
710.227	27.9
710.411	27.98
710.596	28.17
710.78	28.38
710.964	28.57
711.149	28.98
711.333	28.69
711.517	28.65
711.702	28.71
711.886	29
712.07	29.26
712.254	29.02
712.438	28.79
712.623	28.52
712.807	28.45
712.991	28.33
713.175	28.1
713.359	28.13
713.544	28.02
713.728	28.29
713.912	27.89
714.096	27.18
714.28	27.3
714.464	27.31
714.648	27.3
714.832	27.35
715.016	27.47
715.2	27.33
715.384	27.36
715.568	27.23
715.752	26.95
715.936	27.09
716.12	27.38
716.304	27.43
716.488	27.14
716.671	27.21
716.855	27
717.039	26.99
717.223	27.18
717.407	27.09
717.59	27.04
717.774	26.99
717.958	26.45
718.142	26.56
718.325	26.36
718.509	26.74
718.693	26.46
718.877	26.61
719.06	26.79
719.244	26.69
719.428	26.65
719.611	26.89
719.795	26.98
719.978	27.52
720.162	27.61
720.345	27.89
720.529	27.45
720.713	27.95
720.896	28.02
721.08	27.73
721.263	27.86
721.446	28.12
721.63	28.03
721.813	28.07
721.997	27.78
722.18	27.61
722.364	27.44
722.547	27.73
722.73	27.15
722.914	27.01
723.097	27.36
723.28	26.89
723.464	26.44
723.647	26.26
723.83	26.21
724.013	26.49
724.197	26.41
724.38	26.43
724.563	26.5
724.746	26.73
724.929	26.55
725.112	26.06
725.296	26.22
725.479	26.73
725.662	26.55
725.845	27.11
726.028	26.97
726.211	27.14
726.394	27.38
726.577	26.95
726.76	26.92
726.943	26.64
727.126	26.77
727.309	26.65
727.492	26.43
727.675	26.69
727.858	26.01
728.041	26.17
728.224	26.17
728.407	25.99
728.589	26.15
728.772	26.38
728.955	26.91
729.138	27.18
729.321	27.34
729.503	27.3
729.686	27.33
729.869	27.43
730.052	27.48
730.234	26.86
730.417	26.67
730.6	26.47
730.782	26.37
730.965	25.99
731.148	25.7
731.33	25.47
731.513	25.23
731.695	25.03
731.878	25.13
732.061	25.11
732.243	25.64
732.426	25.85
732.608	26.43
732.791	26.55
732.973	26.64
733.156	26.69
733.338	27.09
733.52	27.37
733.703	27.7
733.885	27.91
734.068	27.31
734.25	27.44
734.432	27.58
734.615	27.37
734.797	26.89
734.979	26.93
735.162	27.08
735.344	27.07
735.526	27.13
735.708	26.97
735.891	26.64
736.073	27.02
736.255	27.19
736.437	27.26
736.619	27.46
736.802	28.05
736.984	28.5
737.166	28.48
737.348	28.52
737.53	28.37
737.712	28.82
737.894	28.6
738.076	29.13
738.258	29.44
738.44	29.18
738.622	29.53
738.804	29.65
738.986	29.45
739.168	29.61
739.35	29.86
739.532	29.94
739.714	29.51
739.896	29.61
740.078	29.5
740.259	28.74
740.441	28.42
740.623	27.97
740.805	27.93
740.987	27.57
741.168	27.17
741.35	26.81
741.532	26.49
741.714	26.51
741.895	27.23
742.077	26.73
742.259	27.33
742.44	28.36
742.622	28.33
742.804	28.04
742.985	28.6
743.167	28.88
743.348	28.93
743.53	29.88
743.711	30.05
743.893	29.56
744.075	30.29
744.256	30.13
744.438	29.66
744.619	29.77
744.8	29.39
744.982	28.97
745.163	29.17
745.345	29.1
745.526	28.45
745.707	28.25
745.889	28.31
746.07	27.97
746.252	27.78
746.433	27.68
746.614	27.62
746.795	28.41
746.977	28.29
747.158	28.13
747.339	28.36
747.52	29.03
747.702	29.19
747.883	29.72
748.064	29.8
748.245	29.94
748.426	29.39
748.607	29.18
748.788	29.14
748.97	29.33
749.151	28.91
749.332	28.73
749.513	27.52
749.694	27.18
749.875	26.38
750.056	26.28
750.237	25.84
750.418	26.51
750.599	26.21
750.78	25.61
750.96	25.49
751.141	25.81
751.322	26.09
751.503	26.48
751.684	26.11
751.865	26.31
752.046	26.3
752.226	26.64
752.407	26.52
752.588	26.72
752.769	27.04
752.949	27.08
753.13	26.97
753.311	26.02
753.492	26.43
753.672	26.97
753.853	26.25
754.034	25.91
754.214	25.87
754.395	25.59
754.575	25.69
754.756	25.29
754.937	25.45
755.117	25.61
755.298	25.95
755.478	25.83
755.659	25.94
755.839	26.78
756.02	26.6
756.2	27.05
756.381	27.36
756.561	27.47
756.741	27.63
756.922	27.69
757.102	27.82
757.283	28.33
757.463	28.11
757.643	28.14
757.823	28.64
758.004	29.16
758.184	29.17
758.364	28.87
758.545	29.54
758.725	29.85
758.905	29.66
759.085	29.28
759.265	28.61
759.446	28.67
759.626	28.6
759.806	27.59
759.986	27.56
760.166	26.38
760.346	26.43
760.526	25.87
760.706	25.86
760.886	25.8
761.066	26.28
761.246	26.53
761.426	26.58
761.606	26.33
761.786	27.15
761.966	26.8
762.146	27.38
762.326	27.33
762.506	27.07
762.686	27.03
762.866	27.04
763.046	26.88
763.225	26.67
763.405	26.88
763.585	27.16
763.765	26.77
763.945	26.86
764.124	26.46
764.304	26.62
764.484	27.15
764.664	27.34
764.843	27.79
765.023	27.37
765.203	27.97
765.382	27.96
765.562	27.71
765.741	27.31
765.921	26.94
766.101	27.13
766.28	26.99
766.46	26.82
766.639	27.11
766.819	26.64
766.998	27
767.178	26.17
767.357	25.9
767.537	26.18
767.716	26.79
767.896	26.94
768.075	27.37
768.254	27.59
768.434	27.71
768.613	27.62
768.792	27.85
768.972	28.54
769.151	29.22
769.33	28.99
769.51	29.37
769.689	30.14
769.868	31.02
770.047	30.96
770.226	30.91
770.406	30.62
770.585	29.76
770.764	29.43
770.943	29.32
771.122	29.29
771.301	29.76
771.48	29.48
771.66	28.71
771.839	28.7
772.018	28.83
772.197	28.08
772.376	27.64
772.555	28.63
772.734	28.52
772.913	27.6
773.092	28.27
773.271	28.7
773.449	28.96
773.628	29.14
773.807	28.06
773.986	27.93
774.165	28.82
774.344	29.05
774.523	27.99
774.701	28.97
774.88	29.38
775.059	28.51
775.238	28.12
775.417	27.76
775.595	28.33
775.774	29.38
775.953	29.39
776.131	28.91
776.31	29.04
776.489	29.42
776.667	28.96
776.846	28.95
777.025	29.47
777.203	29.12
777.382	28.78
777.56	27.85
777.739	27.44
777.917	27.89
778.096	28.51
778.274	27.67
778.453	28.23
778.631	27.65
778.81	28.01
778.988	27.34
779.166	27.25
779.345	27.5
779.523	28.35
779.702	28.59
779.88	27.98
780.058	27.77
780.237	27.99
780.415	27.62
780.593	28.2
780.771	28.53
780.95	28.62
781.128	29.06
781.306	29.1
781.484	29.04
781.662	29.28
781.841	29.47
782.019	29.24
782.197	29.7
782.375	30.08
782.553	29.92
782.731	29.48
782.909	28.83
783.087	29.06
783.265	30.58
783.443	29.73
783.621	29.79
783.799	30.27
783.977	29.45
784.155	29.64
784.333	28.6
784.511	28.76
784.689	29
784.867	29.94
785.045	28.72
785.223	27.28
785.4	28.04
785.578	27.15
785.756	27.65
785.934	29.41
786.112	29.57
786.289	29.37
786.467	29.51
786.645	29.2
786.823	29.71
787	30.17
787.178	29.93
787.356	29.78
787.533	30.05
787.711	29.31
787.889	27.62
788.066	27.2
788.244	28.49
788.421	29.26
788.599	28.18
788.776	27.01
788.954	27
789.131	27.18
789.309	27.07
789.486	27.35
789.664	26.82
789.841	27.12
790.019	26.93
790.196	26.77
790.373	25.58
790.551	26.82
790.728	27.14
790.906	26.63
791.083	25.26
791.26	25.11
791.437	24.72
791.615	24.97
791.792	24.96
791.969	25.33
792.146	24.54
792.324	24.92
792.501	24.95
792.678	24.83
792.855	25.6
793.032	26.72
793.209	26.58
793.387	26.72
793.564	26.72
793.741	27.25
793.918	27.43
794.095	27.36
794.272	27.48
794.449	27.46
794.626	27.92
794.803	28.36
794.98	28.1
795.157	27.44
795.334	27.08
795.511	26.62
795.688	26.1
795.864	25.44
796.041	25.13
796.218	25.7
796.395	25.61
796.572	26.43
796.749	25.7
796.925	26.56
797.102	26.9
797.279	26.98
797.456	28
797.632	28.62
797.809	28.78
797.986	29.24
798.162	28.46
798.339	28.56
798.516	26.49
798.692	27.28
798.869	27.42
799.046	28.45
799.222	28.99
799.399	28.33
799.575	28.9
799.752	30.31
799.928	29.99
800.105	29.85
800.281	29.38
800.458	30.07
800.634	28.83
800.811	27.5
800.987	27.99
801.163	27.82
801.34	28.08
801.516	27.04
801.692	25.8
801.869	26.6
802.045	26.11
802.221	27.04
802.398	27.83
802.574	28.56
802.75	29.57
802.926	29.36
803.103	28.91
803.279	29.41
803.455	30.57
803.631	31.33
803.807	31.38
803.983	32.29
804.16	31.59
804.336	31.02
804.512	31.63
804.688	30.6
804.864	29.65
805.04	29.96
805.216	28.54
805.392	27.79
805.568	27.57
805.744	27.04
805.92	27.01
806.096	26.95
806.272	26.89
806.448	27.09
806.623	28.23
806.799	28.95
806.975	29.68
807.151	30.93
807.327	30.14
807.503	28.94
807.678	28.75
807.854	28.63
808.03	27.75
808.206	28.11
808.381	27.57
808.557	26.7
808.733	25.98
808.908	26.44
809.084	26.43
809.26	27.17
809.435	27.24
809.611	27.49
809.787	26.69
809.962	27.86
810.138	27.7
810.313	28.08
810.489	28.14
810.664	27.66
810.84	27.58
811.015	27.7
811.191	27.23
811.366	27.13
811.542	26.51
811.717	24.7
811.892	24.36
812.068	24.14
812.243	24.34
812.419	25.31
812.594	26.66
812.769	25.52
812.944	23.64
813.12	23.59
813.295	24.88
813.47	24.7
813.645	26.52
813.821	26.22
813.996	25.98
814.171	25.88
814.346	25.62
814.521	24.83
814.697	25.3
814.872	25.78
815.047	25.69
815.222	25.39
815.397	24.93
815.572	25.24
815.747	25.34
815.922	26.13
816.097	25.57
816.272	24.26
816.447	24.79
816.622	24.28
816.797	25.7
816.972	26.35
817.147	26.04
817.322	27.88
817.496	27.1
817.671	26.51
817.846	27.58
818.021	27.2
818.196	27.79
818.371	26.67
818.545	27.11
818.72	25.9
818.895	25.91
819.069	25.87
819.244	25.88
819.419	25.89
819.594	26.44
819.768	25.79
819.943	26.71
820.117	26.76
820.292	27.59
820.467	26.99
820.641	27.34
820.816	26.94
820.99	27
821.165	26.69
821.339	26.31
821.514	26.31
821.688	25.74
821.863	25.42
822.037	25.38
822.212	25.3
822.386	25.41
822.56	25.33
822.735	25.42
822.909	25.39
823.084	25.32
823.258	25.64
823.432	25.53
823.606	25.84
823.781	25.64
823.955	25.7
824.129	25.45
824.303	25.57
824.478	25.68
824.652	25.61
824.826	25.7
825	25.78
825.174	25.6
825.348	25.68
825.523	25.6
825.697	26.08
825.871	25.93
826.045	25.99
826.219	25.03
826.393	25.28
826.567	25.49
826.741	25.4
826.915	25.2
827.089	25.3
827.263	25.14
827.437	25.05
827.611	25.32
827.784	25.34
827.958	25.71
828.132	26.59
828.306	26.53
828.48	26.32
828.654	26.05
828.827	25.98
829.001	25.84
829.175	26.11
829.349	26.84
829.522	26.22
829.696	26.47
829.87	25.64
830.044	25.69
830.217	24.99
830.391	25.16
830.565	24.49
830.738	24.16
830.912	23.4
831.085	22.97
831.259	21.66
831.432	22.38
831.606	22.68
831.779	23.74
831.953	23.48
832.126	23.55
832.3	23.7
832.473	24.93
832.647	25.62
832.82	27.06
832.994	26.68
833.167	26.77
833.34	26.79
833.514	26.94
833.687	26.72
833.86	26.1
834.034	26.55
834.207	26.19
834.38	25.58
834.553	26.08
834.727	25.38
834.9	25.53
835.073	25.79
835.246	25.25
835.419	24.62
835.593	24.67
835.766	25.22
835.939	25.65
836.112	26.1
836.285	26.83
836.458	25.31
836.631	25.99
836.804	25.75
836.977	25.2
837.15	26.14
837.323	27.21
837.496	27.25
837.669	27.85
837.842	25.62
838.015	25.69
838.188	26.7
838.361	28.68
838.533	28.45
838.706	30.27
838.879	30.39
839.052	29.41
839.225	27.24
839.398	26.31
839.57	25.36
839.743	26.69
839.916	27.86
840.088	28.12
840.261	27.04
840.434	26.83
840.607	26.25
840.779	25.97
840.952	26.38
841.124	26.68
841.297	26.45
841.47	26.69
841.642	24.86
841.815	25.35
841.987	23.65
842.16	25.69
842.332	24.75
842.505	24.13
842.677	23.81
842.85	22.29
843.022	24.05
843.194	25.11
843.367	22.85
843.539	25.93
843.712	22.9
843.884	24.16
844.056	23.13
844.229	23.62
844.401	25.02
844.573	26.35
844.745	27.52
844.918	25.98
845.09	28.07
845.262	30.54
845.434	29.11
845.606	28.95
845.779	30.29
845.951	28.37
846.123	31.56
846.295	29.24
846.467	27.57
846.639	28.08
846.811	28.12
846.983	28.71
847.155	29.75
847.327	28.62
847.499	32.1
847.671	30.15
847.843	30.62
848.015	28.96
848.187	28.11
848.359	27.41
848.531	27.11
848.703	27.51
848.875	24.3
849.047	25.76
849.218	26.35
849.39	24.71
849.562	26.24
849.734	27.18
849.905	29.2
850.077	29.78
850.249	29.38
850.421	30.1
850.592	32.24
850.764	34.55
850.936	34.41
851.107	34.93
851.279	36.93
851.451	35.76
851.622	34.72
851.794	29.34
851.965	33.34
852.137	33.45
852.308	32.71
852.48	33.52
852.651	29.68
852.823	29.68
852.994	27.14
853.166	27.56
853.337	25.2
853.509	25.38
853.68	27.89
853.851	26.61
854.023	27.01
854.194	26.14
854.365	22.79
854.537	22.03
854.708	19.67
854.879	21.01
855.05	17.24
855.222	18.79
855.393	19.83
855.564	16.5
855.735	17.88
855.906	19.75
856.078	24.61
856.249	25.93
856.42	26.42
856.591	27.12
856.762	28.15
856.933	31.82
857.104	31.16
857.275	29.38
857.446	33.02
857.617	31.82
857.788	34.83
857.959	32.42
858.13	32.98
858.301	33.22
858.472	36.92
858.643	36.49
858.814	33.93
858.985	32.77
859.155	29.92
859.326	29.75
859.497	30.29
859.668	28.36
859.839	30.01
860.009	27.89
860.18	30.67
860.351	26.56
860.522	24.25
860.692	21.31
860.863	24.98
861.034	28.54
861.204	26.86
861.375	25.42
861.546	26.15
861.716	23.07
861.887	25.11
862.057	22.8
862.228	22.44
862.398	24.85
862.569	27.7
862.739	26.98
862.91	23.7
863.08	23.16
863.251	22.34
863.421	23.25
863.592	23.88
863.762	23.68
863.932	22.53
864.103	24.82
864.273	24.02
864.443	21.83
864.614	14.96
864.784	20.69
864.954	23.74
865.125	22.15
865.295	20.48
865.465	19.82
865.635	19.61
865.805	20.11
865.976	18.97
866.146	20.51
866.316	21.82
866.486	25.26
866.656	25.39
866.826	21.73
866.996	27.41
867.166	24.6
867.336	28.36
867.506	29.41
867.676	30.05
867.846	32.16
868.016	29.12
868.186	27.86
868.356	27.56
868.526	26.65
868.696	26.86
868.866	24.28
869.036	28.92
869.206	26.55
869.376	26.91
869.545	27.89
869.715	27.39
869.885	26.89
870.055	29.23
870.224	30.8
870.394	30.19
870.564	30.14
870.734	29.92
870.903	28.27
871.073	26.2
871.243	27.17
871.412	27.18
871.582	24.63
871.751	23.84
871.921	20.88
872.091	21.75
872.26	20.14
872.43	21.61
872.599	21.23
872.769	20.03
872.938	21.49
873.108	16.06
873.277	15.63
873.446	13.87
873.616	16.77
873.785	18.2
873.955	15.35
874.124	15.17
874.293	17.41
874.463	19.47
874.632	20.73
874.801	20.8
874.971	26.34
875.14	23.83
875.309	27.78
875.478	26.17
875.647	23.93
875.817	26.37
875.986	25.85
876.155	26.13
876.324	23.1
876.493	21.66
876.662	20.59
876.831	14.37
877	15.56
877.17	15.16
877.339	18.17
877.508	18.87
877.677	18.03
877.846	20.98
878.015	20.85
878.184	21.08
878.352	23.57
878.521	27.08
878.69	31.7
878.859	32.96
879.028	30.56
879.197	29.68
879.366	30.71
879.534	28.92
879.703	28.51
879.872	24.68
880.041	26.55
880.21	24.47
880.378	24.08
880.547	23.58
880.716	24.07
880.884	24.79
881.053	24.27
881.222	23.69
881.39	25.18
881.559	25.73
881.727	26.56
881.896	25.85
882.065	26.18
882.233	26.1
882.402	25.49
882.57	24.88
882.739	25.45
882.907	25.3
883.076	25.92
883.244	25.45
883.412	24.76
883.581	25.04
883.749	25.74
883.918	25.8
884.086	25
884.254	25.54
884.423	25.66
884.591	25.33
884.759	26
884.927	26.08
885.096	26.73
885.264	27.45
885.432	26.39
885.6	25.83
885.769	26.5
885.937	27.56
886.105	28.23
886.273	27.59
886.441	26.47
886.609	27.68
886.777	29.08
886.945	26.19
887.113	25.2
887.281	26.29
887.449	26.61
887.617	25
887.785	26.13
887.953	26.18
888.121	30.52
888.289	30.47
888.457	29.74
888.625	26.42
888.793	28.33
888.961	29.05
889.129	28.16
889.296	28.32
889.464	28.83
889.632	27.74
889.8	27.13
889.967	24
890.135	23.75
