Data from 2938731__Reflection_03.txt Node
Date: Sun Mar 15 18:52:54 EDT 2015
User: robert
Spectrometer: USB4E03002
Autoset integration time: false
Trigger mode: 4
Integration Time (sec): 1.000000E-1
Scans to average: 10
Electric dark correction enabled: false
Nonlinearity correction enabled: false
Boxcar width: 5
Stray light correction enabled: false
XAxis mode: Wavelengths
Stop averaging: false
Number of Pixels in Spectrum: 3648
>>>>>Begin Spectral Data<<<<<
177.575	-34.96
177.794	-14.33
178.014	-12.21
178.233	-7.53
178.452	36.19
178.672	37.45
178.891	132.52
179.11	266.42
179.33	238.46
179.549	953.06
179.768	634.62
179.987	-825.37
180.207	1732
180.426	260.42
180.645	279.09
180.864	186.99
181.084	160.11
181.303	118.88
181.522	120.33
181.741	543.9
181.96	116.49
182.179	90.72
182.398	27.56
182.618	46.77
182.837	143.52
183.056	57.06
183.275	50.37
183.494	-49
183.713	-81.91
183.932	-131.06
184.151	-288
184.37	-213.82
184.589	-3.44
184.808	2.4
185.027	18.29
185.246	22.22
185.465	49.01
185.684	28.35
185.903	87.47
186.122	135.06
186.341	234.23
186.56	124.75
186.779	123.63
186.998	195.87
187.216	2227.27
187.435	-256.25
187.654	297.22
187.873	-277.78
188.092	-476.74
188.311	-239.39
188.53	-1011.11
188.748	222.55
188.967	-165.19
189.186	-58.96
189.405	-23.39
189.623	-28.79
189.842	-65.74
190.061	-60.41
190.28	-13.18
190.498	18.13
190.717	17.84
190.936	5.56
191.154	10.92
191.373	-6.69
191.592	-21.2
191.81	-56.53
192.029	-82.27
192.248	-80.43
192.466	-144.16
192.685	-4155.56
192.904	182.85
193.122	230.89
193.341	105.29
193.559	98.19
193.778	70
193.996	69.65
194.215	55.67
194.433	38.41
194.652	66.5
194.87	59.53
195.089	81.7
195.307	285.48
195.526	-44.51
195.744	25.71
195.963	85.45
196.181	118.46
196.399	-5.71
196.618	-52.89
196.836	290
197.055	187.5
197.273	40.18
197.491	105.1
197.71	63.44
197.928	1160
198.146	-136.92
198.365	-119.35
198.583	26.4
198.801	-24.11
199.019	-136.17
199.238	-41.38
199.456	112.86
199.674	45.24
199.892	90.48
200.111	61.94
200.329	-36.07
200.547	51.92
200.765	60.92
200.983	63.64
201.202	29.34
201.42	-86.76
201.638	1284.21
201.856	189.47
202.074	-24500
202.292	1642.11
202.51	222.54
202.728	212.27
202.946	238.3
203.165	143.76
203.383	142.24
203.601	129.91
203.819	126.69
204.037	136.99
204.255	48.41
204.473	61.19
204.691	331.71
204.909	135.96
205.127	116.15
205.345	190.87
205.562	119.38
205.78	126.86
205.998	167.5
206.216	210.16
206.434	142.51
206.652	44.18
206.87	82.91
207.088	109.09
207.306	75.56
207.523	71.67
207.741	48.06
207.959	42.72
208.177	27.39
208.395	50.36
208.612	41.96
208.83	52.49
209.048	55.81
209.266	47.4
209.483	44.22
209.701	37.33
209.919	28.41
210.136	23.77
210.354	24.36
210.572	31.55
210.79	27.86
211.007	14.23
211.225	21.45
211.442	28.65
211.66	57.12
211.878	41.04
212.095	54.15
212.313	48.9
212.53	50.87
212.748	50.58
212.966	34.67
213.183	31.02
213.401	46.12
213.618	33.6
213.836	4.76
214.053	-26.01
214.271	-4.87
214.488	-39.25
214.705	-30.74
214.923	-8.94
215.14	-28.39
215.358	-20.92
215.575	-7.69
215.793	-13.31
216.01	-5.86
216.227	31.39
216.445	31.62
216.662	6.69
216.879	20.12
217.097	27.94
217.314	35.64
217.531	51.46
217.749	42.13
217.966	30.35
218.183	25.39
218.4	24.71
218.618	43.6
218.835	60.42
219.052	42.14
219.269	42.12
219.487	10.69
219.704	16.61
219.921	9.77
220.138	4.13
220.355	4.73
220.572	-3.57
220.79	-5.74
221.007	-11.86
221.224	-21.78
221.441	-8.31
221.658	-11.11
221.875	11.67
222.092	6.52
222.309	3.33
222.526	8.23
222.743	1.66
222.96	3.41
223.177	-1.71
223.394	-9.62
223.611	-3.53
223.828	-0
224.045	6
224.262	4.87
224.479	-2.81
224.696	-0.37
224.913	-1.96
225.13	-2.25
225.347	-10.56
225.564	-8.5
225.781	-8.46
225.997	-9.44
226.214	-8.32
226.431	-10.74
226.648	-12.65
226.865	-5.67
227.082	-2.17
227.298	-1.31
227.515	0.12
227.732	3.5
227.949	3.03
228.165	3.88
228.382	3.03
228.599	4.45
228.816	4.34
229.032	5.61
229.249	5.04
229.466	5.63
229.682	6.64
229.899	5.76
230.116	4.52
230.332	4.53
230.549	4.47
230.765	6.07
230.982	4.52
231.199	5.1
231.415	2.9
231.632	2.63
231.848	-0.75
232.065	-2.88
232.281	-1.48
232.498	-0.85
232.714	-1.47
232.931	-2.96
233.147	-2.25
233.364	-3.36
233.58	-3.96
233.797	-1.87
234.013	-3.54
234.23	-1.74
234.446	-2.31
234.662	-4.1
234.879	-2.53
235.095	-0.31
235.312	-0.32
235.528	-2.96
235.744	-2.4
235.961	-1.24
236.177	-4.38
236.393	-1.06
236.61	-1.81
236.826	-1.17
237.042	3.07
237.258	1.34
237.475	0.64
237.691	-0.38
237.907	-0.44
238.123	2.14
238.339	1.87
238.556	3.48
238.772	2.38
238.988	1.85
239.204	-0.07
239.42	-1.13
239.636	2.86
239.853	2.36
240.069	2.54
240.285	2.01
240.501	0.94
240.717	2.18
240.933	2.47
241.149	3.51
241.365	3.61
241.581	5.2
241.797	5.62
242.013	4.66
242.229	5.73
242.445	6.68
242.661	7.25
242.877	6.97
243.093	6.43
243.309	6.98
243.525	6.07
243.741	6.28
243.957	6.52
244.173	5.76
244.388	5.17
244.604	4.75
244.82	4.58
245.036	4.55
245.252	4.99
245.468	4.58
245.683	4.47
245.899	4.9
246.115	5.02
246.331	4.51
246.547	4.53
246.762	5.14
246.978	4.83
247.194	4.46
247.409	4.55
247.625	4.75
247.841	5.17
248.057	5.08
248.272	5.14
248.488	4.92
248.703	5.08
248.919	5.25
249.135	4.84
249.35	5.02
249.566	5.92
249.782	5.58
249.997	5.57
250.213	4.88
250.428	4.13
250.644	3.35
250.859	3.11
251.075	2.76
251.29	3.35
251.506	3.07
251.721	3.34
251.937	2.04
252.152	2.48
252.368	2.15
252.583	1.8
252.798	2.41
253.014	2.61
253.229	2.67
253.445	2.5
253.66	1.83
253.875	2.86
254.091	2.22
254.306	3.42
254.521	2.06
254.737	2.57
254.952	3.54
255.167	2.52
255.383	2.37
255.598	3.49
255.813	4.77
256.028	4.91
256.244	2.7
256.459	3.9
256.674	2.39
256.889	2.45
257.104	2.11
257.32	1.79
257.535	2.29
257.75	3.21
257.965	2.77
258.18	2.18
258.395	2.04
258.61	2.98
258.826	2.72
259.041	3.12
259.256	3.77
259.471	3.51
259.686	3.6
259.901	3.7
260.116	3.58
260.331	3.61
260.546	3.67
260.761	3.48
260.976	3.21
261.191	2.96
261.406	2.86
261.621	3.07
261.836	3.36
262.05	3.4
262.265	3.02
262.48	3.13
262.695	3.3
262.91	3.56
263.125	3.81
263.34	3.68
263.555	4.29
263.769	4.2
263.984	3.22
264.199	3.07
264.414	2.59
264.629	3
264.843	2.55
265.058	1.64
265.273	1.6
265.488	2.46
265.702	3.16
265.917	2.53
266.132	3.32
266.346	3.36
266.561	3.5
266.776	3.34
266.99	3.04
267.205	2.79
267.42	3.38
267.634	3.1
267.849	2.66
268.063	2.55
268.278	3.07
268.492	2.27
268.707	2.06
268.922	2.32
269.136	2.92
269.351	3.14
269.565	3.65
269.78	3.42
269.994	3.25
270.209	3.31
270.423	2.59
270.637	1.76
270.852	1.83
271.066	2.59
271.281	1.92
271.495	1.07
271.709	0.94
271.924	0.8
272.138	1
272.353	1.45
272.567	1.7
272.781	2.52
272.996	2.89
273.21	3.17
273.424	2.53
273.638	2.78
273.853	3.09
274.067	3.35
274.281	3.71
274.495	3.44
274.71	2.81
274.924	2.62
275.138	2.31
275.352	2.78
275.566	2.38
275.781	2.5
275.995	2.52
276.209	3.09
276.423	3.58
276.637	3.2
276.851	2.92
277.065	3.25
277.279	3.19
277.493	2.86
277.707	2.76
277.921	2.83
278.135	2.8
278.349	3.32
278.563	3.16
278.777	2.49
278.991	3.02
279.205	3.14
279.419	3.26
279.633	3.21
279.847	3.34
280.061	3.63
280.275	4.27
280.489	4.51
280.703	4.01
280.917	4.28
281.131	4.35
281.344	4.16
281.558	4.42
281.772	4.63
281.986	3.99
282.2	3.97
282.414	3.61
282.627	2.72
282.841	2.56
283.055	2.74
283.269	2.42
283.482	2.16
283.696	2.04
283.91	2.07
284.123	1.56
284.337	2.03
284.551	1.7
284.764	1.82
284.978	2.31
285.192	2.49
285.405	2.22
285.619	2.17
285.833	2.48
286.046	2.08
286.26	1.77
286.473	1.9
286.687	2.21
286.9	2.22
287.114	1.97
287.327	2.18
287.541	2.18
287.754	2.47
287.968	2.71
288.181	2.43
288.395	2.93
288.608	3.14
288.822	3.56
289.035	3.04
289.248	3.06
289.462	3.11
289.675	2.62
289.889	2.96
290.102	2.59
290.315	2.28
290.529	2.56
290.742	2.11
290.955	2.55
291.169	2.48
291.382	3.11
291.595	3.36
291.808	3.45
292.022	3.64
292.235	2.58
292.448	3.22
292.661	3.39
292.875	3.2
293.088	3.5
293.301	3.15
293.514	3.06
293.727	3.09
293.94	2.71
294.153	3.01
294.367	2.95
294.58	3.54
294.793	3.3
295.006	3.48
295.219	3.34
295.432	3.38
295.645	3.31
295.858	3.12
296.071	2.75
296.284	3.58
296.497	3.31
296.71	3.5
296.923	3.42
297.136	3.3
297.349	3.29
297.562	3.36
297.775	3.42
297.988	3.32
298.201	3.5
298.414	3.41
298.626	3.21
298.839	3.33
299.052	3.02
299.265	3.4
299.478	3.54
299.691	3.74
299.903	3.69
300.116	3.76
300.329	4.03
300.542	3.78
300.755	4.3
300.967	4.29
301.18	4.13
301.393	4.29
301.605	3.81
301.818	3.39
302.031	3.27
302.243	3.19
302.456	3.16
302.669	2.81
302.881	2.91
303.094	2.68
303.307	2.98
303.519	2.89
303.732	2.85
303.944	3.26
304.157	3.68
304.37	3.22
304.582	3.55
304.795	3.45
305.007	3.74
305.22	3.89
305.432	3.74
305.645	3.43
305.857	3.85
306.069	4.12
306.282	3.85
306.494	3.64
306.707	4.08
306.919	4.31
307.132	4.09
307.344	4.55
307.556	3.79
307.769	4.08
307.981	3.63
308.193	3.2
308.406	3.68
308.618	3.4
308.83	3.49
309.043	3.56
309.255	3.16
309.467	3.27
309.679	2.97
309.892	3.5
310.104	3.12
310.316	3.46
310.528	3.64
310.74	2.77
310.953	2.99
311.165	3.25
311.377	2.95
311.589	3.04
311.801	3.14
312.013	3.08
312.225	2.93
312.437	3.21
312.649	3.09
312.862	3.11
313.074	3.64
313.286	3.78
313.498	3.58
313.71	3.75
313.922	4.01
314.134	4.15
314.346	4.19
314.558	4.69
314.77	4.43
314.982	4.52
315.193	4.57
315.405	4.49
315.617	4.76
315.829	4.87
316.041	5.09
316.253	4.65
316.465	4.28
316.677	4.69
316.888	4.62
317.1	4.38
317.312	4.3
317.524	4.43
317.736	4.38
317.947	4.39
318.159	4.36
318.371	4.38
318.583	4.82
318.794	5.03
319.006	5.01
319.218	5.09
319.43	5.93
319.641	6.33
319.853	6.36
320.064	6.86
320.276	6.75
320.488	7.06
320.699	7.14
320.911	7
321.123	7
321.334	6.84
321.546	6.2
321.757	5.97
321.969	5.48
322.18	5.73
322.392	5.3
322.603	5.06
322.815	5.05
323.026	4.91
323.238	5.36
323.449	5.51
323.661	5.92
323.872	6.69
324.083	6.92
324.295	7.08
324.506	7.14
324.718	7.03
324.929	7.4
325.14	7.45
325.352	7.81
325.563	8.01
325.774	8.3
325.986	8.46
326.197	7.91
326.408	7.87
326.62	8.51
326.831	8.56
327.042	9.17
327.253	9.22
327.464	9.16
327.676	9.18
327.887	9.68
328.098	9.82
328.309	9.57
328.52	10.14
328.732	10.42
328.943	9.91
329.154	10.19
329.365	10.19
329.576	10.15
329.787	10.7
329.998	11.15
330.209	10.24
330.42	9.81
330.631	10.16
330.842	10.23
331.053	10.55
331.264	10.19
331.475	10.09
331.686	10.37
331.897	10.71
332.108	11.06
332.319	11.09
332.53	11.79
332.741	12.39
332.952	12.24
333.163	12.52
333.374	12.24
333.585	13.13
333.795	12.74
334.006	12.86
334.217	12.86
334.428	12.45
334.639	12.48
334.849	12.15
335.06	12.16
335.271	12.5
335.482	12.3
335.692	12.16
335.903	12.08
336.114	12.6
336.325	12.5
336.535	12.65
336.746	12.67
336.957	12.65
337.167	12.66
337.378	13.04
337.589	12.35
337.799	12.09
338.01	12.6
338.22	12.16
338.431	12.21
338.642	12.15
338.852	12.28
339.063	12.34
339.273	12.04
339.484	12.46
339.694	12.14
339.905	12.98
340.115	13.08
340.326	13.55
340.536	13.76
340.746	13.89
340.957	14.33
341.167	13.8
341.378	14.56
341.588	14.78
341.799	14.64
342.009	14.41
342.219	14.11
342.43	14.62
342.64	14.15
342.85	14.7
343.061	14.57
343.271	14.41
343.481	14.19
343.691	13.62
343.902	13.65
344.112	13.38
344.322	13.72
344.532	13.92
344.743	13.86
344.953	13.42
345.163	12.73
345.373	12.77
345.583	12.41
345.793	13.02
346.004	12.76
346.214	12.64
346.424	13.14
346.634	13.01
346.844	12.67
347.054	12.55
347.264	13.11
347.474	13.49
347.684	13.49
347.894	13.99
348.104	14.01
348.314	14.03
348.524	14.24
348.734	13.8
348.944	13.67
349.154	14.22
349.364	14.08
349.574	13.89
349.784	13.76
349.994	13.86
350.204	13.72
350.413	13.84
350.623	13.76
350.833	13.2
351.043	13.6
351.253	13.8
351.463	13.52
351.672	13.73
351.882	13.64
352.092	13.77
352.302	13.47
352.511	13.26
352.721	13.11
352.931	13.2
353.141	13.7
353.35	13.35
353.56	13.13
353.77	13.36
353.979	13.16
354.189	13.24
354.399	13.24
354.608	13.44
354.818	13.66
355.027	13.72
355.237	13.73
355.447	13.65
355.656	13.52
355.866	13.65
356.075	13.43
356.285	13.02
356.494	12.9
356.704	12.57
356.913	12.25
357.123	12.1
357.332	11.89
357.542	11.95
357.751	11.77
357.96	11.81
358.17	11.72
358.379	11.59
358.589	11.83
358.798	12.05
359.007	12.14
359.217	12.36
359.426	12.43
359.635	12.63
359.845	12.61
360.054	13.01
360.263	12.9
360.472	13.06
360.682	13.11
360.891	13.1
361.1	12.98
361.309	13.14
361.519	13.07
361.728	12.93
361.937	12.64
362.146	12.86
362.355	12.85
362.564	12.97
362.774	13.01
362.983	13.04
363.192	13.08
363.401	12.98
363.61	12.98
363.819	12.89
364.028	12.85
364.237	12.86
364.446	12.73
364.655	12.43
364.864	12.4
365.073	12.16
365.282	12.11
365.491	12.15
365.7	12.07
365.909	11.87
366.118	11.99
366.327	12.22
366.536	12.33
366.745	12.09
366.954	11.96
367.162	12.09
367.371	12.01
367.58	12.15
367.789	12.05
367.998	12.38
368.207	12.65
368.415	12.76
368.624	12.64
368.833	12.87
369.042	13.06
369.25	13.16
369.459	13.24
369.668	13.32
369.877	13.27
370.085	13.38
370.294	13.3
370.503	13.11
370.711	13.09
370.92	12.96
371.129	12.87
371.337	12.87
371.546	12.99
371.754	12.72
371.963	12.57
372.171	12.54
372.38	12.5
372.589	12.39
372.797	12.36
373.006	12.12
373.214	12.23
373.423	12.16
373.631	11.97
373.84	11.79
374.048	11.84
374.256	12.01
374.465	11.87
374.673	11.97
374.882	11.96
375.09	12
375.298	11.87
375.507	11.92
375.715	11.85
375.923	11.82
376.132	11.88
376.34	11.75
376.548	11.96
376.757	11.88
376.965	11.89
377.173	12.14
377.381	12.18
377.59	12.12
377.798	12.21
378.006	12.32
378.214	12.33
378.423	12.18
378.631	12.18
378.839	12.03
379.047	12.03
379.255	11.95
379.463	11.98
379.671	12.11
379.879	12.41
380.088	12.3
380.296	12.24
380.504	12.3
380.712	12.72
380.92	12.96
381.128	13.08
381.336	13.14
381.544	13.27
381.752	13.06
381.96	13.04
382.168	12.86
382.376	13.15
382.584	13.17
382.791	13.1
382.999	12.79
383.207	12.91
383.415	12.69
383.623	12.65
383.831	12.45
384.039	12.36
384.247	11.92
384.454	12.17
384.662	11.92
384.87	11.84
385.078	11.73
385.285	11.71
385.493	11.53
385.701	11.67
385.909	11.52
386.116	11.63
386.324	11.73
386.532	12.08
386.739	12.09
386.947	12.04
387.155	11.85
387.362	12.03
387.57	12.1
387.778	12.13
387.985	11.86
388.193	12.32
388.4	12.14
388.608	11.96
388.816	11.83
389.023	11.61
389.231	11.68
389.438	11.8
389.646	11.81
389.853	11.88
390.061	11.87
390.268	11.95
390.475	11.94
390.683	12.2
390.89	12.29
391.098	12.27
391.305	12.37
391.512	12.21
391.72	12.19
391.927	12.25
392.135	12.17
392.342	12.03
392.549	12.31
392.756	12.17
392.964	12
393.171	12.16
393.378	12.21
393.586	12.13
393.793	12.31
394	12.27
394.207	12.4
394.414	12.3
394.622	12.36
394.829	12.18
395.036	12.1
395.243	12.32
395.45	12.19
395.657	12.26
395.864	12.31
396.072	12.11
396.279	12.06
396.486	11.81
396.693	12.03
396.9	11.88
397.107	11.74
397.314	11.86
397.521	11.55
397.728	11.59
397.935	11.31
398.142	11.47
398.349	11.7
398.556	11.81
398.763	11.8
398.97	11.74
399.177	11.78
399.383	11.98
399.59	11.73
399.797	11.72
400.004	11.64
400.211	11.8
400.418	11.8
400.625	11.76
400.831	11.94
401.038	12.28
401.245	12.3
401.452	12.39
401.658	12.59
401.865	12.86
402.072	13.14
402.279	13.36
402.485	13.53
402.692	13.6
402.899	13.55
403.105	13.57
403.312	13.52
403.519	13.51
403.725	13.54
403.932	13.21
404.138	13.1
404.345	13.05
404.552	13.09
404.758	12.94
404.965	13.01
405.171	12.96
405.378	12.84
405.584	12.79
405.791	12.76
405.997	12.89
406.204	12.95
406.41	13.1
406.617	12.86
406.823	12.61
407.029	12.79
407.236	12.77
407.442	12.78
407.649	12.97
407.855	13.01
408.061	12.84
408.268	12.66
408.474	12.47
408.68	12.24
408.887	12.36
409.093	12.55
409.299	12.51
409.505	12.53
409.712	12.46
409.918	12.24
410.124	12.27
410.33	12.42
410.537	12.51
410.743	13.04
410.949	13.16
411.155	13.48
411.361	13.36
411.567	13.4
411.773	13.44
411.98	13.61
412.186	13.66
412.392	13.65
412.598	13.68
412.804	13.83
413.01	13.53
413.216	13.54
413.422	13.22
413.628	13.11
413.834	12.89
414.04	12.7
414.246	12.73
414.452	12.65
414.658	12.49
414.864	12.45
415.07	12.53
415.275	12.55
415.481	12.55
415.687	12.46
415.893	12.76
416.099	12.94
416.305	12.86
416.511	12.9
416.716	13.09
416.922	13.22
417.128	13.33
417.334	13.25
417.539	13.29
417.745	13.32
417.951	13.42
418.157	13.36
418.362	13.37
418.568	13.38
418.774	13.35
418.979	13.33
419.185	13.35
419.391	13.47
419.596	13.43
419.802	13.4
420.008	13.37
420.213	13.31
420.419	13.32
420.624	13.25
420.83	13.38
421.035	13.4
421.241	13.39
421.446	13.38
421.652	13.26
421.857	13.29
422.063	13.27
422.268	13.26
422.474	13.36
422.679	13.4
422.885	13.45
423.09	13.4
423.295	13.43
423.501	13.48
423.706	13.38
423.911	13.39
424.117	13.42
424.322	13.47
424.527	13.47
424.733	13.44
424.938	13.37
425.143	13.4
425.349	13.42
425.554	13.4
425.759	13.33
425.964	13.37
426.169	13.29
426.375	13.13
426.58	13.03
426.785	12.99
426.99	13.09
427.195	13.04
427.4	13.03
427.605	12.95
427.811	12.94
428.016	12.95
428.221	12.97
428.426	13.21
428.631	13.4
428.836	13.46
429.041	13.53
429.246	13.44
429.451	13.57
429.656	13.74
429.861	13.79
430.066	13.8
430.271	13.89
430.476	13.86
430.681	13.63
430.886	13.77
431.09	13.84
431.295	13.77
431.5	13.87
431.705	13.75
431.91	13.67
432.115	13.63
432.32	13.63
432.524	13.62
432.729	13.7
432.934	13.72
433.139	13.66
433.343	13.66
433.548	13.71
433.753	13.74
433.958	13.93
434.162	13.9
434.367	14.06
434.572	14.12
434.776	14.16
434.981	14.22
435.186	14.39
435.39	14.43
435.595	14.5
435.799	14.49
436.004	14.49
436.209	14.41
436.413	14.27
436.618	14.1
436.822	13.95
437.027	14.01
437.231	13.95
437.436	13.91
437.64	13.84
437.845	13.77
438.049	13.8
438.253	13.78
438.458	13.86
438.662	14.01
438.867	14.11
439.071	14.08
439.275	13.97
439.48	13.99
439.684	13.94
439.888	13.89
440.093	13.92
440.297	13.96
440.501	13.91
440.706	13.83
440.91	13.78
441.114	13.85
441.318	13.81
441.523	13.88
441.727	13.78
441.931	13.75
442.135	13.78
442.339	13.7
442.543	13.71
442.748	13.72
442.952	13.69
443.156	13.75
443.36	13.6
443.564	13.75
443.768	13.66
443.972	13.72
444.176	13.74
444.38	13.78
444.584	13.86
444.788	13.91
444.992	13.92
445.196	13.95
445.4	13.83
445.604	13.87
445.808	13.88
446.012	13.94
446.216	14.02
446.42	14.17
446.624	14.11
446.828	14.15
447.032	14.15
447.235	14.21
447.439	14.14
447.643	14.16
447.847	14.23
448.051	14.24
448.254	14.16
448.458	14.04
448.662	13.81
448.866	13.84
449.069	13.77
449.273	13.69
449.477	13.64
449.681	13.7
449.884	13.72
450.088	13.56
450.292	13.6
450.495	13.63
450.699	13.73
450.902	13.87
451.106	13.96
451.31	13.92
451.513	14.05
451.717	13.98
451.92	13.9
452.124	13.91
452.327	13.98
452.531	13.9
452.734	13.86
452.938	13.86
453.141	13.83
453.345	13.71
453.548	13.85
453.752	13.72
453.955	13.8
454.158	13.94
454.362	14.07
454.565	13.99
454.769	14.12
454.972	14.16
455.175	14.18
455.379	14.15
455.582	14.15
455.785	14.06
455.988	13.95
456.192	13.78
456.395	13.78
456.598	13.64
456.801	13.68
457.005	13.55
457.208	13.64
457.411	13.65
457.614	13.62
457.817	13.77
458.021	13.8
458.224	13.97
458.427	14.15
458.63	14.02
458.833	14.07
459.036	14.05
459.239	13.99
459.442	13.99
459.645	13.97
459.848	13.98
460.051	13.95
460.254	13.93
460.457	13.88
460.66	13.79
460.863	13.94
461.066	13.98
461.269	13.99
461.472	14.09
461.675	14.05
461.878	14.12
462.081	14.07
462.284	14.09
462.486	14.07
462.689	14.1
462.892	14.05
463.095	13.98
463.298	13.91
463.5	13.95
463.703	14.04
463.906	13.98
464.109	13.83
464.311	13.84
464.514	13.87
464.717	13.97
464.92	13.97
465.122	14
465.325	13.94
465.528	13.78
465.73	13.74
465.933	13.66
466.135	13.62
466.338	13.69
466.541	13.79
466.743	13.8
466.946	13.7
467.148	13.73
467.351	13.89
467.553	13.85
467.756	13.99
467.958	14.03
468.161	14.02
468.363	14.2
468.566	14.22
468.768	14.25
468.971	14.17
469.173	14.1
469.375	14.13
469.578	14.04
469.78	14.11
469.983	14.31
470.185	14.27
470.387	14.22
470.59	14.17
470.792	14.18
470.994	14.07
471.196	14.08
471.399	14.22
471.601	14.15
471.803	14.12
472.005	14.21
472.208	13.97
472.41	14.04
472.612	13.97
472.814	13.98
473.016	13.96
473.218	14.07
473.421	14.1
473.623	14.15
473.825	14.07
474.027	14.04
474.229	14.04
474.431	14.08
474.633	14.01
474.835	14.1
475.037	14.16
475.239	14.08
475.441	14.05
475.643	14.01
475.845	13.96
476.047	14.06
476.249	14.22
476.451	14.26
476.653	14.31
476.855	14.25
477.057	14.25
477.258	14.17
477.46	14.26
477.662	14.33
477.864	14.34
478.066	14.27
478.268	14.16
478.469	14.14
478.671	13.95
478.873	13.86
479.075	13.86
479.276	13.92
479.478	13.92
479.68	13.97
479.882	13.83
480.083	13.94
480.285	14.05
480.487	14.19
480.688	14.05
480.89	14.12
481.091	14.23
481.293	14.37
481.495	14.4
481.696	14.42
481.898	14.46
482.099	14.48
482.301	14.45
482.502	14.42
482.704	14.4
482.905	14.47
483.107	14.47
483.308	14.4
483.51	14.34
483.711	14.31
483.913	14.27
484.114	14.2
484.315	14.25
484.517	14.2
484.718	14.2
484.92	14.2
485.121	14.16
485.322	14.19
485.524	14.25
485.725	14.28
485.926	14.29
486.127	14.32
486.329	14.36
486.53	14.32
486.731	14.35
486.932	14.36
487.134	14.38
487.335	14.42
487.536	14.44
487.737	14.43
487.938	14.44
488.139	14.44
488.341	14.48
488.542	14.51
488.743	14.57
488.944	14.61
489.145	14.57
489.346	14.51
489.547	14.5
489.748	14.42
489.949	14.41
490.15	14.43
490.351	14.46
490.552	14.46
490.753	14.44
490.954	14.38
491.155	14.39
491.356	14.45
491.557	14.46
491.758	14.46
491.959	14.51
492.159	14.56
492.36	14.53
492.561	14.49
492.762	14.48
492.963	14.52
493.164	14.5
493.364	14.43
493.565	14.49
493.766	14.58
493.967	14.57
494.167	14.55
494.368	14.5
494.569	14.53
494.769	14.61
494.97	14.62
495.171	14.67
495.371	14.7
495.572	14.84
495.773	14.8
495.973	14.77
496.174	14.76
496.375	14.75
496.575	14.71
496.776	14.67
496.976	14.71
497.177	14.71
497.377	14.63
497.578	14.68
497.778	14.62
497.979	14.64
498.179	14.59
498.38	14.56
498.58	14.57
498.78	14.58
498.981	14.7
499.181	14.66
499.382	14.59
499.582	14.62
499.782	14.55
499.983	14.56
500.183	14.53
500.383	14.6
500.584	14.65
500.784	14.72
500.984	14.83
501.184	14.75
501.385	14.8
501.585	14.9
501.785	14.93
501.985	14.99
502.185	15.02
502.386	15.03
502.586	14.96
502.786	14.97
502.986	14.88
503.186	14.89
503.386	14.77
503.586	14.76
503.786	14.78
503.987	14.76
504.187	14.85
504.387	14.91
504.587	14.85
504.787	15
504.987	14.87
505.187	14.92
505.387	14.77
505.587	14.97
505.786	14.94
505.986	14.94
506.186	14.96
506.386	14.84
506.586	14.78
506.786	14.96
506.986	14.82
507.186	14.91
507.386	15.03
507.585	15.14
507.785	15.04
507.985	15.14
508.185	15.21
508.384	15.24
508.584	15.31
508.784	15.34
508.984	15.26
509.183	15.26
509.383	15.24
509.583	15.17
509.782	15.19
509.982	15.27
510.182	15.34
510.381	15.25
510.581	15.21
510.781	15.27
510.98	15.37
511.18	15.33
511.379	15.43
511.579	15.53
511.778	15.6
511.978	15.58
512.177	15.49
512.377	15.41
512.576	15.4
512.776	15.51
512.975	15.54
513.175	15.43
513.374	15.57
513.573	15.57
513.773	15.52
513.972	15.54
514.172	15.5
514.371	15.63
514.57	15.63
514.77	15.71
514.969	15.72
515.168	15.64
515.367	15.69
515.567	15.53
515.766	15.58
515.965	15.67
516.164	15.67
516.364	15.82
516.563	15.81
516.762	15.88
516.961	15.86
517.16	15.83
517.359	15.89
517.559	15.88
517.758	15.94
517.957	15.95
518.156	15.94
518.355	15.91
518.554	15.88
518.753	15.94
518.952	15.9
519.151	16.01
519.35	16
519.549	15.9
519.748	15.83
519.947	15.92
520.146	15.95
520.345	16.03
520.544	15.98
520.743	16.05
520.942	16.09
521.141	16.07
521.339	15.98
521.538	15.95
521.737	16.11
521.936	16.18
522.135	16.11
522.333	16.04
522.532	15.94
522.731	16.01
522.93	15.95
523.129	15.88
523.327	15.94
523.526	15.92
523.725	16.04
523.923	16.12
524.122	16.25
524.321	16.32
524.519	16.31
524.718	16.42
524.917	16.43
525.115	16.4
525.314	16.38
525.512	16.3
525.711	16.33
525.909	16.34
526.108	16.3
526.306	16.31
526.505	16.38
526.703	16.41
526.902	16.43
527.1	16.47
527.299	16.54
527.497	16.56
527.696	16.65
527.894	16.65
528.092	16.69
528.291	16.7
528.489	16.66
528.688	16.6
528.886	16.61
529.084	16.61
529.283	16.62
529.481	16.65
529.679	16.62
529.877	16.65
530.076	16.69
530.274	16.63
530.472	16.61
530.67	16.69
530.869	16.77
531.067	16.79
531.265	16.78
531.463	16.75
531.661	16.74
531.859	16.83
532.057	16.84
532.255	16.8
532.454	16.84
532.652	16.93
532.85	16.88
533.048	16.87
533.246	16.86
533.444	16.9
533.642	16.97
533.84	16.97
534.038	16.98
534.236	17.02
534.434	17.01
534.632	17.09
534.83	17.04
535.027	17.11
535.225	17.1
535.423	17.17
535.621	17.14
535.819	17.13
536.017	17.12
536.215	17.22
536.412	17.2
536.61	17.3
536.808	17.3
537.006	17.33
537.203	17.33
537.401	17.41
537.599	17.5
537.797	17.6
537.994	17.67
538.192	17.77
538.39	17.78
538.587	17.84
538.785	17.94
538.983	18.08
539.18	18.21
539.378	18.44
539.575	18.53
539.773	18.55
539.97	18.64
540.168	18.75
540.366	18.81
540.563	18.86
540.761	18.99
540.958	19.01
541.155	19
541.353	19.07
541.55	19.02
541.748	19.12
541.945	19.17
542.143	19.22
542.34	19.28
542.537	19.4
542.735	19.42
542.932	19.48
543.129	19.64
543.327	19.79
543.524	19.91
543.721	20.18
543.919	20.37
544.116	20.56
544.313	20.79
544.51	21.04
544.708	21.32
544.905	21.62
545.102	21.84
545.299	22.11
545.496	22.32
545.693	22.45
545.891	22.49
546.088	22.35
546.285	22.39
546.482	22.23
546.679	22.07
546.876	21.88
547.073	21.78
547.27	21.62
547.467	21.27
547.664	21.09
547.861	20.89
548.058	20.69
548.255	20.59
548.452	20.47
548.649	20.55
548.846	20.55
549.043	20.5
549.24	20.37
549.437	20.17
549.633	20.11
549.83	19.99
550.027	19.91
550.224	19.78
550.421	19.89
550.618	19.82
550.814	19.6
551.011	19.31
551.208	19.15
551.405	18.89
551.601	18.88
551.798	18.92
551.995	18.88
552.191	18.84
552.388	18.83
552.585	18.63
552.781	18.54
552.978	18.5
553.175	18.54
553.371	18.49
553.568	18.65
553.764	18.66
553.961	18.51
554.157	18.37
554.354	18.32
554.55	18.07
554.747	18.05
554.943	18.02
555.14	17.9
555.336	17.8
555.533	17.69
555.729	17.58
555.926	17.52
556.122	17.66
556.318	17.8
556.515	17.83
556.711	17.97
556.907	17.95
557.104	17.83
557.3	17.97
557.496	18.24
557.693	18.31
557.889	18.43
558.085	18.44
558.281	18.3
558.478	18.14
558.674	18.04
558.87	18.09
559.066	18.19
559.262	18.16
559.459	18.07
559.655	18.03
559.851	17.92
560.047	17.76
560.243	17.74
560.439	17.75
560.635	17.77
560.831	17.79
561.027	17.73
561.223	17.73
561.419	18.11
561.615	18.21
561.811	17.93
562.007	17.92
562.203	17.94
562.399	17.93
562.595	18.03
562.791	18.18
562.987	18.21
563.183	18.24
563.379	18.16
563.575	17.81
563.771	17.77
563.966	17.98
564.162	18.24
564.358	18.34
564.554	18.33
564.75	18.31
564.945	18.32
565.141	18.28
565.337	18.25
565.533	18.29
565.728	18.33
565.924	18.4
566.12	18.35
566.315	18.22
566.511	18.31
566.707	18.24
566.902	18.23
567.098	18.13
567.293	18.18
567.489	18.2
567.684	18.23
567.88	18.23
568.076	18.17
568.271	18.23
568.467	18.33
568.662	18.22
568.858	18.28
569.053	18.17
569.248	18.25
569.444	18.22
569.639	18.34
569.835	18.45
570.03	18.61
570.225	18.56
570.421	18.55
570.616	18.51
570.812	18.51
571.007	18.63
571.202	18.67
571.397	18.65
571.593	18.67
571.788	18.6
571.983	18.37
572.178	18.31
572.374	18.43
572.569	18.47
572.764	18.58
572.959	18.59
573.154	18.51
573.35	18.55
573.545	18.62
573.74	18.65
573.935	18.6
574.13	18.79
574.325	18.82
574.52	18.97
574.715	19.01
574.91	18.92
575.105	19.09
575.3	19.26
575.495	19.5
575.69	19.68
575.885	19.69
576.08	19.93
576.275	20.06
576.47	20.16
576.665	20.03
576.86	20.1
577.055	20.34
577.25	20.3
577.444	20.34
577.639	20.36
577.834	20.33
578.029	20.57
578.224	20.56
578.418	20.61
578.613	20.84
578.808	21.01
579.003	20.98
579.197	20.79
579.392	20.91
579.587	21.02
579.781	20.82
579.976	20.73
580.171	20.9
580.365	20.85
580.56	20.73
580.755	20.64
580.949	20.61
581.144	20.68
581.338	20.9
581.533	20.8
581.727	20.65
581.922	20.78
582.116	20.75
582.311	20.66
582.505	20.8
582.7	20.89
582.894	20.75
583.089	20.67
583.283	20.76
583.478	20.74
583.672	20.95
583.866	21.04
584.061	21.11
584.255	21.39
584.449	21.22
584.644	21.08
584.838	21.25
585.032	21.37
585.226	21.5
585.421	21.71
585.615	21.75
585.809	21.73
586.003	21.91
586.198	22.01
586.392	21.85
586.586	21.98
586.78	22.12
586.974	21.89
587.168	22.02
587.363	22.02
587.557	21.63
587.751	21.6
587.945	21.36
588.139	21.11
588.333	20.83
588.527	20.88
588.721	20.9
588.915	20.72
589.109	20.7
589.303	20.43
589.497	20.36
589.691	20.58
589.885	20.52
590.079	20.64
590.273	20.6
590.466	20.65
590.66	20.76
590.854	20.63
591.048	20.73
591.242	20.78
591.436	20.8
591.629	20.89
591.823	20.9
592.017	21
592.211	21.01
592.404	21.03
592.598	21.28
592.792	21.22
592.986	21.38
593.179	21.42
593.373	21.44
593.567	21.44
593.76	21.29
593.954	21.23
594.147	21.15
594.341	21.1
594.535	21.04
594.728	20.87
594.922	20.72
595.115	20.51
595.309	20.49
595.502	20.53
595.696	20.53
595.889	20.45
596.083	20.5
596.276	20.58
596.47	20.74
596.663	20.9
596.856	21.01
597.05	21.04
597.243	21.1
597.437	21.16
597.63	21.25
597.823	21.4
598.017	21.64
598.21	21.55
598.403	21.61
598.596	21.52
598.79	21.39
598.983	21.37
599.176	21.31
599.369	21.39
599.563	21.41
599.756	21.43
599.949	21.42
600.142	21.37
600.335	21.43
600.528	21.05
600.722	20.93
600.915	20.95
601.108	20.94
601.301	21.14
601.494	21.22
601.687	21.07
601.88	20.83
602.073	20.68
602.266	20.65
602.459	20.53
602.652	20.72
602.845	20.68
603.038	20.82
603.231	20.68
603.424	20.54
603.617	20.34
603.809	20.44
604.002	20.51
604.195	20.53
604.388	20.52
604.581	20.66
604.774	20.67
604.966	20.67
605.159	20.59
605.352	20.58
605.545	20.62
605.737	20.75
605.93	20.86
606.123	20.95
606.316	21.12
606.508	21.24
606.701	21.34
606.894	21.58
607.086	21.74
607.279	21.93
607.471	22.27
607.664	22.52
607.857	22.94
608.049	23.34
608.242	23.77
608.434	24.56
608.627	25.49
608.819	26.23
609.012	27.36
609.204	28.61
609.397	30.09
609.589	31.55
609.782	33.24
609.974	34.95
610.166	36.45
610.359	37.95
610.551	39.37
610.743	40.53
610.936	41.8
611.128	42.54
611.32	43.41
611.513	43.69
611.705	43.95
611.897	43.92
612.09	43.36
612.282	42.75
612.474	42.29
612.666	41.28
612.858	40.47
613.051	39.91
613.243	39.06
613.435	38.13
613.627	37.22
613.819	36.33
614.011	35.35
614.203	34.65
614.395	34.08
614.588	33.26
614.78	32.77
614.972	32.06
615.164	31.21
615.356	30.58
615.548	29.83
615.74	29.38
615.932	28.86
616.124	28.49
616.315	28.23
616.507	27.38
616.699	27.01
616.891	26.44
617.083	25.88
617.275	25.46
617.467	25.15
617.659	24.98
617.85	24.84
618.042	24.64
618.234	24.38
618.426	23.84
618.618	23.89
618.809	23.73
619.001	23.74
619.193	23.72
619.384	23.69
619.576	23.5
619.768	23.5
619.959	23.22
620.151	23.09
620.343	23.13
620.534	23.31
620.726	23.11
620.917	23.09
621.109	23.15
621.301	23.2
621.492	23.22
621.684	23.54
621.875	23.29
622.067	23.36
622.258	23.35
622.45	23.19
622.641	23.14
622.832	23.5
623.024	23.49
623.215	23.59
623.407	23.66
623.598	23.69
623.789	23.52
623.981	23.77
624.172	23.97
624.363	24.01
624.555	24.15
624.746	24.11
624.937	24.03
625.129	23.96
625.32	23.71
625.511	23.52
625.702	23.2
625.893	23.21
626.085	23.25
626.276	22.98
626.467	23.13
626.658	23.08
626.849	23.1
627.04	23.14
627.231	23.23
627.422	23.38
627.614	23.49
627.805	23.73
627.996	23.93
628.187	23.91
628.378	24.2
628.569	24.35
628.76	24.65
628.951	25.02
629.142	25.25
629.332	25.4
629.523	25.57
629.714	25.73
629.905	26.01
630.096	26.19
630.287	26.42
630.478	26.55
630.669	26.19
630.859	26.08
631.05	25.81
631.241	25.59
631.432	25.69
631.623	25.4
631.813	25.26
632.004	24.94
632.195	24.37
632.385	24.1
632.576	23.66
632.767	23.63
632.957	23.44
633.148	23.44
633.339	23.24
633.529	22.8
633.72	22.63
633.91	22.57
634.101	22.58
634.292	22.59
634.482	22.51
634.673	22.52
634.863	22.37
635.054	22.16
635.244	21.96
635.435	22.1
635.625	22.18
635.815	22.35
636.006	22.57
636.196	22.54
636.387	22.58
636.577	22.56
636.767	22.55
636.958	22.65
637.148	22.87
637.338	22.61
637.529	22.49
637.719	22.39
637.909	22.13
638.099	21.49
638.29	21.34
638.48	21.21
638.67	21.29
638.86	21.23
639.05	21.18
639.241	20.74
639.431	20.95
639.621	20.95
639.811	21.11
640.001	21.16
640.191	21.79
640.381	21.88
640.571	21.8
640.761	21.8
640.951	21.9
641.141	21.96
641.331	22.16
641.521	22.3
641.711	22.63
641.901	22.51
642.091	22.59
642.281	22.13
642.471	22.03
642.661	22.3
642.851	22.26
643.041	22.16
643.231	22.05
643.42	22.21
643.61	22.34
643.8	21.89
643.99	21.85
644.18	21.76
644.369	21.98
644.559	21.97
644.749	21.78
644.939	21.53
645.128	21.48
645.318	21.65
645.508	21.76
645.697	21.43
645.887	21.39
646.076	21.56
646.266	21.62
646.456	21.64
646.645	21.82
646.835	22.09
647.024	22.19
647.214	22.23
647.403	22.27
647.593	22.03
647.782	22.24
647.972	22.64
648.161	22.55
648.351	22.5
648.54	22.61
648.73	22.6
648.919	22.41
649.108	22.64
649.298	22.87
649.487	22.86
649.677	22.98
649.866	22.93
650.055	22.93
650.244	23.18
650.434	23.27
650.623	23.39
650.812	23.54
651.002	23.66
651.191	23.69
651.38	23.55
651.569	23.5
651.758	23.4
651.947	23.42
652.137	23.48
652.326	23.24
652.515	23.28
652.704	23.13
652.893	22.73
653.082	22.76
653.271	22.67
653.46	22.55
653.649	22.66
653.838	22.97
654.027	22.81
654.216	22.55
654.405	22.56
654.594	22.4
654.783	22.15
654.972	22.25
655.161	22.07
655.35	21.99
655.539	22
655.728	21.84
655.916	21.34
656.105	21.52
656.294	21.52
656.483	21.65
656.672	21.81
656.86	22.04
657.049	21.9
657.238	21.95
657.427	22.12
657.615	22.3
657.804	22.32
657.993	22.51
658.181	22.64
658.37	22.58
658.559	22.53
658.747	22.52
658.936	22.41
659.125	22.53
659.313	22.53
659.502	22.53
659.69	22.4
659.879	22.56
660.067	22.73
660.256	22.53
660.444	22.78
660.633	22.87
660.821	22.82
661.01	22.96
661.198	23.28
661.387	23.28
661.575	23.41
661.763	23.67
661.952	23.42
662.14	23.7
662.328	23.96
662.517	23.94
662.705	23.52
662.893	23.64
663.082	23.59
663.27	23.58
663.458	23.69
663.646	23.73
663.834	23.54
664.023	23.62
664.211	23.38
664.399	23.1
664.587	23.25
664.775	23.67
664.963	23.63
665.152	23.48
665.34	23.52
665.528	23.67
665.716	23.6
665.904	23.58
666.092	23.71
666.28	23.32
666.468	23.66
666.656	23.49
666.844	23.59
667.032	23.67
667.22	24.05
667.408	23.69
667.596	23.49
667.784	23.52
667.971	23.49
668.159	23.68
668.347	24.16
668.535	23.91
668.723	23.8
668.911	23.87
669.098	23.72
669.286	23.67
669.474	24.22
669.662	24.25
669.849	24.23
670.037	24.61
670.225	24.32
670.413	24.16
670.6	24.14
670.788	23.88
670.976	24.04
671.163	24.62
671.351	24.59
671.538	24.07
671.726	24.38
671.913	24.67
672.101	24.29
672.289	24.38
672.476	24.35
672.664	24.33
672.851	24.74
673.039	24.55
673.226	24.37
673.413	24.55
673.601	24.87
673.788	24.62
673.976	23.98
674.163	24.54
674.35	24.66
674.538	24.71
674.725	24.66
674.912	24.28
675.1	24.3
675.287	24.17
675.474	24.01
675.662	23.94
675.849	23.81
676.036	23.78
676.223	23.62
676.411	23.64
676.598	23.41
676.785	23.65
676.972	24.03
677.159	23.97
677.346	24.15
677.533	24.02
677.721	24.17
677.908	24.11
678.095	24.54
678.282	24.4
678.469	24.29
678.656	24.36
678.843	24.29
679.03	23.87
679.217	24.07
679.404	23.89
679.591	24
679.778	23.79
679.964	23.88
680.151	23.55
680.338	23.61
680.525	23.6
680.712	23.73
680.899	24.11
681.086	24.37
681.272	24.21
681.459	24.44
681.646	24.36
681.833	24.3
682.02	24.45
682.206	24.44
682.393	24.13
682.58	24.61
682.766	24.63
682.953	24.58
683.14	24.59
683.326	24.68
683.513	24.6
683.7	24.9
683.886	25.21
684.073	25.41
684.259	25.8
684.446	26.2
684.632	25.63
684.819	25.6
685.005	25.87
685.192	26.11
685.378	26.23
685.565	26.28
685.751	26.24
685.938	25.87
686.124	26.05
686.31	26.3
686.497	26.14
686.683	26.42
686.87	26.78
687.056	26.48
687.242	26.35
687.429	26.47
687.615	26.3
687.801	25.92
687.987	26.05
688.174	26.04
688.36	25.68
688.546	25.58
688.732	25.63
688.918	25.21
689.105	25.05
689.291	25
689.477	24.99
689.663	24.84
689.849	25.1
690.035	25.34
690.221	25.09
690.407	25.18
690.593	25.36
690.779	25.46
690.965	25.46
691.151	25.47
691.337	25.45
691.523	25.4
691.709	26.17
691.895	26.29
692.081	26.58
692.267	26.75
692.453	27.01
692.639	27.21
692.825	27.16
693.011	27.43
693.196	27.36
693.382	27.59
693.568	27.51
693.754	27.01
693.94	27.21
694.125	27.3
694.311	27.09
694.497	26.77
694.682	26.57
694.868	26.43
695.054	26.01
695.239	26.11
695.425	25.94
695.611	25.94
695.796	25.74
695.982	25.44
696.168	25.15
696.353	24.9
696.539	24.87
696.724	24.72
696.91	24.73
697.095	25.11
697.281	25.11
697.466	25.37
697.652	25.38
697.837	25.42
698.023	25.45
698.208	25.02
698.393	25.09
698.579	25.24
698.764	25.53
698.949	25.44
699.135	25.2
699.32	25.27
699.505	24.97
699.691	25.02
699.876	25.29
700.061	25.36
700.246	25.55
700.432	25.62
700.617	25.42
700.802	25.42
700.987	25.65
701.172	25.17
701.358	25.28
701.543	25.56
701.728	25.64
701.913	25.31
702.098	25.53
702.283	25.81
702.468	25.8
702.653	26.06
702.838	26.24
703.023	26.36
703.208	26.98
703.393	26.64
703.578	26.93
703.763	27.19
703.948	27.78
704.133	27.83
704.318	28.19
704.503	29.01
704.688	30.04
704.873	29.84
705.057	30.11
705.242	30.64
705.427	31.24
705.612	31.5
705.797	31.68
705.981	31.59
706.166	31.89
706.351	32.1
706.536	32.03
706.72	31.71
706.905	32.29
707.09	32.02
707.274	32.31
707.459	32.41
707.644	32.34
707.828	32.38
708.013	32.38
708.197	31.76
708.382	31.44
708.567	31.62
708.751	31.37
708.936	31.14
709.12	31.43
709.305	31.22
709.489	31.31
709.673	30.57
709.858	30.39
710.042	30.54
710.227	31.01
710.411	31.22
710.596	30.89
710.78	30.81
710.964	30.38
711.149	30.06
711.333	29.68
711.517	29.71
711.702	30.21
711.886	30.17
712.07	30.42
712.254	30.12
712.438	29.8
712.623	29.69
712.807	29.49
712.991	29.46
713.175	29.51
713.359	29.62
713.544	29.5
713.728	29.18
713.912	29
714.096	28.09
714.28	27.77
714.464	27.8
714.648	27.82
714.832	27.76
715.016	28
715.2	27.53
715.384	27.77
715.568	27.64
715.752	27.78
715.936	27.47
716.12	27.01
716.304	27.19
716.488	26.68
716.671	26.61
716.855	26.13
717.039	25.63
717.223	26.29
717.407	26.25
717.59	25.83
717.774	26.15
717.958	26.22
718.142	26.79
718.325	27.04
718.509	27.67
718.693	27.68
718.877	28.24
719.06	28.52
719.244	28.18
719.428	28.07
719.611	28.75
719.795	27.84
719.978	27.94
720.162	28.64
720.345	27.93
720.529	27.91
720.713	27.85
720.896	27.89
721.08	28.03
721.263	28.41
721.446	28.2
721.63	27.73
721.813	28.31
721.997	27.94
722.18	27.21
722.364	28.01
722.547	28.41
722.73	28.16
722.914	27.87
723.097	27.69
723.28	26.87
723.464	26.86
723.647	26.47
723.83	26.82
724.013	26.79
724.197	27.18
724.38	26.86
724.563	26.16
724.746	26.09
724.929	26.59
725.112	26.61
725.296	27.68
725.479	27.88
725.662	28.69
725.845	28.12
726.028	28.55
726.211	28.16
726.394	28.24
726.577	28.87
726.76	29.05
726.943	29.17
727.126	29.19
727.309	28.68
727.492	28.3
727.675	28.03
727.858	28.44
728.041	28.04
728.224	28.29
728.407	27.94
728.589	27.25
728.772	27.07
728.955	26.37
729.138	26.41
729.321	26.02
729.503	26.94
729.686	27.06
729.869	26.7
730.052	27.25
730.234	27.19
730.417	27.35
730.6	27.64
730.782	28.52
730.965	28.59
731.148	28.7
731.33	29.36
731.513	29.08
731.695	28.6
731.878	29.09
732.061	28.51
732.243	28.95
732.426	29.3
732.608	29.5
732.791	29.17
732.973	29.45
733.156	29.14
733.338	28.94
733.52	28.82
733.703	29.18
733.885	28.85
734.068	29.13
734.25	28.85
734.432	28.79
734.615	29.35
734.797	29.45
734.979	29.55
735.162	29.8
735.344	30.13
735.526	29.76
735.708	30.02
735.891	29.97
736.073	30.09
736.255	29.92
736.437	29.85
736.619	28.99
736.802	28.1
736.984	28.13
737.166	27.81
737.348	27.42
737.53	27.49
737.712	27.48
737.894	27.84
738.076	27.49
738.258	27.74
738.44	26.91
738.622	27.46
738.804	28.45
738.986	27.8
739.168	28.84
739.35	28.88
739.532	28.6
739.714	28.65
739.896	27.63
740.078	28.69
740.259	28.42
740.441	29.53
740.623	28.69
740.805	28.44
740.987	29.26
741.168	28.92
741.35	28.69
741.532	29.34
741.714	29.03
741.895	29.92
742.077	29.44
742.259	29.87
742.44	30.07
742.622	30.65
742.804	30.44
742.985	30.66
743.167	30.33
743.348	30.51
743.53	29.95
743.711	30.18
743.893	29.92
744.075	30.25
744.256	30.06
744.438	29.76
744.619	29.98
744.8	29.64
744.982	29.11
745.163	29.42
745.345	29.59
745.526	29.84
745.707	29.73
745.889	30.68
746.07	30.71
746.252	29.96
746.433	30.32
746.614	30.19
746.795	31.31
746.977	30.89
747.158	30.68
747.339	30.45
747.52	31.67
747.702	31.18
747.883	30.56
748.064	30.51
748.245	31.05
748.426	30.79
748.607	31.04
748.788	30.38
748.97	31.26
749.151	31.31
749.332	31.23
749.513	29.68
749.694	29.64
749.875	30.11
750.056	29.87
750.237	30.3
750.418	31.32
750.599	31.3
750.78	31.41
750.96	31.45
751.141	31.53
751.322	31.69
751.503	32.49
751.684	33.13
751.865	33.43
752.046	32.72
752.226	32.27
752.407	30.88
752.588	30.92
752.769	31.11
752.949	30.85
753.13	31.17
753.311	30.94
753.492	31.29
753.672	32.01
753.853	31.06
754.034	32.1
754.214	33.05
754.395	32.54
754.575	31
754.756	31.65
754.937	31.81
755.117	31.1
755.298	31.71
755.478	31.53
755.659	30.55
755.839	31.43
756.02	31.44
756.2	30.92
756.381	32.29
756.561	33.6
756.741	32.41
756.922	32.8
757.102	33.46
757.283	33.07
757.463	32.67
757.643	33.65
757.823	32.53
758.004	32.32
758.184	31.47
758.364	31.16
758.545	30.87
758.725	30.89
758.905	30.74
759.085	29.83
759.265	29.34
759.446	29.71
759.626	28.62
759.806	29.38
759.986	29.75
760.166	30.36
760.346	29.97
760.526	30.48
760.706	30.2
760.886	29.27
761.066	29.69
761.246	30.57
761.426	30.53
761.606	30.87
761.786	30.62
761.966	30.3
762.146	30.64
762.326	30.99
762.506	30.55
762.686	30.6
762.866	31.21
763.046	30.48
763.225	30.17
763.405	29.6
763.585	29.18
763.765	28.88
763.945	28.92
764.124	28.44
764.304	27.92
764.484	28.4
764.664	28.94
764.843	28.98
765.023	29.59
765.203	29.74
765.382	30.69
765.562	31.34
765.741	31.75
765.921	32.25
766.101	32.3
766.28	32.92
766.46	32.51
766.639	32.57
766.819	31.83
766.998	31.91
767.178	32.65
767.357	32.87
767.537	32.82
767.716	32.58
767.896	31.77
768.075	31.29
768.254	31.05
768.434	31.3
768.613	30.9
768.792	31.74
768.972	32.55
769.151	31.76
769.33	31.07
769.51	30.56
769.689	31.15
769.868	30.99
770.047	32.51
770.226	32.84
770.406	32.52
770.585	32.17
770.764	32.46
770.943	31.15
771.122	30.79
771.301	30.71
771.48	31.59
771.66	32.35
771.839	32.28
772.018	31.99
772.197	30.33
772.376	30.64
772.555	30.33
772.734	29.7
772.913	29.96
773.092	30.03
773.271	29.3
773.449	29.51
773.628	28.28
773.807	28.4
773.986	27.55
774.165	28.61
774.344	29.53
774.523	30.79
774.701	30.72
774.88	30.97
775.059	31.54
775.238	32.1
775.417	30.35
775.595	30.59
775.774	31.17
775.953	31.65
776.131	32.3
776.31	31.55
776.489	30.36
776.667	30.25
776.846	31.01
777.025	30.89
777.203	31.35
777.382	32.74
777.56	31.69
777.739	31.83
777.917	32.21
778.096	32.41
778.274	31.32
778.453	32.5
778.631	32.62
778.81	31.52
778.988	31.94
779.166	31.7
779.345	31.78
779.523	32.64
779.702	32.15
779.88	31.79
780.058	31.77
780.237	33.31
780.415	31.69
780.593	30.91
780.771	31.97
780.95	31.47
781.128	31.22
781.306	30.17
781.484	30.78
781.662	30.92
781.841	31.82
782.019	31.65
782.197	30.26
782.375	31.24
782.553	32.19
782.731	31.37
782.909	31.29
783.087	31.93
783.265	32.76
783.443	31.89
783.621	32.41
783.799	31.59
783.977	32.39
784.155	32.93
784.333	33.08
784.511	32.51
784.689	33.17
784.867	34.39
785.045	34.53
785.223	34.5
785.4	34.58
785.578	34.29
785.756	35.02
785.934	34.74
786.112	34.69
786.289	33.13
786.467	34.09
786.645	34.27
786.823	33.44
787	32.04
787.178	32.71
787.356	32.9
787.533	32.64
787.711	32.87
787.889	32.2
788.066	30.94
788.244	32.52
788.421	32.02
788.599	31.72
788.776	32.42
788.954	32.58
789.131	32
789.309	31.61
789.486	31.61
789.664	30.61
789.841	30.74
790.019	31.94
790.196	31.82
790.373	32.38
790.551	30.92
790.728	30.87
790.906	31.57
791.083	31.2
791.26	32.18
791.437	32.6
791.615	33.23
791.792	33.6
791.969	32.96
792.146	33.17
792.324	32.49
792.501	33.87
792.678	32.33
792.855	32.27
793.032	31.64
793.209	30.53
793.387	30.14
793.564	29.46
793.741	28.59
793.918	29.7
794.095	30.51
794.272	31.56
794.449	32.72
794.626	33.26
794.803	32.4
794.98	35.53
795.157	35.99
795.334	36.74
795.511	37.93
795.688	37.6
795.864	36.97
796.041	35.65
796.218	35.24
796.395	33.31
796.572	32.95
796.749	35.1
796.925	33.86
797.102	34.48
797.279	34.11
797.456	32.37
797.632	32.89
797.809	33.24
797.986	33.26
798.162	33.71
798.339	35.04
798.516	35.76
798.692	33.12
798.869	32.93
799.046	31.3
799.222	31.36
799.399	31.31
799.575	30.55
799.752	31.98
799.928	31.59
800.105	30.14
800.281	29.3
800.458	28.36
800.634	29.92
800.811	28.93
800.987	31.3
801.163	31.94
801.34	32.37
801.516	33.45
801.692	32.32
801.869	33.2
802.045	33.47
802.221	34.93
802.398	35.66
802.574	35.49
802.75	35.2
802.926	33.96
803.103	32.72
803.279	32.64
803.455	31.9
803.631	30.04
803.807	29.34
803.983	29.43
804.16	28.21
804.336	27.51
804.512	28.39
804.688	28.32
804.864	28.73
805.04	29.84
805.216	28.48
805.392	29.15
805.568	29.07
805.744	29.3
805.92	29.34
806.096	30.08
806.272	29.59
806.448	27
806.623	27.86
806.799	26.87
806.975	26.32
807.151	28.13
807.327	29.17
807.503	29.54
807.678	29.19
807.854	29.31
808.03	29.23
808.206	30.49
808.381	30.52
808.557	30.73
808.733	31.53
808.908	31.48
809.084	30.74
809.26	30.31
809.435	30.89
809.611	30.42
809.787	31.91
809.962	30.66
810.138	30.96
810.313	33.24
810.489	32.71
810.664	32.94
810.84	32.78
811.015	33.04
811.191	32.54
811.366	34.34
811.542	35.44
811.717	34.7
811.892	35.38
812.068	35.55
812.243	35.39
812.419	35.75
812.594	34.37
812.769	34.21
812.944	35.26
813.12	36.99
813.295	34.63
813.47	34.34
813.645	33.76
813.821	34.19
813.996	32
814.171	31.19
814.346	28.8
814.521	30.03
814.697	31.25
814.872	31.6
815.047	29.89
815.222	30.16
815.397	28.79
815.572	29.98
815.747	31.41
815.922	30.99
816.097	31
816.272	32.76
816.447	32
816.622	30.62
816.797	28.28
816.972	28.74
817.147	30.46
817.322	31.88
817.496	30.32
817.671	28.23
817.846	29.75
818.021	29.7
818.196	29.04
818.371	28.51
818.545	29.26
818.72	30.1
818.895	29.16
819.069	27.69
819.244	27.66
819.419	29.21
819.594	30.15
819.768	29.96
819.943	30.56
820.117	30.69
820.292	30.59
820.467	30.37
820.641	31.48
820.816	32.19
820.99	31.64
821.165	31.73
821.339	31.46
821.514	31.29
821.688	30.93
821.863	30.59
822.037	30.68
822.212	30.91
822.386	31.37
822.56	30.85
822.735	30.51
822.909	30.92
823.084	30.76
823.258	30.62
823.432	30.65
823.606	30.98
823.781	30.96
823.955	31.13
824.129	30.73
824.303	30.31
824.478	30.4
824.652	30.75
824.826	30.75
825	30.9
825.174	30.8
825.348	30.57
825.523	30.97
825.697	30.99
825.871	30.82
826.045	31.7
826.219	31.57
826.393	31.87
826.567	32.13
826.741	31.69
826.915	31.7
827.089	31.93
827.263	31.85
827.437	31.74
827.611	31.97
827.784	31.89
827.958	31.97
828.132	31.78
828.306	31.99
828.48	31.31
828.654	31.24
828.827	31.15
829.001	31.44
829.175	32.33
829.349	30.56
829.522	30.96
829.696	31.18
829.87	31.39
830.044	32.09
830.217	32.32
830.391	31.56
830.565	32.41
830.738	32.08
830.912	31.01
831.085	30.36
831.259	32.76
831.432	31.98
831.606	31.87
831.779	30.17
831.953	29.06
832.126	28.22
832.3	30.82
832.473	30.15
832.647	30.51
832.82	31.13
832.994	31.22
833.167	31.47
833.34	31.19
833.514	30.7
833.687	30.93
833.86	31.08
834.034	30.49
834.207	30.34
834.38	30.81
834.553	30.98
834.727	30.69
834.9	29.89
835.073	28.82
835.246	28.23
835.419	28.93
835.593	28.7
835.766	28.53
835.939	29.84
836.112	29.73
836.285	28.18
836.458	27.12
836.631	26.62
836.804	27.09
836.977	26.31
837.15	27.2
837.323	26.53
837.496	27.74
837.669	29.62
837.842	29.3
838.015	27.65
838.188	29.16
838.361	30.98
838.533	33.65
838.706	31.36
838.879	33.7
839.052	34.8
839.225	34.02
839.398	33.13
839.57	30.86
839.743	30.57
839.916	30.1
840.088	31.31
840.261	30.34
840.434	31.4
840.607	35.12
840.779	32.12
840.952	31.71
841.124	31.12
841.297	31.77
841.47	31.72
841.642	31.91
841.815	34.42
841.987	32.42
842.16	34.24
842.332	32.46
842.505	29.42
842.677	32.43
842.85	34.6
843.022	35.54
843.194	33.59
843.367	32.91
843.539	30.9
843.712	30.19
843.884	31.78
844.056	31.16
844.229	30.16
844.401	31.91
844.573	30.52
844.745	29.67
844.918	33.76
845.09	38.15
845.262	42.06
845.434	43.53
845.606	42.1
845.779	45.83
845.951	45.86
846.123	45.55
846.295	49.6
846.467	48.83
846.639	48.24
846.811	44.94
846.983	41.27
847.155	41.73
847.327	42.88
847.499	41.47
847.671	41.14
847.843	42.91
848.015	42.98
848.187	38.78
848.359	39.96
848.531	42.96
848.703	39.67
848.875	45.67
849.047	44.17
849.218	42.02
849.39	40.43
849.562	36.1
849.734	34.89
849.905	37.64
850.077	39.3
850.249	41.96
850.421	37.2
850.592	36.34
850.764	33.59
850.936	34.68
851.107	34.6
851.279	33.49
851.451	36.63
851.622	34.11
851.794	28.55
851.965	32.23
852.137	33.23
852.308	38.62
852.48	43.8
852.651	43.98
852.823	44
852.994	40.7
853.166	46.85
853.337	41.79
853.509	45.39
853.68	46.28
853.851	39.85
854.023	34.48
854.194	27.63
854.365	29.27
854.537	28.88
854.708	27.83
854.879	33.04
855.05	31.89
855.222	31.02
855.393	36.01
855.564	36.75
855.735	40.61
855.906	41.21
856.078	43
856.249	38.49
856.42	39.45
856.591	38.38
856.762	31.8
856.933	27.94
857.104	30.95
857.275	20.27
857.446	17
857.617	7.94
857.788	16.65
857.959	17.37
858.13	17.8
858.301	19.08
858.472	23.51
858.643	21.33
858.814	23.55
858.985	22.56
859.155	24
859.326	28.89
859.497	28.44
859.668	20.03
859.839	16.83
860.009	15.87
860.18	16.28
860.351	11.62
860.522	19.13
860.692	21.53
860.863	23.19
861.034	25.19
861.204	23.34
861.375	29.07
861.546	33.58
861.716	35.27
861.887	42.68
862.057	39.76
862.228	38.42
862.398	40.6
862.569	38.73
862.739	39.24
862.91	37.08
863.08	40.3
863.251	38.37
863.421	35.47
863.592	41.56
863.762	37.95
863.932	36.75
864.103	40.33
864.273	40.46
864.443	40.91
864.614	37.41
864.784	38.98
864.954	36.85
865.125	32.57
865.295	34.59
865.465	29.85
865.635	29.73
865.805	29.52
865.976	21.03
866.146	25.18
866.316	22.49
866.486	25.91
866.656	25.01
866.826	22.26
866.996	24.19
867.166	30.45
867.336	26.89
867.506	30.53
867.676	34.92
867.846	39.1
868.016	31.28
868.186	36.35
868.356	34.31
868.526	36.3
868.696	41.44
868.866	41.04
869.036	35.09
869.206	36.95
869.376	33.54
869.545	32.03
869.715	32.11
869.885	36.76
870.055	34.45
870.224	37.64
870.394	35.1
870.564	30.44
870.734	29.84
870.903	24.76
871.073	25.93
871.243	27.07
871.412	24.18
871.582	24.85
871.751	21.25
871.921	18.22
872.091	14.81
872.26	14.71
872.43	17.67
872.599	14.09
872.769	18.47
872.938	18.01
873.108	21.56
873.277	27.29
873.446	20.71
873.616	25.64
873.785	22.79
873.955	25.3
874.124	26.05
874.293	23.33
874.463	25.82
874.632	30.14
874.801	30.53
874.971	28.84
875.14	24.29
875.309	30.32
875.478	28.28
875.647	23.31
875.817	22.41
875.986	24.79
876.155	28.96
876.324	30.4
876.493	31.07
876.662	27.9
876.831	24.1
877	32.28
877.17	35.05
877.339	30.08
877.508	36.25
877.677	30.67
877.846	32.59
878.015	31.41
878.184	28.32
878.352	23.06
878.521	27.88
878.69	28.71
878.859	23.84
879.028	19.23
879.197	20.7
879.366	22.75
879.534	28.93
879.703	26.34
879.872	25.56
880.041	25.31
880.21	26.29
880.378	27.95
880.547	27.88
880.716	29.06
880.884	29.48
881.053	29.46
881.222	28.08
881.39	26.56
881.559	26.45
881.727	26.51
881.896	27.26
882.065	27.11
882.233	25.99
882.402	24.96
882.57	24.91
882.739	24.58
882.907	24.39
883.076	24.89
883.244	25.61
883.412	25.72
883.581	25.59
883.749	25.39
883.918	24.5
884.086	23.73
884.254	23.96
884.423	25.13
884.591	24.77
884.759	24.41
884.927	24.15
885.096	22.77
885.264	22.45
885.432	21.56
885.6	20.86
885.769	24.55
885.937	26.99
886.105	28.2
886.273	24.25
886.441	19.65
886.609	21.5
886.777	19.25
886.945	17.82
887.113	18.4
887.281	15.74
887.449	13.85
887.617	12.28
887.785	10.91
887.953	8.88
888.121	9.79
888.289	15.38
888.457	10.37
888.625	10.96
888.793	10.86
888.961	10.24
889.129	13.85
889.296	17.07
889.464	13.2
889.632	9.69
889.8	13.01
889.967	6.65
890.135	11.62
