Data from 2938817__Reflection_02.txt Node
Date: Thu Mar 12 15:08:34 EDT 2015
User: robert
Spectrometer: USB4E03002
Autoset integration time: false
Trigger mode: 4
Integration Time (sec): 1.000000E-1
Scans to average: 10
Electric dark correction enabled: false
Nonlinearity correction enabled: false
Boxcar width: 5
Stray light correction enabled: false
XAxis mode: Wavelengths
Stop averaging: false
Number of Pixels in Spectrum: 3648
>>>>>Begin Spectral Data<<<<<
177.575	230.95
177.794	-29.23
178.014	-0.81
178.233	-341.94
178.452	234.62
178.672	-661.29
178.891	-161.26
179.11	-238.34
179.33	-346.39
179.549	-385.81
179.768	-2863.64
179.987	-1717.86
180.207	-216.36
180.426	768.75
180.645	-490.72
180.864	-438.14
181.084	1017.19
181.303	380.57
181.522	2109.37
181.741	0
181.96	17275
182.179	-2866.67
182.398	-1820
182.618	1073.68
182.837	-1358.11
183.056	-1510.17
183.275	-1365.57
183.494	-2781.82
183.713	1770.49
183.932	702.76
184.151	695.3
184.37	313.87
184.589	264.49
184.808	202.67
185.027	161.6
185.246	159.77
185.465	146.51
185.684	156.13
185.903	150.46
186.122	151.37
186.341	163.35
186.56	174.42
186.779	165.44
186.998	206.94
187.216	210.55
187.435	279.3
187.654	230.72
187.873	340.91
188.092	285.23
188.311	194.61
188.53	183.1
188.748	164.97
188.967	175.26
189.186	332.89
189.405	177.01
189.623	198.81
189.842	226.63
190.061	235.28
190.28	237.46
190.498	258.5
190.717	584.94
190.936	827.5
191.154	562.57
191.373	443
191.592	601.71
191.81	-22600
192.029	-223.53
192.248	-82.57
192.466	-17.7
192.685	-78.11
192.904	-56.62
193.122	-14.78
193.341	-8.33
193.559	12.68
193.778	-29.06
193.996	-566.15
194.215	1281.58
194.433	295.91
194.652	185.74
194.87	186.67
195.089	178.08
195.307	237.12
195.526	165.03
195.744	130.15
195.963	123.66
196.181	116.33
196.399	111.5
196.618	146.29
196.836	175.8
197.055	342.67
197.273	257.78
197.491	264.52
197.71	160.52
197.928	184.9
198.146	208.42
198.365	329.77
198.583	366.14
198.801	428.99
199.019	470.21
199.238	343.96
199.456	248.59
199.674	323.15
199.892	310.98
200.111	375.93
200.329	302.22
200.547	257.61
200.765	233.58
200.983	215.65
201.202	186.77
201.42	174.39
201.638	200.76
201.856	248.2
202.074	201.64
202.292	200.42
202.51	367.62
202.728	385.71
202.946	495.58
203.165	314.16
203.383	302.11
203.601	337.62
203.819	504.19
204.037	398.19
204.255	253.39
204.473	318.05
204.691	1140.91
204.909	217.38
205.127	235.69
205.345	198.13
205.562	150.96
205.78	172.36
205.998	151.66
206.216	122.99
206.434	119.54
206.652	115.81
206.87	98.8
207.088	94.16
207.306	95.05
207.523	88.5
207.741	78.28
207.959	98.7
208.177	85.25
208.395	95.51
208.612	90.38
208.83	98.88
209.048	122.34
209.266	122.24
209.483	85.73
209.701	87.51
209.919	97.58
210.136	98.38
210.354	96.02
210.572	107.41
210.79	100.7
211.007	110.51
211.225	96.21
211.442	83.72
211.66	84.64
211.878	86.39
212.095	12.29
212.313	21.5
212.53	36
212.748	24.69
212.966	12.61
213.183	16.15
213.401	14.07
213.618	19.73
213.836	25
214.053	28.11
214.271	29.37
214.488	137.23
214.705	127.55
214.923	110.89
215.14	116.68
215.358	118.75
215.575	129.3
215.793	119.84
216.01	109.22
216.227	101.93
216.445	93.08
216.662	87.56
216.879	80.89
217.097	74.9
217.314	78.72
217.531	84.75
217.749	83.27
217.966	70.32
218.183	66.75
218.4	69.02
218.618	76.46
218.835	75.93
219.052	78.77
219.269	79.64
219.487	72.79
219.704	71.79
219.921	66.9
220.138	62.61
220.355	70.05
220.572	69.3
220.79	70.41
221.007	62.45
221.224	66.01
221.441	61.56
221.658	55.26
221.875	56.21
222.092	43.92
222.309	39.83
222.526	41.16
222.743	35.51
222.96	36.24
223.177	37.09
223.394	32.14
223.611	27.11
223.828	27.68
224.045	30.02
224.262	28.54
224.479	29.22
224.696	30.51
224.913	34.1
225.13	32.13
225.347	29.96
225.564	26.05
225.781	26.65
225.997	26.22
226.214	23.29
226.431	20.9
226.648	21.16
226.865	21.26
227.082	18.16
227.298	13.02
227.515	12.33
227.732	11.42
227.949	10.19
228.165	9.25
228.382	8.9
228.599	9.04
228.816	8.42
229.032	7.01
229.249	6.24
229.466	7.07
229.682	7.77
229.899	8.35
230.116	7.87
230.332	8.56
230.549	9.55
230.765	9.62
230.982	9.9
231.199	9.93
231.415	11.63
231.632	11.94
231.848	11.05
232.065	11.59
232.281	11.22
232.498	12.32
232.714	11.88
232.931	11.61
233.147	12.41
233.364	11.1
233.58	12.05
233.797	11.27
234.013	11.58
234.23	10.91
234.446	9.43
234.662	7.37
234.879	6.52
235.095	5.43
235.312	4.48
235.528	4.29
235.744	5.21
235.961	5.96
236.177	5.98
236.393	6.64
236.61	7.1
236.826	8.82
237.042	9.93
237.258	10.01
237.475	11.69
237.691	11.32
237.907	10.35
238.123	10.32
238.339	9.24
238.556	10.37
238.772	9.98
238.988	11.6
239.204	10.43
239.42	11.91
239.636	13.1
239.853	11.56
240.069	11.77
240.285	11.74
240.501	10.78
240.717	10.68
240.933	10.21
241.149	8.66
241.365	7.75
241.581	8.33
241.797	8.15
242.013	7.15
242.229	7.51
242.445	6.68
242.661	6.39
242.877	6.43
243.093	5.68
243.309	5.75
243.525	6.71
243.741	7.22
243.957	6.58
244.173	6.03
244.388	6.51
244.604	6.15
244.82	6.56
245.036	6.94
245.252	6.18
245.468	6.86
245.683	6.31
245.899	5.8
246.115	5.67
246.331	5.59
246.547	5.4
246.762	5.41
246.978	5.35
247.194	5.55
247.409	5.16
247.625	5.53
247.841	5.15
248.057	5.06
248.272	4.91
248.488	4.59
248.703	4.1
248.919	4.33
249.135	4.22
249.35	4.09
249.566	3.87
249.782	4.63
249.997	4.42
250.213	5.12
250.428	4.85
250.644	4.57
250.859	4.56
251.075	5.75
251.29	5.23
251.506	5.4
251.721	5.28
251.937	6.31
252.152	5.56
252.368	5.82
252.583	5.81
252.798	5.87
253.014	6.31
253.229	6.52
253.445	6.58
253.66	6.92
253.875	7.14
254.091	7.32
254.306	7.1
254.521	7.5
254.737	8.05
254.952	7.28
255.167	7.11
255.383	6.88
255.598	7.03
255.813	6.39
256.028	5.46
256.244	5.2
256.459	5.79
256.674	4.63
256.889	5.14
257.104	4.48
257.32	5.33
257.535	5.64
257.75	6.14
257.965	5.8
258.18	5.83
258.395	5.85
258.61	5.12
258.826	4.72
259.041	4.57
259.256	4.38
259.471	4.31
259.686	4.12
259.901	4.19
260.116	3.81
260.331	3.74
260.546	3.68
260.761	3.95
260.976	4.35
261.191	4.42
261.406	4.38
261.621	4.2
261.836	4.3
262.05	4.1
262.265	4.25
262.48	4.88
262.695	5.02
262.91	5.23
263.125	4.63
263.34	4.23
263.555	4.77
263.769	5.28
263.984	5.65
264.199	5.81
264.414	6.51
264.629	6.48
264.843	5.6
265.058	6.36
265.273	6.1
265.488	6.62
265.702	6.72
265.917	6
266.132	5.72
266.346	5.56
266.561	5.07
266.776	4.41
266.99	3.84
267.205	5.02
267.42	4.76
267.634	4.86
267.849	4.38
268.063	3.86
268.278	3.78
268.492	3.85
268.707	3.75
268.922	3.23
269.136	3.15
269.351	3.47
269.565	2.19
269.78	1.93
269.994	2.03
270.209	2.06
270.423	2.36
270.637	2.82
270.852	2.55
271.066	2.48
271.281	2.62
271.495	3.02
271.709	2.64
271.924	3.1
272.138	2.91
272.353	2.34
272.567	2.48
272.781	3.01
272.996	3.03
273.21	3.14
273.424	3.27
273.638	3.36
273.853	3.63
274.067	4.04
274.281	3.9
274.495	4.07
274.71	4.18
274.924	4.2
275.138	3.63
275.352	3.87
275.566	3.85
275.781	3.94
275.995	3.89
276.209	3.25
276.423	3.23
276.637	3.24
276.851	3.22
277.065	3.79
277.279	3.82
277.493	4.08
277.707	3.53
277.921	3.09
278.135	3.12
278.349	3.34
278.563	3.6
278.777	3.84
278.991	3.79
279.205	3.95
279.419	3.41
279.633	3.49
279.847	3.51
280.061	3.58
280.275	3.71
280.489	3.27
280.703	3.76
280.917	3.69
281.131	3.2
281.344	3.29
281.558	3.15
281.772	3.51
281.986	3.58
282.2	3.36
282.414	3.33
282.627	3.76
282.841	3.94
283.055	3.4
283.269	3.96
283.482	4.23
283.696	3.75
283.91	3.56
284.123	3.3
284.337	3.2
284.551	3.11
284.764	3.31
284.978	3.08
285.192	3.18
285.405	2.84
285.619	2.38
285.833	2.5
286.046	2.51
286.26	2.63
286.473	2.96
286.687	2.97
286.9	3.5
287.114	3.24
287.327	3.38
287.541	3.24
287.754	3.92
287.968	4.27
288.181	3.91
288.395	4.5
288.608	4.33
288.822	4.25
289.035	3.98
289.248	3.53
289.462	3.6
289.675	3.84
289.889	3.99
290.102	3.94
290.315	3.87
290.529	4.19
290.742	4.11
290.955	4.08
291.169	3.85
291.382	4.34
291.595	4.38
291.808	4.45
292.022	4.16
292.235	4.02
292.448	4.37
292.661	4.23
292.875	4.15
293.088	4.01
293.301	4.47
293.514	4.44
293.727	4.17
293.94	4.5
294.153	4.9
294.367	5.35
294.58	5.64
294.793	5.35
295.006	5.63
295.219	5.74
295.432	6.03
295.645	5.89
295.858	5.98
296.071	5.85
296.284	5.71
296.497	5.78
296.71	5.54
296.923	5.27
297.136	5.26
297.349	5.27
297.562	5.27
297.775	5.15
297.988	5.32
298.201	5.45
298.414	5.55
298.626	5.65
298.839	5.52
299.052	5.99
299.265	6.56
299.478	7.04
299.691	6.97
299.903	7.07
300.116	7.42
300.329	7.62
300.542	8.06
300.755	8.3
300.967	8.38
301.18	8.27
301.393	7.61
301.605	7.51
301.818	7.3
302.031	7.36
302.243	7.57
302.456	7.75
302.669	7.8
302.881	8.03
303.094	8.23
303.307	8.33
303.519	8.18
303.732	8.63
303.944	8.93
304.157	8.69
304.37	8.79
304.582	8.99
304.795	8.82
305.007	8.79
305.22	8.43
305.432	8.53
305.645	8.54
305.857	9.15
306.069	9.19
306.282	9.04
306.494	9.42
306.707	9.96
306.919	9.72
307.132	9.9
307.344	10.07
307.556	10.54
307.769	10.26
307.981	10.27
308.193	10.09
308.406	10.16
308.618	10.27
308.83	10.28
309.043	9.89
309.255	10.09
309.467	9.97
309.679	10.08
309.892	9.69
310.104	9.55
310.316	9.63
310.528	9.44
310.74	9.5
310.953	9.3
311.165	9.33
311.377	9.31
311.589	9.14
311.801	9.15
312.013	8.91
312.225	9.01
312.437	9.09
312.649	9.07
312.862	9.58
313.074	9.82
313.286	10.14
313.498	10.16
313.71	10.12
313.922	10.22
314.134	10.26
314.346	10.46
314.558	10.67
314.77	10.87
314.982	11.19
315.193	11.15
315.405	10.91
315.617	10.75
315.829	10.65
316.041	10.91
316.253	11.03
316.465	11.15
316.677	11
316.888	10.84
317.1	11.34
317.312	11.16
317.524	11.26
317.736	11.39
317.947	11.58
318.159	11.31
318.371	11.79
318.583	12.18
318.794	12.38
319.006	12.84
319.218	12.7
319.43	12.38
319.641	12.26
319.853	12.07
320.064	12.07
320.276	12.06
320.488	12.8
320.699	12.46
320.911	12.33
321.123	12.34
321.334	12.68
321.546	13.44
321.757	13.45
321.969	13.48
322.18	13.68
322.392	13.84
322.603	14.19
322.815	14.59
323.026	14.99
323.238	15.12
323.449	15.36
323.661	14.58
323.872	14.85
324.083	15.52
324.295	16.07
324.506	16.13
324.718	16.09
324.929	16.23
325.14	16.07
325.352	15.85
325.563	15.66
325.774	16.07
325.986	16.64
326.197	16.68
326.408	16.61
326.62	16.52
326.831	16.75
327.042	17.34
327.253	17.57
327.464	17.61
327.676	18.19
327.887	19.28
328.098	19.3
328.309	19.91
328.52	19.93
328.732	20.33
328.943	20.85
329.154	21.44
329.365	21.72
329.576	22.06
329.787	22.94
329.998	23.23
330.209	23.15
330.42	23.74
330.631	23.92
330.842	24.51
331.053	25.01
331.264	25.61
331.475	25.92
331.686	26.06
331.897	26.03
332.108	26.22
332.319	26.35
332.53	26.37
332.741	26.53
332.952	26.98
333.163	27.08
333.374	27.34
333.585	27.37
333.795	27.25
334.006	27.58
334.217	28.25
334.428	28.36
334.639	28.2
334.849	28.46
335.06	28.29
335.271	28.29
335.482	28.94
335.692	28.87
335.903	29.07
336.114	29.38
336.325	29.24
336.535	29.2
336.746	29.17
336.957	29.74
337.167	29.8
337.378	30.21
337.589	30.17
337.799	29.75
338.01	29.96
338.22	30.08
338.431	30.38
338.642	30.54
338.852	30.26
339.063	30.66
339.273	30.58
339.484	30.84
339.694	30.84
339.905	30.79
340.115	30.67
340.326	30.6
340.536	30.39
340.746	30.24
340.957	30.12
341.167	30.27
341.378	30.21
341.588	30.21
341.799	29.82
342.009	29.46
342.219	29.53
342.43	29.82
342.64	29.31
342.85	29.39
343.061	29.25
343.271	29.26
343.481	29.34
343.691	29.05
343.902	29.09
344.112	29.37
344.322	29.47
344.532	29.51
344.743	29.19
344.953	29.62
345.163	29.29
345.373	29.29
345.583	29.26
345.793	29.28
346.004	29.37
346.214	29.3
346.424	29.27
346.634	29.35
346.844	29.32
347.054	29.4
347.264	29.04
347.474	29.28
347.684	29.45
347.894	29.44
348.104	29.15
348.314	29.12
348.524	29.15
348.734	29.09
348.944	28.91
349.154	28.48
349.364	28.82
349.574	29.21
349.784	29.11
349.994	28.82
350.204	28.6
350.413	28.88
350.623	28.61
350.833	28.7
351.043	28.42
351.253	28.35
351.463	28.94
351.672	28.6
351.882	28.36
352.092	28.24
352.302	28.4
352.511	28.93
352.721	28.63
352.931	29
353.141	28.52
353.35	28.62
353.56	28.79
353.77	28.45
353.979	28.35
354.189	28.35
354.399	28.44
354.608	28.13
354.818	27.62
355.027	27.56
355.237	27.35
355.447	27.54
355.656	27.55
355.866	27.38
356.075	27.27
356.285	27.2
356.494	27.15
356.704	26.95
356.913	27.19
357.123	27.21
357.332	27.23
357.542	27.21
357.751	27.24
357.96	27.35
358.17	27.45
358.379	27.29
358.589	27.32
358.798	27.39
359.007	27.52
359.217	27.31
359.426	27.26
359.635	27.21
359.845	27.08
360.054	27.05
360.263	26.81
360.472	26.54
360.682	26.48
360.891	26.58
361.1	26.55
361.309	26.49
361.519	26.4
361.728	26.33
361.937	26.33
362.146	26.18
362.355	26.2
362.564	26.23
362.774	26.47
362.983	26.39
363.192	26.13
363.401	25.97
363.61	25.77
363.819	25.95
364.028	26.09
364.237	26.17
364.446	26.52
364.655	26.22
364.864	26.23
365.073	26.1
365.282	26.44
365.491	26.35
365.7	26.46
365.909	26.83
366.118	26.85
366.327	26.76
366.536	26.41
366.745	26.16
366.954	26.12
367.162	25.79
367.371	26.02
367.58	25.73
367.789	25.8
367.998	25.89
368.207	25.63
368.415	25.3
368.624	25.5
368.833	25.76
369.042	25.86
369.25	26.31
369.459	26.58
369.668	26.39
369.877	26.56
370.085	26.64
370.294	26.43
370.503	26.57
370.711	26.36
370.92	26.32
371.129	26.26
371.337	26.06
371.546	25.77
371.754	25.92
371.963	25.86
372.171	25.68
372.38	25.64
372.589	25.54
372.797	25.48
373.006	25.58
373.214	25.38
373.423	25.51
373.631	25.83
373.84	25.73
374.048	25.67
374.256	25.58
374.465	25.53
374.673	25.54
374.882	25.76
375.09	25.82
375.298	25.93
375.507	25.89
375.715	25.75
375.923	25.36
376.132	25.5
376.34	25.28
376.548	25.26
376.757	25.47
376.965	25.46
377.173	25.36
377.381	25.4
377.59	25.43
377.798	25.42
378.006	25.33
378.214	25.46
378.423	25.48
378.631	25.72
378.839	25.79
379.047	25.69
379.255	25.82
379.463	25.83
379.671	25.64
379.879	25.65
380.088	25.9
380.296	25.99
380.504	26.01
380.712	25.93
380.92	25.6
381.128	25.54
381.336	25.68
381.544	25.66
381.752	25.61
381.96	25.49
382.168	25.64
382.376	25.54
382.584	25.59
382.791	25.58
382.999	25.38
383.207	25.74
383.415	25.89
383.623	25.56
383.831	25.39
384.039	25.5
384.247	25.53
384.454	25.25
384.662	25.07
384.87	24.95
385.078	24.72
385.285	24.92
385.493	24.48
385.701	24.42
385.909	24.72
386.116	24.85
386.324	24.66
386.532	24.78
386.739	24.88
386.947	24.93
387.155	24.99
387.362	25.21
387.57	25.16
387.778	25.23
387.985	25.21
388.193	25.11
388.4	24.94
388.608	24.93
388.816	24.88
389.023	24.97
389.231	25
389.438	24.93
389.646	25.06
389.853	24.88
390.061	25.02
390.268	24.96
390.475	24.95
390.683	25.14
390.89	25.02
391.098	25.19
391.305	25.12
391.512	25.08
391.72	24.99
391.927	24.81
392.135	24.85
392.342	24.92
392.549	25
392.756	25.01
392.964	24.81
393.171	25.02
393.378	24.71
393.586	24.68
393.793	24.85
394	24.81
394.207	24.87
394.414	25.09
394.622	24.95
394.829	25.02
395.036	24.99
395.243	25.08
395.45	25.13
395.657	25.15
395.864	25.22
396.072	24.91
396.279	24.96
396.486	24.87
396.693	24.68
396.9	24.77
397.107	24.43
397.314	24.53
397.521	24.67
397.728	24.49
397.935	24.47
398.142	24.36
398.349	24.37
398.556	24.47
398.763	24.68
398.97	24.76
399.177	24.82
399.383	24.89
399.59	24.86
399.797	24.75
400.004	25.05
400.211	24.97
400.418	25.16
400.625	25.35
400.831	25.36
401.038	25.35
401.245	25.29
401.452	25.37
401.658	25.66
401.865	25.68
402.072	25.62
402.279	25.42
402.485	25.66
402.692	25.62
402.899	25.55
403.105	25.63
403.312	25.49
403.519	25.48
403.725	25.38
403.932	25.28
404.138	25.14
404.345	25.14
404.552	25.06
404.758	24.98
404.965	24.86
405.171	24.98
405.378	24.9
405.584	25.09
405.791	25.06
405.997	25.06
406.204	24.93
406.41	24.94
406.617	24.88
406.823	24.89
407.029	24.91
407.236	24.93
407.442	24.95
407.649	24.92
407.855	24.72
408.061	24.82
408.268	24.91
408.474	25.13
408.68	25.33
408.887	25.43
409.093	25.44
409.299	25.28
409.505	25.26
409.712	25.3
409.918	25.45
410.124	25.6
410.33	25.42
410.537	25.39
410.743	25.22
410.949	25.11
411.155	25.19
411.361	25.21
411.567	25.39
411.773	25.52
411.98	25.26
412.186	25
412.392	24.98
412.598	25.12
412.804	24.92
413.01	24.89
413.216	24.94
413.422	24.98
413.628	25.14
413.834	25.14
414.04	24.93
414.246	24.96
414.452	25.1
414.658	24.98
414.864	25.01
415.07	25.22
415.275	25.2
415.481	25.2
415.687	25.18
415.893	25
416.099	24.97
416.305	25.1
416.511	25.1
416.716	25.17
416.922	25.17
417.128	25.09
417.334	25.03
417.539	24.94
417.745	25
417.951	24.96
418.157	24.92
418.362	24.88
418.568	24.9
418.774	24.9
418.979	24.87
419.185	24.82
419.391	24.86
419.596	24.86
419.802	24.88
420.008	24.82
420.213	24.1
420.419	24.21
420.624	24.24
420.83	24.29
421.035	24.26
421.241	24.18
421.446	24.18
421.652	24.19
421.857	24.15
422.063	24.28
422.268	24.25
422.474	24.9
422.679	24.87
422.885	24.92
423.09	24.83
423.295	24.91
423.501	24.98
423.706	25.03
423.911	24.97
424.117	24.99
424.322	24.82
424.527	24.89
424.733	24.9
424.938	24.93
425.143	24.85
425.349	24.87
425.554	24.79
425.759	24.78
425.964	24.85
426.169	24.88
426.375	24.91
426.58	24.98
426.785	24.97
426.99	25.04
427.195	24.99
427.4	25.02
427.605	25.09
427.811	25.16
428.016	25.15
428.221	25.13
428.426	25.17
428.631	25.29
428.836	25.34
429.041	25.35
429.246	25.3
429.451	25.35
429.656	25.34
429.861	25.18
430.066	25.2
430.271	25.34
430.476	25.28
430.681	25.34
430.886	25.2
431.09	25.15
431.295	25.14
431.5	25.16
431.705	25.21
431.91	25.22
432.115	25.29
432.32	25.28
432.524	25.26
432.729	25.24
432.934	25.24
433.139	25.25
433.343	25.36
433.548	25.33
433.753	25.32
433.958	25.37
434.162	25.33
434.367	25.41
434.572	25.4
434.776	25.27
434.981	25.16
435.186	25.12
435.39	25.15
435.595	25.11
435.799	25.1
436.004	25.17
436.209	25.12
436.413	25.25
436.618	25.22
436.822	25.32
437.027	25.31
437.231	25.45
437.436	25.52
437.64	25.57
437.845	25.67
438.049	25.75
438.253	25.64
438.458	25.65
438.662	25.59
438.867	25.64
439.071	25.54
439.275	25.6
439.48	25.6
439.684	25.68
439.888	25.7
440.093	25.62
440.297	25.6
440.501	25.68
440.706	25.66
440.91	25.62
441.114	25.53
441.318	25.61
441.523	25.63
441.727	25.68
441.931	25.61
442.135	25.61
442.339	25.65
442.543	25.63
442.748	25.58
442.952	25.72
443.156	25.77
443.36	25.86
443.564	25.85
443.768	25.82
443.972	25.96
444.176	25.9
444.38	25.88
444.584	25.86
444.788	25.93
444.992	26.02
445.196	25.93
445.4	25.98
445.604	25.97
445.808	26.02
446.012	26.03
446.216	25.93
446.42	25.97
446.624	25.99
446.828	25.98
447.032	25.95
447.235	25.91
447.439	25.88
447.643	25.78
447.847	25.77
448.051	25.75
448.254	25.78
448.458	25.8
448.662	25.83
448.866	25.86
449.069	25.96
449.273	26
449.477	26.02
449.681	26.03
449.884	26.11
450.088	26.07
450.292	26.06
450.495	26.04
450.699	26.05
450.902	26
451.106	25.91
451.31	25.91
451.513	25.8
451.717	25.86
451.92	25.84
452.124	26.06
452.327	26.08
452.531	26.13
452.734	26.23
452.938	26.23
453.141	26.23
453.345	26.21
453.548	26.09
453.752	26.1
453.955	26.07
454.158	26.07
454.362	25.98
454.565	26.12
454.769	26.09
454.972	25.95
455.175	25.91
455.379	25.94
455.582	25.99
455.785	25.98
455.988	25.98
456.192	25.95
456.395	26.03
456.598	26.05
456.801	25.97
457.005	25.92
457.208	26.01
457.411	25.98
457.614	26.05
457.817	26.15
458.021	26.18
458.224	26.29
458.427	26.31
458.63	26.28
458.833	26.29
459.036	26.31
459.239	26.26
459.442	26.21
459.645	26.24
459.848	26.21
460.051	26.19
460.254	26.29
460.457	26.24
460.66	26.23
460.863	26.22
461.066	26.19
461.269	26.22
461.472	26.31
461.675	26.41
461.878	26.45
462.081	26.48
462.284	26.46
462.486	26.26
462.689	26.21
462.892	26.24
463.095	26.25
463.298	26.31
463.5	26.24
463.703	26.34
463.906	26.24
464.109	26.18
464.311	26.23
464.514	26.08
464.717	26.23
464.92	26.24
465.122	26.23
465.325	26.26
465.528	26.09
465.73	26.24
465.933	26.14
466.135	26.25
466.338	26.35
466.541	26.35
466.743	26.39
466.946	26.44
467.148	26.49
467.351	26.51
467.553	26.53
467.756	26.63
467.958	26.46
468.161	26.46
468.363	26.44
468.566	26.31
468.768	26.23
468.971	26.23
469.173	26.24
469.375	26.22
469.578	26.16
469.78	26.11
469.983	26.12
470.185	26.22
470.387	26.22
470.59	26.19
470.792	26.26
470.994	26.39
471.196	26.49
471.399	26.43
471.601	26.38
471.803	26.52
472.005	26.64
472.208	26.56
472.41	26.55
472.612	26.58
472.814	26.55
473.016	26.52
473.218	26.47
473.421	26.36
473.623	26.49
473.825	26.51
474.027	26.4
474.229	26.33
474.431	26.52
474.633	26.55
474.835	26.45
475.037	26.5
475.239	26.54
475.441	26.52
475.643	26.56
475.845	26.49
476.047	26.54
476.249	26.49
476.451	26.46
476.653	26.3
476.855	26.25
477.057	26.32
477.258	26.3
477.46	26.23
477.662	26.21
477.864	26.32
478.066	26.17
478.268	26.14
478.469	26.29
478.671	26.38
478.873	26.44
479.075	26.44
479.276	26.43
479.478	26.5
479.68	26.57
479.882	26.57
480.083	26.44
480.285	26.58
480.487	26.56
480.688	26.5
480.89	26.45
481.091	26.43
481.293	26.49
481.495	26.55
481.696	26.58
481.898	26.59
482.099	26.58
482.301	26.6
482.502	26.55
482.704	26.52
482.905	26.44
483.107	26.37
483.308	26.33
483.51	26.3
483.711	26.23
483.913	26.15
484.114	26.11
484.315	26.06
484.517	26.04
484.718	25.99
484.92	25.95
485.121	25.96
485.322	25.98
485.524	26.03
485.725	25.99
485.926	26.05
486.127	26.07
486.329	26.1
486.53	26.16
486.731	26.18
486.932	26.19
487.134	26.24
487.335	26.27
487.536	26.28
487.737	26.22
487.938	26.25
488.139	26.21
488.341	26.21
488.542	26.18
488.743	26.16
488.944	26.11
489.145	26.16
489.346	26.12
489.547	26.11
489.748	26.13
489.949	26.18
490.15	26.23
490.351	26.3
490.552	26.36
490.753	26.38
490.954	26.39
491.155	26.44
491.356	26.46
491.557	26.49
491.758	26.53
491.959	26.49
492.159	26.44
492.36	26.38
492.561	26.31
492.762	26.23
492.963	26.19
493.164	26.11
493.364	26.04
493.565	26.01
493.766	25.93
493.967	25.88
494.167	25.98
494.368	26.07
494.569	26.17
494.769	26.26
494.97	26.36
495.171	26.48
495.371	26.65
495.572	26.69
495.773	26.65
495.973	26.77
496.174	26.82
496.375	26.78
496.575	26.77
496.776	26.7
496.976	26.66
497.177	26.6
497.377	26.5
497.578	26.51
497.778	26.59
497.979	26.7
498.179	26.74
498.38	26.69
498.58	26.72
498.78	26.68
498.981	26.74
499.181	26.78
499.382	26.84
499.582	26.9
499.782	26.88
499.983	26.76
500.183	26.73
500.383	26.67
500.584	26.73
500.784	26.81
500.984	26.96
501.184	26.91
501.385	27.07
501.585	27.18
501.785	27.27
501.985	27.22
502.185	27.25
502.386	27.24
502.586	27.21
502.786	27.23
502.986	27.18
503.186	27.17
503.386	27.21
503.586	27.06
503.786	26.91
503.987	26.89
504.187	26.96
504.387	27.05
504.587	27.13
504.787	27.12
504.987	27.04
505.187	27
505.387	26.94
505.587	27
505.786	27.07
505.986	27.16
506.186	27.17
506.386	27.12
506.586	27.06
506.786	27.01
506.986	27.18
507.186	27.28
507.386	27.38
507.585	27.42
507.785	27.4
507.985	27.37
508.185	27.44
508.384	27.44
508.584	27.49
508.784	27.61
508.984	27.58
509.183	27.59
509.383	27.55
509.583	27.43
509.782	27.39
509.982	27.42
510.182	27.52
510.381	27.4
510.581	27.49
510.781	27.52
510.98	27.45
511.18	27.5
511.379	27.4
511.579	27.43
511.778	27.43
511.978	27.47
512.177	27.47
512.377	27.39
512.576	27.42
512.776	27.3
512.975	27.38
513.175	27.42
513.374	27.45
513.573	27.57
513.773	27.6
513.972	27.62
514.172	27.53
514.371	27.51
514.57	27.46
514.77	27.45
514.969	27.51
515.168	27.44
515.367	27.43
515.567	27.41
515.766	27.37
515.965	27.34
516.164	27.43
516.364	27.61
516.563	27.64
516.762	27.81
516.961	27.92
517.16	27.94
517.359	27.9
517.559	27.96
517.758	27.98
517.957	27.9
518.156	27.92
518.355	27.88
518.554	27.82
518.753	27.82
518.952	27.75
519.151	27.62
519.35	27.55
519.549	27.57
519.748	27.56
519.947	27.56
520.146	27.62
520.345	27.55
520.544	27.53
520.743	27.53
520.942	27.59
521.141	27.66
521.339	27.77
521.538	27.9
521.737	27.99
521.936	27.92
522.135	27.82
522.333	27.77
522.532	27.89
522.731	28.02
522.93	28.07
523.129	28.12
523.327	28.07
523.526	28.1
523.725	28.08
523.923	28.07
524.122	28.1
524.321	28.28
524.519	28.35
524.718	28.3
524.917	28.32
525.115	28.34
525.314	28.27
525.512	28.22
525.711	28.22
525.909	28.21
526.108	28.27
526.306	28.29
526.505	28.22
526.703	28.26
526.902	28.28
527.1	28.22
527.299	28.21
527.497	28.27
527.696	28.3
527.894	28.27
528.092	28.27
528.291	28.18
528.489	28.18
528.688	28.17
528.886	28.11
529.084	28.11
529.283	28.11
529.481	28.1
529.679	28.03
529.877	27.99
530.076	27.93
530.274	27.89
530.472	27.93
530.67	27.88
530.869	27.91
531.067	27.96
531.265	28
531.463	28.05
531.661	28.04
531.859	28.13
532.057	28.16
532.255	28.2
532.454	28.19
532.652	28.22
532.85	28.31
533.048	28.28
533.246	28.31
533.444	28.23
533.642	28.22
533.84	28.25
534.038	28.21
534.236	28.24
534.434	28.26
534.632	28.32
534.83	28.33
535.027	28.3
535.225	28.33
535.423	28.29
535.621	28.31
535.819	28.39
536.017	28.33
536.215	28.35
536.412	28.37
536.61	28.42
536.808	28.44
537.006	28.4
537.203	28.43
537.401	28.42
537.599	28.48
537.797	28.46
537.994	28.38
538.192	28.42
538.39	28.45
538.587	28.43
538.785	28.53
538.983	28.63
539.18	28.72
539.378	28.71
539.575	28.77
539.773	28.79
539.97	28.87
540.168	28.93
540.366	28.94
540.563	28.94
540.761	28.96
540.958	28.93
541.155	28.86
541.353	28.83
541.55	28.8
541.748	28.76
541.945	28.74
542.143	28.73
542.34	28.7
542.537	28.71
542.735	28.65
542.932	28.64
543.129	28.61
543.327	28.62
543.524	28.59
543.721	28.7
543.919	28.77
544.116	28.77
544.313	28.79
544.51	28.87
544.708	28.87
544.905	28.99
545.102	28.93
545.299	28.99
545.496	28.93
545.693	29.02
545.891	28.91
546.088	28.91
546.285	28.9
546.482	28.94
546.679	28.78
546.876	28.79
547.073	28.74
547.27	28.87
547.467	28.79
547.664	28.92
547.861	28.86
548.058	28.84
548.255	28.81
548.452	28.79
548.649	28.79
548.846	28.95
549.043	29.05
549.24	28.98
549.437	28.92
549.633	28.99
549.83	28.94
550.027	28.98
550.224	29
550.421	28.98
550.618	29.08
550.814	29.04
551.011	28.99
551.208	28.91
551.405	29
551.601	29.03
551.798	29.1
551.995	29.14
552.191	29.13
552.388	29.24
552.585	29.26
552.781	29.32
552.978	29.33
553.175	29.38
553.371	29.41
553.568	29.41
553.764	29.33
553.961	29.4
554.157	29.36
554.354	29.39
554.55	29.43
554.747	29.45
554.943	29.37
555.14	29.36
555.336	29.27
555.533	29.2
555.729	29.22
555.926	29.36
556.122	29.27
556.318	29.29
556.515	29.3
556.711	29.21
556.907	29.24
557.104	29.11
557.3	29.06
557.496	29.17
557.693	29.21
557.889	29.3
558.085	29.26
558.281	29.26
558.478	29.29
558.674	29.25
558.87	29.22
559.066	29.27
559.262	29.43
559.459	29.54
559.655	29.48
559.851	29.57
560.047	29.43
560.243	29.49
560.439	29.47
560.635	29.51
560.831	29.56
561.027	29.55
561.223	29.43
561.419	29.35
561.615	29.38
561.811	29.44
562.007	29.3
562.203	29.33
562.399	29.35
562.595	29.37
562.791	29.46
562.987	29.42
563.183	29.45
563.379	29.49
563.575	29.5
563.771	29.48
563.966	29.31
564.162	29.39
564.358	29.43
564.554	29.43
564.75	29.47
564.945	29.49
565.141	29.65
565.337	29.69
565.533	29.64
565.728	29.74
565.924	29.72
566.12	29.79
566.315	29.85
566.511	29.88
566.707	29.8
566.902	29.79
567.098	29.65
567.293	29.5
567.489	29.6
567.684	29.63
567.88	29.65
568.076	29.66
568.271	29.7
568.467	29.74
568.662	29.71
568.858	29.87
569.053	29.91
569.248	29.94
569.444	30.01
569.639	29.98
569.835	30.08
570.03	30.06
570.225	30.08
570.421	30.14
570.616	30.17
570.812	30.31
571.007	30.19
571.202	30.16
571.397	30.09
571.593	30.12
571.788	30.12
571.983	30.08
572.178	30.05
572.374	30.09
572.569	30.09
572.764	30.11
572.959	29.95
573.154	30.02
573.35	29.93
573.545	30.03
573.74	29.95
573.935	29.95
574.13	30.04
574.325	29.99
574.52	30.03
574.715	29.91
574.91	29.87
575.105	29.84
575.3	29.85
575.495	29.88
575.69	29.93
575.885	29.88
576.08	29.88
576.275	29.91
576.47	29.92
576.665	29.93
576.86	30.16
577.055	30.19
577.25	30.38
577.444	30.33
577.639	30.46
577.834	30.53
578.029	30.69
578.224	30.72
578.418	30.64
578.613	30.77
578.808	30.77
579.003	30.59
579.197	30.6
579.392	30.51
579.587	30.57
579.781	30.57
579.976	30.62
580.171	30.61
580.365	30.64
580.56	30.72
580.755	30.77
580.949	30.83
581.144	30.88
581.338	30.85
581.533	30.84
581.727	31
581.922	31.04
582.116	30.9
582.311	30.89
582.505	30.87
582.7	30.78
582.894	30.72
583.089	30.66
583.283	30.7
583.478	30.85
583.672	31
583.866	30.88
584.061	30.78
584.255	30.82
584.449	30.83
584.644	30.79
584.838	30.86
585.032	30.79
585.226	30.67
585.421	30.76
585.615	30.7
585.809	30.6
586.003	30.61
586.198	30.7
586.392	30.8
586.586	30.82
586.78	30.99
586.974	30.94
587.168	31.13
587.363	31.31
587.557	31.21
587.751	31.21
587.945	31.25
588.139	31.38
588.333	31.35
588.527	31.42
588.721	31.42
588.915	31.32
589.109	31.36
589.303	31.21
589.497	31.21
589.691	31.2
589.885	31.13
590.079	31.25
590.273	31.37
590.466	31.4
590.66	31.37
590.854	31.43
591.048	31.44
591.242	31.44
591.436	31.54
591.629	31.68
591.823	31.85
592.017	31.9
592.211	31.85
592.404	31.65
592.598	31.73
592.792	31.78
592.986	31.78
593.179	31.84
593.373	31.92
593.567	31.91
593.76	31.72
593.954	31.71
594.147	31.89
594.341	31.92
594.535	31.92
594.728	31.91
594.922	31.78
595.115	31.88
595.309	31.82
595.502	31.89
595.696	31.95
595.889	32.01
596.083	32.05
596.276	31.91
596.47	31.89
596.663	31.87
596.856	31.74
597.05	31.88
597.243	31.83
597.437	31.83
597.63	31.69
597.823	31.72
598.017	31.62
598.21	31.54
598.403	31.48
598.596	31.58
598.79	31.54
598.983	31.77
599.176	31.72
599.369	31.72
599.563	31.83
599.756	31.88
599.949	31.83
600.142	31.79
600.335	31.92
600.528	32.05
600.722	32.06
600.915	32.16
601.108	32.05
601.301	32.24
601.494	32.38
601.687	32.3
601.88	32.39
602.073	32.29
602.266	32.51
602.459	32.5
602.652	32.49
602.845	32.33
603.038	32.15
603.231	32.27
603.424	32.1
603.617	32.01
603.809	32.09
604.002	32.13
604.195	32.29
604.388	32.27
604.581	32.12
604.774	32.26
604.966	32.32
605.159	32.47
605.352	32.37
605.545	32.37
605.737	32.45
605.93	32.37
606.123	32.34
606.316	32.22
606.508	32.3
606.701	32.53
606.894	32.51
607.086	32.61
607.279	32.69
607.471	32.94
607.664	33.17
607.857	33.18
608.049	33.34
608.242	33.35
608.434	33.59
608.627	33.73
608.819	33.85
609.012	34.04
609.204	34.16
609.397	34.48
609.589	34.53
609.782	34.46
609.974	34.66
610.166	34.98
610.359	35.3
610.551	35.48
610.743	35.42
610.936	35.39
611.128	35.35
611.32	35.49
611.513	35.4
611.705	35.38
611.897	35.65
612.09	35.72
612.282	35.67
612.474	35.51
612.666	35.27
612.858	35.37
613.051	35.57
613.243	35.5
613.435	35.38
613.627	35.25
613.819	35.39
614.011	35.29
614.203	35.12
614.395	34.9
614.588	34.89
614.78	35.06
614.972	35.14
615.164	35.04
615.356	35.16
615.548	35.13
615.74	35.15
615.932	35.07
616.124	35.08
616.315	35.15
616.507	35.12
616.699	35.07
616.891	35.08
617.083	34.97
617.275	34.92
617.467	34.84
617.659	34.99
617.85	35.16
618.042	35
618.234	34.8
618.426	34.61
618.618	34.54
618.809	34.42
619.001	34.3
619.193	34.26
619.384	34.21
619.576	34.05
619.768	33.78
619.959	33.53
620.151	33.77
620.343	33.86
620.534	34.08
620.726	34.18
620.917	34.39
621.109	34.55
621.301	34.61
621.492	34.48
621.684	34.57
621.875	34.83
622.067	34.95
622.258	34.72
622.45	34.66
622.641	34.74
622.832	34.79
623.024	34.78
623.215	34.73
623.407	34.68
623.598	34.91
623.789	34.86
623.981	34.9
624.172	34.96
624.363	35.16
624.555	35.14
624.746	35.05
624.937	35.01
625.129	35.23
625.32	35.02
625.511	35.01
625.702	35.06
625.893	35.28
626.085	35.16
626.276	35.25
626.467	35.25
626.658	35.49
626.849	35.49
627.04	35.49
627.231	35.34
627.422	35.57
627.614	35.63
627.805	35.71
627.996	35.86
628.187	36
628.378	35.9
628.569	35.93
628.76	35.82
628.951	35.74
629.142	35.88
629.332	35.97
629.523	35.92
629.714	35.89
629.905	35.96
630.096	35.77
630.287	35.77
630.478	35.75
630.669	35.91
630.859	35.97
631.05	36.03
631.241	36.25
631.432	36.2
631.623	36.4
631.813	36.46
632.004	36.35
632.195	36.27
632.385	36.19
632.576	36.39
632.767	36.22
632.957	36.3
633.148	36.42
633.339	36.28
633.529	36.2
633.72	35.95
633.91	36.07
634.101	36.08
634.292	36.22
634.482	36.3
634.673	36.31
634.863	36.43
635.054	36.49
635.244	36.62
635.435	36.7
635.625	36.9
635.815	37.05
636.006	36.82
636.196	37.02
636.387	37.01
636.577	36.96
636.767	36.85
636.958	36.71
637.148	36.79
637.338	36.59
637.529	36.54
637.719	36.66
637.909	36.6
638.099	36.92
638.29	36.74
638.48	36.75
638.67	36.86
638.86	37.03
639.05	37.18
639.241	37.05
639.431	37.25
639.621	37.11
639.811	36.94
640.001	37.13
640.191	37.18
640.381	37.24
640.571	37.13
640.761	37.29
640.951	37.58
641.141	37.39
641.331	37.33
641.521	37.38
641.711	37.5
641.901	37.57
642.091	37.34
642.281	37.19
642.471	37.21
642.661	37.52
642.851	37.53
643.041	37.39
643.231	37.6
643.42	37.8
643.61	37.53
643.8	37.62
643.99	37.83
644.18	38.06
644.369	38.22
644.559	38.31
644.749	38.03
644.939	38.03
645.128	37.73
645.318	37.88
645.508	37.84
645.697	38.16
645.887	38.14
646.076	37.82
646.266	37.82
646.456	37.83
646.645	37.99
646.835	38.28
647.024	38.33
647.214	38.55
647.403	38.37
647.593	38.28
647.782	38.43
647.972	38.54
648.161	38.93
648.351	39.01
648.54	38.95
648.73	38.91
648.919	38.95
649.108	38.75
649.298	38.86
649.487	38.94
649.677	39.28
649.866	39.17
650.055	39.28
650.244	39.36
650.434	39.21
650.623	39.15
650.812	39.19
651.002	39.04
651.191	39.06
651.38	39.04
651.569	39.18
651.758	39.05
651.947	39.16
652.137	39.14
652.326	39.04
652.515	39.57
652.704	39.74
652.893	39.79
653.082	39.74
653.271	39.92
653.46	39.98
653.649	40.02
653.838	40.23
654.027	40.38
654.216	40.57
654.405	40.75
654.594	40.59
654.783	40.64
654.972	40.79
655.161	41.22
655.35	41.2
655.539	41.17
655.728	41.33
655.916	41.43
656.105	41.45
656.294	41.26
656.483	41.15
656.672	41.16
656.86	41.33
657.049	41.28
657.238	41.33
657.427	41.41
657.615	41.62
657.804	41.47
657.993	41.52
658.181	41.48
658.37	41.44
658.559	41.4
658.747	41.63
658.936	41.5
659.125	41.87
659.313	41.84
659.502	41.98
659.69	42.08
659.879	42.33
660.067	42.22
660.256	42.23
660.444	42.43
660.633	42.47
660.821	42.29
661.01	42.37
661.198	41.92
661.387	42.02
661.575	42.06
661.763	41.87
661.952	41.87
662.14	41.8
662.328	41.86
662.517	42.16
662.705	42.34
662.893	42.42
663.082	42.63
663.27	43.02
663.458	43.25
663.646	43.4
663.834	43.7
664.023	43.88
664.211	44.1
664.399	44.21
664.587	44.1
664.775	44.08
664.963	44.33
665.152	44.54
665.34	44.61
665.528	44.44
665.716	44.32
665.904	44.2
666.092	44.3
666.28	44.43
666.468	44.54
666.656	44.68
666.844	44.91
667.032	44.75
667.22	44.78
667.408	44.59
667.596	44.42
667.784	44.42
667.971	44.45
668.159	44.3
668.347	44.22
668.535	44.18
668.723	44.04
668.911	43.9
669.098	44.15
669.286	44.12
669.474	44.09
669.662	44.42
669.849	44.49
670.037	44.56
670.225	44.6
670.413	44.68
670.6	44.68
670.788	44.81
670.976	44.83
671.163	44.7
671.351	44.65
671.538	44.76
671.726	44.87
671.913	44.87
672.101	45.34
672.289	45.38
672.476	45.68
672.664	45.73
672.851	45.75
673.039	45.76
673.226	45.73
673.413	45.8
673.601	45.98
673.788	45.76
673.976	45.79
674.163	45.58
674.35	45.9
674.538	45.8
674.725	46.03
674.912	46.3
675.1	46.39
675.287	46.64
675.474	46.62
675.662	46.69
675.849	47.18
676.036	47.53
676.223	47.63
676.411	47.66
676.598	47.73
676.785	47.72
676.972	47.83
677.159	47.94
677.346	47.68
677.533	47.9
677.721	47.93
677.908	47.85
678.095	47.68
678.282	47.58
678.469	47.48
678.656	47.65
678.843	47.62
679.03	47.48
679.217	47.62
679.404	47.75
679.591	47.82
679.778	47.84
679.964	47.76
680.151	47.85
680.338	47.88
680.525	47.97
680.712	47.75
680.899	47.76
681.086	47.78
681.272	47.72
681.459	47.72
681.646	47.4
681.833	47.61
682.02	47.69
682.206	47.63
682.393	47.63
682.58	47.34
682.766	47.58
682.953	47.72
683.14	47.77
683.326	48.08
683.513	48.33
683.7	48.54
683.886	48.36
684.073	48.22
684.259	48.28
684.446	48.64
684.632	49
684.819	49.25
685.005	49.29
685.192	49.51
685.378	49.43
685.565	49.37
685.751	49.45
685.938	49.65
686.124	50.07
686.31	50.4
686.497	50.16
686.683	50.01
686.87	49.58
687.056	49.31
687.242	49.21
687.429	49.23
687.615	49.54
687.801	50.06
687.987	49.86
688.174	49.47
688.36	49.53
688.546	49.72
688.732	49.81
688.918	50.02
689.105	50.63
689.291	50.52
689.477	50.14
689.663	50.17
689.849	49.9
690.035	50.18
690.221	50.44
690.407	50.26
690.593	50.21
690.779	50.35
690.965	50.6
691.151	50.55
691.337	50.9
691.523	51.11
691.709	50.92
691.895	50.87
692.081	50.91
692.267	51.04
692.453	51.44
692.639	51.49
692.825	51.37
693.011	51.03
693.196	50.85
693.382	50.7
693.568	50.69
693.754	50.95
693.94	51.17
694.125	51.23
694.311	51.17
694.497	50.9
694.682	50.85
694.868	51.14
695.054	51.26
695.239	51.4
695.425	51.51
695.611	51.81
695.796	51.94
695.982	52.05
696.168	51.91
696.353	51.96
696.539	51.97
696.724	52.07
696.91	52.18
697.095	52.31
697.281	52.43
697.466	52.38
697.652	52.5
697.837	52.42
698.023	52.45
698.208	52.38
698.393	52.34
698.579	52.14
698.764	51.97
698.949	52.03
699.135	52
699.32	51.93
699.505	51.79
699.691	51.59
699.876	51.53
700.061	51.25
700.246	51.44
700.432	51.88
700.617	52.25
700.802	52.67
700.987	52.75
701.172	52.84
701.358	52.71
701.543	53.27
701.728	53.43
701.913	53.65
702.098	54.13
702.283	54.11
702.468	53.81
702.653	54.1
702.838	53.77
703.023	53.5
703.208	53.86
703.393	54.25
703.578	53.91
703.763	54.19
703.948	54.51
704.133	54.56
704.318	54.91
704.503	54.98
704.688	55.02
704.873	54.81
705.057	54.99
705.242	54.56
705.427	54.51
705.612	55.12
705.797	55.72
705.981	55.7
706.166	55.59
706.351	55.68
706.536	55.72
706.72	55.45
706.905	56.07
707.09	56.17
707.274	56.11
707.459	56.51
707.644	56.75
707.828	56.39
708.013	56.14
708.197	56.03
708.382	55.83
708.567	55.93
708.751	56.13
708.936	56.12
709.12	56.28
709.305	56.66
709.489	56.54
709.673	55.98
709.858	55.97
710.042	56.46
710.227	56.29
710.411	56.28
710.596	56.36
710.78	56.53
710.964	56.55
711.149	56.58
711.333	56.92
711.517	56.41
711.702	56.22
711.886	56.36
712.07	55.95
712.254	56.32
712.438	56.23
712.623	56.33
712.807	55.99
712.991	55.68
713.175	55.27
713.359	54.96
713.544	55.33
713.728	55.62
713.912	55.4
714.096	55.59
714.28	55.63
714.464	55.71
714.648	55.33
714.832	55.74
715.016	56.14
715.2	56.4
715.384	56.65
715.568	56.79
715.752	56.82
715.936	56.95
716.12	56.57
716.304	56.64
716.488	56.59
716.671	56.76
716.855	56.54
717.039	56.22
717.223	56.1
717.407	55.59
717.59	55.81
717.774	55.77
717.958	55.43
718.142	55.41
718.325	55.04
718.509	55.18
718.693	55.3
718.877	55.24
719.06	55.88
719.244	55.97
719.428	56.06
719.611	55.52
719.795	55.7
719.978	56.13
720.162	56.23
720.345	56.31
720.529	56.4
720.713	56.62
720.896	56.55
721.08	55.94
721.263	56.19
721.446	56.37
721.63	56.33
721.813	55.63
721.997	55.58
722.18	55.67
722.364	55.54
722.547	55.26
722.73	55.27
722.914	55.62
723.097	55.75
723.28	55.65
723.464	55.96
723.647	56.38
723.83	57.45
724.013	57.56
724.197	57.39
724.38	58.2
724.563	58.65
724.746	58.44
724.929	58.37
725.112	58.96
725.296	59.07
725.479	59.07
725.662	59.16
725.845	58.76
726.028	59.18
726.211	59.32
726.394	58.71
726.577	58.61
726.76	58.66
726.943	58.78
727.126	58.67
727.309	58.81
727.492	58.89
727.675	59.37
727.858	59.41
728.041	58.92
728.224	59.34
728.407	59.98
728.589	59.87
728.772	59.97
728.955	59.64
729.138	59.57
729.321	59.2
729.503	59.18
729.686	58.26
729.869	58.24
730.052	58.11
730.234	57.66
730.417	57.34
730.6	57.32
730.782	57.11
730.965	57.67
731.148	57.62
731.33	57.8
731.513	57.46
731.695	57.74
731.878	57.79
732.061	58.13
732.243	58.54
732.426	58.5
732.608	58.83
732.791	59.24
732.973	59.24
733.156	59.55
733.338	60.03
733.52	60.15
733.703	60.21
733.885	59.85
734.068	59.61
734.25	59.47
734.432	59.27
734.615	59.31
734.797	58.82
734.979	58.8
735.162	58.49
735.344	58.02
735.526	57.98
735.708	57.86
735.891	58.69
736.073	58.5
736.255	58.45
736.437	58.66
736.619	58.56
736.802	58.99
736.984	58.75
737.166	59.25
737.348	59.32
737.53	59.95
737.712	60.38
737.894	60.19
738.076	60.83
738.258	60.93
738.44	60.73
738.622	60.77
738.804	61.11
738.986	61.5
739.168	60.87
739.35	61.24
739.532	60.82
739.714	60.36
739.896	60.04
740.078	60.04
740.259	59.97
740.441	60.82
740.623	61.12
740.805	60.58
740.987	60.2
741.168	60.33
741.35	59.86
741.532	59.79
741.714	59.89
741.895	60.21
742.077	59.99
742.259	59.89
742.44	59.46
742.622	59.1
742.804	59.43
742.985	59.88
743.167	60.07
743.348	60.05
743.53	60.3
743.711	60.89
743.893	61.25
744.075	61.36
744.256	61.51
744.438	62.07
744.619	62.36
744.8	62.27
744.982	61.5
745.163	61.45
745.345	62.2
745.526	62.47
745.707	62.45
745.889	61.62
746.07	61.81
746.252	62.39
746.433	62.17
746.614	62.73
746.795	62.23
746.977	63.33
747.158	63.6
747.339	62.77
747.52	61.7
747.702	61.61
747.883	61.76
748.064	61.1
748.245	60.68
748.426	60.12
748.607	59.93
748.788	60.01
748.97	59.24
749.151	59.29
749.332	59.79
749.513	60.54
749.694	61.06
749.875	61.17
750.056	62.27
750.237	62.53
750.418	63.17
750.599	62.77
750.78	62.52
750.96	62.93
751.141	62.46
751.322	62.76
751.503	62.94
751.684	62.44
751.865	61.96
752.046	61.26
752.226	61.42
752.407	61.26
752.588	61.39
752.769	62.14
752.949	61.97
753.13	62.26
753.311	62.44
753.492	62.44
753.672	62.63
753.853	62.86
754.034	62.34
754.214	61.84
754.395	61.96
754.575	61.62
754.756	61.9
754.937	61.87
755.117	62.1
755.298	61.68
755.478	62.01
755.659	61.5
755.839	62.67
756.02	63.97
756.2	64.61
756.381	64.04
756.561	64.43
756.741	63.96
756.922	64.16
757.102	64.55
757.283	65.08
757.463	64.33
757.643	64.61
757.823	63.87
758.004	62.92
758.184	62.74
758.364	62.82
758.545	62.42
758.725	62.23
758.905	61.66
759.085	60.79
759.265	59.53
759.446	60.06
759.626	60.2
759.806	60.32
759.986	60.58
760.166	59.98
760.346	60.99
760.526	61.31
760.706	61.63
760.886	61.57
761.066	62.02
761.246	62.62
761.426	62.65
761.606	62.21
761.786	61.91
761.966	61.69
762.146	62.2
762.326	61.38
762.506	60.67
762.686	60.76
762.866	61.03
763.046	60.75
763.225	60.44
763.405	60.14
763.585	60.32
763.765	60.13
763.945	60.03
764.124	59.88
764.304	59.48
764.484	59.86
764.664	59.63
764.843	59.77
765.023	59.58
765.203	60.28
765.382	60.35
765.562	60.95
765.741	61.37
765.921	61.51
766.101	61.62
766.28	62.64
766.46	62.68
766.639	63.21
766.819	63.35
766.998	63.65
767.178	63.54
767.357	64.18
767.537	63.42
767.716	64.18
767.896	64.73
768.075	64.79
768.254	64.46
768.434	65.3
768.613	64.78
768.792	64.57
768.972	64.7
769.151	64.49
769.33	64.18
769.51	64.66
769.689	64.1
769.868	64.38
770.047	64.26
770.226	64.95
770.406	63.39
770.585	64.28
770.764	65.08
770.943	65.63
771.122	64.83
771.301	64.19
771.48	62.97
771.66	62.84
771.839	61.59
772.018	62.24
772.197	61.61
772.376	62.55
772.555	62.43
772.734	62.3
772.913	61.64
773.092	63.01
773.271	64.15
773.449	63.92
773.628	64.29
773.807	65.54
773.986	64.77
774.165	65.37
774.344	65.61
774.523	65.13
774.701	64.24
774.88	64.96
775.059	64.39
775.238	64.11
775.417	65.51
775.595	64.97
775.774	64.53
775.953	65.56
776.131	65.29
776.31	64.61
776.489	64.86
776.667	65.21
776.846	65.66
777.025	65.14
777.203	65.26
777.382	65.23
777.56	65.87
777.739	66.79
777.917	65.31
778.096	65.26
778.274	66.55
778.453	67.17
778.631	68.43
778.81	67.84
778.988	68.86
779.166	68.75
779.345	69
779.523	68.59
779.702	67.64
779.88	68.51
780.058	68.29
780.237	67.99
780.415	67.39
780.593	65.67
780.771	65.38
780.95	64.56
781.128	64.34
781.306	63.29
781.484	63.78
781.662	64.51
781.841	64.84
782.019	64.69
782.197	63.59
782.375	62.94
782.553	63.59
782.731	63.79
782.909	64.08
783.087	64.12
783.265	64.18
783.443	63.37
783.621	64.24
783.799	64.08
783.977	63.67
784.155	64.57
784.333	65.34
784.511	65.56
784.689	65.87
784.867	66.48
785.045	66.7
785.223	68.38
785.4	68.04
785.578	67.31
785.756	67.78
785.934	69.24
786.112	69.42
786.289	68.22
786.467	67.84
786.645	67.56
786.823	67.26
787	66.97
787.178	66
787.356	66.82
787.533	65.53
787.711	64.5
787.889	63.91
788.066	63.65
788.244	63.86
788.421	64.04
788.599	63.87
788.776	63.6
788.954	63.6
789.131	63.56
789.309	63.11
789.486	64.64
789.664	65.31
789.841	65.35
790.019	65.06
790.196	66.07
790.373	66.45
790.551	67.07
790.728	66.33
790.906	66.05
791.083	66.5
791.26	67.92
791.437	66.39
791.615	67.14
791.792	67.69
791.969	68.44
792.146	68.13
792.324	67.12
792.501	66.41
792.678	67.21
792.855	67.23
793.032	66.38
793.209	65.79
793.387	66.19
793.564	65.76
793.741	64.91
793.918	64.59
794.095	63.75
794.272	63.99
794.449	63.38
794.626	64.37
794.803	64.55
794.98	65.43
795.157	65.16
795.334	64.51
795.511	63.81
795.688	63.97
795.864	63.07
796.041	63.57
796.218	63.64
796.395	65.49
796.572	65.36
796.749	65.61
796.925	64.11
797.102	64.3
797.279	65.62
797.456	66.56
797.632	66.79
797.809	66.79
797.986	68.41
798.162	68
798.339	66.31
798.516	66.68
798.692	66.51
798.869	68.09
799.046	68.07
799.222	66.16
799.399	66.26
799.575	66
799.752	66.8
799.928	65.79
800.105	67.18
800.281	67.82
800.458	67.16
800.634	68.01
800.811	65.51
800.987	65.27
801.163	66.8
801.34	66
801.516	66.24
801.692	65.59
801.869	65.78
802.045	64.78
802.221	63.38
802.398	63.56
802.574	62.43
802.75	64.68
802.926	64.05
803.103	63.78
803.279	63.61
803.455	62.7
803.631	62.83
803.807	61.81
803.983	62.85
804.16	65.12
804.336	64.64
804.512	65.14
804.688	65.36
804.864	65.82
805.04	63.89
805.216	64.18
805.392	65.17
805.568	66.03
805.744	65.07
805.92	63.74
806.096	62.68
806.272	62.69
806.448	62.59
806.623	61.23
806.799	60.23
806.975	61.94
807.151	61.25
807.327	59.75
807.503	58.5
807.678	60.97
807.854	60.98
808.03	60.5
808.206	61.92
808.381	62.86
808.557	64.03
808.733	64.29
808.908	63.22
809.084	65.54
809.26	65.96
809.435	66.28
809.611	64.24
809.787	64.31
809.962	65.38
810.138	63.55
810.313	63.5
810.489	63.15
810.664	63.33
810.84	65.34
811.015	63.02
811.191	63.6
811.366	63.94
811.542	65.31
811.717	66.64
811.892	65.92
812.068	66.3
812.243	64.8
812.419	64.16
812.594	64.2
812.769	63.93
812.944	65.57
813.12	65.53
813.295	65.18
813.47	64.26
813.645	62.19
813.821	61.9
813.996	61.37
814.171	62.25
814.346	63
814.521	63.46
814.697	62.05
814.872	59.97
815.047	59.73
815.222	61.24
815.397	62.05
815.572	62.97
815.747	63.19
815.922	63.77
816.097	63.56
816.272	62.62
816.447	62.01
816.622	62.76
816.797	62.94
816.972	62.74
817.147	61.58
817.322	60.33
817.496	60.73
817.671	60.98
817.846	60.41
818.021	59.63
818.196	60.64
818.371	61.08
818.545	60.38
818.72	60.38
818.895	60.96
819.069	59.95
819.244	60
819.419	60.16
819.594	60.2
819.768	59.74
819.943	60.4
820.117	59.57
820.292	58.17
820.467	57.1
820.641	56.35
820.816	55.95
820.99	55.61
821.165	55.86
821.339	54.77
821.514	54.41
821.688	53.87
821.863	53.51
822.037	53.1
822.212	53.05
822.386	53.09
822.56	52.89
822.735	52.48
822.909	52.33
823.084	51.73
823.258	51.52
823.432	51.08
823.606	51.11
823.781	50.68
823.955	50.72
824.129	50.87
824.303	50.87
824.478	51.12
824.652	51.46
824.826	51.69
825	52.35
825.174	53.31
825.348	53.6
825.523	53.66
825.697	54.53
825.871	54.68
826.045	54.72
826.219	54.48
826.393	54.11
826.567	53.96
826.741	53.46
826.915	52.7
827.089	52.16
827.263	52.31
827.437	52.72
827.611	52.42
827.784	52.59
827.958	52.1
828.132	51.84
828.306	51.87
828.48	52.09
828.654	52.75
828.827	53.51
829.001	53.54
829.175	53.96
829.349	54.6
829.522	54.44
829.696	54.02
829.87	54.7
830.044	55.94
830.217	55.75
830.391	55.15
830.565	55.36
830.738	55.37
830.912	55.85
831.085	55.99
831.259	54.57
831.432	54.93
831.606	56.04
831.779	55.5
831.953	54.72
832.126	56.14
832.3	56.57
832.473	56.07
832.647	55.29
832.82	55.1
832.994	53.87
833.167	53.66
833.34	53.56
833.514	52.97
833.687	53.23
833.86	53.53
834.034	53.63
834.207	52.97
834.38	53.03
834.553	52.48
834.727	52.23
834.9	52.39
835.073	51.8
835.246	51.94
835.419	51.75
835.593	51.24
835.766	51.26
835.939	50.69
836.112	50.83
836.285	50.47
836.458	51.41
836.631	51.61
836.804	54.04
836.977	54.13
837.15	53.13
837.323	54.36
837.496	54.3
837.669	54.8
837.842	56.55
838.015	58.38
838.188	59.01
838.361	60.21
838.533	59.38
838.706	57.04
838.879	59.26
839.052	62.19
839.225	61.52
839.398	63.69
839.57	63.46
839.743	63.13
839.916	63.28
840.088	60.39
840.261	61.95
840.434	63.81
840.607	63.31
840.779	62.05
840.952	59.82
841.124	61.24
841.297	59.7
841.47	59.4
841.642	57.83
841.815	57.22
841.987	59.3
842.16	57.63
842.332	56.76
842.505	56.82
842.677	58.14
842.85	60.66
843.022	62.18
843.194	62.42
843.367	62.93
843.539	62.35
843.712	63.3
843.884	64.69
844.056	60.63
844.229	60.05
844.401	60.41
844.573	60.44
844.745	58.98
844.918	53.82
845.09	51.66
845.262	51.05
845.434	51.49
845.606	49.05
845.779	49.84
845.951	55.52
846.123	58.44
846.295	57.08
846.467	57.66
846.639	56.08
846.811	57.45
846.983	62.33
847.155	63.62
847.327	65.48
847.499	66.43
847.671	64.11
847.843	65.17
848.015	65.48
848.187	69.39
848.359	70.06
848.531	73.22
848.703	75.01
848.875	74.67
849.047	76.16
849.218	75.22
849.39	74.07
849.562	74.43
849.734	73.56
849.905	73.53
850.077	72.78
850.249	72.26
850.421	72.53
850.592	72.19
850.764	69.36
850.936	68.86
851.107	69.44
851.279	70.47
851.451	70.74
851.622	71.63
851.794	70.24
851.965	68.68
852.137	70.58
852.308	68.53
852.48	66.29
852.651	67.92
852.823	65.88
852.994	64.73
853.166	65.16
853.337	66.6
853.509	63.79
853.68	64.48
853.851	64.48
854.023	61.67
854.194	62.62
854.365	60.94
854.537	63.32
854.708	63.18
854.879	62.71
855.05	63.86
855.222	65.74
855.393	66.3
855.564	66.73
855.735	65.48
855.906	64.12
856.078	62.89
856.249	60.17
856.42	59.63
856.591	62.05
856.762	61.87
856.933	59.49
857.104	57.39
857.275	55.73
857.446	54.19
857.617	58.4
857.788	58.32
857.959	57.42
858.13	65.29
858.301	64.64
858.472	62.63
858.643	62.52
858.814	64.38
858.985	61.24
859.155	61.12
859.326	63.67
859.497	60.82
859.668	64.15
859.839	68.65
860.009	69.42
860.18	68.07
860.351	66.34
860.522	70.94
860.692	67.43
860.863	71.23
861.034	75.29
861.204	73.85
861.375	70.51
861.546	67.74
861.716	67.71
861.887	65.81
862.057	67.34
862.228	69.71
862.398	63.83
862.569	68.05
862.739	67.72
862.91	66.58
863.08	63.81
863.251	63.9
863.421	65.73
863.592	64.31
863.762	62.89
863.932	63.73
864.103	64.59
864.273	67.1
864.443	67.42
864.614	66.5
864.784	63.14
864.954	67.1
865.125	66.41
865.295	68.65
865.465	67.87
865.635	70.03
865.805	68.28
865.976	66.32
866.146	64.8
866.316	62.97
866.486	64.04
866.656	66.03
866.826	68.52
866.996	69.99
867.166	64.63
867.336	70.06
867.506	69.36
867.676	68.47
867.846	73.63
868.016	75.56
868.186	77.96
868.356	81.36
868.526	80.1
868.696	73.95
868.866	76.6
869.036	78.64
869.206	77.25
869.376	80.5
869.545	80.81
869.715	79.09
869.885	80.89
870.055	72.77
870.224	72.97
870.394	72.64
870.564	69.55
870.734	66.64
870.903	68.68
871.073	61.68
871.243	54.87
871.412	53.53
871.582	50.95
871.751	49.11
871.921	51.92
872.091	50.46
872.26	48.35
872.43	50.85
872.599	50.87
872.769	50.85
872.938	55.19
873.108	56.95
873.277	56.66
873.446	55.66
873.616	55.21
873.785	52.79
873.955	52.11
874.124	55.54
874.293	57.11
874.463	59.74
874.632	60.94
874.801	55.76
874.971	59.31
875.14	60.66
875.309	58.99
875.478	61.86
875.647	65.2
875.817	66.36
875.986	68.5
876.155	63.75
876.324	62.36
876.493	59.11
876.662	61.39
876.831	57.44
877	57.65
877.17	58.25
877.339	57.23
877.508	56.46
877.677	56.77
877.846	55.18
878.015	59.01
878.184	57.96
878.352	60.03
878.521	58.68
878.69	58.53
878.859	57.95
879.028	60.09
879.197	56.82
879.366	56.1
879.534	53.05
879.703	53.09
879.872	51.45
880.041	49.17
880.21	46.47
880.378	47.22
880.547	45.46
880.716	45.3
880.884	43.84
881.053	42.65
881.222	41.55
881.39	40.54
881.559	39.89
881.727	39.51
881.896	39.91
882.065	39.85
882.233	38.55
882.402	39.37
882.57	39.06
882.739	38.81
882.907	39.24
883.076	39.36
883.244	39.83
883.412	39.24
883.581	39.3
883.749	39.01
883.918	38.42
884.086	39.23
884.254	38.68
884.423	38.9
884.591	39.03
884.759	39.23
884.927	40.18
885.096	39.44
885.264	40.62
885.432	40.81
885.6	41.88
885.769	43.81
885.937	44.24
886.105	44.17
886.273	44.54
886.441	46.29
886.609	45.68
886.777	42.75
886.945	45.57
887.113	45
887.281	44.51
887.449	44.42
887.617	44.47
887.785	43.77
887.953	44
888.121	43.18
888.289	42.69
888.457	44.34
888.625	46.11
888.793	47.84
888.961	50.95
889.129	52.77
889.296	51.83
889.464	52.38
889.632	54.48
889.8	55.81
889.967	56.77
890.135	56.18
