Data from 2938788__Reflection_06.txt Node
Date: Fri Mar 13 11:48:07 EDT 2015
User: robert
Spectrometer: USB4E03002
Autoset integration time: false
Trigger mode: 4
Integration Time (sec): 1.000000E-1
Scans to average: 10
Electric dark correction enabled: false
Nonlinearity correction enabled: false
Boxcar width: 5
Stray light correction enabled: false
XAxis mode: Wavelengths
Stop averaging: false
Number of Pixels in Spectrum: 3648
>>>>>Begin Spectral Data<<<<<
177.575	-922.5
177.794	-10007.14
178.014	-1336.52
178.233	-962.09
178.452	-663.31
178.672	-496.46
178.891	-529.21
179.11	-519.46
179.33	-529.62
179.549	-609.66
179.768	-684.79
179.987	-1066.91
180.207	-661.15
180.426	-1110.29
180.645	-2076.92
180.864	-7739.02
181.084	2408.96
181.303	3688.76
181.522	1871.75
181.741	4144.59
181.96	1755.68
182.179	791.73
182.398	689.36
182.618	572.38
182.837	608.4
183.056	444.67
183.275	437.38
183.494	477.63
183.713	433.88
183.932	432.69
184.151	431.81
184.37	508.02
184.589	594.35
184.808	723.98
185.027	707.81
185.246	738.06
185.465	2635.04
185.684	1363.14
185.903	1627.59
186.122	1860.34
186.341	6588.24
186.56	2719.83
186.779	3512.05
186.998	1755.75
187.216	-4557.81
187.435	-1149.81
187.654	-1249.4
187.873	-1715.91
188.092	-4239.13
188.311	22546.15
188.53	-3361.73
188.748	8659.38
188.967	-1365.64
189.186	-1640.12
189.405	-822.89
189.623	-2915.69
189.842	6665.96
190.061	2387.69
190.28	3531.52
190.498	-1952.35
190.717	-1483.94
190.936	-1197.41
191.154	-772.71
191.373	-2287.25
191.592	-1911.63
191.81	-1517.62
192.029	-1219.2
192.248	-1158.23
192.466	-4302.82
192.685	-21021.43
192.904	-1059.3
193.122	-5181.82
193.341	1249.6
193.559	701.11
193.778	809.02
193.996	644.38
194.215	717.05
194.433	712.19
194.652	625.93
194.87	1267.99
195.089	960.54
195.307	493.45
195.526	528.03
195.744	592.91
195.963	493.34
196.181	439.98
196.399	478.88
196.618	404.55
196.836	446.82
197.055	536.93
197.273	522.32
197.491	622.65
197.71	592.87
197.928	862.35
198.146	976.21
198.365	9112.5
198.583	-5220.75
198.801	-2152.27
199.019	-2228.12
199.238	-5992
199.456	1968.46
199.674	1082.07
199.892	863.47
200.111	1347.21
200.329	1255.27
200.547	1021.91
200.765	719.8
200.983	659.36
201.202	648.03
201.42	787.68
201.638	841.16
201.856	1429.08
202.074	1731.85
202.292	-4264.52
202.51	16981.25
202.728	9241.38
202.946	-3331.17
203.165	-3402.5
203.383	5357.69
203.601	2177.04
203.819	5330.91
204.037	1057.91
204.255	1172
204.473	1351.15
204.691	741.25
204.909	663.22
205.127	665.85
205.345	748.05
205.562	970.65
205.78	1195.95
205.998	1185.96
206.216	717.57
206.434	1101.14
206.652	633.7
206.87	664.82
207.088	626.89
207.306	906.91
207.523	790.72
207.741	641.44
207.959	561.36
208.177	821.04
208.395	843.47
208.612	1155.77
208.83	815.68
209.048	975.08
209.266	1248.39
209.483	1117.54
209.701	1198.82
209.919	1847.27
210.136	1366.37
210.354	1115.73
210.572	803.7
210.79	591
211.007	619.44
211.225	740.14
211.442	769.37
211.66	544.54
211.878	592.97
212.095	-1446.31
212.313	-3670.21
212.53	-2272.67
212.748	-1615.61
212.966	-2770.09
213.183	-2031.33
213.401	-3048.21
213.618	6205.45
213.836	-19964.71
214.053	-10825.81
214.271	12623.08
214.488	316.52
214.705	333.2
214.923	296.29
215.14	314.94
215.358	364
215.575	387.22
215.793	355.99
216.01	535.06
216.227	475.26
216.445	482.76
216.662	565.27
216.879	733.61
217.097	648.55
217.314	596
217.531	391.9
217.749	330.15
217.966	291.87
218.183	272.82
218.4	259.03
218.618	276.97
218.835	262.66
219.052	249.79
219.269	217.76
219.487	206.1
219.704	215.92
219.921	217.26
220.138	209.28
220.355	205.19
220.572	200.07
220.79	178.17
221.007	174.19
221.224	176.45
221.441	166.2
221.658	163.89
221.875	159.93
222.092	154.97
222.309	147.43
222.526	153.05
222.743	151.67
222.96	141.7
223.177	144.59
223.394	132.14
223.611	128.03
223.828	126.89
224.045	121.34
224.262	119.98
224.479	111.26
224.696	113.55
224.913	100.84
225.13	92.45
225.347	88.68
225.564	84.87
225.781	78.86
225.997	74.22
226.214	66.93
226.431	63.15
226.648	57.5
226.865	53.12
227.082	46.55
227.298	41.73
227.515	37.75
227.732	34.51
227.949	30.32
228.165	28.01
228.382	26.11
228.599	25.42
228.816	24.99
229.032	23.57
229.249	22.19
229.466	21.38
229.682	21.96
229.899	22.63
230.116	22.33
230.332	22.52
230.549	23.4
230.765	24.24
230.982	24.43
231.199	24.58
231.415	26.35
231.632	28.26
231.848	30.11
232.065	31.08
232.281	31.62
232.498	31.6
232.714	32.39
232.931	32.4
233.147	33.54
233.364	33.65
233.58	34.15
233.797	33.11
234.013	34.33
234.23	33.18
234.446	33.41
234.662	32.56
234.879	32.57
235.095	31.95
235.312	32.93
235.528	32.98
235.744	33.53
235.961	34.7
236.177	35.24
236.393	33.59
236.61	36.01
236.826	34.49
237.042	35.31
237.258	36.12
237.475	37.29
237.691	36.64
237.907	36.52
238.123	36.36
238.339	36.2
238.556	36.45
238.772	37.61
238.988	34.43
239.204	34.49
239.42	32.46
239.636	31.61
239.853	30.72
240.069	28.72
240.285	27.16
240.501	25.66
240.717	24.14
240.933	22.63
241.149	20.44
241.365	19.38
241.581	18.91
241.797	18.16
242.013	17.25
242.229	16.25
242.445	16.3
242.661	15.98
242.877	15.8
243.093	15.5
243.309	15.84
243.525	16.46
243.741	16.94
243.957	16.82
244.173	17.69
244.388	18.26
244.604	19.03
244.82	18.93
245.036	18.32
245.252	17.51
245.468	16.9
245.683	16.22
245.899	15.51
246.115	15.26
246.331	14.29
246.547	13.87
246.762	12.97
246.978	12.45
247.194	12.36
247.409	12.37
247.625	12.34
247.841	12.3
248.057	12.01
248.272	12.01
248.488	11.87
248.703	12.38
248.919	12.76
249.135	13.47
249.35	14.63
249.566	14.88
249.782	15.23
249.997	16.22
250.213	16.52
250.428	17.79
250.644	19.01
250.859	18.91
251.075	18.4
251.29	18.54
251.506	17.58
251.721	16.8
251.937	16.45
252.152	16.22
252.368	16.3
252.583	15.98
252.798	16.27
253.014	16.36
253.229	17.43
253.445	18.06
253.66	17.87
253.875	19.1
254.091	20.08
254.306	21.18
254.521	23.11
254.737	23.68
254.952	24.28
255.167	23.49
255.383	22.26
255.598	21.07
255.813	21.36
256.028	20.98
256.244	20.58
256.459	20.87
256.674	20.26
256.889	18.06
257.104	17.81
257.32	17.12
257.535	16.17
257.75	15.49
257.965	15.15
258.18	14.37
258.395	13.65
258.61	12.8
258.826	11.62
259.041	11.26
259.256	11.14
259.471	10.47
259.686	10.28
259.901	9.88
260.116	9.69
260.331	9.28
260.546	9.25
260.761	9.14
260.976	9.39
261.191	9.15
261.406	8.99
261.621	9.28
261.836	9.41
262.05	9.65
262.265	10.2
262.48	10.55
262.695	11.3
262.91	12.03
263.125	12.71
263.34	12.52
263.555	13.79
263.769	14.7
263.984	14.54
264.199	15.11
264.414	14.99
264.629	15.34
264.843	15.94
265.058	16.22
265.273	15.25
265.488	14.53
265.702	14.35
265.917	13.76
266.132	13.3
266.346	13.33
266.561	12.7
266.776	12.88
266.99	13.21
267.205	12.5
267.42	12.15
267.634	11.87
267.849	12.05
268.063	12.8
268.278	12.5
268.492	12.55
268.707	12.36
268.922	12.6
269.136	12.83
269.351	11.9
269.565	12.19
269.78	12.05
269.994	12
270.209	11.55
270.423	10.6
270.637	10.53
270.852	10.2
271.066	10.13
271.281	10.28
271.495	10.09
271.709	10.09
271.924	9.91
272.138	9.89
272.353	10
272.567	10.32
272.781	10.72
272.996	10.93
273.21	11.16
273.424	11.33
273.638	10.64
273.853	10.6
274.067	10.69
274.281	10.93
274.495	11.14
274.71	11.57
274.924	11.58
275.138	11.85
275.352	12.11
275.566	12.66
275.781	12.59
275.995	13.37
276.209	13.43
276.423	13.89
276.637	13.83
276.851	13.69
277.065	13.37
277.279	13.27
277.493	12.52
277.707	12.44
277.921	11.71
278.135	11.46
278.349	11.12
278.563	11
278.777	10.94
278.991	10.66
279.205	10.77
279.419	10.64
279.633	10.06
279.847	10.39
280.061	10.13
280.275	9.55
280.489	9.83
280.703	9.79
280.917	9.67
281.131	9.53
281.344	9.24
281.558	8.89
281.772	8.91
281.986	9.38
282.2	9.43
282.414	9.25
282.627	9.71
282.841	9.53
283.055	9.82
283.269	9.84
283.482	9.64
283.696	10.05
283.91	10.31
284.123	9.85
284.337	9.61
284.551	9.51
284.764	9.81
284.978	9.53
285.192	9.46
285.405	9.33
285.619	8.97
285.833	9.08
286.046	8.87
286.26	8.63
286.473	9.03
286.687	9.16
286.9	9.11
287.114	8.77
287.327	9.07
287.541	9.39
287.754	9.49
287.968	9.98
288.181	9.87
288.395	9.88
288.608	10.2
288.822	10.06
289.035	9.84
289.248	9.55
289.462	9.57
289.675	9.41
289.889	9.12
290.102	8.85
290.315	8.68
290.529	8.86
290.742	8.84
290.955	8.78
291.169	8.84
291.382	9.29
291.595	9.71
291.808	10.07
292.022	10.26
292.235	10.35
292.448	10.44
292.661	10.69
292.875	10.62
293.088	10.66
293.301	10.41
293.514	10.35
293.727	10.04
293.94	10.11
294.153	9.99
294.367	10
294.58	9.87
294.793	9.68
295.006	9.39
295.219	9.22
295.432	9.44
295.645	9.31
295.858	9.07
296.071	8.83
296.284	8.58
296.497	8.29
296.71	8.02
296.923	8.26
297.136	8.41
297.349	8.39
297.562	8.26
297.775	8.1
297.988	8.08
298.201	8.33
298.414	8.4
298.626	8.25
298.839	8.37
299.052	8.5
299.265	8.61
299.478	8.5
299.691	9.14
299.903	9.27
300.116	9.37
300.329	9.71
300.542	9.56
300.755	9.66
300.967	10.13
301.18	10.12
301.393	10.05
301.605	9.73
301.818	9.82
302.031	9.61
302.243	9.59
302.456	9.77
302.669	10.23
302.881	10.43
303.094	10.87
303.307	11.08
303.519	11.29
303.732	11.71
303.944	11.65
304.157	11.89
304.37	11.24
304.582	11.71
304.795	11.65
305.007	11.07
305.22	11.37
305.432	11.19
305.645	10.87
305.857	11.03
306.069	10.97
306.282	10.89
306.494	10.79
306.707	11.44
306.919	11.1
307.132	11.11
307.344	11.22
307.556	11.02
307.769	10.96
307.981	10.8
308.193	10.3
308.406	10.14
308.618	10.26
308.83	10.27
309.043	9.95
309.255	10.07
309.467	10.05
309.679	9.93
309.892	10.03
310.104	10.1
310.316	10.11
310.528	10.16
310.74	10.19
310.953	9.89
311.165	9.92
311.377	10.03
311.589	10.36
311.801	10.2
312.013	10.3
312.225	10.17
312.437	10.06
312.649	10.32
312.862	10.65
313.074	10.77
313.286	11.25
313.498	11.59
313.71	11.62
313.922	11.33
314.134	11.68
314.346	11.9
314.558	11.89
314.77	12.29
314.982	12.7
315.193	12.77
315.405	12.69
315.617	13.05
315.829	12.71
316.041	13.02
316.253	13
316.465	13.27
316.677	12.91
316.888	12.96
317.1	12.9
317.312	12.86
317.524	13.01
317.736	13.56
317.947	13.65
318.159	13.86
318.371	13.96
318.583	14.23
318.794	14.4
319.006	15.02
319.218	15.37
319.43	15.52
319.641	15.51
319.853	15.62
320.064	15.72
320.276	15.48
320.488	16.49
320.699	16.36
320.911	16.98
321.123	16.85
321.334	16.6
321.546	16.85
321.757	16.92
321.969	16.87
322.18	17.37
322.392	16.9
322.603	17.52
322.815	16.64
323.026	17.04
323.238	16.87
323.449	16.54
323.661	16.74
323.872	16.81
324.083	16.82
324.295	16.82
324.506	16.36
324.718	16.34
324.929	16.17
325.14	16.57
325.352	16.76
325.563	17.01
325.774	17.53
325.986	18.11
326.197	18.35
326.408	18.93
326.62	19.38
326.831	19.83
327.042	20.76
327.253	21.27
327.464	21.88
327.676	21.84
327.887	22.41
328.098	23.02
328.309	23.35
328.52	23.72
328.732	23.88
328.943	24.33
329.154	25.32
329.365	25.54
329.576	26.2
329.787	26.62
329.998	28.33
330.209	28.56
330.42	28.98
330.631	29.56
330.842	29.83
331.053	30.28
331.264	30.42
331.475	30.31
331.686	30.73
331.897	31.21
332.108	31.5
332.319	31.09
332.53	31.32
332.741	31.51
332.952	31.84
333.163	32.44
333.374	33.04
333.585	33.63
333.795	34.37
334.006	34.58
334.217	34.44
334.428	34.61
334.639	34.98
334.849	35.12
335.06	35.46
335.271	35.56
335.482	35.86
335.692	35.72
335.903	35.65
336.114	35.2
336.325	35.45
336.535	35.81
336.746	35.68
336.957	35.68
337.167	35.82
337.378	36.05
337.589	36.15
337.799	35.88
338.01	35.85
338.22	36.13
338.431	36.34
338.642	36.19
338.852	36.2
339.063	36.74
339.273	36.79
339.484	36.91
339.694	36.54
339.905	36.58
340.115	37.02
340.326	37.37
340.536	37.4
340.746	37.72
340.957	37.93
341.167	37.67
341.378	37.68
341.588	37.51
341.799	37.61
342.009	37.83
342.219	37.74
342.43	37.56
342.64	37.37
342.85	37.06
343.061	36.85
343.271	36.9
343.481	36.93
343.691	36.77
343.902	37.26
344.112	36.8
344.322	36.72
344.532	36.61
344.743	36.08
344.953	36.08
345.163	35.99
345.373	35.48
345.583	35.43
345.793	35.61
346.004	35.46
346.214	34.86
346.424	35.01
346.634	35.06
346.844	34.99
347.054	35.39
347.264	35.19
347.474	35.45
347.684	35.81
347.894	35.78
348.104	35.69
348.314	35.62
348.524	35.89
348.734	35.99
348.944	35.95
349.154	35.83
349.364	35.89
349.574	35.88
349.784	35.84
349.994	36.11
350.204	35.84
350.413	35.56
350.623	35.43
350.833	35.3
351.043	35.11
351.253	34.93
351.463	34.99
351.672	35.15
351.882	35.1
352.092	34.99
352.302	34.81
352.511	35.05
352.721	34.99
352.931	35.09
353.141	35.14
353.35	35.07
353.56	34.78
353.77	34.77
353.979	34.51
354.189	34.63
354.399	34.65
354.608	34.55
354.818	34.18
355.027	34.06
355.237	33.93
355.447	33.98
355.656	33.94
355.866	34.16
356.075	34.1
356.285	33.95
356.494	34.05
356.704	33.83
356.913	33.78
357.123	33.79
357.332	33.74
357.542	33.73
357.751	33.44
357.96	33.6
358.17	33.28
358.379	33.33
358.589	33.44
358.798	33.1
359.007	33.19
359.217	33.01
359.426	33
359.635	33.21
359.845	33.09
360.054	32.85
360.263	32.6
360.472	32.54
360.682	32.19
360.891	31.86
361.1	31.6
361.309	31.58
361.519	31.61
361.728	31.43
361.937	31.2
362.146	31.14
362.355	31.34
362.564	31.5
362.774	31.69
362.983	31.83
363.192	32.14
363.401	32.52
363.61	32.57
363.819	32.68
364.028	32.96
364.237	33.17
364.446	33.22
364.655	33.14
364.864	32.81
365.073	32.81
365.282	32.91
365.491	32.83
365.7	32.77
365.909	32.49
366.118	32.34
366.327	32.06
366.536	31.93
366.745	31.81
366.954	31.85
367.162	32.1
367.371	32.11
367.58	32.14
367.789	31.91
367.998	31.95
368.207	32.14
368.415	32.19
368.624	32.46
368.833	32.5
369.042	32.69
369.25	32.69
369.459	32.7
369.668	32.51
369.877	32.15
370.085	32.06
370.294	31.95
370.503	31.84
370.711	31.6
370.92	31.27
371.129	31.3
371.337	31.05
371.546	30.95
371.754	30.94
371.963	30.8
372.171	30.9
372.38	31.14
372.589	31
372.797	30.87
373.006	31.13
373.214	31.22
373.423	31.17
373.631	31.27
373.84	31.38
374.048	31.03
374.256	31.23
374.465	31.23
374.673	31.12
374.882	31.06
375.09	31.18
375.298	30.96
375.507	30.96
375.715	30.82
375.923	30.81
376.132	30.4
376.34	30.58
376.548	30.28
376.757	30.28
376.965	30.27
377.173	30.2
377.381	30.09
377.59	30.22
377.798	30.18
378.006	30.15
378.214	30.02
378.423	30.3
378.631	30.12
378.839	30.28
379.047	30.22
379.255	30.17
379.463	30.36
379.671	30.33
379.879	30.26
380.088	30.05
380.296	30.13
380.504	30.08
380.712	29.95
380.92	29.94
381.128	29.95
381.336	29.75
381.544	29.4
381.752	29.23
381.96	29.22
382.168	29.03
382.376	29.29
382.584	29.23
382.791	29.39
382.999	29.31
383.207	29.25
383.415	29.23
383.623	29.31
383.831	29.36
384.039	29.42
384.247	29.32
384.454	29.47
384.662	29.3
384.87	29.2
385.078	29.07
385.285	28.92
385.493	28.91
385.701	28.8
385.909	28.74
386.116	28.92
386.324	28.76
386.532	28.77
386.739	28.62
386.947	28.69
387.155	28.77
387.362	28.79
387.57	28.85
387.778	28.9
387.985	28.88
388.193	28.85
388.4	28.68
388.608	28.88
388.816	28.8
389.023	28.88
389.231	28.71
389.438	28.5
389.646	28.49
389.853	28.6
390.061	28.53
390.268	28.61
390.475	28.71
390.683	28.69
390.89	28.63
391.098	28.66
391.305	28.55
391.512	28.47
391.72	28.59
391.927	28.41
392.135	28.43
392.342	28.4
392.549	28.31
392.756	27.99
392.964	27.99
393.171	27.99
393.378	27.83
393.586	27.81
393.793	27.87
394	27.62
394.207	27.82
394.414	27.77
394.622	27.62
394.829	27.55
395.036	27.75
395.243	27.8
395.45	27.65
395.657	27.73
395.864	27.72
396.072	27.8
396.279	28.12
396.486	28.05
396.693	28.05
396.9	28.13
397.107	28.19
397.314	28.29
397.521	28.25
397.728	28.28
397.935	28.2
398.142	28.24
398.349	28.27
398.556	28.26
398.763	28.13
398.97	27.87
399.177	28.02
399.383	27.95
399.59	27.97
399.797	27.79
400.004	27.62
400.211	27.77
400.418	27.79
400.625	27.66
400.831	27.48
401.038	27.51
401.245	27.71
401.452	27.58
401.658	27.58
401.865	27.66
402.072	27.89
402.279	28.09
402.485	28.02
402.692	27.88
402.899	28.11
403.105	28.27
403.312	28.39
403.519	28.38
403.725	28.59
403.932	28.73
404.138	28.57
404.345	28.57
404.552	28.44
404.758	28.4
404.965	28.2
405.171	28.05
405.378	27.98
405.584	27.88
405.791	27.79
405.997	27.61
406.204	27.64
406.41	27.48
406.617	27.41
406.823	27.55
407.029	27.51
407.236	27.8
407.442	27.82
407.649	27.76
407.855	27.9
408.061	27.95
408.268	27.75
408.474	27.55
408.68	27.54
408.887	27.57
409.093	27.53
409.299	27.59
409.505	27.48
409.712	27.35
409.918	27.26
410.124	27.13
410.33	27.11
410.537	27.26
410.743	27.45
410.949	27.63
411.155	27.55
411.361	27.45
411.567	27.46
411.773	27.61
411.98	27.7
412.186	27.88
412.392	27.94
412.598	28.03
412.804	27.98
413.01	27.74
413.216	27.76
413.422	27.68
413.628	27.74
413.834	27.84
414.04	27.66
414.246	27.61
414.452	27.41
414.658	27.35
414.864	27.08
415.07	27.2
415.275	27.22
415.481	27.08
415.687	27.03
415.893	26.91
416.099	26.66
416.305	26.69
416.511	26.65
416.716	26.53
416.922	26.45
417.128	26.52
417.334	26.3
417.539	26.28
417.745	26.06
417.951	26.06
418.157	26.02
418.362	26.02
418.568	25.94
418.774	25.8
418.979	25.78
419.185	25.62
419.391	25.52
419.596	25.57
419.802	25.47
420.008	25.55
420.213	25.8
420.419	25.79
420.624	25.77
420.83	25.76
421.035	25.78
421.241	25.82
421.446	25.89
421.652	25.92
421.857	25.87
422.063	25.81
422.268	25.8
422.474	25.55
422.679	25.53
422.885	25.47
423.09	25.45
423.295	25.47
423.501	25.5
423.706	25.46
423.911	25.38
424.117	25.31
424.322	25.28
424.527	25.3
424.733	25.26
424.938	25.31
425.143	25.36
425.349	25.28
425.554	25.23
425.759	25.23
425.964	25.22
426.169	25.32
426.375	25.32
426.58	25.44
426.785	25.43
426.99	25.49
427.195	25.46
427.4	25.4
427.605	25.6
427.811	25.78
428.016	25.75
428.221	25.92
428.426	25.95
428.631	26.08
428.836	26.15
429.041	26.23
429.246	26.21
429.451	26.25
429.656	26.32
429.861	26.36
430.066	26.26
430.271	26.34
430.476	26.29
430.681	26.33
430.886	26.33
431.09	26.28
431.295	26.2
431.5	26.27
431.705	26.25
431.91	26.39
432.115	26.3
432.32	26.35
432.524	26.2
432.729	26.33
432.934	26.25
433.139	26.2
433.343	26.34
433.548	26.46
433.753	26.56
433.958	26.71
434.162	26.77
434.367	26.99
434.572	27.16
434.776	27.42
434.981	27.55
435.186	27.87
435.39	28.23
435.595	28.28
435.799	28.26
436.004	28.2
436.209	28.08
436.413	28.03
436.618	27.79
436.822	27.62
437.027	27.43
437.231	27.18
437.436	26.96
437.64	26.73
437.845	26.57
438.049	26.52
438.253	26.45
438.458	26.44
438.662	26.28
438.867	26.22
439.071	26.13
439.275	26.05
439.48	26.01
439.684	25.83
439.888	25.73
440.093	25.71
440.297	25.69
440.501	25.72
440.706	25.66
440.91	25.67
441.114	25.71
441.318	25.75
441.523	25.77
441.727	25.84
441.931	26.04
442.135	26.17
442.339	26.2
442.543	26.24
442.748	26.27
442.952	26.32
443.156	26.34
443.36	26.31
443.564	26.31
443.768	26.39
443.972	26.24
444.176	26.1
444.38	25.97
444.584	25.94
444.788	25.81
444.992	25.71
445.196	25.71
445.4	25.68
445.604	25.75
445.808	25.74
446.012	25.68
446.216	25.73
446.42	25.84
446.624	25.77
446.828	25.64
447.032	25.66
447.235	25.67
447.439	25.66
447.643	25.7
447.847	25.62
448.051	25.58
448.254	25.58
448.458	25.64
448.662	25.59
448.866	25.64
449.069	25.85
449.273	25.96
449.477	25.96
449.681	25.99
449.884	26.08
450.088	26.36
450.292	26.44
450.495	26.49
450.699	26.47
450.902	26.38
451.106	26.44
451.31	26.48
451.513	26.54
451.717	26.59
451.92	26.49
452.124	26.43
452.327	26.17
452.531	26.11
452.734	26.07
452.938	26.03
453.141	26.16
453.345	26.26
453.548	26.33
453.752	26.33
453.955	26.26
454.158	26.35
454.362	26.38
454.565	26.47
454.769	26.52
454.972	26.56
455.175	26.67
455.379	26.62
455.582	26.61
455.785	26.47
455.988	26.43
456.192	26.49
456.395	26.46
456.598	26.51
456.801	26.58
457.005	26.65
457.208	26.66
457.411	26.61
457.614	26.55
457.817	26.37
458.021	26.33
458.224	26.27
458.427	26.15
458.63	26.16
458.833	26.08
459.036	25.97
459.239	25.9
459.442	25.78
459.645	25.67
459.848	25.7
460.051	25.77
460.254	25.8
460.457	25.8
460.66	25.88
460.863	25.89
461.066	25.89
461.269	25.83
461.472	25.92
461.675	25.97
461.878	26.08
462.081	26.03
462.284	26.1
462.486	26.07
462.689	26.14
462.892	26.17
463.095	26.14
463.298	26.13
463.5	26.28
463.703	26.11
463.906	26.23
464.109	26.24
464.311	26.26
464.514	26.21
464.717	26.29
464.92	26.28
465.122	26.31
465.325	26.32
465.528	26.36
465.73	26.4
465.933	26.43
466.135	26.45
466.338	26.33
466.541	26.37
466.743	26.35
466.946	26.28
467.148	26.34
467.351	26.33
467.553	26.36
467.756	26.37
467.958	26.22
468.161	26.32
468.363	26.26
468.566	26.42
468.768	26.41
468.971	26.43
469.173	26.45
469.375	26.45
469.578	26.5
469.78	26.48
469.983	26.44
470.185	26.57
470.387	26.53
470.59	26.52
470.792	26.4
470.994	26.56
471.196	26.57
471.399	26.56
471.601	26.61
471.803	26.52
472.005	26.42
472.208	26.47
472.41	26.5
472.612	26.47
472.814	26.43
473.016	26.5
473.218	26.43
473.421	26.44
473.623	26.44
473.825	26.37
474.027	26.4
474.229	26.53
474.431	26.48
474.633	26.46
474.835	26.51
475.037	26.64
475.239	26.56
475.441	26.57
475.643	26.56
475.845	26.52
476.047	26.49
476.249	26.47
476.451	26.41
476.653	26.37
476.855	26.36
477.057	26.32
477.258	26.26
477.46	26.29
477.662	26.22
477.864	26.18
478.066	26.22
478.268	26.13
478.469	26.13
478.671	26.15
478.873	26.23
479.075	26.08
479.276	26.02
479.478	26.04
479.68	26
479.882	25.97
480.083	25.95
480.285	25.93
480.487	26.01
480.688	25.94
480.89	25.85
481.091	25.76
481.293	25.81
481.495	25.84
481.696	25.77
481.898	25.73
482.099	25.66
482.301	25.6
482.502	25.52
482.704	25.46
482.905	25.42
483.107	25.34
483.308	25.32
483.51	25.22
483.711	25.2
483.913	25.14
484.114	25.15
484.315	25.16
484.517	25.14
484.718	25.13
484.92	25.12
485.121	25.14
485.322	25.19
485.524	25.18
485.725	25.26
485.926	25.25
486.127	25.35
486.329	25.35
486.53	25.34
486.731	25.36
486.932	25.36
487.134	25.37
487.335	25.36
487.536	25.34
487.737	25.35
487.938	25.35
488.139	25.39
488.341	25.39
488.542	25.37
488.743	25.41
488.944	25.42
489.145	25.47
489.346	25.51
489.547	25.51
489.748	25.53
489.949	25.58
490.15	25.6
490.351	25.6
490.552	25.57
490.753	25.58
490.954	25.57
491.155	25.61
491.356	25.62
491.557	25.63
491.758	25.68
491.959	25.68
492.159	25.67
492.36	25.66
492.561	25.69
492.762	25.7
492.963	25.78
493.164	25.8
493.364	25.83
493.565	25.85
493.766	25.8
493.967	25.69
494.167	25.85
494.368	25.89
494.569	26
494.769	25.99
494.97	26.1
495.171	26.13
495.371	26.23
495.572	26.14
495.773	26.18
495.973	26.29
496.174	26.47
496.375	26.43
496.575	26.47
496.776	26.53
496.976	26.54
497.177	26.54
497.377	26.43
497.578	26.46
497.778	26.56
497.979	26.62
498.179	26.6
498.38	26.56
498.58	26.6
498.78	26.6
498.981	26.63
499.181	26.68
499.382	26.71
499.582	26.83
499.782	26.87
499.983	26.93
500.183	26.99
500.383	27
500.584	27.05
500.784	27.04
500.984	27.15
501.184	27.1
501.385	27.2
501.585	27.16
501.785	27.2
501.985	27.22
502.185	27.24
502.386	27.21
502.586	27.22
502.786	27.31
502.986	27.38
503.186	27.37
503.386	27.37
503.586	27.22
503.786	27.28
503.987	27.31
504.187	27.31
504.387	27.28
504.587	27.31
504.787	27.33
504.987	27.36
505.187	27.39
505.387	27.43
505.587	27.54
505.786	27.6
505.986	27.56
506.186	27.6
506.386	27.57
506.586	27.74
506.786	27.68
506.986	27.76
507.186	27.7
507.386	27.69
507.585	27.72
507.785	27.7
507.985	27.76
508.185	27.86
508.384	27.85
508.584	27.89
508.784	27.81
508.984	27.93
509.183	27.99
509.383	28.03
509.583	28.03
509.782	28
509.982	28.02
510.182	28.01
510.381	28.06
510.581	28.07
510.781	28.13
510.98	28.19
511.18	28.2
511.379	28.21
511.579	28.28
511.778	28.34
511.978	28.41
512.177	28.53
512.377	28.55
512.576	28.52
512.776	28.57
512.975	28.67
513.175	28.75
513.374	28.73
513.573	28.77
513.773	28.85
513.972	28.87
514.172	28.88
514.371	28.98
514.57	29.05
514.77	29.08
514.969	29.17
515.168	29.2
515.367	29.25
515.567	29.35
515.766	29.37
515.965	29.44
516.164	29.5
516.364	29.59
516.563	29.42
516.762	29.49
516.961	29.54
517.16	29.53
517.359	29.55
517.559	29.59
517.758	29.59
517.957	29.63
518.156	29.54
518.355	29.55
518.554	29.48
518.753	29.61
518.952	29.61
519.151	29.62
519.35	29.66
519.549	29.7
519.748	29.71
519.947	29.72
520.146	29.77
520.345	29.93
520.544	30.02
520.743	30.16
520.942	30.16
521.141	30.26
521.339	30.39
521.538	30.44
521.737	30.49
521.936	30.48
522.135	30.64
522.333	30.71
522.532	30.77
522.731	30.8
522.93	30.8
523.129	30.91
523.327	31.02
523.526	31.08
523.725	31.12
523.923	31.12
524.122	31.15
524.321	31.21
524.519	31.2
524.718	31.14
524.917	31.13
525.115	31.14
525.314	31.07
525.512	31.08
525.711	31.03
525.909	31.04
526.108	31.05
526.306	31.09
526.505	31.03
526.703	31.02
526.902	31.03
527.1	30.96
527.299	30.92
527.497	30.95
527.696	30.9
527.894	30.88
528.092	30.89
528.291	30.89
528.489	30.88
528.688	30.87
528.886	30.91
529.084	30.88
529.283	30.95
529.481	31.03
529.679	31.07
529.877	31.12
530.076	31.18
530.274	31.2
530.472	31.29
530.67	31.35
530.869	31.42
531.067	31.47
531.265	31.61
531.463	31.66
531.661	31.63
531.859	31.59
532.057	31.64
532.255	31.65
532.454	31.74
532.652	31.69
532.85	31.72
533.048	31.77
533.246	31.76
533.444	31.78
533.642	31.84
533.84	31.91
534.038	32.05
534.236	32.05
534.434	32.14
534.632	32.11
534.83	32.26
535.027	32.29
535.225	32.37
535.423	32.43
535.621	32.47
535.819	32.44
536.017	32.5
536.215	32.51
536.412	32.62
536.61	32.65
536.808	32.73
537.006	32.76
537.203	32.83
537.401	32.91
537.599	32.99
537.797	33.13
537.994	33.28
538.192	33.47
538.39	33.67
538.587	33.87
538.785	34.09
538.983	34.34
539.18	34.49
539.378	34.71
539.575	34.86
539.773	35.06
539.97	35.11
540.168	35.26
540.366	35.4
540.563	35.42
540.761	35.42
540.958	35.41
541.155	35.44
541.353	35.45
541.55	35.52
541.748	35.53
541.945	35.52
542.143	35.63
542.34	35.69
542.537	35.68
542.735	35.78
542.932	35.89
543.129	36.15
543.327	36.31
543.524	36.64
543.721	36.89
543.919	37.29
544.116	37.66
544.313	38.09
544.51	38.5
544.708	38.92
544.905	39.37
545.102	39.81
545.299	40.01
545.496	40.32
545.693	40.42
545.891	40.38
546.088	40.34
546.285	40.23
546.482	40.02
546.679	39.8
546.876	39.58
547.073	39.31
547.27	39.04
547.467	38.82
547.664	38.54
547.861	38.28
548.058	38.23
548.255	38.11
548.452	38.06
548.649	38.05
548.846	38.07
549.043	38.05
549.24	38.04
549.437	37.9
549.633	37.87
549.83	37.9
550.027	37.88
550.224	37.69
550.421	37.48
550.618	37.3
550.814	37.17
551.011	37.02
551.208	36.97
551.405	36.75
551.601	36.8
551.798	36.64
551.995	36.45
552.191	36.38
552.388	36.45
552.585	36.39
552.781	36.39
552.978	36.3
553.175	36.28
553.371	36.28
553.568	36.2
553.764	36.09
553.961	36.11
554.157	36.06
554.354	36.1
554.55	36.02
554.747	36.09
554.943	36.05
555.14	36.03
555.336	35.93
555.533	35.9
555.729	36
555.926	36.04
556.122	36.07
556.318	36.14
556.515	36.12
556.711	36.21
556.907	36.21
557.104	36.28
557.3	36.34
557.496	36.44
557.693	36.32
557.889	36.36
558.085	36.39
558.281	36.52
558.478	36.59
558.674	36.5
558.87	36.4
559.066	36.47
559.262	36.48
559.459	36.33
559.655	36.33
559.851	36.39
560.047	36.39
560.243	36.38
560.439	36.38
560.635	36.36
560.831	36.45
561.027	36.62
561.223	36.55
561.419	36.5
561.615	36.62
561.811	36.73
562.007	36.74
562.203	36.86
562.399	36.81
562.595	36.63
562.791	36.73
562.987	36.75
563.183	36.51
563.379	36.57
563.575	36.71
563.771	36.77
563.966	36.7
564.162	36.8
564.358	36.77
564.554	36.92
564.75	36.92
564.945	36.86
565.141	36.83
565.337	36.87
565.533	36.86
565.728	36.76
565.924	36.65
566.12	36.55
566.315	36.47
566.511	36.38
566.707	36.36
566.902	36.34
567.098	36.47
567.293	36.52
567.489	36.61
567.684	36.6
567.88	36.51
568.076	36.62
568.271	36.76
568.467	36.84
568.662	36.8
568.858	36.82
569.053	37.04
569.248	36.85
569.444	36.89
569.639	36.77
569.835	36.81
570.03	36.89
570.225	36.8
570.421	36.73
570.616	36.63
570.812	36.61
571.007	36.52
571.202	36.38
571.397	36.45
571.593	36.35
571.788	36.57
571.983	36.55
572.178	36.63
572.374	36.78
572.569	36.93
572.764	37.04
572.959	37.14
573.154	37.25
573.35	37.26
573.545	37.35
573.74	37.35
573.935	37.34
574.13	37.3
574.325	37.41
574.52	37.51
574.715	37.55
574.91	37.6
575.105	37.78
575.3	37.79
575.495	37.94
575.69	38.05
575.885	38.24
576.08	38.38
576.275	38.63
576.47	38.79
576.665	38.84
576.86	38.94
577.055	39.07
577.25	39.14
577.444	39.39
577.639	39.59
577.834	39.73
578.029	39.85
578.224	39.82
578.418	39.96
578.613	39.96
578.808	40.09
579.003	40.2
579.197	40.33
579.392	40.24
579.587	40.14
579.781	40.18
579.976	40.12
580.171	40.26
580.365	40.38
580.56	40.41
580.755	40.62
580.949	40.6
581.144	40.58
581.338	40.58
581.533	40.77
581.727	40.91
581.922	40.92
582.116	41.13
582.311	41.23
582.505	41.14
582.7	41.16
582.894	41.17
583.089	41.26
583.283	41.36
583.478	41.42
583.672	41.48
583.866	41.44
584.061	41.46
584.255	41.23
584.449	41.31
584.644	41.52
584.838	41.63
585.032	41.62
585.226	41.86
585.421	42.11
585.615	42.27
585.809	42.3
586.003	42.62
586.198	42.58
586.392	42.92
586.586	42.84
586.78	43.02
586.974	42.94
587.168	42.89
587.363	42.77
587.557	42.39
587.751	42.32
587.945	42.2
588.139	41.99
588.333	41.8
588.527	41.63
588.721	41.61
588.915	41.28
589.109	41.19
589.303	41.21
589.497	40.99
589.691	41.09
589.885	41.02
590.079	41.07
590.273	41.03
590.466	41.41
590.66	41.48
590.854	41.66
591.048	41.94
591.242	42.19
591.436	42.35
591.629	42.71
591.823	43.06
592.017	43.25
592.211	43.42
592.404	43.52
592.598	43.52
592.792	43.67
592.986	43.59
593.179	43.27
593.373	43.09
593.567	42.99
593.76	42.64
593.954	42.41
594.147	42.24
594.341	42.07
594.535	42.04
594.728	41.86
594.922	41.61
595.115	41.48
595.309	41.37
595.502	41.29
595.696	41.2
595.889	41.26
596.083	41.12
596.276	41.05
596.47	41.19
596.663	41.06
596.856	41.09
597.05	41.19
597.243	41.25
597.437	41.45
597.63	41.69
597.823	41.84
598.017	41.97
598.21	42.2
598.403	42.36
598.596	42.41
598.79	42.74
598.983	42.86
599.176	42.96
599.369	43.07
599.563	43.25
599.756	43.32
599.949	43.31
600.142	43.29
600.335	43.31
600.528	43.38
600.722	43.43
600.915	43.29
601.108	43.34
601.301	43.3
601.494	43.24
601.687	42.97
601.88	42.77
602.073	42.57
602.266	42.4
602.459	42.19
602.652	41.99
602.845	41.78
603.038	41.61
603.231	41.51
603.424	41.37
603.617	41.24
603.809	41.22
604.002	41.23
604.195	41.25
604.388	41.29
604.581	41.34
604.774	41.4
604.966	41.48
605.159	41.56
605.352	41.62
605.545	41.82
605.737	42.02
605.93	42.19
606.123	42.25
606.316	42.5
606.508	42.87
606.701	43.03
606.894	43.33
607.086	43.56
607.279	43.8
607.471	44.1
607.664	44.31
607.857	44.66
608.049	45.27
608.242	46
608.434	46.8
608.627	47.74
608.819	49.1
609.012	50.51
609.204	52.22
609.397	54.23
609.589	56.21
609.782	58.45
609.974	60.7
610.166	62.88
610.359	65.05
610.551	67.02
610.743	68.79
610.936	70.18
611.128	71.34
611.32	72.22
611.513	72.62
611.705	72.72
611.897	72.33
612.09	71.84
612.282	70.99
612.474	70.01
612.666	69
612.858	67.95
613.051	66.95
613.243	65.7
613.435	64.43
613.627	63.41
613.819	62.44
614.011	61.66
614.203	60.6
614.395	59.82
614.588	58.83
614.78	57.9
614.972	56.87
615.164	55.99
615.356	55.32
615.548	54.5
615.74	53.73
615.932	52.78
616.124	52.02
616.315	51.47
616.507	50.76
616.699	50.3
616.891	49.72
617.083	49.25
617.275	48.77
617.467	48.49
617.659	48.16
617.85	48.04
618.042	48
618.234	47.76
618.426	47.42
618.618	47.2
618.809	46.96
619.001	47.01
619.193	47.01
619.384	47.07
619.576	47.03
619.768	47.21
619.959	47
620.151	46.89
620.343	46.87
620.534	47.01
620.726	47.18
620.917	47.34
621.109	47.28
621.301	47.44
621.492	47.3
621.684	47.29
621.875	47.04
622.067	47.18
622.258	47.55
622.45	47.89
622.641	47.8
622.832	47.93
623.024	48.1
623.215	48.08
623.407	47.92
623.598	47.95
623.789	47.92
623.981	47.93
624.172	47.91
624.363	47.7
624.555	47.44
624.746	47.38
624.937	47.22
625.129	46.97
625.32	46.85
625.511	46.76
625.702	46.65
625.893	46.78
626.085	46.89
626.276	46.71
626.467	46.6
626.658	46.46
626.849	46.43
627.04	46.35
627.231	46.37
627.422	46.47
627.614	46.49
627.805	46.58
627.996	46.47
628.187	46.56
628.378	46.75
628.569	47.04
628.76	47.47
628.951	47.79
629.142	48.05
629.332	48.35
629.523	48.66
629.714	49.07
629.905	49.52
630.096	49.74
630.287	49.93
630.478	50.02
630.669	49.98
630.859	49.81
631.05	49.72
631.241	49.52
631.432	49.13
631.623	48.89
631.813	48.52
632.004	48.03
632.195	47.47
632.385	47.08
632.576	46.9
632.767	46.48
632.957	46.32
633.148	46.13
633.339	46.08
633.529	45.97
633.72	45.69
633.91	45.62
634.101	45.66
634.292	45.71
634.482	45.66
634.673	45.73
634.863	45.74
635.054	45.53
635.244	45.42
635.435	45.39
635.625	45.32
635.815	45.33
636.006	45.31
636.196	45.18
636.387	45.19
636.577	45.29
636.767	45.02
636.958	44.94
637.148	45.02
637.338	44.87
637.529	44.83
637.719	45.04
637.909	45.08
638.099	45.08
638.29	45.24
638.48	45.29
638.67	45.41
638.86	45.53
639.05	45.88
639.241	45.98
639.431	46.05
639.621	46.15
639.811	46.15
640.001	46.31
640.191	46.34
640.381	46.17
640.571	46.2
640.761	46.07
640.951	46.26
641.141	45.88
641.331	46.02
641.521	46.07
641.711	46.07
641.901	45.87
642.091	45.69
642.281	45.62
642.471	45.65
642.661	45.78
642.851	45.84
643.041	45.67
643.231	45.83
643.42	45.75
643.61	45.94
643.8	45.95
643.99	46.27
644.18	46.52
644.369	46.58
644.559	46.79
644.749	47
644.939	46.85
645.128	46.9
645.318	46.8
645.508	46.72
645.697	46.61
645.887	46.47
646.076	46.34
646.266	46.26
646.456	46.47
646.645	46.34
646.835	46.08
647.024	46.16
647.214	46.06
647.403	46.11
647.593	46.28
647.782	46.59
647.972	46.84
648.161	47.05
648.351	47.13
648.54	46.75
648.73	46.88
648.919	47.16
649.108	47.17
649.298	47.51
649.487	47.87
649.677	47.89
649.866	47.73
650.055	47.65
650.244	47.66
650.434	47.56
650.623	47.92
650.812	47.91
651.002	47.72
651.191	47.8
651.38	47.83
651.569	47.72
651.758	47.65
651.947	47.77
652.137	47.75
652.326	47.87
652.515	47.84
652.704	47.48
652.893	47.66
653.082	47.56
653.271	47.52
653.46	47.43
653.649	47.53
653.838	47.35
654.027	47.35
654.216	47.42
654.405	47.26
654.594	47.39
654.783	47.82
654.972	47.38
655.161	47.59
655.35	47.74
655.539	47.61
655.728	47.4
655.916	47.6
656.105	47.37
656.294	47.35
656.483	47.3
656.672	47.27
656.86	47.14
657.049	47.35
657.238	47.16
657.427	47.16
657.615	47.1
657.804	46.97
657.993	46.87
658.181	46.91
658.37	46.8
658.559	46.85
658.747	46.89
658.936	46.96
659.125	46.89
659.313	47.07
659.502	47.14
659.69	47.04
659.879	47.05
660.067	47.17
660.256	47.13
660.444	47.35
660.633	47.39
660.821	47.28
661.01	47.39
661.198	47.59
661.387	47.47
661.575	47.55
661.763	47.92
661.952	48.25
662.14	48.28
662.328	48.58
662.517	48.68
662.705	48.63
662.893	48.8
663.082	48.8
663.27	48.81
663.458	48.95
663.646	48.9
663.834	49.16
664.023	49.08
664.211	49.2
664.399	49.38
664.587	49.19
664.775	49.06
664.963	49.26
665.152	49.6
665.34	49.45
665.528	49.7
665.716	49.77
665.904	49.41
666.092	49.56
666.28	49.72
666.468	49.52
666.656	49.63
666.844	49.76
667.032	49.81
667.22	49.44
667.408	49.78
667.596	49.76
667.784	49.51
667.971	49.53
668.159	49.51
668.347	49.35
668.535	49.36
668.723	49.2
668.911	49.17
669.098	49.19
669.286	49.21
669.474	49.12
669.662	48.94
669.849	49.08
670.037	49.12
670.225	49.1
670.413	49.31
670.6	49.23
670.788	49.53
670.976	49.86
671.163	49.48
671.351	49.68
671.538	49.83
671.726	50.08
671.913	49.96
672.101	49.76
672.289	49.81
672.476	49.64
672.664	49.84
672.851	49.74
673.039	49.46
673.226	49.64
673.413	49.39
673.601	49.11
673.788	49.26
673.976	49.52
674.163	49.68
674.35	49.92
674.538	50.04
674.725	50.27
674.912	50.2
675.1	50.49
675.287	50.76
675.474	50.73
675.662	51.07
675.849	50.78
676.036	50.89
676.223	51.08
676.411	50.95
676.598	50.84
676.785	50.45
676.972	50.56
677.159	50.41
677.346	50.11
677.533	50.17
677.721	49.74
677.908	49.64
678.095	49.25
678.282	49.05
678.469	48.88
678.656	48.85
678.843	48.91
679.03	48.76
679.217	48.93
679.404	49.13
679.591	49.08
679.778	49.26
679.964	49.38
680.151	49.69
680.338	49.54
680.525	49.59
680.712	49.51
680.899	49.46
681.086	49.51
681.272	49.46
681.459	49.32
681.646	49.53
681.833	49.53
682.02	49.56
682.206	49.68
682.393	50.02
682.58	49.92
682.766	50.13
682.953	50.48
683.14	50.54
683.326	50.62
683.513	50.98
683.7	50.89
683.886	51.12
684.073	51.42
684.259	51.29
684.446	51.33
684.632	51.66
684.819	51.75
685.005	51.68
685.192	52
685.378	52.27
685.565	52.35
685.751	52.69
685.938	52.62
686.124	52.37
686.31	52.51
686.497	52.5
686.683	52.57
686.87	52.52
687.056	52.57
687.242	52.46
687.429	52.38
687.615	52.2
687.801	51.98
687.987	52.18
688.174	52.3
688.36	52.3
688.546	52.59
688.732	52.5
688.918	52.48
689.105	52.53
689.291	52.73
689.477	52.84
689.663	52.92
689.849	52.88
690.035	52.47
690.221	52.55
690.407	52.54
690.593	52.44
690.779	52.47
690.965	52.73
691.151	52.72
691.337	52.74
691.523	52.93
691.709	53.01
691.895	53.28
692.081	53.74
692.267	53.97
692.453	54.1
692.639	54.13
692.825	54.08
693.011	54.11
693.196	54.29
693.382	54.35
693.568	54.15
693.754	54.02
693.94	53.71
694.125	53.43
694.311	53.07
694.497	53.13
694.682	52.76
694.868	53.06
695.054	52.91
695.239	52.86
695.425	52.54
695.611	52.38
695.796	52.08
695.982	51.97
696.168	51.7
696.353	51.54
696.539	51.24
696.724	51.04
696.91	50.89
697.095	50.76
697.281	50.65
697.466	50.63
697.652	50.39
697.837	50.41
698.023	50.39
698.208	50.3
698.393	50.53
698.579	50.54
698.764	50.66
698.949	50.56
699.135	50.26
699.32	50.18
699.505	50.27
699.691	50.38
699.876	50.51
700.061	50.63
700.246	51.07
700.432	51.03
700.617	50.92
700.802	51.17
700.987	51.39
701.172	52.06
701.358	52.43
701.543	52.21
701.728	52.52
701.913	52.69
702.098	52.87
702.283	53.09
702.468	53.49
702.653	54
702.838	54.6
703.023	55
703.208	55.13
703.393	55.46
703.578	55.92
703.763	56.28
703.948	56.67
704.133	57.1
704.318	57.11
704.503	57.26
704.688	57.9
704.873	58.18
705.057	58.55
705.242	58.93
705.427	59.02
705.612	59.55
705.797	59.85
705.981	60.13
706.166	60.87
706.351	61.66
706.536	61.71
706.72	61.45
706.905	61.55
707.09	61.5
707.274	61.72
707.459	61.84
707.644	62.05
707.828	62.09
708.013	62.45
708.197	61.95
708.382	61.56
708.567	61.49
708.751	61.57
708.936	61.13
709.12	61.02
709.305	60.66
709.489	60.79
709.673	60.44
709.858	60.03
710.042	59.93
710.227	60
710.411	59.94
710.596	60.1
710.78	60.17
710.964	60.03
711.149	60.14
711.333	60.57
711.517	60.4
711.702	60.53
711.886	60.34
712.07	59.92
712.254	59.54
712.438	59.34
712.623	58.96
712.807	58.48
712.991	58.42
713.175	57.79
713.359	57.25
713.544	56.99
713.728	56.81
713.912	56.79
714.096	56.16
714.28	55.75
714.464	55.59
714.648	55.66
714.832	55.67
715.016	55.69
715.2	55.63
715.384	55.32
715.568	55.38
715.752	55.24
715.936	55.18
716.12	55.29
716.304	55.37
716.488	55.28
716.671	55.12
716.855	55.11
717.039	54.64
717.223	54.62
717.407	54.31
717.59	53.85
717.774	54.11
717.958	54.59
718.142	54.79
718.325	55.23
718.509	55.37
718.693	55.25
718.877	55.08
719.06	55.24
719.244	55.66
719.428	56.22
719.611	56.6
719.795	56.13
719.978	55.98
720.162	55.92
720.345	55.62
720.529	55.99
720.713	56.01
720.896	56.13
721.08	56.73
721.263	56.56
721.446	57
721.63	56.86
721.813	57.36
721.997	57.07
722.18	57.61
722.364	57.73
722.547	57.65
722.73	57.94
722.914	58.47
723.097	58.14
723.28	58.64
723.464	58.3
723.647	58.49
723.83	57.82
724.013	57.7
724.197	57.64
724.38	57.6
724.563	57.85
724.746	57.76
724.929	57.35
725.112	57.31
725.296	56.46
725.479	56.76
725.662	56.59
725.845	56.91
726.028	57.41
726.211	57.3
726.394	57.58
726.577	57.41
726.76	57.07
726.943	56.85
727.126	56.36
727.309	56.91
727.492	56.49
727.675	56.9
727.858	56.67
728.041	56.13
728.224	55.95
728.407	55.66
728.589	55.46
728.772	55.83
728.955	56.17
729.138	56.89
729.321	56.35
729.503	56.59
729.686	56.4
729.869	56.61
730.052	56.55
730.234	56.49
730.417	57.13
730.6	57.04
730.782	56.85
730.965	56.52
731.148	56.16
731.33	56.78
731.513	56.45
731.695	56.38
731.878	56.31
732.061	56.69
732.243	56.92
732.426	56.47
732.608	56.95
732.791	56.87
732.973	57.03
733.156	57.51
733.338	56.89
733.52	56.91
733.703	56.82
733.885	56.77
734.068	56.54
734.25	56.9
734.432	56.53
734.615	55.97
734.797	56.48
734.979	56.5
735.162	56.47
735.344	56.79
735.526	57.36
735.708	57.78
735.891	58.15
736.073	58.41
736.255	58.36
736.437	58.83
736.619	59.31
736.802	59.39
736.984	59.62
737.166	60.14
737.348	59.97
737.53	59.3
737.712	59.44
737.894	58.82
738.076	58.91
738.258	58.46
738.44	58.68
738.622	58.34
738.804	58.04
738.986	58.42
739.168	57.69
739.35	58.11
739.532	58.87
739.714	58.54
739.896	58.96
740.078	59.21
740.259	59.49
740.441	59.2
740.623	59.67
740.805	59.61
740.987	59.48
741.168	60.08
741.35	60.03
741.532	59.99
741.714	60.53
741.895	60.76
742.077	61.41
742.259	61.76
742.44	62.61
742.622	62.45
742.804	62.47
742.985	62.44
743.167	62.24
743.348	62.69
743.53	62.69
743.711	62.1
743.893	62.66
744.075	61.94
744.256	61.94
744.438	61.58
744.619	62.07
744.8	62.48
744.982	62.88
745.163	62.59
745.345	62.03
745.526	62.55
745.707	63.28
745.889	63.12
746.07	63.13
746.252	63.4
746.433	63.13
746.614	62.84
746.795	62.44
746.977	62.23
747.158	62.86
747.339	62.93
747.52	62.96
747.702	62.76
747.883	62.7
748.064	63.15
748.245	62.91
748.426	63.04
748.607	63.41
748.788	64.31
748.97	64.18
749.151	64.16
749.332	64.26
749.513	63.29
749.694	63.27
749.875	63.72
750.056	63.32
750.237	63.67
750.418	64.09
750.599	63.29
750.78	62.76
750.96	63.15
751.141	63.38
751.322	64.16
751.503	64.78
751.684	64.89
751.865	64.47
752.046	63.97
752.226	63.63
752.407	63.27
752.588	63.35
752.769	63.1
752.949	62.18
753.13	61.84
753.311	61.38
753.492	61.1
753.672	60.72
753.853	60.94
754.034	61.62
754.214	61.91
754.395	61.93
754.575	62.26
754.756	63.15
754.937	63.86
755.117	63.97
755.298	64.2
755.478	64.29
755.659	63.76
755.839	63.79
756.02	64.03
756.2	62.48
756.381	62.78
756.561	62.84
756.741	62.45
756.922	62.24
757.102	62.53
757.283	63.05
757.463	63.14
757.643	64.03
757.823	63.94
758.004	63.84
758.184	64.89
758.364	65.28
758.545	64.19
758.725	63.39
758.905	63.1
759.085	62.41
759.265	61.54
759.446	62.05
759.626	61.51
759.806	61.31
759.986	61.1
760.166	60.94
760.346	59.74
760.526	60.78
760.706	61.3
760.886	61.51
761.066	61.92
761.246	62.45
761.426	61.72
761.606	61.82
761.786	61.36
761.966	60.54
762.146	59.47
762.326	59.87
762.506	59.73
762.686	59.51
762.866	58.6
763.046	58.03
763.225	57.35
763.405	56.96
763.585	56.6
763.765	56.86
763.945	56.85
764.124	57.4
764.304	56.95
764.484	56.86
764.664	56.72
764.843	57.25
765.023	57.44
765.203	57.75
765.382	57.96
765.562	58.66
765.741	58.64
765.921	59.48
766.101	59.64
766.28	60
766.46	60.09
766.639	60.23
766.819	60.92
766.998	60.89
767.178	60.84
767.357	61.73
767.537	62.04
767.716	62.62
767.896	62.48
768.075	62.78
768.254	63.18
768.434	63.5
768.613	64.52
768.792	64.58
768.972	65.14
769.151	65.13
769.33	64.57
769.51	63.66
769.689	63.31
769.868	63.76
770.047	63.78
770.226	63.59
770.406	63.77
770.585	63.66
770.764	63.51
770.943	63.66
771.122	64.13
771.301	64.83
771.48	66.34
771.66	66.73
771.839	66.15
772.018	66.53
772.197	66.91
772.376	66.97
772.555	66.94
772.734	67.51
772.913	67
773.092	66.83
773.271	66.48
773.449	65.46
773.628	65.69
773.807	66.4
773.986	67.22
774.165	67.67
774.344	66.84
774.523	66.75
774.701	67.24
774.88	68.69
775.059	70.16
775.238	69.89
775.417	70.64
775.595	69.22
775.774	69.58
775.953	68.22
776.131	68.13
776.31	69.01
776.489	69.51
776.667	68.67
776.846	68.43
777.025	67.05
777.203	68.11
777.382	67.29
777.56	68.04
777.739	68.1
777.917	68.72
778.096	69.02
778.274	68.47
778.453	67.63
778.631	67.54
778.81	67.17
778.988	67.48
779.166	66.44
779.345	66.65
779.523	67.1
779.702	67.47
779.88	67.09
780.058	67.05
780.237	68.22
780.415	68.76
780.593	69.25
780.771	69.16
780.95	68.87
781.128	70.84
781.306	71.9
781.484	71.58
781.662	70.07
781.841	70.71
782.019	69.83
782.197	68.98
782.375	68.8
782.553	67.87
782.731	68.45
782.909	70.16
783.087	68.8
783.265	67.46
783.443	67.27
783.621	68.46
783.799	68.88
783.977	69.86
784.155	70.45
784.333	71.15
784.511	71.71
784.689	70.96
784.867	70.53
785.045	70.27
785.223	70.73
785.4	71.25
785.578	71.32
785.756	71.36
785.934	71.29
786.112	71.31
786.289	70.46
786.467	71.55
786.645	71.2
786.823	69.77
787	70.51
787.178	70.86
787.356	70.52
787.533	69.66
787.711	69.3
787.889	69.46
788.066	68.9
788.244	69.06
788.421	68.4
788.599	67.88
788.776	68.49
788.954	68.17
789.131	67.78
789.309	67.98
789.486	68.42
789.664	69.15
789.841	68.86
790.019	68.23
790.196	68.51
790.373	67.58
790.551	69.47
790.728	69.85
790.906	70.01
791.083	70.15
791.26	70.87
791.437	70.66
791.615	70.1
791.792	70.07
791.969	71.34
792.146	71.2
792.324	71.5
792.501	69.54
792.678	69.97
792.855	69.39
793.032	69.39
793.209	68.58
793.387	67.97
793.564	67.78
793.741	68.03
793.918	68.07
794.095	68.12
794.272	68.48
794.449	69.51
794.626	68.83
794.803	68.92
794.98	69.65
795.157	70.17
795.334	70.26
795.511	69.69
795.688	68.61
795.864	67.59
796.041	68.35
796.218	69.23
796.395	69.13
796.572	68.15
796.749	68.21
796.925	67.17
797.102	66.87
797.279	67.76
797.456	67.9
797.632	68.34
797.809	68.92
797.986	67.35
798.162	67.7
798.339	67.08
798.516	68.92
798.692	68.86
798.869	69.42
799.046	68.8
799.222	69.52
799.399	69.94
799.575	70.94
799.752	72
799.928	74.32
800.105	73.63
800.281	74.14
800.458	73.27
800.634	74.53
800.811	73.79
800.987	74.6
801.163	72.93
801.34	73.16
801.516	73.06
801.692	72.3
801.869	70.72
802.045	70.78
802.221	70.44
802.398	70.2
802.574	68.24
802.75	69.04
802.926	68.98
803.103	70.1
803.279	70.86
803.455	69.72
803.631	69.64
803.807	70.07
803.983	70.09
804.16	72.16
804.336	72.67
804.512	73.4
804.688	74.04
804.864	74.22
805.04	75.08
805.216	73.78
805.392	75.41
805.568	76.62
805.744	77.23
805.92	77.7
806.096	75.88
806.272	75.02
806.448	77.05
806.623	76.44
806.799	77.26
806.975	76.83
807.151	76.93
807.327	77.02
807.503	76.68
807.678	78.11
807.854	76.4
808.03	76.36
808.206	78.27
808.381	77.11
808.557	78.31
808.733	78
808.908	77.36
809.084	77.78
809.26	77.76
809.435	77.58
809.611	76.14
809.787	75.72
809.962	76.91
810.138	75.67
810.313	76.64
810.489	75.45
810.664	75.07
810.84	75.25
811.015	75.29
811.191	74.65
811.366	75.44
811.542	76.06
811.717	77.89
811.892	77.42
812.068	78.05
812.243	77.87
812.419	78.4
812.594	78.7
812.769	79.86
812.944	79.29
813.12	78.42
813.295	77.34
813.47	76.75
813.645	75.52
813.821	74.86
813.996	73.54
814.171	72.57
814.346	71.83
814.521	72.28
814.697	72.14
814.872	72.51
815.047	74.38
815.222	75.87
815.397	75.22
815.572	76.38
815.747	76.09
815.922	76.63
816.097	77.3
816.272	76.85
816.447	76.35
816.622	77.26
816.797	76.99
816.972	76.86
817.147	75.93
817.322	75.16
817.496	73.78
817.671	74.76
817.846	75.2
818.021	73.38
818.196	73.11
818.371	72.38
818.545	69.23
818.72	69.85
818.895	69.5
819.069	67.38
819.244	67.06
819.419	66.82
819.594	64.93
819.768	63.58
819.943	63.05
820.117	60.94
820.292	59.79
820.467	59.83
820.641	58.26
820.816	55.97
820.99	54.93
821.165	53.33
821.339	52.3
821.514	51.65
821.688	50.94
821.863	50.32
822.037	50.27
822.212	49.6
822.386	48.83
822.56	48.48
822.735	48.66
822.909	48.78
823.084	48.84
823.258	48.67
823.432	48.81
823.606	48.78
823.781	48.88
823.955	48.78
824.129	49.16
824.303	49.62
824.478	49.87
824.652	50.06
824.826	50.37
825	51.02
825.174	51.79
825.348	52.05
825.523	51.91
825.697	52.35
825.871	53.04
826.045	53.37
826.219	53.66
826.393	53.68
826.567	53.2
826.741	52.93
826.915	52.79
827.089	52.74
827.263	52.38
827.437	52.64
827.611	52.89
827.784	52.74
827.958	52.72
828.132	52.7
828.306	52.8
828.48	53.4
828.654	54.03
828.827	54.86
829.001	55.15
829.175	56.73
829.349	58.72
829.522	59.26
829.696	60.81
829.87	62.32
830.044	63.1
830.217	64.79
830.391	66.53
830.565	67.15
830.738	68.03
830.912	69.86
831.085	68.43
831.259	67.84
831.432	68.04
831.606	68.2
831.779	66.94
831.953	68.25
832.126	66.93
832.3	65.21
832.473	64.04
832.647	61.97
832.82	60.66
832.994	60.78
833.167	60.3
833.34	60.35
833.514	59.14
833.687	58.3
833.86	56.77
834.034	56.5
834.207	56.64
834.38	56.99
834.553	57.47
834.727	57.35
834.9	57.22
835.073	57.27
835.246	56.94
835.419	57.69
835.593	58.77
835.766	59.63
835.939	60.77
836.112	61.38
836.285	61.84
836.458	63.84
836.631	64.65
836.804	66.63
836.977	68.09
837.15	70.47
837.323	71.62
837.496	72.64
837.669	73.66
837.842	73.79
838.015	75.96
838.188	77.02
838.361	75.92
838.533	77.43
838.706	77.89
838.879	79.29
839.052	78.3
839.225	79.37
839.398	81
839.57	83.62
839.743	86.1
839.916	84.55
840.088	83.49
840.261	82.49
840.434	82.89
840.607	82.33
840.779	81.28
840.952	79.92
841.124	79.26
841.297	77.33
841.47	75.6
841.642	74.44
841.815	75.56
841.987	76.28
842.16	79.13
842.332	80.29
842.505	81.49
842.677	82.98
842.85	85.87
843.022	85.95
843.194	89.99
843.367	92.01
843.539	91.81
843.712	92.07
843.884	92.8
844.056	91.95
844.229	91.52
844.401	92.97
844.573	93.82
844.745	95.15
844.918	99.32
845.09	98.3
845.262	100.81
845.434	102.96
845.606	103.2
845.779	107.37
845.951	109.01
846.123	110.44
846.295	111.1
846.467	111.25
846.639	110.77
846.811	107.97
846.983	109.52
847.155	107.2
847.327	107.79
847.499	109.44
847.671	105.67
847.843	106.7
848.015	110.29
848.187	109.52
848.359	106.07
848.531	107.29
848.703	106.68
848.875	110.19
849.047	110.4
849.218	112.92
849.39	112.69
849.562	116.97
849.734	116.77
849.905	111.11
850.077	108.7
850.249	111.55
850.421	113.59
850.592	116.18
850.764	116.15
850.936	116.16
851.107	115.16
851.279	112.47
851.451	112.76
851.622	114.41
851.794	120.88
851.965	124.39
852.137	127.63
852.308	126.28
852.48	127.5
852.651	121.33
852.823	123.05
852.994	123.7
853.166	130.22
853.337	129.33
853.509	128.94
853.68	123.75
853.851	122.39
854.023	125.95
854.194	125.22
854.365	123.59
854.537	126.41
854.708	119.63
854.879	122.66
855.05	122.96
855.222	120.79
855.393	120.73
855.564	118.63
855.735	122.99
855.906	121.9
856.078	121.26
856.249	121.59
856.42	119.87
856.591	128.04
856.762	127.17
856.933	125.31
857.104	125.46
857.275	124.84
857.446	126.22
857.617	125.56
857.788	122.73
857.959	121.75
858.13	125.11
858.301	123.97
858.472	120.87
858.643	114.84
858.814	115.41
858.985	119.77
859.155	122.15
859.326	125.98
859.497	128.3
859.668	128.5
859.839	136.4
860.009	135.75
860.18	138.43
860.351	140.68
860.522	147.88
860.692	142.72
860.863	135.76
861.034	134.04
861.204	134.29
861.375	128.77
861.546	129.86
861.716	127.12
861.887	123.12
862.057	120.82
862.228	119.34
862.398	115.98
862.569	116.79
862.739	122.99
862.91	121.21
863.08	116.83
863.251	116.82
863.421	114.19
863.592	109.71
863.762	113.68
863.932	114.71
864.103	118.52
864.273	117.84
864.443	116.26
864.614	114.31
864.784	114.79
864.954	116.48
865.125	115.09
865.295	113.14
865.465	118.42
865.635	121.09
865.805	116.02
865.976	110.44
866.146	109.85
866.316	113.63
866.486	116.36
866.656	115.63
866.826	121.38
866.996	129.45
867.166	134.81
867.336	132.98
867.506	134.82
867.676	146.68
867.846	151.27
868.016	154.24
868.186	148.66
868.356	142.55
868.526	144.28
868.696	142.35
868.866	131.94
869.036	134.14
869.206	139.07
869.376	126.2
869.545	123.25
869.715	121.54
869.885	120.54
870.055	126.67
870.224	132.59
870.394	127.05
870.564	122.22
870.734	131.66
870.903	128.6
871.073	129.26
871.243	132.91
871.412	130.59
871.582	134.1
871.751	134.7
871.921	127.97
872.091	125.29
872.26	127.86
872.43	129.24
872.599	121.61
872.769	123.83
872.938	118.73
873.108	117.4
873.277	116.21
873.446	109.61
873.616	110.32
873.785	111.66
873.955	111.27
874.124	115.35
874.293	114.09
874.463	116.39
874.632	115.2
874.801	115.83
874.971	117.62
875.14	121.56
875.309	119.25
875.478	128.28
875.647	125.93
875.817	127.4
875.986	119.63
876.155	123.95
876.324	115.08
876.493	117
876.662	116.13
876.831	116.82
877	115.38
877.17	122.02
877.339	114.95
877.508	115.37
877.677	113.65
877.846	115.65
878.015	108.36
878.184	113.52
878.352	110.32
878.521	108.3
878.69	105.87
878.859	105.74
879.028	100.3
879.197	94.34
879.366	94.42
879.534	87.79
879.703	84.43
879.872	80.72
880.041	75.68
880.21	71.22
880.378	68.42
880.547	65.57
880.716	62.27
880.884	60.25
881.053	58.05
881.222	55.67
881.39	54.43
881.559	52.75
881.727	51.89
881.896	51.05
882.065	50.24
882.233	49.42
882.402	48.52
882.57	48.36
882.739	48.23
882.907	48.23
883.076	48.39
883.244	49.35
883.412	49.44
883.581	49.94
883.749	50.5
883.918	51.19
884.086	52.77
884.254	54.86
884.423	56.15
884.591	57.3
884.759	58.86
884.927	60.65
885.096	60.57
885.264	63.67
885.432	66.13
885.6	70.18
885.769	72.73
885.937	72.8
886.105	75.42
886.273	77.93
886.441	83.08
886.609	87.54
886.777	86.8
886.945	91.97
887.113	92.88
887.281	92.26
887.449	95.18
887.617	99.66
887.785	102.24
887.953	101.83
888.121	100.94
888.289	97.22
888.457	97.49
888.625	103.21
888.793	104.73
888.961	106.1
889.129	113.25
889.296	108.02
889.464	104.48
889.632	106.23
889.8	104.33
889.967	105.19
890.135	114.17
