Data from 2938752__Reflection_02.txt Node
Date: Sat Mar 14 14:29:51 EDT 2015
User: robert
Spectrometer: USB4E03002
Autoset integration time: false
Trigger mode: 4
Integration Time (sec): 1.000000E-1
Scans to average: 10
Electric dark correction enabled: false
Nonlinearity correction enabled: false
Boxcar width: 5
Stray light correction enabled: false
XAxis mode: Wavelengths
Stop averaging: false
Number of Pixels in Spectrum: 3648
>>>>>Begin Spectral Data<<<<<
177.575	266.03
177.794	364.09
178.014	317.96
178.233	385.5
178.452	453.4
178.672	516.67
178.891	808.13
179.11	1050
179.33	1869.12
179.549	524.81
179.768	669.87
179.987	542.81
180.207	869.78
180.426	6392.31
180.645	3273.47
180.864	3026.67
181.084	888.69
181.303	717.39
181.522	1998.72
181.741	2430.16
181.96	-1095.04
182.179	-897.5
182.398	-610.81
182.618	-810.98
182.837	2019.05
183.056	691.62
183.275	1394.34
183.494	3455
183.713	1137.7
183.932	706.4
184.151	735.18
184.37	383.46
184.589	348.06
184.808	364.46
185.027	273.42
185.246	300.51
185.465	503.55
185.684	393.51
185.903	763.05
186.122	4522.5
186.341	-4761.11
186.56	-1382.64
186.779	-1155.86
186.998	-1318.11
187.216	-10443.75
187.435	-1730.93
187.654	-12212.5
187.873	2624.36
188.092	-893.49
188.311	1621.74
188.53	909.46
188.748	1269.62
188.967	1370.42
189.186	1775.73
189.405	1062.13
189.623	1432.26
189.842	1030.41
190.061	7130.43
190.28	-10082.35
190.498	840.27
190.717	2135.96
190.936	-56700
191.154	692.16
191.373	535.34
191.592	515.6
191.81	507.71
192.029	442.59
192.248	385.66
192.466	391.94
192.685	278.89
192.904	211.59
193.122	210.36
193.341	217.12
193.559	225.92
193.778	232.83
193.996	230.38
194.215	264.74
194.433	301.87
194.652	363.64
194.87	373.36
195.089	432.28
195.307	360.82
195.526	360.36
195.744	354.36
195.963	347.29
196.181	341.58
196.399	389.42
196.618	353.77
196.836	323.39
197.055	306.6
197.273	329.03
197.491	463.45
197.71	1025.32
197.928	644.49
198.146	461.62
198.365	566.35
198.583	800
198.801	1098.55
199.019	1025.31
199.238	6534.78
199.456	1729.47
199.674	2185.92
199.892	737.04
200.111	1537.07
200.329	-1371.79
200.547	-2564.52
200.765	-646.52
200.983	-1676.34
201.202	-1378.3
201.42	-1355.56
201.638	-19600
201.856	5817.86
202.074	898.36
202.292	1297.52
202.51	1698.92
202.728	1254.2
202.946	800.44
203.165	789.03
203.383	667.29
203.601	522.6
203.819	456.85
204.037	446.19
204.255	470.14
204.473	454.37
204.691	469.78
204.909	535.81
205.127	476.54
205.345	746.53
205.562	467.69
205.78	436.31
205.998	769.32
206.216	1084.87
206.434	1637.36
206.652	2227.4
206.87	10700
207.088	1603.92
207.306	608.5
207.523	439.18
207.741	469.29
207.959	452.75
208.177	712.24
208.395	653.38
208.612	545.06
208.83	669.77
209.048	615.27
209.266	543.6
209.483	494.59
209.701	395.15
209.919	494.23
210.136	362.08
210.354	343.31
210.572	271.67
210.79	252.6
211.007	267.7
211.225	255.25
211.442	315.38
211.66	284.06
211.878	235.57
212.095	343
212.313	325.23
212.53	475.43
212.748	606.31
212.966	966.1
213.183	997.11
213.401	1848.42
213.618	555.14
213.836	408.44
214.053	417.36
214.271	452.36
214.488	338.46
214.705	271.55
214.923	212.79
215.14	179.55
215.358	180.41
215.575	154.03
215.793	131.92
216.01	138.99
216.227	137.76
216.445	141.43
216.662	138.84
216.879	146.65
217.097	136.28
217.314	146.39
217.531	174.45
217.749	186.46
217.966	246.69
218.183	242.32
218.4	206.25
218.618	190.97
218.835	177.56
219.052	192.76
219.269	169.86
219.487	164.12
219.704	149.64
219.921	143.31
220.138	134.53
220.355	117.84
220.572	107.06
220.79	96.45
221.007	85.2
221.224	90.52
221.441	86.03
221.658	89.16
221.875	88.1
222.092	88.01
222.309	79.44
222.526	69.08
222.743	64.48
222.96	65.39
223.177	76.74
223.394	79.44
223.611	72.25
223.828	69.34
224.045	71.12
224.262	71.25
224.479	68
224.696	59.73
224.913	57.44
225.13	59.89
225.347	55.57
225.564	55.94
225.781	51.1
225.997	45.39
226.214	43.62
226.431	35.48
226.648	28.66
226.865	25.3
227.082	26.75
227.298	22.7
227.515	19.05
227.732	17.79
227.949	17.01
228.165	16.42
228.382	17.14
228.599	14.85
228.816	14.76
229.032	13.66
229.249	12.5
229.466	11.78
229.682	11.09
229.899	10.72
230.116	10.56
230.332	10.3
230.549	10.07
230.765	7.41
230.982	8.75
231.199	8.68
231.415	10.27
231.632	12.99
231.848	13
232.065	15.7
232.281	16.79
232.498	17.85
232.714	18.25
232.931	18.87
233.147	20.2
233.364	18.19
233.58	18
233.797	19.29
234.013	18.21
234.23	17.55
234.446	18.3
234.662	18.2
234.879	17.05
235.095	17.63
235.312	19.77
235.528	20.78
235.744	21.93
235.961	21.69
236.177	22.52
236.393	23.02
236.61	21.89
236.826	22.23
237.042	21.05
237.258	22.34
237.475	21.05
237.691	20
237.907	19.36
238.123	20.91
238.339	20.92
238.556	18.32
238.772	16.47
238.988	16.97
239.204	15.02
239.42	15.64
239.636	14.05
239.853	13.67
240.069	12.59
240.285	12.44
240.501	10.7
240.717	10.15
240.933	9.44
241.149	9.37
241.365	9.24
241.581	8.96
241.797	9.1
242.013	8.98
242.229	8.36
242.445	7.93
242.661	7.12
242.877	7.23
243.093	7.3
243.309	8.31
243.525	9.14
243.741	9.09
243.957	9.36
244.173	9.37
244.388	10.2
244.604	11.65
244.82	12.54
245.036	13.36
245.252	13.02
245.468	12.1
245.683	11
245.899	9.75
246.115	8.92
246.331	8.9
246.547	8.82
246.762	8.41
246.978	7.83
247.194	7.48
247.409	7.13
247.625	7.02
247.841	7.42
248.057	7.26
248.272	7.39
248.488	8.35
248.703	8.16
248.919	8.02
249.135	7.57
249.35	7.53
249.566	7.46
249.782	8.03
249.997	8.76
250.213	8.92
250.428	9.39
250.644	9.91
250.859	8.03
251.075	8.06
251.29	7.25
251.506	8.36
251.721	8.79
251.937	8.71
252.152	8.61
252.368	8.56
252.583	8.97
252.798	9.19
253.014	8.53
253.229	9.82
253.445	9.59
253.66	10.81
253.875	10.67
254.091	11.13
254.306	11.49
254.521	12.01
254.737	11.95
254.952	11.28
255.167	11.31
255.383	12.79
255.598	11.82
255.813	12.26
256.028	11.62
256.244	12.92
256.459	12.56
256.674	12.93
256.889	12.02
257.104	10.9
257.32	11.07
257.535	10.52
257.75	9.7
257.965	9.82
258.18	9.52
258.395	9.15
258.61	8.45
258.826	7.88
259.041	7.04
259.256	6.58
259.471	6.68
259.686	6.8
259.901	6.68
260.116	6.58
260.331	6.28
260.546	6.08
260.761	5.97
260.976	5.56
261.191	5.81
261.406	6.35
261.621	6.94
261.836	7.24
262.05	6.66
262.265	7.19
262.48	6.9
262.695	7.38
262.91	8.58
263.125	8.91
263.34	9.73
263.555	9.49
263.769	9.48
263.984	9.03
264.199	9.08
264.414	9.07
264.629	8.97
264.843	10.31
265.058	10.82
265.273	9.7
265.488	9.38
265.702	8.49
265.917	8.33
266.132	8.57
266.346	8.78
266.561	8.2
266.776	8.33
266.99	8.29
267.205	7.57
267.42	7.05
267.634	7.17
267.849	7.25
268.063	7.99
268.278	7.9
268.492	7.6
268.707	7.56
268.922	8.04
269.136	7.94
269.351	7.52
269.565	7.51
269.78	7.37
269.994	7.38
270.209	7.34
270.423	6.74
270.637	6.85
270.852	6.7
271.066	6.56
271.281	6.01
271.495	6.27
271.709	5.93
271.924	5.76
272.138	5.54
272.353	5.54
272.567	5.39
272.781	5.38
272.996	5.43
273.21	5.81
273.424	5.75
273.638	6.54
273.853	6.34
274.067	7.01
274.281	6.89
274.495	6.97
274.71	6.67
274.924	6.72
275.138	6.88
275.352	6.98
275.566	6.6
275.781	6.79
275.995	5.99
276.209	6.5
276.423	6.76
276.637	6.76
276.851	6.91
277.065	6.98
277.279	7.09
277.493	7.13
277.707	8.03
277.921	7.97
278.135	7.5
278.349	7.39
278.563	7.14
278.777	6.6
278.991	6.79
279.205	6.94
279.419	7.27
279.633	7.28
279.847	7.41
280.061	6.34
280.275	6.47
280.489	6.44
280.703	6.78
280.917	6.49
281.131	6.43
281.344	6.39
281.558	6.3
281.772	6.29
281.986	6.19
282.2	5.99
282.414	5.74
282.627	5.68
282.841	6.09
283.055	6.11
283.269	6.08
283.482	6.18
283.696	6.16
283.91	5.98
284.123	5.41
284.337	5.48
284.551	5.5
284.764	5.58
284.978	5.3
285.192	5.17
285.405	4.85
285.619	4.63
285.833	4.66
286.046	4.13
286.26	4.46
286.473	4.64
286.687	4.44
286.9	4.21
287.114	4.1
287.327	4.5
287.541	4.34
287.754	4.44
287.968	4.56
288.181	4.54
288.395	5.05
288.608	4.66
288.822	4.78
289.035	4.71
289.248	4.64
289.462	4.72
289.675	4.37
289.889	4.78
290.102	4.85
290.315	4.72
290.529	4.58
290.742	4.54
290.955	4.86
291.169	4.95
291.382	5.52
291.595	5.91
291.808	6.15
292.022	6.76
292.235	6.89
292.448	7.15
292.661	7.65
292.875	7.52
293.088	7.63
293.301	7.43
293.514	7.24
293.727	6.85
293.94	6.9
294.153	7.19
294.367	6.74
294.58	6.16
294.793	6.03
295.006	5.65
295.219	5.81
295.432	5.69
295.645	5.58
295.858	5.49
296.071	5.18
296.284	5.13
296.497	4.84
296.71	4.66
296.923	5.03
297.136	4.94
297.349	5.07
297.562	5.05
297.775	5.2
297.988	5.46
298.201	5.71
298.414	5.79
298.626	5.98
298.839	5.88
299.052	5.93
299.265	5.78
299.478	6.03
299.691	6.14
299.903	6.38
300.116	6.22
300.329	6.29
300.542	6.23
300.755	6.75
300.967	6.6
301.18	6.52
301.393	6.61
301.605	6.58
301.818	6.57
302.031	6.84
302.243	7.01
302.456	7.61
302.669	7.27
302.881	7.6
303.094	7.45
303.307	7.41
303.519	7.79
303.732	8.2
303.944	8.07
304.157	8.13
304.37	8.01
304.582	7.46
304.795	7.09
305.007	7.62
305.22	7.35
305.432	7.27
305.645	7.69
305.857	7.6
306.069	7.4
306.282	7.72
306.494	7.58
306.707	7.7
306.919	7.85
307.132	7.86
307.344	7.81
307.556	7.65
307.769	7.67
307.981	7.23
308.193	7.5
308.406	7.6
308.618	7.77
308.83	7.67
309.043	7.62
309.255	7.7
309.467	7.73
309.679	7.65
309.892	7.98
310.104	7.96
310.316	8.21
310.528	8.09
310.74	7.97
310.953	7.56
311.165	7.82
311.377	7.61
311.589	7.71
311.801	7.55
312.013	7.51
312.225	7.21
312.437	7.71
312.649	7.44
312.862	7.72
313.074	7.83
313.286	8.52
313.498	8.61
313.71	8.92
313.922	9.14
314.134	9.59
314.346	10.04
314.558	10.52
314.77	10.66
314.982	10.95
315.193	11.09
315.405	11.72
315.617	11.25
315.829	11.11
316.041	11.26
316.253	11.37
316.465	11.49
316.677	11.11
316.888	11.09
317.1	10.37
317.312	10.8
317.524	10.65
317.736	10.74
317.947	11.21
318.159	11.52
318.371	11.53
318.583	11.31
318.794	11.29
319.006	11.59
319.218	11.42
319.43	12.01
319.641	11.43
319.853	11.46
320.064	11.31
320.276	11.47
320.488	11.53
320.699	11.77
320.911	11.84
321.123	12.05
321.334	11.89
321.546	12.38
321.757	12.49
321.969	12.81
322.18	12.35
322.392	12.48
322.603	12.22
322.815	12.3
323.026	12.45
323.238	12.86
323.449	12.66
323.661	12.66
323.872	12.49
324.083	12.47
324.295	12.7
324.506	13.37
324.718	13.33
324.929	13.5
325.14	13.48
325.352	13.38
325.563	13.59
325.774	14.12
325.986	14.45
326.197	14.87
326.408	14.82
326.62	14.96
326.831	15.32
327.042	15.36
327.253	15.68
327.464	16.14
327.676	16.63
327.887	16.87
328.098	17.12
328.309	17.76
328.52	18.18
328.732	18.54
328.943	18.85
329.154	18.9
329.365	20.05
329.576	20.42
329.787	20.95
329.998	21.26
330.209	21.54
330.42	22.3
330.631	22.47
330.842	22.62
331.053	23.55
331.264	23.93
331.475	24.27
331.686	23.7
331.897	24.13
332.108	24.22
332.319	24.13
332.53	24.76
332.741	24.7
332.952	24.73
333.163	24.67
333.374	24.79
333.585	25.41
333.795	25.6
334.006	25.8
334.217	25.77
334.428	26.09
334.639	26.72
334.849	26.53
335.06	26.66
335.271	26.82
335.482	27.23
335.692	27.34
335.903	27.34
336.114	27.52
336.325	27.81
336.535	28.24
336.746	28.1
336.957	28.05
337.167	28.33
337.378	28.32
337.589	28.53
337.799	28.84
338.01	28.78
338.22	28.84
338.431	29.04
338.642	29.31
338.852	29.35
339.063	29.39
339.273	29.39
339.484	29.8
339.694	30
339.905	29.97
340.115	29.74
340.326	29.97
340.536	29.93
340.746	29.96
340.957	29.69
341.167	29.47
341.378	29.54
341.588	29.7
341.799	29.42
342.009	29.14
342.219	29.21
342.43	29.01
342.64	28.94
342.85	28.88
343.061	28.61
343.271	28.62
343.481	28.86
343.691	28.95
343.902	28.62
344.112	28.45
344.322	28.56
344.532	28.35
344.743	28.43
344.953	28.63
345.163	28.68
345.373	28.49
345.583	28.36
345.793	28.57
346.004	28.5
346.214	28.62
346.424	28.83
346.634	28.7
346.844	29.32
347.054	29.49
347.264	29.58
347.474	29.74
347.684	29.95
347.894	29.78
348.104	29.6
348.314	29.73
348.524	29.58
348.734	29.26
348.944	29.36
349.154	28.91
349.364	28.96
349.574	28.45
349.784	28.03
349.994	28.05
350.204	28.36
350.413	27.98
350.623	28.08
350.833	28.13
351.043	28.28
351.253	28.64
351.463	28.38
351.672	28.18
351.882	28.11
352.092	28.13
352.302	28.09
352.511	28.15
352.721	27.95
352.931	27.65
353.141	27.76
353.35	27.56
353.56	27.23
353.77	27.3
353.979	27.36
354.189	27.46
354.399	27.23
354.608	27.16
354.818	26.94
355.027	27.11
355.237	27.05
355.447	26.94
355.656	27.08
355.866	26.88
356.075	26.84
356.285	26.6
356.494	26.2
356.704	26.56
356.913	26.49
357.123	26.43
357.332	26.15
357.542	26.18
357.751	26.07
357.96	25.92
358.17	25.89
358.379	25.85
358.589	25.86
358.798	26
359.007	25.97
359.217	26.15
359.426	26.36
359.635	26.55
359.845	26.47
360.054	26.52
360.263	26.43
360.472	26.48
360.682	26.6
360.891	26.61
361.1	26.78
361.309	26.64
361.519	26.33
361.728	25.99
361.937	25.98
362.146	25.98
362.355	25.82
362.564	25.78
362.774	25.72
362.983	25.49
363.192	25.43
363.401	25.29
363.61	25.22
363.819	25.5
364.028	25.7
364.237	25.52
364.446	25.66
364.655	25.92
364.864	25.99
365.073	26.17
365.282	26.06
365.491	26.07
365.7	26.23
365.909	26.24
366.118	25.95
366.327	25.69
366.536	25.62
366.745	25.43
366.954	25.4
367.162	25.5
367.371	25.3
367.58	25.48
367.789	25.42
367.998	25.3
368.207	25.42
368.415	25.6
368.624	25.72
368.833	26.02
369.042	25.93
369.25	26.02
369.459	25.91
369.668	26.03
369.877	26.19
370.085	26.26
370.294	26.18
370.503	25.88
370.711	25.65
370.92	25.85
371.129	25.82
371.337	25.98
371.546	25.62
371.754	25.52
371.963	25.28
372.171	25.13
372.38	25.2
372.589	25.28
372.797	25.42
373.006	25.68
373.214	25.7
373.423	25.64
373.631	25.58
373.84	25.71
374.048	25.61
374.256	25.62
374.465	25.81
374.673	25.9
374.882	25.84
375.09	26.02
375.298	25.84
375.507	25.73
375.715	25.62
375.923	25.55
376.132	25.54
376.34	25.65
376.548	25.84
376.757	25.35
376.965	25.32
377.173	25.01
377.381	24.68
377.59	24.69
377.798	24.76
378.006	24.78
378.214	24.75
378.423	24.7
378.631	24.88
378.839	24.65
379.047	24.74
379.255	24.63
379.463	25.1
379.671	25.49
379.879	25.52
380.088	25.53
380.296	25.5
380.504	25.45
380.712	25.47
380.92	25.39
381.128	25.64
381.336	25.64
381.544	25.54
381.752	25.27
381.96	25.09
382.168	25
382.376	24.96
382.584	24.76
382.791	24.9
382.999	24.96
383.207	24.83
383.415	24.53
383.623	24.71
383.831	24.58
384.039	24.66
384.247	24.55
384.454	24.39
384.662	24.46
384.87	24.7
385.078	24.65
385.285	24.58
385.493	24.62
385.701	24.73
385.909	24.68
386.116	24.77
386.324	24.73
386.532	24.9
386.739	25.16
386.947	25.04
387.155	24.94
387.362	24.87
387.57	24.81
387.778	24.74
387.985	24.78
388.193	24.63
388.4	24.85
388.608	25.03
388.816	24.84
389.023	24.96
389.231	25
389.438	25.06
389.646	25.18
389.853	25.38
390.061	25.21
390.268	25.36
390.475	25.58
390.683	25.35
390.89	25.17
391.098	25.18
391.305	25.22
391.512	25.17
391.72	25.08
391.927	24.98
392.135	24.9
392.342	24.95
392.549	24.9
392.756	24.87
392.964	25.01
393.171	25.1
393.378	25.05
393.586	24.93
393.793	25.06
394	25.29
394.207	25.32
394.414	25.39
394.622	25.44
394.829	25.47
395.036	25.4
395.243	25.27
395.45	25.18
395.657	25.4
395.864	25.46
396.072	25.27
396.279	25.17
396.486	25.34
396.693	24.98
396.9	25.01
397.107	25.08
397.314	25
397.521	25.14
397.728	25.35
397.935	25.31
398.142	25.25
398.349	25.28
398.556	25.22
398.763	25.13
398.97	25.38
399.177	25.41
399.383	25.42
399.59	25.5
399.797	25.28
400.004	25.23
400.211	25.16
400.418	25.16
400.625	25.13
400.831	25.09
401.038	25.09
401.245	25.12
401.452	25.12
401.658	25.01
401.865	25.05
402.072	25.19
402.279	25.13
402.485	25.12
402.692	25.13
402.899	25.2
403.105	25.26
403.312	25.36
403.519	25.43
403.725	25.51
403.932	25.47
404.138	25.52
404.345	25.3
404.552	25.27
404.758	25.51
404.965	25.46
405.171	25.44
405.378	25.49
405.584	25.33
405.791	25.19
405.997	25.35
406.204	25.32
406.41	25.25
406.617	25.52
406.823	25.54
407.029	25.22
407.236	25.25
407.442	25.31
407.649	25.28
407.855	25.47
408.061	25.55
408.268	25.48
408.474	25.64
408.68	25.72
408.887	25.71
409.093	25.68
409.299	25.76
409.505	25.71
409.712	25.72
409.918	25.53
410.124	25.26
410.33	25.39
410.537	25.33
410.743	25.37
410.949	25.43
411.155	25.48
411.361	25.3
411.567	25.22
411.773	25.3
411.98	25.22
412.186	25.41
412.392	25.54
412.598	25.49
412.804	25.53
413.01	25.31
413.216	25.24
413.422	25.37
413.628	25.52
413.834	25.51
414.04	25.49
414.246	25.49
414.452	25.47
414.658	25.47
414.864	25.32
415.07	25.07
415.275	25.05
415.481	24.93
415.687	24.81
415.893	24.83
416.099	24.89
416.305	24.79
416.511	24.85
416.716	24.81
416.922	24.75
417.128	24.72
417.334	24.73
417.539	24.7
417.745	24.69
417.951	24.56
418.157	24.48
418.362	24.45
418.568	24.42
418.774	24.29
418.979	24.26
419.185	24.2
419.391	24.18
419.596	24.26
419.802	24.21
420.008	24.3
420.213	23.67
420.419	23.69
420.624	23.68
420.83	23.7
421.035	23.74
421.241	23.77
421.446	23.82
421.652	23.86
421.857	23.83
422.063	23.76
422.268	23.72
422.474	24.31
422.679	24.29
422.885	24.24
423.09	24.25
423.295	24.3
423.501	24.25
423.706	24.23
423.911	24.18
424.117	24.18
424.322	24.35
424.527	24.26
424.733	24.35
424.938	24.31
425.143	24.42
425.349	24.43
425.554	24.46
425.759	24.57
425.964	24.64
426.169	24.7
426.375	24.8
426.58	24.85
426.785	25
426.99	25.06
427.195	25.28
427.4	25.33
427.605	25.47
427.811	25.59
428.016	25.7
428.221	25.7
428.426	25.78
428.631	25.83
428.836	26.05
429.041	26.1
429.246	25.95
429.451	25.99
429.656	26.07
429.861	26.18
430.066	26.12
430.271	26.18
430.476	26.36
430.681	26.38
430.886	26.29
431.09	26.17
431.295	26.06
431.5	26.25
431.705	26.15
431.91	26.05
432.115	25.84
432.32	25.83
432.524	25.78
432.729	25.77
432.934	25.83
433.139	25.9
433.343	25.89
433.548	26.06
433.753	26.06
433.958	26.2
434.162	26.42
434.367	26.56
434.572	26.76
434.776	26.82
434.981	26.9
435.186	27.01
435.39	27.13
435.595	27.2
435.799	27.22
436.004	27.27
436.209	27.19
436.413	27.07
436.618	27.06
436.822	26.91
437.027	26.95
437.231	26.83
437.436	26.72
437.64	26.58
437.845	26.5
438.049	26.38
438.253	26.35
438.458	26.33
438.662	26.2
438.867	26.08
439.071	26.17
439.275	26.06
439.48	26.09
439.684	26.04
439.888	26.04
440.093	26.05
440.297	26.13
440.501	26.07
440.706	26.15
440.91	26.16
441.114	26.28
441.318	26.18
441.523	26.16
441.727	26.14
441.931	26.23
442.135	26.29
442.339	26.24
442.543	26.23
442.748	26.29
442.952	26.16
443.156	26.27
443.36	26.3
443.564	26.33
443.768	26.45
443.972	26.61
444.176	26.54
444.38	26.55
444.584	26.58
444.788	26.63
444.992	26.58
445.196	26.53
445.4	26.53
445.604	26.54
445.808	26.57
446.012	26.48
446.216	26.29
446.42	26.33
446.624	26.32
446.828	26.29
447.032	26.24
447.235	26.29
447.439	26.38
447.643	26.3
447.847	26.35
448.051	26.36
448.254	26.41
448.458	26.49
448.662	26.53
448.866	26.51
449.069	26.57
449.273	26.6
449.477	26.67
449.681	26.71
449.884	26.86
450.088	26.8
450.292	26.84
450.495	26.77
450.699	26.81
450.902	26.82
451.106	26.85
451.31	26.92
451.513	26.96
451.717	26.82
451.92	26.83
452.124	26.89
452.327	26.89
452.531	26.89
452.734	26.89
452.938	26.86
453.141	26.75
453.345	26.84
453.548	26.9
453.752	26.84
453.955	26.93
454.158	26.82
454.362	26.73
454.565	26.79
454.769	26.72
454.972	26.83
455.175	26.85
455.379	26.97
455.582	27.06
455.785	27.03
455.988	27.07
456.192	26.96
456.395	27.03
456.598	27.08
456.801	26.95
457.005	26.92
457.208	26.89
457.411	26.87
457.614	26.81
457.817	26.61
458.021	26.55
458.224	26.59
458.427	26.55
458.63	26.59
458.833	26.57
459.036	26.57
459.239	26.64
459.442	26.62
459.645	26.63
459.848	26.57
460.051	26.64
460.254	26.64
460.457	26.61
460.66	26.68
460.863	26.65
461.066	26.69
461.269	26.73
461.472	26.78
461.675	26.9
461.878	26.91
462.081	27.07
462.284	27.12
462.486	27.16
462.689	27.34
462.892	27.41
463.095	27.45
463.298	27.47
463.5	27.51
463.703	27.53
463.906	27.48
464.109	27.51
464.311	27.54
464.514	27.53
464.717	27.65
464.92	27.52
465.122	27.61
465.325	27.83
465.528	27.9
465.73	27.9
465.933	27.81
466.135	27.8
466.338	27.92
466.541	27.94
466.743	27.86
466.946	27.82
467.148	27.79
467.351	27.71
467.553	27.58
467.756	27.49
467.958	27.5
468.161	27.48
468.363	27.49
468.566	27.33
468.768	27.27
468.971	27.29
469.173	27.26
469.375	27.34
469.578	27.28
469.78	27.35
469.983	27.35
470.185	27.4
470.387	27.6
470.59	27.57
470.792	27.72
470.994	27.69
471.196	27.85
471.399	27.86
471.601	27.92
471.803	27.94
472.005	27.86
472.208	27.87
472.41	27.81
472.612	27.51
472.814	27.63
473.016	27.6
473.218	27.59
473.421	27.34
473.623	27.33
473.825	27.36
474.027	27.49
474.229	27.5
474.431	27.55
474.633	27.62
474.835	27.71
475.037	27.66
475.239	27.6
475.441	27.69
475.643	27.81
475.845	27.82
476.047	27.7
476.249	27.62
476.451	27.59
476.653	27.54
476.855	27.45
477.057	27.56
477.258	27.46
477.46	27.51
477.662	27.55
477.864	27.64
478.066	27.58
478.268	27.54
478.469	27.52
478.671	27.43
478.873	27.44
479.075	27.41
479.276	27.35
479.478	27.38
479.68	27.3
479.882	27.14
480.083	27.01
480.285	27
480.487	27.05
480.688	27
480.89	27.1
481.091	27.02
481.293	27.01
481.495	26.93
481.696	26.88
481.898	26.78
482.099	26.76
482.301	26.66
482.502	26.62
482.704	26.5
482.905	26.4
483.107	26.28
483.308	26.23
483.51	26.18
483.711	26.16
483.913	26.1
484.114	26.11
484.315	26.11
484.517	26.13
484.718	26.09
484.92	26.09
485.121	26.12
485.322	26.16
485.524	26.16
485.725	26.19
485.926	26.21
486.127	26.25
486.329	26.24
486.53	26.26
486.731	26.26
486.932	26.27
487.134	26.24
487.335	26.22
487.536	26.25
487.737	26.29
487.938	26.29
488.139	26.34
488.341	26.35
488.542	26.42
488.743	26.4
488.944	26.41
489.145	26.48
489.346	26.62
489.547	26.66
489.748	26.75
489.949	26.76
490.15	26.78
490.351	26.73
490.552	26.8
490.753	26.81
490.954	26.88
491.155	26.83
491.356	26.89
491.557	26.85
491.758	26.95
491.959	26.9
492.159	26.92
492.36	26.93
492.561	26.98
492.762	26.98
492.963	26.92
493.164	26.93
493.364	27.06
493.565	27.04
493.766	27.11
493.967	27.09
494.167	27.22
494.368	27.33
494.569	27.45
494.769	27.54
494.97	27.59
495.171	27.75
495.371	27.75
495.572	27.76
495.773	27.7
495.973	27.67
496.174	27.68
496.375	27.67
496.575	27.62
496.776	27.63
496.976	27.61
497.177	27.65
497.377	27.6
497.578	27.66
497.778	27.65
497.979	27.62
498.179	27.69
498.38	27.74
498.58	27.72
498.78	27.82
498.981	27.8
499.181	27.84
499.382	27.85
499.582	27.89
499.782	27.87
499.983	27.96
500.183	28.12
500.383	28.13
500.584	28.16
500.784	28.13
500.984	28.16
501.184	28.15
501.385	28.22
501.585	28.18
501.785	28.26
501.985	28.36
502.185	28.37
502.386	28.4
502.586	28.48
502.786	28.44
502.986	28.64
503.186	28.54
503.386	28.61
503.586	28.54
503.786	28.67
503.987	28.65
504.187	28.61
504.387	28.51
504.587	28.52
504.787	28.53
504.987	28.57
505.187	28.53
505.387	28.71
505.587	28.73
505.786	28.83
505.986	28.83
506.186	28.82
506.386	28.91
506.586	29.04
506.786	29.06
506.986	29.1
507.186	29.11
507.386	29.03
507.585	28.99
507.785	28.86
507.985	28.81
508.185	28.81
508.384	28.79
508.584	28.68
508.784	28.6
508.984	28.55
509.183	28.51
509.383	28.57
509.583	28.55
509.782	28.51
509.982	28.64
510.182	28.69
510.381	28.67
510.581	28.71
510.781	28.82
510.98	28.95
511.18	29.04
511.379	29.11
511.579	29.15
511.778	29.28
511.978	29.33
512.177	29.38
512.377	29.37
512.576	29.4
512.776	29.38
512.975	29.43
513.175	29.42
513.374	29.45
513.573	29.42
513.773	29.33
513.972	29.31
514.172	29.3
514.371	29.34
514.57	29.32
514.77	29.43
514.969	29.66
515.168	29.61
515.367	29.67
515.567	29.66
515.766	29.72
515.965	29.78
516.164	29.83
516.364	29.84
516.563	29.77
516.762	29.81
516.961	29.69
517.16	29.47
517.359	29.48
517.559	29.42
517.758	29.35
517.957	29.28
518.156	29.33
518.355	29.3
518.554	29.23
518.753	29.3
518.952	29.27
519.151	29.3
519.35	29.43
519.549	29.41
519.748	29.46
519.947	29.54
520.146	29.6
520.345	29.49
520.544	29.52
520.743	29.68
520.942	29.67
521.141	29.78
521.339	29.81
521.538	29.75
521.737	29.84
521.936	29.8
522.135	29.88
522.333	29.91
522.532	30.07
522.731	30.02
522.93	30.03
523.129	30.13
523.327	30.01
523.526	30.07
523.725	30.13
523.923	30.13
524.122	30.13
524.321	30.02
524.519	30.06
524.718	30.07
524.917	30.12
525.115	30.05
525.314	29.94
525.512	29.94
525.711	29.9
525.909	29.86
526.108	29.84
526.306	29.81
526.505	29.8
526.703	29.69
526.902	29.63
527.1	29.54
527.299	29.56
527.497	29.53
527.696	29.53
527.894	29.52
528.092	29.47
528.291	29.47
528.489	29.44
528.688	29.42
528.886	29.46
529.084	29.47
529.283	29.52
529.481	29.5
529.679	29.52
529.877	29.55
530.076	29.56
530.274	29.62
530.472	29.67
530.67	29.79
530.869	29.84
531.067	29.86
531.265	29.98
531.463	30
531.661	30.06
531.859	30.09
532.057	30.08
532.255	30.15
532.454	30.17
532.652	30.16
532.85	30.16
533.048	30.17
533.246	30.2
533.444	30.16
533.642	30.19
533.84	30.26
534.038	30.33
534.236	30.35
534.434	30.37
534.632	30.42
534.83	30.44
535.027	30.43
535.225	30.54
535.423	30.55
535.621	30.59
535.819	30.63
536.017	30.61
536.215	30.62
536.412	30.75
536.61	30.81
536.808	30.85
537.006	30.9
537.203	31.03
537.401	31.11
537.599	31.28
537.797	31.38
537.994	31.47
538.192	31.64
538.39	31.84
538.587	31.92
538.785	32.06
538.983	32.32
539.18	32.55
539.378	32.63
539.575	32.71
539.773	32.71
539.97	32.78
540.168	32.81
540.366	32.83
540.563	32.81
540.761	32.89
540.958	32.87
541.155	32.86
541.353	32.86
541.55	32.91
541.748	32.96
541.945	33.03
542.143	33.06
542.34	33.16
542.537	33.31
542.735	33.43
542.932	33.51
543.129	33.67
543.327	33.91
543.524	34.12
543.721	34.38
543.919	34.76
544.116	35.1
544.313	35.56
544.51	36.01
544.708	36.36
544.905	36.75
545.102	37.15
545.299	37.5
545.496	37.71
545.693	37.89
545.891	37.94
546.088	37.84
546.285	37.79
546.482	37.58
546.679	37.33
546.876	37.07
547.073	36.88
547.27	36.63
547.467	36.44
547.664	36.22
547.861	36.04
548.058	35.94
548.255	35.8
548.452	35.64
548.649	35.6
548.846	35.53
549.043	35.49
549.24	35.41
549.437	35.39
549.633	35.3
549.83	35.27
550.027	35.13
550.224	35.02
550.421	35.06
550.618	35.06
550.814	34.86
551.011	34.79
551.208	34.7
551.405	34.52
551.601	34.42
551.798	34.27
551.995	34.08
552.191	34.09
552.388	34.02
552.585	33.89
552.781	33.92
552.978	34.05
553.175	34.07
553.371	34
553.568	34.06
553.764	34.07
553.961	34.09
554.157	34.23
554.354	34.22
554.55	34.34
554.747	34.3
554.943	34.21
555.14	34.2
555.336	34.07
555.533	34.1
555.729	34.03
555.926	34.1
556.122	34.09
556.318	34
556.515	33.97
556.711	33.83
556.907	33.74
557.104	33.7
557.3	33.59
557.496	33.67
557.693	33.69
557.889	33.86
558.085	33.63
558.281	33.68
558.478	33.65
558.674	33.57
558.87	33.65
559.066	33.82
559.262	33.84
559.459	33.91
559.655	33.87
559.851	33.87
560.047	33.84
560.243	33.94
560.439	33.93
560.635	33.93
560.831	34.12
561.027	34.12
561.223	34
561.419	34.08
561.615	33.98
561.811	33.97
562.007	34.06
562.203	34.02
562.399	34.05
562.595	34.02
562.791	33.96
562.987	33.85
563.183	33.85
563.379	33.93
563.575	33.87
563.771	33.86
563.966	33.92
564.162	33.89
564.358	33.84
564.554	33.84
564.75	33.78
564.945	33.78
565.141	33.75
565.337	33.64
565.533	33.63
565.728	33.6
565.924	33.54
566.12	33.55
566.315	33.51
566.511	33.48
566.707	33.44
566.902	33.37
567.098	33.44
567.293	33.43
567.489	33.51
567.684	33.47
567.88	33.45
568.076	33.63
568.271	33.5
568.467	33.51
568.662	33.62
568.858	33.56
569.053	33.78
569.248	33.82
569.444	33.88
569.639	33.73
569.835	33.89
570.03	33.87
570.225	33.7
570.421	33.72
570.616	33.79
570.812	33.73
571.007	33.75
571.202	33.76
571.397	33.68
571.593	33.7
571.788	33.76
571.983	33.63
572.178	33.62
572.374	33.69
572.569	33.67
572.764	33.59
572.959	33.57
573.154	33.64
573.35	33.57
573.545	33.59
573.74	33.54
573.935	33.47
574.13	33.53
574.325	33.6
574.52	33.74
574.715	34
574.91	34.02
575.105	34.13
575.3	34.3
575.495	34.48
575.69	34.61
575.885	34.75
576.08	35.17
576.275	35.35
576.47	35.51
576.665	35.63
576.86	35.73
577.055	35.99
577.25	36.16
577.444	36.31
577.639	36.48
577.834	36.72
578.029	36.83
578.224	36.77
578.418	36.98
578.613	37.12
578.808	37.11
579.003	37.19
579.197	37.15
579.392	37.1
579.587	37.22
579.781	37.14
579.976	37.11
580.171	37.18
580.365	37.32
580.56	37.21
580.755	37.25
580.949	37.22
581.144	37.1
581.338	37.22
581.533	37.46
581.727	37.25
581.922	37.24
582.116	37.3
582.311	37.32
582.505	37.27
582.7	37.27
582.894	37.15
583.089	37.44
583.283	37.55
583.478	37.57
583.672	37.5
583.866	37.69
584.061	37.83
584.255	37.86
584.449	37.91
584.644	37.92
584.838	38.04
585.032	38.18
585.226	38.08
585.421	38.18
585.615	38.32
585.809	38.39
586.003	38.42
586.198	38.51
586.392	38.55
586.586	38.61
586.78	38.75
586.974	38.76
587.168	38.85
587.363	38.8
587.557	38.79
587.751	38.58
587.945	38.5
588.139	38.33
588.333	38.22
588.527	38.11
588.721	38.11
588.915	37.8
589.109	37.75
589.303	37.53
589.497	37.47
589.691	37.32
589.885	37.42
590.079	37.46
590.273	37.45
590.466	37.51
590.66	37.59
590.854	37.61
591.048	37.94
591.242	38.05
591.436	38.3
591.629	38.55
591.823	38.78
592.017	38.94
592.211	39.03
592.404	39.15
592.598	39.16
592.792	39.27
592.986	39.41
593.179	39.23
593.373	39.15
593.567	38.95
593.76	38.84
593.954	38.69
594.147	38.58
594.341	38.47
594.535	38.33
594.728	38.22
594.922	38
595.115	37.73
595.309	37.77
595.502	37.64
595.696	37.66
595.889	37.55
596.083	37.49
596.276	37.36
596.47	37.27
596.663	37.32
596.856	37.27
597.05	37.38
597.243	37.42
597.437	37.49
597.63	37.64
597.823	37.83
598.017	38.03
598.21	38.1
598.403	38.23
598.596	38.43
598.79	38.52
598.983	38.65
599.176	38.56
599.369	38.6
599.563	38.49
599.756	38.55
599.949	38.51
600.142	38.32
600.335	38.45
600.528	38.58
600.722	38.54
600.915	38.5
601.108	38.46
601.301	38.51
601.494	38.41
601.687	38.35
601.88	38.23
602.073	38.06
602.266	38.09
602.459	37.78
602.652	37.56
602.845	37.48
603.038	37.27
603.231	37.16
603.424	37.07
603.617	37.12
603.809	37.11
604.002	37.03
604.195	37.04
604.388	36.97
604.581	37.1
604.774	37.05
604.966	37.1
605.159	37.29
605.352	37.38
605.545	37.52
605.737	37.65
605.93	37.81
606.123	38.02
606.316	38.33
606.508	38.56
606.701	38.88
606.894	39.2
607.086	39.51
607.279	39.84
607.471	40.21
607.664	40.51
607.857	40.97
608.049	41.54
608.242	42.23
608.434	43.04
608.627	44.34
608.819	45.57
609.012	47.19
609.204	48.94
609.397	50.84
609.589	52.93
609.782	55.25
609.974	57.61
610.166	59.94
610.359	62.14
610.551	64.33
610.743	66.1
610.936	67.79
611.128	69.02
611.32	69.81
611.513	70.19
611.705	70.37
611.897	70.08
612.09	69.34
612.282	68.47
612.474	67.65
612.666	66.73
612.858	65.72
613.051	64.5
613.243	63.43
613.435	62.4
613.627	61.54
613.819	60.45
614.011	59.89
614.203	59.03
614.395	58.14
614.588	57.14
614.78	55.84
614.972	54.73
615.164	53.76
615.356	52.84
615.548	51.93
615.74	51.03
615.932	49.93
616.124	48.74
616.315	47.94
616.507	47.38
616.699	46.51
616.891	46.12
617.083	45.57
617.275	44.98
617.467	44.5
617.659	44.11
617.85	43.75
618.042	43.9
618.234	43.74
618.426	43.59
618.618	43.2
618.809	43.27
619.001	43.2
619.193	43.15
619.384	43.01
619.576	42.99
619.768	43.13
619.959	42.95
620.151	42.83
620.343	42.73
620.534	42.93
620.726	43.18
620.917	43.18
621.109	42.96
621.301	43.07
621.492	43.16
621.684	43.14
621.875	43.03
622.067	43.28
622.258	43.25
622.45	43.44
622.641	43.21
622.832	43.32
623.024	43.29
623.215	43.51
623.407	43.29
623.598	43.53
623.789	43.75
623.981	43.83
624.172	43.83
624.363	43.73
624.555	43.64
624.746	43.6
624.937	43.42
625.129	43.42
625.32	43.36
625.511	43.5
625.702	43.19
625.893	43.06
626.085	42.82
626.276	42.66
626.467	42.77
626.658	42.74
626.849	42.79
627.04	42.71
627.231	42.76
627.422	42.6
627.614	42.51
627.805	42.66
627.996	42.73
628.187	43.05
628.378	43.51
628.569	43.75
628.76	44
628.951	44.16
629.142	44.51
629.332	44.84
629.523	45.43
629.714	45.67
629.905	46.02
630.096	46.1
630.287	46.22
630.478	46.18
630.669	46.16
630.859	46.23
631.05	46.15
631.241	46.1
631.432	45.86
631.623	45.36
631.813	44.98
632.004	44.42
632.195	44.12
632.385	43.64
632.576	43.27
632.767	42.86
632.957	42.41
633.148	42.15
633.339	41.67
633.529	41.31
633.72	41.28
633.91	41.2
634.101	41.2
634.292	41.09
634.482	41.17
634.673	41.01
634.863	40.99
635.054	41.1
635.244	41.03
635.435	41.1
635.625	41.17
635.815	40.86
636.006	40.93
636.196	41.04
636.387	41
636.577	40.89
636.767	41.05
636.958	41.07
637.148	40.96
637.338	40.91
637.529	40.94
637.719	40.89
637.909	41.01
638.099	40.91
638.29	40.78
638.48	40.94
638.67	40.98
638.86	40.76
639.05	40.82
639.241	40.72
639.431	41.01
639.621	41.02
639.811	40.98
640.001	41.16
640.191	41.3
640.381	41.33
640.571	41.2
640.761	41.1
640.951	41.19
641.141	41.38
641.331	41.39
641.521	41.01
641.711	40.95
641.901	41.08
642.091	40.87
642.281	40.94
642.471	40.99
642.661	41.25
642.851	41.46
643.041	41.6
643.231	41.17
643.42	41.38
643.61	41.64
643.8	41.8
643.99	41.93
644.18	42
644.369	41.88
644.559	41.96
644.749	41.73
644.939	41.64
645.128	41.71
645.318	41.84
645.508	42.06
645.697	42.24
645.887	42.1
646.076	41.85
646.266	41.97
646.456	42.18
646.645	42.12
646.835	42.2
647.024	42.11
647.214	42.03
647.403	42.41
647.593	42.15
647.782	42.07
647.972	42.18
648.161	42.53
648.351	42.63
648.54	42.6
648.73	42.67
648.919	42.81
649.108	43.06
649.298	43.31
649.487	43.44
649.677	43.42
649.866	43.45
650.055	43.59
650.244	43.41
650.434	43.5
650.623	43.51
650.812	43.32
651.002	43.2
651.191	43.3
651.38	43.39
651.569	43.37
651.758	43.32
651.947	43.07
652.137	43.05
652.326	43.18
652.515	42.89
652.704	43.11
652.893	43.2
653.082	43.19
653.271	42.98
653.46	42.79
653.649	42.69
653.838	42.97
654.027	43.33
654.216	43.14
654.405	42.99
654.594	43.11
654.783	42.89
654.972	42.78
655.161	42.94
655.35	42.82
655.539	42.68
655.728	42.5
655.916	42.33
656.105	42.19
656.294	42.42
656.483	42.58
656.672	42.46
656.86	42.3
657.049	42.45
657.238	42.31
657.427	42.54
657.615	42.32
657.804	42.32
657.993	42.23
658.181	42.14
658.37	41.97
658.559	41.82
658.747	41.65
658.936	41.66
659.125	41.48
659.313	41.26
659.502	41.27
659.69	41.46
659.879	41.45
660.067	41.54
660.256	41.79
660.444	41.86
660.633	41.96
660.821	42.2
661.01	42.32
661.198	42.67
661.387	43.11
661.575	43.19
661.763	43.16
661.952	43.11
662.14	43.46
662.328	43.47
662.517	43.58
662.705	43.51
662.893	43.6
663.082	43.79
663.27	43.64
663.458	43.6
663.646	43.56
663.834	43.75
664.023	43.91
664.211	43.77
664.399	43.82
664.587	43.75
664.775	43.87
664.963	44.04
665.152	44.19
665.34	44.28
665.528	44.46
665.716	44.22
665.904	44.47
666.092	44.61
666.28	44.44
666.468	43.95
666.656	43.75
666.844	43.78
667.032	43.68
667.22	43.37
667.408	43.26
667.596	43.26
667.784	43.46
667.971	43.08
668.159	43.2
668.347	43.15
668.535	43.51
668.723	43.69
668.911	43.68
669.098	43.67
669.286	43.77
669.474	43.63
669.662	43.52
669.849	43.5
670.037	43.44
670.225	43.23
670.413	43.12
670.6	42.61
670.788	42.75
670.976	42.92
671.163	42.91
671.351	42.89
671.538	43.26
671.726	43.17
671.913	43.46
672.101	43.54
672.289	43.56
672.476	43.78
672.664	44.26
672.851	44.13
673.039	44.23
673.226	44.55
673.413	44.53
673.601	44.56
673.788	44.79
673.976	44.35
674.163	44.48
674.35	44.58
674.538	44.63
674.725	44.52
674.912	44.8
675.1	44.66
675.287	44.31
675.474	44.42
675.662	44.41
675.849	44.23
676.036	44.57
676.223	44.78
676.411	44.85
676.598	44.93
676.785	44.72
676.972	44.61
677.159	44.51
677.346	44.55
677.533	44.41
677.721	44.31
677.908	44.16
678.095	44.23
678.282	44
678.469	43.85
678.656	43.83
678.843	44.38
679.03	44.46
679.217	44.39
679.404	44.41
679.591	44.45
679.778	44.48
679.964	44.56
680.151	44.29
680.338	44.4
680.525	44.35
680.712	44.2
680.899	44.1
681.086	43.94
681.272	44.18
681.459	44.36
681.646	44.34
681.833	44.34
682.02	44.62
682.206	44.66
682.393	44.68
682.58	44.86
682.766	44.99
682.953	44.92
683.14	45.44
683.326	45.41
683.513	45.36
683.7	45.53
683.886	45.88
684.073	45.65
684.259	45.89
684.446	46.22
684.632	46.31
684.819	46.33
685.005	46.39
685.192	46.37
685.378	46.52
685.565	46.64
685.751	46.64
685.938	46.79
686.124	46.78
686.31	46.73
686.497	46.57
686.683	46.8
686.87	46.62
687.056	46.7
687.242	46.53
687.429	46.51
687.615	46.54
687.801	46.62
687.987	46.33
688.174	46.44
688.36	46.55
688.546	46.46
688.732	46.36
688.918	46.66
689.105	46.73
689.291	46.8
689.477	46.91
689.663	46.9
689.849	47
690.035	47.17
690.221	47.75
690.407	48.15
690.593	48.28
690.779	48.24
690.965	48.59
691.151	48.83
691.337	48.75
691.523	48.83
691.709	48.97
691.895	49.17
692.081	49.2
692.267	49
692.453	48.76
692.639	49.21
692.825	49.51
693.011	49.02
693.196	48.85
693.382	48.91
693.568	48.71
693.754	48.66
693.94	48.01
694.125	48.09
694.311	48.16
694.497	48.26
694.682	47.55
694.868	47.33
695.054	47.51
695.239	47.73
695.425	47.48
695.611	47.47
695.796	47.74
695.982	47.9
696.168	47.71
696.353	47.35
696.539	46.89
696.724	47.27
696.91	47
697.095	46.58
697.281	46.13
697.466	46.2
697.652	45.98
697.837	45.82
698.023	45.67
698.208	45.45
698.393	45.38
698.579	45.34
698.764	45.08
698.949	44.95
699.135	45.19
699.32	45.28
699.505	44.98
699.691	45.37
699.876	45.4
700.061	45.61
700.246	46.03
700.432	46.62
700.617	47.02
700.802	47.13
700.987	47.8
701.172	47.81
701.358	48.17
701.543	48.94
701.728	48.66
701.913	48.74
702.098	48.86
702.283	49
702.468	48.64
702.653	48.75
702.838	49.36
703.023	49.45
703.208	50.17
703.393	50.3
703.578	50.42
703.763	50.79
703.948	51.04
704.133	51.46
704.318	51.81
704.503	52.3
704.688	52.83
704.873	53.39
705.057	53.92
705.242	54.24
705.427	54.58
705.612	54.84
705.797	55.79
705.981	56.45
706.166	57.11
706.351	57.6
706.536	57.99
706.72	58.28
706.905	58.21
707.09	58.21
707.274	58.51
707.459	58.97
707.644	59.39
707.828	58.97
708.013	59.19
708.197	59.11
708.382	58.99
708.567	58.55
708.751	58.08
708.936	57.75
709.12	57.66
709.305	57.23
709.489	56.95
709.673	56.66
709.858	56.38
710.042	55.74
710.227	55.97
710.411	55.95
710.596	56.04
710.78	56.46
710.964	56.91
711.149	56.6
711.333	56.91
711.517	56.82
711.702	56.45
711.886	56.53
712.07	56.51
712.254	55.89
712.438	55.14
712.623	55.12
712.807	54.44
712.991	53.81
713.175	53.57
713.359	52.75
713.544	52.39
713.728	52.23
713.912	51.66
714.096	51.21
714.28	51.01
714.464	50.62
714.648	50.31
714.832	50.36
715.016	49.98
715.2	50.03
715.384	50.31
715.568	50.22
715.752	49.94
715.936	50.31
716.12	50.5
716.304	50.5
716.488	50.51
716.671	50.46
716.855	50.44
717.039	50.36
717.223	50.01
717.407	49.92
717.59	50.13
717.774	50.44
717.958	50.35
718.142	50.49
718.325	50.39
718.509	50.95
718.693	51.17
718.877	51.37
719.06	51.93
719.244	52.38
719.428	52.4
719.611	52.85
719.795	53.09
719.978	53.28
720.162	53.69
720.345	53.77
720.529	53.63
720.713	53.24
720.896	53.35
721.08	53.43
721.263	53.12
721.446	53.05
721.63	52.62
721.813	52.51
721.997	52.26
722.18	51.45
722.364	51.26
722.547	51.28
722.73	51.61
722.914	51.21
723.097	51.58
723.28	52.07
723.464	52.32
723.647	52.32
723.83	52.6
724.013	52.58
724.197	53.06
724.38	53.11
724.563	53.24
724.746	52.94
724.929	53.03
725.112	52.78
725.296	52.97
725.479	52.97
725.662	53.29
725.845	52.81
726.028	53.19
726.211	52.91
726.394	52.98
726.577	53.07
726.76	53.22
726.943	53.47
727.126	53.18
727.309	52.44
727.492	52.11
727.675	51.6
727.858	52.36
728.041	52.3
728.224	52.15
728.407	52.07
728.589	51.81
728.772	52.19
728.955	52.2
729.138	52.33
729.321	52.77
729.503	53.01
729.686	53.34
729.869	53.02
730.052	53.2
730.234	53.07
730.417	53.79
730.6	54
730.782	53.85
730.965	53.78
731.148	53.95
731.33	53.86
731.513	53.22
731.695	53.07
731.878	53.04
732.061	52.9
732.243	53.31
732.426	53.02
732.608	53.05
732.791	53.23
732.973	53.04
733.156	52.68
733.338	52.72
733.52	53.46
733.703	53.62
733.885	53.94
734.068	54.22
734.25	54.21
734.432	54.28
734.615	54.5
734.797	54.28
734.979	54.61
735.162	54.71
735.344	54.77
735.526	55.27
735.708	55.57
735.891	55.88
736.073	55.58
736.255	55.62
736.437	55.66
736.619	55.63
736.802	55.87
736.984	55.62
737.166	56.36
737.348	56.34
737.53	56.12
737.712	55.76
737.894	54.61
738.076	54.7
738.258	54.97
738.44	54.63
738.622	54.22
738.804	54.46
738.986	54.69
739.168	54.62
739.35	55.07
739.532	54.74
739.714	54.93
739.896	55.65
740.078	56.09
740.259	55.89
740.441	56.43
740.623	56.73
740.805	56.08
740.987	56.68
741.168	56.47
741.35	56.79
741.532	57.15
741.714	57.07
741.895	57.54
742.077	57.42
742.259	58.14
742.44	58.58
742.622	58.98
742.804	59.51
742.985	59.14
743.167	59.34
743.348	59.42
743.53	59.46
743.711	59.85
743.893	59.88
744.075	59.42
744.256	59.55
744.438	59.45
744.619	59.46
744.8	59.66
744.982	59.78
745.163	59.93
745.345	59.45
745.526	59.64
745.707	59.77
745.889	59.62
746.07	59.59
746.252	59.96
746.433	59.69
746.614	59.62
746.795	60.04
746.977	59.85
747.158	59.25
747.339	59.32
747.52	59.43
747.702	59.6
747.883	59.73
748.064	60.1
748.245	59.3
748.426	59
748.607	59.35
748.788	58.93
748.97	58.24
749.151	58.58
749.332	58.82
749.513	58.92
749.694	58.69
749.875	58.4
750.056	58.97
750.237	59.01
750.418	59.97
750.599	59.93
750.78	59.88
750.96	60.74
751.141	61.27
751.322	60.72
751.503	60.76
751.684	60.52
751.865	60.41
752.046	60.17
752.226	60.93
752.407	60.68
752.588	61.12
752.769	61.85
752.949	61.33
753.13	60.76
753.311	61.19
753.492	60.19
753.672	60.28
753.853	59.94
754.034	60.61
754.214	59.22
754.395	59.35
754.575	58.52
754.756	57.97
754.937	59.08
755.117	60
755.298	60.44
755.478	61.14
755.659	61.89
755.839	62.31
756.02	62.19
756.2	62.33
756.381	62.84
756.561	62.89
756.741	62.61
756.922	62.22
757.102	61.31
757.283	60.72
757.463	59.95
757.643	59.27
757.823	59.1
758.004	58.05
758.184	57.79
758.364	56.37
758.545	56.2
758.725	56.09
758.905	55.37
759.085	55.19
759.265	54.62
759.446	54.84
759.626	54.75
759.806	54.02
759.986	53.69
760.166	53.87
760.346	54.04
760.526	54.04
760.706	53.89
760.886	53.73
761.066	53.08
761.246	53.9
761.426	54.07
761.606	52.95
761.786	52.84
761.966	53.12
762.146	52.91
762.326	52.93
762.506	52.65
762.686	52.69
762.866	52.07
763.046	52.35
763.225	51.49
763.405	51.29
763.585	51.55
763.765	51.61
763.945	51.32
764.124	51.13
764.304	51.03
764.484	51.21
764.664	51.21
764.843	51.93
765.023	52.13
765.203	52.76
765.382	52.8
765.562	53.12
765.741	53.42
765.921	53.9
766.101	54.58
766.28	55.06
766.46	55.24
766.639	56.36
766.819	57.06
766.998	57.78
767.178	58.12
767.357	58.68
767.537	59.31
767.716	60.02
767.896	60.14
768.075	60.85
768.254	60.71
768.434	61.9
768.613	61.36
768.792	61.27
768.972	61.41
769.151	61.34
769.33	61.29
769.51	61.36
769.689	61.1
769.868	61.52
770.047	62.02
770.226	63.38
770.406	62.83
770.585	62.55
770.764	62.94
770.943	62.61
771.122	62.29
771.301	63.31
771.48	64.22
771.66	64.96
771.839	65.25
772.018	64.33
772.197	63.75
772.376	63.55
772.555	64.49
772.734	64.39
772.913	64.21
773.092	64.32
773.271	63.84
773.449	62.79
773.628	62.92
773.807	63.65
773.986	62.86
774.165	62.72
774.344	63.96
774.523	63.89
774.701	64.37
774.88	65.25
775.059	67.25
775.238	66.94
775.417	66.86
775.595	66.73
775.774	66.19
775.953	67.84
776.131	67.44
776.31	66.8
776.489	66.99
776.667	66.71
776.846	66.3
777.025	64.65
777.203	64.37
777.382	65.73
777.56	65.41
777.739	64.81
777.917	63.98
778.096	65.67
778.274	65.48
778.453	66.07
778.631	65.43
778.81	65.21
778.988	65.88
779.166	67.04
779.345	66.11
779.523	66.5
779.702	66.73
779.88	67.13
780.058	65.72
780.237	65.95
780.415	66.19
780.593	66.78
780.771	67.35
780.95	67.32
781.128	66.85
781.306	65.73
781.484	65.9
781.662	66.34
781.841	67.1
782.019	67.11
782.197	66.33
782.375	64.76
782.553	64.43
782.731	64.65
782.909	64.28
783.087	65.39
783.265	66.6
783.443	66.38
783.621	66.49
783.799	65.9
783.977	65.63
784.155	65.7
784.333	65.47
784.511	65.93
784.689	65.1
784.867	65.07
785.045	63.66
785.223	63.08
785.4	63.52
785.578	63.46
785.756	63.87
785.934	64.5
786.112	65.09
786.289	64.98
786.467	64.85
786.645	64.88
786.823	64.66
787	64.61
787.178	64.14
787.356	63.24
787.533	63.47
787.711	64.07
787.889	63.33
788.066	62.48
788.244	62.92
788.421	62.12
788.599	62.24
788.776	62.63
788.954	62.3
789.131	63.04
789.309	63.57
789.486	62.76
789.664	61.81
789.841	62.25
790.019	62.83
790.196	61.88
790.373	62.39
790.551	62.28
790.728	62.2
790.906	62.63
791.083	61.72
791.26	62.07
791.437	61.89
791.615	62
791.792	62.14
791.969	61.78
792.146	62.86
792.324	62.73
792.501	63.02
792.678	63.81
792.855	65.27
793.032	66.4
793.209	65.59
793.387	66.99
793.564	67.19
793.741	67.76
793.918	69.03
794.095	69.54
794.272	70.17
794.449	70.01
794.626	68.73
794.803	67.8
794.98	68.26
795.157	69.32
795.334	68.46
795.511	68.29
795.688	66.85
795.864	65.89
796.041	64.42
796.218	64.04
796.395	63.71
796.572	64.04
796.749	63.86
796.925	63.92
797.102	63.44
797.279	63.67
797.456	63.39
797.632	64.07
797.809	64.38
797.986	65.15
798.162	64.52
798.339	65.15
798.516	65.41
798.692	65.55
798.869	64.36
799.046	63.54
799.222	63.42
799.399	63.39
799.575	64.02
799.752	64.46
799.928	64.93
800.105	65.22
800.281	64.98
800.458	65.81
800.634	65.77
800.811	67.4
800.987	67.52
801.163	67.73
801.34	68.16
801.516	67.32
801.692	67.59
801.869	67.12
802.045	68.16
802.221	69.14
802.398	68.43
802.574	69.18
802.75	67.93
802.926	68.93
803.103	69.17
803.279	68.53
803.455	68.28
803.631	68.01
803.807	69.2
803.983	69.57
804.16	68.81
804.336	68.69
804.512	67.13
804.688	65.89
804.864	64.88
805.04	64.72
805.216	65.13
805.392	65.47
805.568	64.59
805.744	64.67
805.92	65.23
806.096	65.88
806.272	65.24
806.448	66.89
806.623	69.93
806.799	69.84
806.975	69.52
807.151	70.07
807.327	70.04
807.503	70.16
807.678	69.87
807.854	68.5
808.03	67.82
808.206	67.76
808.381	66.73
808.557	65.93
808.733	66.73
808.908	68.08
809.084	69.61
809.26	70.09
809.435	70.91
809.611	69.39
809.787	69.52
809.962	68.74
810.138	69.69
810.313	69.81
810.489	69.5
810.664	69.53
810.84	67.33
811.015	65.72
811.191	66.35
811.366	65.49
811.542	68.25
811.717	67.06
811.892	69.29
812.068	69.53
812.243	69.5
812.419	69.38
812.594	68.62
812.769	70.32
812.944	70.26
813.12	69.54
813.295	69.83
813.47	68.74
813.645	70.6
813.821	67.82
813.996	67.59
814.171	66.71
814.346	67.03
814.521	68.73
814.697	67.5
814.872	67.53
815.047	66.51
815.222	66.57
815.397	65.83
815.572	65.07
815.747	66.48
815.922	65.42
816.097	66.38
816.272	66.85
816.447	66.62
816.622	67.36
816.797	66.94
816.972	67.17
817.147	66.93
817.322	67.7
817.496	66.74
817.671	67.35
817.846	68.19
818.021	67.05
818.196	66.25
818.371	65.27
818.545	65.57
818.72	66.49
818.895	65.83
819.069	64.91
819.244	64.09
819.419	63.77
819.594	63.17
819.768	61.88
819.943	61.67
820.117	60.19
820.292	58.84
820.467	57.08
820.641	55.48
820.816	54.24
820.99	53.24
821.165	52.24
821.339	51.34
821.514	49.99
821.688	49.51
821.863	48.95
822.037	48.6
822.212	47.97
822.386	47.45
822.56	46.75
822.735	46.69
822.909	46.63
823.084	46.35
823.258	46.37
823.432	46.4
823.606	46.28
823.781	46.14
823.955	46.21
824.129	46.76
824.303	46.8
824.478	47.21
824.652	47.47
824.826	47.75
825	48.03
825.174	48.72
825.348	49.6
825.523	50
825.697	50.89
825.871	51.13
826.045	51.33
826.219	51.93
826.393	51.51
826.567	51.53
826.741	51.11
826.915	51.2
827.089	50.39
827.263	50.38
827.437	50.46
827.611	49.71
827.784	49.69
827.958	49.79
828.132	49.7
828.306	50.63
828.48	50.75
828.654	50.95
828.827	50.84
829.001	51.75
829.175	51.39
829.349	51.57
829.522	53.55
829.696	54.28
829.87	54.1
830.044	54.53
830.217	55.66
830.391	55.82
830.565	56.4
830.738	58.63
830.912	59.08
831.085	60.34
831.259	61.28
831.432	59.7
831.606	58.77
831.779	58.8
831.953	59.86
832.126	59.15
832.3	59.2
832.473	59.79
832.647	57.94
832.82	56.83
832.994	56.16
833.167	55.4
833.34	55.76
833.514	55.92
833.687	55.95
833.86	55.44
834.034	55.38
834.207	55.34
834.38	55.16
834.553	55.54
834.727	54.92
834.9	55.04
835.073	55.17
835.246	55.27
835.419	55.48
835.593	55.41
835.766	55.99
835.939	56.23
836.112	56.84
836.285	55.93
836.458	57.01
836.631	58.88
836.804	60.01
836.977	61.36
837.15	62.77
837.323	65.36
837.496	67.76
837.669	68.4
837.842	69.28
838.015	68.61
838.188	69.77
838.361	69.46
838.533	70.03
838.706	70.12
838.879	70.71
839.052	71.93
839.225	70.28
839.398	68.76
839.57	69.36
839.743	68.88
839.916	71.7
840.088	72.03
840.261	71.88
840.434	72.6
840.607	73.29
840.779	71.29
840.952	68.94
841.124	68.18
841.297	68.29
841.47	68.22
841.642	68.73
841.815	68.07
841.987	69.81
842.16	71.96
842.332	73.45
842.505	73.92
842.677	76.84
842.85	78.72
843.022	80.65
843.194	86.44
843.367	88.3
843.539	88.29
843.712	90.54
843.884	90.15
844.056	87.81
844.229	87.8
844.401	89.13
844.573	88.99
844.745	90.19
844.918	91.47
845.09	87.48
845.262	88.36
845.434	92.53
845.606	89.86
845.779	91.26
845.951	92.84
846.123	89.5
846.295	87.1
846.467	88.42
846.639	87.2
846.811	88.82
846.983	89.46
847.155	86.72
847.327	85.43
847.499	87.25
847.671	92.51
847.843	93.18
848.015	95.21
848.187	96.42
848.359	96.47
848.531	97.63
848.703	98.48
848.875	97.75
849.047	99.84
849.218	96.23
849.39	97.42
849.562	95.68
849.734	91.38
849.905	94.18
850.077	94.07
850.249	95.78
850.421	95.25
850.592	90.42
850.764	88.99
850.936	86.19
851.107	87.26
851.279	85.07
851.451	85.38
851.622	90.42
851.794	93.37
851.965	95.08
852.137	93.9
852.308	94.68
852.48	97.56
852.651	101.33
852.823	100
852.994	102.13
853.166	105.26
853.337	106.03
853.509	102.34
853.68	102.99
853.851	99.12
854.023	97.76
854.194	91.8
854.365	91.56
854.537	90.64
854.708	98.13
854.879	99.37
855.05	104.14
855.222	99.15
855.393	104.09
855.564	98.13
855.735	99.1
855.906	100.13
856.078	107.63
856.249	106.24
856.42	104.46
856.591	101.88
856.762	98.32
856.933	94.08
857.104	91.39
857.275	92.01
857.446	88.68
857.617	89.32
857.788	94.07
857.959	94.15
858.13	99.25
858.301	104.19
858.472	104.19
858.643	106.3
858.814	105.15
858.985	106.8
859.155	105.06
859.326	109.54
859.497	111.3
859.668	100.72
859.839	97.4
860.009	95.11
860.18	91.59
860.351	89.14
860.522	92.89
860.692	95.38
860.863	96.45
861.034	90.26
861.204	91.97
861.375	88.41
861.546	95.07
861.716	101.65
861.887	100.8
862.057	99.58
862.228	100.13
862.398	99.67
862.569	97.19
862.739	96.82
862.91	94.22
863.08	95.12
863.251	97.45
863.421	96.23
863.592	89.28
863.762	86.87
863.932	84.06
864.103	86.1
864.273	87.17
864.443	88.53
864.614	88.73
864.784	93.26
864.954	93.18
865.125	98.9
865.295	97.43
865.465	100.22
865.635	102.01
865.805	107.41
865.976	108.72
866.146	112.02
866.316	120.43
866.486	123.2
866.656	124.36
866.826	121.99
866.996	112.64
867.166	110.66
867.336	113.92
867.506	114.07
867.676	112.3
867.846	112.88
868.016	108.68
868.186	95.19
868.356	95.8
868.526	95.38
868.696	93.41
868.866	97.77
869.036	97.34
869.206	89.85
869.376	91.24
869.545	91.24
869.715	96.21
869.885	94.75
870.055	102.51
870.224	103.02
870.394	102.3
870.564	103.26
870.734	102.39
870.903	104.28
871.073	105.32
871.243	110.17
871.412	108.79
871.582	100.9
871.751	110.08
871.921	109.16
872.091	102.32
872.26	99.86
872.43	99.86
872.599	100.53
872.769	100.23
872.938	104.33
873.108	98.27
873.277	98.63
873.446	98.38
873.616	91.65
873.785	90.78
873.955	94.47
874.124	95.71
874.293	93.14
874.463	92.83
874.632	93.5
874.801	87.64
874.971	88.31
875.14	87.75
875.309	85.38
875.478	86.89
875.647	88.98
875.817	86.13
875.986	87.52
876.155	89.05
876.324	87.26
876.493	88.54
876.662	92.65
876.831	96.11
877	94.36
877.17	95.8
877.339	100.15
877.508	95.14
877.677	94.07
877.846	93.92
878.015	95.16
878.184	98.87
878.352	98.06
878.521	97.8
878.69	92.31
878.859	91.91
879.028	88.09
879.197	82.93
879.366	79.47
879.534	77.19
879.703	76.75
879.872	71.11
880.041	66.78
880.21	61.08
880.378	57.53
880.547	53.62
880.716	52.98
880.884	52.18
881.053	50.36
881.222	49.69
881.39	49.43
881.559	47.62
881.727	47.46
881.896	47
882.065	47.06
882.233	47.05
882.402	48.11
882.57	47.53
882.739	46.91
882.907	47.26
883.076	47.29
883.244	47.07
883.412	46.36
883.581	46.59
883.749	46.87
883.918	47.15
884.086	47.26
884.254	46.71
884.423	47.21
884.591	48.27
884.759	48.25
884.927	49.21
885.096	49.37
885.264	52.45
885.432	53.64
885.6	54.48
885.769	56.34
885.937	57.27
886.105	59.69
886.273	62.38
886.441	63.37
886.609	64.5
886.777	64.96
886.945	68.59
887.113	72.26
887.281	72.53
887.449	70.58
887.617	70.81
887.785	74.89
887.953	77.29
888.121	81.73
888.289	82.05
888.457	86.35
888.625	91.43
888.793	90.19
888.961	81.78
889.129	88.04
889.296	96.72
889.464	100.73
889.632	97.81
889.8	96.65
889.967	89.53
890.135	94.73
