Data from 2938746__Reflection_06.txt Node
Date: Sun Mar 15 11:45:22 EDT 2015
User: robert
Spectrometer: USB4E03002
Autoset integration time: false
Trigger mode: 4
Integration Time (sec): 1.000000E-1
Scans to average: 10
Electric dark correction enabled: false
Nonlinearity correction enabled: false
Boxcar width: 5
Stray light correction enabled: false
XAxis mode: Wavelengths
Stop averaging: false
Number of Pixels in Spectrum: 3648
>>>>>Begin Spectral Data<<<<<
177.575	339.6
177.794	271.69
178.014	466.11
178.233	538.63
178.452	643.48
178.672	939.86
178.891	984.21
179.11	-2532.56
179.33	-521.69
179.549	-567.18
179.768	-919.58
179.987	-1703.9
180.207	-452.69
180.426	-2403.85
180.645	-1762.69
180.864	-16714.29
181.084	1111.61
181.303	-5395.24
181.522	740.41
181.741	704.21
181.96	1078.86
182.179	272.1
182.398	267.15
182.618	192.64
182.837	216.08
183.056	204.98
183.275	227.81
183.494	253.3
183.713	220.68
183.932	183.5
184.151	166.27
184.37	165.48
184.589	284.83
184.808	286.86
185.027	311.03
185.246	300.37
185.465	263.19
185.684	284.38
185.903	268.04
186.122	256.3
186.341	392.31
186.56	637.65
186.779	477.42
186.998	390.27
187.216	406.38
187.435	719.11
187.654	685.71
187.873	2032
188.092	685.8
188.311	474.89
188.53	614.74
188.748	621.31
188.967	466.81
189.186	552.4
189.405	439.92
189.623	601.57
189.842	405.86
190.061	441.72
190.28	442.09
190.498	809.09
190.717	640.5
190.936	997.62
191.154	646.37
191.373	546.73
191.592	287.06
191.81	245.82
192.029	221.46
192.248	255.84
192.466	320.7
192.685	276.65
192.904	209.15
193.122	250.11
193.341	297.77
193.559	237
193.778	282.97
193.996	559.31
194.215	853.79
194.433	-3829.63
194.652	1164.77
194.87	833.85
195.089	1348.84
195.307	2305.66
195.526	931.01
195.744	1914.29
195.963	-1488.42
196.181	-3339.53
196.399	-3052
196.618	-1268
196.836	-1339.66
197.055	-637.3
197.273	-809.22
197.491	-896.61
197.71	-3069.64
197.928	-1655.1
198.146	-1174.58
198.365	-1280.73
198.583	-2439.66
198.801	3800
199.019	770.99
199.238	437.54
199.456	290.48
199.674	359.48
199.892	482.98
200.111	464.77
200.329	577.19
200.547	277.32
200.765	208.07
200.983	200.77
201.202	206.09
201.42	246.67
201.638	233.03
201.856	265.94
202.074	213.24
202.292	187.65
202.51	237.83
202.728	212.99
202.946	259.1
203.165	340.72
203.383	340.18
203.601	340.88
203.819	320
204.037	327.98
204.255	268.11
204.473	224.36
204.691	232.47
204.909	207.58
205.127	215.9
205.345	178.63
205.562	168.83
205.78	219.63
205.998	283.63
206.216	330.72
206.434	319.92
206.652	455.75
206.87	1208.59
207.088	4152.94
207.306	715.98
207.523	932.91
207.741	1040.97
207.959	1183.47
208.177	459.45
208.395	311.24
208.612	273.24
208.83	329.72
209.048	337.96
209.266	232.56
209.483	222.96
209.701	265.1
209.919	323.89
210.136	227.53
210.354	194.92
210.572	273.5
210.79	290.85
211.007	223.68
211.225	194.56
211.442	156.75
211.66	169.43
211.878	214.86
212.095	168.21
212.313	158.53
212.53	175.82
212.748	189.57
212.966	165.03
213.183	150.55
213.401	175.96
213.618	167.48
213.836	160.06
214.053	162.03
214.271	141.97
214.488	171.47
214.705	140.15
214.923	163.67
215.14	163.67
215.358	166.81
215.575	173.46
215.793	144.3
216.01	160.1
216.227	160.66
216.445	172.26
216.662	175.54
216.879	157.63
217.097	156.89
217.314	137.92
217.531	130.27
217.749	128.69
217.966	133.31
218.183	142.45
218.4	134.41
218.618	142.53
218.835	134.27
219.052	110.71
219.269	116.61
219.487	120.64
219.704	127.96
219.921	123.55
220.138	120.19
220.355	103.52
220.572	85.55
220.79	84.24
221.007	83.15
221.224	72.1
221.441	79.91
221.658	75.41
221.875	69.86
222.092	66.63
222.309	62.85
222.526	61.22
222.743	59.5
222.96	60.79
223.177	61.62
223.394	63.11
223.611	65.3
223.828	60.27
224.045	56.94
224.262	54.37
224.479	44.13
224.696	40.2
224.913	39.62
225.13	32.28
225.347	33.92
225.564	28.48
225.781	28.13
225.997	29.16
226.214	27.52
226.431	28.54
226.648	27.43
226.865	27.4
227.082	25.97
227.298	21.91
227.515	23.11
227.732	21.72
227.949	19.64
228.165	16.8
228.382	15.13
228.599	14.33
228.816	12.18
229.032	12.22
229.249	11.98
229.466	12.44
229.682	12.23
229.899	11.18
230.116	10.92
230.332	11.59
230.549	12.12
230.765	13.14
230.982	13.04
231.199	14.92
231.415	14.7
231.632	16.97
231.848	17.52
232.065	18.84
232.281	18.54
232.498	19.44
232.714	20.51
232.931	20.77
233.147	20.45
233.364	22.66
233.58	21.48
233.797	22.67
234.013	20.79
234.23	19.55
234.446	18.8
234.662	19.7
234.879	17.92
235.095	15.85
235.312	16.91
235.528	16.12
235.744	15.48
235.961	16.04
236.177	14.1
236.393	13.86
236.61	14.32
236.826	14.55
237.042	13.45
237.258	15.02
237.475	16.06
237.691	15.12
237.907	15.52
238.123	14.52
238.339	13.29
238.556	13.47
238.772	13.54
238.988	13.8
239.204	15.04
239.42	16.22
239.636	14.97
239.853	14.72
240.069	14.61
240.285	13.36
240.501	13
240.717	13.07
240.933	11.87
241.149	10.55
241.365	9.63
241.581	8.55
241.797	8.32
242.013	7.84
242.229	7.29
242.445	7.01
242.661	7.62
242.877	7.8
243.093	7.85
243.309	8.77
243.525	9.25
243.741	9.7
243.957	10.79
244.173	9.83
244.388	10.18
244.604	10.23
244.82	10.03
245.036	8.54
245.252	8.41
245.468	7.85
245.683	7.24
245.899	6.2
246.115	5.65
246.331	4.86
246.547	5.23
246.762	5.27
246.978	5.54
247.194	5.66
247.409	6.16
247.625	5.97
247.841	5.79
248.057	5.64
248.272	6.56
248.488	6.61
248.703	6.58
248.919	6.82
249.135	7.42
249.35	8.07
249.566	7.99
249.782	8.25
249.997	8.32
250.213	8.52
250.428	8.85
250.644	7.62
250.859	7.7
251.075	8.3
251.29	8.31
251.506	7.34
251.721	6.84
251.937	6.97
252.152	6.64
252.368	6.62
252.583	6.99
252.798	7.15
253.014	7.37
253.229	7.85
253.445	8.15
253.66	8.31
253.875	8.92
254.091	9.23
254.306	10.06
254.521	9.89
254.737	10.58
254.952	10.31
255.167	10.96
255.383	10.72
255.598	10.68
255.813	10.66
256.028	10.22
256.244	9.73
256.459	8.61
256.674	7.97
256.889	6.86
257.104	7.01
257.32	7.01
257.535	6.46
257.75	7.22
257.965	7.07
258.18	6.22
258.395	5.52
258.61	5.19
258.826	5.39
259.041	4.77
259.256	5.03
259.471	4.68
259.686	4.73
259.901	4.37
260.116	3.93
260.331	3.85
260.546	3.75
260.761	4.27
260.976	4.44
261.191	4.4
261.406	4.97
261.621	5.34
261.836	5.45
262.05	5.56
262.265	6.48
262.48	7.12
262.695	7.29
262.91	8.06
263.125	8.22
263.34	8.2
263.555	9.12
263.769	8.57
263.984	8.77
264.199	9.11
264.414	8.9
264.629	8.38
264.843	8.17
265.058	8.98
265.273	8.4
265.488	7.65
265.702	7.74
265.917	6.81
266.132	7.05
266.346	6.85
266.561	7.06
266.776	7.36
266.99	7.42
267.205	7.3
267.42	6.46
267.634	6.81
267.849	6.81
268.063	6.94
268.278	6.98
268.492	7.06
268.707	6.83
268.922	6.3
269.136	5.78
269.351	5.85
269.565	5.76
269.78	5.92
269.994	5.77
270.209	6.24
270.423	6.15
270.637	6.09
270.852	5.65
271.066	5.26
271.281	5.62
271.495	5.71
271.709	5.65
271.924	5.73
272.138	5.56
272.353	5.54
272.567	5.18
272.781	4.96
272.996	4.64
273.21	5.22
273.424	5.84
273.638	5.79
273.853	5.6
274.067	5.37
274.281	6.2
274.495	5.83
274.71	5.7
274.924	5.97
275.138	6.19
275.352	6.85
275.566	6.97
275.781	6.38
275.995	6.33
276.209	6.93
276.423	6.78
276.637	5.89
276.851	6.3
277.065	6.57
277.279	6.31
277.493	5.73
277.707	5.87
277.921	5.31
278.135	5.6
278.349	5.67
278.563	5.2
278.777	5.31
278.991	5.42
279.205	5.66
279.419	5.96
279.633	6.26
279.847	6.3
280.061	6.02
280.275	5.91
280.489	5.7
280.703	5.71
280.917	5.91
281.131	5.68
281.344	6.02
281.558	6.14
281.772	6.09
281.986	6.17
282.2	6.53
282.414	6.72
282.627	6.51
282.841	6.72
283.055	6.71
283.269	6.75
283.482	7.08
283.696	6.76
283.91	6.52
284.123	6.01
284.337	5.39
284.551	5.15
284.764	4.96
284.978	5.06
285.192	4.88
285.405	5.02
285.619	5.2
285.833	4.83
286.046	4.84
286.26	4.71
286.473	4.94
286.687	5.21
286.9	5.33
287.114	5.06
287.327	5.18
287.541	5.22
287.754	4.97
287.968	4.5
288.181	4.43
288.395	4.12
288.608	4.62
288.822	4.63
289.035	4.44
289.248	4.26
289.462	4.23
289.675	4.41
289.889	4.42
290.102	3.95
290.315	3.98
290.529	3.94
290.742	3.82
290.955	3.67
291.169	3.24
291.382	3.45
291.595	3.59
291.808	3.54
292.022	3.93
292.235	4.37
292.448	4.94
292.661	4.92
292.875	5.67
293.088	6.18
293.301	5.78
293.514	6.16
293.727	6.4
293.94	6.54
294.153	6.69
294.367	5.93
294.58	5.72
294.793	5.68
295.006	5.6
295.219	5.31
295.432	5.17
295.645	5.5
295.858	5.66
296.071	5.4
296.284	5.14
296.497	5.29
296.71	5.52
296.923	5.25
297.136	5.35
297.349	5.29
297.562	5.15
297.775	4.91
297.988	4.93
298.201	5.09
298.414	5.32
298.626	5.37
298.839	5.16
299.052	4.93
299.265	5.3
299.478	4.87
299.691	5.29
299.903	5.56
300.116	5.54
300.329	5.34
300.542	4.75
300.755	4.57
300.967	4.88
301.18	4.78
301.393	4.83
301.605	4.62
301.818	4.92
302.031	4.98
302.243	5.08
302.456	5.36
302.669	5.49
302.881	5.84
303.094	5.9
303.307	5.74
303.519	5.88
303.732	6.04
303.944	6.08
304.157	6.16
304.37	6.08
304.582	5.93
304.795	5.83
305.007	5.47
305.22	5.42
305.432	5.51
305.645	5.51
305.857	6.01
306.069	5.94
306.282	5.57
306.494	5.03
306.707	4.9
306.919	5.27
307.132	5.21
307.344	5.43
307.556	5.13
307.769	5.25
307.981	5.4
308.193	4.66
308.406	4.86
308.618	5.14
308.83	5.39
309.043	5.4
309.255	4.91
309.467	5.09
309.679	5.16
309.892	5.18
310.104	5.11
310.316	4.77
310.528	5.12
310.74	4.89
310.953	4.93
311.165	5.04
311.377	4.84
311.589	5.17
311.801	5.21
312.013	5.24
312.225	5.58
312.437	5.71
312.649	5.77
312.862	5.86
313.074	6.1
313.286	5.91
313.498	5.96
313.71	5.95
313.922	5.71
314.134	5.9
314.346	6.28
314.558	5.86
314.77	5.43
314.982	5.6
315.193	5.51
315.405	5.4
315.617	5.53
315.829	5.54
316.041	6
316.253	5.65
316.465	5.71
316.677	5.34
316.888	5.93
317.1	5.78
317.312	6.3
317.524	6.25
317.736	6.51
317.947	6.84
318.159	6.86
318.371	6.53
318.583	7.02
318.794	6.77
319.006	6.79
319.218	6.4
319.43	6.64
319.641	6.36
319.853	6.83
320.064	6.96
320.276	6.93
320.488	6.98
320.699	7.45
320.911	8.14
321.123	8.04
321.334	7.95
321.546	8.19
321.757	7.76
321.969	8
322.18	7.48
322.392	7.71
322.603	7.76
322.815	8.37
323.026	8.29
323.238	7.89
323.449	7.93
323.661	7.94
323.872	8.34
324.083	8.78
324.295	8.97
324.506	9.61
324.718	9.19
324.929	9
325.14	8.79
325.352	8.94
325.563	9.23
325.774	9.36
325.986	9.52
326.197	9.23
326.408	9.86
326.62	9.64
326.831	9.25
327.042	9.88
327.253	10.72
327.464	10.9
327.676	11.18
327.887	11.31
328.098	11.83
328.309	12.54
328.52	13.03
328.732	12.69
328.943	13.29
329.154	13.77
329.365	13.56
329.576	13.46
329.787	13.78
329.998	13.5
330.209	13.81
330.42	13.74
330.631	13.43
330.842	13.53
331.053	14.16
331.264	14.15
331.475	14.44
331.686	15.15
331.897	15.14
332.108	14.94
332.319	15.38
332.53	15.5
332.741	15.64
332.952	15.75
333.163	15.97
333.374	15.78
333.585	16.04
333.795	16.32
334.006	15.93
334.217	15.88
334.428	15.62
334.639	15.79
334.849	15.22
335.06	14.96
335.271	15.29
335.482	15.4
335.692	15.36
335.903	15.44
336.114	15.34
336.325	15.28
336.535	15.34
336.746	15.51
336.957	15.21
337.167	15.7
337.378	15.9
337.589	15.93
337.799	15.51
338.01	15.75
338.22	15.39
338.431	14.95
338.642	14.71
338.852	14.81
339.063	15.18
339.273	15.19
339.484	14.68
339.694	15.16
339.905	14.89
340.115	15.4
340.326	15.47
340.536	15.74
340.746	15.8
340.957	16.39
341.167	16.11
341.378	15.89
341.588	15.88
341.799	16.3
342.009	16.07
342.219	16.29
342.43	15.86
342.64	15.81
342.85	15.57
343.061	15.95
343.271	15.76
343.481	16.04
343.691	16.26
343.902	16.45
344.112	16.26
344.322	16.34
344.532	16.32
344.743	16.49
344.953	16.1
345.163	16.18
345.373	15.93
345.583	15.91
345.793	15.43
346.004	15.2
346.214	15.15
346.424	14.77
346.634	14.66
346.844	14.35
347.054	14.11
347.264	14.28
347.474	14.12
347.684	14.23
347.894	13.89
348.104	14.22
348.314	14.62
348.524	14.94
348.734	14.81
348.944	14.85
349.154	14.82
349.364	14.91
349.574	14.75
349.784	14.96
349.994	14.79
350.204	15.06
350.413	14.92
350.623	14.63
350.833	14.5
351.043	15.06
351.253	15.09
351.463	15.33
351.672	15.25
351.882	15.35
352.092	15.23
352.302	15.36
352.511	15.6
352.721	15.89
352.931	15.83
353.141	15.79
353.35	15.77
353.56	15.24
353.77	15.29
353.979	15.09
354.189	15.18
354.399	15.03
354.608	14.94
354.818	14.5
355.027	14.29
355.237	14.42
355.447	14.2
355.656	14.16
355.866	14.37
356.075	14.02
356.285	14.25
356.494	14.31
356.704	14.41
356.913	14.33
357.123	14.65
357.332	14.64
357.542	14.54
357.751	14.44
357.96	14.53
358.17	14.72
358.379	14.75
358.589	14.61
358.798	14.4
359.007	14.44
359.217	14.53
359.426	14.4
359.635	14.4
359.845	14.27
360.054	14.45
360.263	14.24
360.472	13.8
360.682	14.15
360.891	14.06
361.1	14.04
361.309	13.9
361.519	13.72
361.728	13.66
361.937	13.74
362.146	13.82
362.355	13.75
362.564	13.75
362.774	13.81
362.983	13.35
363.192	13.27
363.401	13.27
363.61	13.07
363.819	13.43
364.028	13.37
364.237	13.28
364.446	13.39
364.655	13.14
364.864	13.39
365.073	13.86
365.282	14.14
365.491	14.48
365.7	14.21
365.909	14.36
366.118	14.2
366.327	14.18
366.536	14.16
366.745	13.9
366.954	14.3
367.162	14.3
367.371	13.88
367.58	13.85
367.789	13.59
367.998	13.86
368.207	13.96
368.415	13.7
368.624	13.45
368.833	13.36
369.042	13.42
369.25	13.46
369.459	13.37
369.668	13.59
369.877	13.38
370.085	13.5
370.294	13.48
370.503	13.21
370.711	13.39
370.92	13.56
371.129	13.84
371.337	14.02
371.546	13.8
371.754	13.97
371.963	13.79
372.171	13.81
372.38	13.79
372.589	13.83
372.797	14.18
373.006	14.29
373.214	14.27
373.423	13.85
373.631	13.63
373.84	13.68
374.048	13.54
374.256	13.72
374.465	13.84
374.673	13.76
374.882	13.75
375.09	13.68
375.298	13.68
375.507	13.88
375.715	13.91
375.923	13.94
376.132	13.96
376.34	13.84
376.548	13.85
376.757	13.92
376.965	13.93
377.173	13.89
377.381	13.57
377.59	13.26
377.798	13
378.006	13.05
378.214	12.95
378.423	12.99
378.631	12.86
378.839	12.65
379.047	12.59
379.255	12.61
379.463	12.51
379.671	12.85
379.879	12.91
380.088	12.93
380.296	12.88
380.504	12.87
380.712	12.75
380.92	12.73
381.128	13.02
381.336	12.88
381.544	12.77
381.752	12.73
381.96	12.63
382.168	12.56
382.376	12.69
382.584	12.64
382.791	12.78
382.999	12.76
383.207	12.6
383.415	12.49
383.623	12.51
383.831	12.39
384.039	12.48
384.247	12.5
384.454	12.64
384.662	12.62
384.87	12.92
385.078	12.74
385.285	12.52
385.493	12.64
385.701	12.49
385.909	12.53
386.116	12.73
386.324	12.76
386.532	12.67
386.739	12.67
386.947	12.7
387.155	12.59
387.362	12.74
387.57	12.85
387.778	12.88
387.985	12.79
388.193	12.81
388.4	12.93
388.608	12.95
388.816	12.94
389.023	12.69
389.231	12.72
389.438	12.68
389.646	12.71
389.853	12.75
390.061	12.78
390.268	12.76
390.475	12.54
390.683	12.5
390.89	12.45
391.098	12.43
391.305	12.43
391.512	12.23
391.72	12.17
391.927	11.9
392.135	11.73
392.342	11.67
392.549	11.75
392.756	11.66
392.964	11.58
393.171	11.57
393.378	11.41
393.586	11.47
393.793	11.48
394	11.5
394.207	11.56
394.414	11.77
394.622	11.67
394.829	11.8
395.036	11.87
395.243	11.8
395.45	11.73
395.657	11.85
395.864	12
396.072	11.97
396.279	11.84
396.486	11.85
396.693	11.72
396.9	11.85
397.107	11.41
397.314	11.64
397.521	11.55
397.728	11.62
397.935	11.61
398.142	11.38
398.349	11.35
398.556	11.58
398.763	11.54
398.97	11.63
399.177	11.52
399.383	11.8
399.59	11.68
399.797	11.83
400.004	11.66
400.211	11.79
400.418	11.91
400.625	11.8
400.831	11.68
401.038	11.83
401.245	11.82
401.452	11.98
401.658	11.98
401.865	12.01
402.072	11.88
402.279	12.01
402.485	12.04
402.692	12.01
402.899	12.28
403.105	12.38
403.312	12.25
403.519	12.21
403.725	12.13
403.932	12.13
404.138	12.21
404.345	12.12
404.552	12.08
404.758	11.85
404.965	11.8
405.171	11.61
405.378	11.5
405.584	11.58
405.791	11.64
405.997	11.62
406.204	11.68
406.41	11.59
406.617	11.97
406.823	12.07
407.029	12.32
407.236	12.51
407.442	12.7
407.649	12.77
407.855	12.73
408.061	12.65
408.268	12.66
408.474	12.76
408.68	12.67
408.887	12.35
409.093	12.37
409.299	12.23
409.505	11.9
409.712	11.85
409.918	11.74
410.124	11.83
410.33	11.77
410.537	11.91
410.743	11.72
410.949	11.81
411.155	11.94
411.361	11.93
411.567	12.1
411.773	12.23
411.98	12.25
412.186	12.39
412.392	12.2
412.598	12.15
412.804	12.13
413.01	12.17
413.216	12.05
413.422	12.04
413.628	11.97
413.834	12.02
414.04	11.99
414.246	11.91
414.452	11.9
414.658	12.05
414.864	12.25
415.07	12.12
415.275	12.05
415.481	11.98
415.687	11.83
415.893	11.74
416.099	11.59
416.305	11.73
416.511	11.73
416.716	11.67
416.922	11.56
417.128	11.44
417.334	11.49
417.539	11.49
417.745	11.49
417.951	11.51
418.157	11.52
418.362	11.37
418.568	11.26
418.774	11.27
418.979	11.27
419.185	11.34
419.391	11.21
419.596	11.13
419.802	11.14
420.008	11.21
420.213	10.59
420.419	10.63
420.624	10.68
420.83	10.71
421.035	10.62
421.241	10.61
421.446	10.45
421.652	10.5
421.857	10.49
422.063	10.52
422.268	10.53
422.474	11.05
422.679	10.94
422.885	10.99
423.09	10.94
423.295	10.93
423.501	10.85
423.706	10.93
423.911	10.95
424.117	10.93
424.322	10.96
424.527	10.92
424.733	10.93
424.938	10.95
425.143	10.9
425.349	10.95
425.554	10.93
425.759	10.99
425.964	11.05
426.169	11.13
426.375	11.08
426.58	11.02
426.785	10.97
426.99	10.92
427.195	10.94
427.4	11.12
427.605	11.16
427.811	11.34
428.016	11.26
428.221	11.17
428.426	11.16
428.631	11.26
428.836	11.21
429.041	11.43
429.246	11.62
429.451	11.8
429.656	11.62
429.861	11.63
430.066	11.48
430.271	11.54
430.476	11.65
430.681	11.53
430.886	11.61
431.09	11.66
431.295	11.59
431.5	11.56
431.705	11.45
431.91	11.38
432.115	11.34
432.32	11.39
432.524	11.36
432.729	11.27
432.934	11.23
433.139	11.19
433.343	11.15
433.548	11.16
433.753	11.13
433.958	11.19
434.162	11.26
434.367	11.34
434.572	11.44
434.776	11.5
434.981	11.59
435.186	11.65
435.39	11.68
435.595	11.72
435.799	11.74
436.004	11.91
436.209	11.88
436.413	11.87
436.618	11.75
436.822	11.69
437.027	11.73
437.231	11.57
437.436	11.61
437.64	11.6
437.845	11.52
438.049	11.4
438.253	11.13
438.458	11.08
438.662	11.19
438.867	11.21
439.071	11.2
439.275	11.09
439.48	11.11
439.684	11.11
439.888	11.01
440.093	11.09
440.297	11.17
440.501	11.23
440.706	11.23
440.91	11.12
441.114	11.1
441.318	11.1
441.523	11.21
441.727	11.26
441.931	11.32
442.135	11.41
442.339	11.32
442.543	11.26
442.748	11.38
442.952	11.39
443.156	11.51
443.36	11.57
443.564	11.5
443.768	11.41
443.972	11.44
444.176	11.29
444.38	11.26
444.584	11.24
444.788	11.22
444.992	11.19
445.196	11.23
445.4	11.12
445.604	11.07
445.808	11.17
446.012	11.21
446.216	11.17
446.42	11.23
446.624	11.27
446.828	11.35
447.032	11.37
447.235	11.29
447.439	11.36
447.643	11.3
447.847	11.32
448.051	11.2
448.254	11.16
448.458	11.23
448.662	11.23
448.866	11.22
449.069	11.18
449.273	11.2
449.477	11.3
449.681	11.2
449.884	11.28
450.088	11.3
450.292	11.43
450.495	11.48
450.699	11.45
450.902	11.44
451.106	11.45
451.31	11.43
451.513	11.33
451.717	11.35
451.92	11.35
452.124	11.36
452.327	11.28
452.531	11.25
452.734	11.18
452.938	11.2
453.141	11.18
453.345	11.01
453.548	11.1
453.752	11.17
453.955	11.19
454.158	11.22
454.362	11.16
454.565	11.17
454.769	11.12
454.972	11.17
455.175	11.21
455.379	11.13
455.582	11.29
455.785	11.28
455.988	11.3
456.192	11.22
456.395	11.17
456.598	11.3
456.801	11.38
457.005	11.39
457.208	11.47
457.411	11.46
457.614	11.48
457.817	11.4
458.021	11.33
458.224	11.33
458.427	11.32
458.63	11.23
458.833	11.17
459.036	11.12
459.239	11.11
459.442	11.07
459.645	11.02
459.848	11.04
460.051	11.02
460.254	11
460.457	11.01
460.66	10.97
460.863	11.1
461.066	11.09
461.269	11.07
461.472	11.12
461.675	11.11
461.878	11.18
462.081	11.16
462.284	11.26
462.486	11.26
462.689	11.14
462.892	11.22
463.095	11.12
463.298	11.14
463.5	11.18
463.703	11.19
463.906	11.23
464.109	11.18
464.311	11.13
464.514	11.16
464.717	11.27
464.92	11.41
465.122	11.43
465.325	11.48
465.528	11.53
465.73	11.64
465.933	11.61
466.135	11.56
466.338	11.54
466.541	11.68
466.743	11.62
466.946	11.42
467.148	11.36
467.351	11.31
467.553	11.33
467.756	11.44
467.958	11.41
468.161	11.41
468.363	11.49
468.566	11.45
468.768	11.5
468.971	11.46
469.173	11.55
469.375	11.58
469.578	11.55
469.78	11.72
469.983	11.56
470.185	11.47
470.387	11.54
470.59	11.49
470.792	11.59
470.994	11.56
471.196	11.77
471.399	11.79
471.601	11.8
471.803	11.99
472.005	11.94
472.208	11.88
472.41	11.96
472.612	12.09
472.814	12.13
473.016	12.15
473.218	12.22
473.421	12.07
473.623	12.06
473.825	12.1
474.027	12.01
474.229	12.07
474.431	12.1
474.633	12.13
474.835	12.07
475.037	12.15
475.239	12.16
475.441	12.2
475.643	12.22
475.845	12.19
476.047	12.32
476.249	12.36
476.451	12.2
476.653	12.22
476.855	12.13
477.057	12.07
477.258	12.06
477.46	12
477.662	11.95
477.864	11.99
478.066	11.99
478.268	11.83
478.469	11.86
478.671	11.85
478.873	11.84
479.075	11.88
479.276	11.83
479.478	11.73
479.68	11.71
479.882	11.64
480.083	11.59
480.285	11.55
480.487	11.49
480.688	11.42
480.89	11.48
481.091	11.54
481.293	11.47
481.495	11.48
481.696	11.49
481.898	11.39
482.099	11.36
482.301	11.31
482.502	11.3
482.704	11.29
482.905	11.24
483.107	11.15
483.308	11.09
483.51	11.11
483.711	11.08
483.913	11.03
484.114	11.07
484.315	11.04
484.517	11.04
484.718	11.07
484.92	11.08
485.121	11.09
485.322	11.1
485.524	11.15
485.725	11.14
485.926	11.15
486.127	11.19
486.329	11.16
486.53	11.21
486.731	11.22
486.932	11.2
487.134	11.2
487.335	11.2
487.536	11.22
487.737	11.17
487.938	11.18
488.139	11.18
488.341	11.24
488.542	11.25
488.743	11.27
488.944	11.31
489.145	11.32
489.346	11.35
489.547	11.34
489.748	11.37
489.949	11.39
490.15	11.38
490.351	11.39
490.552	11.36
490.753	11.35
490.954	11.38
491.155	11.37
491.356	11.4
491.557	11.39
491.758	11.41
491.959	11.43
492.159	11.41
492.36	11.43
492.561	11.46
492.762	11.47
492.963	11.49
493.164	11.51
493.364	11.53
493.565	11.57
493.766	11.57
493.967	11.71
494.167	11.76
494.368	11.96
494.569	11.97
494.769	12
494.97	12.01
495.171	12.12
495.371	12.05
495.572	12.14
495.773	12.24
495.973	12.27
496.174	12.16
496.375	12.17
496.575	12.17
496.776	12.22
496.976	12.15
497.177	12.2
497.377	12.2
497.578	12.28
497.778	12.24
497.979	12.24
498.179	12.24
498.38	12.36
498.58	12.35
498.78	12.33
498.981	12.39
499.181	12.46
499.382	12.5
499.582	12.52
499.782	12.44
499.983	12.46
500.183	12.45
500.383	12.5
500.584	12.48
500.784	12.62
500.984	12.7
501.184	12.73
501.385	12.87
501.585	12.87
501.785	12.91
501.985	12.97
502.185	12.98
502.386	13.02
502.586	13.02
502.786	13
502.986	12.88
503.186	12.8
503.386	12.8
503.586	12.77
503.786	12.75
503.987	12.79
504.187	12.96
504.387	12.92
504.587	12.86
504.787	13.01
504.987	13.04
505.187	13.13
505.387	13.24
505.587	13.31
505.786	13.32
505.986	13.49
506.186	13.45
506.386	13.53
506.586	13.68
506.786	13.75
506.986	13.72
507.186	13.69
507.386	13.66
507.585	13.62
507.785	13.57
507.985	13.59
508.185	13.59
508.384	13.61
508.584	13.48
508.784	13.52
508.984	13.53
509.183	13.54
509.383	13.69
509.583	13.83
509.782	13.93
509.982	14.07
510.182	14.15
510.381	14.17
510.581	14.22
510.781	14.22
510.98	14.23
511.18	14.29
511.379	14.34
511.579	14.33
511.778	14.23
511.978	14.18
512.177	14.25
512.377	14.21
512.576	14.22
512.776	14.28
512.975	14.45
513.175	14.48
513.374	14.46
513.573	14.42
513.773	14.39
513.972	14.55
514.172	14.63
514.371	14.62
514.57	14.75
514.77	14.9
514.969	14.95
515.168	14.96
515.367	14.94
515.567	15.09
515.766	15.22
515.965	15.37
516.164	15.28
516.364	15.3
516.563	15.31
516.762	15.34
516.961	15.28
517.16	15.25
517.359	15.25
517.559	15.39
517.758	15.26
517.957	15.28
518.156	15.25
518.355	15.35
518.554	15.42
518.753	15.42
518.952	15.44
519.151	15.48
519.35	15.59
519.549	15.57
519.748	15.6
519.947	15.73
520.146	15.83
520.345	15.92
520.544	15.97
520.743	15.97
520.942	16.01
521.141	16.14
521.339	16.27
521.538	16.29
521.737	16.39
521.936	16.38
522.135	16.44
522.333	16.39
522.532	16.55
522.731	16.62
522.93	16.72
523.129	16.82
523.327	16.87
523.526	16.87
523.725	16.92
523.923	16.92
524.122	17.01
524.321	17.14
524.519	17.19
524.718	17.09
524.917	17.12
525.115	17.17
525.314	17.19
525.512	17.2
525.711	17.2
525.909	17.21
526.108	17.3
526.306	17.3
526.505	17.27
526.703	17.3
526.902	17.33
527.1	17.27
527.299	17.29
527.497	17.27
527.696	17.24
527.894	17.29
528.092	17.28
528.291	17.26
528.489	17.23
528.688	17.21
528.886	17.2
529.084	17.24
529.283	17.29
529.481	17.29
529.679	17.31
529.877	17.38
530.076	17.34
530.274	17.46
530.472	17.56
530.67	17.66
530.869	17.75
531.067	17.86
531.265	17.92
531.463	17.96
531.661	18.02
531.859	18.1
532.057	18.08
532.255	18.19
532.454	18.17
532.652	18.16
532.85	18.25
533.048	18.3
533.246	18.33
533.444	18.33
533.642	18.38
533.84	18.38
534.038	18.38
534.236	18.47
534.434	18.54
534.632	18.62
534.83	18.67
535.027	18.7
535.225	18.79
535.423	18.88
535.621	18.96
535.819	19.03
536.017	19.12
536.215	19.13
536.412	19.18
536.61	19.18
536.808	19.19
537.006	19.22
537.203	19.29
537.401	19.31
537.599	19.36
537.797	19.48
537.994	19.6
538.192	19.77
538.39	19.94
538.587	20.12
538.785	20.27
538.983	20.47
539.18	20.64
539.378	20.72
539.575	20.87
539.773	20.94
539.97	21
540.168	21.03
540.366	20.97
540.563	21.16
540.761	21.12
540.958	21.16
541.155	21.15
541.353	21.22
541.55	21.25
541.748	21.25
541.945	21.28
542.143	21.36
542.34	21.44
542.537	21.53
542.735	21.52
542.932	21.68
543.129	21.76
543.327	22
543.524	22.21
543.721	22.51
543.919	22.81
544.116	23.17
544.313	23.51
544.51	23.81
544.708	24.24
544.905	24.59
545.102	24.92
545.299	25.27
545.496	25.4
545.693	25.52
545.891	25.54
546.088	25.52
546.285	25.34
546.482	25.16
546.679	25.02
546.876	24.86
547.073	24.65
547.27	24.36
547.467	24.16
547.664	23.98
547.861	23.82
548.058	23.67
548.255	23.54
548.452	23.64
548.649	23.63
548.846	23.64
549.043	23.55
549.24	23.65
549.437	23.73
549.633	23.74
549.83	23.71
550.027	23.66
550.224	23.7
550.421	23.59
550.618	23.3
550.814	23.19
551.011	23.06
551.208	22.95
551.405	22.87
551.601	22.79
551.798	22.66
551.995	22.52
552.191	22.46
552.388	22.43
552.585	22.49
552.781	22.64
552.978	22.6
553.175	22.59
553.371	22.63
553.568	22.45
553.764	22.44
553.961	22.44
554.157	22.48
554.354	22.45
554.55	22.37
554.747	22.27
554.943	22.2
555.14	22.33
555.336	22.4
555.533	22.41
555.729	22.4
555.926	22.48
556.122	22.54
556.318	22.63
556.515	22.65
556.711	22.63
556.907	22.71
557.104	22.76
557.3	22.63
557.496	22.57
557.693	22.57
557.889	22.77
558.085	22.7
558.281	22.77
558.478	22.65
558.674	22.67
558.87	22.85
559.066	22.94
559.262	22.98
559.459	22.87
559.655	22.97
559.851	23.04
560.047	23.05
560.243	23.06
560.439	22.89
560.635	23.06
560.831	22.92
561.027	22.85
561.223	22.71
561.419	22.59
561.615	22.72
561.811	22.59
562.007	22.55
562.203	22.53
562.399	22.6
562.595	22.71
562.791	22.75
562.987	22.93
563.183	23
563.379	23.08
563.575	23.05
563.771	23.07
563.966	23.06
564.162	23.13
564.358	23.1
564.554	22.9
564.75	22.88
564.945	22.74
565.141	22.62
565.337	22.62
565.533	22.56
565.728	22.56
565.924	22.52
566.12	22.58
566.315	22.46
566.511	22.47
566.707	22.56
566.902	22.5
567.098	22.47
567.293	22.55
567.489	22.41
567.684	22.47
567.88	22.61
568.076	22.52
568.271	22.41
568.467	22.41
568.662	22.38
568.858	22.46
569.053	22.57
569.248	22.69
569.444	22.64
569.639	22.65
569.835	22.73
570.03	22.61
570.225	22.72
570.421	22.87
570.616	22.95
570.812	22.83
571.007	22.64
571.202	22.52
571.397	22.35
571.593	22.42
571.788	22.39
571.983	22.26
572.178	22.31
572.374	22.34
572.569	22.29
572.764	22.31
572.959	22.39
573.154	22.52
573.35	22.52
573.545	22.54
573.74	22.44
573.935	22.46
574.13	22.5
574.325	22.49
574.52	22.62
574.715	22.82
574.91	22.81
575.105	23.02
575.3	23.15
575.495	23.48
575.69	23.65
575.885	23.87
576.08	24
576.275	24.08
576.47	24.38
576.665	24.41
576.86	24.36
577.055	24.49
577.25	24.44
577.444	24.49
577.639	24.58
577.834	24.77
578.029	24.84
578.224	24.96
578.418	25.1
578.613	25.12
578.808	25.22
579.003	25.35
579.197	25.31
579.392	25.27
579.587	25.48
579.781	25.26
579.976	25.32
580.171	25.34
580.365	25.52
580.56	25.72
580.755	25.58
580.949	25.63
581.144	25.67
581.338	25.81
581.533	26.08
581.727	25.84
581.922	26.07
582.116	26.13
582.311	26.26
582.505	26.19
582.7	26.15
582.894	26.35
583.089	26.32
583.283	26.44
583.478	26.43
583.672	26.45
583.866	26.56
584.061	26.45
584.255	26.4
584.449	26.45
584.644	26.66
584.838	26.68
585.032	26.41
585.226	26.47
585.421	26.55
585.615	26.58
585.809	26.62
586.003	26.83
586.198	26.96
586.392	27.08
586.586	26.95
586.78	26.92
586.974	26.86
587.168	26.97
587.363	26.82
587.557	26.57
587.751	26.6
587.945	26.34
588.139	26.25
588.333	26.1
588.527	25.78
588.721	25.61
588.915	25.36
589.109	25.38
589.303	25.41
589.497	25.38
589.691	25.43
589.885	25.32
590.079	25.46
590.273	25.34
590.466	25.39
590.66	25.57
590.854	25.85
591.048	26.15
591.242	26.19
591.436	26.38
591.629	26.66
591.823	26.84
592.017	27.03
592.211	27.07
592.404	27.22
592.598	27.3
592.792	27.54
592.986	27.31
593.179	27.12
593.373	26.92
593.567	26.78
593.76	26.71
593.954	26.37
594.147	26.34
594.341	26.3
594.535	26.06
594.728	25.92
594.922	25.67
595.115	25.61
595.309	25.51
595.502	25.52
595.696	25.46
595.889	25.25
596.083	25.29
596.276	25.08
596.47	24.94
596.663	24.8
596.856	24.68
597.05	24.65
597.243	24.81
597.437	24.86
597.63	24.97
597.823	25.02
598.017	25.19
598.21	25.38
598.403	25.57
598.596	25.77
598.79	26.21
598.983	26.52
599.176	26.61
599.369	26.59
599.563	26.6
599.756	26.68
599.949	26.71
600.142	26.74
600.335	26.53
600.528	26.41
600.722	26.48
600.915	26.29
601.108	26.13
601.301	26
601.494	25.85
601.687	25.88
601.88	25.62
602.073	25.47
602.266	25.37
602.459	25.27
602.652	25.38
602.845	25.26
603.038	25.3
603.231	25.23
603.424	25.22
603.617	25.17
603.809	24.99
604.002	25.04
604.195	25.1
604.388	25.13
604.581	25.32
604.774	25.18
604.966	25.21
605.159	25.18
605.352	25.26
605.545	25.31
605.737	25.49
605.93	25.8
606.123	25.89
606.316	26.09
606.508	26.24
606.701	26.38
606.894	26.66
607.086	26.89
607.279	27.07
607.471	27.33
607.664	27.7
607.857	28.06
608.049	28.52
608.242	29.31
608.434	30
608.627	30.83
608.819	31.8
609.012	33.11
609.204	34.53
609.397	36.14
609.589	37.89
609.782	39.72
609.974	41.59
610.166	43.46
610.359	45.2
610.551	46.82
610.743	48.38
610.936	49.66
611.128	50.76
611.32	51.39
611.513	51.96
611.705	51.92
611.897	51.92
612.09	51.41
612.282	50.56
612.474	49.47
612.666	48.54
612.858	47.51
613.051	46.66
613.243	45.53
613.435	44.66
613.627	43.73
613.819	43.1
614.011	42.24
614.203	41.54
614.395	40.96
614.588	40.48
614.78	39.82
614.972	39.05
615.164	38.12
615.356	37.24
615.548	36.65
615.74	35.89
615.932	35.17
616.124	34.34
616.315	33.67
616.507	32.98
616.699	32.42
616.891	31.91
617.083	31.34
617.275	31.14
617.467	30.96
617.659	30.74
617.85	30.42
618.042	30.26
618.234	30.24
618.426	30.08
618.618	29.89
618.809	29.76
619.001	29.56
619.193	29.74
619.384	29.56
619.576	29.62
619.768	29.41
619.959	29.73
620.151	29.65
620.343	29.42
620.534	29.49
620.726	29.65
620.917	29.68
621.109	29.9
621.301	29.84
621.492	29.91
621.684	30.19
621.875	30.47
622.067	30.42
622.258	30.49
622.45	30.76
622.641	30.89
622.832	31
623.024	31.07
623.215	31.07
623.407	31.1
623.598	31.1
623.789	30.74
623.981	30.47
624.172	30.45
624.363	30.56
624.555	30.49
624.746	30.16
624.937	30
625.129	29.92
625.32	29.79
625.511	29.83
625.702	29.94
625.893	30.02
626.085	30.07
626.276	29.61
626.467	29.45
626.658	29.26
626.849	29.39
627.04	29.22
627.231	29.26
627.422	29.27
627.614	29.05
627.805	28.91
627.996	28.91
628.187	28.91
628.378	29.44
628.569	29.76
628.76	30.09
628.951	30.24
629.142	30.7
629.332	30.82
629.523	31.09
629.714	31.6
629.905	31.98
630.096	32.15
630.287	32.33
630.478	32.25
630.669	32.09
630.859	32.07
631.05	32.02
631.241	31.95
631.432	31.83
631.623	31.61
631.813	31.22
632.004	30.9
632.195	30.63
632.385	30.48
632.576	30.26
632.767	30.04
632.957	29.81
633.148	29.6
633.339	29.11
633.529	29
633.72	28.99
633.91	29.05
634.101	28.82
634.292	28.65
634.482	28.37
634.673	28.09
634.863	27.92
635.054	27.7
635.244	27.72
635.435	28
635.625	27.75
635.815	27.58
636.006	27.25
636.196	27.07
636.387	27.03
636.577	27.02
636.767	27.28
636.958	27.36
637.148	27.57
637.338	27.6
637.529	27.5
637.719	27.64
637.909	27.59
638.099	27.79
638.29	28.03
638.48	28.02
638.67	27.81
638.86	27.51
639.05	27.47
639.241	27.41
639.431	27.44
639.621	27.39
639.811	27.46
640.001	27.49
640.191	27.48
640.381	27.41
640.571	27.52
640.761	27.93
640.951	28.35
641.141	28.34
641.331	28.44
641.521	28.61
641.711	28.7
641.901	28.67
642.091	28.97
642.281	29.05
642.471	29.04
642.661	29.37
642.851	29.26
643.041	29.3
643.231	29.51
643.42	29.53
643.61	29.49
643.8	29.47
643.99	29.53
644.18	29.18
644.369	29.21
644.559	29.31
644.749	28.84
644.939	28.88
645.128	28.83
645.318	28.79
645.508	28.77
645.697	28.57
645.887	28.37
646.076	28.33
646.266	28.18
646.456	28.01
646.645	28.19
646.835	28.52
647.024	28.15
647.214	27.76
647.403	27.59
647.593	27.76
647.782	27.8
647.972	27.94
648.161	28.17
648.351	28.46
648.54	29.01
648.73	29.13
648.919	29.18
649.108	29.5
649.298	30.03
649.487	30.19
649.677	30.17
649.866	30.29
650.055	30.28
650.244	30.33
650.434	30.31
650.623	30.15
650.812	30.04
651.002	29.83
651.191	30.02
651.38	29.65
651.569	29.69
651.758	29.45
651.947	29.22
652.137	29.22
652.326	29.17
652.515	29.01
652.704	28.74
652.893	28.72
653.082	28.76
653.271	28.71
653.46	28.93
653.649	29.02
653.838	28.87
654.027	28.92
654.216	28.97
654.405	28.9
654.594	29.14
654.783	28.88
654.972	28.6
655.161	28.48
655.35	28.57
655.539	28.67
655.728	28.5
655.916	28.37
656.105	28.45
656.294	28.49
656.483	28.4
656.672	28.35
656.86	28.54
657.049	28.58
657.238	28.46
657.427	28.28
657.615	28.27
657.804	28.22
657.993	28.28
658.181	28.07
658.37	27.82
658.559	27.67
658.747	27.53
658.936	27.53
659.125	27.65
659.313	27.72
659.502	27.78
659.69	27.66
659.879	27.67
660.067	27.85
660.256	27.93
660.444	28.29
660.633	28.47
660.821	28.67
661.01	28.83
661.198	28.96
661.387	29.24
661.575	29.39
661.763	29.46
661.952	29.71
662.14	29.79
662.328	29.92
662.517	29.88
662.705	29.59
662.893	29.55
663.082	29.7
663.27	29.6
663.458	29.69
663.646	29.93
663.834	29.84
664.023	29.87
664.211	29.76
664.399	29.84
664.587	29.6
664.775	30.16
664.963	30.28
665.152	30.28
665.34	30.49
665.528	30.25
665.716	30.1
665.904	30.24
666.092	29.84
666.28	29.96
666.468	29.91
666.656	30.47
666.844	30.43
667.032	30.56
667.22	30.36
667.408	30.12
667.596	30.32
667.784	30.14
667.971	30.13
668.159	30.42
668.347	30.4
668.535	30.59
668.723	30.35
668.911	30.17
669.098	29.91
669.286	30.06
669.474	30.04
669.662	29.85
669.849	29.91
670.037	30.1
670.225	30.08
670.413	30.29
670.6	30.39
670.788	30.31
670.976	30.6
671.163	30.73
671.351	30.52
671.538	30.82
671.726	31.04
671.913	30.85
672.101	30.95
672.289	30.76
672.476	30.71
672.664	30.43
672.851	30.44
673.039	30.41
673.226	30.55
673.413	30.5
673.601	30.26
673.788	30.12
673.976	30.15
674.163	30.27
674.35	30.6
674.538	30.38
674.725	30.88
674.912	31.09
675.1	30.8
675.287	30.88
675.474	31.27
675.662	31.61
675.849	31.53
676.036	31.69
676.223	31.43
676.411	31.29
676.598	31.23
676.785	30.8
676.972	30.63
677.159	30.9
677.346	30.39
677.533	30.25
677.721	29.9
677.908	29.74
678.095	29.5
678.282	29.55
678.469	29.45
678.656	29.6
678.843	29.59
679.03	29.48
679.217	29.23
679.404	29.58
679.591	29.45
679.778	29.65
679.964	29.88
680.151	30
680.338	29.53
680.525	29.5
680.712	29.71
680.899	29.83
681.086	29.96
681.272	30.18
681.459	30.04
681.646	30.05
681.833	30
682.02	30.08
682.206	30.07
682.393	30.58
682.58	30.51
682.766	30.37
682.953	30.49
683.14	30.46
683.326	30.69
683.513	30.81
683.7	30.85
683.886	30.89
684.073	30.83
684.259	31.07
684.446	31.13
684.632	31.42
684.819	31.45
685.005	31.36
685.192	31.36
685.378	30.98
685.565	31.05
685.751	30.99
685.938	31.09
686.124	31.2
686.31	31.47
686.497	31.41
686.683	31.4
686.87	31.18
687.056	31.16
687.242	31.27
687.429	31.28
687.615	31.31
687.801	31.38
687.987	31.49
688.174	31.49
688.36	31.15
688.546	30.94
688.732	30.88
688.918	30.93
689.105	31.06
689.291	30.97
689.477	30.99
689.663	31.1
689.849	31.26
690.035	30.9
690.221	30.78
690.407	31.04
690.593	31.28
690.779	31.37
690.965	31.68
691.151	31.82
691.337	31.92
691.523	32.04
691.709	32
691.895	31.8
692.081	31.98
692.267	32.42
692.453	32.06
692.639	32.02
692.825	32.02
693.011	32.15
693.196	31.73
693.382	31.85
693.568	31.7
693.754	31.33
693.94	31.41
694.125	30.97
694.311	30.69
694.497	30.86
694.682	30.99
694.868	31.04
695.054	31.03
695.239	31.37
695.425	31.17
695.611	31.61
695.796	31.65
695.982	31.73
696.168	31.9
696.353	31.78
696.539	31.88
696.724	31.58
696.91	31.13
697.095	30.76
697.281	30.28
697.466	29.98
697.652	29.53
697.837	29.38
698.023	29.39
698.208	29.35
698.393	29.08
698.579	28.86
698.764	28.61
698.949	28.9
699.135	28.69
699.32	28.7
699.505	29.03
699.691	29.11
699.876	29.48
700.061	29.25
700.246	29.53
700.432	29.81
700.617	29.82
700.802	30.09
700.987	30.43
701.172	30.9
701.358	31.17
701.543	31.31
701.728	31.67
701.913	31.75
702.098	32.16
702.283	32.46
702.468	32.48
702.653	32.95
702.838	33.3
703.023	33.24
703.208	33.48
703.393	33.79
703.578	34.22
703.763	34.83
703.948	35.15
704.133	35.68
704.318	35.91
704.503	36.5
704.688	36.78
704.873	37.43
705.057	38.12
705.242	38.98
705.427	39.61
705.612	39.88
705.797	40.5
705.981	40.6
706.166	40.81
706.351	40.99
706.536	41.29
706.72	41.63
706.905	41.18
707.09	41.38
707.274	40.88
707.459	40.59
707.644	40.67
707.828	40.31
708.013	40.71
708.197	41.06
708.382	40.64
708.567	40.62
708.751	40.66
708.936	40.7
709.12	39.88
709.305	39.78
709.489	39.82
709.673	39.69
709.858	39.3
710.042	39.11
710.227	38.71
710.411	39.26
710.596	39.03
710.78	38.23
710.964	38.34
711.149	38.68
711.333	38.76
711.517	38.73
711.702	38.33
711.886	38.43
712.07	37.89
712.254	37.93
712.438	37.42
712.623	37.11
712.807	36.87
712.991	36.83
713.175	36.06
713.359	35.63
713.544	35.22
713.728	35.27
713.912	34.61
714.096	34.38
714.28	33.78
714.464	33.53
714.648	33.18
714.832	33.19
715.016	32.82
715.2	33.27
715.384	32.98
715.568	32.81
715.752	32.55
715.936	32.78
716.12	32.43
716.304	32.13
716.488	32.01
716.671	31.67
716.855	31.61
717.039	31.35
717.223	30.79
717.407	30.97
717.59	31.23
717.774	30.84
717.958	30.56
718.142	30.88
718.325	31.12
718.509	31.61
718.693	31.83
718.877	31.9
719.06	32.2
719.244	32.94
719.428	33.1
719.611	33
719.795	33.3
719.978	33.32
720.162	33.63
720.345	33.69
720.529	33.46
720.713	33.92
720.896	34.29
721.08	34.82
721.263	34.66
721.446	34.65
721.63	34.76
721.813	34.9
721.997	34.93
722.18	34.81
722.364	34.46
722.547	34.42
722.73	34.43
722.914	34.08
723.097	34.04
723.28	34.22
723.464	34.23
723.647	34.41
723.83	34.25
724.013	34.18
724.197	34.48
724.38	34.91
724.563	34.41
724.746	34.43
724.929	34.64
725.112	34.13
725.296	34.13
725.479	33.77
725.662	33.34
725.845	33.54
726.028	33.6
726.211	33.22
726.394	33.04
726.577	32.77
726.76	32.97
726.943	32.97
727.126	33.24
727.309	32.32
727.492	32.71
727.675	32.75
727.858	33.16
728.041	33.01
728.224	33.15
728.407	32.97
728.589	33.48
728.772	33.34
728.955	32.97
729.138	32.7
729.321	33.14
729.503	32.89
729.686	32.51
729.869	31.98
730.052	32.32
730.234	32.17
730.417	31.99
730.6	31.71
730.782	31.85
730.965	31.87
731.148	32.03
731.33	31.86
731.513	31.84
731.695	32.43
731.878	32.71
732.061	32.8
732.243	32.66
732.426	32.95
732.608	33.04
732.791	32.72
732.973	32.93
733.156	33.17
733.338	33.19
733.52	33.52
733.703	33.13
733.885	33.01
734.068	32.92
734.25	33.36
734.432	33.32
734.615	33.45
734.797	33.88
734.979	33.93
735.162	33.82
735.344	33.89
735.526	34.1
735.708	34.45
735.891	35.23
736.073	35.34
736.255	35.59
736.437	36.24
736.619	36.47
736.802	36.26
736.984	36.23
737.166	36.11
737.348	36.41
737.53	36.13
737.712	35.95
737.894	34.83
738.076	34.65
738.258	34.21
738.44	33.39
738.622	33.43
738.804	33.93
738.986	34.06
739.168	33.99
739.35	33.92
739.532	34.04
739.714	34.48
739.896	35.04
740.078	35.18
740.259	35.94
740.441	36.91
740.623	37.03
740.805	36.6
740.987	36.4
741.168	36.98
741.35	37.21
741.532	37.33
741.714	37.71
741.895	38.35
742.077	38.79
742.259	38.62
742.44	38.3
742.622	38.51
742.804	38.82
742.985	39.57
743.167	39.42
743.348	38.81
743.53	39.06
743.711	38.9
743.893	38.13
744.075	37.9
744.256	37.55
744.438	37.66
744.619	37.88
744.8	37.84
744.982	37.31
745.163	36.94
745.345	38.07
745.526	38.8
745.707	38.47
745.889	38.37
746.07	39.2
746.252	39.33
746.433	40.2
746.614	39.78
746.795	38.95
746.977	39.78
747.158	40.2
747.339	39.93
747.52	38.71
747.702	38.46
747.883	38.25
748.064	37.78
748.245	37.82
748.426	37.13
748.607	37.28
748.788	37.09
748.97	36.26
749.151	35.93
749.332	35.73
749.513	36.09
749.694	37.06
749.875	37.28
750.056	37.26
750.237	37.35
750.418	36.68
750.599	36.52
750.78	37.62
750.96	37.56
751.141	37.27
751.322	37.08
751.503	37.97
751.684	36.29
751.865	36.9
752.046	36.96
752.226	36.6
752.407	37.24
752.588	37.13
752.769	37.24
752.949	38.13
753.13	38.68
753.311	38.68
753.492	38.5
753.672	39.43
753.853	39.62
754.034	39.44
754.214	39.98
754.395	39.19
754.575	40.07
754.756	39.88
754.937	39.86
755.117	39.88
755.298	40.81
755.478	39.57
755.659	39.49
755.839	38.76
756.02	38.35
756.2	37.88
756.381	38.78
756.561	38.45
756.741	38.42
756.922	37.05
757.102	37.27
757.283	36.17
757.463	36.87
757.643	36.82
757.823	36.61
758.004	36.27
758.184	35.67
758.364	34.47
758.545	33.89
758.725	33.37
758.905	33.48
759.085	32.39
759.265	31.88
759.446	31.07
759.626	30.88
759.806	30.45
759.986	30.63
760.166	30.61
760.346	31.21
760.526	31.16
760.706	31.09
760.886	31
761.066	31.25
761.246	31.06
761.426	30.44
761.606	30.19
761.786	30.21
761.966	30.17
762.146	30.09
762.326	29.61
762.506	29.09
762.686	28.9
762.866	28.54
763.046	27.97
763.225	28.29
763.405	28.61
763.585	28.46
763.765	28.74
763.945	28.05
764.124	27.9
764.304	27.88
764.484	28.41
764.664	28.1
764.843	28.33
765.023	28.76
765.203	28.87
765.382	29.15
765.562	29.91
765.741	29.72
765.921	30.97
766.101	31.77
766.28	32.09
766.46	31.86
766.639	33.02
766.819	33.93
766.998	34.82
767.178	35.05
767.357	35.57
767.537	35.79
767.716	36.62
767.896	37.15
768.075	37.15
768.254	37.75
768.434	38.9
768.613	38.77
768.792	38.94
768.972	39.1
769.151	39.58
769.33	39.76
769.51	40.62
769.689	40.38
769.868	41.08
770.047	41.26
770.226	41.82
770.406	41.94
770.585	41.63
770.764	42.07
770.943	42.4
771.122	42.95
771.301	43.07
771.48	42.33
771.66	42.02
771.839	41.06
772.018	41.09
772.197	41.87
772.376	41.62
772.555	43.39
772.734	43.07
772.913	43.13
773.092	42.56
773.271	43.19
773.449	44.01
773.628	44.75
773.807	44.59
773.986	45.39
774.165	44.26
774.344	44.9
774.523	44.61
774.701	45.33
774.88	44.7
775.059	45.23
775.238	45.35
775.417	44.8
775.595	44.91
775.774	45.27
775.953	44.58
776.131	45.66
776.31	45.61
776.489	45.07
776.667	44.77
776.846	45.67
777.025	44.49
777.203	44.32
777.382	44.52
777.56	45.03
777.739	45.44
777.917	46.41
778.096	45.86
778.274	45.41
778.453	45.62
778.631	45.24
778.81	45.36
778.988	46.38
779.166	45.65
779.345	45.76
779.523	45
779.702	44.73
779.88	44.61
780.058	44.65
780.237	44.91
780.415	45.53
780.593	46.65
780.771	46.45
780.95	46.88
781.128	47.15
781.306	46.21
781.484	47.16
781.662	47.06
781.841	46.69
782.019	47.3
782.197	46.72
782.375	45.12
782.553	44.02
782.731	43.75
782.909	43.87
783.087	43.91
783.265	44.48
783.443	43.86
783.621	44.1
783.799	43.54
783.977	43.5
784.155	44.41
784.333	45.89
784.511	46.13
784.689	46.3
784.867	44.91
785.045	45.3
785.223	45.15
785.4	45.47
785.578	45.58
785.756	46.4
785.934	46
786.112	46.79
786.289	45.27
786.467	44.31
786.645	43.98
786.823	45.26
787	44.67
787.178	43.76
787.356	42.84
787.533	41.58
787.711	40.64
787.889	40.6
788.066	39.16
788.244	38.78
788.421	39.02
788.599	38.25
788.776	37.84
788.954	37.89
789.131	38.29
789.309	38.83
789.486	38.94
789.664	40
789.841	38.98
790.019	38.8
790.196	40.88
790.373	42.31
790.551	42.48
790.728	43
790.906	43.86
791.083	43.92
791.26	44.62
791.437	44.55
791.615	44.33
791.792	45.15
791.969	44.4
792.146	43.4
792.324	42.66
792.501	43.19
792.678	42.54
792.855	42.41
793.032	42.92
793.209	41.79
793.387	42.46
793.564	42.16
793.741	42.73
793.918	44.12
794.095	44.52
794.272	44.57
794.449	45.04
794.626	45.49
794.803	45.21
794.98	45.69
795.157	45.44
795.334	44.61
795.511	43.32
795.688	43.14
795.864	41.96
796.041	41.27
796.218	40.41
796.395	39.82
796.572	39.27
796.749	38.7
796.925	38.36
797.102	38.89
797.279	38.76
797.456	39.82
797.632	39.02
797.809	39.37
797.986	39.54
798.162	40.39
798.339	41.37
798.516	40.84
798.692	40.39
798.869	40.52
799.046	40.93
799.222	42.83
799.399	42.19
799.575	43.17
799.752	44.67
799.928	44.72
800.105	43.79
800.281	42.38
800.458	43.74
800.634	44.11
800.811	44.96
800.987	44.68
801.163	43.48
801.34	44.62
801.516	42.79
801.692	40.22
801.869	39.64
802.045	39.92
802.221	40.03
802.398	39.15
802.574	39.15
802.75	38.46
802.926	38.48
803.103	38.98
803.279	38.87
803.455	39.19
803.631	40.72
803.807	41.58
803.983	42.55
804.16	43.66
804.336	42.54
804.512	42.96
804.688	43.05
804.864	41.93
805.04	42.91
805.216	42.44
805.392	44.87
805.568	46.06
805.744	44.17
805.92	44.18
806.096	44.15
806.272	45.68
806.448	45.92
806.623	45.32
806.799	46.08
806.975	45.65
807.151	45.15
807.327	43.79
807.503	43.09
807.678	44.42
807.854	45.23
808.03	45.4
808.206	44.71
808.381	43.99
808.557	44.22
808.733	44.89
808.908	44.56
809.084	45.22
809.26	46.46
809.435	46.22
809.611	45.85
809.787	46.19
809.962	45.57
810.138	44.98
810.313	45.8
810.489	45.42
810.664	45.01
810.84	44.11
811.015	44
811.191	41.85
811.366	41.74
811.542	41.8
811.717	40.85
811.892	41.17
812.068	43.23
812.243	41.88
812.419	42.48
812.594	40.99
812.769	41.82
812.944	41.1
813.12	39.62
813.295	40.96
813.47	40.6
813.645	40.28
813.821	40.55
813.996	39.4
814.171	41.92
814.346	40.95
814.521	41.68
814.697	41.45
814.872	41.98
815.047	44.28
815.222	43.07
815.397	43.87
815.572	43.61
815.747	43.25
815.922	43.34
816.097	42.47
816.272	43.74
816.447	43.15
816.622	44.71
816.797	45.93
816.972	45.4
817.147	45.85
817.322	45.73
817.496	44.75
817.671	44.68
817.846	43.54
818.021	42.65
818.196	42.92
818.371	44.54
818.545	42.69
818.72	39.59
818.895	38.8
819.069	36.71
819.244	35.46
819.419	35.32
819.594	33.8
819.768	32.94
819.943	31.29
820.117	28.52
820.292	26.02
820.467	25.65
820.641	25.52
820.816	25
820.99	24.37
821.165	23.87
821.339	23.02
821.514	23
821.688	22.54
821.863	21.92
822.037	21.88
822.212	21.58
822.386	21.32
822.56	21.14
822.735	21.09
822.909	21.22
823.084	21.2
823.258	21.38
823.432	21.04
823.606	21.07
823.781	21.32
823.955	21.68
824.129	21.98
824.303	22.12
824.478	22.83
824.652	22.84
824.826	23
825	23.35
825.174	23.43
825.348	24.29
825.523	24.65
825.697	24.68
825.871	24.62
826.045	25.34
826.219	25.49
826.393	24.86
826.567	25.24
826.741	24.71
826.915	24.74
827.089	25.31
827.263	24.89
827.437	25.28
827.611	25.79
827.784	25.88
827.958	25.94
828.132	25.45
828.306	25.69
828.48	26.15
828.654	27.14
828.827	27.56
829.001	27.53
829.175	27.96
829.349	27.87
829.522	27.86
829.696	28.9
829.87	28.91
830.044	30.29
830.217	31.49
830.391	32.42
830.565	32.03
830.738	32.77
830.912	33.16
831.085	33.02
831.259	34.59
831.432	34.72
831.606	34.27
831.779	34.63
831.953	33.52
832.126	34.07
832.3	33.21
832.473	31.74
832.647	29.95
832.82	29.4
832.994	29.81
833.167	28.72
833.34	28.65
833.514	28.42
833.687	28.73
833.86	29.46
834.034	28.36
834.207	26.77
834.38	27.89
834.553	28.81
834.727	29.5
834.9	29.17
835.073	29.62
835.246	30.52
835.419	30.9
835.593	31.4
835.766	31.12
835.939	32.87
836.112	35
836.285	35.21
836.458	35.5
836.631	35.99
836.804	38.5
836.977	40.99
837.15	42.95
837.323	42.38
837.496	43.36
837.669	44.08
837.842	43.36
838.015	45.62
838.188	47.5
838.361	49.07
838.533	48.76
838.706	49.83
838.879	48.84
839.052	48.42
839.225	50.08
839.398	48.07
839.57	48.49
839.743	47.69
839.916	46.71
840.088	47.55
840.261	47.21
840.434	46.78
840.607	46.1
840.779	45.81
840.952	45.67
841.124	46.65
841.297	48.22
841.47	49.6
841.642	51.67
841.815	51.34
841.987	51.82
842.16	54.1
842.332	55.83
842.505	56.11
842.677	55.79
842.85	55.36
843.022	56.33
843.194	57.28
843.367	61.15
843.539	61.97
843.712	63.22
843.884	60.19
844.056	59.11
844.229	59.46
844.401	58.83
844.573	61.99
844.745	62.11
844.918	63.91
845.09	64.52
845.262	60.76
845.434	60.73
845.606	62.22
845.779	66.59
845.951	69.03
846.123	70.54
846.295	71.36
846.467	68.62
846.639	69.43
846.811	66.66
846.983	66.48
847.155	69.38
847.327	70.94
847.499	70.76
847.671	72.1
847.843	71.79
848.015	72.34
848.187	74.89
848.359	75.34
848.531	75.91
848.703	75.75
848.875	81.35
849.047	77.25
849.218	72.1
849.39	74.05
849.562	73.02
849.734	73.45
849.905	72.8
850.077	72.57
850.249	73.48
850.421	75.45
850.592	72.54
850.764	64.5
850.936	66.55
851.107	73.86
851.279	73.14
851.451	78.01
851.622	73.23
851.794	75.28
851.965	73.1
852.137	71.78
852.308	72.37
852.48	77.55
852.651	79.7
852.823	77.49
852.994	71.45
853.166	73.14
853.337	66.1
853.509	70.83
853.68	65.42
853.851	64.83
854.023	65.08
854.194	63.61
854.365	66.2
854.537	69.67
854.708	67.27
854.879	69.91
855.05	70.31
855.222	74.48
855.393	73.21
855.564	74.26
855.735	74.82
855.906	75.97
856.078	72.59
856.249	63.3
856.42	60.87
856.591	63.1
856.762	59.71
856.933	56.03
857.104	54.96
857.275	52.5
857.446	56.68
857.617	58.53
857.788	60.59
857.959	62.67
858.13	69.76
858.301	76.71
858.472	78.55
858.643	83.17
858.814	88.11
858.985	88.03
859.155	86.83
859.326	87.93
859.497	83.73
859.668	84.7
859.839	94.01
860.009	98.66
860.18	89.47
860.351	87.35
860.522	91.31
860.692	86.8
860.863	86
861.034	90.11
861.204	88.32
861.375	90.13
861.546	84.9
861.716	78.79
861.887	72.54
862.057	78.77
862.228	76.06
862.398	73.08
862.569	71.07
862.739	68.65
862.91	63.46
863.08	65.53
863.251	67.01
863.421	66.31
863.592	62.81
863.762	63.64
863.932	60.35
864.103	61.51
864.273	63.44
864.443	66.3
864.614	64.78
864.784	65.42
864.954	62.28
865.125	66.51
865.295	68.2
865.465	70.33
865.635	71.56
865.805	72.08
865.976	73.5
866.146	67.36
866.316	62.22
866.486	65.17
866.656	68.92
866.826	67.06
866.996	59.87
867.166	60.1
867.336	63.05
867.506	60.03
867.676	61.27
867.846	56.92
868.016	66.7
868.186	71.13
868.356	71.21
868.526	72.25
868.696	74.35
868.866	72.32
869.036	72.98
869.206	67.93
869.376	68.03
869.545	66.98
869.715	74.37
869.885	64.82
870.055	62.86
870.224	66.23
870.394	62.69
870.564	65.16
870.734	65.23
870.903	65.73
871.073	65.54
871.243	69.54
871.412	68.28
871.582	64.52
871.751	64.59
871.921	68.92
872.091	63.24
872.26	63.34
872.43	59.82
872.599	66.22
872.769	66.02
872.938	63.62
873.108	61.72
873.277	64.12
873.446	62.78
873.616	67.01
873.785	61.8
873.955	61.38
874.124	60.49
874.293	62.03
874.463	53.26
874.632	54.75
874.801	56.48
874.971	56.89
875.14	56.28
875.309	60.15
875.478	58.04
875.647	60.18
875.817	64.51
875.986	66.79
876.155	68.81
876.324	73.85
876.493	71.92
876.662	71.8
876.831	68.6
877	66.25
877.17	66.51
877.339	67.61
877.508	64.56
877.677	65
877.846	62.79
878.015	58.46
878.184	56.09
878.352	54.02
878.521	52.09
878.69	52.26
878.859	52.57
879.028	53.42
879.197	49.22
879.366	49.39
879.534	46.2
879.703	46.23
879.872	47.57
880.041	47.12
880.21	44.52
880.378	42.99
880.547	40.29
880.716	36.43
880.884	33.3
881.053	33.52
881.222	32.02
881.39	29.6
881.559	27.78
881.727	25.83
881.896	24.58
882.065	24.68
882.233	24.57
882.402	24.36
882.57	24.48
882.739	24.67
882.907	23.29
883.076	23.26
883.244	24.24
883.412	24.85
883.581	24.91
883.749	25.16
883.918	24.95
884.086	24.37
884.254	24.9
884.423	26.19
884.591	26.3
884.759	28.37
884.927	30.02
885.096	31.73
885.264	33.16
885.432	35.05
885.6	39.35
885.769	42.82
885.937	46.47
886.105	47.61
886.273	47.33
886.441	49.12
886.609	49.24
886.777	48.26
886.945	48.66
887.113	50.34
887.281	53.84
887.449	56.03
887.617	53.66
887.785	52.19
887.953	52.08
888.121	55.96
888.289	57.49
888.457	60.31
888.625	63.33
888.793	61.33
888.961	60.26
889.129	59.95
889.296	55.17
889.464	57.31
889.632	58.99
889.8	63.18
889.967	63.29
890.135	61.21
