Data from 2938837__Reflection_02.txt Node
Date: Thu Mar 12 10:47:57 EDT 2015
User: robert
Spectrometer: USB4E03002
Autoset integration time: false
Trigger mode: 4
Integration Time (sec): 1.000000E-1
Scans to average: 10
Electric dark correction enabled: false
Nonlinearity correction enabled: false
Boxcar width: 5
Stray light correction enabled: false
XAxis mode: Wavelengths
Stop averaging: false
Number of Pixels in Spectrum: 3648
>>>>>Begin Spectral Data<<<<<
177.575	227.68
177.794	385.02
178.014	373.95
178.233	380.12
178.452	370.56
178.672	398.79
178.891	481.3
179.11	486.89
179.33	479.09
179.549	424.86
179.768	420.21
179.987	800
180.207	705.08
180.426	743.58
180.645	560.26
180.864	399.63
181.084	481.09
181.303	426.59
181.522	466.74
181.741	614.91
181.96	1224.05
182.179	1184.11
182.398	739.42
182.618	548.98
182.837	529.01
183.056	637.39
183.275	2558.97
183.494	1305.73
183.713	1828.7
183.932	-6425.93
184.151	5264.52
184.37	606.23
184.589	1235.82
184.808	1167.61
185.027	1208.96
185.246	3465.22
185.465	-1434.82
185.684	1681.82
185.903	157100
186.122	581.56
186.341	389.11
186.56	323.49
186.779	356.23
186.998	359.88
187.216	341.2
187.435	315.53
187.654	304.53
187.873	244.34
188.092	309.08
188.311	284.89
188.53	291.82
188.748	276.95
188.967	330.96
189.186	398.46
189.405	308.14
189.623	269.7
189.842	266.88
190.061	237.41
190.28	225.18
190.498	230.63
190.717	200
190.936	235.87
191.154	273.19
191.373	244.33
191.592	247.41
191.81	265.17
192.029	367.68
192.248	377.94
192.466	400.44
192.685	469.25
192.904	329.71
193.122	353.8
193.341	437.4
193.559	369.28
193.778	370.16
193.996	346.38
194.215	387.64
194.433	338.59
194.652	359.06
194.87	521.46
195.089	617.71
195.307	876.74
195.526	1783.19
195.744	2563.75
195.963	-34900
196.181	-1922.52
196.399	-1056.83
196.618	-862.56
196.836	-465.59
197.055	-548.08
197.273	-2905.97
197.491	10557.89
197.71	48275
197.928	2011.46
198.146	1737.61
198.365	2491.18
198.583	1360
198.801	716.6
199.019	520.17
199.238	348.78
199.456	359.2
199.674	364.93
199.892	329.84
200.111	291.48
200.329	292.6
200.547	246.71
200.765	249.74
200.983	272.12
201.202	333.18
201.42	304.7
201.638	290.65
201.856	349.92
202.074	399.1
202.292	579.46
202.51	861.45
202.728	698.08
202.946	828.52
203.165	544.26
203.383	526.4
203.601	378.73
203.819	459.16
204.037	476.85
204.255	356.97
204.473	281.05
204.691	231.39
204.909	221.02
205.127	220.13
205.345	191.91
205.562	195.09
205.78	190.33
205.998	215.48
206.216	173.75
206.434	159.79
206.652	184.48
206.87	213.7
207.088	225
207.306	183.25
207.523	175.43
207.741	203.03
207.959	189.34
208.177	175.64
208.395	162.42
208.612	175.18
208.83	196.81
209.048	173.19
209.266	180.58
209.483	165.26
209.701	194.92
209.919	202.75
210.136	192.97
210.354	231.01
210.572	276.62
210.79	312.65
211.007	441.43
211.225	573.31
211.442	623.42
211.66	473.41
211.878	892.9
212.095	549.83
212.313	476.29
212.53	517.77
212.748	423.68
212.966	328.31
213.183	267.73
213.401	200.95
213.618	197.3
213.836	185.27
214.053	201.2
214.271	180.47
214.488	175.17
214.705	220.51
214.923	183
215.14	177.58
215.358	191.69
215.575	204.7
215.793	210.94
216.01	229.31
216.227	259.87
216.445	235.75
216.662	271.98
216.879	252.39
217.097	227.79
217.314	203.13
217.531	219.91
217.749	197.63
217.966	186.12
218.183	177.48
218.4	137.25
218.618	124.28
218.835	130.46
219.052	125.93
219.269	134.6
219.487	119.96
219.704	128.86
219.921	112.76
220.138	109.48
220.355	112.39
220.572	115.57
220.79	125.08
221.007	128.41
221.224	121.21
221.441	115.08
221.658	97.79
221.875	95.05
222.092	92.82
222.309	95.8
222.526	101
222.743	92.93
222.96	84.03
223.177	80.16
223.394	73.91
223.611	72.54
223.828	74.27
224.045	72.36
224.262	72.54
224.479	68.44
224.696	65.74
224.913	64.48
225.13	61.52
225.347	58.5
225.564	53.43
225.781	50.87
225.997	47.67
226.214	43.59
226.431	42.07
226.648	37.98
226.865	34.46
227.082	31.77
227.298	26.65
227.515	22.66
227.732	20.85
227.949	20.84
228.165	19.07
228.382	16.87
228.599	15.79
228.816	13.92
229.032	13.42
229.249	13.44
229.466	12.63
229.682	13.17
229.899	14.15
230.116	14.56
230.332	13.58
230.549	14.22
230.765	15.52
230.982	16.12
231.199	17.67
231.415	18.37
231.632	17.7
231.848	19.18
232.065	19.57
232.281	19.31
232.498	19.75
232.714	22.23
232.931	22.45
233.147	21.91
233.364	22.2
233.58	22.85
233.797	22.06
234.013	23.95
234.23	23.75
234.446	23.43
234.662	23.12
234.879	24.5
235.095	24.21
235.312	23.44
235.528	23.63
235.744	23.14
235.961	23.44
236.177	24
236.393	24.71
236.61	24.18
236.826	25.49
237.042	27.73
237.258	26.5
237.475	26.09
237.691	25.2
237.907	26.93
238.123	27.69
238.339	27.65
238.556	27.93
238.772	26.59
238.988	27.07
239.204	25.13
239.42	22.97
239.636	21.41
239.853	21.37
240.069	21.62
240.285	18.46
240.501	16.99
240.717	15.17
240.933	14.21
241.149	13.87
241.365	13.33
241.581	13.03
241.797	12.49
242.013	12.01
242.229	10.76
242.445	10.74
242.661	11.09
242.877	11.28
243.093	11.56
243.309	11.95
243.525	11.32
243.741	11.89
243.957	12.4
244.173	12.61
244.388	12.78
244.604	13.96
244.82	14.16
245.036	13.43
245.252	13.3
245.468	12.33
245.683	11.08
245.899	10.73
246.115	10.15
246.331	9.12
246.547	8.6
246.762	8.59
246.978	8.05
247.194	7.72
247.409	7.82
247.625	7.41
247.841	7.65
248.057	8.27
248.272	8.61
248.488	8.44
248.703	8.8
248.919	9.07
249.135	9.3
249.35	9.95
249.566	10.18
249.782	11.46
249.997	12.64
250.213	12.57
250.428	11.68
250.644	11.75
250.859	11.98
251.075	12.38
251.29	12.35
251.506	12.26
251.721	12.06
251.937	11.75
252.152	10.48
252.368	10.12
252.583	10.21
252.798	11.38
253.014	11.2
253.229	11.81
253.445	11.65
253.66	11.97
253.875	11.99
254.091	12.55
254.306	14.14
254.521	15.37
254.737	16.76
254.952	17.01
255.167	16.28
255.383	16.26
255.598	16.41
255.813	16.37
256.028	16.53
256.244	15.69
256.459	15.87
256.674	15.27
256.889	14.15
257.104	12.98
257.32	12.45
257.535	11.45
257.75	11.39
257.965	10.18
258.18	10.33
258.395	10.16
258.61	10.08
258.826	9.38
259.041	8.74
259.256	8.67
259.471	8.08
259.686	8.15
259.901	7.95
260.116	7.65
260.331	7.8
260.546	7.73
260.761	7.43
260.976	7.32
261.191	7.32
261.406	7.29
261.621	7.68
261.836	8.19
262.05	8.47
262.265	8.97
262.48	9.5
262.695	9.55
262.91	9.16
263.125	9.82
263.34	10.53
263.555	10.41
263.769	11.21
263.984	10.98
264.199	11.33
264.414	10.95
264.629	11.5
264.843	11.66
265.058	11.49
265.273	12.02
265.488	11.55
265.702	10.92
265.917	10.42
266.132	9.83
266.346	9.85
266.561	9.37
266.776	9.29
266.99	8.86
267.205	8.52
267.42	8.51
267.634	8.49
267.849	8.52
268.063	8.82
268.278	9.05
268.492	9.3
268.707	9.28
268.922	9.41
269.136	9.64
269.351	9.62
269.565	9.51
269.78	9.31
269.994	9.41
270.209	9.43
270.423	9.32
270.637	9.3
270.852	8.87
271.066	8.24
271.281	8.03
271.495	7.68
271.709	7.56
271.924	7.26
272.138	7.11
272.353	6.79
272.567	6.6
272.781	6.01
272.996	6.14
273.21	6.25
273.424	6.23
273.638	5.96
273.853	6.05
274.067	6.24
274.281	6.5
274.495	6.91
274.71	7.1
274.924	7.45
275.138	8.12
275.352	8.34
275.566	9.18
275.781	9.45
275.995	9.85
276.209	10.2
276.423	10.05
276.637	10.72
276.851	10.42
277.065	10.22
277.279	9.61
277.493	9.42
277.707	9.2
277.921	8.83
278.135	9.09
278.349	8.97
278.563	8.35
278.777	8.48
278.991	8.14
279.205	8.36
279.419	8.47
279.633	9.1
279.847	9.39
280.061	9.4
280.275	9.15
280.489	8.97
280.703	9.02
280.917	8.88
281.131	8.98
281.344	8.29
281.558	8.35
281.772	8.28
281.986	8.4
282.2	8.13
282.414	8.17
282.627	8.08
282.841	7.86
283.055	8.08
283.269	7.94
283.482	7.87
283.696	8.07
283.91	7.78
284.123	7.15
284.337	6.62
284.551	6.96
284.764	6.89
284.978	6.96
285.192	6.86
285.405	6.44
285.619	6.52
285.833	6.38
286.046	6.51
286.26	6.7
286.473	7.04
286.687	7.48
286.9	7.16
287.114	7.01
287.327	7.09
287.541	7.37
287.754	7.59
287.968	8.13
288.181	8.4
288.395	8.15
288.608	8.04
288.822	8.52
289.035	8.11
289.248	7.93
289.462	8.02
289.675	7.7
289.889	7.72
290.102	7.57
290.315	7.15
290.529	6.93
290.742	7.02
290.955	6.87
291.169	6.65
291.382	6.73
291.595	6.8
291.808	7.01
292.022	7.28
292.235	7.17
292.448	7.51
292.661	7.7
292.875	7.71
293.088	7.94
293.301	8.19
293.514	8.16
293.727	8.09
293.94	8.24
294.153	7.96
294.367	7.92
294.58	7.82
294.793	7.86
295.006	7.77
295.219	7.72
295.432	7.69
295.645	7.31
295.858	7.15
296.071	7.34
296.284	7.4
296.497	7.35
296.71	7.27
296.923	7.55
297.136	7.46
297.349	7.48
297.562	7.33
297.775	7.36
297.988	7.84
298.201	7.83
298.414	7.95
298.626	7.99
298.839	8.28
299.052	8.28
299.265	8.08
299.478	7.96
299.691	8.04
299.903	8.51
300.116	8.45
300.329	8.46
300.542	8.65
300.755	8.53
300.967	8.76
301.18	9.01
301.393	9.09
301.605	9.32
301.818	9.53
302.031	9.69
302.243	9.56
302.456	9.95
302.669	9.63
302.881	9.69
303.094	9.68
303.307	9.48
303.519	9.13
303.732	9.03
303.944	9.05
304.157	8.82
304.37	8.89
304.582	9.19
304.795	9.1
305.007	9.66
305.22	9.56
305.432	9.1
305.645	9.22
305.857	9.23
306.069	9.52
306.282	9.57
306.494	10.08
306.707	9.78
306.919	9.8
307.132	9.63
307.344	9.22
307.556	9.28
307.769	10.03
307.981	9.94
308.193	9.96
308.406	10
308.618	9.75
308.83	9.6
309.043	9.47
309.255	9.1
309.467	9.23
309.679	9.04
309.892	9.13
310.104	8.7
310.316	8.56
310.528	8.6
310.74	8.34
310.953	8.46
311.165	8.37
311.377	8.44
311.589	8.67
311.801	8.67
312.013	8.89
312.225	8.71
312.437	8.99
312.649	9.38
312.862	9.28
313.074	9.54
313.286	9.51
313.498	9.83
313.71	9.98
313.922	10.09
314.134	10.12
314.346	10.32
314.558	10.68
314.77	10.99
314.982	10.73
315.193	10.69
315.405	10.68
315.617	10.89
315.829	10.75
316.041	11
316.253	11
316.465	10.77
316.677	10.51
316.888	10.43
317.1	9.98
317.312	10.17
317.524	10.65
317.736	10.88
317.947	10.92
318.159	11.1
318.371	10.98
318.583	10.64
318.794	10.88
319.006	11.36
319.218	11.55
319.43	11.74
319.641	11.43
319.853	11.09
320.064	10.63
320.276	10.71
320.488	10.67
320.699	10.61
320.911	11.25
321.123	11.56
321.334	11.39
321.546	11.4
321.757	11.21
321.969	11.31
322.18	10.93
322.392	11.16
322.603	11.17
322.815	11.31
323.026	11.72
323.238	11.37
323.449	11.12
323.661	10.92
323.872	11.06
324.083	11.02
324.295	11.07
324.506	11.68
324.718	11.79
324.929	11.38
325.14	10.88
325.352	10.73
325.563	10.4
325.774	10.34
325.986	10.11
326.197	9.83
326.408	9.82
326.62	9.49
326.831	9.1
327.042	9.02
327.253	9.12
327.464	9.46
327.676	9.16
327.887	9.32
328.098	9.32
328.309	9.36
328.52	9.32
328.732	9.14
328.943	9.6
329.154	9.78
329.365	9.8
329.576	9.84
329.787	10.2
329.998	10.49
330.209	10.59
330.42	10.58
330.631	10.96
330.842	11.25
331.053	11.43
331.264	11
331.475	11.07
331.686	11.1
331.897	11.27
332.108	10.65
332.319	10.81
332.53	10.54
332.741	10.7
332.952	10.76
333.163	10.43
333.374	10.4
333.585	10.47
333.795	10.65
334.006	10.17
334.217	9.97
334.428	10.3
334.639	9.98
334.849	9.86
335.06	9.89
335.271	9.6
335.482	9.74
335.692	9.61
335.903	9.71
336.114	9.12
336.325	9.25
336.535	9.28
336.746	9.1
336.957	9.26
337.167	9.53
337.378	9.62
337.589	9.54
337.799	9.66
338.01	9.75
338.22	9.46
338.431	9.76
338.642	10.19
338.852	10.37
339.063	10.24
339.273	10.11
339.484	10.08
339.694	9.85
339.905	9.83
340.115	9.31
340.326	9.85
340.536	9.97
340.746	9.66
340.957	9.63
341.167	9.34
341.378	9.16
341.588	9.2
341.799	9.26
342.009	9.11
342.219	9.12
342.43	9.39
342.64	9.3
342.85	9.45
343.061	9.96
343.271	9.66
343.481	9.76
343.691	9.89
343.902	9.72
344.112	9.45
344.322	9.35
344.532	9.4
344.743	9.67
344.953	9.39
345.163	9.44
345.373	9.21
345.583	9.21
345.793	8.98
346.004	8.82
346.214	8.91
346.424	9.4
346.634	9.56
346.844	9.73
347.054	9.52
347.264	9.34
347.474	9.34
347.684	8.77
347.894	8.88
348.104	9.01
348.314	9.38
348.524	9.54
348.734	9.42
348.944	9.43
349.154	9.11
349.364	9.06
349.574	9.25
349.784	9.33
349.994	9.67
350.204	9.47
350.413	9.61
350.623	9.59
350.833	9.3
351.043	9.18
351.253	9.45
351.463	9.74
351.672	9.55
351.882	9.76
352.092	9.46
352.302	9.53
352.511	9.63
352.721	9.42
352.931	9.1
353.141	9.17
353.35	9.29
353.56	8.88
353.77	8.42
353.979	8.63
354.189	8.34
354.399	8.37
354.608	8.45
354.818	8.36
355.027	8.61
355.237	8.5
355.447	8.35
355.656	8.13
355.866	8.13
356.075	8.53
356.285	8.26
356.494	8.21
356.704	8.26
356.913	8.19
357.123	8.2
357.332	7.85
357.542	8.02
357.751	8.01
357.96	7.96
358.17	8.04
358.379	7.75
358.589	7.64
358.798	7.87
359.007	7.86
359.217	7.91
359.426	7.68
359.635	7.69
359.845	7.48
360.054	7.51
360.263	7.58
360.472	7.39
360.682	7.42
360.891	7.49
361.1	7.21
361.309	7.32
361.519	7.21
361.728	7.31
361.937	7.43
362.146	7.78
362.355	7.8
362.564	7.85
362.774	7.96
362.983	7.89
363.192	7.81
363.401	8.04
363.61	7.88
363.819	8.07
364.028	8.17
364.237	8.25
364.446	8
364.655	8.18
364.864	8.01
365.073	8.16
365.282	8.1
365.491	8.37
365.7	8.09
365.909	8.02
366.118	7.9
366.327	7.91
366.536	7.91
366.745	7.96
366.954	7.72
367.162	7.87
367.371	7.76
367.58	8.09
367.789	8.09
367.998	7.93
368.207	8.1
368.415	8.13
368.624	8.27
368.833	8.22
369.042	8.16
369.25	8.43
369.459	8.26
369.668	8.07
369.877	7.8
370.085	7.48
370.294	7.56
370.503	7.19
370.711	7.01
370.92	6.88
371.129	6.85
371.337	6.47
371.546	6.33
371.754	6.52
371.963	6.43
372.171	6.53
372.38	6.73
372.589	6.82
372.797	6.89
373.006	6.79
373.214	6.71
373.423	6.62
373.631	7.07
373.84	6.99
374.048	7.05
374.256	7.07
374.465	7.05
374.673	6.85
374.882	6.84
375.09	6.84
375.298	6.93
375.507	6.98
375.715	6.98
375.923	6.83
376.132	6.87
376.34	6.55
376.548	6.44
376.757	6.14
376.965	6.12
377.173	6.14
377.381	6.04
377.59	6.12
377.798	6.03
378.006	5.78
378.214	5.78
378.423	5.7
378.631	5.68
378.839	5.77
379.047	5.83
379.255	5.97
379.463	5.82
379.671	6.15
379.879	6.29
380.088	6.15
380.296	6.36
380.504	6.46
380.712	6.49
380.92	6.68
381.128	6.9
381.336	7.14
381.544	7.12
381.752	7.17
381.96	6.9
382.168	6.75
382.376	6.63
382.584	6.75
382.791	6.61
382.999	6.48
383.207	6.37
383.415	5.98
383.623	5.83
383.831	5.71
384.039	5.75
384.247	5.71
384.454	5.87
384.662	6.04
384.87	5.96
385.078	6.17
385.285	6.23
385.493	6.02
385.701	6.15
385.909	6.21
386.116	6.36
386.324	6.36
386.532	6.61
386.739	6.3
386.947	6.38
387.155	6.22
387.362	5.76
387.57	5.7
387.778	6.11
387.985	6.04
388.193	6
388.4	5.79
388.608	5.66
388.816	5.41
389.023	5.41
389.231	5.19
389.438	5.16
389.646	5.29
389.853	5.33
390.061	4.88
390.268	5.17
390.475	5.33
390.683	5.31
390.89	4.99
391.098	4.89
391.305	4.84
391.512	4.98
391.72	5.05
391.927	5.18
392.135	5.09
392.342	5.16
392.549	4.88
392.756	4.66
392.964	4.65
393.171	4.94
393.378	4.98
393.586	5.07
393.793	5.1
394	5.02
394.207	5.02
394.414	5.04
394.622	5.03
394.829	5.03
395.036	5.09
395.243	5.27
395.45	5.29
395.657	5.53
395.864	5.38
396.072	5.25
396.279	5.21
396.486	5.18
396.693	5.26
396.9	5.15
397.107	5.33
397.314	5.16
397.521	5.12
397.728	5.22
397.935	5
398.142	5.07
398.349	5.03
398.556	5.18
398.763	5.24
398.97	5.1
399.177	5.2
399.383	5.15
399.59	5.09
399.797	4.91
400.004	4.76
400.211	4.8
400.418	4.75
400.625	4.81
400.831	4.83
401.038	4.56
401.245	4.68
401.452	4.83
401.658	4.71
401.865	4.96
402.072	5.07
402.279	5.15
402.485	5.16
402.692	5.23
402.899	5.16
403.105	5.06
403.312	5.2
403.519	5.16
403.725	4.78
403.932	4.71
404.138	4.59
404.345	4.45
404.552	4.47
404.758	4.48
404.965	4.46
405.171	4.43
405.378	4.4
405.584	4.33
405.791	4.28
405.997	4.54
406.204	4.62
406.41	4.71
406.617	4.73
406.823	4.56
407.029	4.44
407.236	4.42
407.442	4.43
407.649	4.35
407.855	4.25
408.061	4.14
408.268	4.04
408.474	4.15
408.68	3.96
408.887	4.05
409.093	3.99
409.299	3.96
409.505	3.89
409.712	3.99
409.918	4.04
410.124	4.09
410.33	4.25
410.537	4.24
410.743	4.32
410.949	4.34
411.155	4.29
411.361	4.4
411.567	4.6
411.773	4.68
411.98	4.65
412.186	4.77
412.392	4.81
412.598	4.67
412.804	4.65
413.01	4.46
413.216	4.56
413.422	4.64
413.628	4.56
413.834	4.42
414.04	4.38
414.246	4.23
414.452	3.99
414.658	3.98
414.864	4.06
415.07	4.13
415.275	4.21
415.481	4.09
415.687	3.95
415.893	3.93
416.099	3.85
416.305	3.75
416.511	3.79
416.716	3.83
416.922	3.66
417.128	3.61
417.334	3.6
417.539	3.46
417.745	3.54
417.951	3.47
418.157	3.56
418.362	3.57
418.568	3.69
418.774	3.56
418.979	3.57
419.185	3.64
419.391	3.59
419.596	3.41
419.802	3.43
420.008	3.38
420.213	3.98
420.419	3.9
420.624	3.76
420.83	3.64
421.035	3.7
421.241	3.7
421.446	3.69
421.652	3.7
421.857	3.77
422.063	3.76
422.268	3.75
422.474	3.29
422.679	3.25
422.885	3.36
423.09	3.45
423.295	3.53
423.501	3.5
423.706	3.44
423.911	3.35
424.117	3.46
424.322	3.39
424.527	3.41
424.733	3.35
424.938	3.32
425.143	3.3
425.349	3.28
425.554	3.09
425.759	3.11
425.964	3.18
426.169	3.26
426.375	3.11
426.58	3.05
426.785	3.04
426.99	3.09
427.195	3.2
427.4	3.15
427.605	3.1
427.811	3.16
428.016	3.13
428.221	3.1
428.426	3.1
428.631	3.27
428.836	3.25
429.041	3.24
429.246	3.2
429.451	3.1
429.656	3.25
429.861	3.36
430.066	3.59
430.271	3.59
430.476	3.62
430.681	3.63
430.886	3.62
431.09	3.84
431.295	3.77
431.5	3.81
431.705	3.82
431.91	3.71
432.115	3.59
432.32	3.54
432.524	3.52
432.729	3.55
432.934	3.56
433.139	3.48
433.343	3.41
433.548	3.45
433.753	3.37
433.958	3.46
434.162	3.55
434.367	3.58
434.572	3.48
434.776	3.47
434.981	3.5
435.186	3.41
435.39	3.48
435.595	3.59
435.799	3.6
436.004	3.68
436.209	3.57
436.413	3.5
436.618	3.45
436.822	3.51
437.027	3.54
437.231	3.54
437.436	3.61
437.64	3.55
437.845	3.52
438.049	3.51
438.253	3.42
438.458	3.41
438.662	3.45
438.867	3.36
439.071	3.38
439.275	3.35
439.48	3.24
439.684	3.14
439.888	3.16
440.093	3.04
440.297	2.98
440.501	3
440.706	3
440.91	3.01
441.114	3.08
441.318	3.03
441.523	3.04
441.727	3.1
441.931	3.1
442.135	2.98
442.339	3.02
442.543	3.13
442.748	3.1
442.952	3.19
443.156	3.09
443.36	3.14
443.564	3.1
443.768	3.08
443.972	3.06
444.176	3.13
444.38	3.13
444.584	3.14
444.788	3.08
444.992	3.06
445.196	2.99
445.4	3.02
445.604	2.9
445.808	2.91
446.012	2.86
446.216	2.83
446.42	2.8
446.624	2.84
446.828	2.86
447.032	2.87
447.235	2.97
447.439	2.96
447.643	3.01
447.847	3.18
448.051	3.2
448.254	3.29
448.458	3.37
448.662	3.39
448.866	3.42
449.069	3.37
449.273	3.33
449.477	3.26
449.681	3.27
449.884	3.23
450.088	3.13
450.292	3.1
450.495	3.07
450.699	3.05
450.902	3.18
451.106	3.2
451.31	3.29
451.513	3.4
451.717	3.47
451.92	3.52
452.124	3.48
452.327	3.59
452.531	3.59
452.734	3.57
452.938	3.55
453.141	3.52
453.345	3.57
453.548	3.49
453.752	3.35
453.955	3.29
454.158	3.27
454.362	3.42
454.565	3.28
454.769	3.39
454.972	3.46
455.175	3.41
455.379	3.41
455.582	3.44
455.785	3.46
455.988	3.53
456.192	3.48
456.395	3.38
456.598	3.25
456.801	3.21
457.005	3.19
457.208	3.13
457.411	3.16
457.614	3.08
457.817	3.04
458.021	2.99
458.224	3.02
458.427	2.96
458.63	3.03
458.833	2.96
459.036	3.03
459.239	2.99
459.442	2.9
459.645	2.85
459.848	2.87
460.051	2.72
460.254	2.77
460.457	2.73
460.66	2.77
460.863	2.69
461.066	2.77
461.269	2.76
461.472	2.76
461.675	2.91
461.878	2.99
462.081	2.97
462.284	3.06
462.486	3.02
462.689	3.01
462.892	3.12
463.095	3.14
463.298	3.19
463.5	3.14
463.703	3.2
463.906	3.29
464.109	3.28
464.311	3.38
464.514	3.55
464.717	3.51
464.92	3.6
465.122	3.56
465.325	3.58
465.528	3.63
465.73	3.64
465.933	3.52
466.135	3.4
466.338	3.39
466.541	3.32
466.743	3.29
466.946	3.4
467.148	3.32
467.351	3.23
467.553	3.3
467.756	3.17
467.958	3.21
468.161	3.21
468.363	3.22
468.566	3.21
468.768	3.33
468.971	3.26
469.173	3.26
469.375	3.35
469.578	3.34
469.78	3.3
469.983	3.29
470.185	3.38
470.387	3.41
470.59	3.34
470.792	3.4
470.994	3.3
471.196	3.3
471.399	3.26
471.601	3.19
471.803	3.37
472.005	3.34
472.208	3.4
472.41	3.37
472.612	3.35
472.814	3.32
473.016	3.27
473.218	3.35
473.421	3.36
473.623	3.33
473.825	3.34
474.027	3.17
474.229	3.29
474.431	3.27
474.633	3.24
474.835	3.31
475.037	3.35
475.239	3.34
475.441	3.26
475.643	3.28
475.845	3.29
476.047	3.19
476.249	3.32
476.451	3.23
476.653	3.23
476.855	3.2
477.057	3.15
477.258	3.1
477.46	3.06
477.662	3.02
477.864	2.98
478.066	3
478.268	3.02
478.469	2.9
478.671	2.97
478.873	2.88
479.075	2.83
479.276	2.88
479.478	2.94
479.68	2.92
479.882	2.95
480.083	2.95
480.285	2.92
480.487	2.96
480.688	3.01
480.89	3
481.091	2.99
481.293	2.93
481.495	2.81
481.696	2.72
481.898	2.69
482.099	2.65
482.301	2.58
482.502	2.53
482.704	2.45
482.905	2.4
483.107	2.31
483.308	2.31
483.51	2.29
483.711	2.31
483.913	2.33
484.114	2.32
484.315	2.29
484.517	2.27
484.718	2.27
484.92	2.3
485.121	2.3
485.322	2.34
485.524	2.32
485.725	2.35
485.926	2.34
486.127	2.32
486.329	2.3
486.53	2.31
486.731	2.32
486.932	2.32
487.134	2.29
487.335	2.32
487.536	2.29
487.737	2.28
487.938	2.26
488.139	2.25
488.341	2.24
488.542	2.26
488.743	2.28
488.944	2.3
489.145	2.31
489.346	2.29
489.547	2.25
489.748	2.29
489.949	2.31
490.15	2.35
490.351	2.36
490.552	2.36
490.753	2.35
490.954	2.33
491.155	2.32
491.356	2.31
491.557	2.36
491.758	2.42
491.959	2.39
492.159	2.41
492.36	2.38
492.561	2.4
492.762	2.46
492.963	2.47
493.164	2.5
493.364	2.55
493.565	2.59
493.766	2.66
493.967	2.7
494.167	2.75
494.368	2.77
494.569	2.87
494.769	2.91
494.97	2.91
495.171	2.91
495.371	2.92
495.572	2.98
495.773	2.93
495.973	2.89
496.174	2.83
496.375	2.87
496.575	2.82
496.776	2.76
496.976	2.73
497.177	2.68
497.377	2.74
497.578	2.77
497.778	2.74
497.979	2.8
498.179	2.86
498.38	2.84
498.58	2.82
498.78	2.94
498.981	2.98
499.181	3.04
499.382	3.12
499.582	3.11
499.782	3.04
499.983	3.07
500.183	3.04
500.383	3.07
500.584	3.08
500.784	3.08
500.984	3.04
501.184	3.02
501.385	3.02
501.585	2.99
501.785	3.12
501.985	3.24
502.185	3.13
502.386	3.18
502.586	3.15
502.786	3.22
502.986	3.28
503.186	3.26
503.386	3.36
503.586	3.32
503.786	3.38
503.987	3.26
504.187	3.37
504.387	3.51
504.587	3.55
504.787	3.58
504.987	3.61
505.187	3.55
505.387	3.64
505.587	3.58
505.786	3.67
505.986	3.65
506.186	3.76
506.386	3.66
506.586	3.66
506.786	3.58
506.986	3.55
507.186	3.55
507.386	3.61
507.585	3.55
507.785	3.62
507.985	3.69
508.185	3.74
508.384	3.72
508.584	3.77
508.784	3.75
508.984	3.74
509.183	3.86
509.383	3.82
509.583	3.88
509.782	3.9
509.982	3.83
510.182	3.73
510.381	3.78
510.581	3.79
510.781	3.77
510.98	3.77
511.18	3.89
511.379	3.8
511.579	3.91
511.778	3.92
511.978	4.02
512.177	4.09
512.377	4.14
512.576	4.13
512.776	4.18
512.975	4.17
513.175	4.26
513.374	4.31
513.573	4.42
513.773	4.44
513.972	4.42
514.172	4.48
514.371	4.52
514.57	4.62
514.77	4.61
514.969	4.56
515.168	4.69
515.367	4.72
515.567	4.66
515.766	4.6
515.965	4.63
516.164	4.73
516.364	4.68
516.563	4.68
516.762	4.64
516.961	4.59
517.16	4.68
517.359	4.69
517.559	4.69
517.758	4.74
517.957	4.8
518.156	4.81
518.355	4.8
518.554	4.89
518.753	4.94
518.952	4.95
519.151	5.1
519.35	5.13
519.549	5.19
519.748	5.22
519.947	5.3
520.146	5.33
520.345	5.36
520.544	5.46
520.743	5.43
520.942	5.47
521.141	5.58
521.339	5.6
521.538	5.69
521.737	5.65
521.936	5.71
522.135	5.73
522.333	5.85
522.532	5.89
522.731	5.84
522.93	5.96
523.129	6.08
523.327	6.12
523.526	6.1
523.725	6.07
523.923	6.16
524.122	6.11
524.321	6.12
524.519	6.08
524.718	6.12
524.917	6.14
525.115	6.11
525.314	6.08
525.512	6.09
525.711	6.12
525.909	6.09
526.108	6.11
526.306	6.17
526.505	6.2
526.703	6.27
526.902	6.28
527.1	6.37
527.299	6.38
527.497	6.39
527.696	6.39
527.894	6.43
528.092	6.49
528.291	6.52
528.489	6.59
528.688	6.62
528.886	6.62
529.084	6.65
529.283	6.67
529.481	6.74
529.679	6.79
529.877	6.89
530.076	6.97
530.274	7.02
530.472	7.08
530.67	7.15
530.869	7.18
531.067	7.24
531.265	7.31
531.463	7.34
531.661	7.34
531.859	7.41
532.057	7.42
532.255	7.42
532.454	7.48
532.652	7.5
532.85	7.51
533.048	7.55
533.246	7.61
533.444	7.63
533.642	7.69
533.84	7.78
534.038	7.84
534.236	7.92
534.434	7.97
534.632	8.03
534.83	8.12
535.027	8.18
535.225	8.21
535.423	8.26
535.621	8.33
535.819	8.45
536.017	8.46
536.215	8.51
536.412	8.49
536.61	8.5
536.808	8.49
537.006	8.49
537.203	8.54
537.401	8.67
537.599	8.7
537.797	8.77
537.994	8.79
538.192	8.83
538.39	8.93
538.587	9.09
538.785	9.24
538.983	9.4
539.18	9.53
539.378	9.6
539.575	9.63
539.773	9.68
539.97	9.76
540.168	9.83
540.366	9.89
540.563	9.92
540.761	9.96
540.958	9.96
541.155	9.98
541.353	10.01
541.55	10.04
541.748	10.09
541.945	10.17
542.143	10.21
542.34	10.21
542.537	10.28
542.735	10.3
542.932	10.34
543.129	10.42
543.327	10.53
543.524	10.66
543.721	10.81
543.919	11.01
544.116	11.18
544.313	11.36
544.51	11.56
544.708	11.67
544.905	11.94
545.102	12.16
545.299	12.4
545.496	12.57
545.693	12.68
545.891	12.72
546.088	12.76
546.285	12.7
546.482	12.69
546.679	12.72
546.876	12.73
547.073	12.66
547.27	12.54
547.467	12.54
547.664	12.44
547.861	12.42
548.058	12.37
548.255	12.35
548.452	12.47
548.649	12.57
548.846	12.59
549.043	12.59
549.24	12.62
549.437	12.75
549.633	12.85
549.83	12.97
550.027	13.07
550.224	13.21
550.421	13.26
550.618	13.25
550.814	13.3
551.011	13.29
551.208	13.48
551.405	13.51
551.601	13.51
551.798	13.36
551.995	13.36
552.191	13.34
552.388	13.36
552.585	13.35
552.781	13.37
552.978	13.41
553.175	13.5
553.371	13.45
553.568	13.43
553.764	13.51
553.961	13.72
554.157	13.79
554.354	13.9
554.55	14
554.747	14.15
554.943	14.31
555.14	14.39
555.336	14.44
555.533	14.46
555.729	14.61
555.926	14.65
556.122	14.63
556.318	14.74
556.515	14.78
556.711	14.82
556.907	14.81
557.104	14.94
557.3	14.94
557.496	15.08
557.693	15.19
557.889	15.28
558.085	15.25
558.281	15.3
558.478	15.34
558.674	15.4
558.87	15.46
559.066	15.56
559.262	15.64
559.459	15.65
559.655	15.64
559.851	15.75
560.047	15.81
560.243	15.91
560.439	16.07
560.635	16
560.831	15.95
561.027	15.79
561.223	15.78
561.419	15.7
561.615	15.65
561.811	15.82
562.007	15.69
562.203	15.73
562.399	15.86
562.595	15.77
562.791	15.84
562.987	15.85
563.183	16.06
563.379	16.11
563.575	16.19
563.771	16.39
563.966	16.38
564.162	16.67
564.358	16.66
564.554	16.6
564.75	16.7
564.945	16.78
565.141	16.97
565.337	16.9
565.533	16.96
565.728	16.85
565.924	16.93
566.12	16.96
566.315	16.92
566.511	16.96
566.707	17.04
566.902	16.98
567.098	17.02
567.293	17
567.489	17.07
567.684	17.1
567.88	17.27
568.076	17.16
568.271	17.14
568.467	17.16
568.662	17.22
568.858	17.2
569.053	17.44
569.248	17.47
569.444	17.55
569.639	17.56
569.835	17.57
570.03	17.62
570.225	17.7
570.421	17.65
570.616	17.73
570.812	17.64
571.007	17.77
571.202	17.63
571.397	17.59
571.593	17.48
571.788	17.61
571.983	17.7
572.178	17.73
572.374	17.78
572.569	17.8
572.764	17.79
572.959	17.94
573.154	17.93
573.35	17.96
573.545	18.09
573.74	18.08
573.935	18.19
574.13	18.23
574.325	18.23
574.52	18.24
574.715	18.32
574.91	18.44
575.105	18.54
575.3	18.58
575.495	18.7
575.69	18.75
575.885	18.9
576.08	18.93
576.275	19.06
576.47	19.15
576.665	19.25
576.86	19.37
577.055	19.39
577.25	19.35
577.444	19.48
577.639	19.62
577.834	19.61
578.029	19.66
578.224	19.7
578.418	19.74
578.613	19.81
578.808	19.86
579.003	19.9
579.197	19.95
579.392	20.05
579.587	19.98
579.781	19.81
579.976	19.87
580.171	19.9
580.365	20.01
580.56	19.99
580.755	19.97
580.949	19.98
581.144	20.03
581.338	19.87
581.533	19.88
581.727	19.95
581.922	20.09
582.116	20.12
582.311	20.22
582.505	19.93
582.7	19.86
582.894	19.92
583.089	19.97
583.283	20.09
583.478	20.39
583.672	20.45
583.866	20.54
584.061	20.58
584.255	20.69
584.449	20.6
584.644	20.81
584.838	21.14
585.032	21.33
585.226	21.34
585.421	21.29
585.615	21.22
585.809	21.3
586.003	21.36
586.198	21.36
586.392	21.4
586.586	21.53
586.78	21.53
586.974	21.43
587.168	21.33
587.363	21.32
587.557	21.51
587.751	21.58
587.945	21.5
588.139	21.45
588.333	21.26
588.527	21.14
588.721	21.24
588.915	21.1
589.109	20.91
589.303	20.92
589.497	20.94
589.691	20.69
589.885	20.78
590.079	20.76
590.273	20.74
590.466	21.01
590.66	21.14
590.854	20.91
591.048	21.24
591.242	21.36
591.436	21.33
591.629	21.5
591.823	21.64
592.017	21.52
592.211	21.64
592.404	21.78
592.598	21.63
592.792	21.67
592.986	21.83
593.179	21.64
593.373	21.69
593.567	21.63
593.76	21.54
593.954	21.4
594.147	21.53
594.341	21.43
594.535	21.25
594.728	21.36
594.922	21.27
595.115	21.12
595.309	21.12
595.502	21.12
595.696	21.04
595.889	21.06
596.083	21.12
596.276	20.9
596.47	20.75
596.663	20.77
596.856	20.71
597.05	20.69
597.243	20.79
597.437	20.85
597.63	20.85
597.823	20.88
598.017	20.79
598.21	20.75
598.403	20.82
598.596	21.05
598.79	21.14
598.983	21.19
599.176	21.13
599.369	21.25
599.563	21.28
599.756	21.27
599.949	21.47
600.142	21.42
600.335	21.56
600.528	21.68
600.722	21.7
600.915	21.83
601.108	21.84
601.301	21.95
601.494	21.9
601.687	21.81
601.88	21.74
602.073	21.56
602.266	21.6
602.459	21.46
602.652	21.38
602.845	21.37
603.038	21.32
603.231	21.23
603.424	21.22
603.617	21.17
603.809	21.12
604.002	21.21
604.195	21.25
604.388	21.22
604.581	21.3
604.774	21.31
604.966	21.23
605.159	21.18
605.352	21.19
605.545	21.15
605.737	21.13
605.93	21.21
606.123	21.09
606.316	21.16
606.508	21.3
606.701	21.39
606.894	21.53
607.086	21.85
607.279	21.94
607.471	22.11
607.664	22.33
607.857	22.52
608.049	22.68
608.242	23.05
608.434	23.65
608.627	24.02
608.819	24.68
609.012	25.33
609.204	25.98
609.397	26.67
609.589	27.53
609.782	28.54
609.974	29.66
610.166	30.71
610.359	31.76
610.551	32.47
610.743	33.25
610.936	33.78
611.128	34.28
611.32	34.59
611.513	34.86
611.705	35.02
611.897	34.88
612.09	34.46
612.282	34
612.474	33.49
612.666	33
612.858	32.71
613.051	32.37
613.243	31.88
613.435	31.49
613.627	31.07
613.819	30.79
614.011	30.64
614.203	30.36
614.395	30.11
614.588	29.66
614.78	29.16
614.972	28.53
615.164	27.75
615.356	27.4
615.548	26.83
615.74	26.48
615.932	25.97
616.124	25.34
616.315	25
616.507	24.8
616.699	24.61
616.891	24.59
617.083	24.45
617.275	24.53
617.467	24.42
617.659	24.43
617.85	24.43
618.042	24.34
618.234	24.25
618.426	24.25
618.618	24.2
618.809	24.04
619.001	24.06
619.193	24.09
619.384	24.15
619.576	24.04
619.768	23.9
619.959	23.95
620.151	23.94
620.343	23.93
620.534	23.93
620.726	23.94
620.917	24.07
621.109	23.74
621.301	23.77
621.492	23.67
621.684	23.6
621.875	23.6
622.067	23.39
622.258	23.54
622.45	23.77
622.641	23.62
622.832	23.74
623.024	23.75
623.215	23.86
623.407	23.83
623.598	23.93
623.789	24.04
623.981	24.16
624.172	24.31
624.363	24.35
624.555	24.18
624.746	24.34
624.937	24.14
625.129	24.09
625.32	24.05
625.511	24.06
625.702	23.92
625.893	23.87
626.085	23.82
626.276	23.78
626.467	23.48
626.658	23.32
626.849	23.2
627.04	23.25
627.231	23.27
627.422	23.55
627.614	23.66
627.805	23.86
627.996	23.88
628.187	23.95
628.378	24
628.569	24.3
628.76	24.58
628.951	24.75
629.142	25
629.332	25.28
629.523	25.24
629.714	25.4
629.905	25.43
630.096	25.44
630.287	25.64
630.478	25.55
630.669	25.4
630.859	25.19
631.05	25.05
631.241	24.67
631.432	24.39
631.623	24.2
631.813	23.86
632.004	23.71
632.195	23.62
632.385	23.24
632.576	23.33
632.767	23.41
632.957	23.57
633.148	23.58
633.339	23.66
633.529	23.48
633.72	23.36
633.91	23.51
634.101	23.45
634.292	23.45
634.482	23.83
634.673	23.83
634.863	23.7
635.054	23.64
635.244	23.66
635.435	23.76
635.625	24.06
635.815	24.15
636.006	23.96
636.196	23.92
636.387	24.07
636.577	23.84
636.767	23.79
636.958	24.07
637.148	23.87
637.338	23.63
637.529	23.46
637.719	23.35
637.909	23.31
638.099	23.35
638.29	23.44
638.48	23.35
638.67	23.39
638.86	23.34
639.05	23.05
639.241	23.33
639.431	23.65
639.621	23.76
639.811	23.51
640.001	23.53
640.191	23.61
640.381	23.42
640.571	23.29
640.761	23.03
640.951	23.1
641.141	23.22
641.331	23.15
641.521	23.13
641.711	23.22
641.901	23.34
642.091	23.39
642.281	23.42
642.471	23.59
642.661	23.93
642.851	24.17
643.041	24.08
643.231	23.99
643.42	23.84
643.61	23.86
643.8	23.9
643.99	24.34
644.18	24.16
644.369	24.12
644.559	24.19
644.749	23.89
644.939	23.84
645.128	24.04
645.318	23.93
645.508	24.05
645.697	24.14
645.887	24.12
646.076	23.86
646.266	24.17
646.456	24.25
646.645	24.19
646.835	24.27
647.024	24.43
647.214	24.26
647.403	24.28
647.593	24.4
647.782	24.32
647.972	24.43
648.161	24.45
648.351	24.53
648.54	24.53
648.73	24.6
648.919	24.76
649.108	24.79
649.298	24.86
649.487	25.03
649.677	24.94
649.866	25.01
650.055	24.73
650.244	24.86
650.434	24.58
650.623	24.74
650.812	24.79
651.002	24.57
651.191	24.43
651.38	24.33
651.569	24.35
651.758	24.48
651.947	24.42
652.137	24.3
652.326	23.94
652.515	24.13
652.704	24.01
652.893	24.12
653.082	24.44
653.271	24.62
653.46	24.73
653.649	24.75
653.838	24.51
654.027	24.4
654.216	24.56
654.405	25.01
654.594	25.04
654.783	25.04
654.972	24.92
655.161	24.58
655.35	24.37
655.539	24.33
655.728	24.41
655.916	24.67
656.105	24.81
656.294	24.97
656.483	24.75
656.672	24.54
656.86	24.57
657.049	24.61
657.238	24.57
657.427	24.64
657.615	24.42
657.804	24.23
657.993	24.19
658.181	24.05
658.37	23.81
658.559	23.79
658.747	23.91
658.936	23.72
659.125	23.94
659.313	24
659.502	24.09
659.69	24.21
659.879	24.24
660.067	24.12
660.256	24.06
660.444	24.23
660.633	24.37
660.821	24.18
661.01	24.22
661.198	23.98
661.387	24.09
661.575	23.91
661.763	24.06
661.952	24.04
662.14	24.13
662.328	24.47
662.517	24.79
662.705	24.64
662.893	25.01
663.082	25.13
663.27	25.21
663.458	25.24
663.646	25.31
663.834	25.37
664.023	25.52
664.211	25.64
664.399	25.59
664.587	25.31
664.775	25.4
664.963	25.08
665.152	25.15
665.34	25.21
665.528	25.21
665.716	25.41
665.904	25.39
666.092	25.18
666.28	25.16
666.468	25.09
666.656	25.19
666.844	25.17
667.032	25.36
667.22	25.44
667.408	25.3
667.596	25.13
667.784	24.83
667.971	24.85
668.159	25.08
668.347	25.1
668.535	25.04
668.723	24.85
668.911	24.71
669.098	24.93
669.286	24.76
669.474	24.96
669.662	25.2
669.849	25.43
670.037	25.33
670.225	25.16
670.413	25.14
670.6	24.95
670.788	25.19
670.976	25.38
671.163	25.24
671.351	25.38
671.538	25.23
671.726	25.09
671.913	25.01
672.101	25.38
672.289	25.45
672.476	25.29
672.664	25.66
672.851	25.48
673.039	25.6
673.226	25.66
673.413	25.62
673.601	25.66
673.788	25.72
673.976	25.92
674.163	25.67
674.35	25.77
674.538	26.09
674.725	25.97
674.912	26.15
675.1	26.16
675.287	26.24
675.474	26.42
675.662	26.21
675.849	26.33
676.036	26.09
676.223	26.25
676.411	26.14
676.598	25.93
676.785	26.01
676.972	25.82
677.159	25.79
677.346	25.74
677.533	25.64
677.721	25.86
677.908	25.8
678.095	25.87
678.282	25.53
678.469	25.69
678.656	25.67
678.843	25.43
679.03	25.4
679.217	25.36
679.404	25.34
679.591	25.1
679.778	25.12
679.964	25.21
680.151	25.19
680.338	25.13
680.525	25.21
680.712	25.31
680.899	25.56
681.086	25.73
681.272	25.8
681.459	25.77
681.646	25.78
681.833	25.68
682.02	25.45
682.206	25.65
682.393	25.88
682.58	25.74
682.766	25.79
682.953	25.84
683.14	26
683.326	26.1
683.513	26.17
683.7	26.48
683.886	26.43
684.073	26.62
684.259	26.54
684.446	26.5
684.632	26.57
684.819	26.67
685.005	26.61
685.192	26.44
685.378	26.34
685.565	26.5
685.751	26.38
685.938	26.4
686.124	26.51
686.31	26.5
686.497	26.82
686.683	26.9
686.87	26.8
687.056	26.93
687.242	26.88
687.429	26.87
687.615	26.71
687.801	26.83
687.987	26.75
688.174	26.48
688.36	26.44
688.546	26.29
688.732	26.11
688.918	25.73
689.105	25.79
689.291	25.91
689.477	26.03
689.663	26.12
689.849	26.26
690.035	26.33
690.221	26.58
690.407	26.76
690.593	26.88
690.779	26.99
690.965	27.31
691.151	27.17
691.337	27.08
691.523	26.85
691.709	26.55
691.895	26.57
692.081	26.77
692.267	26.72
692.453	26.81
692.639	26.72
692.825	27.21
693.011	27.55
693.196	27.7
693.382	27.73
693.568	27.85
693.754	28.24
693.94	28.11
694.125	28.04
694.311	27.86
694.497	27.9
694.682	27.9
694.868	27.68
695.054	27.47
695.239	27.35
695.425	27.17
695.611	27.24
695.796	26.94
695.982	27.05
696.168	26.9
696.353	26.92
696.539	26.54
696.724	26.49
696.91	25.98
697.095	25.84
697.281	25.65
697.466	25.91
697.652	25.9
697.837	25.77
698.023	25.43
698.208	25.39
698.393	25.52
698.579	25.56
698.764	25.38
698.949	25.46
699.135	25.49
699.32	25.45
699.505	25.18
699.691	25.03
699.876	25.24
700.061	25.5
700.246	25.58
700.432	25.46
700.617	25.41
700.802	25.62
700.987	25.74
701.172	25.8
701.358	25.86
701.543	26.32
701.728	26.51
701.913	26.69
702.098	26.84
702.283	27.11
702.468	27.05
702.653	27.41
702.838	27.68
703.023	27.94
703.208	28.51
703.393	28.93
703.578	29.05
703.763	29.62
703.948	29.87
704.133	29.88
704.318	30.22
704.503	30.66
704.688	31.02
704.873	30.97
705.057	31.38
705.242	31.08
705.427	30.97
705.612	30.85
705.797	30.48
705.981	30.6
706.166	30.78
706.351	30.43
706.536	30.87
706.72	30.57
706.905	31.22
707.09	31.01
707.274	31.49
707.459	32.09
707.644	32.11
707.828	32.3
708.013	32.11
708.197	32.15
708.382	32.23
708.567	31.84
708.751	31.87
708.936	31.43
709.12	31.45
709.305	31.11
709.489	30.8
709.673	30.96
709.858	30.86
710.042	30.74
710.227	30.69
710.411	31.13
710.596	31.22
710.78	31.09
710.964	31.31
711.149	31.2
711.333	31.24
711.517	31.02
711.702	30.91
711.886	30.97
712.07	31.09
712.254	31.14
712.438	30.56
712.623	30.39
712.807	30.25
712.991	29.38
713.175	29.46
713.359	29.21
713.544	28.72
713.728	28.44
713.912	28.42
714.096	27.95
714.28	27.83
714.464	27.84
714.648	27.63
714.832	28.07
715.016	28.58
715.2	28.26
715.384	28.35
715.568	28.5
715.752	28.42
715.936	28
716.12	27.96
716.304	27.92
716.488	27.86
716.671	28.03
716.855	27.78
717.039	27.6
717.223	27.56
717.407	27.39
717.59	27.52
717.774	27.83
717.958	28.11
718.142	28.39
718.325	28.18
718.509	28.49
718.693	28.48
718.877	28.7
719.06	28.6
719.244	29.01
719.428	28.94
719.611	29.1
719.795	28.85
719.978	29.01
720.162	29.21
720.345	29.44
720.529	29.32
720.713	29.82
720.896	29.68
721.08	30.09
721.263	29.98
721.446	30.32
721.63	30.4
721.813	30.64
721.997	30.48
722.18	30.37
722.364	30.28
722.547	30.32
722.73	29.9
722.914	30.27
723.097	30.49
723.28	30.33
723.464	30.05
723.647	30.03
723.83	30.02
724.013	30.06
724.197	30.52
724.38	30.89
724.563	30.68
724.746	30.72
724.929	30.2
725.112	29.65
725.296	29.57
725.479	29.57
725.662	29.75
725.845	29.97
726.028	29.75
726.211	28.78
726.394	28.05
726.577	28.14
726.76	28.11
726.943	28.28
727.126	28.39
727.309	28.45
727.492	28.56
727.675	28.64
727.858	28.4
728.041	28.64
728.224	29.21
728.407	29.61
728.589	29.75
728.772	29.84
728.955	29.69
729.138	29.53
729.321	29.61
729.503	29.64
729.686	29.46
729.869	29.63
730.052	29.51
730.234	29.3
730.417	29.13
730.6	29.11
730.782	28.76
730.965	29.09
731.148	29.33
731.33	29.38
731.513	29.81
731.695	29.79
731.878	29.6
732.061	29.97
732.243	30.5
732.426	30.75
732.608	30.39
732.791	30.7
732.973	30.37
733.156	30.96
733.338	31.11
733.52	30.87
733.703	30.87
733.885	31.24
734.068	31.09
734.25	30.68
734.432	30.46
734.615	31.09
734.797	30.86
734.979	31.1
735.162	30.76
735.344	30.59
735.526	30.07
735.708	30.25
735.891	30.27
736.073	29.89
736.255	29.99
736.437	30.22
736.619	30.36
736.802	30.89
736.984	30.49
737.166	30.54
737.348	30.79
737.53	31.77
737.712	32.02
737.894	32.35
738.076	33.02
738.258	32.96
738.44	32.94
738.622	32.47
738.804	32.43
738.986	32.9
739.168	33.07
739.35	33.11
739.532	32.79
739.714	32.52
739.896	31.7
740.078	31.77
740.259	31.98
740.441	31.92
740.623	32.1
740.805	32.47
740.987	32.47
741.168	32.12
741.35	32.19
741.532	32.43
741.714	33.12
741.895	33.53
742.077	33.43
742.259	33.75
742.44	34.29
742.622	34.16
742.804	33.73
742.985	33.59
743.167	33.17
743.348	33.01
743.53	33.19
743.711	32.72
743.893	32.58
744.075	32.79
744.256	32.75
744.438	32.86
744.619	33.04
744.8	33.49
744.982	33.81
745.163	34.64
745.345	34.57
745.526	34.46
745.707	34.72
745.889	35.4
746.07	34.81
746.252	34.75
746.433	34.29
746.614	34.32
746.795	34.66
746.977	34.39
747.158	34.16
747.339	34.53
747.52	34.4
747.702	33.9
747.883	32.8
748.064	33.45
748.245	33.24
748.426	33.35
748.607	34.12
748.788	33.89
748.97	34.02
749.151	33.8
749.332	34.42
749.513	35.12
749.694	35.82
749.875	36.76
750.056	36.71
750.237	36.4
750.418	36.6
750.599	35.95
750.78	35.64
750.96	35.6
751.141	35.76
751.322	34.7
751.503	34.49
751.684	34.35
751.865	34.04
752.046	33.84
752.226	34.65
752.407	34.67
752.588	35.15
752.769	34.96
752.949	35.38
753.13	35.47
753.311	35.84
753.492	35.44
753.672	35.14
753.853	35.74
754.034	35.87
754.214	35.08
754.395	34.86
754.575	34.64
754.756	34.46
754.937	33.87
755.117	33.35
755.298	32.88
755.478	32.8
755.659	33.09
755.839	33.02
756.02	32.64
756.2	33.91
756.381	33.79
756.561	34.12
756.741	34.92
756.922	36.12
757.102	36.51
757.283	37.4
757.463	37.41
757.643	37.33
757.823	36.93
758.004	36.66
758.184	35.75
758.364	36.33
758.545	35.83
758.725	35.24
758.905	33.88
759.085	33.41
759.265	32.84
759.446	32.1
759.626	32
759.806	31.96
759.986	32.04
760.166	32.08
760.346	31.41
760.526	31.29
760.706	31.01
760.886	30.95
761.066	30.74
761.246	30.65
761.426	31.1
761.606	30.59
761.786	30.27
761.966	30.37
762.146	29.76
762.326	29.93
762.506	29.89
762.686	29.83
762.866	30.03
763.046	30.64
763.225	30.69
763.405	30.55
763.585	30.28
763.765	30.43
763.945	30.19
764.124	30.41
764.304	30.32
764.484	30.62
764.664	30.76
764.843	30.87
765.023	30.65
765.203	30.45
765.382	30.75
765.562	31.24
765.741	31.68
765.921	32.02
766.101	32.16
766.28	32.29
766.46	31.97
766.639	32.57
766.819	33.16
766.998	33.81
767.178	34.45
767.357	34.46
767.537	34.48
767.716	34.15
767.896	34.61
768.075	34.7
768.254	35.79
768.434	36.35
768.613	36.68
768.792	36.02
768.972	35.64
769.151	35.32
769.33	35.33
769.51	36.08
769.689	36.62
769.868	36.73
770.047	37.71
770.226	36.67
770.406	36.17
770.585	35.7
770.764	35.95
770.943	36.68
771.122	36.31
771.301	37.27
771.48	37.17
771.66	37.13
771.839	37.34
772.018	37.01
772.197	38.26
772.376	38.75
772.555	38.57
772.734	39.2
772.913	38.75
773.092	39.87
773.271	38.84
773.449	38.27
773.628	38.22
773.807	37.83
773.986	37.69
774.165	36.56
774.344	37.22
774.523	37.12
774.701	37.03
774.88	37.86
775.059	37.77
775.238	38.03
775.417	38.18
775.595	38.25
775.774	37.44
775.953	37.35
776.131	37.73
776.31	37.08
776.489	37.65
776.667	37.46
776.846	36.37
777.025	36.22
777.203	35.67
777.382	36.16
777.56	35.68
777.739	37.81
777.917	37.97
778.096	37.65
778.274	37.66
778.453	37.74
778.631	38.47
778.81	38.8
778.988	37.98
779.166	38.67
779.345	38.91
779.523	39.9
779.702	39.26
779.88	39.72
780.058	40.33
780.237	40.78
780.415	40.3
780.593	39.07
780.771	39.13
780.95	40.11
781.128	40.16
781.306	40.06
781.484	39.38
781.662	39.5
781.841	39.12
782.019	39.05
782.197	38.23
782.375	38.5
782.553	39.89
782.731	39.87
782.909	40.6
783.087	41.13
783.265	40.56
783.443	40.86
783.621	40.47
783.799	40.2
783.977	40.23
784.155	40.79
784.333	40.89
784.511	39.77
784.689	40.43
784.867	38.93
785.045	39.25
785.223	39.5
785.4	39.87
785.578	39.27
785.756	40.58
785.934	40.72
786.112	40.37
786.289	40.44
786.467	41.3
786.645	41.21
786.823	42.22
787	42.51
787.178	42.51
787.356	41.17
787.533	40.82
787.711	40.22
787.889	39.42
788.066	38.85
788.244	38.65
788.421	39.01
788.599	38.17
788.776	37.8
788.954	37.65
789.131	37.67
789.309	38.53
789.486	39.27
789.664	39.6
789.841	39.92
790.019	40.57
790.196	41.08
790.373	39.39
790.551	39.13
790.728	39.16
790.906	37.88
791.083	39.21
791.26	40.17
791.437	39.81
791.615	39.36
791.792	39.79
791.969	39.76
792.146	39.69
792.324	41.94
792.501	43.56
792.678	42.87
792.855	43.35
793.032	42.2
793.209	41.32
793.387	42.08
793.564	42.04
793.741	42.05
793.918	42.21
794.095	42.6
794.272	40.98
794.449	40.78
794.626	42.15
794.803	42.47
794.98	43.13
795.157	42.86
795.334	42.32
795.511	41.98
795.688	42.17
795.864	41.76
796.041	42.09
796.218	43.11
796.395	42.26
796.572	41.51
796.749	41.3
796.925	40.6
797.102	40.96
797.279	40.53
797.456	40.22
797.632	40.41
797.809	40.76
797.986	40.5
798.162	40.41
798.339	40.75
798.516	41.46
798.692	41.32
798.869	41.21
799.046	40.28
799.222	41.16
799.399	41.86
799.575	41.69
799.752	42.33
799.928	41.1
800.105	39.19
800.281	38.96
800.458	38.48
800.634	37.59
800.811	38.41
800.987	39.33
801.163	39.72
801.34	40.87
801.516	41.03
801.692	39.88
801.869	41.27
802.045	42.94
802.221	43.81
802.398	43.73
802.574	45.19
802.75	45.43
802.926	44.71
803.103	44.74
803.279	43.86
803.455	43.94
803.631	44.58
803.807	44.39
803.983	45.6
804.16	45.41
804.336	44.38
804.512	44.45
804.688	45.71
804.864	45.23
805.04	44.76
805.216	43.66
805.392	43.8
805.568	43.9
805.744	44.09
805.92	42.47
806.096	42.89
806.272	45.24
806.448	45.08
806.623	43.43
806.799	44.33
806.975	43.72
807.151	45.08
807.327	44.46
807.503	44.55
807.678	45.31
807.854	45.12
808.03	43.3
808.206	43.39
808.381	43.34
808.557	42.79
808.733	43.59
808.908	43.57
809.084	43.92
809.26	43.7
809.435	44.84
809.611	44.48
809.787	44.97
809.962	44.74
810.138	43.75
810.313	43.27
810.489	43.38
810.664	42.98
810.84	42.35
811.015	41.97
811.191	40.76
811.366	40.1
811.542	39.58
811.717	40.95
811.892	42.47
812.068	42.73
812.243	42.78
812.419	43.32
812.594	44.35
812.769	45.85
812.944	45.27
813.12	48.12
813.295	47.23
813.47	46.79
813.645	46.23
813.821	46.43
813.996	45.6
814.171	46.65
814.346	44.93
814.521	43.81
814.697	43.02
814.872	43.5
815.047	42.29
815.222	42.31
815.397	42.75
815.572	42.8
815.747	42.39
815.922	42.6
816.097	41.02
816.272	41.53
816.447	43.17
816.622	44.93
816.797	44.15
816.972	44.97
817.147	44.5
817.322	43.59
817.496	42.16
817.671	42.02
817.846	42.3
818.021	43.26
818.196	44.49
818.371	42.19
818.545	42.1
818.72	41.3
818.895	41.32
819.069	42.16
819.244	43.98
819.419	44.34
819.594	43.79
819.768	42.56
819.943	40.82
820.117	39.52
820.292	38.96
820.467	37.47
820.641	37.01
820.816	36.14
820.99	34.49
821.165	32.62
821.339	31.2
821.514	30.56
821.688	30.38
821.863	30.29
822.037	29.67
822.212	29.55
822.386	29.09
822.56	28.54
822.735	28.16
822.909	28.11
823.084	28.39
823.258	28.6
823.432	28.57
823.606	28.57
823.781	28.41
823.955	28.59
824.129	28.42
824.303	28.66
824.478	29.21
824.652	29.39
824.826	29.63
825	29.62
825.174	29.93
825.348	30.38
825.523	30.74
825.697	30.94
825.871	31.28
826.045	31.54
826.219	31.61
826.393	31.64
826.567	31.46
826.741	31.26
826.915	31.47
827.089	31.7
827.263	31.37
827.437	31.25
827.611	31.52
827.784	31.77
827.958	31.9
828.132	31.62
828.306	31.73
828.48	32.39
828.654	32.43
828.827	32.42
829.001	31.96
829.175	32.93
829.349	34.11
829.522	34.35
829.696	34.35
829.87	34.72
830.044	36.77
830.217	37.69
830.391	37.92
830.565	39.45
830.738	40.64
830.912	42.55
831.085	43.07
831.259	42.37
831.432	42.7
831.606	43.18
831.779	44.1
831.953	41.95
832.126	41.43
832.3	40.88
832.473	39.78
832.647	38.97
832.82	37.65
832.994	36.99
833.167	37
833.34	36.28
833.514	35.6
833.687	34.35
833.86	34.61
834.034	34.61
834.207	34.35
834.38	34.51
834.553	34.69
834.727	35.36
834.9	35.13
835.073	34.38
835.246	34.78
835.419	35.76
835.593	36.68
835.766	37.54
835.939	37.71
836.112	38.67
836.285	38.96
836.458	39.02
836.631	39.33
836.804	40.4
836.977	40.88
837.15	42.56
837.323	43.04
837.496	43.53
837.669	45.08
837.842	47.16
838.015	47.59
838.188	49.81
838.361	51.01
838.533	50.49
838.706	49.51
838.879	51.12
839.052	50.94
839.225	50.63
839.398	50.08
839.57	48.05
839.743	46.95
839.916	48.88
840.088	48.56
840.261	49.07
840.434	50.55
840.607	51.34
840.779	51.27
840.952	50.11
841.124	48.76
841.297	50.92
841.47	52.92
841.642	53.65
841.815	52.01
841.987	51.94
842.16	50.35
842.332	49.77
842.505	51.62
842.677	52.17
842.85	55.04
843.022	58.57
843.194	59.33
843.367	60.87
843.539	62.57
843.712	61.09
843.884	61.09
844.056	63.52
844.229	66.51
844.401	63.97
844.573	64.58
844.745	65.09
844.918	60.56
845.09	59.89
845.262	57.71
845.434	57.06
845.606	58.13
845.779	58.33
845.951	58.61
846.123	58.01
846.295	60.9
846.467	61.53
846.639	63.59
846.811	64.79
846.983	65.49
847.155	66.39
847.327	69.43
847.499	69.68
847.671	70.11
847.843	69.31
848.015	69.45
848.187	68.16
848.359	70.01
848.531	68.4
848.703	65.76
848.875	66.35
849.047	65.37
849.218	66.21
849.39	68.63
849.562	71.49
849.734	69.73
849.905	68.97
850.077	73.21
850.249	69.67
850.421	66.34
850.592	72.32
850.764	74.09
850.936	73.89
851.107	69.34
851.279	66.47
851.451	65.98
851.622	70.28
851.794	68.52
851.965	67.23
852.137	67.03
852.308	67.62
852.48	68.35
852.651	65.34
852.823	69.15
852.994	69.05
853.166	68.64
853.337	69.38
853.509	67.87
853.68	70.44
853.851	66.96
854.023	69.63
854.194	76.37
854.365	73.49
854.537	73.88
854.708	73.06
854.879	78.01
855.05	83.21
855.222	80.91
855.393	82.44
855.564	85.57
855.735	88.4
855.906	86.17
856.078	79.8
856.249	79.86
856.42	80.27
856.591	82.3
856.762	75.92
856.933	75.51
857.104	76.16
857.275	76.83
857.446	71.71
857.617	73.82
857.788	76.02
857.959	78.87
858.13	82.84
858.301	80.44
858.472	78.25
858.643	83.26
858.814	81.66
858.985	84.37
859.155	83.65
859.326	83.52
859.497	81.12
859.668	80.82
859.839	80.46
860.009	75.05
860.18	73.13
860.351	72.99
860.522	70.08
860.692	68.02
860.863	67.74
861.034	67.79
861.204	72.28
861.375	72.41
861.546	74.51
861.716	70.43
861.887	73.86
862.057	79.07
862.228	81.84
862.398	81.94
862.569	81.04
862.739	79.48
862.91	77.45
863.08	78.3
863.251	78.42
863.421	74.84
863.592	78.73
863.762	80.51
863.932	78.43
864.103	76.62
864.273	77.46
864.443	82.93
864.614	83.16
864.784	81.12
864.954	81.14
865.125	80.81
865.295	84.3
865.465	84
865.635	79.77
865.805	83.53
865.976	78.07
866.146	78.29
866.316	70.28
866.486	71.73
866.656	75.8
866.826	73.55
866.996	75.38
867.166	75.08
867.336	73.06
867.506	79.23
867.676	75.64
867.846	78.84
868.016	80.24
868.186	84.9
868.356	86.55
868.526	83.4
868.696	81.63
868.866	81.75
869.036	81.55
869.206	82.38
869.376	81.3
869.545	78.72
869.715	81.38
869.885	82.54
870.055	82.57
870.224	80.96
870.394	82.34
870.564	84.15
870.734	84.5
870.903	82.28
871.073	82.51
871.243	79.98
871.412	82.28
871.582	81.51
871.751	81.46
871.921	85.97
872.091	86.04
872.26	86.86
872.43	87.07
872.599	84.12
872.769	84.72
872.938	81.92
873.108	81.99
873.277	80.8
873.446	80.54
873.616	78.14
873.785	75.44
873.955	73.9
874.124	73.43
874.293	72.27
874.463	76.34
874.632	75.33
874.801	74.87
874.971	75.4
875.14	78.05
875.309	73.66
875.478	76.19
875.647	75.36
875.817	74.39
875.986	74.3
876.155	76.16
876.324	73.38
876.493	73.75
876.662	79.11
876.831	76.49
877	77.2
877.17	78.7
877.339	79.87
877.508	77.9
877.677	77.45
877.846	77.12
878.015	71.68
878.184	71.63
878.352	71.28
878.521	69.94
878.69	67.47
878.859	62.01
879.028	59.63
879.197	56.39
879.366	55.47
879.534	54.81
879.703	51.34
879.872	52.46
880.041	50.28
880.21	48.51
880.378	45.26
880.547	44.37
880.716	44.36
880.884	43.75
881.053	42.3
881.222	41.25
881.39	40.07
881.559	39.4
881.727	38.5
881.896	37.09
882.065	36.35
882.233	36.18
882.402	35.77
882.57	34.74
882.739	34.13
882.907	33.63
883.076	33.54
883.244	33.3
883.412	33.86
883.581	34.25
883.749	34.51
883.918	35.4
884.086	36.08
884.254	37.47
884.423	38.67
884.591	39.4
884.759	41.43
884.927	41.52
885.096	42.28
885.264	42.83
885.432	43.94
885.6	46.37
885.769	46.15
885.937	46.57
886.105	46.23
886.273	47.46
886.441	50.17
886.609	51.56
886.777	55.62
886.945	60.78
887.113	62.77
887.281	59.31
887.449	61.85
887.617	65.42
887.785	69.91
887.953	69.79
888.121	71.63
888.289	76.39
888.457	76.91
888.625	72.81
888.793	73.18
888.961	71.93
889.129	79.28
889.296	77.73
889.464	77.38
889.632	74.98
889.8	78.66
889.967	82.69
890.135	74.89
