Data from 2938766__Reflection_03.txt Node
Date: Fri Mar 13 16:03:42 EDT 2015
User: robert
Spectrometer: USB4E03002
Autoset integration time: false
Trigger mode: 4
Integration Time (sec): 1.000000E-1
Scans to average: 10
Electric dark correction enabled: false
Nonlinearity correction enabled: false
Boxcar width: 5
Stray light correction enabled: false
XAxis mode: Wavelengths
Stop averaging: false
Number of Pixels in Spectrum: 3648
>>>>>Begin Spectral Data<<<<<
177.575	-5.19
177.794	-133.33
178.014	-238.46
178.233	86.96
178.452	1925
178.672	79.73
178.891	303.23
179.11	650.98
179.33	-3842.86
179.549	-2820
179.768	157.63
179.987	31.05
180.207	43.47
180.426	50.39
180.645	29.03
180.864	11.58
181.084	22.51
181.303	-15.63
181.522	-41.5
181.741	-38.78
181.96	-39.61
182.179	-61.42
182.398	-32.69
182.618	-74.69
182.837	-52.66
183.056	-54.24
183.275	-27.73
183.494	-58.16
183.713	13.26
183.932	4.12
184.151	13.61
184.37	28.43
184.589	28.07
184.808	10.61
185.027	23.13
185.246	22.5
185.465	6.9
185.684	5.47
185.903	8.51
186.122	1.47
186.341	1.53
186.56	6.28
186.779	9.76
186.998	0.85
187.216	17.76
187.435	-8.33
187.654	-34.79
187.873	-7.02
188.092	50.29
188.311	63.26
188.53	73.55
188.748	90.35
188.967	59.5
189.186	33.55
189.405	178.48
189.623	-5.58
189.842	18.28
190.061	39.93
190.28	0.94
190.498	-130.72
190.717	-166.03
190.936	-286.75
191.154	-226.15
191.373	-109.33
191.592	-64.93
191.81	-38.4
192.029	-14.19
192.248	7.88
192.466	3.55
192.685	4
192.904	7.44
193.122	-8.7
193.341	7.36
193.559	1.17
193.778	-19.4
193.996	5.37
194.215	3.74
194.433	-2.28
194.652	-68.97
194.87	-150.92
195.089	-239.02
195.307	-163.93
195.526	-41.62
195.744	-54.14
195.963	-46.45
196.181	-38.48
196.399	-5.16
196.618	-24.01
196.836	-57.8
197.055	-143.66
197.273	-41.92
197.491	-7.95
197.71	-15.7
197.928	-3.14
198.146	2.32
198.365	21.73
198.583	9.68
198.801	-13.23
199.019	-0.7
199.238	4.83
199.456	21.49
199.674	17.6
199.892	10.22
200.111	4.33
200.329	5.3
200.547	11.21
200.765	-3.43
200.983	11.36
201.202	2.04
201.42	-10.52
201.638	-6.45
201.856	7.98
202.074	-4.74
202.292	-11.05
202.51	-47.63
202.728	-29.08
202.946	-7.53
203.165	-22.41
203.383	-28.19
203.601	-48.76
203.819	-54.07
204.037	-60.47
204.255	-70.02
204.473	-33.05
204.691	-44.03
204.909	3.18
205.127	-15.98
205.345	-91.77
205.562	-29.07
205.78	-60
205.998	-13.04
206.216	-1.2
206.434	3.86
206.652	2.89
206.87	-7.2
207.088	-19.39
207.306	-4.4
207.523	-13.53
207.741	-17.86
207.959	-18.15
208.177	-33.62
208.395	-41.36
208.612	-17.79
208.83	-63.1
209.048	-183.78
209.266	-392.94
209.483	-124.49
209.701	-145.78
209.919	-180.1
210.136	-71.54
210.354	-60.12
210.572	-19.78
210.79	-16.18
211.007	-35.68
211.225	-11.42
211.442	-12.4
211.66	5.51
211.878	17.07
212.095	13.16
212.313	17.61
212.53	17.68
212.748	5.18
212.966	7.14
213.183	4.87
213.401	6.56
213.618	2.74
213.836	8.95
214.053	4.4
214.271	0
214.488	3.68
214.705	8.9
214.923	12.64
215.14	12.92
215.358	22.5
215.575	32.06
215.793	31.57
216.01	35.99
216.227	37.5
216.445	41.69
216.662	30.95
216.879	15.74
217.097	7.87
217.314	5
217.531	11.88
217.749	6.15
217.966	-4.29
218.183	0.97
218.4	-8.63
218.618	-17.86
218.835	-15.09
219.052	-8.46
219.269	-1.11
219.487	0.46
219.704	-0.55
219.921	-0.98
220.138	3.6
220.355	-0.17
220.572	-7.42
220.79	-2.72
221.007	-0.44
221.224	-10.64
221.441	-3.23
221.658	3.44
221.875	1.77
222.092	2.83
222.309	2.89
222.526	1.7
222.743	4.69
222.96	-1.1
223.177	-4.56
223.394	-2.79
223.611	4.57
223.828	3.49
224.045	0.53
224.262	1.31
224.479	0.4
224.696	-1.25
224.913	-4.35
225.13	-3.26
225.347	3.54
225.564	3.38
225.781	1.32
225.997	-2.22
226.214	-2.28
226.431	-2.1
226.648	0
226.865	1.5
227.082	1.96
227.298	2.41
227.515	2.4
227.732	2.39
227.949	2.64
228.165	3.56
228.382	4.05
228.599	4.22
228.816	4.63
229.032	3.95
229.249	3.56
229.466	3.45
229.682	3.34
229.899	3.17
230.116	3.06
230.332	3.91
230.549	3.45
230.765	3.77
230.982	4.02
231.199	2.69
231.415	3.48
231.632	3.6
231.848	2.94
232.065	3.35
232.281	3.6
232.498	2.99
232.714	-0.14
232.931	0.31
233.147	0.11
233.364	-0.97
233.58	1.24
233.797	0.37
234.013	1.02
234.23	1.83
234.446	0.86
234.662	0.36
234.879	1.18
235.095	2.43
235.312	1.98
235.528	2.08
235.744	1.38
235.961	1.94
236.177	0.93
236.393	0.92
236.61	0.5
236.826	2.54
237.042	1.98
237.258	0.43
237.475	0.4
237.691	1.67
237.907	2.56
238.123	4.92
238.339	2.56
238.556	3.95
238.772	3.8
238.988	3.11
239.204	3.16
239.42	3.22
239.636	3.82
239.853	3.65
240.069	2.28
240.285	1.18
240.501	0.73
240.717	1.4
240.933	0.94
241.149	1.03
241.365	1.68
241.581	1.01
241.797	1.81
242.013	2.22
242.229	2.15
242.445	2.3
242.661	2.64
242.877	2.52
243.093	2.4
243.309	2.6
243.525	2.12
243.741	2.43
243.957	2.07
244.173	1.71
244.388	1.15
244.604	2.26
244.82	2.56
245.036	1.88
245.252	2.44
245.468	2.79
245.683	2.89
245.899	3.13
246.115	3.01
246.331	3.34
246.547	3.44
246.762	3.55
246.978	3.08
247.194	2.97
247.409	3.39
247.625	3.24
247.841	3.12
248.057	3.06
248.272	3.03
248.488	2.94
248.703	2.81
248.919	2.83
249.135	2.57
249.35	2.94
249.566	3.02
249.782	2.76
249.997	2.71
250.213	3.58
250.428	3.8
250.644	3.59
250.859	3.23
251.075	3.87
251.29	3.9
251.506	4.03
251.721	3.73
251.937	3.81
252.152	3.47
252.368	3.45
252.583	3.04
252.798	3.1
253.014	3.64
253.229	4.07
253.445	3.98
253.66	3.2
253.875	4.07
254.091	3.1
254.306	3.1
254.521	2.31
254.737	1.69
254.952	1.09
255.167	1.69
255.383	1.27
255.598	0.75
255.813	-0.39
256.028	0.14
256.244	-0.73
256.459	0.91
256.674	0.19
256.889	1.62
257.104	2
257.32	1.49
257.535	0.46
257.75	0.53
257.965	1.04
258.18	1.71
258.395	2.05
258.61	2.14
258.826	1.86
259.041	2.28
259.256	2.21
259.471	2.13
259.686	2.57
259.901	2.56
260.116	2.68
260.331	2.76
260.546	2.75
260.761	2.5
260.976	2.56
261.191	2.9
261.406	2.93
261.621	2.83
261.836	2.99
262.05	2.55
262.265	2.98
262.48	3.02
262.695	2.83
262.91	2.56
263.125	3.09
263.34	2.43
263.555	1.63
263.769	1.56
263.984	1.81
264.199	1.93
264.414	1.66
264.629	1.31
264.843	1.16
265.058	1.11
265.273	1.38
265.488	1.18
265.702	1.53
265.917	1.43
266.132	1.13
266.346	0.77
266.561	0.99
266.776	1.44
266.99	1.25
267.205	1.22
267.42	1.67
267.634	1.06
267.849	0.51
268.063	0.32
268.278	0.58
268.492	0.38
268.707	0.47
268.922	0.18
269.136	-0.31
269.351	-0.31
269.565	0.02
269.78	-0.12
269.994	0.05
270.209	0.4
270.423	0.72
270.637	1.14
270.852	1.42
271.066	1.29
271.281	1.23
271.495	1.79
271.709	2.1
271.924	1.93
272.138	1.79
272.353	2.1
272.567	2.39
272.781	2.58
272.996	2.36
273.21	2.37
273.424	2.27
273.638	2.45
273.853	2.37
274.067	2.2
274.281	2.21
274.495	1.98
274.71	1.91
274.924	1.55
275.138	1.47
275.352	1.34
275.566	1.59
275.781	1.4
275.995	1
276.209	0.87
276.423	1.06
276.637	1.08
276.851	1.2
277.065	1.4
277.279	1.43
277.493	1.49
277.707	1.41
277.921	1.18
278.135	1.61
278.349	1.73
278.563	1.54
278.777	1.19
278.991	1.21
279.205	0.97
279.419	0.99
279.633	1.21
279.847	1.2
280.061	1.16
280.275	1.39
280.489	1.36
280.703	1.18
280.917	1.83
281.131	2.19
281.344	1.9
281.558	2.05
281.772	1.94
281.986	1.75
282.2	1.81
282.414	1.88
282.627	1.61
282.841	1.71
283.055	2.22
283.269	1.92
283.482	1.87
283.696	2.32
283.91	2.49
284.123	2.43
284.337	2.52
284.551	2.25
284.764	2.32
284.978	2.55
285.192	2.47
285.405	2.34
285.619	2.22
285.833	2.03
286.046	1.79
286.26	1.72
286.473	1.78
286.687	1.66
286.9	1.75
287.114	1.7
287.327	1.65
287.541	1.53
287.754	1.56
287.968	1.44
288.181	1.5
288.395	1.81
288.608	1.92
288.822	1.58
289.035	1.82
289.248	1.67
289.462	1.74
289.675	1.81
289.889	1.94
290.102	1.93
290.315	2.15
290.529	2.34
290.742	2.15
290.955	2.06
291.169	2.57
291.382	2.56
291.595	2.44
291.808	2.11
292.022	1.9
292.235	1.88
292.448	1.64
292.661	1.51
292.875	1.43
293.088	1.05
293.301	1.05
293.514	0.84
293.727	0.63
293.94	0.94
294.153	1.24
294.367	1.3
294.58	1.63
294.793	1.59
295.006	1.55
295.219	1.49
295.432	1.73
295.645	1.55
295.858	1.51
296.071	1.56
296.284	1.48
296.497	1.67
296.71	1.7
296.923	1.68
297.136	2
297.349	2.14
297.562	2.35
297.775	2.47
297.988	2.66
298.201	2.66
298.414	2.59
298.626	2.91
298.839	2.88
299.052	2.68
299.265	2.49
299.478	2.49
299.691	2.27
299.903	2.12
300.116	1.84
300.329	1.88
300.542	2.09
300.755	2.38
300.967	2.26
301.18	2.24
301.393	2.43
301.605	2.65
301.818	2.29
302.031	2.07
302.243	2.11
302.456	2.35
302.669	2.12
302.881	2.06
303.094	2.2
303.307	2.04
303.519	2.03
303.732	2.18
303.944	2.21
304.157	2.7
304.37	3.35
304.582	3.28
304.795	3.35
305.007	3.81
305.22	3.85
305.432	3.5
305.645	3.67
305.857	3.69
306.069	3.69
306.282	3.76
306.494	3.52
306.707	2.94
306.919	2.77
307.132	2.44
307.344	2.21
307.556	2.28
307.769	2.45
307.981	2.09
308.193	2.06
308.406	1.88
308.618	1.58
308.83	1.61
309.043	2.06
309.255	1.95
309.467	2.13
309.679	2.09
309.892	2.16
310.104	2.35
310.316	2.49
310.528	2.38
310.74	2.62
310.953	2.9
311.165	3.08
311.377	2.84
311.589	3.37
311.801	3.6
312.013	3.82
312.225	3.77
312.437	3.6
312.649	3.94
312.862	3.82
313.074	3.79
313.286	3.51
313.498	3.32
313.71	3.36
313.922	3.18
314.134	2.82
314.346	2.86
314.558	2.52
314.77	2.36
314.982	2.31
315.193	2.78
315.405	2.56
315.617	2.76
315.829	2.78
316.041	3.13
316.253	2.94
316.465	3.05
316.677	2.63
316.888	2.94
317.1	3.09
317.312	3.01
317.524	3.04
317.736	3.37
317.947	3.37
318.159	3.62
318.371	4.16
318.583	4.18
318.794	4.22
319.006	4.59
319.218	4.44
319.43	4.8
319.641	4.95
319.853	5.41
320.064	5.64
320.276	5.84
320.488	6
320.699	5.96
320.911	6.32
321.123	6.71
321.334	6.88
321.546	7.68
321.757	8.05
321.969	8.45
322.18	7.86
322.392	7.62
322.603	7.34
322.815	7.15
323.026	6.85
323.238	7.29
323.449	7.42
323.661	7.37
323.872	7.47
324.083	7.03
324.295	7.09
324.506	7.25
324.718	7.45
324.929	7.93
325.14	8.29
325.352	8.27
325.563	8.44
325.774	8.33
325.986	8.9
326.197	9.08
326.408	9.76
326.62	10.08
326.831	10.94
327.042	11.35
327.253	11.87
327.464	12.31
327.676	12.91
327.887	13.02
328.098	13.83
328.309	14.24
328.52	14.62
328.732	15.04
328.943	15.3
329.154	15.44
329.365	15.97
329.576	16.39
329.787	16.69
329.998	17.19
330.209	17.78
330.42	17.88
330.631	17.81
330.842	18.34
331.053	18.75
331.264	18.81
331.475	19.26
331.686	19.78
331.897	20.2
332.108	20.56
332.319	21.18
332.53	21.38
332.741	21.86
332.952	22.39
333.163	22.33
333.374	22.63
333.585	23.33
333.795	23.67
334.006	23.8
334.217	23.92
334.428	24.25
334.639	24.21
334.849	24.58
335.06	24.76
335.271	24.85
335.482	25.24
335.692	25.42
335.903	25.66
336.114	25.68
336.325	25.95
336.535	26.2
336.746	25.67
336.957	25.48
337.167	25.32
337.378	25.47
337.589	25.68
337.799	25.36
338.01	25.56
338.22	25.59
338.431	25.83
338.642	25.89
338.852	26.03
339.063	26.55
339.273	27.06
339.484	27.45
339.694	27.38
339.905	27.17
340.115	27.89
340.326	27.75
340.536	28.13
340.746	28.1
340.957	28.36
341.167	28.33
341.378	28.61
341.588	28.25
341.799	27.9
342.009	27.86
342.219	27.96
342.43	27.61
342.64	27.6
342.85	27.34
343.061	27.2
343.271	26.68
343.481	26.53
343.691	26.68
343.902	27.05
344.112	27.36
344.322	27.51
344.532	27.57
344.743	27.53
344.953	27.23
345.163	27.13
345.373	27.31
345.583	27.56
345.793	27.75
346.004	27.65
346.214	27.46
346.424	27.3
346.634	27.39
346.844	27.5
347.054	27.65
347.264	27.77
347.474	27.75
347.684	27.78
347.894	27.61
348.104	27.34
348.314	27.16
348.524	27.23
348.734	27.17
348.944	26.78
349.154	26.85
349.364	26.99
349.574	27.33
349.784	27.37
349.994	27.21
350.204	26.9
350.413	26.87
350.623	26.94
350.833	26.36
351.043	26.23
351.253	26.44
351.463	26.22
351.672	25.83
351.882	25.85
352.092	25.67
352.302	25.73
352.511	26.39
352.721	26.21
352.931	26
353.141	26.54
353.35	26.37
353.56	26.32
353.77	26.4
353.979	26.63
354.189	26.61
354.399	26.7
354.608	26.63
354.818	26.03
355.027	26.18
355.237	26.19
355.447	26.2
355.656	26.48
355.866	26.36
356.075	26.42
356.285	26.17
356.494	25.98
356.704	25.9
356.913	25.86
357.123	26.06
357.332	26.09
357.542	25.97
357.751	25.88
357.96	25.93
358.17	26.12
358.379	26.08
358.589	26.26
358.798	26.3
359.007	26.27
359.217	26.17
359.426	26.18
359.635	26.16
359.845	26.4
360.054	26.38
360.263	26.26
360.472	26.2
360.682	25.96
360.891	26.02
361.1	25.78
361.309	25.8
361.519	25.86
361.728	25.85
361.937	25.82
362.146	25.71
362.355	25.65
362.564	25.76
362.774	25.61
362.983	25.62
363.192	25.49
363.401	25.71
363.61	25.69
363.819	25.58
364.028	25.46
364.237	25.59
364.446	25.55
364.655	25.55
364.864	25.25
365.073	25.2
365.282	25.36
365.491	25.37
365.7	25.48
365.909	25.26
366.118	25.23
366.327	25.27
366.536	25.22
366.745	25.07
366.954	25.17
367.162	25.25
367.371	25.28
367.58	25.15
367.789	24.93
367.998	24.72
368.207	24.89
368.415	25.13
368.624	24.99
368.833	24.99
369.042	25.08
369.25	24.98
369.459	24.95
369.668	25.24
369.877	25.27
370.085	25.14
370.294	25.03
370.503	25.09
370.711	24.73
370.92	24.72
371.129	24.57
371.337	24.52
371.546	24.59
371.754	24.89
371.963	24.75
372.171	24.79
372.38	24.98
372.589	25.33
372.797	25.26
373.006	25.52
373.214	25.52
373.423	25.62
373.631	25.58
373.84	25.55
374.048	25.13
374.256	24.91
374.465	24.89
374.673	24.8
374.882	24.58
375.09	24.66
375.298	24.64
375.507	24.78
375.715	24.65
375.923	24.63
376.132	24.53
376.34	24.7
376.548	24.69
376.757	24.6
376.965	24.73
377.173	24.74
377.381	24.74
377.59	24.65
377.798	24.56
378.006	24.59
378.214	24.68
378.423	24.67
378.631	24.46
378.839	24.63
379.047	24.78
379.255	24.74
379.463	24.78
379.671	24.64
379.879	24.62
380.088	24.65
380.296	24.9
380.504	24.77
380.712	24.79
380.92	24.96
381.128	24.79
381.336	24.59
381.544	24.6
381.752	24.63
381.96	24.7
382.168	24.75
382.376	24.83
382.584	24.58
382.791	24.88
382.999	24.74
383.207	24.71
383.415	24.8
383.623	24.95
383.831	25.07
384.039	25.19
384.247	25.13
384.454	24.92
384.662	24.85
384.87	24.93
385.078	24.79
385.285	24.89
385.493	25.06
385.701	24.78
385.909	24.78
386.116	24.67
386.324	24.48
386.532	24.63
386.739	24.72
386.947	24.95
387.155	24.84
387.362	24.92
387.57	24.96
387.778	24.66
387.985	24.9
388.193	24.78
388.4	24.67
388.608	24.56
388.816	24.42
389.023	24.39
389.231	24.22
389.438	24.22
389.646	24.16
389.853	24.04
390.061	24.11
390.268	24.09
390.475	24.08
390.683	24.16
390.89	24.28
391.098	24.36
391.305	24.43
391.512	24.41
391.72	24.48
391.927	24.4
392.135	24.39
392.342	24.56
392.549	24.54
392.756	24.85
392.964	24.68
393.171	24.8
393.378	24.8
393.586	24.95
393.793	24.92
394	24.95
394.207	24.98
394.414	24.99
394.622	24.89
394.829	25.05
395.036	24.74
395.243	24.95
395.45	24.67
395.657	24.77
395.864	24.67
396.072	24.73
396.279	24.62
396.486	24.66
396.693	24.82
396.9	24.97
397.107	24.94
397.314	25.02
397.521	24.94
397.728	25.1
397.935	25.17
398.142	25.2
398.349	25.16
398.556	25.19
398.763	25.17
398.97	25.09
399.177	24.97
399.383	24.85
399.59	24.79
399.797	24.95
400.004	24.93
400.211	24.76
400.418	24.59
400.625	24.7
400.831	24.55
401.038	24.66
401.245	24.51
401.452	24.45
401.658	24.48
401.865	24.65
402.072	24.61
402.279	24.49
402.485	24.53
402.692	24.73
402.899	24.66
403.105	25.08
403.312	25.17
403.519	25.18
403.725	25.17
403.932	25.24
404.138	25.11
404.345	25.03
404.552	25.23
404.758	25.01
404.965	24.99
405.171	25.04
405.378	24.84
405.584	24.63
405.791	24.66
405.997	24.72
406.204	24.84
406.41	24.99
406.617	24.97
406.823	24.82
407.029	25.2
407.236	25.17
407.442	25.3
407.649	25.55
407.855	25.73
408.061	25.88
408.268	25.95
408.474	25.85
408.68	25.83
408.887	25.91
409.093	26.11
409.299	26.01
409.505	26.06
409.712	26.12
409.918	25.98
410.124	25.92
410.33	25.94
410.537	25.91
410.743	25.9
410.949	25.65
411.155	25.65
411.361	25.46
411.567	25.41
411.773	25.38
411.98	25.22
412.186	25.21
412.392	25.17
412.598	25.34
412.804	25.35
413.01	25.44
413.216	25.73
413.422	25.9
413.628	25.9
413.834	25.91
414.04	25.93
414.246	25.94
414.452	25.8
414.658	25.83
414.864	25.51
415.07	25.57
415.275	25.54
415.481	25.63
415.687	25.54
415.893	25.54
416.099	25.59
416.305	25.54
416.511	25.42
416.716	25.4
416.922	25.42
417.128	25.57
417.334	25.62
417.539	25.65
417.745	25.68
417.951	25.71
418.157	25.64
418.362	25.61
418.568	25.64
418.774	25.73
418.979	25.76
419.185	25.79
419.391	25.84
419.596	25.79
419.802	25.76
420.008	25.71
420.213	25.7
420.419	25.76
420.624	25.86
420.83	25.89
421.035	25.83
421.241	25.94
421.446	26.01
421.652	26.02
421.857	26.1
422.063	26.08
422.268	26.06
422.474	26.06
422.679	26.05
422.885	26.03
423.09	26.06
423.295	26.18
423.501	26.19
423.706	26.16
423.911	26.13
424.117	26.12
424.322	26.26
424.527	26.31
424.733	26.26
424.938	26.39
425.143	26.35
425.349	26.4
425.554	26.34
425.759	26.31
425.964	26.25
426.169	26.32
426.375	26.31
426.58	26.23
426.785	26.11
426.99	26.2
427.195	26.13
427.4	26.21
427.605	26.12
427.811	26.19
428.016	26.13
428.221	26.14
428.426	26.13
428.631	26.05
428.836	26.02
429.041	26.18
429.246	26.19
429.451	26.24
429.656	26.12
429.861	26.23
430.066	26.27
430.271	26.42
430.476	26.53
430.681	26.61
430.886	26.62
431.09	26.65
431.295	26.71
431.5	26.75
431.705	26.77
431.91	26.74
432.115	26.64
432.32	26.61
432.524	26.58
432.729	26.48
432.934	26.51
433.139	26.58
433.343	26.56
433.548	26.42
433.753	26.39
433.958	26.36
434.162	26.43
434.367	26.43
434.572	26.5
434.776	26.5
434.981	26.62
435.186	26.53
435.39	26.52
435.595	26.73
435.799	26.81
436.004	26.86
436.209	26.88
436.413	26.86
436.618	26.89
436.822	26.87
437.027	26.8
437.231	26.75
437.436	26.75
437.64	26.79
437.845	26.5
438.049	26.49
438.253	26.54
438.458	26.66
438.662	26.67
438.867	26.66
439.071	26.75
439.275	26.82
439.48	26.79
439.684	26.83
439.888	26.85
440.093	26.92
440.297	26.96
440.501	26.95
440.706	26.81
440.91	26.78
441.114	26.84
441.318	26.78
441.523	26.75
441.727	26.73
441.931	26.77
442.135	26.69
442.339	26.76
442.543	26.8
442.748	26.8
442.952	26.91
443.156	26.95
443.36	26.91
443.564	26.95
443.768	26.99
443.972	26.99
444.176	26.95
444.38	27.02
444.584	26.95
444.788	26.92
444.992	26.99
445.196	26.96
445.4	26.93
445.604	27.05
445.808	27.07
446.012	26.99
446.216	26.99
446.42	26.86
446.624	26.84
446.828	26.85
447.032	26.88
447.235	26.8
447.439	26.83
447.643	26.91
447.847	26.85
448.051	26.79
448.254	26.84
448.458	26.9
448.662	27.11
448.866	27.13
449.069	27.13
449.273	27.05
449.477	27.07
449.681	27.06
449.884	27.04
450.088	26.96
450.292	26.91
450.495	27
450.699	26.99
450.902	26.87
451.106	27.03
451.31	27.17
451.513	27.19
451.717	27.22
451.92	27.23
452.124	27.23
452.327	27.37
452.531	27.48
452.734	27.38
452.938	27.43
453.141	27.44
453.345	27.35
453.548	27.26
453.752	27.32
453.955	27.34
454.158	27.38
454.362	27.44
454.565	27.41
454.769	27.39
454.972	27.44
455.175	27.38
455.379	27.5
455.582	27.54
455.785	27.43
455.988	27.38
456.192	27.32
456.395	27.26
456.598	27.11
456.801	27.18
457.005	27.18
457.208	27.27
457.411	27.27
457.614	27.19
457.817	27.11
458.021	27.22
458.224	27.22
458.427	27.2
458.63	27.26
458.833	27.31
459.036	27.28
459.239	27.29
459.442	27.26
459.645	27.34
459.848	27.37
460.051	27.37
460.254	27.32
460.457	27.36
460.66	27.38
460.863	27.36
461.066	27.32
461.269	27.31
461.472	27.25
461.675	27.25
461.878	27.28
462.081	27.23
462.284	27.26
462.486	27.33
462.689	27.29
462.892	27.34
463.095	27.37
463.298	27.47
463.5	27.38
463.703	27.48
463.906	27.42
464.109	27.24
464.311	27.39
464.514	27.34
464.717	27.4
464.92	27.48
465.122	27.3
465.325	27.29
465.528	27.3
465.73	27.31
465.933	27.28
466.135	27.25
466.338	27.31
466.541	27.12
466.743	27.27
466.946	27.28
467.148	27.24
467.351	27.31
467.553	27.24
467.756	27.25
467.958	27.25
468.161	27.2
468.363	27.29
468.566	27.3
468.768	27.33
468.971	27.17
469.173	27.03
469.375	27.05
469.578	27.12
469.78	27.15
469.983	27.07
470.185	27.16
470.387	27.24
470.59	27.24
470.792	27.27
470.994	27.3
471.196	27.36
471.399	27.47
471.601	27.56
471.803	27.54
472.005	27.58
472.208	27.63
472.41	27.56
472.612	27.59
472.814	27.58
473.016	27.58
473.218	27.63
473.421	27.75
473.623	27.68
473.825	27.62
474.027	27.63
474.229	27.62
474.431	27.72
474.633	27.75
474.835	27.81
475.037	27.76
475.239	27.75
475.441	27.75
475.643	27.65
475.845	27.73
476.047	27.74
476.249	27.78
476.451	27.8
476.653	27.63
476.855	27.62
477.057	27.48
477.258	27.48
477.46	27.52
477.662	27.54
477.864	27.57
478.066	27.52
478.268	27.42
478.469	27.39
478.671	27.38
478.873	27.46
479.075	27.52
479.276	27.56
479.478	27.62
479.68	27.59
479.882	27.62
480.083	27.59
480.285	27.7
480.487	27.73
480.688	27.76
480.89	27.72
481.091	27.69
481.293	27.57
481.495	27.59
481.696	27.57
481.898	27.54
482.099	27.46
482.301	27.42
482.502	27.34
482.704	27.34
482.905	27.32
483.107	27.31
483.308	27.28
483.51	27.31
483.711	27.32
483.913	27.3
484.114	27.32
484.315	27.33
484.517	27.35
484.718	27.33
484.92	27.33
485.121	27.36
485.322	27.36
485.524	27.38
485.725	27.41
485.926	27.38
486.127	27.42
486.329	27.4
486.53	27.42
486.731	27.44
486.932	27.46
487.134	27.49
487.335	27.41
487.536	27.45
487.737	27.5
487.938	27.45
488.139	27.48
488.341	27.49
488.542	27.49
488.743	27.43
488.944	27.42
489.145	27.44
489.346	27.47
489.547	27.57
489.748	27.56
489.949	27.59
490.15	27.61
490.351	27.6
490.552	27.61
490.753	27.65
490.954	27.7
491.155	27.74
491.356	27.78
491.557	27.78
491.758	27.77
491.959	27.79
492.159	27.74
492.36	27.78
492.561	27.8
492.762	27.86
492.963	27.93
493.164	27.92
493.364	27.95
493.565	27.94
493.766	27.98
493.967	28.03
494.167	28.05
494.368	28.04
494.569	28.08
494.769	28.17
494.97	28.18
495.171	28.13
495.371	28.22
495.572	28.2
495.773	28.23
495.973	28.17
496.174	28.22
496.375	28.25
496.575	28.26
496.776	28.28
496.976	28.31
497.177	28.28
497.377	28.22
497.578	28.2
497.778	28.22
497.979	28.27
498.179	28.22
498.38	28.2
498.58	28.26
498.78	28.36
498.981	28.34
499.181	28.31
499.382	28.23
499.582	28.35
499.782	28.39
499.983	28.39
500.183	28.38
500.383	28.49
500.584	28.47
500.784	28.42
500.984	28.47
501.184	28.59
501.385	28.57
501.585	28.68
501.785	28.68
501.985	28.65
502.185	28.57
502.386	28.52
502.586	28.61
502.786	28.66
502.986	28.72
503.186	28.67
503.386	28.61
503.586	28.6
503.786	28.59
503.987	28.55
504.187	28.58
504.387	28.62
504.587	28.76
504.787	28.7
504.987	28.66
505.187	28.54
505.387	28.53
505.587	28.5
505.786	28.47
505.986	28.4
506.186	28.4
506.386	28.37
506.586	28.41
506.786	28.33
506.986	28.31
507.186	28.28
507.386	28.35
507.585	28.34
507.785	28.37
507.985	28.39
508.185	28.46
508.384	28.49
508.584	28.55
508.784	28.54
508.984	28.51
509.183	28.54
509.383	28.59
509.583	28.62
509.782	28.7
509.982	28.73
510.182	28.74
510.381	28.78
510.581	28.77
510.781	28.75
510.98	28.75
511.18	28.81
511.379	28.83
511.579	28.94
511.778	28.9
511.978	28.81
512.177	28.74
512.377	28.75
512.576	28.76
512.776	28.85
512.975	28.87
513.175	28.94
513.374	29.01
513.573	29.08
513.773	29
513.972	29.09
514.172	29.23
514.371	29.3
514.57	29.37
514.77	29.34
514.969	29.37
515.168	29.38
515.367	29.43
515.567	29.38
515.766	29.35
515.965	29.44
516.164	29.49
516.364	29.46
516.563	29.54
516.762	29.46
516.961	29.38
517.16	29.38
517.359	29.39
517.559	29.32
517.758	29.31
517.957	29.31
518.156	29.28
518.355	29.21
518.554	29.25
518.753	29.19
518.952	29.24
519.151	29.37
519.35	29.36
519.549	29.3
519.748	29.39
519.947	29.41
520.146	29.46
520.345	29.46
520.544	29.49
520.743	29.54
520.942	29.62
521.141	29.62
521.339	29.61
521.538	29.63
521.737	29.78
521.936	29.77
522.135	29.81
522.333	29.71
522.532	29.75
522.731	29.81
522.93	29.82
523.129	29.79
523.327	29.84
523.526	29.86
523.725	29.82
523.923	29.81
524.122	29.81
524.321	29.77
524.519	29.86
524.718	29.86
524.917	29.79
525.115	29.75
525.314	29.81
525.512	29.78
525.711	29.79
525.909	29.78
526.108	29.82
526.306	29.79
526.505	29.8
526.703	29.78
526.902	29.8
527.1	29.81
527.299	29.79
527.497	29.72
527.696	29.7
527.894	29.67
528.092	29.7
528.291	29.66
528.489	29.65
528.688	29.64
528.886	29.65
529.084	29.66
529.283	29.64
529.481	29.66
529.679	29.68
529.877	29.72
530.076	29.74
530.274	29.71
530.472	29.73
530.67	29.82
530.869	29.89
531.067	29.93
531.265	29.94
531.463	29.98
531.661	30.01
531.859	30.08
532.057	30.06
532.255	30.05
532.454	30.09
532.652	30.12
532.85	30.09
533.048	30.06
533.246	30.06
533.444	30.07
533.642	30.07
533.84	30.08
534.038	30.07
534.236	30.1
534.434	30.09
534.632	30.09
534.83	30.09
535.027	30.12
535.225	30.2
535.423	30.18
535.621	30.18
535.819	30.25
536.017	30.25
536.215	30.23
536.412	30.29
536.61	30.39
536.808	30.42
537.006	30.47
537.203	30.47
537.401	30.43
537.599	30.48
537.797	30.43
537.994	30.46
538.192	30.53
538.39	30.56
538.587	30.61
538.785	30.57
538.983	30.62
539.18	30.61
539.378	30.62
539.575	30.65
539.773	30.66
539.97	30.63
540.168	30.61
540.366	30.57
540.563	30.65
540.761	30.58
540.958	30.63
541.155	30.63
541.353	30.64
541.55	30.62
541.748	30.61
541.945	30.68
542.143	30.76
542.34	30.76
542.537	30.78
542.735	30.79
542.932	30.83
543.129	30.8
543.327	30.85
543.524	30.94
543.721	31.03
543.919	31.17
544.116	31.13
544.313	31.18
544.51	31.28
544.708	31.31
544.905	31.37
545.102	31.52
545.299	31.63
545.496	31.68
545.693	31.72
545.891	31.74
546.088	31.69
546.285	31.69
546.482	31.76
546.679	31.66
546.876	31.7
547.073	31.67
547.27	31.57
547.467	31.57
547.664	31.47
547.861	31.35
548.058	31.33
548.255	31.31
548.452	31.35
548.649	31.25
548.846	31.36
549.043	31.29
549.24	31.22
549.437	31.2
549.633	31.11
549.83	31.1
550.027	31.17
550.224	31.09
550.421	31.14
550.618	31.07
550.814	31.06
551.011	31.06
551.208	31.02
551.405	31.05
551.601	31.11
551.798	31.17
551.995	31.19
552.191	31.11
552.388	31.15
552.585	31.03
552.781	31.03
552.978	31.07
553.175	31.13
553.371	31.19
553.568	31.22
553.764	31.16
553.961	31.1
554.157	31.09
554.354	31.14
554.55	31.07
554.747	31.18
554.943	31.11
555.14	31.09
555.336	31.06
555.533	31.12
555.729	31.13
555.926	31.07
556.122	31.18
556.318	31.17
556.515	31.22
556.711	31.39
556.907	31.36
557.104	31.38
557.3	31.39
557.496	31.36
557.693	31.26
557.889	31.27
558.085	31.38
558.281	31.33
558.478	31.41
558.674	31.42
558.87	31.33
559.066	31.33
559.262	31.53
559.459	31.62
559.655	31.61
559.851	31.71
560.047	31.76
560.243	31.77
560.439	31.78
560.635	31.84
560.831	31.74
561.027	31.84
561.223	31.9
561.419	31.77
561.615	31.66
561.811	31.71
562.007	31.69
562.203	31.55
562.399	31.45
562.595	31.37
562.791	31.3
562.987	31.37
563.183	31.15
563.379	31.07
563.575	31.04
563.771	31.01
563.966	31.14
564.162	31.24
564.358	31.35
564.554	31.4
564.75	31.48
564.945	31.52
565.141	31.57
565.337	31.73
565.533	31.74
565.728	31.74
565.924	31.69
566.12	31.52
566.315	31.52
566.511	31.57
566.707	31.63
566.902	31.68
567.098	31.63
567.293	31.58
567.489	31.53
567.684	31.6
567.88	31.75
568.076	31.9
568.271	32.06
568.467	32
568.662	31.96
568.858	31.93
569.053	31.85
569.248	31.78
569.444	31.81
569.639	31.83
569.835	31.74
570.03	31.66
570.225	31.63
570.421	31.57
570.616	31.6
570.812	31.6
571.007	31.62
571.202	31.65
571.397	31.8
571.593	31.86
571.788	31.91
571.983	31.95
572.178	31.91
572.374	31.93
572.569	31.9
572.764	31.81
572.959	31.75
573.154	31.76
573.35	31.75
573.545	31.65
573.74	31.63
573.935	31.65
574.13	31.65
574.325	31.72
574.52	31.83
574.715	31.87
574.91	32.02
575.105	32.08
575.3	32.04
575.495	32.06
575.69	32.18
575.885	32.1
576.08	32.06
576.275	32.09
576.47	32.1
576.665	32.12
576.86	32.18
577.055	32.16
577.25	32.18
577.444	32.36
577.639	32.48
577.834	32.51
578.029	32.69
578.224	32.82
578.418	32.87
578.613	33.01
578.808	32.95
579.003	32.96
579.197	32.92
579.392	32.86
579.587	32.87
579.781	32.82
579.976	32.71
580.171	32.65
580.365	32.47
580.56	32.4
580.755	32.28
580.949	32.18
581.144	32.08
581.338	32.19
581.533	32.34
581.727	32.25
581.922	32.32
582.116	32.35
582.311	32.45
582.505	32.61
582.7	32.65
582.894	32.66
583.089	32.84
583.283	33.03
583.478	33.01
583.672	33.08
583.866	33.14
584.061	33.1
584.255	33.08
584.449	33.14
584.644	33.14
584.838	33.13
585.032	33.11
585.226	33.03
585.421	33.12
585.615	33.27
585.809	33.34
586.003	33.23
586.198	33.26
586.392	33.33
586.586	33.21
586.78	33.21
586.974	33.22
587.168	33.39
587.363	33.46
587.557	33.4
587.751	33.21
587.945	33.21
588.139	33.24
588.333	33.28
588.527	33.34
588.721	33.34
588.915	33.31
589.109	33.46
589.303	33.38
589.497	33.34
589.691	33.26
589.885	33.44
590.079	33.44
590.273	33.64
590.466	33.67
590.66	33.74
590.854	33.88
591.048	33.94
591.242	34
591.436	34.14
591.629	34.11
591.823	34.06
592.017	34.08
592.211	33.99
592.404	33.97
592.598	33.93
592.792	33.94
592.986	33.8
593.179	33.8
593.373	33.6
593.567	33.57
593.76	33.57
593.954	33.6
594.147	33.42
594.341	33.4
594.535	33.21
594.728	33.26
594.922	33.16
595.115	33.1
595.309	33.03
595.502	33.12
595.696	33.13
595.889	33.17
596.083	33.32
596.276	33.51
596.47	33.5
596.663	33.63
596.856	33.65
597.05	33.67
597.243	33.75
597.437	33.89
597.63	33.96
597.823	33.99
598.017	34.06
598.21	34.11
598.403	34.1
598.596	34.13
598.79	34.18
598.983	34.17
599.176	34.34
599.369	34.44
599.563	34.32
599.756	34.43
599.949	34.52
600.142	34.53
600.335	34.47
600.528	34.36
600.722	34.43
600.915	34.45
601.108	34.6
601.301	34.65
601.494	34.55
601.687	34.66
601.88	34.68
602.073	34.56
602.266	34.49
602.459	34.49
602.652	34.58
602.845	34.64
603.038	34.49
603.231	34.42
603.424	34.29
603.617	34.3
603.809	34.39
604.002	34.29
604.195	34.36
604.388	34.36
604.581	34.3
604.774	34.32
604.966	34.3
605.159	34.38
605.352	34.45
605.545	34.49
605.737	34.58
605.93	34.67
606.123	34.85
606.316	34.84
606.508	35.08
606.701	35.19
606.894	35.19
607.086	35.32
607.279	35.5
607.471	35.51
607.664	35.69
607.857	35.79
608.049	35.87
608.242	36.03
608.434	36.38
608.627	36.66
608.819	37.02
609.012	37.44
609.204	37.95
609.397	38.45
609.589	39.12
609.782	39.77
609.974	40.57
610.166	41.39
610.359	42.01
610.551	42.64
610.743	43.19
610.936	43.77
611.128	44.24
611.32	44.56
611.513	44.71
611.705	44.86
611.897	44.76
612.09	44.52
612.282	44.05
612.474	43.82
612.666	43.37
612.858	43.09
613.051	42.7
613.243	42.33
613.435	41.76
613.627	41.42
613.819	41.01
614.011	40.76
614.203	40.62
614.395	40.47
614.588	40.13
614.78	39.72
614.972	39.32
615.164	39.02
615.356	38.81
615.548	38.63
615.74	38.53
615.932	38.32
616.124	38.05
616.315	37.72
616.507	37.46
616.699	37.18
616.891	37.16
617.083	36.9
617.275	36.75
617.467	36.72
617.659	36.9
617.85	36.76
618.042	36.54
618.234	36.6
618.426	36.5
618.618	36.58
618.809	36.73
619.001	36.94
619.193	37.21
619.384	37.17
619.576	37.01
619.768	36.72
619.959	36.73
620.151	36.85
620.343	36.83
620.534	36.78
620.726	36.75
620.917	36.7
621.109	36.6
621.301	36.63
621.492	36.93
621.684	37.05
621.875	37.27
622.067	37.29
622.258	37.42
622.45	37.55
622.641	37.95
622.832	37.85
623.024	37.75
623.215	37.71
623.407	37.57
623.598	37.41
623.789	37.47
623.981	37.43
624.172	37.62
624.363	37.67
624.555	37.4
624.746	37.23
624.937	37.22
625.129	37.33
625.32	37.39
625.511	37.44
625.702	37.4
625.893	37.33
626.085	37.25
626.276	37.05
626.467	37
626.658	37.08
626.849	36.91
627.04	36.98
627.231	36.86
627.422	36.77
627.614	36.73
627.805	36.93
627.996	36.96
628.187	37.1
628.378	37.3
628.569	37.37
628.76	37.47
628.951	37.71
629.142	37.85
629.332	38.14
629.523	38.28
629.714	38.5
629.905	38.56
630.096	38.61
630.287	38.63
630.478	38.56
630.669	38.49
630.859	38.54
631.05	38.6
631.241	38.45
631.432	38.24
631.623	38.12
631.813	37.8
632.004	37.47
632.195	37.37
632.385	37.18
632.576	37.02
632.767	36.84
632.957	36.74
633.148	36.54
633.339	36.4
633.529	36.38
633.72	36.4
633.91	36.59
634.101	36.71
634.292	36.69
634.482	36.54
634.673	36.44
634.863	36.63
635.054	36.65
635.244	36.73
635.435	36.8
635.625	36.82
635.815	36.94
636.006	36.73
636.196	36.77
636.387	36.93
636.577	37.04
636.767	37.28
636.958	37.16
637.148	37.1
637.338	37.29
637.529	37.31
637.719	37.44
637.909	37.33
638.099	37.44
638.29	37.34
638.48	37.17
638.67	37.36
638.86	37.08
639.05	37.22
639.241	37.39
639.431	37.16
639.621	37.16
639.811	37.09
640.001	37.26
640.191	37.34
640.381	37.44
640.571	37.4
640.761	37.5
640.951	37.87
641.141	37.6
641.331	37.56
641.521	37.63
641.711	37.83
641.901	37.88
642.091	37.75
642.281	37.69
642.471	37.64
642.661	37.57
642.851	37.57
643.041	37.54
643.231	37.84
643.42	37.95
643.61	37.83
643.8	37.67
643.99	37.79
644.18	38.07
644.369	37.9
644.559	38.02
644.749	38.19
644.939	38.15
645.128	38.16
645.318	38.3
645.508	38.2
645.697	38.32
645.887	38.53
646.076	38.45
646.266	38.33
646.456	38.86
646.645	38.72
646.835	38.66
647.024	38.72
647.214	38.76
647.403	38.63
647.593	38.75
647.782	38.98
647.972	39.01
648.161	39.06
648.351	38.75
648.54	38.27
648.73	38.33
648.919	38.44
649.108	38.44
649.298	38.3
649.487	38.47
649.677	38.41
649.866	38.27
650.055	38.24
650.244	38.52
650.434	38.84
650.623	38.95
650.812	39.21
651.002	39.19
651.191	39.07
651.38	39.27
651.569	39.26
651.758	39.29
651.947	39.48
652.137	39.59
652.326	39.39
652.515	39.55
652.704	39.72
652.893	39.74
653.082	40.02
653.271	40.28
653.46	40.26
653.649	40.06
653.838	39.85
654.027	39.62
654.216	39.35
654.405	39.07
654.594	38.91
654.783	38.86
654.972	38.71
655.161	38.96
655.35	38.67
655.539	38.55
655.728	38.56
655.916	38.83
656.105	39.03
656.294	39.18
656.483	39.55
656.672	39.63
656.86	39.74
657.049	39.79
657.238	39.38
657.427	39.28
657.615	39.27
657.804	39.35
657.993	39.17
658.181	38.95
658.37	38.85
658.559	38.75
658.747	38.87
658.936	38.71
659.125	38.67
659.313	38.7
659.502	38.77
659.69	38.77
659.879	38.86
660.067	38.93
660.256	38.96
660.444	39.19
660.633	39.45
660.821	39.47
661.01	39.68
661.198	39.83
661.387	39.94
661.575	40.15
661.763	40.28
661.952	40.26
662.14	40.12
662.328	40.1
662.517	40.04
662.705	39.76
662.893	39.59
663.082	39.59
663.27	39.6
663.458	39.64
663.646	39.96
663.834	40.06
664.023	40.05
664.211	40.64
664.399	40.92
664.587	41.09
664.775	41.01
664.963	40.9
665.152	40.85
665.34	40.77
665.528	40.79
665.716	40.26
665.904	40.42
666.092	40.37
666.28	40.3
666.468	40.26
666.656	39.98
666.844	40.22
667.032	40.37
667.22	40.52
667.408	40.55
667.596	40.55
667.784	40.73
667.971	40.53
668.159	40.57
668.347	40.62
668.535	40.6
668.723	40.67
668.911	40.66
669.098	40.56
669.286	40.6
669.474	41.02
669.662	40.96
669.849	41.04
670.037	41.07
670.225	41.16
670.413	40.76
670.6	40.95
670.788	40.83
670.976	40.75
671.163	40.79
671.351	40.83
671.538	40.11
671.726	40.11
671.913	40.01
672.101	40.02
672.289	40.09
672.476	40.21
672.664	39.92
672.851	40.05
673.039	40.14
673.226	40.32
673.413	40.31
673.601	40.53
673.788	40.56
673.976	40.63
674.163	40.63
674.35	40.35
674.538	40.6
674.725	40.91
674.912	41.06
675.1	41.24
675.287	41.19
675.474	40.94
675.662	41.24
675.849	41.35
676.036	41.33
676.223	41.39
676.411	41.52
676.598	41.36
676.785	41.14
676.972	41.2
677.159	41.26
677.346	41.45
677.533	41.58
677.721	41.35
677.908	41.41
678.095	41.42
678.282	41.56
678.469	41.67
678.656	41.74
678.843	41.86
679.03	42.09
679.217	41.83
679.404	41.84
679.591	41.95
679.778	42.13
679.964	42.18
680.151	42.51
680.338	42.31
680.525	42.3
680.712	42.39
680.899	42.31
681.086	41.88
681.272	41.96
681.459	41.92
681.646	41.73
681.833	41.88
682.02	41.88
682.206	41.64
682.393	41.74
682.58	41.85
682.766	41.7
682.953	41.78
683.14	42.05
683.326	41.99
683.513	41.97
683.7	42.16
683.886	41.62
684.073	41.71
684.259	41.71
684.446	41.66
684.632	41.58
684.819	41.51
685.005	41.49
685.192	41.55
685.378	41.86
685.565	41.91
685.751	41.97
685.938	42.13
686.124	42.05
686.31	41.92
686.497	42.2
686.683	42.14
686.87	42.18
687.056	42.65
687.242	42.61
687.429	42.47
687.615	42.43
687.801	42.64
687.987	42.49
688.174	42.38
688.36	42.77
688.546	42.71
688.732	42.85
688.918	42.93
689.105	42.61
689.291	42.57
689.477	42.8
689.663	42.77
689.849	42.56
690.035	42.94
690.221	43.02
690.407	42.97
690.593	42.78
690.779	42.71
690.965	42.76
691.151	42.47
691.337	42.23
691.523	42.3
691.709	42.35
691.895	42.46
692.081	42.37
692.267	42.19
692.453	42.08
692.639	42.1
692.825	42.35
693.011	42.51
693.196	42.82
693.382	43.01
693.568	42.84
693.754	42.94
693.94	42.73
694.125	42.92
694.311	43.01
694.497	42.85
694.682	43.11
694.868	42.83
695.054	42.78
695.239	42.77
695.425	43.14
695.611	42.89
695.796	42.63
695.982	42.46
696.168	42.45
696.353	42.19
696.539	42.11
696.724	41.7
696.91	42.05
697.095	42.05
697.281	42.13
697.466	42.02
697.652	42.18
697.837	42.14
698.023	42.26
698.208	42.3
698.393	42.41
698.579	42.8
698.764	42.98
698.949	42.72
699.135	42.69
699.32	42.57
699.505	42.4
699.691	42.48
699.876	42.45
700.061	42.38
700.246	42.37
700.432	42.47
700.617	42.22
700.802	42.11
700.987	42.37
701.172	42.49
701.358	42.59
701.543	42.86
701.728	42.72
701.913	43.12
702.098	43.51
702.283	43.34
702.468	43.51
702.653	43.6
702.838	43.76
703.023	43.99
703.208	43.92
703.393	44.28
703.578	44.39
703.763	44.36
703.948	44.53
704.133	44.31
704.318	44.97
704.503	45.19
704.688	45.34
704.873	45.51
705.057	45.14
705.242	45.22
705.427	45.1
705.612	44.92
705.797	45.36
705.981	45.16
706.166	45.8
706.351	45.78
706.536	46.14
706.72	46.28
706.905	46.63
707.09	47.35
707.274	47.53
707.459	47.7
707.644	48.41
707.828	48.28
708.013	48.52
708.197	48.52
708.382	48.34
708.567	48.32
708.751	48.27
708.936	48.4
709.12	47.82
709.305	47.99
709.489	47.92
709.673	47.65
709.858	47.6
710.042	47.54
710.227	47.12
710.411	47.29
710.596	46.72
710.78	46.8
710.964	46.58
711.149	46.41
711.333	46.2
711.517	45.89
711.702	45.68
711.886	45.49
712.07	45.47
712.254	45.72
712.438	44.93
712.623	44.98
712.807	44.94
712.991	44.61
713.175	45.01
713.359	44.69
713.544	44.19
713.728	44.22
713.912	44.22
714.096	44.26
714.28	43.97
714.464	44.52
714.648	44.46
714.832	43.79
715.016	43.85
715.2	43.61
715.384	43.64
715.568	44.37
715.752	44.11
715.936	44.35
716.12	43.85
716.304	43.61
716.488	43.31
716.671	42.95
716.855	43.74
717.039	43.37
717.223	43.19
717.407	43.06
717.59	43.01
717.774	43.27
717.958	43.05
718.142	43.54
718.325	43.94
718.509	43.75
718.693	44.1
718.877	43.48
719.06	44.21
719.244	44.31
719.428	44.44
719.611	43.97
719.795	43.96
719.978	43.87
720.162	43.8
720.345	43.65
720.529	43.8
720.713	43.69
720.896	44.21
721.08	43.76
721.263	44.12
721.446	44.1
721.63	44.34
721.813	44.33
721.997	44.41
722.18	44.32
722.364	43.98
722.547	44.45
722.73	44.68
722.914	44.2
723.097	44.62
723.28	43.92
723.464	44.07
723.647	44.09
723.83	44.08
724.013	44.2
724.197	43.48
724.38	43.58
724.563	43.37
724.746	43.78
724.929	43.96
725.112	43.92
725.296	43.79
725.479	43.85
725.662	43.97
725.845	43.74
726.028	43.76
726.211	45
726.394	45.47
726.577	45.28
726.76	45.38
726.943	45.32
727.126	45.17
727.309	45.55
727.492	45.64
727.675	45.35
727.858	44.95
728.041	45.1
728.224	44.64
728.407	44.46
728.589	44.67
728.772	44.02
728.955	43.92
729.138	43.71
729.321	43.52
729.503	43.6
729.686	43.9
729.869	44.35
730.052	43.88
730.234	43.83
730.417	43.3
730.6	43.36
730.782	43.59
730.965	43.7
731.148	43.63
731.33	44.13
731.513	43.63
731.695	43.43
731.878	43.55
732.061	43.92
732.243	43.59
732.426	44
732.608	43.69
732.791	43.65
732.973	43.73
733.156	43.77
733.338	43.28
733.52	43.65
733.703	43.93
733.885	43.52
734.068	43.36
734.25	43.65
734.432	43.52
734.615	43.71
734.797	43.62
734.979	43.72
735.162	44.53
735.344	45.03
735.526	44.73
735.708	44.56
735.891	44.71
736.073	44.71
736.255	44.61
736.437	44.53
736.619	44.73
736.802	45.05
736.984	44.83
737.166	44.51
737.348	44.37
737.53	44.67
737.712	44.54
737.894	44.58
738.076	44.89
738.258	45.05
738.44	45.39
738.622	44.56
738.804	44.06
738.986	43.84
739.168	43.87
739.35	43.67
739.532	43.69
739.714	43.7
739.896	43.93
740.078	44.09
740.259	43.86
740.441	43.21
740.623	43.87
740.805	44.32
740.987	44.48
741.168	44.16
741.35	44.5
741.532	44.68
741.714	44.45
741.895	44.47
742.077	44
742.259	44.53
742.44	45.05
742.622	44.86
742.804	44.64
742.985	44.54
743.167	45.27
743.348	45.15
743.53	45.38
743.711	46.1
743.893	45.91
744.075	45.86
744.256	45.76
744.438	46.08
744.619	46.7
744.8	46.97
744.982	47.12
745.163	46.88
745.345	47.35
745.526	46.9
745.707	46.25
745.889	46.59
746.07	46.38
746.252	46.45
746.433	45.92
746.614	46.09
746.795	46.04
746.977	45.94
747.158	45.42
747.339	44.59
747.52	44.97
747.702	45.87
747.883	45.56
748.064	46.15
748.245	45.35
748.426	45.39
748.607	45.02
748.788	45.72
748.97	46.31
749.151	45.85
749.332	45.98
749.513	45.96
749.694	45.36
749.875	45.1
750.056	44.9
750.237	45.57
750.418	45.75
750.599	45.44
750.78	44.97
750.96	44.56
751.141	45.22
751.322	44.94
751.503	44.61
751.684	44.63
751.865	45
752.046	45.03
752.226	44.26
752.407	44.54
752.588	44.85
752.769	44.42
752.949	44.16
753.13	44.15
753.311	44.81
753.492	45.4
753.672	45.06
753.853	45.11
754.034	45.54
754.214	46.07
754.395	45.71
754.575	45.29
754.756	45.51
754.937	45.82
755.117	45.7
755.298	45.72
755.478	45.25
755.659	45.18
755.839	45.03
756.02	44.69
756.2	44.58
756.381	44.52
756.561	44.44
756.741	44.37
756.922	43.86
757.102	43.36
757.283	42.57
757.463	41.92
757.643	42.51
757.823	43.47
758.004	43.54
758.184	43.34
758.364	43.15
758.545	43.16
758.725	43
758.905	43.35
759.085	43.1
759.265	43.38
759.446	44.06
759.626	44.16
759.806	43.37
759.986	42.58
760.166	42.42
760.346	42.13
760.526	42.21
760.706	42.36
760.886	42.03
761.066	42.76
761.246	42.98
761.426	42.48
761.606	41.85
761.786	42.11
761.966	42.41
762.146	43.55
762.326	44.2
762.506	44.27
762.686	44.15
762.866	44.31
763.046	44
763.225	43.9
763.405	44.28
763.585	44.87
763.765	44.75
763.945	44.96
764.124	44.46
764.304	44.46
764.484	44.24
764.664	44.04
764.843	43.87
765.023	44.07
765.203	44.06
765.382	43.64
765.562	42.89
765.741	42.98
765.921	42.54
766.101	42.21
766.28	42.27
766.46	42.15
766.639	42.04
766.819	42.39
766.998	41.8
767.178	41.63
767.357	41.85
767.537	42.2
767.716	41.39
767.896	41.95
768.075	42.44
768.254	41.81
768.434	42.43
768.613	43.51
768.792	43
768.972	43.65
769.151	44.51
769.33	44.75
769.51	45.17
769.689	45.33
769.868	45.14
770.047	45.15
770.226	45.78
770.406	46.2
770.585	45.63
770.764	46.41
770.943	45.91
771.122	45.07
771.301	44.91
771.48	44.44
771.66	44.35
771.839	44.31
772.018	43.97
772.197	44.12
772.376	43.4
772.555	43.1
772.734	42.67
772.913	42.92
773.092	42.69
773.271	42.89
773.449	43.03
773.628	44.07
773.807	43.61
773.986	43.51
774.165	43.36
774.344	43.7
774.523	44.42
774.701	44.63
774.88	44.09
775.059	44.95
775.238	44.4
775.417	44.84
775.595	44.85
775.774	45.2
775.953	45.58
776.131	45.82
776.31	45.36
776.489	45.65
776.667	45.96
776.846	47.64
777.025	47.6
777.203	47.24
777.382	46.73
777.56	46.59
777.739	46.92
777.917	46.82
778.096	46.19
778.274	46.24
778.453	44.88
778.631	43.92
778.81	42.82
778.988	42.39
779.166	43.12
779.345	42.69
779.523	42.6
779.702	42.38
779.88	42.07
780.058	41.76
780.237	42.74
780.415	42.88
780.593	43.59
780.771	43.14
780.95	42.5
781.128	42.9
781.306	43.39
781.484	43.56
781.662	42.5
781.841	41.84
782.019	42.02
782.197	40.07
782.375	41.21
782.553	40.29
782.731	41.55
782.909	42.77
783.087	42.41
783.265	42.35
783.443	42.17
783.621	42.98
783.799	43
783.977	43
784.155	44.06
784.333	43.49
784.511	44.39
784.689	44.08
784.867	42.96
785.045	42.59
785.223	41.5
785.4	41.66
785.578	42.93
785.756	43.43
785.934	43.78
786.112	43.9
786.289	43.23
786.467	42.46
786.645	42.72
786.823	43.02
787	42.23
787.178	43.22
787.356	42.7
787.533	41.85
787.711	41.91
787.889	41.77
788.066	41.45
788.244	41.3
788.421	40.95
788.599	39.98
788.776	40.1
788.954	40.54
789.131	40.4
789.309	40.87
789.486	40.23
789.664	40.53
789.841	40.11
790.019	39.75
790.196	40.43
790.373	41.11
790.551	41.58
790.728	41.66
790.906	42.22
791.083	42.08
791.26	41.6
791.437	41.9
791.615	42.45
791.792	42.35
791.969	42.53
792.146	41.58
792.324	41.84
792.501	42.57
792.678	42.22
792.855	41.75
793.032	41.93
793.209	41.61
793.387	41.85
793.564	41.24
793.741	42.3
793.918	42.32
794.095	43.15
794.272	42.53
794.449	41.71
794.626	41.7
794.803	41.57
794.98	41.91
795.157	42.8
795.334	42.27
795.511	42.02
795.688	41.01
795.864	41.82
796.041	41.71
796.218	41.36
796.395	40.97
796.572	41.15
796.749	41.24
796.925	41.44
797.102	41.21
797.279	41.69
797.456	41.31
797.632	41.42
797.809	40.13
797.986	40.18
798.162	41
798.339	41.28
798.516	40.91
798.692	41.03
798.869	39.21
799.046	38.35
799.222	38.01
799.399	37.9
799.575	37.88
799.752	38.77
799.928	38.18
800.105	37.66
800.281	37.15
800.458	36.93
800.634	37.5
800.811	39.2
800.987	39.75
801.163	39.77
801.34	39.53
801.516	40.27
801.692	39.35
801.869	39.41
802.045	40.12
802.221	40.72
802.398	41.89
802.574	41.14
802.75	41.06
802.926	41.43
803.103	41.92
803.279	42.74
803.455	41.96
803.631	41.72
803.807	41.72
803.983	40.44
804.16	40.83
804.336	39.81
804.512	39.85
804.688	40.19
804.864	39.2
805.04	39.18
805.216	39.03
805.392	39.4
805.568	38.76
805.744	38.03
805.92	38.62
806.096	37.87
806.272	37.06
806.448	37.4
806.623	37.23
806.799	37.3
806.975	36.73
807.151	36.94
807.327	36.72
807.503	38.59
807.678	39.59
807.854	39.35
808.03	38.64
808.206	39.91
808.381	38.31
808.557	36.87
808.733	37.15
808.908	37.4
809.084	36.03
809.26	35.16
809.435	35.45
809.611	34.36
809.787	34.98
809.962	36.11
810.138	36.45
810.313	37.7
810.489	38.81
810.664	39.16
810.84	39.22
811.015	40.54
811.191	41.78
811.366	40.87
811.542	41.6
811.717	42.29
811.892	42.44
812.068	42.96
812.243	42.44
812.419	41.95
812.594	41.17
812.769	39.64
812.944	38.58
813.12	37.06
813.295	37.28
813.47	36.14
813.645	35.11
813.821	33.32
813.996	31.95
814.171	33.18
814.346	33.64
814.521	33.87
814.697	34.88
814.872	35.5
815.047	37.72
815.222	37.81
815.397	37.55
815.572	37.75
815.747	39.22
815.922	39.06
816.097	38.5
816.272	37.61
816.447	36.16
816.622	35.83
816.797	36.13
816.972	33.88
817.147	34.96
817.322	36.1
817.496	36.19
817.671	35.26
817.846	34.96
818.021	34.42
818.196	35.03
818.371	35.64
818.545	36.03
818.72	36.28
818.895	37.33
819.069	36.26
819.244	36.07
819.419	36.26
819.594	35.94
819.768	36.93
819.943	37.6
820.117	36.88
820.292	36.93
820.467	37.22
820.641	37.55
820.816	37.62
820.99	37.7
821.165	38.04
821.339	37.49
821.514	37.84
821.688	37.74
821.863	37.4
822.037	37.48
822.212	37.52
822.386	37.53
822.56	37.3
822.735	37.33
822.909	37.17
823.084	37.08
823.258	37.28
823.432	37.4
823.606	37.22
823.781	37.34
823.955	37.48
824.129	37.55
824.303	37.27
824.478	36.74
824.652	36.63
824.826	36.64
825	36.39
825.174	36.24
825.348	35.67
825.523	35.44
825.697	35.11
825.871	34.97
826.045	34.97
826.219	34.86
826.393	35.38
826.567	35.16
826.741	35.46
826.915	35.66
827.089	35.61
827.263	35.85
827.437	35.77
827.611	35.75
827.784	35.59
827.958	35.39
828.132	35.84
828.306	36.31
828.48	36.29
828.654	36.17
828.827	36.08
829.001	35.91
829.175	35.59
829.349	35.47
829.522	35.06
829.696	34.32
829.87	34.15
830.044	33.71
830.217	32.68
830.391	32.46
830.565	32.54
830.738	32
830.912	32.42
831.085	31.74
831.259	32.33
831.432	32.88
831.606	33.12
831.779	33.71
831.953	33.61
832.126	33.92
832.3	33.16
832.473	32.63
832.647	33.97
832.82	32.87
832.994	33.64
833.167	33.81
833.34	34.29
833.514	35.82
833.687	35.07
833.86	34.79
834.034	34.47
834.207	34.74
834.38	34.47
834.553	33.95
834.727	34.08
834.9	34.68
835.073	34.52
835.246	34.2
835.419	32.78
835.593	33.49
835.766	32.89
835.939	33.29
836.112	32.93
836.285	32.56
836.458	32.13
836.631	33.4
836.804	31.86
836.977	32.26
837.15	31.92
837.323	32.67
837.496	32.02
837.669	34.37
837.842	33.5
838.015	34.46
838.188	36.18
838.361	36.39
838.533	37.14
838.706	37.99
838.879	37.38
839.052	38.74
839.225	39
839.398	37.31
839.57	34.37
839.743	35.19
839.916	36.46
840.088	35.79
840.261	35.98
840.434	34.98
840.607	35.16
840.779	35
840.952	33
841.124	32.32
841.297	34.04
841.47	35.21
841.642	37.36
841.815	36.92
841.987	36.12
842.16	36.13
842.332	34.94
842.505	32.9
842.677	33.96
842.85	34.44
843.022	35.32
843.194	35.21
843.367	33.99
843.539	28.17
843.712	26.86
843.884	28.19
844.056	29.24
844.229	28.23
844.401	32.5
844.573	30.54
844.745	32.17
844.918	31.65
845.09	32.55
845.262	35.01
845.434	39.65
845.606	41.12
845.779	41.69
845.951	38.33
846.123	39.15
846.295	38.73
846.467	37.94
846.639	37.54
846.811	38.17
846.983	37.83
847.155	38.39
847.327	37.8
847.499	34.7
847.671	36.31
847.843	40.48
848.015	42.47
848.187	38.09
848.359	43.6
848.531	42.85
848.703	41.33
848.875	38.22
849.047	36.63
849.218	36.51
849.39	39.18
849.562	37.39
849.734	32.66
849.905	33.16
850.077	32.41
850.249	26.37
850.421	24.05
850.592	25.18
850.764	28.63
850.936	27.55
851.107	26.33
851.279	22.55
851.451	23.54
851.622	28.72
851.794	28.52
851.965	30.35
852.137	33.13
852.308	34.71
852.48	34.11
852.651	29.74
852.823	32.37
852.994	30.85
853.166	34.31
853.337	30.96
853.509	32.82
853.68	31.27
853.851	33.05
854.023	30.57
854.194	33.09
854.365	36.92
854.537	41.29
854.708	40.46
854.879	40.95
855.05	41.15
855.222	40.16
855.393	40.02
855.564	39.8
855.735	39.66
855.906	39.18
856.078	35.68
856.249	30.16
856.42	30.15
856.591	31.57
856.762	32.45
856.933	30.8
857.104	32.56
857.275	31.27
857.446	37.53
857.617	39.74
857.788	45.66
857.959	47.23
858.13	45.17
858.301	42.87
858.472	38.62
858.643	37.98
858.814	34.26
858.985	35.48
859.155	32.58
859.326	27.56
859.497	28.17
859.668	24.63
859.839	26.06
860.009	29.44
860.18	32.59
860.351	36.34
860.522	35.68
860.692	36.74
860.863	35.73
861.034	34.48
861.204	34.05
861.375	31.71
861.546	33.84
861.716	33.94
861.887	31.72
862.057	31.9
862.228	29.49
862.398	28.34
862.569	31
862.739	33.73
862.91	38.53
863.08	34
863.251	31.28
863.421	29.73
863.592	28.01
863.762	30.77
863.932	30.01
864.103	30.97
864.273	31.96
864.443	30.42
864.614	28.65
864.784	21.84
864.954	25.33
865.125	28.22
865.295	29.33
865.465	32.36
865.635	32.78
865.805	33.95
865.976	33.72
866.146	38.14
866.316	39.06
866.486	39.6
866.656	43.85
866.826	45.78
866.996	47.36
867.166	44.89
867.336	45.11
867.506	46.12
867.676	41.78
867.846	43.1
868.016	41.16
868.186	41.98
868.356	36.8
868.526	34.27
868.696	35.37
868.866	39.06
869.036	37.92
869.206	37.27
869.376	32.48
869.545	35.71
869.715	34.67
869.885	31.24
870.055	28.99
870.224	35.26
870.394	36.57
870.564	34.57
870.734	31.16
870.903	31.84
871.073	32.15
871.243	35.71
871.412	34.96
871.582	33.11
871.751	36.59
871.921	37.4
872.091	34.29
872.26	33.28
872.43	35.63
872.599	31.76
872.769	32.2
872.938	28.98
873.108	28.22
873.277	25.44
873.446	28.78
873.616	22.43
873.785	26.18
873.955	24.67
874.124	27.06
874.293	23.08
874.463	26.32
874.632	24.61
874.801	26.94
874.971	24.83
875.14	24.42
875.309	19.26
875.478	21.35
875.647	19.74
875.817	21.71
875.986	19.23
876.155	21.63
876.324	21.48
876.493	23.47
876.662	24.88
876.831	27.59
877	28.82
877.17	30.41
877.339	30.16
877.508	28.58
877.677	27.56
877.846	24.99
878.015	21.41
878.184	18.89
878.352	19.8
878.521	19.61
878.69	20.29
878.859	23.25
879.028	23.13
879.197	23.91
879.366	23.67
879.534	25.27
879.703	25.81
879.872	27.11
880.041	28.15
880.21	29.4
880.378	29.98
880.547	28.51
880.716	28.42
880.884	28.49
881.053	28.79
881.222	28.23
881.39	27.57
881.559	28.95
881.727	28.96
881.896	28.43
882.065	27.77
882.233	27.92
882.402	28.59
882.57	28.45
882.739	28.59
882.907	28.93
883.076	30.02
883.244	30.59
883.412	30.11
883.581	30.2
883.749	30.28
883.918	30.65
884.086	29.4
884.254	29.24
884.423	28.75
884.591	28.3
884.759	27.43
884.927	26.33
885.096	24.89
885.264	25.09
885.432	25.03
885.6	25.38
885.769	23.97
885.937	25.09
886.105	24.75
886.273	24.12
886.441	24.25
886.609	24.99
886.777	23.94
886.945	25.57
887.113	24.46
887.281	20.47
887.449	20.17
887.617	21.18
887.785	19.92
887.953	19.42
888.121	21.65
888.289	19.56
888.457	17.16
888.625	18.9
888.793	20.81
888.961	22.49
889.129	25.26
889.296	25.97
889.464	26.02
889.632	28.44
889.8	28.19
889.967	26.83
890.135	32.74
