Data from 2938785__Reflection_02.txt Node
Date: Fri Mar 13 12:03:04 EDT 2015
User: robert
Spectrometer: USB4E03002
Autoset integration time: false
Trigger mode: 4
Integration Time (sec): 1.000000E-1
Scans to average: 10
Electric dark correction enabled: false
Nonlinearity correction enabled: false
Boxcar width: 5
Stray light correction enabled: false
XAxis mode: Wavelengths
Stop averaging: false
Number of Pixels in Spectrum: 3648
>>>>>Begin Spectral Data<<<<<
177.575	-779.17
177.794	-8935.71
178.014	-1246.09
178.233	-875.27
178.452	-606.82
178.672	-451.99
178.891	-505.84
179.11	-523.01
179.33	-520.77
179.549	-603.43
179.768	-657.83
179.987	-1023.16
180.207	-624.83
180.426	-1033.09
180.645	-1885.26
180.864	-7002.44
181.084	2208.96
181.303	3304.49
181.522	1626.55
181.741	3481.08
181.96	1433.52
182.179	655.96
182.398	561.28
182.618	490.22
182.837	524.07
183.056	386.58
183.275	384.89
183.494	420.89
183.713	372.93
183.932	370.5
184.151	379.92
184.37	413.67
184.589	514.21
184.808	644.11
185.027	592.19
185.246	600.71
185.465	2092.31
185.684	1077.97
185.903	1246.8
186.122	1454.19
186.341	5168.63
186.56	2169.83
186.779	3318.07
186.998	1608.62
187.216	-4006.25
187.435	-1046.72
187.654	-1173.71
187.873	-1737.5
188.092	-4372.46
188.311	23269.23
188.53	-3690.12
188.748	9434.38
188.967	-1560.51
189.186	-1726.74
189.405	-868.98
189.623	-2919.61
189.842	6493.62
190.061	2323.85
190.28	3285.87
190.498	-1762.94
190.717	-1360.09
190.936	-1047.78
191.154	-661.35
191.373	-1864.43
191.592	-1580.23
191.81	-1281.9
192.029	-1070.4
192.248	-1022.09
192.466	-3816.9
192.685	-18335.71
192.904	-935.66
193.122	-4447.27
193.341	1090
193.559	618.22
193.778	729.64
193.996	581.98
194.215	637.26
194.433	648.55
194.652	583.95
194.87	1119.78
195.089	896.49
195.307	481.02
195.526	544.08
195.744	609.8
195.963	526.06
196.181	450.12
196.399	490.26
196.618	417.39
196.836	466.58
197.055	527.58
197.273	556.54
197.491	650
197.71	591.29
197.928	840
198.146	911.58
198.365	8109.38
198.583	-4981.13
198.801	-2054.55
199.019	-2097.66
199.238	-5494
199.456	1922.15
199.674	993.1
199.892	783.73
200.111	1259.23
200.329	1227
200.547	1081.27
200.765	780.2
200.983	699.77
201.202	698.61
201.42	855.13
201.638	864.94
201.856	1431.12
202.074	1772.61
202.292	-4295.16
202.51	17293.75
202.728	9389.66
202.946	-3262.34
203.165	-3290
203.383	5353.85
203.601	2079.26
203.819	5190.91
204.037	1093.88
204.255	1114
204.473	1280.65
204.691	704
204.909	605.51
205.127	605.1
205.345	699.76
205.562	859.68
205.78	1085.43
205.998	1091.06
206.216	666.34
206.434	1044.87
206.652	684.13
206.87	705.78
207.088	669.81
207.306	946.38
207.523	734.75
207.741	571.25
207.959	532.2
208.177	746.75
208.395	775.73
208.612	1055.77
208.83	738.65
209.048	817.98
209.266	1072.18
209.483	950.88
209.701	1041.18
209.919	1726.67
210.136	1301.79
210.354	1070.79
210.572	736.24
210.79	544.83
211.007	537.9
211.225	630.05
211.442	679.75
211.66	484.87
211.878	525.83
212.095	-1284.43
212.313	-3306.38
212.53	-2092.67
212.748	-1484.88
212.966	-2693.16
213.183	-1895.18
213.401	-2925
213.618	6140
213.836	-18558.82
214.053	-10077.42
214.271	12884.62
214.488	317.31
214.705	324.01
214.923	279.58
215.14	287.16
215.358	323.41
215.575	363.03
215.793	340.73
216.01	514.76
216.227	481.05
216.445	523.7
216.662	542.68
216.879	717.09
217.097	611.59
217.314	539.33
217.531	376.99
217.749	305.72
217.966	267.38
218.183	248.06
218.4	226.27
218.618	238.1
218.835	217.27
219.052	210.09
219.269	179.61
219.487	180.56
219.704	195.2
219.921	193.27
220.138	197.17
220.355	197.93
220.572	186.18
220.79	160.62
221.007	159.59
221.224	159.9
221.441	155.05
221.658	155.62
221.875	148.5
222.092	140.75
222.309	134.66
222.526	129.24
222.743	128.7
222.96	124.24
223.177	130.58
223.394	122.74
223.611	114
223.828	116.27
224.045	114.43
224.262	110.86
224.479	106.26
224.696	105.39
224.913	102.62
225.13	88.76
225.347	81.66
225.564	78.99
225.781	74.8
225.997	73.16
226.214	62.87
226.431	57.74
226.648	51.19
226.865	45.98
227.082	39.95
227.298	34.21
227.515	31.2
227.732	27.62
227.949	22.98
228.165	20.36
228.382	18.35
228.599	18.98
228.816	18.66
229.032	17.94
229.249	17.39
229.466	17.25
229.682	17.76
229.899	18.58
230.116	19.06
230.332	19.88
230.549	20.02
230.765	21.23
230.982	21.2
231.199	22.06
231.415	24.63
231.632	26.83
231.848	26.96
232.065	28.53
232.281	30.06
232.498	30.09
232.714	31.45
232.931	32.97
233.147	33.79
233.364	33.64
233.58	33.36
233.797	34.11
234.013	33.77
234.23	34.88
234.446	34.6
234.662	33.09
234.879	33.96
235.095	33.18
235.312	33.3
235.528	32.19
235.744	32.58
235.961	32.15
236.177	30.69
236.393	30.29
236.61	28.69
236.826	26.8
237.042	27.25
237.258	26.96
237.475	27.15
237.691	27.99
237.907	28.48
238.123	28.83
238.339	29.89
238.556	28.66
238.772	28.42
238.988	28.86
239.204	29.48
239.42	28.76
239.636	28.47
239.853	27.54
240.069	24.62
240.285	23.11
240.501	20.88
240.717	19.6
240.933	19
241.149	17.78
241.365	17.35
241.581	16.61
241.797	15.47
242.013	13.87
242.229	13.45
242.445	13.7
242.661	13.54
242.877	13.68
243.093	13.55
243.309	13.19
243.525	13.13
243.741	12.47
243.957	12.24
244.173	12.76
244.388	13.52
244.604	13.55
244.82	14.08
245.036	13.84
245.252	13.05
245.468	12.37
245.683	12.47
245.899	11.35
246.115	11.1
246.331	10.11
246.547	9.78
246.762	9.17
246.978	9.07
247.194	8.24
247.409	7.83
247.625	7.66
247.841	7.2
248.057	7.02
248.272	7.39
248.488	7.38
248.703	7.7
248.919	7.66
249.135	8.33
249.35	8.55
249.566	9.55
249.782	10.07
249.997	10.78
250.213	11.71
250.428	12.28
250.644	12.68
250.859	12.66
251.075	12.45
251.29	13.52
251.506	12.46
251.721	11.94
251.937	11.67
252.152	11.83
252.368	11.98
252.583	11.99
252.798	12.45
253.014	12.71
253.229	13.23
253.445	14.09
253.66	13.49
253.875	15.16
254.091	16.81
254.306	16.82
254.521	18.35
254.737	19.49
254.952	20.17
255.167	19.65
255.383	19.43
255.598	18.96
255.813	18.61
256.028	18.43
256.244	17.15
256.459	16.36
256.674	16.27
256.889	14.91
257.104	13.64
257.32	13.09
257.535	12.19
257.75	11.1
257.965	11.22
258.18	10.87
258.395	9.95
258.61	9.45
258.826	8.48
259.041	8.28
259.256	7.78
259.471	7.46
259.686	7.18
259.901	6.91
260.116	6.73
260.331	6.23
260.546	6.13
260.761	6.27
260.976	6.2
261.191	6.19
261.406	5.85
261.621	6.18
261.836	6.28
262.05	6.56
262.265	7.13
262.48	7.89
262.695	8.68
262.91	9.24
263.125	9.7
263.34	10.09
263.555	11.11
263.769	11.96
263.984	12.12
264.199	12.53
264.414	12.44
264.629	11.7
264.843	11.89
265.058	11.3
265.273	11.13
265.488	10.3
265.702	10.2
265.917	9.86
266.132	9.67
266.346	9.21
266.561	8.89
266.776	9.12
266.99	9.28
267.205	8.62
267.42	9.03
267.634	8.22
267.849	8.49
268.063	8.57
268.278	8.2
268.492	7.94
268.707	8.04
268.922	8.09
269.136	8.28
269.351	8.1
269.565	8.76
269.78	8.04
269.994	8.36
270.209	8.19
270.423	8.21
270.637	7.89
270.852	7.8
271.066	7.68
271.281	7.78
271.495	7.19
271.709	7.38
271.924	7.13
272.138	7.41
272.353	7.41
272.567	7.5
272.781	7.66
272.996	7.87
273.21	8.2
273.424	8.13
273.638	7.9
273.853	8.01
274.067	8.26
274.281	8.7
274.495	9.18
274.71	9.62
274.924	9.98
275.138	9.54
275.352	9.52
275.566	9.6
275.781	9.92
275.995	10.46
276.209	10.98
276.423	10.64
276.637	10.38
276.851	10.38
277.065	10.2
277.279	10.41
277.493	10.5
277.707	10.9
277.921	10.65
278.135	10.52
278.349	9.89
278.563	9.67
278.777	9.57
278.991	9.4
279.205	9.05
279.419	8.91
279.633	8.28
279.847	8.61
280.061	8.75
280.275	8.05
280.489	8.19
280.703	8.43
280.917	8.06
281.131	8.41
281.344	8.09
281.558	7.61
281.772	7.78
281.986	7.89
282.2	7.49
282.414	7.25
282.627	7.71
282.841	7.61
283.055	7.87
283.269	7.94
283.482	7.39
283.696	7.38
283.91	7.64
284.123	7.15
284.337	6.6
284.551	6.59
284.764	6.48
284.978	6.09
285.192	6.06
285.405	5.87
285.619	5.76
285.833	5.76
286.046	5.75
286.26	5.66
286.473	6.01
286.687	6.15
286.9	6.34
287.114	6.11
287.327	6.56
287.541	6.63
287.754	6.68
287.968	6.88
288.181	7.04
288.395	7.21
288.608	7.37
288.822	7.1
289.035	6.96
289.248	6.6
289.462	6.85
289.675	6.59
289.889	6.55
290.102	6.07
290.315	5.9
290.529	6.11
290.742	6.04
290.955	6.1
291.169	6.4
291.382	6.98
291.595	7.18
291.808	7.38
292.022	7.7
292.235	7.9
292.448	8.36
292.661	8.46
292.875	8.45
293.088	8.32
293.301	8.05
293.514	7.73
293.727	7.35
293.94	7.53
294.153	7.3
294.367	7.05
294.58	6.59
294.793	6.6
295.006	6.38
295.219	6.06
295.432	6.25
295.645	6.14
295.858	5.86
296.071	5.69
296.284	5.41
296.497	5.28
296.71	5.18
296.923	5.29
297.136	5.5
297.349	5.47
297.562	5.59
297.775	5.35
297.988	5.42
298.201	5.7
298.414	5.8
298.626	5.83
298.839	5.68
299.052	5.74
299.265	6.06
299.478	5.85
299.691	6.45
299.903	6.89
300.116	7.29
300.329	7.61
300.542	7.52
300.755	7.49
300.967	8.03
301.18	8.27
301.393	8.62
301.605	8.45
301.818	8.2
302.031	7.9
302.243	7.52
302.456	7.59
302.669	7.68
302.881	7.71
303.094	8.07
303.307	7.61
303.519	7.76
303.732	7.69
303.944	7.55
304.157	7.74
304.37	7.52
304.582	7.6
304.795	7.53
305.007	7.44
305.22	7.81
305.432	7.88
305.645	8.17
305.857	8.31
306.069	8.58
306.282	8.61
306.494	8.89
306.707	9.42
306.919	9.18
307.132	9.24
307.344	9.01
307.556	8.63
307.769	8.53
307.981	8.16
308.193	8.03
308.406	7.39
308.618	7.24
308.83	6.95
309.043	6.47
309.255	6.2
309.467	6.28
309.679	6.18
309.892	6.51
310.104	6.2
310.316	6.3
310.528	6.03
310.74	6.41
310.953	6.28
311.165	6.29
311.377	6.54
311.589	7.17
311.801	6.98
312.013	6.98
312.225	6.51
312.437	6.64
312.649	6.86
312.862	7.18
313.074	7.07
313.286	7.49
313.498	7.77
313.71	7.83
313.922	7.58
314.134	7.87
314.346	8.14
314.558	8.42
314.77	8.85
314.982	9.09
315.193	9.21
315.405	9.6
315.617	9.59
315.829	9.71
316.041	10.38
316.253	10.32
316.465	10.09
316.677	9.93
316.888	9.87
317.1	10.26
317.312	9.85
317.524	9.95
317.736	10.07
317.947	10.59
318.159	10.28
318.371	9.81
318.583	10.04
318.794	10.57
319.006	10.84
319.218	11.24
319.43	10.62
319.641	11.06
319.853	11.16
320.064	10.94
320.276	10.32
320.488	10.93
320.699	10.57
320.911	11.01
321.123	10.58
321.334	10.39
321.546	10.53
321.757	10.88
321.969	10.9
322.18	10.88
322.392	10.57
322.603	11.03
322.815	10.79
323.026	11.07
323.238	11.04
323.449	10.99
323.661	11.34
323.872	11.31
324.083	11.3
324.295	10.9
324.506	10.52
324.718	10.5
324.929	10.4
325.14	10.35
325.352	10.28
325.563	10.37
325.774	10.64
325.986	10.61
326.197	10.75
326.408	10.86
326.62	11.02
326.831	11.33
327.042	11.91
327.253	12.17
327.464	12.38
327.676	12.26
327.887	12.2
328.098	12.31
328.309	12.26
328.52	12.29
328.732	12.34
328.943	12.48
329.154	13.02
329.365	12.76
329.576	13.01
329.787	13.34
329.998	14.27
330.209	14.2
330.42	13.98
330.631	14.34
330.842	14.4
331.053	14.64
331.264	14.56
331.475	14.34
331.686	14.59
331.897	14.45
332.108	13.98
332.319	13.76
332.53	13.59
332.741	13.69
332.952	13.69
333.163	13.38
333.374	13.33
333.585	13.73
333.795	13.98
334.006	13.89
334.217	13.71
334.428	13.83
334.639	13.79
334.849	13.74
335.06	14.02
335.271	14.07
335.482	14.49
335.692	14.35
335.903	14.2
336.114	13.57
336.325	13.59
336.535	13.59
336.746	13.48
336.957	13.38
337.167	13.67
337.378	13.56
337.589	13.51
337.799	13.08
338.01	13.16
338.22	12.96
338.431	13.09
338.642	13.23
338.852	13.12
339.063	13.22
339.273	13.13
339.484	12.72
339.694	12.71
339.905	12.47
340.115	12.72
340.326	12.67
340.536	12.93
340.746	13.1
340.957	13.01
341.167	13.22
341.378	13.38
341.588	13.3
341.799	13.58
342.009	13.37
342.219	13.5
342.43	13.37
342.64	13.46
342.85	13.41
343.061	13.08
343.271	13.12
343.481	12.94
343.691	12.6
343.902	12.83
344.112	12.64
344.322	12.7
344.532	12.81
344.743	12.67
344.953	12.22
345.163	11.81
345.373	11.85
345.583	11.68
345.793	11.86
346.004	11.93
346.214	11.64
346.424	11.96
346.634	12.32
346.844	12.39
347.054	12.78
347.264	13.01
347.474	13.3
347.684	13.76
347.894	13.65
348.104	13.52
348.314	13.55
348.524	13.4
348.734	13.43
348.944	13.32
349.154	12.94
349.364	12.69
349.574	12.62
349.784	12.9
349.994	12.71
350.204	12.81
350.413	12.44
350.623	12.55
350.833	12.61
351.043	12.22
351.253	11.95
351.463	11.95
351.672	12.05
351.882	12.23
352.092	11.58
352.302	11.34
352.511	11.45
352.721	11.94
352.931	11.74
353.141	11.94
353.35	11.98
353.56	11.82
353.77	11.81
353.979	11.56
354.189	11.57
354.399	11.72
354.608	11.81
354.818	11.6
355.027	11.38
355.237	11.41
355.447	11.51
355.656	11.49
355.866	11.46
356.075	11.59
356.285	11.72
356.494	11.56
356.704	11.46
356.913	11.37
357.123	11.31
357.332	11.18
357.542	11.01
357.751	10.62
357.96	10.74
358.17	10.7
358.379	10.4
358.589	10.32
358.798	10.33
359.007	10.42
359.217	10.42
359.426	10.27
359.635	10.36
359.845	10.4
360.054	10.39
360.263	10.08
360.472	10.17
360.682	10.2
360.891	10.14
361.1	9.85
361.309	9.86
361.519	9.91
361.728	9.85
361.937	9.77
362.146	9.84
362.355	9.88
362.564	10.13
362.774	10.13
362.983	10.08
363.192	10.26
363.401	10.46
363.61	10.33
363.819	10.47
364.028	10.71
364.237	10.71
364.446	10.46
364.655	10.57
364.864	10.37
365.073	10.34
365.282	10.32
365.491	10.11
365.7	10.04
365.909	10.03
366.118	9.8
366.327	9.78
366.536	9.83
366.745	10.07
366.954	10.1
367.162	10.09
367.371	9.82
367.58	10.23
367.789	10.17
367.998	10.17
368.207	10.41
368.415	10.35
368.624	10.6
368.833	10.6
369.042	10.58
369.25	10.49
369.459	10.85
369.668	11.09
369.877	10.77
370.085	10.64
370.294	10.71
370.503	10.55
370.711	10.51
370.92	10.08
371.129	10.05
371.337	9.92
371.546	9.94
371.754	9.71
371.963	9.54
372.171	9.46
372.38	9.83
372.589	9.67
372.797	9.59
373.006	9.87
373.214	9.88
373.423	9.79
373.631	9.87
373.84	9.86
374.048	9.92
374.256	9.98
374.465	10.08
374.673	9.79
374.882	9.86
375.09	9.96
375.298	9.8
375.507	9.86
375.715	9.84
375.923	9.84
376.132	9.49
376.34	9.3
376.548	9.28
376.757	9.24
376.965	9.38
377.173	9.36
377.381	9.31
377.59	9.47
377.798	9.36
378.006	9.33
378.214	9.04
378.423	9.43
378.631	9.39
378.839	9.41
379.047	9.38
379.255	9.32
379.463	9.46
379.671	9.54
379.879	9.17
380.088	9.18
380.296	9.09
380.504	9.31
380.712	9.12
380.92	9.19
381.128	9.22
381.336	9.09
381.544	8.86
381.752	8.7
381.96	8.43
382.168	8.47
382.376	8.64
382.584	8.76
382.791	9.01
382.999	8.91
383.207	9.02
383.415	9.2
383.623	9.25
383.831	9.38
384.039	9.21
384.247	9.4
384.454	9.47
384.662	9.52
384.87	9.46
385.078	9.3
385.285	9.32
385.493	9.2
385.701	8.87
385.909	8.67
386.116	8.71
386.324	8.79
386.532	8.74
386.739	8.61
386.947	8.48
387.155	8.71
387.362	8.51
387.57	8.45
387.778	8.49
387.985	8.64
388.193	8.71
388.4	8.65
388.608	8.83
388.816	8.72
389.023	8.95
389.231	8.87
389.438	8.61
389.646	8.85
389.853	8.81
390.061	8.62
390.268	8.68
390.475	8.6
390.683	8.57
390.89	8.32
391.098	8.48
391.305	8.26
391.512	8.27
391.72	8.11
391.927	7.96
392.135	8.06
392.342	8.09
392.549	7.96
392.756	8
392.964	7.98
393.171	8.22
393.378	8.05
393.586	7.95
393.793	7.87
394	7.94
394.207	7.96
394.414	7.91
394.622	7.87
394.829	8
395.036	8.15
395.243	8.19
395.45	7.95
395.657	8.09
395.864	8.21
396.072	8.29
396.279	8.45
396.486	8.36
396.693	8.31
396.9	8.36
397.107	8.27
397.314	8.42
397.521	8.31
397.728	8.47
397.935	8.42
398.142	8.48
398.349	8.65
398.556	8.6
398.763	8.61
398.97	8.56
399.177	8.45
399.383	8.32
399.59	8.31
399.797	8.43
400.004	8.41
400.211	8.49
400.418	8.52
400.625	8.43
400.831	8.42
401.038	8.71
401.245	8.64
401.452	8.81
401.658	8.96
401.865	9.02
402.072	8.86
402.279	8.77
402.485	8.59
402.692	8.42
402.899	8.31
403.105	8.26
403.312	7.97
403.519	7.96
403.725	7.93
403.932	7.69
404.138	7.44
404.345	7.5
404.552	7.53
404.758	7.54
404.965	7.46
405.171	7.46
405.378	7.35
405.584	7.42
405.791	7.56
405.997	7.66
406.204	7.85
406.41	7.88
406.617	8.08
406.823	8.1
407.029	8.11
407.236	8.51
407.442	8.5
407.649	8.8
407.855	8.92
408.061	8.96
408.268	8.97
408.474	8.92
408.68	8.93
408.887	8.83
409.093	8.84
409.299	9
409.505	8.88
409.712	8.91
409.918	8.81
410.124	8.75
410.33	8.71
410.537	8.54
410.743	8.6
410.949	8.69
411.155	8.59
411.361	8.53
411.567	8.44
411.773	8.24
411.98	8.34
412.186	8.31
412.392	8.49
412.598	8.52
412.804	8.55
413.01	8.57
413.216	8.55
413.422	8.52
413.628	8.59
413.834	8.66
414.04	8.78
414.246	8.76
414.452	8.66
414.658	8.38
414.864	8.36
415.07	8.47
415.275	8.42
415.481	8.38
415.687	8.37
415.893	8.28
416.099	8.16
416.305	8.1
416.511	7.94
416.716	7.92
416.922	7.9
417.128	7.85
417.334	7.71
417.539	7.72
417.745	7.62
417.951	7.58
418.157	7.57
418.362	7.53
418.568	7.39
418.774	7.37
418.979	7.4
419.185	7.32
419.391	7.29
419.596	7.22
419.802	7.1
420.008	7.1
420.213	7.77
420.419	7.76
420.624	7.78
420.83	7.87
421.035	7.83
421.241	7.76
421.446	7.78
421.652	7.73
421.857	7.71
422.063	7.75
422.268	7.71
422.474	7.06
422.679	7.06
422.885	7.02
423.09	7
423.295	7
423.501	7.02
423.706	7.1
423.911	7.1
424.117	7.15
424.322	7.15
424.527	7.18
424.733	7.12
424.938	7.16
425.143	7.08
425.349	7.07
425.554	7.13
425.759	7.14
425.964	7.09
426.169	7.19
426.375	7.22
426.58	7.27
426.785	7.29
426.99	7.45
427.195	7.45
427.4	7.64
427.605	7.67
427.811	7.81
428.016	7.88
428.221	8.06
428.426	8.03
428.631	8.06
428.836	8.08
429.041	8.23
429.246	8.23
429.451	8.28
429.656	8.3
429.861	8.41
430.066	8.28
430.271	8.35
430.476	8.33
430.681	8.46
430.886	8.43
431.09	8.45
431.295	8.38
431.5	8.46
431.705	8.44
431.91	8.42
432.115	8.39
432.32	8.52
432.524	8.44
432.729	8.42
432.934	8.32
433.139	8.3
433.343	8.3
433.548	8.25
433.753	8.3
433.958	8.33
434.162	8.41
434.367	8.47
434.572	8.45
434.776	8.51
434.981	8.5
435.186	8.57
435.39	8.79
435.595	8.75
435.799	8.77
436.004	8.7
436.209	8.73
436.413	8.64
436.618	8.66
436.822	8.62
437.027	8.58
437.231	8.5
437.436	8.5
437.64	8.39
437.845	8.47
438.049	8.59
438.253	8.55
438.458	8.5
438.662	8.44
438.867	8.31
439.071	8.27
439.275	8.3
439.48	8.34
439.684	8.24
439.888	8.18
440.093	8.13
440.297	8.07
440.501	8.07
440.706	8.05
440.91	8.07
441.114	8.11
441.318	8.2
441.523	8.19
441.727	8.18
441.931	8.29
442.135	8.42
442.339	8.44
442.543	8.54
442.748	8.52
442.952	8.57
443.156	8.62
443.36	8.61
443.564	8.56
443.768	8.58
443.972	8.52
444.176	8.49
444.38	8.4
444.584	8.41
444.788	8.29
444.992	8.34
445.196	8.3
445.4	8.2
445.604	8.27
445.808	8.32
446.012	8.29
446.216	8.26
446.42	8.22
446.624	8.19
446.828	8.09
447.032	8.03
447.235	8.04
447.439	8.01
447.643	8.11
447.847	8.05
448.051	8.1
448.254	8.07
448.458	8.21
448.662	8.26
448.866	8.24
449.069	8.39
449.273	8.53
449.477	8.47
449.681	8.59
449.884	8.63
450.088	8.76
450.292	8.69
450.495	8.7
450.699	8.57
450.902	8.53
451.106	8.66
451.31	8.63
451.513	8.65
451.717	8.66
451.92	8.57
452.124	8.52
452.327	8.4
452.531	8.39
452.734	8.41
452.938	8.52
453.141	8.63
453.345	8.68
453.548	8.74
453.752	8.7
453.955	8.92
454.158	8.94
454.362	8.92
454.565	9.01
454.769	9.1
454.972	9.14
455.175	9.06
455.379	9.05
455.582	9.06
455.785	9.06
455.988	9.06
456.192	8.91
456.395	8.94
456.598	9.03
456.801	9.06
457.005	8.9
457.208	8.97
457.411	9.02
457.614	8.88
457.817	8.73
458.021	8.58
458.224	8.57
458.427	8.36
458.63	8.35
458.833	8.25
459.036	8.14
459.239	8.09
459.442	7.99
459.645	8
459.848	8.04
460.051	8.11
460.254	8.18
460.457	8.15
460.66	8.32
460.863	8.27
461.066	8.28
461.269	8.29
461.472	8.49
461.675	8.51
461.878	8.55
462.081	8.64
462.284	8.67
462.486	8.69
462.689	8.76
462.892	8.81
463.095	8.86
463.298	8.99
463.5	9.11
463.703	8.99
463.906	9.05
464.109	8.93
464.311	8.86
464.514	8.78
464.717	8.79
464.92	8.91
465.122	8.92
465.325	9.02
465.528	9.02
465.73	9.05
465.933	9.08
466.135	9.11
466.338	9.15
466.541	9.16
466.743	9.13
466.946	9.14
467.148	9.04
467.351	8.98
467.553	8.98
467.756	8.92
467.958	8.71
468.161	8.83
468.363	8.79
468.566	8.75
468.768	8.83
468.971	8.89
469.173	8.89
469.375	8.84
469.578	8.85
469.78	8.81
469.983	8.83
470.185	8.97
470.387	8.92
470.59	9
470.792	9.05
470.994	9
471.196	9
471.399	9.02
471.601	9.02
471.803	9
472.005	8.96
472.208	8.96
472.41	8.98
472.612	8.98
472.814	8.99
473.016	9.1
473.218	9.17
473.421	9.16
473.623	9.14
473.825	9.21
474.027	9.24
474.229	9.24
474.431	9.27
474.633	9.23
474.835	9.22
475.037	9.25
475.239	9.07
475.441	8.98
475.643	8.99
475.845	8.9
476.047	8.82
476.249	8.72
476.451	8.77
476.653	8.74
476.855	8.78
477.057	8.65
477.258	8.57
477.46	8.6
477.662	8.61
477.864	8.68
478.066	8.77
478.268	8.78
478.469	8.86
478.671	8.85
478.873	8.87
479.075	8.83
479.276	8.87
479.478	8.92
479.68	8.89
479.882	8.88
480.083	8.8
480.285	8.77
480.487	8.77
480.688	8.71
480.89	8.66
481.091	8.58
481.293	8.46
481.495	8.38
481.696	8.34
481.898	8.29
482.099	8.2
482.301	8.11
482.502	8.06
482.704	7.99
482.905	7.94
483.107	7.87
483.308	7.87
483.51	7.85
483.711	7.85
483.913	7.77
484.114	7.77
484.315	7.77
484.517	7.78
484.718	7.74
484.92	7.74
485.121	7.74
485.322	7.8
485.524	7.77
485.725	7.8
485.926	7.81
486.127	7.83
486.329	7.83
486.53	7.81
486.731	7.8
486.932	7.77
487.134	7.8
487.335	7.82
487.536	7.75
487.737	7.77
487.938	7.77
488.139	7.76
488.341	7.83
488.542	7.85
488.743	7.88
488.944	7.92
489.145	7.99
489.346	8
489.547	8.02
489.748	8.06
489.949	8.15
490.15	8.15
490.351	8.15
490.552	8.09
490.753	8.07
490.954	8.06
491.155	8.08
491.356	8.1
491.557	8.12
491.758	8.16
491.959	8.15
492.159	8.14
492.36	8.15
492.561	8.21
492.762	8.25
492.963	8.34
493.164	8.39
493.364	8.34
493.565	8.34
493.766	8.31
493.967	8.27
494.167	8.39
494.368	8.41
494.569	8.5
494.769	8.55
494.97	8.65
495.171	8.75
495.371	8.83
495.572	8.95
495.773	8.97
495.973	9.09
496.174	9.12
496.375	9.13
496.575	9.1
496.776	9.22
496.976	9.14
497.177	9.1
497.377	8.99
497.578	9.01
497.778	9
497.979	9.02
498.179	8.99
498.38	9.06
498.58	9.1
498.78	9.19
498.981	9.13
499.181	9.23
499.382	9.35
499.582	9.42
499.782	9.44
499.983	9.53
500.183	9.63
500.383	9.7
500.584	9.76
500.784	9.73
500.984	9.71
501.184	9.64
501.385	9.59
501.585	9.55
501.785	9.55
501.985	9.49
502.185	9.51
502.386	9.5
502.586	9.54
502.786	9.6
502.986	9.66
503.186	9.64
503.386	9.68
503.586	9.8
503.786	9.79
503.987	9.82
504.187	9.85
504.387	9.86
504.587	9.87
504.787	9.87
504.987	9.85
505.187	9.87
505.387	9.95
505.587	10.03
505.786	9.95
505.986	9.97
506.186	10.03
506.386	10.15
506.586	10.27
506.786	10.29
506.986	10.34
507.186	10.3
507.386	10.22
507.585	10.3
507.785	10.26
507.985	10.32
508.185	10.31
508.384	10.28
508.584	10.23
508.784	10.03
508.984	10.1
509.183	10.14
509.383	10.14
509.583	10.29
509.782	10.23
509.982	10.3
510.182	10.3
510.381	10.33
510.581	10.37
510.781	10.41
510.98	10.56
511.18	10.49
511.379	10.44
511.579	10.53
511.778	10.51
511.978	10.62
512.177	10.68
512.377	10.75
512.576	10.79
512.776	10.73
512.975	10.87
513.175	11.05
513.374	11.2
513.573	11.36
513.773	11.43
513.972	11.55
514.172	11.61
514.371	11.66
514.57	11.73
514.77	11.82
514.969	11.97
515.168	11.94
515.367	11.86
515.567	11.9
515.766	11.81
515.965	11.79
516.164	11.69
516.364	11.69
516.563	11.58
516.762	11.55
516.961	11.55
517.16	11.59
517.359	11.63
517.559	11.67
517.758	11.71
517.957	11.71
518.156	11.77
518.355	11.84
518.554	11.74
518.753	11.81
518.952	11.87
519.151	11.89
519.35	11.91
519.549	11.95
519.748	11.97
519.947	11.96
520.146	12.1
520.345	12.14
520.544	12.23
520.743	12.36
520.942	12.49
521.141	12.53
521.339	12.64
521.538	12.65
521.737	12.71
521.936	12.78
522.135	12.9
522.333	12.95
522.532	13.05
522.731	13.1
522.93	13.09
523.129	13.1
523.327	13.14
523.526	13.14
523.725	13.18
523.923	13.11
524.122	13.13
524.321	13.2
524.519	13.17
524.718	13.13
524.917	13.14
525.115	13.25
525.314	13.28
525.512	13.36
525.711	13.38
525.909	13.46
526.108	13.48
526.306	13.38
526.505	13.31
526.703	13.32
526.902	13.3
527.1	13.22
527.299	13.22
527.497	13.23
527.696	13.19
527.894	13.2
528.092	13.18
528.291	13.19
528.489	13.25
528.688	13.27
528.886	13.29
529.084	13.32
529.283	13.41
529.481	13.45
529.679	13.51
529.877	13.6
530.076	13.65
530.274	13.73
530.472	13.84
530.67	13.97
530.869	14.05
531.067	14.15
531.265	14.27
531.463	14.28
531.661	14.32
531.859	14.29
532.057	14.33
532.255	14.36
532.454	14.34
532.652	14.32
532.85	14.32
533.048	14.34
533.246	14.34
533.444	14.38
533.642	14.48
533.84	14.53
534.038	14.63
534.236	14.7
534.434	14.78
534.632	14.83
534.83	14.98
535.027	15.04
535.225	15.1
535.423	15.17
535.621	15.25
535.819	15.28
536.017	15.37
536.215	15.37
536.412	15.37
536.61	15.41
536.808	15.45
537.006	15.49
537.203	15.58
537.401	15.72
537.599	15.82
537.797	15.83
537.994	15.92
538.192	15.98
538.39	16.09
538.587	16.23
538.785	16.34
538.983	16.55
539.18	16.52
539.378	16.61
539.575	16.6
539.773	16.71
539.97	16.75
540.168	16.82
540.366	16.82
540.563	16.83
540.761	16.83
540.958	16.83
541.155	16.84
541.353	16.92
541.55	16.9
541.748	16.9
541.945	16.89
542.143	16.92
542.34	16.95
542.537	17.07
542.735	17.16
542.932	17.22
543.129	17.41
543.327	17.52
543.524	17.73
543.721	17.95
543.919	18.22
544.116	18.42
544.313	18.72
544.51	18.91
544.708	19.09
544.905	19.37
545.102	19.61
545.299	19.73
545.496	19.85
545.693	19.87
545.891	19.95
546.088	20.01
546.285	20.01
546.482	19.96
546.679	19.97
546.876	19.91
547.073	19.83
547.27	19.8
547.467	19.73
547.664	19.78
547.861	19.79
548.058	19.75
548.255	19.72
548.452	19.81
548.649	19.89
548.846	19.95
549.043	20.04
549.24	20.11
549.437	20.08
549.633	20.15
549.83	20.22
550.027	20.29
550.224	20.32
550.421	20.37
550.618	20.31
550.814	20.34
551.011	20.4
551.208	20.5
551.405	20.52
551.601	20.62
551.798	20.59
551.995	20.57
552.191	20.53
552.388	20.69
552.585	20.7
552.781	20.72
552.978	20.69
553.175	20.63
553.371	20.6
553.568	20.6
553.764	20.55
553.961	20.67
554.157	20.75
554.354	20.92
554.55	20.92
554.747	21.03
554.943	21.1
555.14	21.19
555.336	21.41
555.533	21.43
555.729	21.49
555.926	21.61
556.122	21.67
556.318	21.76
556.515	21.69
556.711	21.79
556.907	21.82
557.104	21.96
557.3	22
557.496	22
557.693	22.09
557.889	22.17
558.085	22.19
558.281	22.26
558.478	22.29
558.674	22.36
558.87	22.31
559.066	22.31
559.262	22.38
559.459	22.35
559.655	22.44
559.851	22.5
560.047	22.61
560.243	22.67
560.439	22.75
560.635	22.7
560.831	22.72
561.027	22.8
561.223	22.85
561.419	22.78
561.615	22.82
561.811	22.77
562.007	22.76
562.203	22.82
562.399	22.95
562.595	22.86
562.791	23
562.987	23.05
563.183	23.05
563.379	23.09
563.575	23.18
563.771	23.29
563.966	23.31
564.162	23.47
564.358	23.33
564.554	23.39
564.75	23.5
564.945	23.45
565.141	23.49
565.337	23.54
565.533	23.52
565.728	23.54
565.924	23.69
566.12	23.67
566.315	23.5
566.511	23.6
566.707	23.44
566.902	23.4
567.098	23.57
567.293	23.61
567.489	23.69
567.684	23.75
567.88	23.75
568.076	23.72
568.271	23.88
568.467	24.08
568.662	24.09
568.858	24.28
569.053	24.38
569.248	24.34
569.444	24.43
569.639	24.35
569.835	24.46
570.03	24.53
570.225	24.45
570.421	24.44
570.616	24.4
570.812	24.5
571.007	24.45
571.202	24.42
571.397	24.44
571.593	24.41
571.788	24.43
571.983	24.48
572.178	24.6
572.374	24.69
572.569	24.74
572.764	24.9
572.959	24.94
573.154	25.07
573.35	25.15
573.545	25.31
573.74	25.41
573.935	25.5
574.13	25.46
574.325	25.4
574.52	25.52
574.715	25.63
574.91	25.64
575.105	25.78
575.3	25.95
575.495	26.06
575.69	26.1
575.885	26.12
576.08	26.3
576.275	26.52
576.47	26.8
576.665	26.89
576.86	27.05
577.055	27.15
577.25	27.27
577.444	27.29
577.639	27.62
577.834	27.62
578.029	27.96
578.224	27.98
578.418	28.09
578.613	28.11
578.808	28.27
579.003	28.37
579.197	28.45
579.392	28.47
579.587	28.48
579.781	28.48
579.976	28.62
580.171	28.55
580.365	28.68
580.56	28.69
580.755	28.78
580.949	28.76
581.144	28.75
581.338	28.85
581.533	28.97
581.727	29.24
581.922	29.17
582.116	29.27
582.311	29.26
582.505	29.22
582.7	29.38
582.894	29.57
583.089	29.63
583.283	29.68
583.478	29.71
583.672	29.77
583.866	29.72
584.061	29.94
584.255	29.78
584.449	29.95
584.644	30.14
584.838	30.27
585.032	30.14
585.226	30.32
585.421	30.56
585.615	30.85
585.809	30.72
586.003	30.79
586.198	30.68
586.392	30.97
586.586	31.09
586.78	31.07
586.974	30.96
587.168	30.91
587.363	30.91
587.557	30.62
587.751	30.37
587.945	30.34
588.139	30.26
588.333	30.14
588.527	30.05
588.721	29.85
588.915	29.7
589.109	29.55
589.303	29.53
589.497	29.44
589.691	29.62
589.885	29.54
590.079	29.7
590.273	29.61
590.466	29.7
590.66	29.71
590.854	29.92
591.048	30.04
591.242	30.23
591.436	30.44
591.629	30.6
591.823	30.64
592.017	30.82
592.211	30.88
592.404	31.06
592.598	31.08
592.792	31.24
592.986	31.2
593.179	31.07
593.373	31.02
593.567	30.96
593.76	30.73
593.954	30.57
594.147	30.55
594.341	30.36
594.535	30.37
594.728	30.47
594.922	30.19
595.115	30.01
595.309	29.98
595.502	29.83
595.696	29.7
595.889	29.66
596.083	29.78
596.276	29.6
596.47	29.69
596.663	29.43
596.856	29.33
597.05	29.44
597.243	29.42
597.437	29.66
597.63	29.85
597.823	29.97
598.017	30.12
598.21	30.07
598.403	30.34
598.596	30.49
598.79	30.87
598.983	30.99
599.176	31.07
599.369	31.28
599.563	31.26
599.756	31.35
599.949	31.44
600.142	31.55
600.335	31.59
600.528	31.66
600.722	31.52
600.915	31.44
601.108	31.5
601.301	31.56
601.494	31.54
601.687	31.41
601.88	31.31
602.073	31.06
602.266	30.96
602.459	30.96
602.652	30.73
602.845	30.57
603.038	30.38
603.231	30.3
603.424	30.23
603.617	30.13
603.809	30.05
604.002	29.89
604.195	30.02
604.388	30.09
604.581	30.07
604.774	30.12
604.966	30.23
605.159	30.33
605.352	30.33
605.545	30.48
605.737	30.55
605.93	30.75
606.123	31.01
606.316	31.18
606.508	31.22
606.701	31.42
606.894	31.55
607.086	31.74
607.279	31.9
607.471	32.02
607.664	32.05
607.857	32.48
608.049	32.8
608.242	33.12
608.434	33.62
608.627	34.35
608.819	34.99
609.012	35.83
609.204	36.85
609.397	38.08
609.589	39.39
609.782	40.69
609.974	41.95
610.166	43.34
610.359	44.62
610.551	45.73
610.743	46.65
610.936	47.67
611.128	48.43
611.32	49.05
611.513	49.31
611.705	49.33
611.897	49.19
612.09	48.88
612.282	48.39
612.474	47.92
612.666	47.5
612.858	46.94
613.051	46.31
613.243	45.58
613.435	44.88
613.627	44.44
613.819	43.94
614.011	43.7
614.203	43.28
614.395	42.71
614.588	42.23
614.78	41.63
614.972	41.24
615.164	40.7
615.356	40.33
615.548	39.87
615.74	39.4
615.932	39.13
616.124	38.56
616.315	38.14
616.507	37.72
616.699	37.3
616.891	36.87
617.083	36.44
617.275	36.06
617.467	35.93
617.659	35.85
617.85	35.58
618.042	35.34
618.234	35.18
618.426	34.85
618.618	34.86
618.809	34.89
619.001	35.04
619.193	35.05
619.384	35.3
619.576	35.46
619.768	35.35
619.959	35.37
620.151	35.24
620.343	35.26
620.534	35.51
620.726	35.4
620.917	35.42
621.109	35.34
621.301	35.49
621.492	35.32
621.684	35.24
621.875	35.18
622.067	35.09
622.258	35.25
622.45	35.4
622.641	35.32
622.832	35.61
623.024	35.79
623.215	35.69
623.407	35.58
623.598	35.63
623.789	35.61
623.981	35.53
624.172	35.64
624.363	35.55
624.555	35.31
624.746	35.3
624.937	35.15
625.129	34.95
625.32	34.8
625.511	34.73
625.702	34.62
625.893	34.51
626.085	34.5
626.276	34.37
626.467	34.33
626.658	34.19
626.849	34.02
627.04	33.9
627.231	33.85
627.422	34.08
627.614	34.22
627.805	34.21
627.996	34.13
628.187	34.23
628.378	34.27
628.569	34.44
628.76	34.86
628.951	35.1
629.142	35.38
629.332	35.62
629.523	35.78
629.714	35.76
629.905	36.07
630.096	36.48
630.287	36.67
630.478	36.76
630.669	36.68
630.859	36.63
631.05	36.47
631.241	36.32
631.432	36.23
631.623	36.08
631.813	35.98
632.004	35.62
632.195	35.06
632.385	34.69
632.576	34.71
632.767	34.61
632.957	34.33
633.148	34.24
633.339	34.19
633.529	34.04
633.72	33.69
633.91	33.43
634.101	33.49
634.292	33.67
634.482	33.57
634.673	33.36
634.863	33.35
635.054	33.39
635.244	33.42
635.435	33.46
635.625	33.46
635.815	33.68
636.006	33.88
636.196	33.84
636.387	33.79
636.577	33.92
636.767	33.94
636.958	33.92
637.148	33.82
637.338	33.96
637.529	33.98
637.719	34.07
637.909	34.12
638.099	34.07
638.29	34.14
638.48	34.5
638.67	34.54
638.86	34.48
639.05	34.69
639.241	34.92
639.431	34.87
639.621	34.92
639.811	34.7
640.001	34.65
640.191	34.67
640.381	34.74
640.571	34.7
640.761	34.85
640.951	35.1
641.141	34.82
641.331	34.74
641.521	34.66
641.711	34.65
641.901	34.95
642.091	34.92
642.281	35.09
642.471	34.94
642.661	34.93
642.851	34.96
643.041	35.09
643.231	35.22
643.42	35.33
643.61	35.4
643.8	35.33
643.99	35.31
644.18	35.53
644.369	35.66
644.559	35.89
644.749	35.8
644.939	35.66
645.128	35.37
645.318	35.27
645.508	35.18
645.697	34.95
645.887	35.03
646.076	34.93
646.266	34.79
646.456	34.58
646.645	34.46
646.835	34.44
647.024	34.45
647.214	34.58
647.403	34.84
647.593	34.88
647.782	35.19
647.972	35.08
648.161	35
648.351	35.11
648.54	35.18
648.73	35.22
648.919	35.2
649.108	35.24
649.298	35.34
649.487	35.26
649.677	35.16
649.866	35.32
650.055	35.56
650.244	35.72
650.434	35.58
650.623	35.5
650.812	35.4
651.002	35.44
651.191	35.64
651.38	35.74
651.569	35.85
651.758	36.06
651.947	35.96
652.137	35.74
652.326	35.74
652.515	35.65
652.704	35.59
652.893	35.61
653.082	35.7
653.271	35.44
653.46	35.33
653.649	35.39
653.838	35.22
654.027	35.13
654.216	35.2
654.405	35.06
654.594	35.28
654.783	35.52
654.972	35.6
655.161	35.48
655.35	35.5
655.539	35.47
655.728	35.14
655.916	35.3
656.105	35.17
656.294	35.22
656.483	35.2
656.672	35.27
656.86	35.28
657.049	35.15
657.238	34.98
657.427	35.04
657.615	35
657.804	35.02
657.993	34.92
658.181	35.02
658.37	34.86
658.559	35.01
658.747	34.75
658.936	34.54
659.125	34.2
659.313	34.29
659.502	34.36
659.69	34.29
659.879	34.36
660.067	34.34
660.256	34.43
660.444	34.49
660.633	34.4
660.821	34.53
661.01	34.67
661.198	35.1
661.387	35.04
661.575	35.11
661.763	35.03
661.952	35.23
662.14	35.39
662.328	35.43
662.517	35.68
662.705	35.72
662.893	35.87
663.082	35.97
663.27	36.01
663.458	36.23
663.646	36.14
663.834	36.58
664.023	36.35
664.211	36.43
664.399	36.76
664.587	36.82
664.775	36.97
664.963	37.27
665.152	37.38
665.34	37.39
665.528	37.68
665.716	37.8
665.904	37.47
666.092	37.95
666.28	38.2
666.468	37.85
666.656	37.81
666.844	37.81
667.032	37.61
667.22	37.47
667.408	37.9
667.596	37.69
667.784	37.67
667.971	37.78
668.159	37.42
668.347	37.07
668.535	37.02
668.723	36.73
668.911	36.63
669.098	36.76
669.286	37.02
669.474	36.81
669.662	36.79
669.849	36.82
670.037	37.01
670.225	37.04
670.413	37.12
670.6	37.22
670.788	37.5
670.976	37.51
671.163	37.12
671.351	36.96
671.538	36.91
671.726	37.08
671.913	36.95
672.101	36.76
672.289	36.88
672.476	36.87
672.664	36.72
672.851	36.85
673.039	37.05
673.226	37.44
673.413	37.13
673.601	37.08
673.788	37.1
673.976	37.28
674.163	37.32
674.35	37.24
674.538	37.29
674.725	37.7
674.912	37.49
675.1	37.26
675.287	37.31
675.474	37.74
675.662	37.76
675.849	37.61
676.036	37.61
676.223	37.64
676.411	37.57
676.598	37.62
676.785	37.37
676.972	37.4
677.159	37.33
677.346	37.07
677.533	37.1
677.721	37.06
677.908	36.82
678.095	36.38
678.282	36.27
678.469	36
678.656	35.8
678.843	35.65
679.03	35.78
679.217	35.91
679.404	35.76
679.591	35.46
679.778	35.47
679.964	35.6
680.151	35.9
680.338	35.88
680.525	36.01
680.712	35.89
680.899	35.85
681.086	35.69
681.272	35.85
681.459	36.09
681.646	36.41
681.833	36.39
682.02	36.46
682.206	36.48
682.393	36.54
682.58	36.54
682.766	36.79
682.953	37.09
683.14	36.94
683.326	37.16
683.513	37.27
683.7	37.13
683.886	37.18
684.073	37.19
684.259	36.96
684.446	37.38
684.632	37.61
684.819	37.79
685.005	37.53
685.192	37.86
685.378	37.67
685.565	37.7
685.751	37.72
685.938	37.9
686.124	37.91
686.31	38.31
686.497	37.95
686.683	38.02
686.87	37.82
687.056	37.96
687.242	37.93
687.429	37.69
687.615	37.41
687.801	37.27
687.987	37
688.174	37.16
688.36	37
688.546	37.22
688.732	37.18
688.918	37.15
689.105	37.41
689.291	37.54
689.477	37.75
689.663	37.83
689.849	37.92
690.035	38.33
690.221	38.23
690.407	38.19
690.593	38.11
690.779	38.18
690.965	38.14
691.151	37.92
691.337	37.86
691.523	37.95
691.709	38.19
691.895	38.4
692.081	38.14
692.267	38.51
692.453	38.7
692.639	38.61
692.825	38.55
693.011	38.85
693.196	38.93
693.382	39.04
693.568	38.97
693.754	38.68
693.94	38.65
694.125	38.74
694.311	38.28
694.497	38.01
694.682	38.05
694.868	38.17
695.054	38.13
695.239	38.08
695.425	37.99
695.611	37.84
695.796	37.93
695.982	37.62
696.168	37.21
696.353	37.06
696.539	36.99
696.724	36.65
696.91	36.4
697.095	36.03
697.281	35.9
697.466	35.52
697.652	35.06
697.837	34.83
698.023	34.79
698.208	34.73
698.393	34.85
698.579	34.88
698.764	34.91
698.949	34.85
699.135	34.82
699.32	34.86
699.505	34.79
699.691	35.19
699.876	35.48
700.061	35.55
700.246	35.63
700.432	35.44
700.617	35.47
700.802	35.7
700.987	35.93
701.172	36.11
701.358	36.37
701.543	36.8
701.728	37.16
701.913	37.33
702.098	37.56
702.283	38.16
702.468	38.74
702.653	38.75
702.838	39.34
703.023	39.43
703.208	39.85
703.393	39.89
703.578	40.39
703.763	40.55
703.948	40.85
704.133	41.12
704.318	41.32
704.503	41.65
704.688	42.38
704.873	42.75
705.057	43.09
705.242	43.81
705.427	44.19
705.612	44.32
705.797	44.44
705.981	44.43
706.166	45.09
706.351	45.48
706.536	45.53
706.72	45.51
706.905	45.51
707.09	45.65
707.274	45.57
707.459	45.69
707.644	45.75
707.828	45.71
708.013	45.74
708.197	45.23
708.382	44.87
708.567	44.7
708.751	44.51
708.936	43.96
709.12	43.65
709.305	43.08
709.489	42.54
709.673	42.1
709.858	41.88
710.042	41.88
710.227	41.98
710.411	41.95
710.596	41.89
710.78	41.84
710.964	41.98
711.149	42.21
711.333	42.72
711.517	42.89
711.702	43.01
711.886	42.65
712.07	42.37
712.254	42.23
712.438	41.94
712.623	41.89
712.807	41.89
712.991	41.86
713.175	41.43
713.359	40.81
713.544	40.81
713.728	40.89
713.912	41.23
714.096	41
714.28	40.47
714.464	40.48
714.648	40
714.832	39.84
715.016	39.66
715.2	39.66
715.384	39.33
715.568	39.43
715.752	39.39
715.936	39.24
716.12	38.93
716.304	39.1
716.488	39.09
716.671	39.02
716.855	38.93
717.039	38.96
717.223	38.68
717.407	38.88
717.59	38.69
717.774	38.28
717.958	38.14
718.142	38.53
718.325	38.34
718.509	38.09
718.693	38.07
718.877	38.13
719.06	37.67
719.244	37.84
719.428	38.02
719.611	37.88
719.795	38.16
719.978	38.79
720.162	38.97
720.345	39.35
720.529	39.96
720.713	40.41
720.896	40.5
721.08	40.76
721.263	40.99
721.446	41.01
721.63	41.07
721.813	41.59
721.997	41.31
722.18	41.75
722.364	42.05
722.547	41.57
722.73	41.66
722.914	41.62
723.097	41.63
723.28	41.79
723.464	42.13
723.647	42.15
723.83	41.6
724.013	41.48
724.197	41.35
724.38	40.86
724.563	41.51
724.746	41.27
724.929	41.59
725.112	42.09
725.296	41.68
725.479	41.75
725.662	41.89
725.845	41.65
726.028	41.53
726.211	41.12
726.394	41.24
726.577	41.06
726.76	40.88
726.943	40.35
727.126	39.71
727.309	39.61
727.492	39.01
727.675	38.97
727.858	39.03
728.041	38.44
728.224	38.2
728.407	38.53
728.589	38.1
728.772	38.21
728.955	38.45
729.138	38.52
729.321	38.15
729.503	38.17
729.686	37.87
729.869	37.6
730.052	37.87
730.234	38.23
730.417	38.17
730.6	38.07
730.782	38.18
730.965	38.44
731.148	38.54
731.33	39.16
731.513	38.84
731.695	38.83
731.878	39.22
732.061	39.41
732.243	38.99
732.426	38.94
732.608	39.45
732.791	39.26
732.973	38.88
733.156	39.29
733.338	39.32
733.52	39.69
733.703	39.73
733.885	39.65
734.068	39.82
734.25	40.78
734.432	40.56
734.615	40.4
734.797	40.64
734.979	40.71
735.162	40.56
735.344	40.67
735.526	41.15
735.708	41.15
735.891	41.66
736.073	42.19
736.255	42.25
736.437	42.29
736.619	42.42
736.802	42.72
736.984	43.23
737.166	43.98
737.348	44.15
737.53	44.14
737.712	44.46
737.894	44.36
738.076	43.89
738.258	42.88
738.44	42.95
738.622	42.51
738.804	42.65
738.986	42.66
739.168	42.16
739.35	42.51
739.532	42.54
739.714	42.76
739.896	42.41
740.078	42.33
740.259	42.89
740.441	43.16
740.623	44.34
740.805	44.24
740.987	43.61
741.168	43.87
741.35	43.49
741.532	43.04
741.714	42.97
741.895	43.1
742.077	44.09
742.259	44.17
742.44	44.6
742.622	44.17
742.804	44.52
742.985	45.52
743.167	44.91
743.348	44.83
743.53	45.24
743.711	44.87
743.893	45.54
744.075	45.06
744.256	45.3
744.438	45.22
744.619	45.05
744.8	44.98
744.982	44.91
745.163	45.59
745.345	45.71
745.526	45.63
745.707	46.13
745.889	45.8
746.07	46.28
746.252	46.34
746.433	46.42
746.614	46.09
746.795	45.34
746.977	45.13
747.158	44.93
747.339	45.09
747.52	45.29
747.702	44.98
747.883	45.1
748.064	44.38
748.245	44.61
748.426	44.32
748.607	44.89
748.788	45.23
748.97	45.43
749.151	45.23
749.332	45.38
749.513	44.79
749.694	45.34
749.875	45.53
750.056	45.43
750.237	45.52
750.418	45.72
750.599	45.4
750.78	45.4
750.96	45.59
751.141	46.1
751.322	46.23
751.503	46.88
751.684	46.17
751.865	45.87
752.046	46.04
752.226	45.15
752.407	44.86
752.588	44.87
752.769	45.09
752.949	45.07
753.13	44.68
753.311	44.46
753.492	44.65
753.672	45.8
753.853	45.79
754.034	45.86
754.214	46.48
754.395	47.37
754.575	47.96
754.756	48.42
754.937	48.18
755.117	48.11
755.298	48.63
755.478	48.87
755.659	48.51
755.839	48.89
756.02	48.93
756.2	48.82
756.381	48.28
756.561	48.15
756.741	48.04
756.922	48.2
757.102	48.24
757.283	47.88
757.463	47.35
757.643	47.19
757.823	46.67
758.004	46.4
758.184	46.53
758.364	46.34
758.545	45.56
758.725	44.48
758.905	43.95
759.085	43.87
759.265	43.51
759.446	43.6
759.626	42.77
759.806	42.31
759.986	42.34
760.166	41.75
760.346	40.92
760.526	40.78
760.706	41.04
760.886	40.89
761.066	40.57
761.246	40.48
761.426	40.83
761.606	41
761.786	40.9
761.966	40.25
762.146	39.57
762.326	39.34
762.506	39.42
762.686	39.71
762.866	39.32
763.046	38.94
763.225	38.15
763.405	37.49
763.585	37.05
763.765	37.08
763.945	36.68
764.124	36.95
764.304	37.46
764.484	37.49
764.664	37.27
764.843	37.86
765.023	38.16
765.203	39.15
765.382	39.62
765.562	40.16
765.741	40.41
765.921	42.19
766.101	43.27
766.28	43.3
766.46	43.84
766.639	44.62
766.819	44.68
766.998	44.97
767.178	45.11
767.357	45.19
767.537	46.18
767.716	47.18
767.896	46.68
768.075	46.36
768.254	46.81
768.434	47.25
768.613	47.5
768.792	48.1
768.972	48.47
769.151	48.58
769.33	48.67
769.51	48.24
769.689	48.02
769.868	47.92
770.047	48.25
770.226	48.48
770.406	47.65
770.585	47.56
770.764	47.38
770.943	47.33
771.122	47.96
771.301	48.65
771.48	49.05
771.66	48.21
771.839	48.47
772.018	48.37
772.197	49.14
772.376	50.52
772.555	50.91
772.734	51.52
772.913	51.77
773.092	50.97
773.271	51.62
773.449	52.04
773.628	53.1
773.807	52.67
773.986	52.64
774.165	52.15
774.344	51.1
774.523	51.26
774.701	50.51
774.88	51.5
775.059	52.65
775.238	51.07
775.417	50.32
775.595	50.72
775.774	51.22
775.953	50.85
776.131	51.07
776.31	51.12
776.489	50.94
776.667	51.02
776.846	50.2
777.025	50.07
777.203	50.48
777.382	50.74
777.56	50.79
777.739	50.65
777.917	51.65
778.096	51.17
778.274	51.59
778.453	51.62
778.631	52.05
778.81	52.77
778.988	52.1
779.166	51.98
779.345	52.27
779.523	51.43
779.702	52.61
779.88	53.02
780.058	54.05
780.237	55.17
780.415	55.49
780.593	54.8
780.771	54.56
780.95	55.19
781.128	56.61
781.306	57.14
781.484	58.14
781.662	56.73
781.841	56.03
782.019	54.81
782.197	53.19
782.375	52.26
782.553	52.23
782.731	52.29
782.909	53.44
783.087	53.34
783.265	52.44
783.443	51.37
783.621	52.38
783.799	52.39
783.977	53.53
784.155	54.35
784.333	54.91
784.511	55.79
784.689	55.92
784.867	54.45
785.045	53.64
785.223	55.14
785.4	55.72
785.578	54.94
785.756	55.77
785.934	54.99
786.112	55.58
786.289	55.37
786.467	54.98
786.645	54.08
786.823	54.04
787	53.13
787.178	51.57
787.356	50.91
787.533	51.28
787.711	49.75
787.889	49.78
788.066	48.79
788.244	48.27
788.421	47.74
788.599	47.88
788.776	47.7
788.954	48.9
789.131	49.1
789.309	50.25
789.486	50.74
789.664	51.69
789.841	51.76
790.019	51.73
790.196	52.14
790.373	52.53
790.551	53.51
790.728	53.56
790.906	53.29
791.083	54.84
791.26	53.98
791.437	54.25
791.615	53.44
791.792	53.78
791.969	54.47
792.146	54.64
792.324	55.18
792.501	53.96
792.678	55.38
792.855	55.62
793.032	54.39
793.209	54.75
793.387	53.73
793.564	55.24
793.741	54.95
793.918	54.29
794.095	53.34
794.272	52.9
794.449	53.03
794.626	52.13
794.803	52.17
794.98	52.69
795.157	52.28
795.334	52.57
795.511	51.35
795.688	50.48
795.864	50.76
796.041	51.92
796.218	52.22
796.395	52.88
796.572	52.16
796.749	51.84
796.925	51.32
797.102	50.78
797.279	50.49
797.456	50.57
797.632	50.91
797.809	51.08
797.986	49.91
798.162	50.06
798.339	48.69
798.516	50.35
798.692	50.45
798.869	49.22
799.046	50.26
799.222	50.35
799.399	50.87
799.575	52.01
799.752	52.79
799.928	54.4
800.105	54.84
800.281	56.25
800.458	56.18
800.634	56.34
800.811	57.02
800.987	58.02
801.163	57.81
801.34	58.6
801.516	57.94
801.692	57.67
801.869	56.68
802.045	56.88
802.221	56.36
802.398	56.19
802.574	54.77
802.75	56.05
802.926	55.29
803.103	55.96
803.279	54.36
803.455	54.19
803.631	54.47
803.807	55.9
803.983	56.64
804.16	57.29
804.336	56.46
804.512	58.46
804.688	59.4
804.864	58.68
805.04	58.76
805.216	59.27
805.392	60.96
805.568	62.08
805.744	61.7
805.92	60.7
806.096	61.04
806.272	60.32
806.448	60.35
806.623	59.1
806.799	59.83
806.975	59.45
807.151	59.74
807.327	58.81
807.503	57.67
807.678	58
807.854	57.19
808.03	56.61
808.206	57.88
808.381	57.97
808.557	58.73
808.733	58.6
808.908	60.11
809.084	59.27
809.26	58.73
809.435	59.57
809.611	59.02
809.787	58.78
809.962	60.71
810.138	60.75
810.313	61.16
810.489	59.73
810.664	59.75
810.84	59
811.015	59.58
811.191	60.88
811.366	59.93
811.542	59.62
811.717	60.4
811.892	59.8
812.068	59.94
812.243	59.54
812.419	60.66
812.594	59.62
812.769	59.82
812.944	60.55
813.12	59.42
813.295	59.39
813.47	59.78
813.645	59.07
813.821	58.19
813.996	56.59
814.171	56.84
814.346	56.92
814.521	59.11
814.697	59.23
814.872	59.23
815.047	59.73
815.222	59.4
815.397	57.66
815.572	57.95
815.747	57.36
815.922	57.01
816.097	55.6
816.272	54.28
816.447	53.07
816.622	53.73
816.797	52.91
816.972	52.68
817.147	52.66
817.322	53.64
817.496	53.3
817.671	53.8
817.846	55.87
818.021	55.59
818.196	55.93
818.371	56.32
818.545	54.65
818.72	54.71
818.895	55.1
819.069	53.1
819.244	51.67
819.419	51
819.594	49.77
819.768	47.11
819.943	45.6
820.117	43.98
820.292	41.98
820.467	40.86
820.641	38.95
820.816	37.13
820.99	36.34
821.165	35.11
821.339	34.08
821.514	32.84
821.688	32.57
821.863	31.81
822.037	31.35
822.212	30.49
822.386	29.71
822.56	29.43
822.735	29.09
822.909	28.96
823.084	29.07
823.258	28.96
823.432	29.14
823.606	29.02
823.781	29.27
823.955	29.35
824.129	30.01
824.303	30.44
824.478	30.54
824.652	31.31
824.826	31.44
825	31.98
825.174	32.65
825.348	33.24
825.523	33.51
825.697	33.8
825.871	33.77
826.045	34.11
826.219	34.9
826.393	35.26
826.567	34.68
826.741	34.9
826.915	34.5
827.089	34.45
827.263	34.15
827.437	34.14
827.611	34.3
827.784	34.76
827.958	34.9
828.132	34.51
828.306	34.97
828.48	35.42
828.654	36.5
828.827	37.82
829.001	38.04
829.175	39.69
829.349	41.09
829.522	42.34
829.696	43.86
829.87	45.18
830.044	47.45
830.217	48.66
830.391	50.42
830.565	50.86
830.738	51.31
830.912	54.25
831.085	52.7
831.259	53.84
831.432	54.81
831.606	54.58
831.779	53.54
831.953	53.1
832.126	52.18
832.3	50.43
832.473	49.05
832.647	47.36
832.82	45.59
832.994	45.69
833.167	44.03
833.34	42.84
833.514	41.59
833.687	40.52
833.86	39.07
834.034	39.4
834.207	39.79
834.38	40.29
834.553	40.46
834.727	40.29
834.9	40.36
835.073	40.89
835.246	41.04
835.419	42.28
835.593	43.89
835.766	45.07
835.939	46.03
836.112	46.38
836.285	47.18
836.458	48.1
836.631	49.95
836.804	51.75
836.977	53.39
837.15	54.87
837.323	56.67
837.496	57.37
837.669	58.74
837.842	58.48
838.015	59.83
838.188	60.12
838.361	61.79
838.533	62.41
838.706	60.64
838.879	60.91
839.052	62.57
839.225	62.57
839.398	63.73
839.57	64.93
839.743	65.44
839.916	67.12
840.088	66.81
840.261	66.62
840.434	66.24
840.607	68.17
840.779	67.44
840.952	67.52
841.124	66.59
841.297	65.24
841.47	64.59
841.642	64.13
841.815	62.95
841.987	64.57
842.16	65.24
842.332	66.96
842.505	67.46
842.677	70.34
842.85	70.43
843.022	71.54
843.194	75.2
843.367	77.76
843.539	81.31
843.712	82.04
843.884	80.91
844.056	82.23
844.229	81.1
844.401	84.19
844.573	85.06
844.745	88.64
844.918	92.81
845.09	92.44
845.262	94.2
845.434	96.25
845.606	98.89
845.779	102.2
845.951	103.2
846.123	102.05
846.295	100.69
846.467	100.62
846.639	98.08
846.811	96.68
846.983	97.75
847.155	96.79
847.327	98.84
847.499	98.06
847.671	97.37
847.843	98.99
848.015	105.52
848.187	105.71
848.359	103.46
848.531	107
848.703	104.27
848.875	105.26
849.047	105.68
849.218	99.16
849.39	101.08
849.562	101.61
849.734	98.96
849.905	92.58
850.077	89.86
850.249	93.14
850.421	90.41
850.592	93.61
850.764	92.08
850.936	93.53
851.107	99.24
851.279	94.5
851.451	95.8
851.622	100.22
851.794	108.27
851.965	117.82
852.137	121.9
852.308	123.36
852.48	123.66
852.651	119.3
852.823	117.77
852.994	117.81
853.166	122
853.337	122.55
853.509	120.83
853.68	115.95
853.851	108.15
854.023	105.45
854.194	105.1
854.365	102.72
854.537	107.1
854.708	106.15
854.879	106.43
855.05	110.57
855.222	109.88
855.393	108.59
855.564	108.6
855.735	110.72
855.906	110.95
856.078	111.65
856.249	110.99
856.42	108.7
856.591	107.97
856.762	108.36
856.933	106.33
857.104	107.19
857.275	108.29
857.446	107.54
857.617	106.74
857.788	105.18
857.959	103.37
858.13	106.52
858.301	107.95
858.472	109.33
858.643	107.3
858.814	106.6
858.985	108.13
859.155	108.99
859.326	112.14
859.497	116.35
859.668	111.01
859.839	117.16
860.009	111.95
860.18	110.08
860.351	108.48
860.522	110.53
860.692	107.21
860.863	102.09
861.034	103.32
861.204	105.91
861.375	103.51
861.546	109.21
861.716	111.95
861.887	115.24
862.057	118.92
862.228	120.85
862.398	118.53
862.569	118.66
862.739	125.36
862.91	121.21
863.08	112.84
863.251	108.26
863.421	106.63
863.592	98.3
863.762	97.99
863.932	95.93
864.103	97.15
864.273	97.35
864.443	98.91
864.614	94.45
864.784	93.23
864.954	98.96
865.125	99.67
865.295	100.79
865.465	105.89
865.635	111.72
865.805	115.53
865.976	107.79
866.146	108.86
866.316	112.14
866.486	114.94
866.656	118.28
866.826	119.91
866.996	129.17
867.166	126.81
867.336	128.48
867.506	125.39
867.676	120.26
867.846	129.14
868.016	127.49
868.186	121.11
868.356	117.2
868.526	115.65
868.696	116.91
868.866	115.01
869.036	123.03
869.206	121.76
869.376	113.06
869.545	117.05
869.715	114.52
869.885	116.64
870.055	121.81
870.224	126.15
870.394	126.51
870.564	121.3
870.734	121.83
870.903	118.56
871.073	122.25
871.243	125.69
871.412	121.98
871.582	120.95
871.751	113.91
871.921	109.56
872.091	105.75
872.26	103.71
872.43	108.11
872.599	101.5
872.769	103.23
872.938	98.49
873.108	98.91
873.277	97.64
873.446	99.62
873.616	104.01
873.785	108.24
873.955	107.96
874.124	111.65
874.293	106.87
874.463	110.58
874.632	106.68
874.801	108.58
874.971	113.24
875.14	118.2
875.309	115.45
875.478	122.52
875.647	119.46
875.817	124
875.986	118.64
876.155	118.29
876.324	111.64
876.493	112.83
876.662	110.99
876.831	110.68
877	106.18
877.17	107.41
877.339	100.38
877.508	101.96
877.677	101.98
877.846	103.5
878.015	102.66
878.184	105.79
878.352	104.81
878.521	101.92
878.69	98.97
878.859	98.9
879.028	96.45
879.197	93.01
879.366	89.91
879.534	83.42
879.703	78.75
879.872	71.45
880.041	68.35
880.21	63.69
880.378	60.76
880.547	56.28
880.716	53.19
880.884	50.33
881.053	47.46
881.222	45.23
881.39	43.06
881.559	41.26
881.727	39.68
881.896	38.44
882.065	37.72
882.233	35.9
882.402	35.62
882.57	35.7
882.739	35.52
882.907	35.53
883.076	35.32
883.244	36
883.412	36.07
883.581	37.28
883.749	37.36
883.918	37.62
884.086	39.88
884.254	40.42
884.423	41.09
884.591	41.48
884.759	43.7
884.927	44.7
885.096	45.18
885.264	47.73
885.432	49.79
885.6	52.91
885.769	55.69
885.937	56.77
886.105	60.77
886.273	61.18
886.441	67
886.609	69.11
886.777	73.47
886.945	77.35
887.113	80.02
887.281	81.81
887.449	83.44
887.617	86.12
887.785	88.94
887.953	91.53
888.121	92.37
888.289	91.48
888.457	92.75
888.625	94.65
888.793	95.15
888.961	96.67
889.129	96.89
889.296	98.18
889.464	96.57
889.632	96.9
889.8	92.09
889.967	98.59
890.135	102.38
