Data from 2938767__Reflection_01.txt Node
Date: Fri Mar 13 15:47:40 EDT 2015
User: robert
Spectrometer: USB4E03002
Autoset integration time: false
Trigger mode: 4
Integration Time (sec): 1.000000E-1
Scans to average: 10
Electric dark correction enabled: false
Nonlinearity correction enabled: false
Boxcar width: 5
Stray light correction enabled: false
XAxis mode: Wavelengths
Stop averaging: false
Number of Pixels in Spectrum: 3648
>>>>>Begin Spectral Data<<<<<
177.575	31.11
177.794	552.38
178.014	307.69
178.233	495.65
178.452	3475
178.672	111.49
178.891	54.84
179.11	149.02
179.33	-142.86
179.549	1460
179.768	-80.51
179.987	-157.53
180.207	-122.8
180.426	-50.77
180.645	-43.01
180.864	-43.29
181.084	-71.54
181.303	-81.56
181.522	-83.22
181.741	-86.62
181.96	-74.3
182.179	-70.95
182.398	8.59
182.618	1.56
182.837	18.09
183.056	2.54
183.275	8.82
183.494	44.22
183.713	68.37
183.932	69.9
184.151	67.9
184.37	48.21
184.589	45.3
184.808	20.2
185.027	6.8
185.246	-5.33
185.465	-19.76
185.684	-25.7
185.903	-10.38
186.122	-16.54
186.341	-6.72
186.56	-3.01
186.779	-6.04
186.998	-35.63
187.216	-29.6
187.435	-15.28
187.654	-24.29
187.873	24.1
188.092	78.61
188.311	33.4
188.53	47.38
188.748	40.84
188.967	24.3
189.186	65.81
189.405	288.61
189.623	114.72
189.842	86.19
190.061	79.18
190.28	91.08
190.498	39.16
190.717	57.89
190.936	45.03
191.154	3.21
191.373	44.78
191.592	13.36
191.81	9.73
192.029	5.58
192.248	37.44
192.466	30.07
192.685	38.7
192.904	45.22
193.122	16.52
193.341	12.61
193.559	8.7
193.778	-11.28
193.996	-9.05
194.215	6.08
194.433	-23.91
194.652	-174.14
194.87	-201.83
195.089	-489.43
195.307	-434.43
195.526	-128.43
195.744	-124.86
195.963	-103.3
196.181	-81.52
196.399	-78.53
196.618	-107.6
196.836	-89.91
197.055	-113.15
197.273	-74.24
197.491	-63.58
197.71	-48.61
197.928	-52.93
198.146	-45.18
198.365	-41.43
198.583	-30.93
198.801	-17.48
199.019	9.66
199.238	6.35
199.456	25.53
199.674	21.52
199.892	30.45
200.111	29.9
200.329	35.69
200.547	34.18
200.765	29.76
200.983	20.7
201.202	26.7
201.42	10.02
201.638	24.13
201.856	5.12
202.074	13.93
202.292	-4.9
202.51	-29.97
202.728	-18.42
202.946	-1.25
203.165	-28.19
203.383	-30.12
203.601	-53.87
203.819	-63.62
204.037	-97.01
204.255	-124.14
204.473	-94.89
204.691	-90.71
204.909	-43.99
205.127	-82.99
205.345	-138.92
205.562	-44.47
205.78	-76.48
205.998	-39.6
206.216	-20.93
206.434	-9.72
206.652	-4.12
206.87	-0.5
207.088	-28.05
207.306	-39.12
207.523	-19.32
207.741	-36.54
207.959	-59.54
208.177	-91.85
208.395	-119.63
208.612	-132.35
208.83	-186.21
209.048	-381.08
209.266	-796.47
209.483	-305.61
209.701	-176.31
209.919	-339.3
210.136	-185.37
210.354	-158.26
210.572	-30.75
210.79	-10.02
211.007	-39.68
211.225	-4.49
211.442	8.58
211.66	19.3
211.878	17.75
212.095	8.55
212.313	37.65
212.53	45.26
212.748	26.45
212.966	8.47
213.183	3.2
213.401	8.7
213.618	-6.54
213.836	-9.38
214.053	-16.46
214.271	-17.24
214.488	-20.45
214.705	-27.06
214.923	-24.54
215.14	-19.86
215.358	-3.95
215.575	2.62
215.793	2.61
216.01	10.14
216.227	17.49
216.445	22.23
216.662	15.95
216.879	12.42
217.097	14.55
217.314	12.1
217.531	13.17
217.749	7.95
217.966	-1.46
218.183	2.14
218.4	3.52
218.618	-3.91
218.835	1.23
219.052	11.67
219.269	14.37
219.487	4.04
219.704	4.9
219.921	2.72
220.138	4.56
220.355	3.44
220.572	3.74
220.79	-5.39
221.007	-14
221.224	-17.45
221.441	-17.39
221.658	-17.83
221.875	-12.44
222.092	-13.92
222.309	-2.63
222.526	-4.08
222.743	-0.24
222.96	-7.05
223.177	-6.58
223.394	3.14
223.611	7.93
223.828	9.55
224.045	12.54
224.262	8.46
224.479	10.39
224.696	4.56
224.913	1.46
225.13	-0.33
225.347	5.77
225.564	8.8
225.781	3.97
225.997	-0.17
226.214	-0.37
226.431	-0.7
226.648	-1.17
226.865	-1.37
227.082	-0.31
227.298	1.1
227.515	0.46
227.732	-0.06
227.949	-1.34
228.165	0.07
228.382	0.79
228.599	1.55
228.816	1.76
229.032	2.23
229.249	2.39
229.466	2.53
229.682	2.86
229.899	3.76
230.116	3.44
230.332	4.45
230.549	3.75
230.765	4.06
230.982	3.7
231.199	3.27
231.415	2.9
231.632	2.84
231.848	1.57
232.065	1.94
232.281	1.08
232.498	1.21
232.714	-0.61
232.931	0.01
233.147	0.43
233.364	0.78
233.58	0.58
233.797	0.42
234.013	0.54
234.23	0.76
234.446	-0.99
234.662	-0.03
234.879	0.59
235.095	1.89
235.312	2.03
235.528	0.05
235.744	-1.15
235.961	-0.8
236.177	-0.98
236.393	-0.6
236.61	1
236.826	1.85
237.042	0.82
237.258	-0.18
237.475	0.86
237.691	1.04
237.907	3.19
238.123	6.36
238.339	5.81
238.556	5.81
238.772	5.82
238.988	4
239.204	3.5
239.42	3.14
239.636	4.19
239.853	2.26
240.069	2.21
240.285	2.02
240.501	0.75
240.717	1.25
240.933	1
241.149	1.02
241.365	1.31
241.581	1.18
241.797	1.39
242.013	1.46
242.229	1.58
242.445	1.6
242.661	1.68
242.877	1.91
243.093	1.95
243.309	2.44
243.525	1.81
243.741	1.82
243.957	2.19
244.173	2.52
244.388	2.11
244.604	3.27
244.82	3.15
245.036	2.79
245.252	2.24
245.468	2.49
245.683	2.58
245.899	2.82
246.115	2.78
246.331	2.57
246.547	2.24
246.762	2.16
246.978	1.49
247.194	1.51
247.409	1.63
247.625	1.85
247.841	1.77
248.057	1.63
248.272	1.74
248.488	1.8
248.703	1.89
248.919	2.29
249.135	2.46
249.35	2.81
249.566	2.4
249.782	2.25
249.997	1.8
250.213	1.65
250.428	2.2
250.644	1.85
250.859	2
251.075	2.13
251.29	2.04
251.506	1.67
251.721	2.06
251.937	2.75
252.152	2.55
252.368	3.08
252.583	2.93
252.798	2.88
253.014	3.21
253.229	2.63
253.445	2.93
253.66	2.99
253.875	3.21
254.091	1.61
254.306	1.27
254.521	1.08
254.737	-0.5
254.952	-0.89
255.167	-1.18
255.383	-1.74
255.598	-0.95
255.813	-2.5
256.028	-3.1
256.244	-3.39
256.459	-2.16
256.674	-2.03
256.889	-1.56
257.104	-0.54
257.32	0.61
257.535	0.07
257.75	0.23
257.965	0.41
258.18	1.16
258.395	1.51
258.61	1.85
258.826	2.16
259.041	2.21
259.256	2.32
259.471	2.16
259.686	1.87
259.901	2.13
260.116	2.22
260.331	2.56
260.546	2.57
260.761	2.33
260.976	2.39
261.191	2.5
261.406	2.62
261.621	2.54
261.836	2.89
262.05	2.89
262.265	2.53
262.48	2.86
262.695	2.11
262.91	1.68
263.125	1.49
263.34	1.09
263.555	0.56
263.769	0.38
263.984	0.57
264.199	0.37
264.414	0.77
264.629	0.81
264.843	1.05
265.058	0.98
265.273	1.19
265.488	1.23
265.702	1.51
265.917	1.7
266.132	1.5
266.346	1.28
266.561	1.29
266.776	0.98
266.99	1.29
267.205	0.74
267.42	0.86
267.634	1.04
267.849	0.97
268.063	0.87
268.278	0.85
268.492	0.87
268.707	1.36
268.922	1.26
269.136	1.31
269.351	0.94
269.565	1.07
269.78	1.3
269.994	1.15
270.209	1.5
270.423	1.69
270.637	2.06
270.852	1.78
271.066	1.32
271.281	1.26
271.495	1.66
271.709	1.96
271.924	1.96
272.138	1.47
272.353	1.4
272.567	1.44
272.781	1.36
272.996	1.15
273.21	1.1
273.424	1.28
273.638	1.29
273.853	1.08
274.067	1.23
274.281	1.27
274.495	1.26
274.71	1.13
274.924	0.73
275.138	0.63
275.352	0.54
275.566	1.35
275.781	1.16
275.995	1.3
276.209	1.4
276.423	1.28
276.637	1.45
276.851	1.72
277.065	2.21
277.279	2.36
277.493	2.43
277.707	2.24
277.921	1.64
278.135	1.51
278.349	1.32
278.563	1.06
278.777	1.09
278.991	0.86
279.205	0.56
279.419	0.18
279.633	0.3
279.847	0.5
280.061	0.79
280.275	0.71
280.489	0.35
280.703	0.29
280.917	0.54
281.131	0.29
281.344	0.12
281.558	0.1
281.772	0.19
281.986	0.4
282.2	0.35
282.414	0.4
282.627	0.62
282.841	1.22
283.055	1.69
283.269	1.5
283.482	1.84
283.696	1.98
283.91	2.25
284.123	2.23
284.337	2.18
284.551	1.96
284.764	1.68
284.978	1.66
285.192	1.44
285.405	1.32
285.619	1.5
285.833	1.4
286.046	1.27
286.26	1.19
286.473	1.08
286.687	0.79
286.9	0.75
287.114	0.8
287.327	0.73
287.541	0.55
287.754	0.47
287.968	0.2
288.181	0.39
288.395	0.91
288.608	1.15
288.822	1.27
289.035	1.63
289.248	1.59
289.462	1.93
289.675	2.06
289.889	2.29
290.102	2.41
290.315	2.48
290.529	2.29
290.742	2.03
290.955	1.92
291.169	2.12
291.382	1.93
291.595	2.13
291.808	1.85
292.022	1.72
292.235	1.51
292.448	1.24
292.661	1.2
292.875	1.15
293.088	0.99
293.301	1.04
293.514	1.08
293.727	1.14
293.94	0.81
294.153	0.66
294.367	0.82
294.58	0.99
294.793	1
295.006	1.16
295.219	1.05
295.432	0.97
295.645	0.69
295.858	0.38
296.071	0.44
296.284	0.55
296.497	0.9
296.71	0.97
296.923	1.02
297.136	1.1
297.349	1.02
297.562	1.06
297.775	1.15
297.988	1.38
298.201	1.63
298.414	1.57
298.626	1.76
298.839	1.7
299.052	1.34
299.265	1.41
299.478	1.32
299.691	1.43
299.903	1.39
300.116	1.28
300.329	1.3
300.542	1.1
300.755	1.49
300.967	1.65
301.18	1.48
301.393	1.75
301.605	1.68
301.818	1.54
302.031	1.3
302.243	1.36
302.456	1.54
302.669	1.15
302.881	1.46
303.094	1.37
303.307	1.19
303.519	1.14
303.732	1.41
303.944	1.44
304.157	1.96
304.37	2.32
304.582	2.46
304.795	2.39
305.007	2.88
305.22	2.57
305.432	2.45
305.645	2.76
305.857	2.93
306.069	2.69
306.282	3.05
306.494	2.61
306.707	2.37
306.919	2.04
307.132	1.81
307.344	1.62
307.556	1.66
307.769	1.62
307.981	1.39
308.193	1.39
308.406	1.35
308.618	1.16
308.83	1.24
309.043	1.38
309.255	1.53
309.467	1.42
309.679	1.44
309.892	1.71
310.104	1.79
310.316	1.79
310.528	1.89
310.74	2.27
310.953	2.2
311.165	2.43
311.377	2.22
311.589	2.43
311.801	2.96
312.013	3.24
312.225	3.36
312.437	3.52
312.649	3.63
312.862	3.41
313.074	3.25
313.286	3.05
313.498	2.94
313.71	2.89
313.922	2.91
314.134	2.67
314.346	2.42
314.558	2.03
314.77	1.84
314.982	2.23
315.193	2.56
315.405	2.49
315.617	2.9
315.829	3
316.041	3.61
316.253	3.65
316.465	3.82
316.677	3.65
316.888	4.07
317.1	3.79
317.312	3.49
317.524	3.66
317.736	3.71
317.947	3.47
318.159	3.59
318.371	3.49
318.583	3.08
318.794	2.82
319.006	3.39
319.218	3.18
319.43	3.22
319.641	3.12
319.853	3.01
320.064	3.19
320.276	3.67
320.488	3.76
320.699	4.05
320.911	4.36
321.123	4.7
321.334	4.54
321.546	4.76
321.757	5.76
321.969	6.21
322.18	5.9
322.392	5.87
322.603	5.52
322.815	5.35
323.026	5.09
323.238	5.81
323.449	6.48
323.661	6.41
323.872	6.72
324.083	6.43
324.295	6.16
324.506	6.41
324.718	6.41
324.929	6.77
325.14	7.04
325.352	7.13
325.563	6.64
325.774	6.15
325.986	6.43
326.197	6.17
326.408	6.26
326.62	6.76
326.831	6.93
327.042	7.14
327.253	7.37
327.464	7.51
327.676	7.45
327.887	7.69
328.098	8.16
328.309	8.76
328.52	9.19
328.732	9.58
328.943	9.61
329.154	9.92
329.365	10.31
329.576	10.43
329.787	10.72
329.998	11.47
330.209	12.05
330.42	11.96
330.631	11.72
330.842	12.21
331.053	12.54
331.264	12.87
331.475	13.27
331.686	13.81
331.897	14.05
332.108	14.37
332.319	14.69
332.53	14.63
332.741	15.04
332.952	15.02
333.163	14.67
333.374	14.59
333.585	14.51
333.795	14.62
334.006	14.27
334.217	14.47
334.428	14.72
334.639	14.63
334.849	14.75
335.06	14.71
335.271	15.05
335.482	15.35
335.692	15.52
335.903	15.74
336.114	15.96
336.325	16.52
336.535	16.68
336.746	16.48
336.957	16.29
337.167	16.47
337.378	16.64
337.589	16.87
337.799	16.81
338.01	16.98
338.22	16.85
338.431	16.68
338.642	16.69
338.852	16.34
339.063	16.3
339.273	16.73
339.484	16.91
339.694	16.81
339.905	16.7
340.115	17.09
340.326	16.96
340.536	17.54
340.746	17.57
340.957	17.52
341.167	17.51
341.378	17.87
341.588	17.57
341.799	17.38
342.009	17.6
342.219	17.81
342.43	17.88
342.64	18.01
342.85	17.67
343.061	17.8
343.271	17.56
343.481	17.7
343.691	17.85
343.902	18.12
344.112	18.12
344.322	17.99
344.532	17.79
344.743	17.46
344.953	17.4
345.163	17.39
345.373	17.1
345.583	17.27
345.793	17.32
346.004	17.24
346.214	17.07
346.424	16.93
346.634	17.15
346.844	16.92
347.054	17.1
347.264	17.05
347.474	17.15
347.684	17.5
347.894	17.27
348.104	17.48
348.314	17.43
348.524	17.53
348.734	17.76
348.944	17.33
349.154	17.62
349.364	17.75
349.574	17.86
349.784	17.94
349.994	17.62
350.204	17.57
350.413	17.23
350.623	17.33
350.833	16.87
351.043	16.79
351.253	17.14
351.463	16.87
351.672	16.76
351.882	16.67
352.092	16.54
352.302	16.81
352.511	16.83
352.721	16.98
352.931	16.58
353.141	17
353.35	16.68
353.56	16.63
353.77	16.74
353.979	16.64
354.189	16.67
354.399	16.59
354.608	16.7
354.818	16.5
355.027	16.39
355.237	16.56
355.447	16.4
355.656	16.62
355.866	16.53
356.075	16.47
356.285	16.42
356.494	16.34
356.704	16.42
356.913	16.34
357.123	16.54
357.332	16.92
357.542	16.9
357.751	16.99
357.96	17
358.17	17.21
358.379	17.29
358.589	17.31
358.798	17.19
359.007	17.21
359.217	17.21
359.426	17.31
359.635	17.07
359.845	17.04
360.054	17.16
360.263	17.14
360.472	17.08
360.682	16.93
360.891	16.94
361.1	16.87
361.309	16.82
361.519	16.73
361.728	16.65
361.937	16.62
362.146	16.63
362.355	16.49
362.564	16.52
362.774	16.33
362.983	16.48
363.192	16.44
363.401	16.8
363.61	16.6
363.819	16.44
364.028	16.32
364.237	16.33
364.446	16.22
364.655	16.1
364.864	16.16
365.073	16.03
365.282	15.91
365.491	15.9
365.7	15.7
365.909	15.75
366.118	15.82
366.327	15.84
366.536	15.84
366.745	15.84
366.954	16.07
367.162	16.13
367.371	16.39
367.58	16.29
367.789	16.11
367.998	16.07
368.207	16.13
368.415	16.22
368.624	16.37
368.833	16.15
369.042	15.92
369.25	15.8
369.459	15.43
369.668	15.48
369.877	15.72
370.085	15.78
370.294	15.7
370.503	15.81
370.711	15.67
370.92	15.59
371.129	15.44
371.337	15.52
371.546	15.33
371.754	15.45
371.963	15.29
372.171	14.87
372.38	14.78
372.589	14.77
372.797	14.46
373.006	14.57
373.214	14.65
373.423	14.69
373.631	14.64
373.84	14.66
374.048	14.55
374.256	14.52
374.465	14.67
374.673	14.58
374.882	14.57
375.09	14.98
375.298	15.17
375.507	14.9
375.715	15.01
375.923	14.98
376.132	15.15
376.34	15.19
376.548	15.07
376.757	15.08
376.965	15.15
377.173	15.16
377.381	14.98
377.59	14.91
377.798	15.01
378.006	15
378.214	14.92
378.423	14.76
378.631	14.58
378.839	14.63
379.047	14.73
379.255	14.66
379.463	14.66
379.671	14.45
379.879	14.15
380.088	14.03
380.296	13.97
380.504	13.96
380.712	14.06
380.92	14.16
381.128	14.05
381.336	13.95
381.544	13.83
381.752	13.79
381.96	14.1
382.168	14.27
382.376	14.21
382.584	14.12
382.791	14.2
382.999	13.98
383.207	13.96
383.415	14.13
383.623	14.19
383.831	14.53
384.039	14.54
384.247	14.26
384.454	14.17
384.662	14.02
384.87	14.23
385.078	14.17
385.285	14.28
385.493	14.41
385.701	14.18
385.909	14.08
386.116	13.92
386.324	13.65
386.532	13.87
386.739	13.77
386.947	14.06
387.155	13.89
387.362	13.96
387.57	13.8
387.778	13.63
387.985	13.67
388.193	13.6
388.4	13.59
388.608	13.66
388.816	13.44
389.023	13.33
389.231	13.16
389.438	13.12
389.646	13.19
389.853	13.19
390.061	13.06
390.268	13.11
390.475	13.22
390.683	13.13
390.89	13.04
391.098	13.15
391.305	13.02
391.512	13
391.72	13.03
391.927	12.82
392.135	12.9
392.342	12.97
392.549	12.8
392.756	12.93
392.964	12.93
393.171	13.01
393.378	12.72
393.586	12.9
393.793	12.9
394	12.94
394.207	12.92
394.414	12.94
394.622	12.85
394.829	13.13
395.036	12.89
395.243	12.8
395.45	12.67
395.657	12.89
395.864	12.9
396.072	12.88
396.279	12.75
396.486	12.72
396.693	12.61
396.9	12.73
397.107	12.7
397.314	12.72
397.521	12.77
397.728	12.82
397.935	12.77
398.142	12.64
398.349	12.61
398.556	12.59
398.763	12.73
398.97	12.78
399.177	12.64
399.383	12.49
399.59	12.31
399.797	12.21
400.004	12.24
400.211	12.17
400.418	12.14
400.625	12.15
400.831	12.08
401.038	12.06
401.245	11.89
401.452	11.97
401.658	11.74
401.865	11.9
402.072	11.97
402.279	11.88
402.485	12.01
402.692	12.21
402.899	12.2
403.105	12.32
403.312	12.35
403.519	12.38
403.725	12.31
403.932	12.4
404.138	12.27
404.345	12.2
404.552	12.27
404.758	12.1
404.965	11.96
405.171	12.05
405.378	11.93
405.584	11.88
405.791	11.83
405.997	11.8
406.204	11.81
406.41	11.87
406.617	11.83
406.823	11.79
407.029	11.69
407.236	11.62
407.442	11.61
407.649	11.77
407.855	11.59
408.061	11.71
408.268	11.82
408.474	11.73
408.68	11.6
408.887	11.63
409.093	11.63
409.299	11.82
409.505	11.79
409.712	11.66
409.918	11.44
410.124	11.55
410.33	11.53
410.537	11.32
410.743	11.49
410.949	11.51
411.155	11.46
411.361	11.39
411.567	11.28
411.773	11.35
411.98	11.39
412.186	11.44
412.392	11.34
412.598	11.36
412.804	11.36
413.01	11.25
413.216	11.3
413.422	11.49
413.628	11.5
413.834	11.54
414.04	11.59
414.246	11.46
414.452	11.42
414.658	11.48
414.864	11.31
415.07	11.36
415.275	11.24
415.481	11.2
415.687	11.03
415.893	11.01
416.099	11.06
416.305	10.9
416.511	10.9
416.716	10.86
416.922	10.95
417.128	11.04
417.334	11.17
417.539	11.27
417.745	11.27
417.951	11.31
418.157	11.24
418.362	11.16
418.568	11.22
418.774	11.26
418.979	11.27
419.185	11.21
419.391	11.18
419.596	11.16
419.802	11.12
420.008	11.1
420.213	11.13
420.419	11.22
420.624	11.22
420.83	11.24
421.035	11.2
421.241	11.27
421.446	11.3
421.652	11.28
421.857	11.24
422.063	11.24
422.268	11.26
422.474	11.25
422.679	11.22
422.885	11.26
423.09	11.28
423.295	11.32
423.501	11.26
423.706	11.24
423.911	11.19
424.117	11.19
424.322	11.21
424.527	11.19
424.733	11.12
424.938	11.12
425.143	11.04
425.349	11.01
425.554	10.99
425.759	11.02
425.964	10.98
426.169	11.04
426.375	11.03
426.58	10.97
426.785	10.98
426.99	11
427.195	10.93
427.4	10.94
427.605	10.87
427.811	10.79
428.016	10.88
428.221	10.85
428.426	10.79
428.631	10.67
428.836	10.54
429.041	10.62
429.246	10.62
429.451	10.72
429.656	10.74
429.861	10.82
430.066	10.82
430.271	10.61
430.476	10.63
430.681	10.71
430.886	10.7
431.09	10.79
431.295	10.75
431.5	10.8
431.705	10.8
431.91	10.73
432.115	10.73
432.32	10.71
432.524	10.8
432.729	10.79
432.934	10.82
433.139	10.9
433.343	11.02
433.548	11.02
433.753	11.04
433.958	11.1
434.162	11.21
434.367	11.25
434.572	11.33
434.776	11.33
434.981	11.34
435.186	11.27
435.39	11.27
435.595	11.27
435.799	11.2
436.004	11.24
436.209	11.23
436.413	11.22
436.618	11.16
436.822	11.13
437.027	11.14
437.231	11.12
437.436	11.06
437.64	11.09
437.845	11.01
438.049	11.08
438.253	11.03
438.458	11.01
438.662	10.91
438.867	10.94
439.071	10.99
439.275	10.99
439.48	10.96
439.684	11.08
439.888	11.08
440.093	11.06
440.297	11.03
440.501	11.08
440.706	10.98
440.91	11.08
441.114	11.05
441.318	11.01
441.523	11.03
441.727	11.05
441.931	10.98
442.135	11
442.339	11.07
442.543	11.03
442.748	10.91
442.952	11.07
443.156	11.09
443.36	11.15
443.564	11.14
443.768	11.14
443.972	11.17
444.176	11.21
444.38	11.19
444.584	11.11
444.788	11.16
444.992	11.17
445.196	11.1
445.4	11.03
445.604	11.08
445.808	11.12
446.012	11.04
446.216	11.01
446.42	11
446.624	11.03
446.828	11.05
447.032	10.98
447.235	10.95
447.439	11
447.643	11.01
447.847	10.93
448.051	10.89
448.254	10.89
448.458	10.87
448.662	10.9
448.866	10.87
449.069	10.9
449.273	10.98
449.477	11.1
449.681	11.07
449.884	11.03
450.088	11.04
450.292	11.03
450.495	11.14
450.699	11.21
450.902	11.09
451.106	11.15
451.31	11.17
451.513	11.07
451.717	10.95
451.92	10.95
452.124	10.99
452.327	10.98
452.531	11.1
452.734	11.03
452.938	11.01
453.141	11.14
453.345	11.13
453.548	11.03
453.752	11.16
453.955	11.2
454.158	11.15
454.362	11.21
454.565	11.22
454.769	11.07
454.972	11.08
455.175	11.03
455.379	11
455.582	11
455.785	11
455.988	10.96
456.192	10.97
456.395	10.94
456.598	10.85
456.801	10.83
457.005	10.93
457.208	10.99
457.411	11.04
457.614	10.98
457.817	10.94
458.021	11.05
458.224	11.03
458.427	11
458.63	11.04
458.833	11.06
459.036	11.08
459.239	11.11
459.442	11.12
459.645	11.18
459.848	11.25
460.051	11.19
460.254	11.13
460.457	11.16
460.66	11.2
460.863	11.19
461.066	11.17
461.269	11.13
461.472	11.04
461.675	11.06
461.878	11.02
462.081	10.99
462.284	11.15
462.486	11.2
462.689	11.17
462.892	11.16
463.095	11.25
463.298	11.33
463.5	11.42
463.703	11.49
463.906	11.44
464.109	11.32
464.311	11.33
464.514	11.25
464.717	11.25
464.92	11.35
465.122	11.3
465.325	11.24
465.528	11.17
465.73	11.17
465.933	11.11
466.135	11.05
466.338	11.17
466.541	11.14
466.743	11.17
466.946	11.24
467.148	11.2
467.351	11.22
467.553	11.27
467.756	11.34
467.958	11.32
468.161	11.41
468.363	11.54
468.566	11.51
468.768	11.48
468.971	11.5
469.173	11.45
469.375	11.45
469.578	11.58
469.78	11.61
469.983	11.56
470.185	11.57
470.387	11.62
470.59	11.65
470.792	11.7
470.994	11.78
471.196	11.89
471.399	11.84
471.601	11.81
471.803	11.81
472.005	11.79
472.208	11.93
472.41	11.96
472.612	11.89
472.814	11.85
473.016	11.82
473.218	11.82
473.421	11.8
473.623	11.85
473.825	11.87
474.027	11.75
474.229	11.81
474.431	11.77
474.633	11.67
474.835	11.68
475.037	11.61
475.239	11.64
475.441	11.64
475.643	11.56
475.845	11.57
476.047	11.55
476.249	11.59
476.451	11.53
476.653	11.52
476.855	11.68
477.057	11.71
477.258	11.78
477.46	11.77
477.662	11.78
477.864	11.9
478.066	11.89
478.268	11.86
478.469	11.83
478.671	11.81
478.873	11.82
479.075	11.71
479.276	11.7
479.478	11.69
479.68	11.77
479.882	11.76
480.083	11.64
480.285	11.74
480.487	11.79
480.688	11.88
480.89	11.87
481.091	11.84
481.293	11.86
481.495	11.9
481.696	11.91
481.898	11.77
482.099	11.77
482.301	11.79
482.502	11.65
482.704	11.64
482.905	11.58
483.107	11.56
483.308	11.54
483.51	11.54
483.711	11.49
483.913	11.48
484.114	11.47
484.315	11.44
484.517	11.41
484.718	11.43
484.92	11.42
485.121	11.46
485.322	11.44
485.524	11.46
485.725	11.45
485.926	11.44
486.127	11.43
486.329	11.44
486.53	11.46
486.731	11.47
486.932	11.5
487.134	11.49
487.335	11.47
487.536	11.52
487.737	11.54
487.938	11.54
488.139	11.61
488.341	11.65
488.542	11.69
488.743	11.7
488.944	11.76
489.145	11.76
489.346	11.79
489.547	11.8
489.748	11.78
489.949	11.77
490.15	11.8
490.351	11.76
490.552	11.74
490.753	11.76
490.954	11.74
491.155	11.72
491.356	11.77
491.557	11.78
491.758	11.78
491.959	11.76
492.159	11.77
492.36	11.77
492.561	11.79
492.762	11.82
492.963	11.85
493.164	11.9
493.364	11.92
493.565	11.94
493.766	12
493.967	12.14
494.167	12.21
494.368	12.2
494.569	12.3
494.769	12.37
494.97	12.42
495.171	12.37
495.371	12.46
495.572	12.55
495.773	12.55
495.973	12.55
496.174	12.49
496.375	12.54
496.575	12.59
496.776	12.54
496.976	12.54
497.177	12.6
497.377	12.65
497.578	12.58
497.778	12.6
497.979	12.64
498.179	12.63
498.38	12.69
498.58	12.77
498.78	12.85
498.981	12.9
499.181	12.95
499.382	12.96
499.582	13.06
499.782	13.17
499.983	13.2
500.183	13.32
500.383	13.47
500.584	13.45
500.784	13.54
500.984	13.64
501.184	13.63
501.385	13.71
501.585	13.7
501.785	13.68
501.985	13.63
502.185	13.59
502.386	13.48
502.586	13.48
502.786	13.63
502.986	13.55
503.186	13.49
503.386	13.65
503.586	13.59
503.786	13.69
503.987	13.83
504.187	14.01
504.387	14.11
504.587	14.24
504.787	14.23
504.987	14.23
505.187	14.19
505.387	14.3
505.587	14.32
505.786	14.41
505.986	14.37
506.186	14.42
506.386	14.37
506.586	14.49
506.786	14.51
506.986	14.57
507.186	14.66
507.386	14.88
507.585	14.91
507.785	14.94
507.985	14.95
508.185	14.99
508.384	14.96
508.584	15.05
508.784	15.05
508.984	15.07
509.183	15.17
509.383	15.17
509.583	15.15
509.782	15.24
509.982	15.35
510.182	15.38
510.381	15.51
510.581	15.63
510.781	15.66
510.98	15.72
511.18	15.84
511.379	15.78
511.579	15.89
511.778	15.97
511.978	15.92
512.177	15.92
512.377	16.04
512.576	16.05
512.776	16.02
512.975	16.07
513.175	16.08
513.374	16.11
513.573	16.3
513.773	16.36
513.972	16.51
514.172	16.77
514.371	16.85
514.57	16.92
514.77	17.05
514.969	17.25
515.168	17.35
515.367	17.47
515.567	17.58
515.766	17.61
515.965	17.75
516.164	17.78
516.364	17.78
516.563	17.88
516.762	17.95
516.961	18.01
517.16	18.04
517.359	18.08
517.559	18.11
517.758	18.16
517.957	18.23
518.156	18.2
518.355	18.2
518.554	18.2
518.753	18.26
518.952	18.3
519.151	18.34
519.35	18.37
519.549	18.42
519.748	18.5
519.947	18.54
520.146	18.56
520.345	18.61
520.544	18.72
520.743	18.77
520.942	18.8
521.141	18.91
521.339	19.02
521.538	19.15
521.737	19.21
521.936	19.25
522.135	19.31
522.333	19.35
522.532	19.47
522.731	19.62
522.93	19.77
523.129	19.81
523.327	19.84
523.526	19.88
523.725	19.86
523.923	19.94
524.122	20.02
524.321	20.08
524.519	20.12
524.718	20.11
524.917	20.04
525.115	20.11
525.314	20.19
525.512	20.2
525.711	20.2
525.909	20.2
526.108	20.18
526.306	20.15
526.505	20.17
526.703	20.15
526.902	20.18
527.1	20.2
527.299	20.18
527.497	20.14
527.696	20.15
527.894	20.17
528.092	20.17
528.291	20.18
528.489	20.2
528.688	20.25
528.886	20.29
529.084	20.31
529.283	20.34
529.481	20.33
529.679	20.4
529.877	20.46
530.076	20.48
530.274	20.51
530.472	20.6
530.67	20.66
530.869	20.71
531.067	20.79
531.265	20.85
531.463	20.87
531.661	20.98
531.859	20.99
532.057	21.04
532.255	21.03
532.454	21.14
532.652	21.16
532.85	21.17
533.048	21.13
533.246	21.16
533.444	21.2
533.642	21.26
533.84	21.27
534.038	21.33
534.236	21.33
534.434	21.44
534.632	21.49
534.83	21.52
535.027	21.59
535.225	21.7
535.423	21.73
535.621	21.74
535.819	21.78
536.017	21.83
536.215	21.88
536.412	21.97
536.61	22.03
536.808	22.03
537.006	22.14
537.203	22.29
537.401	22.37
537.599	22.5
537.797	22.59
537.994	22.71
538.192	22.85
538.39	23.01
538.587	23.15
538.785	23.3
538.983	23.49
539.18	23.62
539.378	23.64
539.575	23.75
539.773	23.86
539.97	23.98
540.168	24.02
540.366	24.03
540.563	24.08
540.761	24.07
540.958	24.08
541.155	24.17
541.353	24.2
541.55	24.24
541.748	24.29
541.945	24.32
542.143	24.36
542.34	24.46
542.537	24.57
542.735	24.66
542.932	24.75
543.129	24.89
543.327	25.04
543.524	25.29
543.721	25.59
543.919	25.98
544.116	26.29
544.313	26.66
544.51	27.04
544.708	27.43
544.905	27.81
545.102	28.3
545.299	28.67
545.496	28.92
545.693	29.04
545.891	29.08
546.088	28.98
546.285	28.88
546.482	28.72
546.679	28.46
546.876	28.25
547.073	28.02
547.27	27.81
547.467	27.51
547.664	27.34
547.861	27.12
548.058	26.97
548.255	26.91
548.452	26.86
548.649	26.88
548.846	26.88
549.043	26.8
549.24	26.81
549.437	26.5
549.633	26.44
549.83	26.27
550.027	26.22
550.224	26.02
550.421	25.88
550.618	25.66
550.814	25.52
551.011	25.39
551.208	25.28
551.405	25.1
551.601	25.16
551.798	25.13
551.995	24.99
552.191	24.92
552.388	24.91
552.585	24.69
552.781	24.7
552.978	24.66
553.175	24.58
553.371	24.63
553.568	24.6
553.764	24.65
553.961	24.55
554.157	24.53
554.354	24.46
554.55	24.4
554.747	24.64
554.943	24.62
555.14	24.56
555.336	24.62
555.533	24.6
555.729	24.6
555.926	24.56
556.122	24.73
556.318	24.76
556.515	24.91
556.711	25.06
556.907	24.99
557.104	25.05
557.3	25.14
557.496	25.15
557.693	25.1
557.889	25.17
558.085	25.19
558.281	25.1
558.478	25.19
558.674	25.1
558.87	25.1
559.066	25.01
559.262	25.14
559.459	25.16
559.655	25.18
559.851	25.29
560.047	25.3
560.243	25.18
560.439	25.15
560.635	25.11
560.831	25.17
561.027	25.22
561.223	25.31
561.419	25.17
561.615	25.12
561.811	25.14
562.007	25.11
562.203	25.06
562.399	25.15
562.595	25.09
562.791	25.08
562.987	24.97
563.183	24.77
563.379	24.82
563.575	24.8
563.771	24.76
563.966	24.84
564.162	24.89
564.358	24.87
564.554	24.81
564.75	24.96
564.945	25.02
565.141	24.97
565.337	25.09
565.533	25.09
565.728	25.12
565.924	25.15
566.12	25.13
566.315	25.09
566.511	25.15
566.707	25.22
566.902	25.2
567.098	25.14
567.293	25.32
567.489	25.26
567.684	25.25
567.88	25.29
568.076	25.32
568.271	25.34
568.467	25.32
568.662	25.28
568.858	25.35
569.053	25.36
569.248	25.41
569.444	25.4
569.639	25.46
569.835	25.31
570.03	25.26
570.225	25.37
570.421	25.36
570.616	25.33
570.812	25.28
571.007	25.25
571.202	25.26
571.397	25.3
571.593	25.29
571.788	25.39
571.983	25.4
572.178	25.43
572.374	25.35
572.569	25.31
572.764	25.32
572.959	25.31
573.154	25.28
573.35	25.3
573.545	25.28
573.74	25.34
573.935	25.23
574.13	25.38
574.325	25.44
574.52	25.56
574.715	25.83
574.91	26.09
575.105	26.34
575.3	26.5
575.495	26.63
575.69	26.85
575.885	26.96
576.08	27.21
576.275	27.42
576.47	27.71
576.665	27.91
576.86	27.97
577.055	28.09
577.25	28.22
577.444	28.35
577.639	28.54
577.834	28.79
578.029	28.98
578.224	29.01
578.418	29.09
578.613	29.17
578.808	29.18
579.003	29.16
579.197	29.22
579.392	29.22
579.587	29.31
579.781	29.24
579.976	29.2
580.171	29.23
580.365	29.31
580.56	29.22
580.755	29.1
580.949	29.02
581.144	29.12
581.338	29.06
581.533	29.17
581.727	29.21
581.922	29.39
582.116	29.3
582.311	29.35
582.505	29.49
582.7	29.54
582.894	29.68
583.089	29.78
583.283	29.85
583.478	29.98
583.672	29.89
583.866	29.87
584.061	29.76
584.255	29.84
584.449	29.92
584.644	29.91
584.838	30.06
585.032	30.12
585.226	30.31
585.421	30.38
585.615	30.32
585.809	30.63
586.003	30.61
586.198	30.77
586.392	30.73
586.586	30.62
586.78	30.64
586.974	30.57
587.168	30.4
587.363	30.23
587.557	30.07
587.751	30
587.945	29.74
588.139	29.68
588.333	29.58
588.527	29.48
588.721	29.36
588.915	29.2
589.109	29.15
589.303	29.29
589.497	29.22
589.691	29.11
589.885	29.09
590.079	29.07
590.273	29.1
590.466	29.07
590.66	29.2
590.854	29.33
591.048	29.54
591.242	29.72
591.436	29.77
591.629	29.99
591.823	30.2
592.017	30.55
592.211	30.81
592.404	31
592.598	31.09
592.792	31.13
592.986	31.09
593.179	31.02
593.373	30.83
593.567	30.81
593.76	30.65
593.954	30.44
594.147	30.08
594.341	29.78
594.535	29.49
594.728	29.35
594.922	29.07
595.115	28.8
595.309	28.64
595.502	28.53
595.696	28.36
595.889	28.26
596.083	28.24
596.276	28.32
596.47	28.32
596.663	28.49
596.856	28.52
597.05	28.7
597.243	28.92
597.437	28.95
597.63	29.15
597.823	29.25
598.017	29.45
598.21	29.7
598.403	29.81
598.596	30.02
598.79	29.94
598.983	30.13
599.176	30.25
599.369	30.34
599.563	30.44
599.756	30.54
599.949	30.66
600.142	30.58
600.335	30.42
600.528	30.43
600.722	30.37
600.915	30.47
601.108	30.45
601.301	30.29
601.494	30.17
601.687	30.1
601.88	29.98
602.073	29.8
602.266	29.66
602.459	29.6
602.652	29.48
602.845	29.43
603.038	29.16
603.231	28.95
603.424	28.88
603.617	28.83
603.809	28.82
604.002	28.8
604.195	28.81
604.388	28.82
604.581	28.82
604.774	28.82
604.966	28.78
605.159	28.97
605.352	29.17
605.545	29.25
605.737	29.33
605.93	29.59
606.123	29.79
606.316	29.96
606.508	30.28
606.701	30.61
606.894	30.84
607.086	31.11
607.279	31.45
607.471	31.58
607.664	32.03
607.857	32.48
608.049	32.84
608.242	33.44
608.434	34.3
608.627	35.3
608.819	36.52
609.012	37.89
609.204	39.63
609.397	41.42
609.589	43.46
609.782	45.63
609.974	47.95
610.166	50.3
610.359	52.49
610.551	54.69
610.743	56.51
610.936	58.06
611.128	59.38
611.32	60.07
611.513	60.48
611.705	60.75
611.897	60.34
612.09	59.63
612.282	58.71
612.474	57.86
612.666	56.5
612.858	55.46
613.051	54.29
613.243	53.22
613.435	52.27
613.627	51.29
613.819	50.25
614.011	49.47
614.203	48.78
614.395	47.85
614.588	46.69
614.78	45.88
614.972	44.68
615.164	43.79
615.356	42.82
615.548	41.81
615.74	40.95
615.932	40.11
616.124	39.3
616.315	38.38
616.507	37.73
616.699	37.17
616.891	36.51
617.083	36.11
617.275	35.6
617.467	35.21
617.659	35.21
617.85	34.96
618.042	34.78
618.234	34.48
618.426	34.37
618.618	34.07
618.809	33.93
619.001	33.77
619.193	33.78
619.384	33.78
619.576	33.77
619.768	33.35
619.959	33.36
620.151	33.26
620.343	33.28
620.534	33.03
620.726	33.16
620.917	33.19
621.109	33.36
621.301	33.39
621.492	33.53
621.684	33.8
621.875	34.05
622.067	34.11
622.258	34.07
622.45	34.31
622.641	34.77
622.832	34.87
623.024	34.95
623.215	34.98
623.407	34.86
623.598	34.73
623.789	34.52
623.981	34.47
624.172	34.43
624.363	34.46
624.555	34.26
624.746	34.17
624.937	34.21
625.129	34.14
625.32	34.05
625.511	34.14
625.702	34.09
625.893	33.92
626.085	33.78
626.276	33.6
626.467	33.67
626.658	33.69
626.849	33.53
627.04	33.32
627.231	33.23
627.422	33.05
627.614	32.93
627.805	33.04
627.996	33.24
628.187	33.52
628.378	33.88
628.569	34.02
628.76	34.2
628.951	34.52
629.142	35.03
629.332	35.52
629.523	36.02
629.714	36.49
629.905	36.67
630.096	36.89
630.287	37.09
630.478	37.02
630.669	37
630.859	36.94
631.05	36.77
631.241	36.33
631.432	36.01
631.623	35.71
631.813	35.05
632.004	34.76
632.195	34.09
632.385	33.56
632.576	33.21
632.767	32.81
632.957	32.36
633.148	32
633.339	31.72
633.529	31.49
633.72	31.28
633.91	31.29
634.101	31.02
634.292	31
634.482	30.81
634.673	30.69
634.863	30.77
635.054	30.88
635.244	30.99
635.435	31.08
635.625	31.15
635.815	31.2
636.006	31.29
636.196	31.29
636.387	31.42
636.577	31.48
636.767	31.67
636.958	31.57
637.148	31.6
637.338	31.57
637.529	31.5
637.719	31.44
637.909	31.57
638.099	31.62
638.29	31.7
638.48	31.64
638.67	31.71
638.86	31.67
639.05	31.82
639.241	31.74
639.431	31.82
639.621	31.89
639.811	31.7
640.001	31.74
640.191	31.81
640.381	32.01
640.571	32.19
640.761	32.43
640.951	32.38
641.141	32.24
641.331	32.35
641.521	32.22
641.711	32.3
641.901	32.52
642.091	32.36
642.281	32.13
642.471	31.97
642.661	31.93
642.851	31.71
643.041	31.8
643.231	31.96
643.42	32.17
643.61	32.28
643.8	32.24
643.99	32.24
644.18	32.24
644.369	32.22
644.559	32.26
644.749	32.18
644.939	32.15
645.128	32.1
645.318	32.08
645.508	31.87
645.697	31.72
645.887	31.77
646.076	31.7
646.266	31.58
646.456	31.83
646.645	31.63
646.835	31.64
647.024	31.95
647.214	31.81
647.403	31.87
647.593	31.75
647.782	31.92
647.972	31.95
648.161	32.07
648.351	32.21
648.54	32.23
648.73	32.35
648.919	32.45
649.108	32.25
649.298	32.55
649.487	32.55
649.677	32.93
649.866	32.87
650.055	32.83
650.244	32.83
650.434	32.88
650.623	32.64
650.812	32.72
651.002	32.84
651.191	32.92
651.38	32.88
651.569	32.81
651.758	32.76
651.947	33.13
652.137	33.25
652.326	33.27
652.515	33.23
652.704	33.33
652.893	33.52
653.082	33.42
653.271	33.15
653.46	33.06
653.649	33.22
653.838	33.12
654.027	32.68
654.216	32.5
654.405	32.44
654.594	32.42
654.783	32.19
654.972	31.97
655.161	32.09
655.35	32.33
655.539	32.51
655.728	32.2
655.916	32.14
656.105	32.38
656.294	32.24
656.483	32.05
656.672	32.17
656.86	32.58
657.049	32.46
657.238	32.14
657.427	32.1
657.615	31.81
657.804	31.88
657.993	31.64
658.181	31.42
658.37	31.23
658.559	31.36
658.747	31.41
658.936	31.19
659.125	30.92
659.313	30.94
659.502	30.95
659.69	30.99
659.879	31.06
660.067	31.14
660.256	31.05
660.444	31.55
660.633	31.61
660.821	31.54
661.01	31.79
661.198	32.48
661.387	32.77
661.575	32.97
661.763	33.18
661.952	33.36
662.14	33.65
662.328	34.08
662.517	33.98
662.705	34.15
662.893	34.19
663.082	34.18
663.27	33.91
663.458	34.12
663.646	34.16
663.834	34.25
664.023	33.92
664.211	33.99
664.399	34.01
664.587	34.07
664.775	33.83
664.963	33.73
665.152	33.69
665.34	33.73
665.528	33.57
665.716	33.32
665.904	33.36
666.092	33.4
666.28	33.33
666.468	33.25
666.656	33.07
666.844	33
667.032	33.06
667.22	32.96
667.408	32.93
667.596	32.89
667.784	32.97
667.971	32.73
668.159	32.96
668.347	33.03
668.535	33.09
668.723	33.23
668.911	33.35
669.098	33.43
669.286	33.54
669.474	33.53
669.662	33.66
669.849	33.62
670.037	33.81
670.225	33.79
670.413	33.52
670.6	33.42
670.788	33.39
670.976	33.18
671.163	33.16
671.351	33.32
671.538	33
671.726	32.87
671.913	32.84
672.101	32.79
672.289	32.86
672.476	33.04
672.664	33.06
672.851	33.11
673.039	33.39
673.226	33.19
673.413	33.1
673.601	33.37
673.788	33.31
673.976	33.25
674.163	33.23
674.35	33.1
674.538	33.27
674.725	33.35
674.912	33.37
675.1	33.53
675.287	33.87
675.474	33.61
675.662	33.97
675.849	33.99
676.036	34.16
676.223	34.07
676.411	33.87
676.598	33.64
676.785	33.66
676.972	33.49
677.159	33.49
677.346	33.2
677.533	33.54
677.721	33.38
677.908	33.43
678.095	33.41
678.282	33.24
678.469	33.2
678.656	33.07
678.843	32.98
679.03	33.3
679.217	33.07
679.404	33.06
679.591	32.69
679.778	32.6
679.964	32.46
680.151	32.5
680.338	32.46
680.525	32.69
680.712	32.51
680.899	32.47
681.086	32
681.272	31.8
681.459	31.88
681.646	32
681.833	32.06
682.02	32.21
682.206	32.11
682.393	32.27
682.58	32.31
682.766	32.66
682.953	32.76
683.14	33.13
683.326	33.63
683.513	33.55
683.7	33.67
683.886	33.51
684.073	33.54
684.259	33.77
684.446	33.92
684.632	33.93
684.819	33.87
685.005	33.77
685.192	33.57
685.378	33.46
685.565	33.73
685.751	33.48
685.938	33.34
686.124	33.29
686.31	33.09
686.497	32.93
686.683	32.96
686.87	33.12
687.056	33.14
687.242	33.15
687.429	33.32
687.615	33.2
687.801	33.3
687.987	33.28
688.174	33.18
688.36	33.32
688.546	33.64
688.732	33.86
688.918	33.69
689.105	33.78
689.291	33.93
689.477	33.9
689.663	33.88
689.849	33.78
690.035	33.9
690.221	33.81
690.407	33.6
690.593	33.24
690.779	32.69
690.965	32.93
691.151	32.68
691.337	32.74
691.523	32.66
691.709	32.65
691.895	32.87
692.081	32.72
692.267	32.81
692.453	33.06
692.639	33.1
692.825	33.49
693.011	33.54
693.196	33.41
693.382	33.49
693.568	33.22
693.754	33.33
693.94	33.41
694.125	33.83
694.311	33.85
694.497	33.75
694.682	33.76
694.868	33.4
695.054	33.42
695.239	33.77
695.425	33.81
695.611	34.07
695.796	33.92
695.982	33.81
696.168	33.38
696.353	33.29
696.539	33.01
696.724	32.77
696.91	32.8
697.095	32.51
697.281	32.3
697.466	32.04
697.652	31.7
697.837	31.37
698.023	31.27
698.208	31.48
698.393	31.34
698.579	31.25
698.764	31.33
698.949	31.05
699.135	30.98
699.32	30.85
699.505	30.78
699.691	30.98
699.876	30.86
700.061	30.69
700.246	30.53
700.432	30.81
700.617	31.13
700.802	31.02
700.987	31.4
701.172	31.56
701.358	32.04
701.543	32.39
701.728	32.44
701.913	33.03
702.098	33.76
702.283	33.82
702.468	33.72
702.653	33.56
702.838	34.26
703.023	34.86
703.208	35.01
703.393	35.17
703.578	35.03
703.763	35.4
703.948	35.84
704.133	35.55
704.318	35.91
704.503	36.05
704.688	36.75
704.873	36.86
705.057	37.07
705.242	37.19
705.427	37.44
705.612	37.89
705.797	38.28
705.981	38.66
706.166	39.17
706.351	39.83
706.536	40.26
706.72	40.35
706.905	40.72
707.09	40.71
707.274	41.04
707.459	41.32
707.644	41.73
707.828	41.6
708.013	41.36
708.197	41.41
708.382	41.11
708.567	41.27
708.751	41.28
708.936	41.08
709.12	40.98
709.305	40.97
709.489	40.86
709.673	40.25
709.858	40.38
710.042	40.32
710.227	39.9
710.411	40.1
710.596	39.56
710.78	39.62
710.964	39.66
711.149	39.4
711.333	39.32
711.517	39.26
711.702	39.34
711.886	39.02
712.07	38.99
712.254	39.06
712.438	38.56
712.623	38.64
712.807	38.36
712.991	37.92
713.175	37.66
713.359	37.35
713.544	36.46
713.728	36.12
713.912	35.68
714.096	35.41
714.28	35.09
714.464	35.07
714.648	34.94
714.832	34.29
715.016	34.01
715.2	33.82
715.384	33.48
715.568	33.76
715.752	33.3
715.936	33.48
716.12	33.01
716.304	32.89
716.488	32.53
716.671	31.88
716.855	32.17
717.039	31.76
717.223	31.7
717.407	31.49
717.59	30.9
717.774	31.25
717.958	30.89
718.142	30.95
718.325	30.88
718.509	30.7
718.693	30.92
718.877	30.64
719.06	31.15
719.244	31.23
719.428	31.36
719.611	32.1
719.795	32.37
719.978	32.22
720.162	32.52
720.345	32.76
720.529	32.97
720.713	33.45
720.896	33.61
721.08	33.33
721.263	33.34
721.446	33.74
721.63	33.52
721.813	33.61
721.997	33.67
722.18	33.08
722.364	32.62
722.547	33.11
722.73	32.96
722.914	32.85
723.097	33.19
723.28	32.96
723.464	32.96
723.647	32.59
723.83	32.28
724.013	32.79
724.197	33.07
724.38	33.65
724.563	33.53
724.746	33.27
724.929	33.35
725.112	33.22
725.296	33.24
725.479	33.23
725.662	33.79
725.845	33.49
726.028	33.05
726.211	33.3
726.394	32.79
726.577	32.35
726.76	32.73
726.943	32.87
727.126	32.53
727.309	32.5
727.492	32.06
727.675	31.34
727.858	31.24
728.041	31.61
728.224	31.52
728.407	31.67
728.589	32.01
728.772	31.89
728.955	31.46
729.138	31.59
729.321	31.77
729.503	31.76
729.686	31.65
729.869	31.8
730.052	31.79
730.234	31.92
730.417	31.83
730.6	31.54
730.782	31.5
730.965	31.78
731.148	31.59
731.33	31.52
731.513	31.81
731.695	32.54
731.878	32.5
732.061	32.58
732.243	32.61
732.426	32.63
732.608	32.77
732.791	32.87
732.973	32.7
733.156	32.85
733.338	33.03
733.52	33.16
733.703	33.06
733.885	33.36
734.068	32.95
734.25	32.42
734.432	32.73
734.615	32.72
734.797	32.81
734.979	33.21
735.162	34.01
735.344	33.87
735.526	33.92
735.708	33.79
735.891	33.38
736.073	33.41
736.255	33.7
736.437	33.62
736.619	34.07
736.802	34.12
736.984	33.83
737.166	33.18
737.348	33.69
737.53	33.46
737.712	33.81
737.894	33.51
738.076	33.83
738.258	34.33
738.44	34.82
738.622	34.53
738.804	34.8
738.986	34.83
739.168	34.94
739.35	34.75
739.532	34.58
739.714	34.21
739.896	34.65
740.078	34.82
740.259	34.42
740.441	33.38
740.623	33.48
740.805	33.05
740.987	33.19
741.168	33.22
741.35	33
741.532	33.98
741.714	34.23
741.895	34.43
742.077	34.14
742.259	34.64
742.44	35.54
742.622	35.31
742.804	35.64
742.985	36.07
743.167	36.41
743.348	36.76
743.53	35.56
743.711	35.77
743.893	35.93
744.075	35.7
744.256	35.27
744.438	35.04
744.619	35.48
744.8	34.94
744.982	34.78
745.163	34.63
745.345	34.9
745.526	35.71
745.707	35.6
745.889	35.45
746.07	35.74
746.252	35.58
746.433	35.47
746.614	35.77
746.795	36.03
746.977	35.26
747.158	35.15
747.339	34.42
747.52	34.09
747.702	34.19
747.883	34.3
748.064	34.53
748.245	35.03
748.426	34.54
748.607	33.9
748.788	34.2
748.97	35.2
749.151	34.54
749.332	34.88
749.513	35.54
749.694	35.24
749.875	35
750.056	34.77
750.237	34.49
750.418	35.3
750.599	35.36
750.78	35.67
750.96	35.12
751.141	35.61
751.322	35.34
751.503	34.61
751.684	34.91
751.865	35.19
752.046	35.71
752.226	35.76
752.407	35.95
752.588	35.89
752.769	34.83
752.949	34.21
753.13	34.77
753.311	35.57
753.492	35.65
753.672	35.32
753.853	35.26
754.034	34.89
754.214	35.36
754.395	35.76
754.575	36.11
754.756	36.61
754.937	37.39
755.117	37.41
755.298	36.55
755.478	36.72
755.659	36.53
755.839	36.72
756.02	36.41
756.2	35.92
756.381	34.68
756.561	34.05
756.741	34.18
756.922	33.93
757.102	33.53
757.283	33.47
757.463	32.71
757.643	32.83
757.823	32.82
758.004	32.27
758.184	31.46
758.364	31.39
758.545	30.61
758.725	29.95
758.905	29.6
759.085	28.65
759.265	27.91
759.446	27.57
759.626	27.65
759.806	27.34
759.986	27.12
760.166	27.31
760.346	27.19
760.526	27.05
760.706	27.02
760.886	27.07
761.066	27.21
761.246	27.59
761.426	28.26
761.606	27.94
761.786	27.76
761.966	27.9
762.146	28.02
762.326	27.93
762.506	28.14
762.686	28.18
762.866	27.87
763.046	28.34
763.225	28.49
763.405	28.21
763.585	28.43
763.765	28.12
763.945	28.25
764.124	28.43
764.304	28.61
764.484	28.99
764.664	29.02
764.843	29.53
765.023	29.43
765.203	29.7
765.382	30.35
765.562	30.42
765.741	31.36
765.921	32.17
766.101	31.83
766.28	32.12
766.46	32.33
766.639	32.32
766.819	32.36
766.998	32.63
767.178	32.92
767.357	33.03
767.537	33.35
767.716	32.95
767.896	32.82
768.075	33.07
768.254	33.11
768.434	33.48
768.613	33.76
768.792	33.68
768.972	33.97
769.151	33.66
769.33	33.12
769.51	32.68
769.689	32.4
769.868	31.97
770.047	32.38
770.226	32.5
770.406	33.09
770.585	34.07
770.764	33.93
770.943	33.66
771.122	34.04
771.301	34.4
771.48	34.54
771.66	35
771.839	35.24
772.018	35.82
772.197	36.99
772.376	36.81
772.555	36.16
772.734	36.93
772.913	37.46
773.092	36.89
773.271	36.87
773.449	37.8
773.628	37.96
773.807	37.81
773.986	37.57
774.165	36.76
774.344	36.14
774.523	37.19
774.701	37.11
774.88	37.18
775.059	37.08
775.238	37.23
775.417	36.56
775.595	36.89
775.774	36.55
775.953	36.29
776.131	36.22
776.31	35.99
776.489	34.9
776.667	35.43
776.846	35.26
777.025	35.66
777.203	35.43
777.382	35.28
777.56	35.25
777.739	36.96
777.917	37.37
778.096	37.97
778.274	38.19
778.453	38.4
778.631	37.69
778.81	36.94
778.988	37.06
779.166	37.39
779.345	37.46
779.523	37.44
779.702	35.81
779.88	36.69
780.058	36.47
780.237	36.77
780.415	37.21
780.593	37.12
780.771	37.53
780.95	37.24
781.128	36.91
781.306	38.07
781.484	38.35
781.662	38.54
781.841	37.15
782.019	36.46
782.197	36.04
782.375	36.33
782.553	36.15
782.731	36
782.909	37.12
783.087	37.24
783.265	36.71
783.443	35.74
783.621	36.05
783.799	36.42
783.977	36.51
784.155	35.81
784.333	35.83
784.511	36.55
784.689	36.36
784.867	35.31
785.045	34.19
785.223	34.11
785.4	34.76
785.578	34.68
785.756	33.9
785.934	33.29
786.112	34.38
786.289	33.26
786.467	32.14
786.645	32.07
786.823	32.93
787	33.88
787.178	32.82
787.356	31.89
787.533	31.33
787.711	30.67
787.889	30.25
788.066	29.99
788.244	29.47
788.421	29.47
788.599	28.6
788.776	27.48
788.954	28.07
789.131	28.77
789.309	29.1
789.486	28.88
789.664	29.59
789.841	30.3
790.019	29.46
790.196	30.94
790.373	32.35
790.551	33.06
790.728	33.57
790.906	33.38
791.083	32.91
791.26	31.86
791.437	32.81
791.615	33.96
791.792	34.21
791.969	35.3
792.146	33.49
792.324	33.22
792.501	34.2
792.678	34.67
792.855	34.04
793.032	34.45
793.209	35.26
793.387	35.38
793.564	33.5
793.741	33.33
793.918	33.01
794.095	33.09
794.272	32.11
794.449	31.07
794.626	30.74
794.803	31.05
794.98	30.36
795.157	30.79
795.334	30.49
795.511	30.93
795.688	30.31
795.864	30.82
796.041	31.81
796.218	31.65
796.395	31.86
796.572	31.52
796.749	30.75
796.925	31.11
797.102	31.85
797.279	32.22
797.456	32.49
797.632	32.62
797.809	31.97
797.986	31.3
798.162	31.77
798.339	32.03
798.516	31.33
798.692	30.72
798.869	29.97
799.046	28.39
799.222	27.63
799.399	27.59
799.575	27.6
799.752	27.09
799.928	26.76
800.105	26.01
800.281	25.91
800.458	26.86
800.634	29.05
800.811	29.01
800.987	29.58
801.163	29.48
801.34	29.9
801.516	31.66
801.692	32.08
801.869	32.77
802.045	33.09
802.221	32.67
802.398	32.73
802.574	31.57
802.75	32.87
802.926	33.12
803.103	34.37
803.279	32.89
803.455	32.58
803.631	32.72
803.807	31.78
803.983	30.99
804.16	31.98
804.336	32.38
804.512	31.99
804.688	31.28
804.864	31.69
805.04	31.65
805.216	32.86
805.392	31.93
805.568	30.73
805.744	31.13
805.92	31.33
806.096	31.19
806.272	30.44
806.448	31.48
806.623	32.58
806.799	31.93
806.975	31.2
807.151	30.55
807.327	30.49
807.503	29.9
807.678	30.18
807.854	30.09
808.03	29.86
808.206	30.67
808.381	28.62
808.557	28.08
808.733	27.59
808.908	29.36
809.084	29.3
809.26	27.98
809.435	29.44
809.611	29.74
809.787	30.63
809.962	30.64
810.138	29.45
810.313	30.8
810.489	31.99
810.664	33.02
810.84	30.48
811.015	32.5
811.191	32.91
811.366	32.68
811.542	32.08
811.717	32.45
811.892	32.36
812.068	33.77
812.243	33.35
812.419	32.32
812.594	31.95
812.769	31.99
812.944	30.72
813.12	31.32
813.295	30.99
813.47	31.33
813.645	29.49
813.821	28.28
813.996	26.43
814.171	27.19
814.346	26.18
814.521	26.45
814.697	26.6
814.872	26.34
815.047	27.21
815.222	28.03
815.397	27.03
815.572	28.49
815.747	29.41
815.922	30.17
816.097	29.89
816.272	30.35
816.447	28.49
816.622	27.76
816.797	27.39
816.972	27.06
817.147	27.55
817.322	27.29
817.496	27.35
817.671	26.24
817.846	25.17
818.021	24.74
818.196	24.54
818.371	24.22
818.545	25.1
818.72	25.51
818.895	24.57
819.069	23.91
819.244	24.26
819.419	23.87
819.594	24.94
819.768	25.19
819.943	25.12
820.117	24.98
820.292	25.21
820.467	24.68
820.641	24.67
820.816	25.08
820.99	24.53
821.165	24.21
821.339	23.76
821.514	23.36
821.688	23.02
821.863	23
822.037	22.77
822.212	22.66
822.386	22.59
822.56	22.47
822.735	22.14
822.909	22.1
823.084	22.13
823.258	22.22
823.432	22.25
823.606	22.04
823.781	22.08
823.955	22.3
824.129	22.45
824.303	22.64
824.478	22.19
824.652	22.44
824.826	22.7
825	22.55
825.174	22.41
825.348	22.06
825.523	22.67
825.697	22.14
825.871	21.69
826.045	22.19
826.219	21.68
826.393	22.59
826.567	22.37
826.741	22.39
826.915	22.3
827.089	22.42
827.263	22.83
827.437	23.33
827.611	23.37
827.784	23.5
827.958	23.08
828.132	23.12
828.306	22.77
828.48	22.9
828.654	22.77
828.827	23.09
829.001	23.2
829.175	23.39
829.349	23.21
829.522	23.2
829.696	23.34
829.87	22.81
830.044	23.45
830.217	22.72
830.391	21.53
830.565	21.44
830.738	21.48
830.912	21.49
831.085	20.48
831.259	20.28
831.432	21.03
831.606	20.83
831.779	22.17
831.953	21.6
832.126	22.53
832.3	22.87
832.473	23.76
832.647	24.23
832.82	23.4
832.994	23.51
833.167	23.33
833.34	23.29
833.514	23.64
833.687	23.23
833.86	22.87
834.034	23.74
834.207	24.1
834.38	23.43
834.553	22.41
834.727	22.83
834.9	23.57
835.073	23.06
835.246	22.75
835.419	22.17
835.593	22.71
835.766	22.88
835.939	21.69
836.112	22.22
836.285	22.2
836.458	23.02
836.631	23.83
836.804	23.5
836.977	24.36
837.15	24.35
837.323	25.21
837.496	25.79
837.669	28.18
837.842	30.24
838.015	29.72
838.188	30.05
838.361	29.11
838.533	28.1
838.706	26.72
838.879	25.49
839.052	27.17
839.225	27.72
839.398	24.35
839.57	21.69
839.743	19.3
839.916	19.67
840.088	21.9
840.261	24.38
840.434	25.2
840.607	25.64
840.779	26.15
840.952	24.97
841.124	25.1
841.297	26.9
841.47	26.96
841.642	28.71
841.815	29.21
841.987	27.11
842.16	27.42
842.332	27.26
842.505	25.76
842.677	26.35
842.85	27.61
843.022	26.48
843.194	27.49
843.367	27.55
843.539	26.54
843.712	23.74
843.884	23.07
844.056	23.78
844.229	24.49
844.401	29.62
844.573	29.33
844.745	27.92
844.918	27.91
845.09	29.8
845.262	31.76
845.434	32.49
845.606	34.56
845.779	36.45
845.951	33.63
846.123	31.03
846.295	28.25
846.467	31.85
846.639	34.94
846.811	38
846.983	36.59
847.155	35.16
847.327	37.3
847.499	36.99
847.671	38.84
847.843	41.78
848.015	42.87
848.187	44.95
848.359	41.98
848.531	37.53
848.703	37.21
848.875	33.45
849.047	33.33
849.218	30.99
849.39	33.3
849.562	33.22
849.734	32.35
849.905	33.31
850.077	31.74
850.249	29.75
850.421	31.28
850.592	27.47
850.764	31.5
850.936	28.84
851.107	27.96
851.279	26.44
851.451	27.58
851.622	29.72
851.794	30.55
851.965	31.21
852.137	31.88
852.308	31.8
852.48	34.53
852.651	30.86
852.823	37.49
852.994	35.45
853.166	37.74
853.337	32.28
853.509	29.95
853.68	27.74
853.851	27.01
854.023	26.68
854.194	31.03
854.365	31.61
854.537	34.12
854.708	31.98
854.879	33.05
855.05	34.88
855.222	35.64
855.393	35.16
855.564	32.82
855.735	32.96
855.906	33.44
856.078	29.42
856.249	26.26
856.42	25.06
856.591	27.29
856.762	29
856.933	27.01
857.104	24.33
857.275	27.88
857.446	34.98
857.617	34.5
857.788	37.66
857.959	36.64
858.13	37.37
858.301	34.57
858.472	27.51
858.643	28.33
858.814	21.25
858.985	24.05
859.155	17.42
859.326	15.09
859.497	16.76
859.668	11.41
859.839	15.67
860.009	16.33
860.18	19.87
860.351	23.28
860.522	24.11
860.692	28.35
860.863	28.66
861.034	30.16
861.204	29.64
861.375	27.89
861.546	33.48
861.716	30.52
861.887	28.4
862.057	26.71
862.228	26.06
862.398	25.55
862.569	25.37
862.739	26.63
862.91	27.53
863.08	28.96
863.251	30.89
863.421	25.52
863.592	26.33
863.762	30.32
863.932	32.75
864.103	30.99
864.273	27.34
864.443	24.04
864.614	22.59
864.784	21.54
864.954	20.76
865.125	18.7
865.295	19.43
865.465	24.45
865.635	24.18
865.805	23.99
865.976	29.12
866.146	33.33
866.316	36.88
866.486	41.22
866.656	41.73
866.826	40.83
866.996	40.83
867.166	38.99
867.336	35.45
867.506	30.88
867.676	22.58
867.846	22.73
868.016	20.55
868.186	18.24
868.356	11.76
868.526	13.16
868.696	10.61
868.866	12.47
869.036	15.47
869.206	19.51
869.376	21.07
869.545	26.96
869.715	24.06
869.885	20.79
870.055	22.23
870.224	22.79
870.394	18.57
870.564	17
870.734	17.2
870.903	13.74
871.073	9.78
871.243	8.75
871.412	7.72
871.582	5.76
871.751	10.8
871.921	9.59
872.091	12.86
872.26	14.4
872.43	15.41
872.599	13.62
872.769	16.21
872.938	17.84
873.108	20.36
873.277	20.43
873.446	24.06
873.616	19.62
873.785	20.35
873.955	19
874.124	19.26
874.293	20.31
874.463	22.41
874.632	21.31
874.801	19.8
874.971	17.3
875.14	16.04
875.309	12.15
875.478	12.29
875.647	10.18
875.817	7.41
875.986	13.41
876.155	15.6
876.324	14.44
876.493	13.52
876.662	14.63
876.831	16.59
877	20.46
877.17	24.18
877.339	22.66
877.508	25.29
877.677	26.39
877.846	20.39
878.015	20.34
878.184	20.97
878.352	23.42
878.521	24.37
878.69	22.15
878.859	22.1
879.028	19.75
879.197	22.19
879.366	22.79
879.534	22.27
879.703	22.17
879.872	20.6
880.041	20.15
880.21	21.14
880.378	21.32
880.547	21.71
880.716	20.72
880.884	20.8
881.053	20.8
881.222	19.5
881.39	19.08
881.559	19.52
881.727	19.16
881.896	18.97
882.065	18.24
882.233	17.62
882.402	18.07
882.57	18.3
882.739	18.45
882.907	18.27
883.076	18.76
883.244	19.53
883.412	18.74
883.581	19.13
883.749	19.5
883.918	20.08
884.086	19.58
884.254	19.06
884.423	18.98
884.591	18.36
884.759	18.19
884.927	18.36
885.096	17.76
885.264	19.79
885.432	19.34
885.6	19.6
885.769	17.29
885.937	20.02
886.105	17.9
886.273	18.95
886.441	20.32
886.609	20.89
886.777	18.48
886.945	18.14
887.113	16.85
887.281	16.29
887.449	12.7
887.617	12.9
887.785	11.87
887.953	16.3
888.121	15.71
888.289	13.94
888.457	12.52
888.625	16.37
888.793	17.25
888.961	15.28
889.129	17.75
889.296	22.05
889.464	25.11
889.632	24.61
889.8	23.66
889.967	21.5
890.135	24.03
