Data from 2938805__Reflection_02.txt Node
Date: Thu Mar 12 22:17:20 EDT 2015
User: robert
Spectrometer: USB4E03002
Autoset integration time: false
Trigger mode: 4
Integration Time (sec): 1.000000E-1
Scans to average: 10
Electric dark correction enabled: false
Nonlinearity correction enabled: false
Boxcar width: 5
Stray light correction enabled: false
XAxis mode: Wavelengths
Stop averaging: false
Number of Pixels in Spectrum: 3648
>>>>>Begin Spectral Data<<<<<
177.575	-652.17
177.794	-1806.06
178.014	-746.51
178.233	-1213.64
178.452	-825.64
178.672	-907.09
178.891	12900
179.11	903.73
179.33	804.35
179.549	514.2
179.768	1303.33
179.987	610.55
180.207	1007.79
180.426	1021.34
180.645	682.38
180.864	316.35
181.084	264.86
181.303	267.56
181.522	324.83
181.741	235.82
181.96	318.86
182.179	304.04
182.398	528.76
182.618	794.49
182.837	972.92
183.056	-3612.5
183.275	-205.63
183.494	-279.33
183.713	-301.9
183.932	-317.14
184.151	-214.08
184.37	-333.56
184.589	-506.22
184.808	-431.88
185.027	815.44
185.246	446.09
185.465	352.48
185.684	261.49
185.903	256.11
186.122	324.61
186.341	878.51
186.56	493.61
186.779	277.84
186.998	335.31
187.216	335.09
187.435	705.66
187.654	583.7
187.873	464.21
188.092	505.68
188.311	346.98
188.53	430.4
188.748	323.88
188.967	297.75
189.186	429.32
189.405	415.37
189.623	423.28
189.842	466.15
190.061	744.71
190.28	-3210.87
190.498	-8964.71
190.717	-1919.44
190.936	1455.21
191.154	1179.37
191.373	771.73
191.592	478.14
191.81	516.48
192.029	386.98
192.248	400.68
192.466	299.02
192.685	263.4
192.904	307.14
193.122	471.28
193.341	532.77
193.559	291.29
193.778	5618.18
193.996	-265.06
194.215	-485.53
194.433	-615.45
194.652	-788.24
194.87	-328.24
195.089	-720.26
195.307	-1512.5
195.526	-26033.33
195.744	-1113.64
195.963	-898.84
196.181	-1152.59
196.399	-1726.67
196.618	-570.5
196.836	-331.73
197.055	-464.65
197.273	-3563.41
197.491	1991.94
197.71	625.39
197.928	757.85
198.146	284.94
198.365	212.84
198.583	170.13
198.801	142.6
199.019	110.51
199.238	107.47
199.456	113.74
199.674	131.03
199.892	152.73
200.111	253.25
200.329	243.55
200.547	257.29
200.765	338.93
200.983	639.67
201.202	2202.86
201.42	1125.88
201.638	1286.49
201.856	284.21
202.074	244.02
202.292	268
202.51	220.15
202.728	248.17
202.946	293.02
203.165	250.49
203.383	272.21
203.601	238.03
203.819	283.52
204.037	268.62
204.255	563.28
204.473	843.23
204.691	450.8
204.909	296.36
205.127	253.72
205.345	207.95
205.562	256.08
205.78	206.35
205.998	214.9
206.216	224.14
206.434	231.03
206.652	206.35
206.87	208.7
207.088	218.67
207.306	164.14
207.523	210.05
207.741	208.45
207.959	153.04
208.177	153.14
208.395	123.96
208.612	123.05
208.83	134.13
209.048	116.41
209.266	115.42
209.483	117.5
209.701	167.64
209.919	141.61
210.136	142.48
210.354	164.42
210.572	143.68
210.79	143.09
211.007	111.54
211.225	91.99
211.442	104.37
211.66	107.94
211.878	107.91
212.095	96.17
212.313	106.16
212.53	110.13
212.748	93.41
212.966	99.48
213.183	97.26
213.401	104.27
213.618	116.68
213.836	120.58
214.053	113.29
214.271	110.63
214.488	104.08
214.705	96.97
214.923	104.59
215.14	126.44
215.358	117.59
215.575	142.04
215.793	118.75
216.01	108.84
216.227	97.2
216.445	94.64
216.662	102.63
216.879	119
217.097	119.37
217.314	97.49
217.531	100.23
217.749	110.43
217.966	111.84
218.183	116.99
218.4	107.02
218.618	96.56
218.835	101.9
219.052	94.44
219.269	95.36
219.487	96.58
219.704	102.32
219.921	92.02
220.138	88.62
220.355	77.63
220.572	82.66
220.79	80.74
221.007	85.59
221.224	88.76
221.441	86.64
221.658	77.37
221.875	71.78
222.092	69.57
222.309	70.21
222.526	64.94
222.743	66.53
222.96	61.86
223.177	58.82
223.394	60.18
223.611	55.09
223.828	54.77
224.045	51.81
224.262	48.94
224.479	50.62
224.696	42.86
224.913	42.43
225.13	37.46
225.347	35.78
225.564	31.83
225.781	27.58
225.997	25.88
226.214	20.89
226.431	19.01
226.648	18.12
226.865	14.7
227.082	16.46
227.298	13.26
227.515	12.48
227.732	10.17
227.949	10.63
228.165	9.85
228.382	9.8
228.599	9.98
228.816	10.49
229.032	9.78
229.249	10.7
229.466	10.25
229.682	11.05
229.899	10.89
230.116	11.28
230.332	11.65
230.549	12.06
230.765	13.24
230.982	14.07
231.199	13.84
231.415	14.42
231.632	14.53
231.848	15.51
232.065	16.65
232.281	18.25
232.498	18.09
232.714	16.66
232.931	17.8
233.147	16.46
233.364	16.22
233.58	17.1
233.797	17.02
234.013	15.37
234.23	13.93
234.446	14.32
234.662	15.17
234.879	16.74
235.095	17.38
235.312	17.7
235.528	18.37
235.744	17.56
235.961	16.22
236.177	15.6
236.393	16.28
236.61	16.43
236.826	15.63
237.042	15.94
237.258	14.4
237.475	15.68
237.691	16.02
237.907	15.38
238.123	16.28
238.339	16.53
238.556	18.14
238.772	17.88
238.988	19.61
239.204	18.49
239.42	17.88
239.636	18.7
239.853	16.95
240.069	15.07
240.285	14.9
240.501	14.24
240.717	13.62
240.933	12.34
241.149	12.5
241.365	11.44
241.581	10.76
241.797	10.52
242.013	10.08
242.229	10.04
242.445	9.97
242.661	9.68
242.877	9.53
243.093	9.92
243.309	10.1
243.525	9.71
243.741	9.83
243.957	10.53
244.173	10.18
244.388	10.26
244.604	10.76
244.82	11.1
245.036	11.35
245.252	10.81
245.468	10.05
245.683	9.48
245.899	9.28
246.115	8.86
246.331	8.37
246.547	8.22
246.762	8.22
246.978	7.72
247.194	7.38
247.409	7.1
247.625	7.22
247.841	7.29
248.057	7.51
248.272	7.51
248.488	7.63
248.703	7.86
248.919	7.58
249.135	7.43
249.35	7.94
249.566	8.47
249.782	8.4
249.997	8.33
250.213	8.28
250.428	7.64
250.644	7.97
250.859	8.36
251.075	8.35
251.29	8.82
251.506	8.79
251.721	9.21
251.937	9.15
252.152	9.61
252.368	9.49
252.583	10.17
252.798	10.28
253.014	9.76
253.229	9.51
253.445	9.76
253.66	9.77
253.875	9.57
254.091	9.15
254.306	9.59
254.521	9.07
254.737	9.56
254.952	8.38
255.167	9.42
255.383	10.74
255.598	11.16
255.813	10.61
256.028	11.1
256.244	11.83
256.459	12.26
256.674	11.88
256.889	11.13
257.104	11.23
257.32	11.29
257.535	10.61
257.75	9.12
257.965	8.17
258.18	7.81
258.395	7.52
258.61	6.61
258.826	5.92
259.041	5.75
259.256	5.85
259.471	5.24
259.686	5.1
259.901	4.95
260.116	5.28
260.331	5.64
260.546	5.55
260.761	5.46
260.976	5.86
261.191	5.93
261.406	5.81
261.621	5.99
261.836	6.08
262.05	5.86
262.265	5.93
262.48	5.96
262.695	5.41
262.91	5.77
263.125	5.9
263.34	5.63
263.555	5.92
263.769	5.96
263.984	6.32
264.199	6.73
264.414	7.41
264.629	7.52
264.843	7.71
265.058	7.96
265.273	8.03
265.488	8.18
265.702	7.96
265.917	7.74
266.132	7.61
266.346	7.37
266.561	7.34
266.776	7.52
266.99	7.66
267.205	7.44
267.42	7.69
267.634	7.38
267.849	7.15
268.063	7.09
268.278	7.23
268.492	7.59
268.707	7.46
268.922	7.68
269.136	7.36
269.351	7.2
269.565	6.94
269.78	6.41
269.994	6.9
270.209	7.24
270.423	7.48
270.637	7.25
270.852	7.02
271.066	6.76
271.281	6.36
271.495	6.4
271.709	6.46
271.924	6.63
272.138	6.75
272.353	6.34
272.567	6.1
272.781	5.65
272.996	5.87
273.21	5.57
273.424	5.7
273.638	6.06
273.853	5.87
274.067	5.35
274.281	5.51
274.495	5.25
274.71	5.33
274.924	5.45
275.138	5.71
275.352	5.62
275.566	5.4
275.781	5.25
275.995	5.31
276.209	5.54
276.423	6.2
276.637	5.85
276.851	6
277.065	5.79
277.279	5.8
277.493	5.85
277.707	5.88
277.921	6.32
278.135	6.62
278.349	6.67
278.563	6.98
278.777	7.16
278.991	6.69
279.205	7
279.419	7.11
279.633	7.08
279.847	7.11
280.061	7.07
280.275	7.14
280.489	7.31
280.703	7.43
280.917	6.76
281.131	6.53
281.344	7.14
281.558	6.74
281.772	6.91
281.986	6.65
282.2	6.65
282.414	6.66
282.627	6.51
282.841	6.24
283.055	5.56
283.269	5.79
283.482	5.51
283.696	5.33
283.91	5.46
284.123	5.22
284.337	5.18
284.551	5.34
284.764	5.05
284.978	4.84
285.192	4.63
285.405	4.93
285.619	4.66
285.833	4.8
286.046	4.75
286.26	4.58
286.473	4.69
286.687	4.8
286.9	4.55
287.114	4.75
287.327	5.12
287.541	5.36
287.754	5.34
287.968	5.78
288.181	6.01
288.395	5.96
288.608	6.12
288.822	6.08
289.035	5.8
289.248	5.94
289.462	5.77
289.675	5.93
289.889	5.81
290.102	5.64
290.315	5.51
290.529	5.23
290.742	5.35
290.955	5.34
291.169	5.4
291.382	5.69
291.595	5.74
291.808	6.05
292.022	5.62
292.235	5.99
292.448	6.35
292.661	6.38
292.875	6.66
293.088	6.64
293.301	6.66
293.514	6.56
293.727	6.28
293.94	6.02
294.153	5.79
294.367	5.86
294.58	5.74
294.793	5.7
295.006	5.68
295.219	5.49
295.432	5.67
295.645	5.7
295.858	5.69
296.071	5.88
296.284	5.81
296.497	5.77
296.71	5.71
296.923	5.41
297.136	5.34
297.349	5.36
297.562	5.48
297.775	5.24
297.988	5.46
298.201	5.47
298.414	5.46
298.626	5.8
298.839	5.93
299.052	5.97
299.265	6.5
299.478	6.38
299.691	6.47
299.903	6.34
300.116	6.59
300.329	6.39
300.542	6.63
300.755	6.61
300.967	6.37
301.18	6.51
301.393	6.78
301.605	6.27
301.818	6.41
302.031	6.66
302.243	6.95
302.456	7.34
302.669	7.23
302.881	7.37
303.094	7.52
303.307	7.62
303.519	7.37
303.732	7.2
303.944	7.27
304.157	7.17
304.37	7.07
304.582	7.1
304.795	6.72
305.007	7.1
305.22	6.62
305.432	6.44
305.645	6.65
305.857	6.79
306.069	7.21
306.282	7.52
306.494	7.6
306.707	7.55
306.919	7.71
307.132	7.27
307.344	6.84
307.556	7.4
307.769	7.45
307.981	7.32
308.193	7.45
308.406	7.34
308.618	7.28
308.83	7.46
309.043	7.52
309.255	7.37
309.467	7.75
309.679	8.22
309.892	8.11
310.104	8.15
310.316	8.3
310.528	8.24
310.74	8.08
310.953	8.25
311.165	8.06
311.377	8.12
311.589	8.09
311.801	7.84
312.013	7.63
312.225	7.63
312.437	7.83
312.649	7.6
312.862	7.65
313.074	8.02
313.286	7.82
313.498	8.15
313.71	8.05
313.922	7.99
314.134	8.3
314.346	8.1
314.558	8.15
314.77	8.18
314.982	8.06
315.193	8.06
315.405	7.87
315.617	8.11
315.829	8.12
316.041	8.46
316.253	8.92
316.465	9.13
316.677	9.63
316.888	9.74
317.1	9.61
317.312	9.5
317.524	9.93
317.736	9.97
317.947	10.4
318.159	10.46
318.371	10.21
318.583	9.79
318.794	10.12
319.006	10.1
319.218	10.23
319.43	10.59
319.641	11.47
319.853	11.26
320.064	11.45
320.276	11.28
320.488	11.17
320.699	11.59
320.911	12.08
321.123	11.73
321.334	11.98
321.546	12
321.757	11.6
321.969	11.37
322.18	11.48
322.392	11.56
322.603	11.2
322.815	11.35
323.026	10.82
323.238	10.91
323.449	11.04
323.661	10.59
323.872	10.53
324.083	10.5
324.295	10.05
324.506	9.53
324.718	9.55
324.929	9.76
325.14	10.08
325.352	10.18
325.563	9.82
325.774	10.04
325.986	9.95
326.197	9.96
326.408	10.16
326.62	10.86
326.831	11.13
327.042	11
327.253	11.13
327.464	11.21
327.676	11.62
327.887	12
328.098	12.12
328.309	12.35
328.52	12.58
328.732	12.67
328.943	12.49
329.154	12.71
329.365	13.35
329.576	13.08
329.787	12.94
329.998	13.07
330.209	13.31
330.42	13.54
330.631	13.82
330.842	13.92
331.053	14.02
331.264	13.86
331.475	14.52
331.686	14.09
331.897	14.4
332.108	14.19
332.319	14.24
332.53	14.01
332.741	13.74
332.952	13.87
333.163	14.07
333.374	14.31
333.585	14.38
333.795	13.93
334.006	13.64
334.217	13.41
334.428	13.65
334.639	12.96
334.849	12.82
335.06	12.68
335.271	12.69
335.482	12.29
335.692	12.44
335.903	12.49
336.114	12.34
336.325	12.65
336.535	12.62
336.746	12.91
336.957	13.44
337.167	13.49
337.378	13.66
337.589	13.53
337.799	13.52
338.01	13.2
338.22	13.28
338.431	13.63
338.642	13.49
338.852	13.52
339.063	13.33
339.273	13.06
339.484	13.07
339.694	12.69
339.905	12.72
340.115	12.73
340.326	12.91
340.536	13
340.746	12.71
340.957	12.79
341.167	13.08
341.378	12.88
341.588	13.03
341.799	12.88
342.009	12.86
342.219	13.03
342.43	13.02
342.64	12.74
342.85	12.78
343.061	12.77
343.271	12.89
343.481	12.73
343.691	13
343.902	12.74
344.112	12.89
344.322	13.16
344.532	12.98
344.743	12.9
344.953	12.97
345.163	12.94
345.373	12.92
345.583	12.6
345.793	12.38
346.004	12.27
346.214	12.3
346.424	12.16
346.634	12.1
346.844	11.98
347.054	11.99
347.264	12.04
347.474	11.73
347.684	11.73
347.894	11.97
348.104	12.17
348.314	11.97
348.524	12.09
348.734	12.16
348.944	11.94
349.154	12.05
349.364	12.1
349.574	12.08
349.784	12.51
349.994	12.44
350.204	12.52
350.413	12.63
350.623	13.01
350.833	12.88
351.043	12.99
351.253	13.1
351.463	12.86
351.672	12.88
351.882	12.81
352.092	12.53
352.302	12.56
352.511	12.07
352.721	11.72
352.931	11.55
353.141	11.86
353.35	11.94
353.56	11.83
353.77	12.01
353.979	11.9
354.189	11.96
354.399	11.95
354.608	11.94
354.818	12.31
355.027	12.27
355.237	12.21
355.447	11.76
355.656	11.58
355.866	11.7
356.075	11.54
356.285	11.56
356.494	11.37
356.704	11.4
356.913	11.43
357.123	11.25
357.332	11.2
357.542	11.05
357.751	11.24
357.96	11.33
358.17	11.06
358.379	11.34
358.589	11.43
358.798	11.55
359.007	11.53
359.217	11.47
359.426	11.38
359.635	11.59
359.845	11.8
360.054	11.69
360.263	11.46
360.472	11.54
360.682	11.39
360.891	11.05
361.1	11.01
361.309	11
361.519	11.1
361.728	11.17
361.937	11.01
362.146	10.78
362.355	10.89
362.564	11.06
362.774	11.2
362.983	11.02
363.192	11.34
363.401	11.31
363.61	11.1
363.819	10.85
364.028	10.94
364.237	11.04
364.446	11.19
364.655	11.06
364.864	10.94
365.073	10.79
365.282	10.96
365.491	10.76
365.7	10.74
365.909	10.82
366.118	10.99
366.327	11.01
366.536	11.32
366.745	11.2
366.954	11.26
367.162	11.15
367.371	11.17
367.58	11.24
367.789	11.45
367.998	11.35
368.207	11.41
368.415	11.41
368.624	11.34
368.833	11.12
369.042	11.32
369.25	11.42
369.459	11.32
369.668	11.04
369.877	10.98
370.085	10.71
370.294	10.74
370.503	10.71
370.711	10.75
370.92	10.7
371.129	10.51
371.337	10.37
371.546	10.21
371.754	10.19
371.963	10.24
372.171	10.32
372.38	10.31
372.589	10.54
372.797	10.67
373.006	10.59
373.214	10.56
373.423	10.48
373.631	10.32
373.84	10.48
374.048	10.67
374.256	10.92
374.465	10.79
374.673	10.71
374.882	10.49
375.09	10.21
375.298	10.01
375.507	9.9
375.715	10.01
375.923	10.05
376.132	9.83
376.34	9.67
376.548	9.44
376.757	9.31
376.965	9.29
377.173	9.1
377.381	9.25
377.59	9.3
377.798	9.37
378.006	9.32
378.214	9.4
378.423	9.5
378.631	9.43
378.839	9.47
379.047	9.47
379.255	9.72
379.463	9.71
379.671	9.45
379.879	9.46
380.088	9.46
380.296	9.42
380.504	9.23
380.712	8.99
380.92	9.15
381.128	9.19
381.336	9.3
381.544	8.95
381.752	9.22
381.96	9.27
382.168	9.29
382.376	9.24
382.584	8.92
382.791	8.89
382.999	9.17
383.207	9.21
383.415	9.23
383.623	9.14
383.831	9.24
384.039	9.02
384.247	9.14
384.454	8.99
384.662	8.92
384.87	8.95
385.078	9.04
385.285	8.75
385.493	8.8
385.701	8.72
385.909	8.78
386.116	8.61
386.324	8.59
386.532	8.42
386.739	8.53
386.947	8.48
387.155	8.62
387.362	8.63
387.57	8.83
387.778	8.73
387.985	8.7
388.193	8.59
388.4	8.8
388.608	8.99
388.816	9.06
389.023	9
389.231	9.09
389.438	9.03
389.646	8.77
389.853	8.64
390.061	8.67
390.268	8.62
390.475	8.53
390.683	8.5
390.89	8.27
391.098	7.94
391.305	7.92
391.512	7.84
391.72	7.91
391.927	7.88
392.135	7.81
392.342	7.68
392.549	7.69
392.756	7.6
392.964	7.53
393.171	7.64
393.378	7.83
393.586	7.74
393.793	7.78
394	7.6
394.207	7.81
394.414	7.7
394.622	7.76
394.829	7.72
395.036	7.73
395.243	7.69
395.45	7.47
395.657	7.44
395.864	7.51
396.072	7.23
396.279	7.44
396.486	7.43
396.693	7.49
396.9	7.38
397.107	7.28
397.314	7.4
397.521	7.35
397.728	7.59
397.935	7.62
398.142	7.53
398.349	7.56
398.556	7.56
398.763	7.4
398.97	7.51
399.177	7.46
399.383	7.65
399.59	7.65
399.797	7.61
400.004	7.51
400.211	7.45
400.418	7.58
400.625	7.75
400.831	7.66
401.038	7.77
401.245	7.86
401.452	7.98
401.658	7.79
401.865	7.78
402.072	7.94
402.279	7.87
402.485	7.79
402.692	7.71
402.899	7.68
403.105	7.63
403.312	7.57
403.519	7.48
403.725	7.17
403.932	7.31
404.138	7.18
404.345	7.14
404.552	7.03
404.758	7.13
404.965	7.1
405.171	7.03
405.378	7.04
405.584	6.93
405.791	6.84
405.997	6.95
406.204	6.83
406.41	6.88
406.617	6.98
406.823	7.15
407.029	7.15
407.236	7.16
407.442	7.32
407.649	7.37
407.855	7.49
408.061	7.44
408.268	7.58
408.474	7.63
408.68	7.56
408.887	7.31
409.093	7.25
409.299	7.25
409.505	7.16
409.712	7.02
409.918	6.87
410.124	6.83
410.33	7.06
410.537	6.95
410.743	6.84
410.949	6.88
411.155	6.96
411.361	6.97
411.567	6.93
411.773	6.98
411.98	6.96
412.186	6.97
412.392	7
412.598	7.03
412.804	7.04
413.01	7.04
413.216	7.09
413.422	7.05
413.628	6.92
413.834	6.88
414.04	6.91
414.246	6.87
414.452	6.9
414.658	6.84
414.864	6.82
415.07	6.95
415.275	7.03
415.481	7.09
415.687	7.13
415.893	7.26
416.099	7.27
416.305	7.11
416.511	7.24
416.716	7.22
416.922	7.17
417.128	6.91
417.334	6.82
417.539	6.75
417.745	6.56
417.951	6.44
418.157	6.32
418.362	6.3
418.568	6.29
418.774	6.2
418.979	6.21
419.185	6.18
419.391	6.29
419.596	6.25
419.802	6.28
420.008	6.36
420.213	6.89
420.419	6.94
420.624	6.85
420.83	6.93
421.035	6.9
421.241	6.93
421.446	6.96
421.652	6.89
421.857	6.96
422.063	6.89
422.268	6.82
422.474	6.38
422.679	6.41
422.885	6.47
423.09	6.46
423.295	6.42
423.501	6.41
423.706	6.4
423.911	6.42
424.117	6.36
424.322	6.44
424.527	6.56
424.733	6.49
424.938	6.43
425.143	6.52
425.349	6.51
425.554	6.57
425.759	6.52
425.964	6.52
426.169	6.56
426.375	6.58
426.58	6.56
426.785	6.51
426.99	6.67
427.195	6.72
427.4	6.55
427.605	6.61
427.811	6.67
428.016	6.72
428.221	6.7
428.426	6.57
428.631	6.68
428.836	6.63
429.041	6.55
429.246	6.43
429.451	6.39
429.656	6.44
429.861	6.44
430.066	6.36
430.271	6.43
430.476	6.59
430.681	6.63
430.886	6.52
431.09	6.55
431.295	6.66
431.5	6.73
431.705	6.77
431.91	6.81
432.115	6.74
432.32	6.84
432.524	6.74
432.729	6.63
432.934	6.65
433.139	6.61
433.343	6.64
433.548	6.51
433.753	6.45
433.958	6.38
434.162	6.39
434.367	6.45
434.572	6.45
434.776	6.49
434.981	6.59
435.186	6.58
435.39	6.65
435.595	6.6
435.799	6.68
436.004	6.67
436.209	6.7
436.413	6.74
436.618	6.79
436.822	6.66
437.027	6.6
437.231	6.6
437.436	6.66
437.64	6.57
437.845	6.59
438.049	6.58
438.253	6.55
438.458	6.65
438.662	6.58
438.867	6.45
439.071	6.45
439.275	6.46
439.48	6.39
439.684	6.33
439.888	6.4
440.093	6.44
440.297	6.46
440.501	6.45
440.706	6.39
440.91	6.4
441.114	6.41
441.318	6.51
441.523	6.47
441.727	6.43
441.931	6.56
442.135	6.54
442.339	6.53
442.543	6.55
442.748	6.58
442.952	6.61
443.156	6.6
443.36	6.62
443.564	6.6
443.768	6.62
443.972	6.57
444.176	6.4
444.38	6.4
444.584	6.3
444.788	6.24
444.992	6.25
445.196	6.23
445.4	6.24
445.604	6.25
445.808	6.29
446.012	6.3
446.216	6.36
446.42	6.4
446.624	6.43
446.828	6.4
447.032	6.45
447.235	6.47
447.439	6.43
447.643	6.41
447.847	6.41
448.051	6.38
448.254	6.42
448.458	6.41
448.662	6.39
448.866	6.29
449.069	6.41
449.273	6.31
449.477	6.45
449.681	6.46
449.884	6.56
450.088	6.57
450.292	6.6
450.495	6.61
450.699	6.62
450.902	6.62
451.106	6.72
451.31	6.67
451.513	6.75
451.717	6.49
451.92	6.55
452.124	6.5
452.327	6.49
452.531	6.4
452.734	6.52
452.938	6.48
453.141	6.57
453.345	6.55
453.548	6.62
453.752	6.58
453.955	6.71
454.158	6.62
454.362	6.62
454.565	6.57
454.769	6.58
454.972	6.43
455.175	6.42
455.379	6.34
455.582	6.31
455.785	6.38
455.988	6.54
456.192	6.5
456.395	6.63
456.598	6.7
456.801	6.72
457.005	6.68
457.208	6.72
457.411	6.78
457.614	6.72
457.817	6.73
458.021	6.57
458.224	6.51
458.427	6.52
458.63	6.36
458.833	6.29
459.036	6.32
459.239	6.34
459.442	6.35
459.645	6.37
459.848	6.43
460.051	6.45
460.254	6.51
460.457	6.46
460.66	6.46
460.863	6.56
461.066	6.6
461.269	6.62
461.472	6.69
461.675	6.7
461.878	6.73
462.081	6.74
462.284	6.7
462.486	6.76
462.689	6.78
462.892	6.72
463.095	6.76
463.298	6.73
463.5	6.62
463.703	6.51
463.906	6.63
464.109	6.54
464.311	6.57
464.514	6.63
464.717	6.64
464.92	6.73
465.122	6.78
465.325	6.76
465.528	6.82
465.73	6.93
465.933	6.99
466.135	6.91
466.338	6.95
466.541	6.91
466.743	6.93
466.946	6.79
467.148	6.84
467.351	6.89
467.553	6.98
467.756	7
467.958	6.98
468.161	6.95
468.363	6.87
468.566	6.96
468.768	7.02
468.971	6.95
469.173	6.98
469.375	6.89
469.578	6.77
469.78	6.69
469.983	6.64
470.185	6.71
470.387	6.78
470.59	6.79
470.792	6.72
470.994	6.69
471.196	6.68
471.399	6.66
471.601	6.71
471.803	6.77
472.005	6.73
472.208	6.7
472.41	6.65
472.612	6.6
472.814	6.69
473.016	6.62
473.218	6.65
473.421	6.68
473.623	6.69
473.825	6.58
474.027	6.62
474.229	6.69
474.431	6.81
474.633	6.89
474.835	6.94
475.037	6.86
475.239	6.88
475.441	6.83
475.643	6.9
475.845	7
476.047	7
476.249	7.05
476.451	6.97
476.653	6.87
476.855	6.69
477.057	6.68
477.258	6.67
477.46	6.78
477.662	6.78
477.864	6.72
478.066	6.75
478.268	6.74
478.469	6.65
478.671	6.71
478.873	6.75
479.075	6.83
479.276	6.87
479.478	6.93
479.68	6.89
479.882	6.88
480.083	6.82
480.285	6.71
480.487	6.77
480.688	6.72
480.89	6.63
481.091	6.58
481.293	6.48
481.495	6.36
481.696	6.34
481.898	6.24
482.099	6.22
482.301	6.23
482.502	6.2
482.704	6.19
482.905	6.17
483.107	6.13
483.308	6.11
483.51	6.12
483.711	6.16
483.913	6.14
484.114	6.17
484.315	6.2
484.517	6.18
484.718	6.18
484.92	6.18
485.121	6.21
485.322	6.27
485.524	6.33
485.725	6.34
485.926	6.33
486.127	6.28
486.329	6.26
486.53	6.23
486.731	6.24
486.932	6.28
487.134	6.26
487.335	6.23
487.536	6.22
487.737	6.16
487.938	6.19
488.139	6.2
488.341	6.27
488.542	6.29
488.743	6.35
488.944	6.4
489.145	6.39
489.346	6.41
489.547	6.43
489.748	6.44
489.949	6.48
490.15	6.47
490.351	6.41
490.552	6.39
490.753	6.4
490.954	6.32
491.155	6.26
491.356	6.29
491.557	6.25
491.758	6.27
491.959	6.28
492.159	6.31
492.36	6.32
492.561	6.37
492.762	6.42
492.963	6.43
493.164	6.5
493.364	6.61
493.565	6.58
493.766	6.67
493.967	6.64
494.167	6.6
494.368	6.58
494.569	6.63
494.769	6.61
494.97	6.58
495.171	6.59
495.371	6.61
495.572	6.61
495.773	6.62
495.973	6.54
496.174	6.57
496.375	6.59
496.575	6.56
496.776	6.59
496.976	6.62
497.177	6.61
497.377	6.56
497.578	6.53
497.778	6.47
497.979	6.53
498.179	6.69
498.38	6.73
498.58	6.72
498.78	6.71
498.981	6.63
499.181	6.62
499.382	6.65
499.582	6.76
499.782	6.81
499.983	6.89
500.183	6.85
500.383	6.74
500.584	6.75
500.784	6.89
500.984	7.03
501.184	7.11
501.385	7.07
501.585	7
501.785	6.94
501.985	6.95
502.185	6.87
502.386	6.95
502.586	7.04
502.786	7.04
502.986	6.95
503.186	6.88
503.386	6.78
503.586	6.9
503.786	6.98
503.987	6.96
504.187	6.96
504.387	6.96
504.587	7.03
504.787	7
504.987	7.11
505.187	7.14
505.387	7.21
505.587	7.34
505.786	7.41
505.986	7.44
506.186	7.52
506.386	7.52
506.586	7.61
506.786	7.57
506.986	7.59
507.186	7.58
507.386	7.57
507.585	7.55
507.785	7.44
507.985	7.32
508.185	7.29
508.384	7.32
508.584	7.34
508.784	7.42
508.984	7.42
509.183	7.49
509.383	7.47
509.583	7.47
509.782	7.46
509.982	7.59
510.182	7.69
510.381	7.77
510.581	7.75
510.781	7.71
510.98	7.74
511.18	7.68
511.379	7.61
511.579	7.67
511.778	7.74
511.978	7.78
512.177	7.89
512.377	7.9
512.576	7.97
512.776	8.03
512.975	8.13
513.175	8.12
513.374	8.26
513.573	8.33
513.773	8.38
513.972	8.5
514.172	8.52
514.371	8.46
514.57	8.46
514.77	8.43
514.969	8.45
515.168	8.47
515.367	8.5
515.567	8.49
515.766	8.53
515.965	8.52
516.164	8.48
516.364	8.63
516.563	8.72
516.762	8.8
516.961	8.87
517.16	8.92
517.359	9
517.559	9.01
517.758	9.1
517.957	9.15
518.156	9.19
518.355	9.29
518.554	9.28
518.753	9.3
518.952	9.32
519.151	9.37
519.35	9.44
519.549	9.48
519.748	9.57
519.947	9.57
520.146	9.6
520.345	9.67
520.544	9.69
520.743	9.78
520.942	9.91
521.141	9.96
521.339	10.02
521.538	10.06
521.737	10.04
521.936	10.08
522.135	10.13
522.333	10.18
522.532	10.25
522.731	10.19
522.93	10.18
523.129	10.2
523.327	10.26
523.526	10.25
523.725	10.29
523.923	10.42
524.122	10.51
524.321	10.59
524.519	10.62
524.718	10.65
524.917	10.84
525.115	10.9
525.314	10.95
525.512	11.06
525.711	11.15
525.909	11.23
526.108	11.3
526.306	11.31
526.505	11.37
526.703	11.52
526.902	11.59
527.1	11.56
527.299	11.66
527.497	11.74
527.696	11.76
527.894	11.8
528.092	11.84
528.291	11.87
528.489	11.97
528.688	12.02
528.886	12.02
529.084	12.09
529.283	12.2
529.481	12.27
529.679	12.3
529.877	12.43
530.076	12.54
530.274	12.64
530.472	12.77
530.67	12.84
530.869	13
531.067	13.16
531.265	13.27
531.463	13.39
531.661	13.46
531.859	13.54
532.057	13.59
532.255	13.65
532.454	13.72
532.652	13.82
532.85	13.88
533.048	13.91
533.246	13.94
533.444	13.96
533.642	13.99
533.84	14.04
534.038	14.14
534.236	14.21
534.434	14.32
534.632	14.4
534.83	14.44
535.027	14.61
535.225	14.68
535.423	14.82
535.621	14.95
535.819	15.02
536.017	15.07
536.215	15.17
536.412	15.27
536.61	15.35
536.808	15.45
537.006	15.54
537.203	15.6
537.401	15.72
537.599	15.84
537.797	15.98
537.994	16.17
538.192	16.33
538.39	16.41
538.587	16.49
538.785	16.52
538.983	16.65
539.18	16.76
539.378	16.78
539.575	16.88
539.773	16.95
539.97	16.97
540.168	17.04
540.366	17.09
540.563	17.15
540.761	17.24
540.958	17.32
541.155	17.33
541.353	17.37
541.55	17.45
541.748	17.5
541.945	17.57
542.143	17.65
542.34	17.7
542.537	17.79
542.735	17.91
542.932	17.94
543.129	18.04
543.327	18.21
543.524	18.35
543.721	18.42
543.919	18.54
544.116	18.65
544.313	18.79
544.51	18.89
544.708	19.06
544.905	19.16
545.102	19.35
545.299	19.47
545.496	19.47
545.693	19.56
545.891	19.68
546.088	19.7
546.285	19.73
546.482	19.74
546.679	19.82
546.876	19.77
547.073	19.8
547.27	19.81
547.467	19.79
547.664	19.94
547.861	20.04
548.058	20
548.255	20.21
548.452	20.27
548.649	20.36
548.846	20.45
549.043	20.55
549.24	20.62
549.437	20.73
549.633	20.88
549.83	20.88
550.027	20.86
550.224	20.98
550.421	20.86
550.618	20.99
550.814	21.06
551.011	21.05
551.208	21.09
551.405	21.13
551.601	21.27
551.798	21.28
551.995	21.2
552.191	21.29
552.388	21.42
552.585	21.5
552.781	21.44
552.978	21.48
553.175	21.61
553.371	21.72
553.568	21.79
553.764	21.86
553.961	22.01
554.157	22.12
554.354	22.18
554.55	22.18
554.747	22.29
554.943	22.4
555.14	22.58
555.336	22.58
555.533	22.63
555.729	22.6
555.926	22.49
556.122	22.56
556.318	22.78
556.515	22.71
556.711	22.83
556.907	22.87
557.104	22.98
557.3	22.9
557.496	22.96
557.693	23
557.889	23.13
558.085	23.22
558.281	23.17
558.478	23.11
558.674	23.4
558.87	23.49
559.066	23.6
559.262	23.65
559.459	23.69
559.655	23.72
559.851	23.79
560.047	23.85
560.243	24.02
560.439	24.11
560.635	24.24
560.831	24.06
561.027	24.02
561.223	24.08
561.419	24.12
561.615	24.2
561.811	24.33
562.007	24.5
562.203	24.61
562.399	24.46
562.595	24.45
562.791	24.48
562.987	24.66
563.183	24.66
563.379	24.59
563.575	24.62
563.771	24.67
563.966	24.66
564.162	24.73
564.358	24.71
564.554	24.91
564.75	24.95
564.945	24.9
565.141	24.85
565.337	25
565.533	25
565.728	25.02
565.924	25.02
566.12	24.97
566.315	24.89
566.511	24.98
566.707	24.98
566.902	25.12
567.098	25.3
567.293	25.4
567.489	25.35
567.684	25.42
567.88	25.54
568.076	25.65
568.271	25.71
568.467	25.77
568.662	25.78
568.858	25.82
569.053	25.76
569.248	25.61
569.444	25.65
569.639	25.74
569.835	25.86
570.03	25.9
570.225	25.89
570.421	25.99
570.616	25.92
570.812	25.93
571.007	25.91
571.202	25.99
571.397	26.12
571.593	26.19
571.788	26.21
571.983	26.17
572.178	26.14
572.374	26.2
572.569	26.27
572.764	26.39
572.959	26.41
573.154	26.44
573.35	26.46
573.545	26.47
573.74	26.4
573.935	26.41
574.13	26.53
574.325	26.54
574.52	26.45
574.715	26.37
574.91	26.5
575.105	26.52
575.3	26.55
575.495	26.58
575.69	26.66
575.885	26.83
576.08	26.96
576.275	26.9
576.47	27.03
576.665	27.17
576.86	27.32
577.055	27.26
577.25	27.53
577.444	27.67
577.639	27.69
577.834	27.76
578.029	27.83
578.224	27.86
578.418	28.01
578.613	28.01
578.808	28.1
579.003	28.05
579.197	28.01
579.392	27.83
579.587	27.81
579.781	27.88
579.976	27.81
580.171	27.76
580.365	27.79
580.56	27.91
580.755	28
580.949	28
581.144	28.04
581.338	28.18
581.533	28.24
581.727	28.39
581.922	28.37
582.116	28.41
582.311	28.42
582.505	28.36
582.7	28.24
582.894	28.27
583.089	28.4
583.283	28.56
583.478	28.73
583.672	28.67
583.866	28.6
584.061	28.73
584.255	28.81
584.449	28.9
584.644	28.92
584.838	29.02
585.032	29.14
585.226	29.04
585.421	29.14
585.615	28.95
585.809	29.05
586.003	29.16
586.198	29.13
586.392	29.15
586.586	28.96
586.78	28.95
586.974	28.97
587.168	28.8
587.363	28.83
587.557	28.76
587.751	28.88
587.945	28.71
588.139	28.71
588.333	28.68
588.527	28.72
588.721	28.81
588.915	28.86
589.109	28.79
589.303	28.91
589.497	28.92
589.691	28.77
589.885	28.63
590.079	28.88
590.273	28.63
590.466	28.71
590.66	28.68
590.854	28.7
591.048	28.85
591.242	29.02
591.436	29.07
591.629	29.2
591.823	29.36
592.017	29.52
592.211	29.49
592.404	29.79
592.598	29.79
592.792	29.73
592.986	29.77
593.179	29.71
593.373	29.57
593.567	29.58
593.76	29.52
593.954	29.44
594.147	29.41
594.341	29.45
594.535	29.29
594.728	29.4
594.922	29.52
595.115	29.49
595.309	29.39
595.502	29.41
595.696	29.39
595.889	29.5
596.083	29.57
596.276	29.56
596.47	29.51
596.663	29.61
596.856	29.62
597.05	29.56
597.243	29.62
597.437	29.68
597.63	29.69
597.823	29.68
598.017	29.63
598.21	29.59
598.403	29.7
598.596	29.87
598.79	30.03
598.983	30.02
599.176	30.12
599.369	30.23
599.563	30.24
599.756	30.37
599.949	30.3
600.142	30.37
600.335	30.36
600.528	30.33
600.722	30.3
600.915	30.18
601.108	30.18
601.301	30.13
601.494	30.07
601.687	30.09
601.88	30.07
602.073	30.19
602.266	30.13
602.459	30.22
602.652	30.2
602.845	30.18
603.038	30.05
603.231	30.06
603.424	30.14
603.617	30.13
603.809	30.13
604.002	30.15
604.195	30.16
604.388	30.27
604.581	30.28
604.774	30.26
604.966	30.17
605.159	30.24
605.352	30.17
605.545	30.12
605.737	30.18
605.93	30.26
606.123	30.17
606.316	30.18
606.508	30.21
606.701	30.2
606.894	30.33
607.086	30.51
607.279	30.67
607.471	30.69
607.664	30.81
607.857	30.92
608.049	31.1
608.242	31.35
608.434	31.56
608.627	31.78
608.819	32.04
609.012	32.29
609.204	32.62
609.397	32.92
609.589	33.37
609.782	33.76
609.974	34.28
610.166	34.66
610.359	35.14
610.551	35.53
610.743	35.69
610.936	35.93
611.128	36.24
611.32	36.36
611.513	36.49
611.705	36.55
611.897	36.55
612.09	36.27
612.282	36.02
612.474	35.74
612.666	35.56
612.858	35.43
613.051	35.33
613.243	34.78
613.435	34.5
613.627	34.39
613.819	34.34
614.011	34.27
614.203	34.18
614.395	34.21
614.588	34.01
614.78	33.88
614.972	33.71
615.164	33.63
615.356	33.7
615.548	33.61
615.74	33.28
615.932	32.81
616.124	32.52
616.315	32.45
616.507	32.4
616.699	32.39
616.891	32.17
617.083	31.87
617.275	31.47
617.467	31.32
617.659	31.38
617.85	31.55
618.042	31.77
618.234	31.69
618.426	31.51
618.618	31.34
618.809	31.24
619.001	31.25
619.193	31.41
619.384	31.47
619.576	31.54
619.768	31.57
619.959	31.47
620.151	31.41
620.343	31.47
620.534	31.56
620.726	31.55
620.917	31.52
621.109	31.59
621.301	31.73
621.492	31.92
621.684	31.84
621.875	31.82
622.067	31.98
622.258	31.98
622.45	32.13
622.641	32.01
622.832	31.97
623.024	32.07
623.215	32.07
623.407	31.86
623.598	31.71
623.789	31.72
623.981	31.6
624.172	31.4
624.363	31.44
624.555	31.33
624.746	31.33
624.937	31.33
625.129	31.28
625.32	31.25
625.511	31.28
625.702	31.43
625.893	31.65
626.085	31.65
626.276	31.69
626.467	31.54
626.658	31.53
626.849	31.52
627.04	31.56
627.231	31.52
627.422	31.6
627.614	31.66
627.805	31.49
627.996	31.38
628.187	31.5
628.378	31.49
628.569	31.65
628.76	31.65
628.951	31.79
629.142	31.9
629.332	32.02
629.523	31.89
629.714	32.02
629.905	32.25
630.096	32.24
630.287	32.36
630.478	32.37
630.669	32.25
630.859	32.4
631.05	32.44
631.241	32.4
631.432	32.36
631.623	32.49
631.813	32.31
632.004	32.2
632.195	32.22
632.385	32.02
632.576	31.95
632.767	31.96
632.957	31.63
633.148	31.66
633.339	31.5
633.529	31.57
633.72	31.63
633.91	31.89
634.101	31.86
634.292	31.69
634.482	31.61
634.673	31.61
634.863	31.63
635.054	31.78
635.244	31.56
635.435	31.55
635.625	31.47
635.815	31.43
636.006	31.21
636.196	31.13
636.387	31.26
636.577	31.51
636.767	31.81
636.958	31.85
637.148	31.71
637.338	31.7
637.529	31.76
637.719	31.76
637.909	31.73
638.099	31.67
638.29	31.76
638.48	31.79
638.67	31.56
638.86	31.35
639.05	31.34
639.241	31.48
639.431	31.6
639.621	31.48
639.811	31.31
640.001	31.15
640.191	31.29
640.381	31.46
640.571	31.35
640.761	31.47
640.951	31.22
641.141	31.27
641.331	31.24
641.521	31.15
641.711	31.31
641.901	31.46
642.091	31.51
642.281	31.47
642.471	31.42
642.661	31.43
642.851	31.44
643.041	31.88
643.231	31.77
643.42	31.92
643.61	32.24
643.8	32.31
643.99	32.3
644.18	32.32
644.369	32.41
644.559	32.27
644.749	32.24
644.939	32.2
645.128	32.31
645.318	32.37
645.508	32.43
645.697	32.18
645.887	32.17
646.076	32.15
646.266	32.21
646.456	32.09
646.645	32.21
646.835	32.36
647.024	32.42
647.214	32.12
647.403	32.15
647.593	32.04
647.782	32.16
647.972	32.3
648.161	32.5
648.351	32.61
648.54	32.58
648.73	32.61
648.919	32.72
649.108	32.71
649.298	32.78
649.487	32.98
649.677	32.79
649.866	32.61
650.055	32.41
650.244	32.33
650.434	32.21
650.623	32.15
650.812	32.01
651.002	31.98
651.191	31.95
651.38	31.84
651.569	31.87
651.758	31.88
651.947	31.87
652.137	31.87
652.326	31.76
652.515	31.91
652.704	32.18
652.893	32.21
653.082	32.09
653.271	32.2
653.46	32.23
653.649	31.84
653.838	31.97
654.027	31.85
654.216	31.67
654.405	31.85
654.594	31.75
654.783	31.6
654.972	31.66
655.161	31.71
655.35	31.5
655.539	31.49
655.728	31.65
655.916	31.72
656.105	31.97
656.294	32.13
656.483	31.97
656.672	31.74
656.86	31.71
657.049	31.77
657.238	31.65
657.427	31.58
657.615	31.48
657.804	31.46
657.993	31.32
658.181	31.2
658.37	31.13
658.559	30.99
658.747	31.22
658.936	31.26
659.125	31.07
659.313	31.09
659.502	31.2
659.69	31.26
659.879	31.21
660.067	31.23
660.256	31.28
660.444	31.22
660.633	31.6
660.821	31.49
661.01	31.45
661.198	31.52
661.387	31.6
661.575	31.46
661.763	31.6
661.952	31.77
662.14	31.96
662.328	32.12
662.517	32.5
662.705	32.1
662.893	32.13
663.082	32.21
663.27	32.67
663.458	32.7
663.646	32.96
663.834	33.12
664.023	33.13
664.211	32.94
664.399	32.92
664.587	32.81
664.775	32.94
664.963	33.03
665.152	32.84
665.34	32.46
665.528	32.41
665.716	32.54
665.904	32.31
666.092	32.35
666.28	32.38
666.468	32.23
666.656	32.14
666.844	32.12
667.032	31.9
667.22	32.07
667.408	32.16
667.596	32.2
667.784	32.23
667.971	32.27
668.159	32.26
668.347	32.37
668.535	32.62
668.723	32.72
668.911	32.7
669.098	32.9
669.286	32.77
669.474	32.51
669.662	32.57
669.849	32.35
670.037	32.33
670.225	32.31
670.413	32.37
670.6	32.06
670.788	31.85
670.976	32.05
671.163	31.84
671.351	31.87
671.538	31.97
671.726	31.75
671.913	31.7
672.101	31.53
672.289	31.33
672.476	31.04
672.664	31.22
672.851	31.33
673.039	31.27
673.226	31.66
673.413	31.62
673.601	31.79
673.788	31.99
673.976	32.03
674.163	32.02
674.35	32.11
674.538	32.11
674.725	31.88
674.912	31.92
675.1	31.68
675.287	31.28
675.474	31.12
675.662	31.01
675.849	31.01
676.036	31.04
676.223	31.4
676.411	31.38
676.598	31.52
676.785	31.6
676.972	31.57
677.159	31.71
677.346	31.7
677.533	31.66
677.721	31.54
677.908	31.33
678.095	31.13
678.282	30.74
678.469	30.63
678.656	30.57
678.843	30.51
679.03	30.52
679.217	30.75
679.404	30.56
679.591	30.61
679.778	30.77
679.964	30.96
680.151	31.05
680.338	31.15
680.525	31.05
680.712	31.17
680.899	31.26
681.086	31.26
681.272	30.85
681.459	31.09
681.646	31.12
681.833	31.13
682.02	31.11
682.206	31.18
682.393	31.16
682.58	31.34
682.766	31.44
682.953	31.32
683.14	31.31
683.326	31.57
683.513	31.86
683.7	32.03
683.886	31.85
684.073	31.71
684.259	31.59
684.446	31.91
684.632	31.87
684.819	31.56
685.005	32.01
685.192	32.12
685.378	32.04
685.565	31.76
685.751	31.63
685.938	31.77
686.124	31.7
686.31	31.9
686.497	31.87
686.683	31.99
686.87	32.3
687.056	32.18
687.242	32.41
687.429	32.42
687.615	32.55
687.801	32.51
687.987	32.38
688.174	32.48
688.36	32.44
688.546	32.33
688.732	32.28
688.918	31.97
689.105	31.57
689.291	31.47
689.477	31.44
689.663	31.33
689.849	31.42
690.035	31.44
690.221	31.39
690.407	31.54
690.593	31.63
690.779	31.72
690.965	31.88
691.151	32.13
691.337	32.12
691.523	32.21
691.709	32.19
691.895	32.56
692.081	32.68
692.267	32.71
692.453	32.54
692.639	32.22
692.825	32.24
693.011	32.23
693.196	32.31
693.382	32.24
693.568	32.26
693.754	32.39
693.94	32.33
694.125	31.99
694.311	32.25
694.497	32.08
694.682	32.22
694.868	32.21
695.054	32.16
695.239	31.94
695.425	32.07
695.611	31.95
695.796	32.05
695.982	31.56
696.168	32.23
696.353	31.83
696.539	31.86
696.724	31.66
696.91	31.49
697.095	31.52
697.281	31.55
697.466	31.29
697.652	31.07
697.837	30.78
698.023	30.9
698.208	30.47
698.393	30.44
698.579	30.36
698.764	30.37
698.949	30.23
699.135	30.12
699.32	30.26
699.505	30.33
699.691	30.47
699.876	30.53
700.061	30.61
700.246	30.98
700.432	31.1
700.617	31.1
700.802	31.04
700.987	31.37
701.172	31.38
701.358	31.28
701.543	31.03
701.728	31.13
701.913	31.09
702.098	31.1
702.283	31.06
702.468	31.26
702.653	31.6
702.838	32.23
703.023	32.15
703.208	32.25
703.393	32.55
703.578	32.66
703.763	32.67
703.948	32.83
704.133	32.69
704.318	32.49
704.503	32.51
704.688	32.21
704.873	31.98
705.057	32.17
705.242	32.3
705.427	32.19
705.612	32.47
705.797	32.35
705.981	32.27
706.166	32.22
706.351	32.07
706.536	32.22
706.72	32.33
706.905	32.39
707.09	32.3
707.274	32.13
707.459	31.98
707.644	32.04
707.828	32.21
708.013	32.33
708.197	32.46
708.382	33.16
708.567	32.86
708.751	32.99
708.936	33.09
709.12	32.84
709.305	33.13
709.489	33.08
709.673	32.88
709.858	32.81
710.042	32.81
710.227	32.99
710.411	32.31
710.596	32.53
710.78	32.63
710.964	32.57
711.149	33.03
711.333	33.05
711.517	33.02
711.702	33.18
711.886	33.48
712.07	33.31
712.254	32.8
712.438	33.04
712.623	32.91
712.807	32.53
712.991	32.29
713.175	31.83
713.359	31.44
713.544	31.5
713.728	31.56
713.912	31.5
714.096	31.55
714.28	31.96
714.464	31.87
714.648	31.46
714.832	31.33
715.016	31.24
715.2	31.29
715.384	31.53
715.568	31.58
715.752	31.34
715.936	30.85
716.12	30.77
716.304	30.67
716.488	30.49
716.671	30.84
716.855	31.12
717.039	31.23
717.223	31.13
717.407	31.28
717.59	31.19
717.774	31.2
717.958	31.72
718.142	31.65
718.325	31.3
718.509	31.86
718.693	31.72
718.877	31.68
719.06	31.71
719.244	31.64
719.428	31.08
719.611	30.9
719.795	31.09
719.978	30.97
720.162	31.48
720.345	31.76
720.529	31.09
720.713	30.88
720.896	30.55
721.08	30.46
721.263	30.75
721.446	31.46
721.63	32.13
721.813	31.82
721.997	31.48
722.18	31.03
722.364	31.05
722.547	31.52
722.73	32.02
722.914	32.69
723.097	32.58
723.28	32.64
723.464	32.62
723.647	32.05
723.83	32.14
724.013	32.78
724.197	32.81
724.38	32.89
724.563	33.1
724.746	33.18
724.929	33.51
725.112	33.5
725.296	33.81
725.479	33.25
725.662	32.98
725.845	32.87
726.028	32.58
726.211	32.99
726.394	32.82
726.577	32.29
726.76	32.27
726.943	31.67
727.126	31.48
727.309	31.04
727.492	30.97
727.675	31.14
727.858	31.28
728.041	31.06
728.224	30.62
728.407	30.65
728.589	30.57
728.772	30.03
728.955	30.59
729.138	30.68
729.321	30.1
729.503	30.42
729.686	30.9
729.869	30.73
730.052	31
730.234	31.04
730.417	30.9
730.6	31.17
730.782	31.37
730.965	30.52
731.148	30.8
731.33	31.5
731.513	31.36
731.695	31.06
731.878	31.13
732.061	31
732.243	31.23
732.426	31.49
732.608	31.33
732.791	31.46
732.973	31.95
733.156	31.57
733.338	31.52
733.52	31.83
733.703	31.45
733.885	31.51
734.068	31.53
734.25	31.39
734.432	31.55
734.615	31.25
734.797	30.95
734.979	30.88
735.162	31.54
735.344	31.3
735.526	30.73
735.708	30.95
735.891	30.59
736.073	30.46
736.255	30.77
736.437	30.41
736.619	30.44
736.802	30.77
736.984	30.78
737.166	30.36
737.348	30.63
737.53	30.94
737.712	31.11
737.894	31.67
738.076	31.7
738.258	31.68
738.44	31.51
738.622	31.34
738.804	31.69
738.986	31.62
739.168	31.24
739.35	31.08
739.532	30.92
739.714	30.88
739.896	31.01
740.078	31.1
740.259	30.85
740.441	31.39
740.623	32.01
740.805	31.76
740.987	31.72
741.168	32.04
741.35	32.48
741.532	32.61
741.714	32.75
741.895	32.47
742.077	32.26
742.259	31.68
742.44	31.66
742.622	31.59
742.804	31.28
742.985	30.74
743.167	30.45
743.348	30.36
743.53	30.82
743.711	30.52
743.893	30.02
744.075	30.46
744.256	31.72
744.438	32.05
744.619	31.48
744.8	31.09
744.982	31.36
745.163	32.13
745.345	31.76
745.526	31.33
745.707	31.9
745.889	32.49
746.07	31.55
746.252	30.73
746.433	30.12
746.614	30.88
746.795	30.78
746.977	30.55
747.158	30.25
747.339	30.6
747.52	30
747.702	28.98
747.883	28.67
748.064	29.48
748.245	29.61
748.426	29.14
748.607	28.72
748.788	29.02
748.97	29.42
749.151	29.26
749.332	29.01
749.513	30.12
749.694	30.56
749.875	30.52
750.056	30.57
750.237	30.03
750.418	30.84
750.599	30.69
750.78	31.29
750.96	30.45
751.141	30.5
751.322	30.31
751.503	30.16
751.684	29.95
751.865	30.6
752.046	30.34
752.226	31.39
752.407	30.98
752.588	30.62
752.769	30.74
752.949	32.16
753.13	32.39
753.311	32.61
753.492	32.38
753.672	32.02
753.853	31.89
754.034	32.07
754.214	31.24
754.395	30.82
754.575	31.48
754.756	30.73
754.937	30.2
755.117	30.34
755.298	30.19
755.478	29.76
755.659	30.5
755.839	29.42
756.02	29.84
756.2	30.6
756.381	30.33
756.561	30.06
756.741	30.49
756.922	30.67
757.102	30.11
757.283	30.17
757.463	30.26
757.643	30.42
757.823	30.89
758.004	30.08
758.184	29.81
758.364	31.13
758.545	31.26
758.725	31.34
758.905	30.58
759.085	30.87
759.265	31.1
759.446	31.21
759.626	31.17
759.806	31.62
759.986	32.14
760.166	32.39
760.346	31.89
760.526	31.89
760.706	31.83
760.886	33
761.066	33.37
761.246	33.23
761.426	33.35
761.606	32.88
761.786	32.24
761.966	32.23
762.146	31.48
762.326	31.12
762.506	31.05
762.686	30.66
762.866	29.83
763.046	29.65
763.225	29.45
763.405	29.25
763.585	29.47
763.765	29.49
763.945	29.27
764.124	29.42
764.304	29.1
764.484	29.35
764.664	29.28
764.843	29.5
765.023	29.39
765.203	29.2
765.382	29.28
765.562	29.06
765.741	29.28
765.921	29.18
766.101	29.43
766.28	29.91
766.46	29.48
766.639	29.92
766.819	30.47
766.998	30.1
767.178	30.29
767.357	30.18
767.537	29.87
767.716	29.83
767.896	29.41
768.075	29.27
768.254	29.11
768.434	29.5
768.613	29.69
768.792	28.98
768.972	30.09
769.151	30.15
769.33	30.39
769.51	30.53
769.689	30.6
769.868	31.29
770.047	31.26
770.226	31.27
770.406	31.53
770.585	31.29
770.764	32.09
770.943	30.64
771.122	31.37
771.301	30.93
771.48	31.88
771.66	31.37
771.839	30.55
772.018	30.09
772.197	30.47
772.376	29.84
772.555	29.55
772.734	28.81
772.913	30.33
773.092	30.11
773.271	30.32
773.449	29.51
773.628	30.3
773.807	30.49
773.986	31.3
774.165	30.77
774.344	30.92
774.523	30.89
774.701	31.69
774.88	30.9
775.059	30.61
775.238	30.65
775.417	30.8
775.595	31.14
775.774	32.13
775.953	31.72
776.131	32.23
776.31	32.56
776.489	32.68
776.667	31.8
776.846	31.42
777.025	31.27
777.203	31.27
777.382	31.62
777.56	31.26
777.739	31.05
777.917	31.59
778.096	31.85
778.274	32.1
778.453	32.35
778.631	32.31
778.81	32.44
778.988	32.86
779.166	33.23
779.345	32.8
779.523	33.27
779.702	32.96
779.88	32.4
780.058	32.21
780.237	31.98
780.415	31.85
780.593	31.62
780.771	32.3
780.95	31.77
781.128	31.57
781.306	32.23
781.484	31.49
781.662	31.34
781.841	31.26
782.019	31.3
782.197	30.84
782.375	31.03
782.553	30.91
782.731	30.26
782.909	30.87
783.087	31.98
783.265	32.16
783.443	32.34
783.621	33.42
783.799	33.7
783.977	33.68
784.155	34.62
784.333	34.68
784.511	35
784.689	35.15
784.867	35.04
785.045	33.86
785.223	34.19
785.4	33.63
785.578	33.29
785.756	33.28
785.934	32.4
786.112	31.17
786.289	31.48
786.467	31.71
786.645	30.81
786.823	30.24
787	29.55
787.178	28.32
787.356	29.25
787.533	28.45
787.711	29.69
787.889	30.89
788.066	31.21
788.244	31.11
788.421	30.99
788.599	31.86
788.776	32.51
788.954	33.03
789.131	33.64
789.309	33.37
789.486	32.77
789.664	31.58
789.841	32.26
790.019	31.76
790.196	30.97
790.373	31.37
790.551	31.58
790.728	31.19
790.906	31.08
791.083	30.13
791.26	30.26
791.437	31.76
791.615	31.29
791.792	30.58
791.969	31.42
792.146	31.38
792.324	32.05
792.501	31.87
792.678	30.76
792.855	30.85
793.032	31.7
793.209	30.79
793.387	30.4
793.564	31.78
793.741	30.89
793.918	30.87
794.095	30.88
794.272	30.64
794.449	29.97
794.626	31.67
794.803	32.21
794.98	32.55
795.157	31.88
795.334	30.29
795.511	29.51
795.688	30.28
795.864	30.59
796.041	30.87
796.218	30.3
796.395	31
796.572	30.68
796.749	30.57
796.925	30.57
797.102	31.67
797.279	32.29
797.456	32.63
797.632	32.25
797.809	31.23
797.986	31.42
798.162	31.04
798.339	30.92
798.516	30.2
798.692	30.8
798.869	29.12
799.046	28.51
799.222	30.02
799.399	29.52
799.575	30.2
799.752	30.61
799.928	29.36
800.105	30.26
800.281	30.51
800.458	31.07
800.634	30.48
800.811	32.18
800.987	32.57
801.163	32.54
801.34	33.41
801.516	32.7
801.692	33.05
801.869	34.04
802.045	35.04
802.221	34.99
802.398	34.09
802.574	34.01
802.75	33.03
802.926	34.02
803.103	33.05
803.279	32.06
803.455	33.13
803.631	33.59
803.807	34.07
803.983	33.31
804.16	32.78
804.336	34.46
804.512	34.15
804.688	35.11
804.864	33.9
805.04	33.74
805.216	34.95
805.392	34.19
805.568	34.03
805.744	33.98
805.92	33.72
806.096	35.21
806.272	33.93
806.448	34.24
806.623	33.99
806.799	34.46
806.975	35.42
807.151	34.2
807.327	33.86
807.503	32.07
807.678	33.24
807.854	30.83
808.03	30.21
808.206	30.45
808.381	30.87
808.557	31.24
808.733	31.74
808.908	31.8
809.084	31.89
809.26	32.4
809.435	33.22
809.611	32.45
809.787	34.43
809.962	34.32
810.138	34.48
810.313	34.22
810.489	33.31
810.664	31.92
810.84	33.47
811.015	32.54
811.191	32.88
811.366	33.57
811.542	32.99
811.717	32.53
811.892	33.61
812.068	34.67
812.243	34.01
812.419	34.85
812.594	35.19
812.769	33.22
812.944	34.72
813.12	33.97
813.295	34.16
813.47	34.96
813.645	35.83
813.821	34.2
813.996	34.21
814.171	35.17
814.346	36.26
814.521	38.15
814.697	38.36
814.872	38.91
815.047	39.12
815.222	40.18
815.397	39.1
815.572	38.92
815.747	39.71
815.922	39.22
816.097	38.41
816.272	37.38
816.447	35.18
816.622	35.63
816.797	35.79
816.972	36.91
817.147	35.26
817.322	35.33
817.496	35.63
817.671	34.11
817.846	34.41
818.021	34.5
818.196	34.38
818.371	34.08
818.545	32.19
818.72	30.59
818.895	28.55
819.069	29.83
819.244	29.83
819.419	28.37
819.594	29.04
819.768	28.56
819.943	29.24
820.117	28.77
820.292	29.19
820.467	29.98
820.641	29.62
820.816	29.32
820.99	28.32
821.165	28.09
821.339	27.86
821.514	27.56
821.688	27.16
821.863	26.39
822.037	26.07
822.212	25.65
822.386	25.25
822.56	25.33
822.735	25.35
822.909	25.19
823.084	24.89
823.258	24.78
823.432	24.68
823.606	24.67
823.781	25.04
823.955	25.37
824.129	25.77
824.303	26.05
824.478	26
824.652	25.88
824.826	25.9
825	26.11
825.174	26.64
825.348	26.9
825.523	26.98
825.697	26.92
825.871	26.84
826.045	26.6
826.219	26.26
826.393	26.14
826.567	26.21
826.741	26.17
826.915	26.58
827.089	26.02
827.263	26.25
827.437	26.42
827.611	26.52
827.784	26.39
827.958	26.72
828.132	27.32
828.306	27.51
828.48	27.64
828.654	27.73
828.827	27.51
829.001	27.64
829.175	27.62
829.349	28.24
829.522	28.3
829.696	28.81
829.87	28.9
830.044	28.69
830.217	30.11
830.391	30.42
830.565	31.87
830.738	33.06
830.912	34.84
831.085	35.82
831.259	35.31
831.432	34.51
831.606	34.88
831.779	35.15
831.953	35.68
832.126	33.31
832.3	33.63
832.473	32.89
832.647	32
832.82	31.45
832.994	29.92
833.167	29.05
833.34	29.18
833.514	27.99
833.687	27.29
833.86	26.97
834.034	27.1
834.207	26.59
834.38	26.33
834.553	26.8
834.727	26.84
834.9	27.13
835.073	27.55
835.246	28.06
835.419	28.37
835.593	28.85
835.766	28.77
835.939	29.59
836.112	30.98
836.285	30.63
836.458	30.87
836.631	31.16
836.804	31.66
836.977	31.46
837.15	31.01
837.323	32.5
837.496	33.02
837.669	32.49
837.842	32.65
838.015	32.31
838.188	33.44
838.361	32.22
838.533	31.2
838.706	31.3
838.879	31.45
839.052	32.91
839.225	32.26
839.398	32.56
839.57	34.76
839.743	35.66
839.916	35.72
840.088	36.12
840.261	37.31
840.434	39.42
840.607	38.5
840.779	38.56
840.952	37.59
841.124	37.63
841.297	37.01
841.47	37.33
841.642	35.25
841.815	34.73
841.987	33.54
842.16	33.82
842.332	33.23
842.505	33.93
842.677	36.06
842.85	35.69
843.022	35.64
843.194	36.7
843.367	35.7
843.539	38.27
843.712	40.16
843.884	41.08
844.056	40.39
844.229	39.23
844.401	41.12
844.573	40.93
844.745	41
844.918	41.4
845.09	42.81
845.262	41.45
845.434	43.75
845.606	39.42
845.779	43.42
845.951	46.3
846.123	48.6
846.295	48.27
846.467	48.19
846.639	51.27
846.811	52.81
846.983	51.27
847.155	53.49
847.327	52.1
847.499	57.66
847.671	53.17
847.843	50.59
848.015	49.46
848.187	46.64
848.359	45.85
848.531	43.25
848.703	42.02
848.875	38.16
849.047	36.96
849.218	36.73
849.39	33.7
849.562	37.88
849.734	40.89
849.905	43.41
850.077	47.04
850.249	50.82
850.421	50.85
850.592	51.79
850.764	54.24
850.936	52.95
851.107	53.91
851.279	55.86
851.451	50.77
851.622	49.89
851.794	47.62
851.965	47.33
852.137	43.28
852.308	45.29
852.48	46.79
852.651	50.1
852.823	52.14
852.994	51.31
853.166	51.87
853.337	56.1
853.509	54.66
853.68	52.2
853.851	51.27
854.023	54.4
854.194	49.83
854.365	47.74
854.537	46.95
854.708	49.28
854.879	48.85
855.05	47.44
855.222	45.5
855.393	47.76
855.564	54.07
855.735	53.99
855.906	53.63
856.078	61.24
856.249	63.6
856.42	63.24
856.591	62.43
856.762	66.92
856.933	66.69
857.104	67.7
857.275	65.54
857.446	62.39
857.617	60.42
857.788	56.42
857.959	49.68
858.13	49.98
858.301	51.92
858.472	52.96
858.643	47.66
858.814	47.24
858.985	45.85
859.155	49.36
859.326	53.53
859.497	56.91
859.668	56.56
859.839	55.42
860.009	59.43
860.18	58.99
860.351	55.48
860.522	59.17
860.692	60.82
860.863	62.76
861.034	59.15
861.204	54.04
861.375	55.97
861.546	57.84
861.716	59.02
861.887	53.63
862.057	54.19
862.228	57.14
862.398	55.12
862.569	57.69
862.739	60.05
862.91	63.39
863.08	70.44
863.251	66.63
863.421	67.1
863.592	68.08
863.762	71.31
863.932	70.42
864.103	70.75
864.273	67.98
864.443	63.63
864.614	63.35
864.784	62.86
864.954	56.46
865.125	58.05
865.295	60.56
865.465	60.49
865.635	55.11
865.805	56.31
865.976	56.98
866.146	57.82
866.316	59.15
866.486	62.53
866.656	60.7
866.826	61.74
866.996	61.17
867.166	57.72
867.336	53.13
867.506	54.1
867.676	51.79
867.846	52.46
868.016	58.9
868.186	58.18
868.356	52.47
868.526	55.77
868.696	57.08
868.866	60.74
869.036	63.22
869.206	65.35
869.376	67.15
869.545	65.54
869.715	64.43
869.885	59.45
870.055	56.41
870.224	53.95
870.394	54.41
870.564	55.41
870.734	52.9
870.903	49.8
871.073	49.52
871.243	50.72
871.412	50.4
871.582	43.28
871.751	46.49
871.921	47.63
872.091	50.78
872.26	46.11
872.43	43.92
872.599	46.93
872.769	49.38
872.938	47.3
873.108	48.96
873.277	53.78
873.446	57.13
873.616	55.05
873.785	62.14
873.955	60.06
874.124	63.57
874.293	57.59
874.463	52.56
874.632	49.7
874.801	57.47
874.971	56.17
875.14	50.66
875.309	49.53
875.478	48.77
875.647	45.54
875.817	48.11
875.986	47.9
876.155	57.31
876.324	58.17
876.493	57.92
876.662	55.12
876.831	55.34
877	58.57
877.17	59.64
877.339	59.82
877.508	56.15
877.677	51.52
877.846	52.08
878.015	49.39
878.184	49.94
878.352	50.21
878.521	51.44
878.69	48.56
878.859	48.85
879.028	51.22
879.197	50.17
879.366	49.01
879.534	49.46
879.703	46.34
879.872	43.04
880.041	41.02
880.21	39.64
880.378	36.76
880.547	34.64
880.716	32.85
880.884	30.18
881.053	29.43
881.222	29.46
881.39	29.29
881.559	28.74
881.727	28.58
881.896	28.53
882.065	28.34
882.233	28.2
882.402	28.79
882.57	28.33
882.739	29.11
882.907	29.3
883.076	28.77
883.244	29.3
883.412	29.34
883.581	29.49
883.749	29.22
883.918	29.09
884.086	29.7
884.254	29.42
884.423	30.36
884.591	30.68
884.759	30.2
884.927	31.04
885.096	30.56
885.264	32.64
885.432	33.95
885.6	35.54
885.769	37.13
885.937	35.83
886.105	37.34
886.273	36.38
886.441	36.32
886.609	40.04
886.777	42.14
886.945	44.14
887.113	43.68
887.281	45.05
887.449	44.9
887.617	46.43
887.785	51.07
887.953	51.78
888.121	55.63
888.289	55.98
888.457	58.34
888.625	58.28
888.793	51.31
888.961	53.54
889.129	51.13
889.296	54.31
889.464	53.53
889.632	52.39
889.8	53.04
889.967	52.94
890.135	53.82
