Data from 2938766__Reflection_06.txt Node
Date: Fri Mar 13 16:14:24 EDT 2015
User: robert
Spectrometer: USB4E03002
Autoset integration time: false
Trigger mode: 4
Integration Time (sec): 1.000000E-1
Scans to average: 10
Electric dark correction enabled: false
Nonlinearity correction enabled: false
Boxcar width: 5
Stray light correction enabled: false
XAxis mode: Wavelengths
Stop averaging: false
Number of Pixels in Spectrum: 3648
>>>>>Begin Spectral Data<<<<<
177.575	-508.33
177.794	-2746.15
178.014	-448.72
178.233	-213.64
178.452	-183.94
178.672	-153.96
178.891	-45.24
179.11	-13.97
179.33	15.71
179.549	-78.22
179.768	-113.27
179.987	-69.85
180.207	-43.65
180.426	-53.05
180.645	-344.44
180.864	-1761.9
181.084	508.99
181.303	603.45
181.522	201.77
181.741	313.01
181.96	478.72
182.179	213.72
182.398	178.51
182.618	134.31
182.837	95.64
183.056	108.08
183.275	39.81
183.494	7.56
183.713	-17.85
183.932	4.57
184.151	-4.84
184.37	-4.7
184.589	4.45
184.808	9.45
185.027	6.96
185.246	1.75
185.465	-11.04
185.684	3.73
185.903	0.68
186.122	46.47
186.341	50
186.56	212.77
186.779	184.68
186.998	-74.21
187.216	-378.79
187.435	273.81
187.654	-1593.33
187.873	-159.33
188.092	3583.33
188.311	207.84
188.53	73.67
188.748	54.25
188.967	81.64
189.186	-4.19
189.405	14.46
189.623	-11.73
189.842	-81.61
190.061	-98.04
190.28	-68.03
190.498	-139.15
190.717	-71.07
190.936	-75.14
191.154	-12.23
191.373	-10.18
191.592	17.05
191.81	-20.59
192.029	51.33
192.248	128.21
192.466	38.87
192.685	37.08
192.904	52.51
193.122	61.7
193.341	17.29
193.559	65.98
193.778	125.71
193.996	588.89
194.215	-578.05
194.433	644.83
194.652	-66.2
194.87	-16.3
195.089	-1078.95
195.307	692.86
195.526	-1529.41
195.744	445.54
195.963	229.67
196.181	98.28
196.399	127.17
196.618	103.08
196.836	99.4
197.055	114.78
197.273	109.43
197.491	144.8
197.71	99.5
197.928	99.06
198.146	91.6
198.365	55.91
198.583	71.94
198.801	52.96
199.019	51.54
199.238	65.28
199.456	61.07
199.674	67.4
199.892	42.4
200.111	39.27
200.329	31.65
200.547	22.26
200.765	25.68
200.983	27.13
201.202	45.4
201.42	51.06
201.638	35.8
201.856	9.15
202.074	19.18
202.292	37.25
202.51	41.94
202.728	30.16
202.946	66.84
203.165	59.79
203.383	64.71
203.601	43.4
203.819	46.04
204.037	35.68
204.255	37.18
204.473	7.9
204.691	17.47
204.909	29.16
205.127	21.97
205.345	-23.33
205.562	-42.36
205.78	-24.38
205.998	2.21
206.216	23.88
206.434	23.5
206.652	3.72
206.87	-24.34
207.088	-89.89
207.306	-495.24
207.523	-201.74
207.741	-39.39
207.959	19.37
208.177	-176.03
208.395	-47.65
208.612	-36.69
208.83	-57.57
209.048	-3.53
209.266	11.06
209.483	17.22
209.701	26.36
209.919	35
210.136	29.59
210.354	51.72
210.572	65.64
210.79	70.61
211.007	83.68
211.225	109.15
211.442	73.78
211.66	57.85
211.878	57.09
212.095	46.21
212.313	50.84
212.53	44.4
212.748	27.74
212.966	31.18
213.183	3.57
213.401	-12.7
213.618	-20.63
213.836	8.99
214.053	8.18
214.271	12.77
214.488	4.56
214.705	-16.98
214.923	19.85
215.14	8.56
215.358	-22.73
215.575	6.24
215.793	32.95
216.01	5.71
216.227	-20.58
216.445	-6.63
216.662	-3.55
216.879	-8.19
217.097	-0.93
217.314	-23.75
217.531	-17.65
217.749	-4.67
217.966	-5.05
218.183	-10.41
218.4	-15.35
218.618	-12.04
218.835	-2.78
219.052	1.36
219.269	21.25
219.487	22.06
219.704	34.28
219.921	33.1
220.138	32.75
220.355	23.15
220.572	19.15
220.79	38.65
221.007	41.7
221.224	33.46
221.441	33.18
221.658	18.03
221.875	12.99
222.092	7.35
222.309	17.89
222.526	22.02
222.743	27.73
222.96	28.34
223.177	22.02
223.394	17.47
223.611	21.31
223.828	13.74
224.045	15.61
224.262	11.39
224.479	14.07
224.696	9.05
224.913	7.03
225.13	9
225.347	8.86
225.564	6.63
225.781	2.44
225.997	-2.57
226.214	-0.42
226.431	0.28
226.648	-1.26
226.865	-0.53
227.082	1.35
227.298	-0.24
227.515	-0.16
227.732	-0.69
227.949	0.81
228.165	2.39
228.382	3.24
228.599	3.22
228.816	3.55
229.032	4.46
229.249	4.73
229.466	4.5
229.682	5.31
229.899	5.68
230.116	5.48
230.332	4.94
230.549	5.1
230.765	5.24
230.982	4.79
231.199	4.53
231.415	4.33
231.632	3.91
231.848	3.32
232.065	3.51
232.281	3.2
232.498	4.86
232.714	4.43
232.931	3.74
233.147	4.05
233.364	4.33
233.58	2.96
233.797	1.55
234.013	2.06
234.23	2.33
234.446	1.2
234.662	1.23
234.879	0.76
235.095	1.71
235.312	3.07
235.528	0.14
235.744	0.19
235.961	1.43
236.177	3.52
236.393	3.78
236.61	3.32
236.826	3.99
237.042	3.85
237.258	3.79
237.475	4.86
237.691	4.24
237.907	5.21
238.123	4.57
238.339	6.06
238.556	5.91
238.772	4.88
238.988	6.14
239.204	6.87
239.42	6.73
239.636	5.92
239.853	4.64
240.069	3.99
240.285	4.46
240.501	5.56
240.717	5.32
240.933	5.75
241.149	5.26
241.365	4.64
241.581	3.87
241.797	3.69
242.013	4.06
242.229	4.06
242.445	3.73
242.661	4.39
242.877	4.15
243.093	3.33
243.309	2.94
243.525	3.18
243.741	3.52
243.957	4.39
244.173	4.36
244.388	4.14
244.604	4.4
244.82	5.2
245.036	4.34
245.252	3.94
245.468	4.36
245.683	4.76
245.899	4.37
246.115	4.4
246.331	4.3
246.547	4.62
246.762	4.52
246.978	4.63
247.194	4.23
247.409	4.62
247.625	4.72
247.841	4.86
248.057	4.31
248.272	4.36
248.488	3.88
248.703	3.6
248.919	3.53
249.135	3.58
249.35	3.13
249.566	3.28
249.782	2.34
249.997	1.95
250.213	1.91
250.428	2.29
250.644	3.47
250.859	4.09
251.075	3.99
251.29	3.82
251.506	3.59
251.721	3.99
251.937	3.7
252.152	3.85
252.368	3.83
252.583	3.38
252.798	3.58
253.014	2.79
253.229	2.95
253.445	2.88
253.66	3.37
253.875	3.18
254.091	2.79
254.306	3.1
254.521	3.45
254.737	4.27
254.952	3.25
255.167	2.65
255.383	3.12
255.598	2.29
255.813	1.88
256.028	1.29
256.244	1.07
256.459	0.93
256.674	1.03
256.889	0.98
257.104	0.97
257.32	1.83
257.535	1.96
257.75	1.51
257.965	1.67
258.18	2
258.395	2.35
258.61	2.57
258.826	2.7
259.041	2.57
259.256	2.53
259.471	2.62
259.686	2.7
259.901	2.69
260.116	2.95
260.331	2.92
260.546	2.67
260.761	2.34
260.976	2.25
261.191	2.19
261.406	2.42
261.621	2.49
261.836	2.37
262.05	2.48
262.265	2.69
262.48	2.39
262.695	2.78
262.91	4.01
263.125	4.14
263.34	4.88
263.555	5.03
263.769	4.96
263.984	4.7
264.199	4.63
264.414	4.85
264.629	4.18
264.843	4.2
265.058	4.53
265.273	3.54
265.488	3.77
265.702	3.77
265.917	3.81
266.132	4.18
266.346	4.24
266.561	3.74
266.776	3.47
266.99	3.91
267.205	3.19
267.42	2.37
267.634	2.77
267.849	2.6
268.063	2.72
268.278	2.29
268.492	1.64
268.707	1.59
268.922	1.81
269.136	1.61
269.351	1.4
269.565	1.91
269.78	2.36
269.994	2.36
270.209	2.54
270.423	2.29
270.637	2.59
270.852	2.82
271.066	2.6
271.281	2.68
271.495	2.58
271.709	2.46
271.924	2.25
272.138	2.24
272.353	1.86
272.567	1.68
272.781	1.64
272.996	1.28
273.21	1.62
273.424	1.55
273.638	1.33
273.853	1.58
274.067	2.09
274.281	2.29
274.495	2
274.71	1.62
274.924	0.97
275.138	0.83
275.352	1.1
275.566	0.27
275.781	0.78
275.995	0.69
276.209	0.69
276.423	0.35
276.637	0.57
276.851	0.65
277.065	1.06
277.279	1.5
277.493	1.12
277.707	0.95
277.921	1.18
278.135	1.05
278.349	1
278.563	1.45
278.777	1.58
278.991	1.67
279.205	1.66
279.419	1.63
279.633	2.08
279.847	2.21
280.061	2.6
280.275	2.6
280.489	2.66
280.703	3.29
280.917	2.62
281.131	2.48
281.344	2.07
281.558	2
281.772	1.93
281.986	1.59
282.2	2.04
282.414	1.7
282.627	1.84
282.841	1.83
283.055	1.5
283.269	1.6
283.482	1.45
283.696	1.95
283.91	2.27
284.123	2.32
284.337	2.36
284.551	2.34
284.764	2.46
284.978	2.52
285.192	2.53
285.405	2.74
285.619	2.79
285.833	2.84
286.046	2.83
286.26	2.5
286.473	2.65
286.687	2.74
286.9	2.66
287.114	2.86
287.327	2.82
287.541	2.41
287.754	2.31
287.968	2.27
288.181	2.38
288.395	1.99
288.608	2.38
288.822	2.28
289.035	2.14
289.248	2
289.462	1.96
289.675	1.83
289.889	2.23
290.102	1.75
290.315	1.68
290.529	1.72
290.742	1.6
290.955	1.41
291.169	1.49
291.382	1.47
291.595	1.17
291.808	1.35
292.022	1.2
292.235	1
292.448	1.47
292.661	1.62
292.875	1.83
293.088	2.35
293.301	2.75
293.514	2.7
293.727	2.84
293.94	3.22
294.153	3.07
294.367	3.01
294.58	3.33
294.793	3.28
295.006	3.04
295.219	2.51
295.432	2.34
295.645	1.93
295.858	1.97
296.071	1.89
296.284	2.02
296.497	2.05
296.71	2.33
296.923	2.27
297.136	2.46
297.349	2.5
297.562	2.76
297.775	2.65
297.988	2.77
298.201	2.75
298.414	3.09
298.626	3.1
298.839	3.21
299.052	3.02
299.265	2.86
299.478	2.65
299.691	2.95
299.903	2.98
300.116	3.06
300.329	3.18
300.542	3.03
300.755	2.61
300.967	2.45
301.18	2.46
301.393	2.91
301.605	2.96
301.818	2.63
302.031	2.25
302.243	2.24
302.456	2.5
302.669	2.44
302.881	2.66
303.094	2.91
303.307	2.82
303.519	2.51
303.732	2.37
303.944	2.35
304.157	2.78
304.37	3.02
304.582	2.95
304.795	2.7
305.007	2.85
305.22	2.97
305.432	2.75
305.645	2.95
305.857	3.28
306.069	3.16
306.282	3.46
306.494	3.59
306.707	3.8
306.919	3.96
307.132	4.03
307.344	3.97
307.556	4.01
307.769	4.22
307.981	4.18
308.193	4.1
308.406	4.2
308.618	4.21
308.83	3.87
309.043	3.7
309.255	3.86
309.467	3.69
309.679	3.55
309.892	3.81
310.104	3.68
310.316	3.81
310.528	3.5
310.74	3.33
310.953	3.54
311.165	3.9
311.377	4.02
311.589	3.84
311.801	4.16
312.013	4.25
312.225	4.11
312.437	4.6
312.649	4.52
312.862	4.62
313.074	4.91
313.286	4.56
313.498	4.61
313.71	4.46
313.922	4.69
314.134	4.3
314.346	4.25
314.558	4.12
314.77	4.25
314.982	4.03
315.193	3.86
315.405	3.49
315.617	3.72
315.829	3.39
316.041	3.97
316.253	3.45
316.465	3.54
316.677	3.82
316.888	3.84
317.1	3.27
317.312	3.46
317.524	3.6
317.736	3.8
317.947	3.55
318.159	3.78
318.371	3.6
318.583	4.06
318.794	4.5
319.006	4.43
319.218	4.21
319.43	4.22
319.641	4.35
319.853	4.92
320.064	5.22
320.276	5.57
320.488	5.34
320.699	5.06
320.911	4.95
321.123	5.04
321.334	4.76
321.546	5.24
321.757	5.76
321.969	5.86
322.18	5.81
322.392	5.97
322.603	5.61
322.815	6.11
323.026	6.1
323.238	5.88
323.449	6.03
323.661	6.36
323.872	6.06
324.083	5.76
324.295	5.85
324.506	5.78
324.718	5.38
324.929	5.83
325.14	5.62
325.352	5.77
325.563	6.04
325.774	5.87
325.986	5.8
326.197	5.97
326.408	5.92
326.62	5.82
326.831	5.74
327.042	6.35
327.253	6.28
327.464	6.2
327.676	6.48
327.887	6.69
328.098	6.96
328.309	7.16
328.52	7.24
328.732	7.21
328.943	7.51
329.154	7.83
329.365	7.74
329.576	7.84
329.787	8.12
329.998	8.23
330.209	8.05
330.42	7.7
330.631	7.77
330.842	7.79
331.053	8.03
331.264	7.71
331.475	7.47
331.686	7.47
331.897	7.92
332.108	8.14
332.319	7.62
332.53	7.95
332.741	8.27
332.952	8.33
333.163	8.29
333.374	8.32
333.585	8.88
333.795	9.25
334.006	9.11
334.217	8.69
334.428	8.36
334.639	8.68
334.849	8.55
335.06	8.49
335.271	8.25
335.482	8.58
335.692	8.46
335.903	8.15
336.114	7.96
336.325	8.13
336.535	8.24
336.746	8.54
336.957	8.42
337.167	8.39
337.378	8.79
337.589	8.99
337.799	8.7
338.01	8.83
338.22	8.81
338.431	8.67
338.642	8.55
338.852	8.33
339.063	8.16
339.273	8.43
339.484	8.51
339.694	8.12
339.905	8.17
340.115	8.21
340.326	8.21
340.536	7.95
340.746	8.42
340.957	8.61
341.167	8.78
341.378	8.74
341.588	8.42
341.799	8.41
342.009	8.08
342.219	8.14
342.43	7.98
342.64	8.07
342.85	8.13
343.061	7.82
343.271	7.54
343.481	7.28
343.691	7.28
343.902	7.57
344.112	7.63
344.322	8.03
344.532	7.74
344.743	7.91
344.953	7.64
345.163	7.95
345.373	8.14
345.583	8.42
345.793	8.36
346.004	8.41
346.214	8.02
346.424	7.84
346.634	7.93
346.844	8.13
347.054	8.2
347.264	8.45
347.474	8.26
347.684	8.08
347.894	7.75
348.104	8.19
348.314	8.24
348.524	8.29
348.734	8
348.944	7.78
349.154	7.61
349.364	7.53
349.574	7.32
349.784	7.57
349.994	7.29
350.204	7.39
350.413	7.14
350.623	6.98
350.833	7.05
351.043	7.52
351.253	7.28
351.463	7.05
351.672	6.82
351.882	6.91
352.092	7.03
352.302	7.48
352.511	7.39
352.721	7.47
352.931	7.56
353.141	7.57
353.35	7.54
353.56	7.82
353.77	7.94
353.979	8.02
354.189	8.07
354.399	8.05
354.608	8.02
354.818	8.13
355.027	8.13
355.237	8.19
355.447	8.08
355.656	7.87
355.866	7.78
356.075	7.81
356.285	7.86
356.494	7.76
356.704	7.35
356.913	7.34
357.123	7.25
357.332	7.02
357.542	6.95
357.751	7.19
357.96	7.22
358.17	7.12
358.379	7.22
358.589	7.3
358.798	7.28
359.007	7.46
359.217	7.24
359.426	7.25
359.635	7.44
359.845	7.34
360.054	7.23
360.263	7.1
360.472	7.12
360.682	7.06
360.891	7
361.1	7.02
361.309	6.99
361.519	7.12
361.728	6.99
361.937	6.85
362.146	6.89
362.355	6.85
362.564	6.95
362.774	7.02
362.983	6.99
363.192	6.98
363.401	7.01
363.61	6.97
363.819	7.06
364.028	7.08
364.237	7.09
364.446	7.25
364.655	7.14
364.864	7.2
365.073	6.92
365.282	7.05
365.491	7.01
365.7	6.95
365.909	7.11
366.118	6.82
366.327	7.01
366.536	7.14
366.745	6.96
366.954	6.92
367.162	6.84
367.371	7.05
367.58	7.04
367.789	6.96
367.998	7.05
368.207	6.86
368.415	6.83
368.624	6.65
368.833	6.49
369.042	6.25
369.25	6.25
369.459	6.32
369.668	6.17
369.877	6.08
370.085	6.17
370.294	6.17
370.503	6.19
370.711	6.42
370.92	6.22
371.129	6.43
371.337	6.57
371.546	6.61
371.754	6.42
371.963	6.53
372.171	6.42
372.38	6.35
372.589	6.29
372.797	6.15
373.006	6.06
373.214	6.34
373.423	6.21
373.631	6.28
373.84	6.15
374.048	6.2
374.256	6.03
374.465	6.05
374.673	6.38
374.882	6.39
375.09	6.5
375.298	6.37
375.507	6.31
375.715	6.28
375.923	6.31
376.132	6.66
376.34	6.49
376.548	6.76
376.757	6.57
376.965	6.39
377.173	6.22
377.381	6.15
377.59	6.21
377.798	6.09
378.006	6.02
378.214	5.76
378.423	5.52
378.631	5.78
378.839	5.66
379.047	5.8
379.255	5.8
379.463	5.85
379.671	5.92
379.879	5.89
380.088	5.94
380.296	5.87
380.504	5.88
380.712	5.85
380.92	5.76
381.128	5.61
381.336	5.42
381.544	5.29
381.752	5.19
381.96	5.13
382.168	5.02
382.376	4.95
382.584	5
382.791	5.01
382.999	5.11
383.207	5.42
383.415	5.39
383.623	5.56
383.831	5.45
384.039	5.68
384.247	5.67
384.454	5.75
384.662	5.78
384.87	5.69
385.078	5.6
385.285	5.39
385.493	5.12
385.701	4.95
385.909	4.94
386.116	5.06
386.324	4.8
386.532	4.72
386.739	4.79
386.947	4.8
387.155	4.59
387.362	4.78
387.57	4.76
387.778	4.44
387.985	4.58
388.193	4.49
388.4	4.47
388.608	4.5
388.816	4.38
389.023	4.3
389.231	4.24
389.438	4.43
389.646	4.23
389.853	4.38
390.061	4.56
390.268	4.35
390.475	4.54
390.683	4.5
390.89	4.52
391.098	4.51
391.305	4.32
391.512	4.39
391.72	4.48
391.927	4.49
392.135	4.35
392.342	4.34
392.549	4.55
392.756	4.24
392.964	4.24
393.171	4.2
393.378	4.05
393.586	4.17
393.793	4.18
394	4.32
394.207	4.42
394.414	4.42
394.622	4.39
394.829	4.33
395.036	4.47
395.243	4.23
395.45	4.2
395.657	4.33
395.864	4.36
396.072	4.13
396.279	3.77
396.486	3.88
396.693	3.85
396.9	3.77
397.107	3.89
397.314	3.92
397.521	3.93
397.728	3.92
397.935	3.85
398.142	3.63
398.349	3.72
398.556	3.6
398.763	3.58
398.97	3.72
399.177	3.84
399.383	3.69
399.59	3.59
399.797	3.7
400.004	3.7
400.211	3.72
400.418	3.79
400.625	3.78
400.831	3.97
401.038	3.72
401.245	3.62
401.452	3.48
401.658	3.36
401.865	3.31
402.072	3.33
402.279	3.42
402.485	3.42
402.692	3.64
402.899	3.66
403.105	3.57
403.312	3.69
403.519	3.64
403.725	3.61
403.932	3.81
404.138	3.95
404.345	3.83
404.552	3.72
404.758	3.72
404.965	3.46
405.171	3.32
405.378	3.42
405.584	3.36
405.791	3.29
405.997	3.31
406.204	3.22
406.41	3.24
406.617	3.36
406.823	3.41
407.029	3.49
407.236	3.66
407.442	3.64
407.649	3.7
407.855	3.66
408.061	3.82
408.268	3.92
408.474	3.86
408.68	3.74
408.887	3.77
409.093	3.8
409.299	3.88
409.505	3.87
409.712	3.98
409.918	3.9
410.124	3.92
410.33	3.74
410.537	3.42
410.743	3.4
410.949	3.39
411.155	3.29
411.361	3.24
411.567	2.95
411.773	2.89
411.98	2.87
412.186	2.81
412.392	2.78
412.598	2.77
412.804	3.09
413.01	3.09
413.216	3.22
413.422	3.19
413.628	3.12
413.834	3.28
414.04	3.31
414.246	3.26
414.452	3.21
414.658	3.22
414.864	3.27
415.07	3.23
415.275	3.32
415.481	3.18
415.687	3.12
415.893	3.07
416.099	3.04
416.305	2.83
416.511	2.89
416.716	2.81
416.922	2.82
417.128	2.78
417.334	2.7
417.539	2.63
417.745	2.73
417.951	2.75
418.157	2.76
418.362	2.77
418.568	2.94
418.774	3
418.979	3.07
419.185	3.08
419.391	3.06
419.596	3.02
419.802	3.11
420.008	2.97
420.213	3.6
420.419	3.63
420.624	3.57
420.83	3.53
421.035	3.48
421.241	3.46
421.446	3.43
421.652	3.51
421.857	3.55
422.063	3.56
422.268	3.64
422.474	3.07
422.679	3.08
422.885	3.11
423.09	3.13
423.295	3.1
423.501	3.09
423.706	3.13
423.911	3.12
424.117	3.16
424.322	3.07
424.527	3.06
424.733	3.04
424.938	3.01
425.143	2.98
425.349	2.96
425.554	2.96
425.759	2.95
425.964	2.95
426.169	3.03
426.375	3.01
426.58	3.01
426.785	2.97
426.99	3.03
427.195	3.05
427.4	3.08
427.605	2.99
427.811	2.93
428.016	3.08
428.221	3.06
428.426	2.9
428.631	2.9
428.836	2.95
429.041	3.01
429.246	3.07
429.451	3
429.656	2.97
429.861	3.04
430.066	3.19
430.271	3.02
430.476	2.85
430.681	2.78
430.886	2.73
431.09	2.78
431.295	2.69
431.5	2.66
431.705	2.79
431.91	2.84
432.115	2.85
432.32	2.77
432.524	2.8
432.729	2.87
432.934	2.98
433.139	3.03
433.343	2.79
433.548	2.93
433.753	2.81
433.958	2.83
434.162	2.89
434.367	2.93
434.572	2.84
434.776	2.93
434.981	2.98
435.186	2.9
435.39	2.93
435.595	3.18
435.799	3
436.004	3.12
436.209	2.99
436.413	2.87
436.618	2.8
436.822	2.95
437.027	3.03
437.231	2.93
437.436	2.98
437.64	2.95
437.845	2.93
438.049	2.99
438.253	3.01
438.458	3.06
438.662	3.1
438.867	3.12
439.071	3.01
439.275	2.87
439.48	2.99
439.684	3.02
439.888	3.03
440.093	3
440.297	3.06
440.501	3.01
440.706	2.99
440.91	2.94
441.114	2.98
441.318	3.04
441.523	3.08
441.727	3.1
441.931	3.13
442.135	3.08
442.339	3.08
442.543	3
442.748	3.01
442.952	3.03
443.156	3.13
443.36	3.12
443.564	3.13
443.768	3.18
443.972	3.22
444.176	3.17
444.38	3.17
444.584	3.19
444.788	3.14
444.992	3.13
445.196	3.15
445.4	3.11
445.604	3.07
445.808	3.04
446.012	2.98
446.216	2.86
446.42	2.88
446.624	2.97
446.828	2.94
447.032	2.99
447.235	3.01
447.439	3
447.643	3.01
447.847	2.97
448.051	3.05
448.254	3.11
448.458	3.13
448.662	3.14
448.866	3.03
449.069	3.05
449.273	3.09
449.477	3.07
449.681	3.11
449.884	3.05
450.088	3.07
450.292	2.97
450.495	2.92
450.699	2.9
450.902	2.88
451.106	2.93
451.31	2.87
451.513	2.96
451.717	2.98
451.92	2.99
452.124	2.98
452.327	3.03
452.531	3.02
452.734	2.98
452.938	2.99
453.141	3.02
453.345	2.95
453.548	2.92
453.752	2.8
453.955	2.77
454.158	2.64
454.362	2.68
454.565	2.68
454.769	2.71
454.972	2.71
455.175	2.75
455.379	2.7
455.582	2.7
455.785	2.8
455.988	2.87
456.192	2.81
456.395	2.9
456.598	2.89
456.801	2.83
457.005	2.97
457.208	3.09
457.411	3.09
457.614	3.05
457.817	3.07
458.021	3.02
458.224	2.97
458.427	2.95
458.63	2.94
458.833	3
459.036	3.1
459.239	3.1
459.442	2.98
459.645	3.01
459.848	3.04
460.051	3.05
460.254	3.04
460.457	3.07
460.66	3.16
460.863	3.17
461.066	3.08
461.269	3.07
461.472	3.05
461.675	3.11
461.878	3
462.081	2.97
462.284	2.99
462.486	3
462.689	2.99
462.892	2.94
463.095	2.98
463.298	3.05
463.5	2.89
463.703	2.89
463.906	2.82
464.109	2.92
464.311	2.94
464.514	2.88
464.717	2.94
464.92	2.87
465.122	2.88
465.325	2.9
465.528	2.94
465.73	3.01
465.933	2.86
466.135	2.91
466.338	2.89
466.541	2.93
466.743	3.02
466.946	3.07
467.148	3.14
467.351	3.14
467.553	3.02
467.756	3.09
467.958	3.11
468.161	3.21
468.363	3.23
468.566	3.27
468.768	3.26
468.971	3.22
469.173	3.23
469.375	3.15
469.578	3.14
469.78	3.22
469.983	3.11
470.185	3.19
470.387	3.2
470.59	3.23
470.792	3.24
470.994	3.31
471.196	3.32
471.399	3.31
471.601	3.29
471.803	3.33
472.005	3.39
472.208	3.48
472.41	3.41
472.612	3.39
472.814	3.42
473.016	3.39
473.218	3.29
473.421	3.24
473.623	3.14
473.825	3.23
474.027	3.1
474.229	3.08
474.431	2.97
474.633	3.01
474.835	2.96
475.037	2.88
475.239	2.87
475.441	2.86
475.643	2.94
475.845	2.99
476.047	2.9
476.249	3.04
476.451	2.96
476.653	3.03
476.855	3.04
477.057	3.14
477.258	3.16
477.46	3.12
477.662	3.21
477.864	3.17
478.066	3.17
478.268	3.23
478.469	3.15
478.671	3.14
478.873	3.1
479.075	3.07
479.276	3
479.478	3
479.68	3.08
479.882	3.07
480.083	3.05
480.285	3.07
480.487	3.05
480.688	3.13
480.89	3.14
481.091	3.09
481.293	3.09
481.495	3.14
481.696	3.1
481.898	3.09
482.099	3.06
482.301	3.05
482.502	3.01
482.704	3.05
482.905	3.02
483.107	3.02
483.308	3.05
483.51	3.05
483.711	3.03
483.913	3.06
484.114	3.05
484.315	3.07
484.517	3.08
484.718	3.08
484.92	3.06
485.121	3.05
485.322	3.07
485.524	3.07
485.725	3.08
485.926	3.08
486.127	3.07
486.329	3.08
486.53	3.05
486.731	3.04
486.932	3.04
487.134	3.01
487.335	3
487.536	2.97
487.737	2.98
487.938	2.96
488.139	3
488.341	2.98
488.542	2.95
488.743	2.99
488.944	3.03
489.145	3.05
489.346	3.08
489.547	3.09
489.748	3.12
489.949	3.12
490.15	3.13
490.351	3.09
490.552	3.12
490.753	3.13
490.954	3.14
491.155	3.11
491.356	3.12
491.557	3.13
491.758	3.18
491.959	3.22
492.159	3.24
492.36	3.26
492.561	3.3
492.762	3.32
492.963	3.33
493.164	3.35
493.364	3.35
493.565	3.35
493.766	3.38
493.967	3.35
494.167	3.38
494.368	3.36
494.569	3.33
494.769	3.27
494.97	3.26
495.171	3.25
495.371	3.28
495.572	3.32
495.773	3.38
495.973	3.42
496.174	3.46
496.375	3.35
496.575	3.29
496.776	3.37
496.976	3.45
497.177	3.49
497.377	3.58
497.578	3.58
497.778	3.61
497.979	3.58
498.179	3.64
498.38	3.72
498.58	3.81
498.78	3.88
498.981	3.86
499.181	3.78
499.382	3.85
499.582	3.89
499.782	3.93
499.983	3.97
500.183	3.94
500.383	3.9
500.584	3.9
500.784	3.9
500.984	3.94
501.184	4.02
501.385	4
501.585	3.9
501.785	3.89
501.985	3.87
502.185	3.89
502.386	4.08
502.586	4.11
502.786	4.2
502.986	4.3
503.186	4.39
503.386	4.45
503.586	4.59
503.786	4.6
503.987	4.62
504.187	4.8
504.387	4.81
504.587	4.68
504.787	4.65
504.987	4.62
505.187	4.6
505.387	4.56
505.587	4.59
505.786	4.65
505.986	4.81
506.186	4.8
506.386	4.69
506.586	4.79
506.786	4.96
506.986	4.97
507.186	5.01
507.386	5.02
507.585	5.11
507.785	5.16
507.985	5.1
508.185	5.08
508.384	5.17
508.584	5.22
508.784	5.29
508.984	5.26
509.183	5.42
509.383	5.47
509.583	5.54
509.782	5.54
509.982	5.55
510.182	5.67
510.381	5.73
510.581	5.75
510.781	5.81
510.98	5.77
511.18	5.88
511.379	5.84
511.579	5.92
511.778	5.96
511.978	6.05
512.177	6.1
512.377	6.23
512.576	6.23
512.776	6.23
512.975	6.29
513.175	6.35
513.374	6.44
513.573	6.62
513.773	6.68
513.972	6.76
514.172	6.75
514.371	6.88
514.57	6.87
514.77	6.9
514.969	7.03
515.168	7.17
515.367	7.31
515.567	7.27
515.766	7.27
515.965	7.32
516.164	7.35
516.364	7.47
516.563	7.48
516.762	7.58
516.961	7.61
517.16	7.74
517.359	7.79
517.559	7.8
517.758	7.88
517.957	7.91
518.156	7.95
518.355	8.01
518.554	8.08
518.753	8.14
518.952	8.19
519.151	8.37
519.35	8.42
519.549	8.43
519.748	8.49
519.947	8.52
520.146	8.63
520.345	8.7
520.544	8.79
520.743	8.9
520.942	9.03
521.141	9.1
521.339	9.17
521.538	9.29
521.737	9.41
521.936	9.58
522.135	9.67
522.333	9.75
522.532	9.85
522.731	9.9
522.93	9.95
523.129	10.02
523.327	10.06
523.526	10.09
523.725	10.08
523.923	10.16
524.122	10.17
524.321	10.23
524.519	10.33
524.718	10.37
524.917	10.45
525.115	10.45
525.314	10.48
525.512	10.53
525.711	10.61
525.909	10.66
526.108	10.7
526.306	10.68
526.505	10.78
526.703	10.82
526.902	10.88
527.1	10.89
527.299	10.97
527.497	11.02
527.696	11.07
527.894	11.12
528.092	11.18
528.291	11.23
528.489	11.35
528.688	11.39
528.886	11.44
529.084	11.49
529.283	11.61
529.481	11.68
529.679	11.76
529.877	11.85
530.076	11.93
530.274	12.03
530.472	12.13
530.67	12.19
530.869	12.33
531.067	12.44
531.265	12.54
531.463	12.58
531.661	12.64
531.859	12.69
532.057	12.75
532.255	12.76
532.454	12.79
532.652	12.83
532.85	12.9
533.048	12.93
533.246	12.99
533.444	13.07
533.642	13.16
533.84	13.24
534.038	13.33
534.236	13.41
534.434	13.49
534.632	13.57
534.83	13.68
535.027	13.79
535.225	13.84
535.423	13.87
535.621	13.89
535.819	14
536.017	14.06
536.215	14.14
536.412	14.22
536.61	14.32
536.808	14.42
537.006	14.53
537.203	14.62
537.401	14.79
537.599	14.97
537.797	15.17
537.994	15.3
538.192	15.48
538.39	15.53
538.587	15.71
538.785	15.84
538.983	15.97
539.18	16.15
539.378	16.25
539.575	16.29
539.773	16.39
539.97	16.43
540.168	16.52
540.366	16.62
540.563	16.79
540.761	16.82
540.958	16.89
541.155	16.96
541.353	16.98
541.55	17.08
541.748	17.18
541.945	17.29
542.143	17.39
542.34	17.48
542.537	17.57
542.735	17.66
542.932	17.86
543.129	18.07
543.327	18.34
543.524	18.71
543.721	19.03
543.919	19.37
544.116	19.78
544.313	20.22
544.51	20.68
544.708	21.05
544.905	21.47
545.102	21.89
545.299	22.23
545.496	22.41
545.693	22.49
545.891	22.5
546.088	22.45
546.285	22.33
546.482	22.22
546.679	22.04
546.876	21.96
547.073	21.8
547.27	21.55
547.467	21.34
547.664	21.21
547.861	21.1
548.058	20.96
548.255	20.9
548.452	20.9
548.649	20.85
548.846	20.86
549.043	20.73
549.24	20.67
549.437	20.6
549.633	20.52
549.83	20.42
550.027	20.27
550.224	20.2
550.421	20.23
550.618	20.03
550.814	19.98
551.011	19.86
551.208	19.87
551.405	19.77
551.601	19.71
551.798	19.72
551.995	19.7
552.191	19.68
552.388	19.7
552.585	19.64
552.781	19.62
552.978	19.53
553.175	19.53
553.371	19.49
553.568	19.53
553.764	19.54
553.961	19.46
554.157	19.42
554.354	19.4
554.55	19.4
554.747	19.44
554.943	19.37
555.14	19.4
555.336	19.42
555.533	19.36
555.729	19.34
555.926	19.39
556.122	19.43
556.318	19.57
556.515	19.79
556.711	19.8
556.907	19.78
557.104	19.85
557.3	19.86
557.496	19.83
557.693	19.97
557.889	20.09
558.085	20.15
558.281	20.28
558.478	20.28
558.674	20.12
558.87	20.13
559.066	20.12
559.262	20.12
559.459	20.08
559.655	20.13
559.851	20.11
560.047	20.05
560.243	20.06
560.439	20.01
560.635	19.85
560.831	19.83
561.027	19.82
561.223	19.92
561.419	19.95
561.615	20.06
561.811	20.15
562.007	20.19
562.203	20.24
562.399	20.23
562.595	20.31
562.791	20.52
562.987	20.53
563.183	20.64
563.379	20.69
563.575	20.73
563.771	20.73
563.966	20.69
564.162	20.67
564.358	20.56
564.554	20.63
564.75	20.55
564.945	20.35
565.141	20.39
565.337	20.27
565.533	20.23
565.728	20.24
565.924	20.24
566.12	20.27
566.315	20.35
566.511	20.54
566.707	20.38
566.902	20.46
567.098	20.53
567.293	20.51
567.489	20.6
567.684	20.7
567.88	20.75
568.076	20.76
568.271	20.74
568.467	20.73
568.662	20.63
568.858	20.73
569.053	20.71
569.248	20.78
569.444	20.86
569.639	20.88
569.835	20.75
570.03	20.67
570.225	20.72
570.421	20.66
570.616	20.77
570.812	20.73
571.007	20.82
571.202	20.85
571.397	20.83
571.593	20.84
571.788	20.9
571.983	21.02
572.178	21.06
572.374	21.11
572.569	21.15
572.764	21.11
572.959	21.21
573.154	21.21
573.35	21.17
573.545	21.22
573.74	21.28
573.935	21.23
574.13	21.21
574.325	21.27
574.52	21.28
574.715	21.36
574.91	21.36
575.105	21.56
575.3	21.66
575.495	21.88
575.69	21.96
575.885	21.99
576.08	22.27
576.275	22.52
576.47	22.78
576.665	22.99
576.86	23.3
577.055	23.48
577.25	23.55
577.444	23.73
577.639	23.97
577.834	24.37
578.029	24.66
578.224	24.73
578.418	24.89
578.613	24.92
578.808	24.96
579.003	24.85
579.197	24.92
579.392	24.97
579.587	25
579.781	24.93
579.976	24.8
580.171	24.73
580.365	24.69
580.56	24.58
580.755	24.63
580.949	24.7
581.144	24.83
581.338	24.98
581.533	24.89
581.727	24.98
581.922	25.05
582.116	24.99
582.311	25.11
582.505	25.19
582.7	25.24
582.894	25.37
583.089	25.24
583.283	25.39
583.478	25.43
583.672	25.52
583.866	25.52
584.061	25.35
584.255	25.51
584.449	25.57
584.644	25.6
584.838	25.52
585.032	25.46
585.226	25.67
585.421	25.61
585.615	25.69
585.809	25.76
586.003	25.85
586.198	26.07
586.392	26.02
586.586	26.21
586.78	26.26
586.974	26.44
587.168	26.53
587.363	26.41
587.557	26.26
587.751	26.15
587.945	25.97
588.139	25.84
588.333	25.68
588.527	25.63
588.721	25.32
588.915	25.15
589.109	24.85
589.303	24.66
589.497	24.74
589.691	24.85
589.885	24.79
590.079	24.9
590.273	24.97
590.466	25.12
590.66	25.26
590.854	25.42
591.048	25.69
591.242	25.97
591.436	26.18
591.629	26.23
591.823	26.19
592.017	26.35
592.211	26.43
592.404	26.38
592.598	26.33
592.792	26.26
592.986	26.12
593.179	25.8
593.373	25.64
593.567	25.47
593.76	25.46
593.954	25.27
594.147	25.04
594.341	24.96
594.535	24.98
594.728	24.68
594.922	24.56
595.115	24.58
595.309	24.72
595.502	24.69
595.696	24.56
595.889	24.35
596.083	24.37
596.276	24.38
596.47	24.25
596.663	24.16
596.856	24.38
597.05	24.46
597.243	24.57
597.437	24.47
597.63	24.48
597.823	24.73
598.017	24.9
598.21	25.15
598.403	25.22
598.596	25.52
598.79	25.74
598.983	25.81
599.176	25.91
599.369	25.7
599.563	25.93
599.756	26.05
599.949	26.01
600.142	26.09
600.335	26.05
600.528	26.02
600.722	25.83
600.915	25.54
601.108	25.4
601.301	25.33
601.494	25.36
601.687	25.19
601.88	25.2
602.073	25.05
602.266	24.87
602.459	24.73
602.652	24.61
602.845	24.52
603.038	24.54
603.231	24.4
603.424	24.36
603.617	24.42
603.809	24.36
604.002	24.16
604.195	24.17
604.388	24.17
604.581	24.16
604.774	24.28
604.966	24.42
605.159	24.5
605.352	24.72
605.545	24.69
605.737	24.71
605.93	24.72
606.123	24.95
606.316	25.15
606.508	25.35
606.701	25.59
606.894	25.79
607.086	25.97
607.279	26.25
607.471	26.54
607.664	27.02
607.857	27.53
608.049	28.21
608.242	29.02
608.434	30.05
608.627	31.16
608.819	32.49
609.012	34.1
609.204	35.73
609.397	37.55
609.589	39.58
609.782	41.7
609.974	43.88
610.166	45.99
610.359	48.01
610.551	49.74
610.743	51.42
610.936	52.75
611.128	53.68
611.32	54.47
611.513	54.9
611.705	54.83
611.897	54.46
612.09	53.94
612.282	53.19
612.474	52.2
612.666	51.17
612.858	50.06
613.051	48.78
613.243	47.73
613.435	46.48
613.627	45.67
613.819	44.78
614.011	43.78
614.203	42.73
614.395	41.83
614.588	40.91
614.78	39.84
614.972	39.07
615.164	38.4
615.356	37.33
615.548	36.66
615.74	35.67
615.932	34.99
616.124	34.25
616.315	33.56
616.507	32.92
616.699	32.35
616.891	32.07
617.083	31.41
617.275	30.93
617.467	30.58
617.659	30.14
617.85	29.9
618.042	29.43
618.234	29.4
618.426	29.4
618.618	29.47
618.809	29.42
619.001	29.18
619.193	29.13
619.384	29.13
619.576	29.24
619.768	29.36
619.959	29.33
620.151	29.54
620.343	29.72
620.534	29.55
620.726	29.44
620.917	29.65
621.109	29.66
621.301	29.74
621.492	29.71
621.684	29.99
621.875	30.15
622.067	30.17
622.258	30.09
622.45	29.95
622.641	30.05
622.832	30.08
623.024	29.83
623.215	30.02
623.407	29.94
623.598	30.05
623.789	29.85
623.981	29.73
624.172	29.67
624.363	29.72
624.555	29.7
624.746	29.59
624.937	29.4
625.129	29.34
625.32	29.11
625.511	29.16
625.702	28.9
625.893	28.95
626.085	28.85
626.276	28.8
626.467	28.77
626.658	28.78
626.849	28.71
627.04	28.89
627.231	28.83
627.422	28.85
627.614	28.87
627.805	29.07
627.996	29.1
628.187	29.25
628.378	29.46
628.569	29.66
628.76	29.79
628.951	30.28
629.142	30.6
629.332	31
629.523	31.44
629.714	31.86
629.905	32.24
630.096	32.48
630.287	32.76
630.478	32.93
630.669	32.97
630.859	32.96
631.05	32.57
631.241	32.23
631.432	32.04
631.623	31.65
631.813	31.18
632.004	30.85
632.195	30.34
632.385	29.84
632.576	29.36
632.767	28.97
632.957	28.73
633.148	28.6
633.339	28.37
633.529	28.12
633.72	27.88
633.91	27.93
634.101	27.66
634.292	27.63
634.482	27.51
634.673	27.49
634.863	27.42
635.054	27.3
635.244	27.19
635.435	27.22
635.625	27.21
635.815	27.27
636.006	26.83
636.196	26.76
636.387	26.76
636.577	26.86
636.767	26.85
636.958	26.78
637.148	26.93
637.338	27.13
637.529	27.02
637.719	27.06
637.909	27.21
638.099	27.34
638.29	27.27
638.48	27.27
638.67	27.27
638.86	27.35
639.05	27.44
639.241	27.64
639.431	27.65
639.621	27.68
639.811	27.69
640.001	27.76
640.191	28.09
640.381	28.28
640.571	28.33
640.761	28.36
640.951	28.47
641.141	28.54
641.331	28.06
641.521	28.11
641.711	28.21
641.901	28.24
642.091	28.1
642.281	27.9
642.471	27.94
642.661	27.98
642.851	27.91
643.041	27.78
643.231	27.86
643.42	28.17
643.61	28.1
643.8	28.06
643.99	27.97
644.18	28.02
644.369	28
644.559	28.02
644.749	27.92
644.939	27.91
645.128	28.11
645.318	27.84
645.508	27.49
645.697	27.43
645.887	27.43
646.076	27.68
646.266	27.64
646.456	27.76
646.645	27.82
646.835	28.01
647.024	28.04
647.214	27.89
647.403	28
647.593	28.36
647.782	28.44
647.972	28.49
648.161	28.28
648.351	28.58
648.54	28.66
648.73	28.82
648.919	28.89
649.108	29.05
649.298	29.06
649.487	29.28
649.677	29.46
649.866	29.53
650.055	29.62
650.244	29.76
650.434	29.62
650.623	29.63
650.812	29.63
651.002	29.44
651.191	29.59
651.38	29.62
651.569	29.53
651.758	29.47
651.947	29.35
652.137	29.56
652.326	29.65
652.515	29.57
652.704	29.55
652.893	29.42
653.082	29.37
653.271	29.15
653.46	29.09
653.649	29.2
653.838	28.99
654.027	29.1
654.216	28.76
654.405	28.65
654.594	28.64
654.783	28.25
654.972	27.92
655.161	28.06
655.35	27.96
655.539	27.92
655.728	27.85
655.916	27.93
656.105	27.94
656.294	28.03
656.483	28.17
656.672	28.05
656.86	28.3
657.049	28.59
657.238	28.48
657.427	28.57
657.615	28.62
657.804	28.57
657.993	28.27
658.181	28.02
658.37	28.1
658.559	27.77
658.747	27.88
658.936	27.76
659.125	28.01
659.313	28.03
659.502	27.96
659.69	27.89
659.879	27.86
660.067	28.12
660.256	28.35
660.444	28.32
660.633	28.51
660.821	28.62
661.01	28.88
661.198	28.61
661.387	28.61
661.575	28.78
661.763	28.89
661.952	28.96
662.14	29.09
662.328	29.26
662.517	29.35
662.705	29.44
662.893	29.38
663.082	29.43
663.27	29.41
663.458	29.97
663.646	29.98
663.834	30.22
664.023	30.35
664.211	30.46
664.399	30.25
664.587	29.99
664.775	29.87
664.963	30.01
665.152	30.04
665.34	29.99
665.528	29.43
665.716	29.42
665.904	29.21
666.092	29.02
666.28	28.88
666.468	28.75
666.656	28.88
666.844	29.09
667.032	28.9
667.22	28.55
667.408	28.58
667.596	28.7
667.784	28.62
667.971	28.54
668.159	28.74
668.347	28.82
668.535	28.96
668.723	29.05
668.911	28.86
669.098	28.64
669.286	28.9
669.474	28.92
669.662	29.08
669.849	29.09
670.037	29.23
670.225	29.02
670.413	29
670.6	28.87
670.788	28.96
670.976	28.88
671.163	29.28
671.351	29.41
671.538	29.41
671.726	29.24
671.913	29.17
672.101	29.31
672.289	29.28
672.476	29.18
672.664	29.44
672.851	29.38
673.039	29.68
673.226	29.48
673.413	29.29
673.601	29.49
673.788	29.78
673.976	29.85
674.163	29.64
674.35	29.87
674.538	29.9
674.725	29.88
674.912	29.76
675.1	29.79
675.287	29.77
675.474	29.91
675.662	29.95
675.849	29.78
676.036	30.01
676.223	30.22
676.411	30.35
676.598	30.31
676.785	30.16
676.972	30.05
677.159	29.82
677.346	29.91
677.533	29.75
677.721	29.45
677.908	29.37
678.095	29.12
678.282	28.86
678.469	28.56
678.656	28.36
678.843	28.42
679.03	28.38
679.217	28.27
679.404	28.21
679.591	27.89
679.778	27.93
679.964	27.8
680.151	27.75
680.338	27.89
680.525	27.78
680.712	28.05
680.899	28.21
681.086	28.16
681.272	28.13
681.459	28.23
681.646	28.41
681.833	28.57
682.02	28.69
682.206	28.67
682.393	28.54
682.58	28.76
682.766	28.67
682.953	28.71
683.14	29.15
683.326	29.72
683.513	29.69
683.7	30.07
683.886	30.01
684.073	30.06
684.259	30.45
684.446	30.63
684.632	30.69
684.819	30.79
685.005	30.51
685.192	30.39
685.378	30.26
685.565	30.33
685.751	30.12
685.938	30.19
686.124	30.1
686.31	29.99
686.497	30.1
686.683	29.98
686.87	30.01
687.056	30.03
687.242	29.71
687.429	29.65
687.615	29.55
687.801	29.3
687.987	29.38
688.174	29.44
688.36	29.63
688.546	29.53
688.732	29.53
688.918	29.17
689.105	29.21
689.291	29.7
689.477	29.45
689.663	29.38
689.849	29.77
690.035	29.74
690.221	29.86
690.407	29.44
690.593	29.49
690.779	29.48
690.965	29.94
691.151	29.85
691.337	29.63
691.523	29.8
691.709	30.18
691.895	30.18
692.081	30.25
692.267	30.17
692.453	30.48
692.639	30.53
692.825	30.52
693.011	30.3
693.196	30.42
693.382	30.41
693.568	30.35
693.754	30.1
693.94	30.05
694.125	29.67
694.311	29.68
694.497	29.66
694.682	29.1
694.868	29.18
695.054	29.07
695.239	29.18
695.425	29.09
695.611	29.17
695.796	29.32
695.982	29.27
696.168	29.12
696.353	29.1
696.539	28.97
696.724	29.23
696.91	29.22
697.095	28.98
697.281	28.6
697.466	28.35
697.652	27.85
697.837	27.32
698.023	27.13
698.208	27.14
698.393	26.95
698.579	26.56
698.764	26.43
698.949	26.08
699.135	26.27
699.32	26.19
699.505	26.3
699.691	26.46
699.876	26.88
700.061	27.08
700.246	27.25
700.432	27.28
700.617	27.72
700.802	27.64
700.987	27.85
701.172	27.86
701.358	28.42
701.543	28.71
701.728	29.13
701.913	29.29
702.098	29.45
702.283	29.66
702.468	30.18
702.653	30.19
702.838	30.63
703.023	31.2
703.208	31.44
703.393	31.63
703.578	31.89
703.763	32.17
703.948	32.06
704.133	32.53
704.318	32.64
704.503	33.27
704.688	34
704.873	34.36
705.057	35.15
705.242	35.75
705.427	35.91
705.612	36.35
705.797	36.92
705.981	37.47
706.166	37.67
706.351	38.49
706.536	38.59
706.72	38.71
706.905	39.15
707.09	38.87
707.274	39
707.459	38.99
707.644	39.16
707.828	39.22
708.013	39.54
708.197	39.5
708.382	38.98
708.567	38.53
708.751	38.2
708.936	38.12
709.12	37.93
709.305	37.49
709.489	37.55
709.673	37.08
709.858	36.54
710.042	36.17
710.227	36.38
710.411	36.3
710.596	36.35
710.78	36.36
710.964	36.1
711.149	36
711.333	35.98
711.517	35.82
711.702	35.68
711.886	35.71
712.07	35.63
712.254	34.99
712.438	34.64
712.623	34.43
712.807	34.14
712.991	33.67
713.175	33.27
713.359	32.98
713.544	32.81
713.728	32.43
713.912	32
714.096	31.55
714.28	31.15
714.464	30.76
714.648	30.66
714.832	30.43
715.016	30.14
715.2	30.15
715.384	29.59
715.568	29.4
715.752	29.05
715.936	28.74
716.12	28.35
716.304	28.24
716.488	28.51
716.671	27.99
716.855	27.84
717.039	27.85
717.223	27.68
717.407	27.79
717.59	27.51
717.774	27.75
717.958	27.83
718.142	27.68
718.325	27.53
718.509	27.39
718.693	27.66
718.877	27.63
719.06	27.95
719.244	27.74
719.428	27.69
719.611	27.64
719.795	27.73
719.978	27.76
720.162	28.23
720.345	28.66
720.529	28.78
720.713	28.83
720.896	28.97
721.08	29.05
721.263	29.48
721.446	30.09
721.63	29.88
721.813	30.04
721.997	29.86
722.18	30.25
722.364	30.14
722.547	30.44
722.73	30.37
722.914	30.76
723.097	30.57
723.28	30.32
723.464	29.59
723.647	30.02
723.83	29.57
724.013	30.1
724.197	29.97
724.38	29.86
724.563	29.71
724.746	29.66
724.929	29.2
725.112	29.33
725.296	29.48
725.479	29.83
725.662	29.89
725.845	30
726.028	29.92
726.211	29.42
726.394	29.46
726.577	28.73
726.76	28.74
726.943	28.8
727.126	28.62
727.309	28.44
727.492	28.2
727.675	27.92
727.858	27.54
728.041	27.28
728.224	27.13
728.407	27.14
728.589	27.66
728.772	27.71
728.955	27.92
729.138	27.85
729.321	28.33
729.503	28.69
729.686	28.4
729.869	29.1
730.052	29.21
730.234	29.63
730.417	29.62
730.6	29.87
730.782	29.75
730.965	29.63
731.148	30.09
731.33	29.48
731.513	29.61
731.695	29.99
731.878	29.86
732.061	30.15
732.243	30.14
732.426	29.84
732.608	29.34
732.791	29.55
732.973	29.86
733.156	29.07
733.338	29.52
733.52	29.04
733.703	28.9
733.885	28.67
734.068	28.63
734.25	28.43
734.432	28.59
734.615	29.12
734.797	29.1
734.979	29.33
735.162	29.69
735.344	29.51
735.526	30.08
735.708	30.31
735.891	30.84
736.073	30.21
736.255	30.42
736.437	30.98
736.619	31.2
736.802	30.83
736.984	30.59
737.166	30.84
737.348	30.91
737.53	31.16
737.712	31.37
737.894	31.51
738.076	31.44
738.258	31.29
738.44	30.87
738.622	30.44
738.804	30.9
738.986	30.75
739.168	30.76
739.35	30.63
739.532	30.37
739.714	30.25
739.896	29.69
740.078	30.4
740.259	30.98
740.441	31.08
740.623	31.5
740.805	31.63
740.987	31.62
741.168	31.76
741.35	32.23
741.532	32.79
741.714	32.94
741.895	33.31
742.077	33.2
742.259	32.83
742.44	33.3
742.622	33.15
742.804	32.72
742.985	32.54
743.167	33.01
743.348	32.46
743.53	32.09
743.711	32.21
743.893	32.61
744.075	32.86
744.256	32.99
744.438	32.67
744.619	32.81
744.8	33.2
744.982	34.31
745.163	33.89
745.345	34.45
745.526	33.85
745.707	33.7
745.889	33.51
746.07	33.41
746.252	33.32
746.433	33.19
746.614	33.06
746.795	33.16
746.977	32.32
747.158	32.34
747.339	31.77
747.52	32.61
747.702	32.83
747.883	32.79
748.064	33.03
748.245	33.32
748.426	34.1
748.607	34.09
748.788	34
748.97	33.54
749.151	33.45
749.332	34.05
749.513	34.4
749.694	34.76
749.875	34.9
750.056	34.81
750.237	34.9
750.418	34.47
750.599	34.81
750.78	34.92
750.96	35.34
751.141	36.15
751.322	35.73
751.503	35.12
751.684	35.51
751.865	35.44
752.046	35.33
752.226	35.61
752.407	35.85
752.588	35.75
752.769	35.89
752.949	35.61
753.13	35.13
753.311	35.71
753.492	35.74
753.672	35.06
753.853	34.79
754.034	34.9
754.214	34.95
754.395	34.59
754.575	34.34
754.756	34.61
754.937	34.88
755.117	34.79
755.298	33.87
755.478	33.9
755.659	33.56
755.839	33.91
756.02	33.68
756.2	33.73
756.381	33.69
756.561	33.87
756.741	33.81
756.922	33.93
757.102	34.21
757.283	34.5
757.463	34.17
757.643	34.47
757.823	33.4
758.004	32.86
758.184	31.77
758.364	30.93
758.545	29.9
758.725	29.55
758.905	29.29
759.085	28.58
759.265	28.6
759.446	28.17
759.626	28.08
759.806	27.7
759.986	28.03
760.166	28.01
760.346	28.74
760.526	29.62
760.706	29.21
760.886	29.1
761.066	29.26
761.246	28.52
761.426	28.59
761.606	27.93
761.786	28.35
761.966	27.79
762.146	27.73
762.326	27.12
762.506	26.63
762.686	26.52
762.866	25.97
763.046	25.47
763.225	25.65
763.405	25.63
763.585	25.69
763.765	25.66
763.945	25.72
764.124	25.52
764.304	25.87
764.484	25.98
764.664	26.29
764.843	27.01
765.023	27.41
765.203	27.65
765.382	27.97
765.562	28.64
765.741	28.67
765.921	29.33
766.101	30.14
766.28	30.79
766.46	31.28
766.639	30.61
766.819	30.47
766.998	31.17
767.178	31.92
767.357	32.3
767.537	31.92
767.716	32.56
767.896	32.69
768.075	33.03
768.254	33.36
768.434	33.51
768.613	34.97
768.792	35.96
768.972	35.61
769.151	35.43
769.33	35.42
769.51	36.64
769.689	37.25
769.868	37.85
770.047	38.04
770.226	37.87
770.406	37.96
770.585	37.81
770.764	37.78
770.943	38.06
771.122	38.24
771.301	38.38
771.48	38.21
771.66	38.42
771.839	38.12
772.018	38.2
772.197	36.99
772.376	37.16
772.555	37.01
772.734	35.81
772.913	35.48
773.092	35.94
773.271	35.97
773.449	35.35
773.628	35.03
773.807	34.85
773.986	34.78
774.165	35.41
774.344	34.91
774.523	34.98
774.701	35.45
774.88	37.06
775.059	37.16
775.238	36.86
775.417	36.86
775.595	36.48
775.774	37.21
775.953	36.65
776.131	37.92
776.31	37.77
776.489	37.42
776.667	37.37
776.846	36.62
777.025	36
777.203	36.36
777.382	36.79
777.56	36.8
777.739	35.83
777.917	35.81
778.096	35.62
778.274	36.59
778.453	36.9
778.631	37.52
778.81	37.31
778.988	37.21
779.166	37.92
779.345	37.47
779.523	38.12
779.702	38.5
779.88	38.84
780.058	37.95
780.237	38.44
780.415	38.4
780.593	37.76
780.771	37.27
780.95	37.63
781.128	36.99
781.306	37.27
781.484	36.83
781.662	37.3
781.841	37.48
782.019	37.47
782.197	36.66
782.375	37.02
782.553	37.13
782.731	37.19
782.909	36.24
783.087	35.96
783.265	36.03
783.443	36.46
783.621	35.92
783.799	35.91
783.977	35.97
784.155	35.83
784.333	36.02
784.511	35.91
784.689	35.38
784.867	36.14
785.045	35.99
785.223	35.43
785.4	34.62
785.578	35.77
785.756	34.49
785.934	34.7
786.112	34.09
786.289	33.41
786.467	33.36
786.645	33.85
786.823	33.95
787	34.15
787.178	33.91
787.356	34.62
787.533	33.32
787.711	34.66
787.889	35.19
788.066	35.2
788.244	35.36
788.421	35.41
788.599	35.77
788.776	35.27
788.954	35.58
789.131	35.85
789.309	36.07
789.486	35.62
789.664	34.91
789.841	34.58
790.019	34.89
790.196	35.14
790.373	35.44
790.551	34.86
790.728	35.95
790.906	35.51
791.083	35.07
791.26	35.05
791.437	36.37
791.615	36.21
791.792	36.08
791.969	36.11
792.146	35.58
792.324	35.92
792.501	35.79
792.678	34.83
792.855	35.64
793.032	36.33
793.209	36.71
793.387	36.78
793.564	38.09
793.741	38.38
793.918	37.62
794.095	37.73
794.272	37.64
794.449	38.82
794.626	39.35
794.803	37.94
794.98	37.09
795.157	35.5
795.334	34.28
795.511	32.94
795.688	31.86
795.864	32.57
796.041	32.41
796.218	32.44
796.395	31.45
796.572	31.58
796.749	31.4
796.925	31.87
797.102	32.97
797.279	34.48
797.456	34.61
797.632	35.61
797.809	35.11
797.986	35.19
798.162	34.47
798.339	34.62
798.516	34.05
798.692	35.63
798.869	36.29
799.046	36.41
799.222	35.74
799.399	36.25
799.575	35.75
799.752	36.67
799.928	36.61
800.105	35.98
800.281	36.49
800.458	36.44
800.634	35.51
800.811	34.74
800.987	33.95
801.163	33.17
801.34	33.78
801.516	33.43
801.692	33.2
801.869	32.46
802.045	33.48
802.221	32.45
802.398	32.46
802.574	32.88
802.75	31.85
802.926	30.95
803.103	31.81
803.279	31.22
803.455	32.57
803.631	33.21
803.807	33.9
803.983	33.24
804.16	33.58
804.336	32.55
804.512	31.91
804.688	33.51
804.864	34.75
805.04	34.2
805.216	33.57
805.392	32.39
805.568	30.74
805.744	30.77
805.92	31.08
806.096	31.26
806.272	33.03
806.448	33.02
806.623	32.75
806.799	32.16
806.975	31.87
807.151	32.31
807.327	32.19
807.503	31.91
807.678	32.75
807.854	33.27
808.03	33.59
808.206	33.14
808.381	32.93
808.557	34.35
808.733	34.73
808.908	35
809.084	34.49
809.26	34.84
809.435	34.13
809.611	33.43
809.787	32.27
809.962	32.13
810.138	31.98
810.313	32.26
810.489	30.98
810.664	31.28
810.84	31.64
811.015	31.24
811.191	30.91
811.366	33.39
811.542	33.58
811.717	34.73
811.892	34.93
812.068	34.38
812.243	34.72
812.419	35.5
812.594	35.96
812.769	34.84
812.944	35.47
813.12	34.88
813.295	33.69
813.47	33.43
813.645	32.8
813.821	31.99
813.996	32.1
814.171	31.76
814.346	31.09
814.521	30.21
814.697	29.43
814.872	28.89
815.047	29.75
815.222	29.1
815.397	29.32
815.572	30.11
815.747	31.65
815.922	30.79
816.097	31.03
816.272	30.67
816.447	30.14
816.622	31.62
816.797	32.01
816.972	32.09
817.147	32.17
817.322	31.62
817.496	31.13
817.671	30.78
817.846	30.98
818.021	30.4
818.196	30.05
818.371	29.84
818.545	29.52
818.72	30.14
818.895	29.4
819.069	29.25
819.244	28.73
819.419	28.59
819.594	27.66
819.768	27.77
819.943	26.55
820.117	25.64
820.292	24.91
820.467	24.04
820.641	22.96
820.816	22.73
820.99	22.52
821.165	21.98
821.339	21.61
821.514	21.65
821.688	21.49
821.863	21.72
822.037	21.87
822.212	22.16
822.386	22.16
822.56	22.02
822.735	22.12
822.909	22.03
823.084	22.39
823.258	22.23
823.432	22.09
823.606	22.14
823.781	21.92
823.955	21.86
824.129	21.81
824.303	21.98
824.478	22.28
824.652	22.05
824.826	22.11
825	22.08
825.174	22.82
825.348	22.83
825.523	23.09
825.697	23.47
825.871	23.37
826.045	22.69
826.219	22.61
826.393	22.81
826.567	22.96
826.741	23.34
826.915	23.35
827.089	23
827.263	23.39
827.437	23.46
827.611	23.82
827.784	24.45
827.958	24.87
828.132	24.72
828.306	25.2
828.48	25.25
828.654	25.18
828.827	24.79
829.001	25.72
829.175	25.86
829.349	25.67
829.522	24.98
829.696	24.93
829.87	25.5
830.044	26.67
830.217	26.53
830.391	26.71
830.565	27.17
830.738	28.62
830.912	28.13
831.085	27.86
831.259	29.09
831.432	31.13
831.606	30.26
831.779	30.41
831.953	30.19
832.126	29.17
832.3	28.74
832.473	27.53
832.647	27.7
832.82	26.98
832.994	25.94
833.167	25.39
833.34	24.69
833.514	24.27
833.687	24.05
833.86	23.81
834.034	23.84
834.207	24.13
834.38	24.47
834.553	23.51
834.727	23.74
834.9	24.44
835.073	24.89
835.246	24.71
835.419	25.67
835.593	25.74
835.766	26.1
835.939	25.8
836.112	25.65
836.285	26.45
836.458	26.28
836.631	25.6
836.804	25.31
836.977	24.8
837.15	25.75
837.323	26.46
837.496	27.62
837.669	28.06
837.842	30.31
838.015	31.34
838.188	31.45
838.361	32.43
838.533	32.84
838.706	34.07
838.879	34.38
839.052	35.08
839.225	34.66
839.398	32.52
839.57	32.68
839.743	30.93
839.916	31.38
840.088	30.5
840.261	30.24
840.434	30.88
840.607	31.19
840.779	31.87
840.952	30.64
841.124	28.92
841.297	28.61
841.47	27.59
841.642	27.42
841.815	28.2
841.987	28.97
842.16	31.65
842.332	30.93
842.505	30.85
842.677	29.62
842.85	30.13
843.022	31.7
843.194	32.61
843.367	34.73
843.539	37.27
843.712	38
843.884	39.62
844.056	39.09
844.229	41.08
844.401	40.92
844.573	43.75
844.745	43.63
844.918	45.11
845.09	45.13
845.262	42.06
845.434	41.76
845.606	39.56
845.779	38.51
845.951	37.95
846.123	38.17
846.295	41.12
846.467	37.32
846.639	38.17
846.811	36.13
846.983	39.24
847.155	43.9
847.327	39.55
847.499	40.11
847.671	41.23
847.843	43.45
848.015	44.26
848.187	41.69
848.359	44.78
848.531	43.64
848.703	43.8
848.875	41.25
849.047	39.99
849.218	48.17
849.39	50.17
849.562	48.91
849.734	50.33
849.905	46.14
850.077	44.65
850.249	43.86
850.421	45.16
850.592	45.63
850.764	49.7
850.936	47.07
851.107	44.48
851.279	42.16
851.451	42.31
851.622	39.5
851.794	42.47
851.965	45.01
852.137	44.29
852.308	43.27
852.48	46.06
852.651	43.11
852.823	41.94
852.994	39.93
853.166	38.8
853.337	38.58
853.509	38.83
853.68	38.06
853.851	37.12
854.023	36.99
854.194	37.21
854.365	35.56
854.537	35.34
854.708	38.96
854.879	40.31
855.05	41.51
855.222	42.93
855.393	40.64
855.564	40.79
855.735	38.78
855.906	38.8
856.078	37.86
856.249	39.51
856.42	38.07
856.591	38.43
856.762	38.51
856.933	35.35
857.104	35.46
857.275	37.78
857.446	39.94
857.617	39.12
857.788	37.46
857.959	40.57
858.13	41.12
858.301	42.52
858.472	44.9
858.643	41.24
858.814	45.36
858.985	43.37
859.155	42.5
859.326	42.46
859.497	48.68
859.668	53.32
859.839	52.37
860.009	51.91
860.18	52.89
860.351	49.69
860.522	50.13
860.692	49.72
860.863	54.18
861.034	56.69
861.204	57.72
861.375	53.5
861.546	48.67
861.716	46.37
861.887	43.75
862.057	43.05
862.228	36.7
862.398	39.05
862.569	38.57
862.739	32.82
862.91	28.04
863.08	21.67
863.251	22.17
863.421	20.97
863.592	22.89
863.762	23.77
863.932	21.01
864.103	24.23
864.273	24.96
864.443	26.79
864.614	28.47
864.784	32.63
864.954	38.13
865.125	36.43
865.295	42.87
865.465	38.11
865.635	32.85
865.805	34.81
865.976	33.59
866.146	29.26
866.316	26.1
866.486	24.03
866.656	23.26
866.826	26
866.996	30.7
867.166	27.67
867.336	27.64
867.506	28.12
867.676	22.92
867.846	27.34
868.016	26.49
868.186	27.08
868.356	28.94
868.526	27.87
868.696	24.79
868.866	22.16
869.036	18.57
869.206	21.3
869.376	27.72
869.545	33.36
869.715	30.91
869.885	34.75
870.055	35.35
870.224	35.03
870.394	40.19
870.564	37.64
870.734	35.32
870.903	35.9
871.073	35.85
871.243	36.22
871.412	31.51
871.582	34.61
871.751	36.88
871.921	35.34
872.091	34.27
872.26	28.08
872.43	28.75
872.599	30.27
872.769	35.57
872.938	38.01
873.108	37.03
873.277	41.64
873.446	40.01
873.616	34.1
873.785	38.56
873.955	38.9
874.124	35.57
874.293	35
874.463	32.67
874.632	32.74
874.801	28.08
874.971	31.44
875.14	33.93
875.309	32.4
875.478	34.86
875.647	29.22
875.817	30.02
875.986	31.75
876.155	32.82
876.324	35.06
876.493	25.44
876.662	30.07
876.831	29.37
877	23.27
877.17	27.26
877.339	30.75
877.508	29.6
877.677	28.92
877.846	34.12
878.015	34.45
878.184	33.86
878.352	39.25
878.521	42.01
878.69	36.99
878.859	34.53
879.028	34.07
879.197	29.5
879.366	30.05
879.534	29.56
879.703	25.32
879.872	23.11
880.041	24.36
880.21	23.55
880.378	20.64
880.547	20.8
880.716	21.37
880.884	20.58
881.053	20.07
881.222	19.84
881.39	19.57
881.559	21.22
881.727	21.64
881.896	21.21
882.065	21.31
882.233	21.17
882.402	21.68
882.57	21.95
882.739	21.78
882.907	22.27
883.076	22.32
883.244	22.83
883.412	22.3
883.581	22.36
883.749	22.17
883.918	20.84
884.086	21.68
884.254	21.19
884.423	20.17
884.591	20.66
884.759	20.13
884.927	20.77
885.096	20.67
885.264	21.6
885.432	22.08
885.6	21.38
885.769	24.19
885.937	23.4
886.105	23.35
886.273	26.83
886.441	25.37
886.609	25.83
886.777	25.51
886.945	25.79
887.113	25.8
887.281	23.68
887.449	27.02
887.617	28.45
887.785	30.46
887.953	31.25
888.121	28.8
888.289	30.09
888.457	33.11
888.625	35.42
888.793	36.21
888.961	33.25
889.129	33.6
889.296	34.5
889.464	32.44
889.632	30.36
889.8	30.08
889.967	32.27
890.135	34.26
