Data from 2938812__Reflection_04.txt Node
Date: Thu Mar 12 16:51:26 EDT 2015
User: robert
Spectrometer: USB4E03002
Autoset integration time: false
Trigger mode: 4
Integration Time (sec): 1.000000E-1
Scans to average: 10
Electric dark correction enabled: false
Nonlinearity correction enabled: false
Boxcar width: 5
Stray light correction enabled: false
XAxis mode: Wavelengths
Stop averaging: false
Number of Pixels in Spectrum: 3648
>>>>>Begin Spectral Data<<<<<
177.575	-235.38
177.794	-701.23
178.014	1669.05
178.233	-3842.86
178.452	-16150
178.672	-2534.62
178.891	734.29
179.11	668.52
179.33	156.88
179.549	606.52
179.768	189.57
179.987	200.68
180.207	549.38
180.426	813.33
180.645	200
180.864	269.77
181.084	263.5
181.303	330.27
181.522	270.63
181.741	594.4
181.96	1671.79
182.179	918.52
182.398	-577.19
182.618	252.6
182.837	1087.76
183.056	279.58
183.275	361.63
183.494	1246.15
183.713	-35200
183.932	265.81
184.151	107.52
184.37	47.4
184.589	50.51
184.808	76.09
185.027	64.6
185.246	29.06
185.465	33.68
185.684	-90.16
185.903	-299.19
186.122	-188.78
186.341	547.46
186.56	4860
186.779	122.34
186.998	58.06
187.216	55.84
187.435	29.83
187.654	0.81
187.873	-20.47
188.092	-65.48
188.311	-214.64
188.53	-135.9
188.748	-126.8
188.967	-96.01
189.186	-358.02
189.405	-1448.65
189.623	900
189.842	160.44
190.061	126.3
190.28	140.25
190.498	157.69
190.717	169.46
190.936	139.96
191.154	112.93
191.373	113.34
191.592	155.95
191.81	145.05
192.029	143.72
192.248	203.66
192.466	249.38
192.685	251.22
192.904	194.41
193.122	131.93
193.341	93.67
193.559	96.47
193.778	67.67
193.996	63.94
194.215	58
194.433	69.58
194.652	65.86
194.87	77.84
195.089	74.59
195.307	81.37
195.526	70.9
195.744	104.16
195.963	152.6
196.181	185.77
196.399	140.87
196.618	172.11
196.836	321.92
197.055	133.91
197.273	127.67
197.491	92
197.71	122.73
197.928	222.14
198.146	192.54
198.365	88.59
198.583	94.68
198.801	15.04
199.019	61.75
199.238	106.91
199.456	168.89
199.674	158.97
199.892	686.84
200.111	209.52
200.329	180.75
200.547	68.77
200.765	58.27
200.983	59.95
201.202	46.96
201.42	-255.17
201.638	-21000
201.856	-301.92
202.074	1593.33
202.292	-184.37
202.51	-103.6
202.728	-38.97
202.946	5.3
203.165	66.67
203.383	93.88
203.601	132.91
203.819	134.36
204.037	158.85
204.255	116.5
204.473	123.79
204.691	119.35
204.909	148.13
205.127	172.53
205.345	130.93
205.562	134.1
205.78	203.85
205.998	304.69
206.216	322.12
206.434	282.21
206.652	-1352.17
206.87	-344.19
207.088	65.29
207.306	76.61
207.523	-25.81
207.741	-340
207.959	250.64
208.177	128.07
208.395	128.72
208.612	95.19
208.83	69.59
209.048	78.55
209.266	89.49
209.483	82.86
209.701	86.46
209.919	72.13
210.136	68.83
210.354	57.21
210.572	51.12
210.79	36.51
211.007	41.45
211.225	38.11
211.442	33.33
211.66	16.2
211.878	44.47
212.095	26.1
212.313	34.96
212.53	45.84
212.748	49.38
212.966	46.41
213.183	46.3
213.401	46.27
213.618	54.69
213.836	43.96
214.053	53.37
214.271	45.71
214.488	63.67
214.705	54.83
214.923	25.72
215.14	32.4
215.358	25.82
215.575	18.65
215.793	12.46
216.01	-13.37
216.227	-20.9
216.445	-34.96
216.662	-57.1
216.879	-69.85
217.097	-68.86
217.314	-42.86
217.531	-33.07
217.749	-9.29
217.966	-8.51
218.183	4.04
218.4	18.16
218.618	22.68
218.835	29.1
219.052	35.69
219.269	31.94
219.487	39.13
219.704	44.89
219.921	52.88
220.138	35.62
220.355	42.9
220.572	39.04
220.79	44.82
221.007	51.48
221.224	41.42
221.441	38.8
221.658	36.6
221.875	28.8
222.092	25.16
222.309	21.38
222.526	23.37
222.743	23.03
222.96	25.99
223.177	19.4
223.394	21.13
223.611	20.56
223.828	17.06
224.045	18.17
224.262	7.98
224.479	7.2
224.696	6.22
224.913	5.08
225.13	4.37
225.347	6.65
225.564	4.61
225.781	0.06
225.997	1.13
226.214	3.26
226.431	2.98
226.648	7.44
226.865	9.31
227.082	7.39
227.298	6.83
227.515	7.11
227.732	6.5
227.949	7.93
228.165	8.53
228.382	8.44
228.599	7.98
228.816	7.34
229.032	6.25
229.249	5.7
229.466	5.67
229.682	5.06
229.899	4.39
230.116	3.78
230.332	2.64
230.549	2
230.765	0.93
230.982	1.18
231.199	0.86
231.415	1.7
231.632	2.27
231.848	2.21
232.065	3.27
232.281	2.71
232.498	3.55
232.714	4.55
232.931	4.02
233.147	5.38
233.364	4.07
233.58	6.03
233.797	5.49
234.013	4.89
234.23	4.85
234.446	4.25
234.662	5.48
234.879	3.67
235.095	2.26
235.312	2.82
235.528	4.71
235.744	6.3
235.961	6.75
236.177	6.95
236.393	8.03
236.61	10.66
236.826	11.66
237.042	10.04
237.258	11.67
237.475	13.05
237.691	12.17
237.907	9.46
238.123	7.88
238.339	6.81
238.556	5.44
238.772	2.73
238.988	1.89
239.204	1.15
239.42	2.63
239.636	3.38
239.853	4.68
240.069	5.62
240.285	6.24
240.501	5.69
240.717	5.99
240.933	5.95
241.149	6.5
241.365	6.42
241.581	6.73
241.797	6.71
242.013	6.55
242.229	5.61
242.445	5.89
242.661	5.93
242.877	5.73
243.093	5.58
243.309	6.1
243.525	5.53
243.741	5.41
243.957	5.12
244.173	4.81
244.388	4.75
244.604	4.48
244.82	3.39
245.036	3.53
245.252	4.35
245.468	4.59
245.683	4.46
245.899	4.94
246.115	4.14
246.331	4.17
246.547	4.21
246.762	4.32
246.978	4.75
247.194	4.87
247.409	4.81
247.625	4.54
247.841	4.37
248.057	4.19
248.272	4.21
248.488	4.62
248.703	4.57
248.919	3.98
249.135	3.78
249.35	3.23
249.566	3.39
249.782	3.24
249.997	3.86
250.213	3.4
250.428	4.24
250.644	4.11
250.859	4.39
251.075	4.57
251.29	5.98
251.506	5.45
251.721	5.75
251.937	5.2
252.152	5.16
252.368	4.29
252.583	5.34
252.798	4.94
253.014	4.49
253.229	4.36
253.445	3.58
253.66	4.01
253.875	4.31
254.091	4.62
254.306	4.56
254.521	3.42
254.737	4.37
254.952	3.67
255.167	2.98
255.383	4.18
255.598	4.14
255.813	5.96
256.028	4.06
256.244	4.37
256.459	4.24
256.674	5.47
256.889	5.67
257.104	5.09
257.32	3.94
257.535	4.2
257.75	3.69
257.965	3.11
258.18	2.3
258.395	3.16
258.61	3.27
258.826	2.86
259.041	2.4
259.256	2.58
259.471	2.76
259.686	3.03
259.901	3.08
260.116	3.09
260.331	3.43
260.546	3.67
260.761	3.4
260.976	3.24
261.191	3.41
261.406	3.6
261.621	3.63
261.836	3.98
262.05	4.14
262.265	4.29
262.48	4.5
262.695	4.4
262.91	5.16
263.125	5.03
263.34	4.94
263.555	4.56
263.769	4.42
263.984	5.02
264.199	4.36
264.414	3.74
264.629	3.13
264.843	2.74
265.058	2.14
265.273	1.4
265.488	2.46
265.702	2.8
265.917	2.93
266.132	2.56
266.346	2.1
266.561	1.86
266.776	2.25
266.99	2.7
267.205	2.78
267.42	3
267.634	2.97
267.849	2.39
268.063	1.9
268.278	2.08
268.492	2.35
268.707	2.84
268.922	3.2
269.136	3.54
269.351	3.89
269.565	3.85
269.78	4.46
269.994	4.7
270.209	4.59
270.423	4.86
270.637	4.81
270.852	4.79
271.066	4.34
271.281	4.15
271.495	3.8
271.709	3.17
271.924	3.5
272.138	3.19
272.353	3.01
272.567	3.08
272.781	3.32
272.996	3.24
273.21	3.03
273.424	2.96
273.638	2.86
273.853	3.13
274.067	3.43
274.281	3.06
274.495	3.04
274.71	2.77
274.924	3.01
275.138	2.91
275.352	3.21
275.566	3.25
275.781	3.71
275.995	4.19
276.209	3.97
276.423	4.06
276.637	4.27
276.851	4
277.065	4.01
277.279	3.79
277.493	3.55
277.707	3.8
277.921	4.09
278.135	3.83
278.349	3.9
278.563	4.57
278.777	4.54
278.991	4.25
279.205	4.38
279.419	4.72
279.633	5.19
279.847	4.79
280.061	4.9
280.275	4.9
280.489	4.84
280.703	4.5
280.917	3.62
281.131	3.56
281.344	3.65
281.558	3.35
281.772	3.37
281.986	2.74
282.2	3.13
282.414	2.72
282.627	2.74
282.841	3.03
283.055	2.99
283.269	3.1
283.482	3.13
283.696	3.28
283.91	3.57
284.123	3.77
284.337	3.7
284.551	3.61
284.764	3.77
284.978	3.72
285.192	3.33
285.405	2.98
285.619	3.05
285.833	3.03
286.046	3
286.26	3.2
286.473	3.01
286.687	3.32
286.9	3.36
287.114	3.11
287.327	3.07
287.541	3.31
287.754	3.91
287.968	4.31
288.181	3.97
288.395	3.89
288.608	3.38
288.822	3.41
289.035	2.93
289.248	2.9
289.462	3.17
289.675	3.22
289.889	3.1
290.102	2.83
290.315	2.53
290.529	2.87
290.742	3.01
290.955	3.44
291.169	3.67
291.382	3.9
291.595	4.02
291.808	3.79
292.022	3.69
292.235	3.82
292.448	4.11
292.661	3.98
292.875	4.39
293.088	4.55
293.301	4.42
293.514	4.04
293.727	4.02
293.94	4.13
294.153	4.28
294.367	4.27
294.58	4.19
294.793	4.1
295.006	4.43
295.219	3.85
295.432	3.87
295.645	3.85
295.858	4.01
296.071	4.01
296.284	4.02
296.497	4.14
296.71	4.36
296.923	4.29
297.136	4.44
297.349	4.3
297.562	4.5
297.775	4.69
297.988	4.82
298.201	4.87
298.414	5.16
298.626	5.09
298.839	5.38
299.052	5.18
299.265	5.47
299.478	5.6
299.691	5.74
299.903	6.12
300.116	6.05
300.329	6.26
300.542	6.44
300.755	6.5
300.967	6.49
301.18	5.96
301.393	5.96
301.605	5.96
301.818	5.79
302.031	5.82
302.243	5.83
302.456	6.04
302.669	5.71
302.881	5.65
303.094	5.69
303.307	6.06
303.519	6.5
303.732	6.96
303.944	6.99
304.157	7.24
304.37	7.38
304.582	7.08
304.795	6.8
305.007	7.13
305.22	7.34
305.432	7.15
305.645	7.11
305.857	7.13
306.069	6.93
306.282	6.82
306.494	6.56
306.707	6.43
306.919	6.65
307.132	7.27
307.344	7.25
307.556	6.7
307.769	6.99
307.981	6.88
308.193	6.9
308.406	7.46
308.618	7.83
308.83	7.84
309.043	7.92
309.255	7.91
309.467	7.11
309.679	6.76
309.892	7.12
310.104	7.23
310.316	7.44
310.528	7.42
310.74	7.22
310.953	7.16
311.165	7.22
311.377	7.24
311.589	7.47
311.801	7.56
312.013	8.08
312.225	8.21
312.437	8.18
312.649	8.23
312.862	8.09
313.074	7.67
313.286	7.73
313.498	7.93
313.71	8.12
313.922	8.16
314.134	8.35
314.346	8.42
314.558	8.44
314.77	8.41
314.982	8.19
315.193	8.39
315.405	9.02
315.617	9.05
315.829	9.19
316.041	9.41
316.253	9.16
316.465	9.95
316.677	10.17
316.888	9.96
317.1	9.89
317.312	10.51
317.524	10.58
317.736	10.53
317.947	10.49
318.159	10.41
318.371	10.18
318.583	10.53
318.794	10.34
319.006	10.11
319.218	10.24
319.43	10.65
319.641	10.03
319.853	10.16
320.064	10.14
320.276	10.54
320.488	10.77
320.699	10.95
320.911	10.95
321.123	10.81
321.334	10.06
321.546	10.56
321.757	10.36
321.969	10.69
322.18	10.6
322.392	10.2
322.603	9.82
322.815	9.87
323.026	10.29
323.238	10.21
323.449	10.29
323.661	10.68
323.872	10.5
324.083	10.81
324.295	10.72
324.506	10.54
324.718	10.79
324.929	11.14
325.14	10.81
325.352	10.47
325.563	10.66
325.774	10.73
325.986	10.66
326.197	10.7
326.408	10.67
326.62	11.28
326.831	11.85
327.042	12.17
327.253	12
327.464	12.35
327.676	12.31
327.887	12.17
328.098	12.28
328.309	13.16
328.52	13.35
328.732	13.51
328.943	13.53
329.154	13.51
329.365	13.39
329.576	13.8
329.787	13.8
329.998	14.93
330.209	14.9
330.42	15.37
330.631	15.03
330.842	14.52
331.053	14.65
331.264	14.56
331.475	14.76
331.686	15.24
331.897	15.16
332.108	15.48
332.319	15.38
332.53	15.73
332.741	15.45
332.952	15.77
333.163	16.73
333.374	16.74
333.585	16.77
333.795	16.5
334.006	16.41
334.217	16.44
334.428	16.12
334.639	15.97
334.849	16.41
335.06	16.25
335.271	16.31
335.482	16.23
335.692	16.28
335.903	16.47
336.114	16.93
336.325	16.92
336.535	17.18
336.746	17.39
336.957	17.13
337.167	16.61
337.378	16.86
337.589	16.69
337.799	16.38
338.01	16.19
338.22	16.05
338.431	15.55
338.642	15.7
338.852	15.49
339.063	15.45
339.273	15.32
339.484	15.55
339.694	15.37
339.905	15.54
340.115	15.61
340.326	15.63
340.536	15.56
340.746	16.06
340.957	16.19
341.167	16.46
341.378	16.75
341.588	16.82
341.799	16.94
342.009	16.89
342.219	16.77
342.43	16.91
342.64	17
342.85	17.19
343.061	16.91
343.271	16.7
343.481	16.71
343.691	16.48
343.902	16.7
344.112	16.79
344.322	16.9
344.532	16.79
344.743	16.72
344.953	17.07
345.163	17.01
345.373	17.1
345.583	17.12
345.793	17.24
346.004	17.22
346.214	17.26
346.424	17.35
346.634	17.38
346.844	17.53
347.054	17.83
347.264	17.53
347.474	17.51
347.684	17.45
347.894	17.31
348.104	17.05
348.314	16.93
348.524	16.65
348.734	16.3
348.944	16.26
349.154	16.15
349.364	16
349.574	16.12
349.784	15.87
349.994	16.03
350.204	16.06
350.413	16.07
350.623	16.1
350.833	16.11
351.043	15.77
351.253	16.05
351.463	16.12
351.672	16.32
351.882	16.13
352.092	16.21
352.302	15.94
352.511	15.89
352.721	15.95
352.931	15.96
353.141	15.9
353.35	16.07
353.56	15.67
353.77	15.62
353.979	15.35
354.189	15.46
354.399	15.98
354.608	16.25
354.818	16.14
355.027	15.96
355.237	15.98
355.447	16.14
355.656	16.43
355.866	16.56
356.075	16.49
356.285	16.4
356.494	16.38
356.704	16.05
356.913	15.85
357.123	16
357.332	16
357.542	16.06
357.751	16.12
357.96	15.96
358.17	15.89
358.379	15.94
358.589	15.82
358.798	15.76
359.007	15.82
359.217	15.93
359.426	16.1
359.635	16.31
359.845	16.13
360.054	16.08
360.263	15.97
360.472	15.98
360.682	15.78
360.891	15.86
361.1	15.84
361.309	15.76
361.519	15.56
361.728	15.57
361.937	15.11
362.146	15.19
362.355	14.94
362.564	15.1
362.774	14.91
362.983	14.96
363.192	14.86
363.401	15.04
363.61	14.84
363.819	14.91
364.028	14.76
364.237	15.11
364.446	15.25
364.655	15.72
364.864	15.42
365.073	15.36
365.282	15.29
365.491	15.41
365.7	15.06
365.909	15.12
366.118	15.17
366.327	15.12
366.536	15.05
366.745	14.88
366.954	14.45
367.162	14.39
367.371	14.73
367.58	14.78
367.789	14.65
367.998	14.57
368.207	14.24
368.415	14.19
368.624	13.86
368.833	13.91
369.042	13.63
369.25	13.6
369.459	13.65
369.668	13.29
369.877	13.33
370.085	13.25
370.294	13.21
370.503	13.44
370.711	13.39
370.92	13.51
371.129	13.18
371.337	13.36
371.546	13.34
371.754	13.35
371.963	13.61
372.171	13.34
372.38	13.26
372.589	13.25
372.797	13.21
373.006	13
373.214	12.92
373.423	12.82
373.631	12.76
373.84	12.55
374.048	12.51
374.256	12.09
374.465	12.04
374.673	12.09
374.882	12
375.09	11.92
375.298	12.1
375.507	12.16
375.715	12.34
375.923	12.4
376.132	12.42
376.34	12.31
376.548	12.36
376.757	12.38
376.965	12.22
377.173	12.27
377.381	12.2
377.59	12.04
377.798	12.01
378.006	11.74
378.214	11.51
378.423	11.4
378.631	11.43
378.839	11.24
379.047	11.42
379.255	11.29
379.463	11.19
379.671	11.34
379.879	11.16
380.088	11.12
380.296	11.27
380.504	11.46
380.712	11.46
380.92	11.06
381.128	11.23
381.336	11.03
381.544	11.36
381.752	11.29
381.96	10.95
382.168	11
382.376	11
382.584	10.87
382.791	10.73
382.999	10.76
383.207	11.29
383.415	11.29
383.623	11.24
383.831	10.85
384.039	10.72
384.247	10.79
384.454	10.91
384.662	10.61
384.87	10.58
385.078	10.36
385.285	10.36
385.493	10.22
385.701	9.97
385.909	9.86
386.116	9.88
386.324	10.09
386.532	10.02
386.739	9.91
386.947	10.08
387.155	10.37
387.362	10.52
387.57	10.59
387.778	10.58
387.985	10.71
388.193	10.43
388.4	10.57
388.608	10.46
388.816	10.53
389.023	10.53
389.231	10.53
389.438	10.32
389.646	9.96
389.853	9.95
390.061	9.86
390.268	9.66
390.475	9.96
390.683	9.88
390.89	9.86
391.098	9.79
391.305	9.72
391.512	9.59
391.72	9.37
391.927	9.53
392.135	9.4
392.342	9.37
392.549	9.48
392.756	9.62
392.964	9.5
393.171	9.55
393.378	9.56
393.586	9.43
393.793	9.39
394	9.46
394.207	9.55
394.414	9.47
394.622	9.39
394.829	9.55
395.036	9.14
395.243	9.28
395.45	9.18
395.657	9.09
395.864	9.06
396.072	9.12
396.279	9.31
396.486	9.23
396.693	9.19
396.9	9.2
397.107	9.11
397.314	9.37
397.521	9.44
397.728	9.41
397.935	9.77
398.142	10.07
398.349	10.15
398.556	10.01
398.763	9.91
398.97	10.03
399.177	9.98
399.383	9.8
399.59	9.67
399.797	9.48
400.004	9.53
400.211	9.09
400.418	9.03
400.625	8.86
400.831	8.96
401.038	9.05
401.245	9.17
401.452	9
401.658	9.1
401.865	9.13
402.072	9.14
402.279	9.21
402.485	9.17
402.692	9
402.899	9.19
403.105	9.09
403.312	9.14
403.519	9.1
403.725	9.05
403.932	8.91
404.138	9
404.345	9.06
404.552	9.03
404.758	9.08
404.965	9.13
405.171	8.88
405.378	8.91
405.584	8.77
405.791	8.53
405.997	8.75
406.204	8.59
406.41	8.63
406.617	8.67
406.823	8.63
407.029	8.75
407.236	8.64
407.442	8.69
407.649	8.69
407.855	8.84
408.061	9.05
408.268	9.04
408.474	9.32
408.68	9.19
408.887	9.06
409.093	9.08
409.299	8.91
409.505	8.74
409.712	8.73
409.918	8.61
410.124	8.38
410.33	8.27
410.537	8.26
410.743	8.31
410.949	8.4
411.155	8.4
411.361	8.3
411.567	8.47
411.773	8.6
411.98	8.66
412.186	8.63
412.392	8.75
412.598	8.83
412.804	8.71
413.01	8.49
413.216	8.38
413.422	8.29
413.628	8.42
413.834	8.3
414.04	8.37
414.246	8.38
414.452	8.35
414.658	8.3
414.864	8.15
415.07	8.24
415.275	8.23
415.481	8.13
415.687	8.22
415.893	8.08
416.099	8.12
416.305	8.25
416.511	8.28
416.716	8.35
416.922	8.39
417.128	8.49
417.334	8.44
417.539	8.56
417.745	8.73
417.951	8.72
418.157	8.75
418.362	8.68
418.568	8.51
418.774	8.48
418.979	8.44
419.185	8.45
419.391	8.44
419.596	8.39
419.802	8.32
420.008	8.17
420.213	7.37
420.419	7.28
420.624	7.27
420.83	7.34
421.035	7.35
421.241	7.39
421.446	7.39
421.652	7.42
421.857	7.52
422.063	7.57
422.268	7.7
422.474	8.42
422.679	8.44
422.885	8.75
423.09	8.75
423.295	8.76
423.501	8.65
423.706	8.56
423.911	8.38
424.117	8.33
424.322	8.29
424.527	8.13
424.733	8.2
424.938	8.24
425.143	7.95
425.349	7.89
425.554	7.84
425.759	7.92
425.964	7.98
426.169	8.06
426.375	7.99
426.58	7.92
426.785	8.01
426.99	7.95
427.195	8.04
427.4	8.05
427.605	8.05
427.811	8.06
428.016	8.04
428.221	8.04
428.426	8.11
428.631	8.1
428.836	8.22
429.041	8.26
429.246	8.38
429.451	8.24
429.656	8.19
429.861	8.21
430.066	8.38
430.271	8.4
430.476	8.5
430.681	8.51
430.886	8.59
431.09	8.51
431.295	8.39
431.5	8.22
431.705	8.21
431.91	8.24
432.115	8.18
432.32	8.02
432.524	8
432.729	8.01
432.934	8.05
433.139	7.94
433.343	7.98
433.548	8
433.753	7.98
433.958	8.04
434.162	7.97
434.367	8.1
434.572	8.16
434.776	8.18
434.981	8.08
435.186	8.02
435.39	8.18
435.595	8.22
435.799	8.2
436.004	8.29
436.209	8.32
436.413	8.43
436.618	8.29
436.822	8.16
437.027	8.18
437.231	8.2
437.436	8.17
437.64	8.12
437.845	8.09
438.049	8.24
438.253	8.15
438.458	8.08
438.662	8.12
438.867	8.14
439.071	8.19
439.275	8.02
439.48	7.94
439.684	7.95
439.888	7.99
440.093	7.99
440.297	7.89
440.501	7.97
440.706	7.95
440.91	7.88
441.114	7.93
441.318	7.95
441.523	8.05
441.727	8.09
441.931	8.09
442.135	8.07
442.339	8.04
442.543	8.06
442.748	8.02
442.952	8.08
443.156	8.12
443.36	8.12
443.564	8.09
443.768	8.11
443.972	8.18
444.176	8.22
444.38	8.25
444.584	8.24
444.788	8.23
444.992	8.32
445.196	8.15
445.4	8.15
445.604	8.12
445.808	8.06
446.012	7.96
446.216	7.89
446.42	7.85
446.624	7.78
446.828	7.74
447.032	7.69
447.235	7.6
447.439	7.67
447.643	7.57
447.847	7.49
448.051	7.57
448.254	7.65
448.458	7.59
448.662	7.57
448.866	7.56
449.069	7.58
449.273	7.59
449.477	7.51
449.681	7.6
449.884	7.71
450.088	7.81
450.292	7.73
450.495	7.74
450.699	7.8
450.902	7.73
451.106	7.76
451.31	7.84
451.513	7.79
451.717	7.81
451.92	7.71
452.124	7.64
452.327	7.64
452.531	7.65
452.734	7.58
452.938	7.52
453.141	7.59
453.345	7.56
453.548	7.52
453.752	7.64
453.955	7.64
454.158	7.68
454.362	7.74
454.565	7.69
454.769	7.66
454.972	7.72
455.175	7.73
455.379	7.83
455.582	7.74
455.785	7.61
455.988	7.58
456.192	7.61
456.395	7.62
456.598	7.52
456.801	7.44
457.005	7.47
457.208	7.47
457.411	7.48
457.614	7.44
457.817	7.49
458.021	7.61
458.224	7.61
458.427	7.58
458.63	7.59
458.833	7.57
459.036	7.67
459.239	7.71
459.442	7.71
459.645	7.73
459.848	7.68
460.051	7.71
460.254	7.72
460.457	7.71
460.66	7.78
460.863	7.8
461.066	7.77
461.269	7.68
461.472	7.61
461.675	7.62
461.878	7.67
462.081	7.67
462.284	7.67
462.486	7.69
462.689	7.72
462.892	7.79
463.095	7.68
463.298	7.79
463.5	7.87
463.703	7.92
463.906	7.97
464.109	7.97
464.311	8.07
464.514	8.09
464.717	8.1
464.92	8.06
465.122	7.91
465.325	7.89
465.528	7.86
465.73	7.81
465.933	7.83
466.135	7.75
466.338	7.81
466.541	7.8
466.743	7.85
466.946	7.82
467.148	7.86
467.351	8.02
467.553	8.07
467.756	8.16
467.958	8.25
468.161	8.2
468.363	8.29
468.566	8.19
468.768	8.25
468.971	8.24
469.173	8.27
469.375	8.15
469.578	8.01
469.78	8.07
469.983	8.11
470.185	8.13
470.387	8.13
470.59	8.04
470.792	8.01
470.994	8.04
471.196	8.09
471.399	8.14
471.601	8.38
471.803	8.41
472.005	8.37
472.208	8.25
472.41	8.43
472.612	8.49
472.814	8.45
473.016	8.45
473.218	8.43
473.421	8.25
473.623	8.24
473.825	8
474.027	7.99
474.229	8.05
474.431	8.14
474.633	7.9
474.835	7.76
475.037	7.92
475.239	8.08
475.441	8.09
475.643	8.2
475.845	8.19
476.047	8.33
476.249	8.27
476.451	8.22
476.653	8.17
476.855	8.18
477.057	8.27
477.258	8.25
477.46	8.21
477.662	8.15
477.864	8.07
478.066	8.06
478.268	8
478.469	8.1
478.671	8.08
478.873	8.18
479.075	8.15
479.276	8.28
479.478	8.24
479.68	8.21
479.882	8.2
480.083	8.25
480.285	8.22
480.487	8.19
480.688	8.21
480.89	8.21
481.091	8.13
481.293	8.17
481.495	8.09
481.696	8.02
481.898	7.99
482.099	7.93
482.301	7.9
482.502	7.85
482.704	7.87
482.905	7.81
483.107	7.81
483.308	7.81
483.51	7.81
483.711	7.8
483.913	7.82
484.114	7.81
484.315	7.84
484.517	7.85
484.718	7.88
484.92	7.87
485.121	7.88
485.322	7.87
485.524	7.89
485.725	7.88
485.926	7.89
486.127	7.92
486.329	7.96
486.53	7.94
486.731	7.95
486.932	7.95
487.134	7.98
487.335	7.98
487.536	7.97
487.737	7.97
487.938	7.96
488.139	7.97
488.341	7.9
488.542	7.86
488.743	7.9
488.944	7.9
489.145	7.9
489.346	7.86
489.547	7.87
489.748	7.94
489.949	7.88
490.15	7.92
490.351	7.97
490.552	8
490.753	8.06
490.954	8.02
491.155	8.01
491.356	8.03
491.557	8.08
491.758	8.08
491.959	8.07
492.159	8.13
492.36	8.16
492.561	8.14
492.762	8.19
492.963	8.21
493.164	8.25
493.364	8.28
493.565	8.25
493.766	8.21
493.967	8.27
494.167	8.23
494.368	8.21
494.569	8.23
494.769	8.3
494.97	8.27
495.171	8.3
495.371	8.37
495.572	8.41
495.773	8.52
495.973	8.56
496.174	8.6
496.375	8.59
496.575	8.59
496.776	8.61
496.976	8.56
497.177	8.61
497.377	8.66
497.578	8.61
497.778	8.64
497.979	8.59
498.179	8.54
498.38	8.55
498.58	8.61
498.78	8.7
498.981	8.7
499.181	8.74
499.382	8.75
499.582	8.74
499.782	8.77
499.983	8.86
500.183	8.92
500.383	9.04
500.584	9.06
500.784	9.15
500.984	9.19
501.184	9.23
501.385	9.29
501.585	9.3
501.785	9.31
501.985	9.37
502.185	9.38
502.386	9.46
502.586	9.41
502.786	9.45
502.986	9.47
503.186	9.49
503.386	9.52
503.586	9.5
503.786	9.6
503.987	9.62
504.187	9.69
504.387	9.63
504.587	9.6
504.787	9.72
504.987	9.85
505.187	9.92
505.387	9.95
505.587	10.04
505.786	10.15
505.986	10.22
506.186	10.3
506.386	10.3
506.586	10.49
506.786	10.71
506.986	10.84
507.186	10.89
507.386	10.9
507.585	11.02
507.785	11
507.985	11.04
508.185	11.06
508.384	11.1
508.584	11.24
508.784	11.26
508.984	11.28
509.183	11.33
509.383	11.38
509.583	11.47
509.782	11.65
509.982	11.74
510.182	11.88
510.381	11.99
510.581	12.1
510.781	12.14
510.98	12.21
511.18	12.26
511.379	12.31
511.579	12.37
511.778	12.47
511.978	12.34
512.177	12.42
512.377	12.43
512.576	12.52
512.776	12.58
512.975	12.67
513.175	12.76
513.374	12.87
513.573	12.9
513.773	12.9
513.972	13
514.172	13.13
514.371	13.32
514.57	13.45
514.77	13.48
514.969	13.59
515.168	13.69
515.367	13.73
515.567	13.82
515.766	14.04
515.965	14.14
516.164	14.34
516.364	14.44
516.563	14.46
516.762	14.64
516.961	14.75
517.16	14.9
517.359	15.01
517.559	15.17
517.758	15.27
517.957	15.36
518.156	15.55
518.355	15.6
518.554	15.7
518.753	15.83
518.952	15.86
519.151	15.93
519.35	15.99
519.549	16.1
519.748	16.2
519.947	16.29
520.146	16.38
520.345	16.41
520.544	16.45
520.743	16.62
520.942	16.74
521.141	16.86
521.339	17.05
521.538	17.11
521.737	17.2
521.936	17.32
522.135	17.48
522.333	17.63
522.532	17.84
522.731	18.04
522.93	18.17
523.129	18.24
523.327	18.39
523.526	18.49
523.725	18.67
523.923	18.88
524.122	18.96
524.321	19.03
524.519	19.14
524.718	19.26
524.917	19.44
525.115	19.49
525.314	19.66
525.512	19.79
525.711	19.92
525.909	20.1
526.108	20.19
526.306	20.34
526.505	20.51
526.703	20.66
526.902	20.84
527.1	20.91
527.299	21.09
527.497	21.21
527.696	21.32
527.894	21.42
528.092	21.45
528.291	21.52
528.489	21.63
528.688	21.71
528.886	21.73
529.084	21.77
529.283	21.82
529.481	21.85
529.679	21.86
529.877	21.9
530.076	21.99
530.274	22.14
530.472	22.22
530.67	22.29
530.869	22.37
531.067	22.55
531.265	22.71
531.463	22.93
531.661	23.16
531.859	23.35
532.057	23.53
532.255	23.63
532.454	23.69
532.652	23.85
532.85	23.92
533.048	24.04
533.246	24.07
533.444	24.1
533.642	24.12
533.84	24.13
534.038	24.18
534.236	24.28
534.434	24.4
534.632	24.47
534.83	24.54
535.027	24.65
535.225	24.73
535.423	24.83
535.621	25.03
535.819	25.17
536.017	25.25
536.215	25.33
536.412	25.35
536.61	25.41
536.808	25.52
537.006	25.63
537.203	25.74
537.401	25.81
537.599	25.97
537.797	25.98
537.994	26.05
538.192	26.15
538.39	26.26
538.587	26.35
538.785	26.37
538.983	26.42
539.18	26.56
539.378	26.71
539.575	26.8
539.773	26.89
539.97	27
540.168	27.03
540.366	27.08
540.563	27.07
540.761	27.14
540.958	27.15
541.155	27.23
541.353	27.2
541.55	27.2
541.748	27.24
541.945	27.22
542.143	27.22
542.34	27.25
542.537	27.34
542.735	27.41
542.932	27.42
543.129	27.49
543.327	27.56
543.524	27.57
543.721	27.64
543.919	27.71
544.116	27.89
544.313	27.94
544.51	28.04
544.708	28.1
544.905	28.23
545.102	28.36
545.299	28.47
545.496	28.51
545.693	28.58
545.891	28.66
546.088	28.69
546.285	28.65
546.482	28.69
546.679	28.71
546.876	28.71
547.073	28.78
547.27	28.78
547.467	28.87
547.664	28.93
547.861	28.98
548.058	29
548.255	29.01
548.452	28.97
548.649	29.04
548.846	29.13
549.043	29.13
549.24	29.04
549.437	28.97
549.633	28.92
549.83	28.87
550.027	28.97
550.224	28.99
550.421	28.95
550.618	29.03
550.814	29.07
551.011	29.02
551.208	29.12
551.405	29.15
551.601	29.27
551.798	29.27
551.995	29.37
552.191	29.42
552.388	29.34
552.585	29.4
552.781	29.34
552.978	29.34
553.175	29.34
553.371	29.36
553.568	29.44
553.764	29.38
553.961	29.41
554.157	29.28
554.354	29.28
554.55	29.42
554.747	29.55
554.943	29.69
555.14	29.7
555.336	29.72
555.533	29.66
555.729	29.71
555.926	29.85
556.122	29.88
556.318	30.16
556.515	30.11
556.711	30.16
556.907	30.05
557.104	30.1
557.3	30.16
557.496	30.23
557.693	30.3
557.889	30.28
558.085	30.35
558.281	30.46
558.478	30.21
558.674	30.3
558.87	30.18
559.066	30.2
559.262	30.06
559.459	30.05
559.655	29.99
559.851	30.01
560.047	30.02
560.243	29.9
560.439	29.75
560.635	29.94
560.831	29.86
561.027	29.85
561.223	29.95
561.419	30.11
561.615	30.18
561.811	30.28
562.007	30.15
562.203	30.13
562.399	30.12
562.595	30.26
562.791	30.15
562.987	30.16
563.183	30.29
563.379	30.22
563.575	30.11
563.771	30.12
563.966	30.05
564.162	30.2
564.358	30.23
564.554	30.25
564.75	30.22
564.945	30.36
565.141	30.46
565.337	30.56
565.533	30.58
565.728	30.61
565.924	30.7
566.12	30.72
566.315	30.72
566.511	30.65
566.707	30.65
566.902	30.66
567.098	30.63
567.293	30.66
567.489	30.53
567.684	30.6
567.88	30.69
568.076	30.62
568.271	30.68
568.467	30.68
568.662	30.72
568.858	30.79
569.053	30.74
569.248	30.68
569.444	30.6
569.639	30.65
569.835	30.59
570.03	30.59
570.225	30.55
570.421	30.6
570.616	30.71
570.812	30.79
571.007	30.79
571.202	30.82
571.397	30.86
571.593	30.96
571.788	30.96
571.983	31.04
572.178	31
572.374	31.1
572.569	31.12
572.764	31.14
572.959	31.01
573.154	31.06
573.35	31.11
573.545	31.2
573.74	31.17
573.935	31.19
574.13	31.2
574.325	31.32
574.52	31.37
574.715	31.32
574.91	31.19
575.105	31.28
575.3	31.22
575.495	31.24
575.69	31.21
575.885	31.18
576.08	31.13
576.275	31.1
576.47	31.04
576.665	30.89
576.86	30.94
577.055	31.02
577.25	31.08
577.444	31.08
577.639	31.12
577.834	31.11
578.029	31.22
578.224	31.15
578.418	31.07
578.613	31.17
578.808	31.15
579.003	31.08
579.197	31.07
579.392	31.16
579.587	31.09
579.781	31.07
579.976	31.03
580.171	30.95
580.365	31.1
580.56	31.17
580.755	30.95
580.949	31
581.144	31.04
581.338	31.05
581.533	31.08
581.727	31.21
581.922	31.24
582.116	31.34
582.311	31.37
582.505	31.49
582.7	31.61
582.894	31.75
583.089	32
583.283	32.11
583.478	32.07
583.672	32.03
583.866	32.08
584.061	32.11
584.255	32.15
584.449	32.03
584.644	31.83
584.838	31.81
585.032	31.93
585.226	31.8
585.421	31.76
585.615	32
585.809	32
586.003	32.01
586.198	32.02
586.392	32.09
586.586	32.2
586.78	32.34
586.974	32.36
587.168	32.29
587.363	32.31
587.557	32.38
587.751	32.17
587.945	32.09
588.139	31.99
588.333	31.92
588.527	31.8
588.721	31.91
588.915	31.91
589.109	31.94
589.303	31.89
589.497	31.93
589.691	31.92
589.885	31.92
590.079	32.16
590.273	32.3
590.466	32.51
590.66	32.6
590.854	32.63
591.048	32.63
591.242	32.68
591.436	32.74
591.629	32.63
591.823	32.61
592.017	32.61
592.211	32.56
592.404	32.59
592.598	32.38
592.792	32.48
592.986	32.51
593.179	32.45
593.373	32.34
593.567	32.41
593.76	32.48
593.954	32.41
594.147	32.58
594.341	32.48
594.535	32.57
594.728	32.65
594.922	32.59
595.115	32.47
595.309	32.59
595.502	32.7
595.696	32.67
595.889	32.66
596.083	32.77
596.276	32.82
596.47	32.88
596.663	32.79
596.856	32.87
597.05	32.83
597.243	32.88
597.437	32.96
597.63	32.92
597.823	32.9
598.017	32.94
598.21	32.89
598.403	32.81
598.596	32.91
598.79	33.04
598.983	32.98
599.176	32.97
599.369	33.13
599.563	32.98
599.756	32.92
599.949	33.01
600.142	33.05
600.335	33.19
600.528	33.23
600.722	33.1
600.915	33.02
601.108	33.09
601.301	33.2
601.494	33.14
601.687	33.42
601.88	33.59
602.073	33.57
602.266	33.51
602.459	33.51
602.652	33.49
602.845	33.51
603.038	33.6
603.231	33.57
603.424	33.54
603.617	33.42
603.809	33.28
604.002	33.25
604.195	33.34
604.388	33.41
604.581	33.38
604.774	33.32
604.966	33.33
605.159	33.26
605.352	33.17
605.545	33.15
605.737	33.24
605.93	33.24
606.123	33.19
606.316	33.12
606.508	33.17
606.701	33.26
606.894	33.45
607.086	33.6
607.279	33.69
607.471	33.86
607.664	34.08
607.857	34.19
608.049	34.26
608.242	34.39
608.434	34.69
608.627	34.73
608.819	34.97
609.012	35.18
609.204	35.37
609.397	35.76
609.589	36.13
609.782	36.52
609.974	37.13
610.166	37.6
610.359	38.18
610.551	38.5
610.743	39.09
610.936	39.32
611.128	39.58
611.32	39.82
611.513	39.84
611.705	39.95
611.897	39.88
612.09	39.56
612.282	39.63
612.474	39.28
612.666	38.94
612.858	38.66
613.051	38.72
613.243	38.49
613.435	38.21
613.627	37.96
613.819	37.8
614.011	37.61
614.203	37.44
614.395	36.99
614.588	36.95
614.78	36.92
614.972	36.83
615.164	36.34
615.356	36.17
615.548	36.08
615.74	35.83
615.932	35.45
616.124	35.23
616.315	34.96
616.507	34.9
616.699	34.66
616.891	34.56
617.083	34.36
617.275	34.48
617.467	34.45
617.659	34.39
617.85	34.6
618.042	34.69
618.234	34.68
618.426	34.82
618.618	34.71
618.809	34.81
619.001	34.81
619.193	34.82
619.384	34.77
619.576	34.73
619.768	34.78
619.959	34.69
620.151	34.65
620.343	34.75
620.534	34.62
620.726	34.72
620.917	34.47
621.109	34.47
621.301	34.46
621.492	34.33
621.684	34.35
621.875	34.24
622.067	34.19
622.258	34.15
622.45	34.11
622.641	34.29
622.832	34.45
623.024	34.81
623.215	34.58
623.407	34.68
623.598	34.69
623.789	34.77
623.981	34.85
624.172	34.81
624.363	35.08
624.555	35.06
624.746	35.11
624.937	34.98
625.129	34.68
625.32	34.97
625.511	34.64
625.702	34.76
625.893	34.71
626.085	34.84
626.276	35
626.467	34.84
626.658	34.88
626.849	34.82
627.04	34.78
627.231	34.95
627.422	35.04
627.614	35.33
627.805	35.35
627.996	35.48
628.187	35.4
628.378	35.24
628.569	35.29
628.76	35.27
628.951	35.25
629.142	35.51
629.332	35.59
629.523	35.33
629.714	35.3
629.905	35.42
630.096	35.33
630.287	35.53
630.478	35.6
630.669	35.54
630.859	35.56
631.05	35.76
631.241	35.54
631.432	35.37
631.623	35.49
631.813	35.5
632.004	35.23
632.195	35.22
632.385	34.8
632.576	34.9
632.767	34.99
632.957	34.99
633.148	34.67
633.339	34.91
633.529	34.93
633.72	34.89
633.91	34.75
634.101	34.66
634.292	34.69
634.482	34.85
634.673	34.73
634.863	34.75
635.054	34.7
635.244	34.75
635.435	34.41
635.625	34.49
635.815	34.58
636.006	34.59
636.196	34.71
636.387	34.67
636.577	34.81
636.767	34.67
636.958	34.79
637.148	34.79
637.338	34.71
637.529	34.87
637.719	34.78
637.909	34.66
638.099	34.71
638.29	34.86
638.48	34.92
638.67	34.87
638.86	35.26
639.05	35.17
639.241	35.07
639.431	34.83
639.621	34.85
639.811	35
640.001	35.02
640.191	35.22
640.381	35.2
640.571	35.19
640.761	35.23
640.951	35.14
641.141	34.89
641.331	35.13
641.521	35.63
641.711	35.69
641.901	35.61
642.091	35.67
642.281	35.49
642.471	35.33
642.661	35.28
642.851	35.14
643.041	35.09
643.231	35.3
643.42	35.06
643.61	34.94
643.8	34.61
643.99	34.83
644.18	34.63
644.369	34.68
644.559	34.84
644.749	34.96
644.939	35.08
645.128	35
645.318	34.98
645.508	35.18
645.697	35.27
645.887	35.47
646.076	35.18
646.266	35.27
646.456	35.5
646.645	35.42
646.835	35.21
647.024	35.26
647.214	35.72
647.403	35.9
647.593	36.13
647.782	36.07
647.972	36.03
648.161	36.19
648.351	36.47
648.54	36.45
648.73	36.38
648.919	36.79
649.108	36.74
649.298	36.13
649.487	35.9
649.677	35.68
649.866	35.72
650.055	35.84
650.244	35.72
650.434	35.57
650.623	35.27
650.812	35.32
651.002	35.22
651.191	35.32
651.38	35.76
651.569	36
651.758	35.95
651.947	36.09
652.137	36.12
652.326	36.13
652.515	36.03
652.704	36.18
652.893	36.34
653.082	36.43
653.271	36.52
653.46	36.44
653.649	36.09
653.838	36.22
654.027	36.24
654.216	36.31
654.405	36.36
654.594	36.46
654.783	36.29
654.972	36.16
655.161	36.06
655.35	35.79
655.539	35.59
655.728	35.85
655.916	35.69
656.105	35.28
656.294	35.25
656.483	35.07
656.672	35.27
656.86	35.63
657.049	35.63
657.238	35.61
657.427	35.7
657.615	35.81
657.804	35.76
657.993	35.83
658.181	36.18
658.37	36.24
658.559	36.52
658.747	36.3
658.936	36.25
659.125	36.53
659.313	36.44
659.502	36.46
659.69	36.3
659.879	36.53
660.067	36.4
660.256	36.35
660.444	36.24
660.633	36.18
660.821	36.31
661.01	36.27
661.198	36.07
661.387	36.14
661.575	36.09
661.763	36.4
661.952	36.23
662.14	36.5
662.328	36.56
662.517	36.62
662.705	36.49
662.893	36.36
663.082	36.63
663.27	36.81
663.458	36.7
663.646	37.05
663.834	37.11
664.023	37.29
664.211	37.49
664.399	37.42
664.587	37.36
664.775	37.32
664.963	37.45
665.152	37.16
665.34	36.87
665.528	37.13
665.716	37.07
665.904	37.06
666.092	36.76
666.28	36.71
666.468	36.62
666.656	36.74
666.844	36.99
667.032	37
667.22	37.26
667.408	37.38
667.596	37.26
667.784	37
667.971	36.9
668.159	36.93
668.347	37.01
668.535	36.81
668.723	36.86
668.911	36.6
669.098	36.54
669.286	36.54
669.474	36.63
669.662	36.8
669.849	36.81
670.037	36.84
670.225	36.75
670.413	36.65
670.6	37.19
670.788	36.92
670.976	37.05
671.163	36.99
671.351	37.15
671.538	36.92
671.726	36.79
671.913	37.02
672.101	36.96
672.289	37.06
672.476	36.95
672.664	36.81
672.851	37.1
673.039	37.32
673.226	37.46
673.413	37.17
673.601	37.26
673.788	37.47
673.976	37.48
674.163	37.64
674.35	37.69
674.538	37.73
674.725	37.69
674.912	37.56
675.1	37.45
675.287	37.49
675.474	37.39
675.662	37.6
675.849	37.61
676.036	37.3
676.223	37.14
676.411	37.52
676.598	37.26
676.785	37.33
676.972	37.58
677.159	37.32
677.346	37.18
677.533	37.29
677.721	37.49
677.908	37.36
678.095	37.84
678.282	38.06
678.469	37.65
678.656	37.92
678.843	37.8
679.03	37.55
679.217	37.69
679.404	37.64
679.591	37.56
679.778	37.3
679.964	37.1
680.151	36.75
680.338	36.65
680.525	36.78
680.712	36.87
680.899	36.93
681.086	36.89
681.272	36.86
681.459	37.13
681.646	37.01
681.833	36.89
682.02	37.21
682.206	37.43
682.393	37.43
682.58	37.49
682.766	37.3
682.953	37.43
683.14	37.49
683.326	37.52
683.513	37.64
683.7	37.72
683.886	37.88
684.073	37.53
684.259	37.29
684.446	37.32
684.632	37.52
684.819	37.51
685.005	37.55
685.192	37.96
685.378	38.01
685.565	38.09
685.751	38.17
685.938	38.22
686.124	38.42
686.31	38.59
686.497	38.64
686.683	38.57
686.87	38.59
687.056	38.49
687.242	38.2
687.429	38.35
687.615	37.96
687.801	38.01
687.987	38.01
688.174	38.18
688.36	38.03
688.546	38.04
688.732	37.95
688.918	37.94
689.105	37.78
689.291	37.89
689.477	37.83
689.663	38.18
689.849	38.14
690.035	38.02
690.221	38.02
690.407	38.08
690.593	38.07
690.779	38.24
690.965	38.02
691.151	38.03
691.337	37.96
691.523	38.14
691.709	38.28
691.895	38.44
692.081	38.52
692.267	38.44
692.453	38.37
692.639	38.33
692.825	38.09
693.011	38.87
693.196	39.11
693.382	38.93
693.568	38.8
693.754	38.36
693.94	38.05
694.125	37.85
694.311	37.73
694.497	38.24
694.682	38.18
694.868	38.11
695.054	37.54
695.239	37.52
695.425	37.46
695.611	37.49
695.796	37.66
695.982	37.86
696.168	37.96
696.353	38.15
696.539	37.92
696.724	38
696.91	38.38
697.095	38.57
697.281	38.28
697.466	38.55
697.652	38.49
697.837	38.27
698.023	38.31
698.208	38.25
698.393	38.18
698.579	38.07
698.764	37.91
698.949	37.78
699.135	37.55
699.32	37.59
699.505	37.46
699.691	37.49
699.876	37.59
700.061	37.64
700.246	37.64
700.432	37.56
700.617	37.75
700.802	38.02
700.987	37.98
701.172	38.15
701.358	38.32
701.543	38.7
701.728	38.68
701.913	39.07
702.098	39.19
702.283	39.57
702.468	39.6
702.653	39.78
702.838	39.91
703.023	40.24
703.208	40.46
703.393	40.55
703.578	40.27
703.763	40.86
703.948	40.6
704.133	40.66
704.318	40.68
704.503	41.38
704.688	41.57
704.873	41.43
705.057	41.26
705.242	41.2
705.427	41.27
705.612	41.22
705.797	41.31
705.981	41.47
706.166	41.65
706.351	42.33
706.536	42.3
706.72	42.37
706.905	42.76
707.09	42.77
707.274	42.85
707.459	43.09
707.644	43.43
707.828	43.45
708.013	43.5
708.197	43.4
708.382	43.18
708.567	42.78
708.751	42.36
708.936	42.22
709.12	42.3
709.305	42.48
709.489	42.14
709.673	42.12
709.858	41.8
710.042	41.69
710.227	41.39
710.411	40.96
710.596	41.09
710.78	41.11
710.964	41.08
711.149	41.03
711.333	40.81
711.517	40.87
711.702	40.78
711.886	40.59
712.07	40.63
712.254	40.64
712.438	40.62
712.623	40.57
712.807	40.73
712.991	40.52
713.175	40.56
713.359	40.69
713.544	40.95
713.728	40.64
713.912	40.77
714.096	40.59
714.28	40.6
714.464	40.49
714.648	39.88
714.832	39.71
715.016	39.82
715.2	39.41
715.384	39.17
715.568	39.07
715.752	39.1
715.936	38.51
716.12	38.56
716.304	38.41
716.488	38.27
716.671	38.54
716.855	38.63
717.039	38.68
717.223	39.1
717.407	39.12
717.59	38.77
717.774	39.37
717.958	39.91
718.142	40.07
718.325	39.83
718.509	40.02
718.693	40.09
718.877	39.92
719.06	39.91
719.244	39.83
719.428	39.44
719.611	39.9
719.795	39.34
719.978	39.56
720.162	39.63
720.345	40.18
720.529	40.31
720.713	40.51
720.896	41.19
721.08	41.04
721.263	40.95
721.446	41.7
721.63	41.52
721.813	40.95
721.997	40.79
722.18	40.86
722.364	40.87
722.547	40.66
722.73	40.94
722.914	40.09
723.097	40.33
723.28	40.41
723.464	40.07
723.647	39.86
723.83	40.45
724.013	40.01
724.197	40.42
724.38	40.55
724.563	40.29
724.746	40.13
724.929	40.19
725.112	39.94
725.296	39.79
725.479	39.87
725.662	40.55
725.845	40.9
726.028	41.37
726.211	41.06
726.394	40.98
726.577	41.11
726.76	40.82
726.943	41.12
727.126	41.53
727.309	41.22
727.492	41.18
727.675	40.8
727.858	40.78
728.041	40.48
728.224	39.8
728.407	39.75
728.589	40
728.772	40.34
728.955	40.44
729.138	40.08
729.321	40.58
729.503	40.77
729.686	40.74
729.869	40.45
730.052	40.12
730.234	40.55
730.417	40.8
730.6	40.8
730.782	40.38
730.965	40.38
731.148	40.24
731.33	40.23
731.513	39.74
731.695	39.67
731.878	39.79
732.061	39.99
732.243	39.93
732.426	39.53
732.608	39.42
732.791	40.01
732.973	39.85
733.156	39.6
733.338	39.41
733.52	39.89
733.703	40.14
733.885	40.2
734.068	40.25
734.25	40.45
734.432	41.05
734.615	40.75
734.797	40.66
734.979	40.81
735.162	41.11
735.344	41.09
735.526	41.05
735.708	41.03
735.891	40.58
736.073	40.84
736.255	40.4
736.437	40.14
736.619	40.48
736.802	39.97
736.984	39.27
737.166	39.41
737.348	39.99
737.53	39.85
737.712	39.59
737.894	39.82
738.076	39.93
738.258	40.06
738.44	39.67
738.622	39.51
738.804	39.88
738.986	40.5
739.168	40.81
739.35	40.43
739.532	40.81
739.714	40.8
739.896	41.37
740.078	41.61
740.259	41.96
740.441	42.11
740.623	41.98
740.805	41.77
740.987	41.71
741.168	41.93
741.35	42.3
741.532	42.1
741.714	42.12
741.895	42.02
742.077	41.91
742.259	41.73
742.44	41.77
742.622	42.66
742.804	42.79
742.985	42.24
743.167	41.98
743.348	42.01
743.53	41.61
743.711	41.5
743.893	41.99
744.075	41.81
744.256	41.77
744.438	41.92
744.619	41.43
744.8	41.67
744.982	42.2
745.163	41.7
745.345	41.54
745.526	42.17
745.707	42.63
745.889	41.42
746.07	41.63
746.252	41.81
746.433	41.82
746.614	42.02
746.795	42.05
746.977	42.81
747.158	43.21
747.339	42.66
747.52	42.51
747.702	42.36
747.883	42.64
748.064	42.32
748.245	42.39
748.426	42.77
748.607	42.37
748.788	41.51
748.97	40.88
749.151	40.72
749.332	41.16
749.513	41.05
749.694	41.41
749.875	41.36
750.056	41.68
750.237	41.17
750.418	41.65
750.599	41.84
750.78	42.37
750.96	42.93
751.141	43.26
751.322	43.05
751.503	43.49
751.684	42.53
751.865	42.99
752.046	43.15
752.226	43.14
752.407	42.54
752.588	43.13
752.769	42.88
752.949	41.87
753.13	41.34
753.311	41.11
753.492	41.12
753.672	41.15
753.853	40.93
754.034	40.64
754.214	40.45
754.395	40.06
754.575	39.43
754.756	39.96
754.937	41.01
755.117	41.02
755.298	41.62
755.478	41.38
755.659	41.98
755.839	41.53
756.02	42.05
756.2	43.24
756.381	43.43
756.561	43.58
756.741	43.29
756.922	42.34
757.102	42.2
757.283	41.74
757.463	41.87
757.643	41.6
757.823	41.93
758.004	40.69
758.184	39.99
758.364	40.56
758.545	40.84
758.725	40.18
758.905	40.28
759.085	40.3
759.265	40.1
759.446	39.65
759.626	39.96
759.806	40.06
759.986	40.3
760.166	39.93
760.346	39.21
760.526	38.65
760.706	39.06
760.886	39.35
761.066	39.95
761.246	40.73
761.426	40.88
761.606	40.88
761.786	40.32
761.966	39.96
762.146	40.43
762.326	40.9
762.506	40.64
762.686	41.11
762.866	41.25
763.046	40.59
763.225	40.44
763.405	40.33
763.585	40.08
763.765	40.19
763.945	40.56
764.124	40.52
764.304	40.53
764.484	41.1
764.664	41.29
764.843	40.98
765.023	41.81
765.203	41.33
765.382	41.82
765.562	41.59
765.741	42.05
765.921	43.14
766.101	43.6
766.28	43.03
766.46	42.81
766.639	42.54
766.819	43.18
766.998	42.4
767.178	42.85
767.357	42.47
767.537	43.01
767.716	42.5
767.896	41.44
768.075	40.73
768.254	40.7
768.434	39.92
768.613	39.38
768.792	38.83
768.972	39.09
769.151	39.74
769.33	40.41
769.51	40.12
769.689	40.79
769.868	41.12
770.047	41.46
770.226	42.04
770.406	42.57
770.585	42.9
770.764	43.29
770.943	43.35
771.122	42.86
771.301	42.42
771.48	42.69
771.66	42.21
771.839	41.57
772.018	40.43
772.197	39.99
772.376	40.91
772.555	40.97
772.734	40.54
772.913	40.03
773.092	38.86
773.271	38.87
773.449	38.98
773.628	39.44
773.807	39.7
773.986	41.17
774.165	41.96
774.344	41.85
774.523	41.54
774.701	42.09
774.88	42.72
775.059	43.16
775.238	43.37
775.417	43.89
775.595	44.14
775.774	43.85
775.953	43.57
776.131	43.05
776.31	42.79
776.489	43.19
776.667	43.05
776.846	43.17
777.025	43.69
777.203	43.18
777.382	42.97
777.56	43.04
777.739	43.61
777.917	43.06
778.096	42.9
778.274	43.11
778.453	43.23
778.631	42.79
778.81	42.94
778.988	43.06
779.166	43.7
779.345	43.77
779.523	43.28
779.702	42.99
779.88	44.1
780.058	44
780.237	43.9
780.415	44.07
780.593	43.76
780.771	43.88
780.95	43.05
781.128	41.71
781.306	41.41
781.484	41.53
781.662	41.32
781.841	40.88
782.019	41.02
782.197	41.22
782.375	40.6
782.553	40.88
782.731	40.71
782.909	41.39
783.087	42.69
783.265	42.99
783.443	42.97
783.621	43.89
783.799	43.15
783.977	44.22
784.155	44.09
784.333	44.31
784.511	43.71
784.689	42.98
784.867	42.95
785.045	43.12
785.223	42.6
785.4	43.36
785.578	43.22
785.756	43.01
785.934	41.34
786.112	41.28
786.289	41.28
786.467	41.91
786.645	41.95
786.823	42.14
787	40.38
787.178	41.49
787.356	40.54
787.533	39.86
787.711	40.22
787.889	41
788.066	40.17
788.244	40.63
788.421	40.54
788.599	40.49
788.776	40.65
788.954	41.88
789.131	40.97
789.309	40.53
789.486	40.85
789.664	41.29
789.841	40.73
790.019	41.14
790.196	41.16
790.373	41.28
790.551	41.46
790.728	41.55
790.906	41.43
791.083	41.26
791.26	41.21
791.437	40.49
791.615	40.09
791.792	41.39
791.969	41.89
792.146	41.1
792.324	42.03
792.501	41.98
792.678	41.95
792.855	41.63
793.032	41.46
793.209	42.85
793.387	42.94
793.564	43.02
793.741	43.11
793.918	42.37
794.095	42.68
794.272	42.05
794.449	41.51
794.626	41.21
794.803	41.66
794.98	42.61
795.157	41.92
795.334	42.03
795.511	41.48
795.688	40.56
795.864	41.56
796.041	40.87
796.218	41.13
796.395	42.22
796.572	41.75
796.749	41.03
796.925	39.34
797.102	38.58
797.279	39
797.456	39.57
797.632	39.67
797.809	39.27
797.986	40.26
798.162	39.16
798.339	38.37
798.516	38.81
798.692	39
798.869	40.89
799.046	42.7
799.222	42.74
799.399	42.88
799.575	43.41
799.752	43.59
799.928	42.92
800.105	44.15
800.281	44.26
800.458	43.59
800.634	42.39
800.811	42.36
800.987	41.95
801.163	42.17
801.34	42.06
801.516	42.31
801.692	41.35
801.869	41.29
802.045	40.78
802.221	41.8
802.398	42.22
802.574	43.89
802.75	43.97
802.926	42.88
803.103	42.25
803.279	42.67
803.455	41.41
803.631	42.42
803.807	42.56
803.983	42.2
804.16	40.85
804.336	41.07
804.512	39.95
804.688	39.66
804.864	41.08
805.04	41.46
805.216	40.48
805.392	39.78
805.568	39.82
805.744	38.8
805.92	38.17
806.096	39.61
806.272	38.88
806.448	38.96
806.623	39.43
806.799	38.53
806.975	39.13
807.151	39.47
807.327	39.9
807.503	39.05
807.678	40.2
807.854	40.68
808.03	39.24
808.206	40.31
808.381	40.11
808.557	38.94
808.733	39.4
808.908	38.32
809.084	38.33
809.26	39.2
809.435	38.39
809.611	39.74
809.787	41.17
809.962	42.29
810.138	41.22
810.313	42.44
810.489	41.95
810.664	41.6
810.84	42.57
811.015	42.11
811.191	42.21
811.366	43.86
811.542	43.06
811.717	43.48
811.892	43.36
812.068	44.3
812.243	42.6
812.419	42.55
812.594	42.4
812.769	41.56
812.944	43.22
813.12	42.97
813.295	42.51
813.47	41.1
813.645	39.98
813.821	40.44
813.996	40.21
814.171	40.86
814.346	41.79
814.521	41.01
814.697	40.66
814.872	39.21
815.047	39.58
815.222	39.34
815.397	39.31
815.572	37.68
815.747	37.64
815.922	37.71
816.097	39.56
816.272	39.09
816.447	39.64
816.622	41
816.797	39.84
816.972	39.14
817.147	40.47
817.322	41.82
817.496	42.56
817.671	43.53
817.846	43.39
818.021	42.24
818.196	42.29
818.371	42.45
818.545	43.03
818.72	43.15
818.895	43.31
819.069	42.08
819.244	40.33
819.419	39.41
819.594	37.62
819.768	37.91
819.943	38.64
820.117	38.59
820.292	38.22
820.467	36.74
820.641	37.3
820.816	37.15
820.99	37.07
821.165	37.08
821.339	37.23
821.514	37.32
821.688	37.02
821.863	36.83
822.037	36.49
822.212	36.49
822.386	36.4
822.56	36.16
822.735	36.12
822.909	35.86
823.084	35.8
823.258	35.61
823.432	35.66
823.606	35.55
823.781	35.39
823.955	35.51
824.129	35.62
824.303	35.49
824.478	35.69
824.652	35.24
824.826	35.49
825	35.6
825.174	36.08
825.348	35.53
825.523	35.41
825.697	35.15
825.871	34.98
826.045	34.68
826.219	35.1
826.393	34.68
826.567	35.2
826.741	35.25
826.915	35.43
827.089	34.56
827.263	34.71
827.437	34.71
827.611	34.91
827.784	35.1
827.958	35.05
828.132	35.5
828.306	35.68
828.48	36.33
828.654	36.16
828.827	36.33
829.001	36.66
829.175	37.28
829.349	37.78
829.522	38.46
829.696	38.58
829.87	38.15
830.044	37.92
830.217	39.05
830.391	38.2
830.565	37.99
830.738	37.53
830.912	38.97
831.085	39.28
831.259	38.39
831.432	37.27
831.606	37
831.779	37.79
831.953	36.23
832.126	34.89
832.3	34.22
832.473	34.13
832.647	34.58
832.82	33.51
832.994	32.9
833.167	33.57
833.34	34.34
833.514	34.57
833.687	34.24
833.86	34.31
834.034	34.49
834.207	34.39
834.38	35.39
834.553	34.76
834.727	34.98
834.9	34.92
835.073	34.77
835.246	34.48
835.419	34.73
835.593	35.31
835.766	35.88
835.939	35.13
836.112	34.81
836.285	33.64
836.458	36.07
836.631	36.74
836.804	36.57
836.977	36.84
837.15	36.02
837.323	34.65
837.496	34.55
837.669	35.33
837.842	36.11
838.015	38.28
838.188	38.03
838.361	34.26
838.533	33.44
838.706	34.83
838.879	35.7
839.052	36.22
839.225	38.2
839.398	37.38
839.57	36.03
839.743	36.86
839.916	37.11
840.088	35.62
840.261	37.02
840.434	37.7
840.607	37.6
840.779	37.04
840.952	37.22
841.124	36.26
841.297	36.84
841.47	37.52
841.642	38.43
841.815	37.38
841.987	40.14
842.16	41.36
842.332	41.24
842.505	39.59
842.677	39.98
842.85	38.63
843.022	39.72
843.194	41.52
843.367	41.83
843.539	41.08
843.712	41.88
843.884	42.56
844.056	41.84
844.229	40.59
844.401	41.43
844.573	41.42
844.745	43.62
844.918	42.68
845.09	39.64
845.262	38.43
845.434	36.51
845.606	35.43
845.779	36.54
845.951	35.33
846.123	39.52
846.295	39.2
846.467	39.86
846.639	36.82
846.811	39.35
846.983	39.52
847.155	39.02
847.327	41.99
847.499	43.42
847.671	41.05
847.843	40.03
848.015	39.27
848.187	37.67
848.359	38.53
848.531	39.32
848.703	38.74
848.875	41.79
849.047	46.32
849.218	46.27
849.39	44.52
849.562	46.69
849.734	47.52
849.905	49.79
850.077	55.92
850.249	52.76
850.421	60.24
850.592	57.79
850.764	60.45
850.936	56.1
851.107	58.01
851.279	55.4
851.451	57.63
851.622	60.45
851.794	57.46
851.965	56.15
852.137	55.86
852.308	49.65
852.48	51.43
852.651	46.47
852.823	49.31
852.994	45.23
853.166	49.31
853.337	46.87
853.509	41.6
853.68	41.19
853.851	39.69
854.023	39.39
854.194	40.06
854.365	38.92
854.537	37.78
854.708	35.95
854.879	39.3
855.05	35.69
855.222	33.73
855.393	36.32
855.564	34.54
855.735	36.49
855.906	41.82
856.078	44.54
856.249	44.82
856.42	52.9
856.591	53.1
856.762	51.34
856.933	52.81
857.104	54.82
857.275	57.49
857.446	60.47
857.617	54.59
857.788	54.03
857.959	53.99
858.13	55.73
858.301	51.85
858.472	51.61
858.643	49.48
858.814	47.23
858.985	43.78
859.155	39.71
859.326	37.61
859.497	42.72
859.668	34.11
859.839	29.7
860.009	26.85
860.18	28.86
860.351	34.39
860.522	35.93
860.692	34.31
860.863	38.56
861.034	41.26
861.204	43.08
861.375	44.46
861.546	52.96
861.716	57.03
861.887	58.29
862.057	55.16
862.228	48.46
862.398	47.96
862.569	53.26
862.739	53.14
862.91	54.35
863.08	56.37
863.251	54.64
863.421	52.51
863.592	50.31
863.762	47.09
863.932	46.27
864.103	45.98
864.273	45.43
864.443	45.56
864.614	44.33
864.784	42.1
864.954	41.36
865.125	39.86
865.295	38.29
865.465	37.29
865.635	36.51
865.805	37.63
865.976	37.63
866.146	38.17
866.316	38.35
866.486	38.41
866.656	36.4
866.826	32.84
866.996	31.83
867.166	33.83
867.336	39.5
867.506	43.19
867.676	41.23
867.846	40.19
868.016	39.54
868.186	38.39
868.356	36.04
868.526	35.14
868.696	38.09
868.866	37.92
869.036	37.3
869.206	32.87
869.376	32.98
869.545	32.37
869.715	33.56
869.885	29.9
870.055	23.81
870.224	27.14
870.394	33.26
870.564	35.04
870.734	37.36
870.903	36.41
871.073	39.82
871.243	36.75
871.412	40.23
871.582	44.12
871.751	44.35
871.921	48.05
872.091	47.28
872.26	48.2
872.43	47.07
872.599	47.11
872.769	45.04
872.938	41.64
873.108	41.98
873.277	41.02
873.446	38.15
873.616	41.11
873.785	42.86
873.955	44.97
874.124	41.35
874.293	36.96
874.463	40.32
874.632	42.43
874.801	45.23
874.971	46.33
875.14	48.57
875.309	53.15
875.478	54.89
875.647	54.51
875.817	48.47
875.986	47.72
876.155	52.48
876.324	45.63
876.493	41.99
876.662	36.07
876.831	34.99
877	33.45
877.17	32.17
877.339	29.24
877.508	26.64
877.677	29.3
877.846	31.84
878.015	30.07
878.184	35.2
878.352	37.29
878.521	35.69
878.69	35.23
878.859	36.08
879.028	34.56
879.197	36.91
879.366	36.81
879.534	38.47
879.703	39
879.872	37.87
880.041	33.22
880.21	34.77
880.378	35.32
880.547	34.29
880.716	32.53
880.884	33.35
881.053	31.58
881.222	31.78
881.39	31.18
881.559	29.82
881.727	30.13
881.896	30.88
882.065	29.71
882.233	30.53
882.402	30.7
882.57	30.4
882.739	29.98
882.907	29.81
883.076	29.47
883.244	28.85
883.412	29.33
883.581	28.7
883.749	28.43
883.918	29.32
884.086	28.04
884.254	28.08
884.423	28.67
884.591	28.53
884.759	28.79
884.927	28.48
885.096	28.44
885.264	28.59
885.432	30.16
885.6	30.2
885.769	28.51
885.937	29.93
886.105	30.22
886.273	30.37
886.441	31.84
886.609	32.96
886.777	34.15
886.945	34.42
887.113	32.56
887.281	30.62
887.449	31.38
887.617	33.74
887.785	32.92
887.953	33.28
888.121	35.52
888.289	33.69
888.457	35.9
888.625	37.69
888.793	41.57
888.961	45.4
889.129	45.82
889.296	42.81
889.464	42.15
889.632	42.22
889.8	41.64
889.967	37.43
890.135	37.01
