Data from 2938767__Reflection_03.txt Node
Date: Fri Mar 13 15:48:20 EDT 2015
User: robert
Spectrometer: USB4E03002
Autoset integration time: false
Trigger mode: 4
Integration Time (sec): 1.000000E-1
Scans to average: 10
Electric dark correction enabled: false
Nonlinearity correction enabled: false
Boxcar width: 5
Stray light correction enabled: false
XAxis mode: Wavelengths
Stop averaging: false
Number of Pixels in Spectrum: 3648
>>>>>Begin Spectral Data<<<<<
177.575	-117.04
177.794	-566.67
178.014	-584.62
178.233	-747.83
178.452	-3600
178.672	-78.38
178.891	-279.03
179.11	-319.61
179.33	3414.29
179.549	4880
179.768	-132.2
179.987	-137.44
180.207	-107.6
180.426	-16.99
180.645	3.5
180.864	-0.92
181.084	-9.81
181.303	5.61
181.522	-2.87
181.741	-21.09
181.96	-8.57
182.179	-12.42
182.398	25.21
182.618	11.25
182.837	-48.14
183.056	-117.37
183.275	-157.98
183.494	-102.38
183.713	-42.8
183.932	-40.82
184.151	1.01
184.37	4.7
184.589	10.28
184.808	7.27
185.027	5.02
185.246	11.85
185.465	-1.86
185.684	-8.07
185.903	-5.24
186.122	-6.84
186.341	-1.7
186.56	-3.27
186.779	-14.63
186.998	-22.1
187.216	-43.89
187.435	-50.35
187.654	-54.27
187.873	-7.02
188.092	34.87
188.311	26.93
188.53	41.57
188.748	43.56
188.967	58.94
189.186	90.97
189.405	160.76
189.623	94.92
189.842	73.13
190.061	38.91
190.28	9.39
190.498	-9.64
190.717	-15.31
190.936	-159.6
191.154	-98.17
191.373	-66.04
191.592	-23.38
191.81	-25.09
192.029	7.02
192.248	20.78
192.466	16.38
192.685	19.63
192.904	19.13
193.122	10.78
193.341	30.93
193.559	14.72
193.778	-8.79
193.996	-2.45
194.215	-0.31
194.433	-6.83
194.652	-67.59
194.87	-123.39
195.089	-247.97
195.307	-165.03
195.526	-62.44
195.744	-99.17
195.963	-108.38
196.181	-94.18
196.399	-95.11
196.618	-94.83
196.836	-178.44
197.055	-227.7
197.273	-107.26
197.491	-96.25
197.71	-107.85
197.928	-91.21
198.146	-58.57
198.365	-32.94
198.583	-58.06
198.801	-48.19
199.019	-28.64
199.238	-31.28
199.456	-24.62
199.674	-38.64
199.892	-31.49
200.111	-43.55
200.329	-42.65
200.547	-48.6
200.765	-59.37
200.983	-30.93
201.202	-50.27
201.42	-76.79
201.638	-75.51
201.856	-52.11
202.074	-33.43
202.292	-40.42
202.51	-68.3
202.728	-50.13
202.946	-30.12
203.165	-38.25
203.383	-56.37
203.601	-68.18
203.819	-77.39
204.037	-99.5
204.255	-105.03
204.473	-70.53
204.691	-103.54
204.909	-21.71
205.127	-57.05
205.345	-91.14
205.562	-62.26
205.78	-87.25
205.998	-37.42
206.216	-1.2
206.434	15.05
206.652	-5.9
206.87	-10.3
207.088	-1.46
207.306	-19.5
207.523	-19.44
207.741	-28.69
207.959	-1.08
208.177	3.4
208.395	8.88
208.612	-21.83
208.83	-101.03
209.048	-204.05
209.266	-410.59
209.483	-161.73
209.701	-133.33
209.919	-175.62
210.136	-94.58
210.354	-172.27
210.572	-108.82
210.79	-74.27
211.007	-76.96
211.225	-22.21
211.442	0.27
211.66	-5.64
211.878	-7.1
212.095	2.52
212.313	25.21
212.53	20.84
212.748	24.14
212.966	24.93
213.183	24.42
213.401	24.86
213.618	19.85
213.836	7.22
214.053	-4.85
214.271	-20.88
214.488	-20.24
214.705	-29.07
214.923	-26.89
215.14	-25.12
215.358	-16.71
215.575	-20.56
215.793	-16.42
216.01	-28.52
216.227	-17.69
216.445	-3.69
216.662	-2.89
216.879	-6.21
217.097	-3.9
217.314	-20.91
217.531	-22.75
217.749	-20.89
217.966	-20.74
218.183	-13.21
218.4	-1.99
218.618	-12.32
218.835	-14.66
219.052	-1.73
219.269	-2.9
219.487	-11.54
219.704	-1.76
219.921	-8.61
220.138	-2.53
220.355	-11.31
220.572	-23.85
220.79	-24.62
221.007	-21.81
221.224	-10.47
221.441	-12.2
221.658	-5.06
221.875	-5.6
222.092	-7.97
222.309	1.08
222.526	2.08
222.743	6.81
222.96	0.57
223.177	-4.14
223.394	1.17
223.611	-0.44
223.828	-1.42
224.045	-8.29
224.262	-8.17
224.479	-4.24
224.696	-6.97
224.913	-13.82
225.13	-11.96
225.347	-2.45
225.564	-2.46
225.781	-6.24
225.997	-8.4
226.214	-4.66
226.431	-3.82
226.648	-0.36
226.865	0.78
227.082	2.16
227.298	3.16
227.515	3.23
227.732	2.91
227.949	3.84
228.165	4.72
228.382	4.69
228.599	4.76
228.816	5.44
229.032	5.31
229.249	5.42
229.466	5.5
229.682	5.38
229.899	5.44
230.116	5.46
230.332	5.77
230.549	4.75
230.765	5.38
230.982	4.7
231.199	3.25
231.415	2.45
231.632	0.59
231.848	-1.14
232.065	-0.9
232.281	-2.49
232.498	-4.27
232.714	-6.51
232.931	-5.12
233.147	-5.54
233.364	-5.8
233.58	-3.63
233.797	-4.59
234.013	-2.69
234.23	-1.28
234.446	-2.48
234.662	-2.32
234.879	-0.14
235.095	0.29
235.312	-0.82
235.528	-0.09
235.744	-0.17
235.961	0.83
236.177	2.29
236.393	2.97
236.61	1.25
236.826	2.89
237.042	3.59
237.258	1.39
237.475	0.93
237.691	2.11
237.907	2.37
238.123	3.78
238.339	1.63
238.556	0.67
238.772	0.89
238.988	1.34
239.204	1.01
239.42	1.31
239.636	2.94
239.853	3.15
240.069	3.42
240.285	2.74
240.501	2.07
240.717	2.3
240.933	2.45
241.149	1.85
241.365	1.82
241.581	1.81
241.797	2.06
242.013	1.85
242.229	2.19
242.445	2.41
242.661	2.61
242.877	2.79
243.093	2.96
243.309	3.48
243.525	3.45
243.741	3.79
243.957	3.54
244.173	3.3
244.388	3.74
244.604	4.04
244.82	3.3
245.036	2.57
245.252	2.8
245.468	2.77
245.683	2.36
245.899	2.63
246.115	2.74
246.331	2.84
246.547	2.92
246.762	2.82
246.978	2.7
247.194	2.71
247.409	3.03
247.625	3.12
247.841	3.09
248.057	3.16
248.272	2.94
248.488	2.92
248.703	2.78
248.919	2.87
249.135	2.72
249.35	2.61
249.566	2.38
249.782	2.63
249.997	1.96
250.213	2.27
250.428	2.58
250.644	2.8
250.859	2.77
251.075	3.13
251.29	3.18
251.506	3.52
251.721	4.18
251.937	4.56
252.152	4.34
252.368	4.72
252.583	4.29
252.798	4.21
253.014	4.52
253.229	3.82
253.445	4.16
253.66	4.04
253.875	3.73
254.091	2.04
254.306	1.74
254.521	0.22
254.737	0.03
254.952	0.09
255.167	0.16
255.383	-0.03
255.598	0.3
255.813	-1.66
256.028	-2.42
256.244	-1.75
256.459	-0.88
256.674	-0.52
256.889	0.85
257.104	0.99
257.32	1.15
257.535	0.44
257.75	0.86
257.965	1.21
258.18	2.28
258.395	2.54
258.61	2.31
258.826	2.28
259.041	2.17
259.256	1.85
259.471	1.72
259.686	1.71
259.901	1.76
260.116	1.35
260.331	1.58
260.546	1.79
260.761	1.71
260.976	1.69
261.191	2.1
261.406	2.22
261.621	2.59
261.836	2.87
262.05	2.53
262.265	2.66
262.48	3.18
262.695	2.99
262.91	2.45
263.125	2.44
263.34	2.29
263.555	1.34
263.769	1.47
263.984	1.6
264.199	1.41
264.414	1.81
264.629	1.97
264.843	2.41
265.058	2.31
265.273	2.48
265.488	2.64
265.702	2.74
265.917	2.53
266.132	2.11
266.346	1.1
266.561	1.12
266.776	1.01
266.99	0.79
267.205	0.51
267.42	0.72
267.634	0.53
267.849	0.29
268.063	-0.19
268.278	0.36
268.492	0.49
268.707	0.88
268.922	0.66
269.136	0.5
269.351	0.6
269.565	0.31
269.78	0.19
269.994	0.12
270.209	0.09
270.423	0.63
270.637	0.33
270.852	0.31
271.066	0.24
271.281	0.58
271.495	1.16
271.709	1.33
271.924	1.32
272.138	0.86
272.353	1.15
272.567	1.35
272.781	1.35
272.996	1.71
273.21	1.52
273.424	1.43
273.638	1.25
273.853	1.16
274.067	1.16
274.281	1.41
274.495	1.75
274.71	1.51
274.924	1.3
275.138	0.94
275.352	0.93
275.566	1.65
275.781	2.16
275.995	2.36
276.209	2.11
276.423	2.31
276.637	2.16
276.851	2.08
277.065	2.4
277.279	2.52
277.493	2.9
277.707	2.61
277.921	2.28
278.135	2.08
278.349	1.71
278.563	2.05
278.777	1.43
278.991	1.46
279.205	1.43
279.419	1.42
279.633	1.45
279.847	1.45
280.061	1.48
280.275	1.1
280.489	0.79
280.703	0.84
280.917	1.06
281.131	1.33
281.344	1.05
281.558	1.28
281.772	1.25
281.986	1.26
282.2	1.31
282.414	1.39
282.627	1.71
282.841	1.96
283.055	2.14
283.269	1.7
283.482	1.81
283.696	1.84
283.91	1.96
284.123	2.01
284.337	2.04
284.551	1.94
284.764	1.89
284.978	1.87
285.192	1.74
285.405	1.52
285.619	1.36
285.833	1.37
286.046	1.61
286.26	1.5
286.473	1.28
286.687	1.01
286.9	0.99
287.114	0.94
287.327	1
287.541	1.29
287.754	1.57
287.968	1.91
288.181	1.77
288.395	1.92
288.608	1.86
288.822	1.91
289.035	2.43
289.248	2.34
289.462	2.59
289.675	2.46
289.889	2.31
290.102	2.34
290.315	2.34
290.529	2.43
290.742	2.12
290.955	2.24
291.169	2.49
291.382	2.28
291.595	2.24
291.808	1.94
292.022	1.67
292.235	1.55
292.448	1.29
292.661	1.15
292.875	1.42
293.088	1.53
293.301	1.4
293.514	1.25
293.727	1.14
293.94	1.01
294.153	1.17
294.367	1.61
294.58	1.71
294.793	1.77
295.006	1.63
295.219	1.29
295.432	1.4
295.645	1.24
295.858	1.18
296.071	1.29
296.284	1.5
296.497	1.62
296.71	1.72
296.923	1.69
297.136	1.81
297.349	1.99
297.562	2.06
297.775	2.27
297.988	2.55
298.201	2.54
298.414	2.48
298.626	2.35
298.839	2.12
299.052	1.78
299.265	1.79
299.478	1.5
299.691	1.58
299.903	1.37
300.116	1.03
300.329	0.88
300.542	0.9
300.755	1.13
300.967	1.33
301.18	1.34
301.393	1.48
301.605	1.69
301.818	1.63
302.031	1.44
302.243	1.82
302.456	1.76
302.669	1.72
302.881	1.7
303.094	1.71
303.307	1.76
303.519	2.13
303.732	2.05
303.944	1.82
304.157	2.31
304.37	2.22
304.582	2.17
304.795	2.24
305.007	2.4
305.22	2.29
305.432	2.29
305.645	2.37
305.857	2.2
306.069	2.12
306.282	2.14
306.494	1.87
306.707	1.96
306.919	1.53
307.132	1.21
307.344	1.01
307.556	1.08
307.769	0.97
307.981	0.85
308.193	0.93
308.406	0.96
308.618	1.15
308.83	1.26
309.043	1.46
309.255	1.62
309.467	1.42
309.679	1.48
309.892	1.81
310.104	1.87
310.316	2.07
310.528	2.04
310.74	2.49
310.953	2.55
311.165	2.71
311.377	2.59
311.589	2.86
311.801	3.47
312.013	3.61
312.225	3.53
312.437	3.6
312.649	3.78
312.862	3.89
313.074	3.6
313.286	3.49
313.498	3.33
313.71	3.26
313.922	3.23
314.134	3.16
314.346	3.14
314.558	2.88
314.77	2.65
314.982	2.48
315.193	2.33
315.405	1.95
315.617	2.29
315.829	2.6
316.041	2.98
316.253	3.08
316.465	2.92
316.677	2.7
316.888	2.71
317.1	2.92
317.312	2.88
317.524	2.97
317.736	3.24
317.947	2.68
318.159	2.51
318.371	2.77
318.583	2.44
318.794	2.68
319.006	3.19
319.218	3.33
319.43	3.27
319.641	3.17
319.853	3.24
320.064	3.47
320.276	3.72
320.488	3.99
320.699	3.85
320.911	4.01
321.123	3.97
321.334	4.02
321.546	4.13
321.757	4.57
321.969	4.77
322.18	4.22
322.392	3.71
322.603	3.85
322.815	3.63
323.026	3.28
323.238	3.41
323.449	3.98
323.661	3.77
323.872	4
324.083	3.94
324.295	3.77
324.506	4.2
324.718	4.54
324.929	4.66
325.14	4.95
325.352	4.92
325.563	4.65
325.774	4.17
325.986	4.47
326.197	4.42
326.408	4.54
326.62	4.67
326.831	5
327.042	5.26
327.253	5.41
327.464	5.23
327.676	5.47
327.887	5.53
328.098	5.64
328.309	5.67
328.52	5.75
328.732	5.88
328.943	6.09
329.154	6.18
329.365	6.38
329.576	6.36
329.787	6.36
329.998	6.66
330.209	7.39
330.42	7.29
330.631	7.04
330.842	7.16
331.053	6.92
331.264	6.83
331.475	7
331.686	7.17
331.897	7.32
332.108	7.45
332.319	7.32
332.53	7.27
332.741	7.66
332.952	7.73
333.163	7.63
333.374	7.86
333.585	7.82
333.795	7.39
334.006	6.97
334.217	7.21
334.428	7.45
334.639	7.89
334.849	7.86
335.06	7.73
335.271	7.88
335.482	8.25
335.692	8.33
335.903	8.4
336.114	8.58
336.325	9.02
336.535	8.96
336.746	8.76
336.957	8.19
337.167	8.35
337.378	8.53
337.589	8.63
337.799	8.36
338.01	8.43
338.22	8.42
338.431	8.47
338.642	8.26
338.852	8.06
339.063	8.01
339.273	8.4
339.484	8.31
339.694	8.1
339.905	8.11
340.115	8.31
340.326	8.09
340.536	8.55
340.746	8.71
340.957	9.1
341.167	9.08
341.378	9.54
341.588	9.4
341.799	9.23
342.009	9.62
342.219	9.73
342.43	9.68
342.64	9.67
342.85	9.42
343.061	9.29
343.271	9.11
343.481	9
343.691	8.69
343.902	8.9
344.112	9.09
344.322	8.89
344.532	8.64
344.743	8.59
344.953	8.61
345.163	8.61
345.373	8.55
345.583	8.67
345.793	8.71
346.004	8.8
346.214	8.39
346.424	8.23
346.634	8.28
346.844	8.25
347.054	7.91
347.264	8.11
347.474	8.18
347.684	8.46
347.894	8.12
348.104	8.41
348.314	8.39
348.524	8.83
348.734	8.68
348.944	8.37
349.154	8.62
349.364	9.18
349.574	9.14
349.784	9.12
349.994	8.92
350.204	8.79
350.413	8.42
350.623	8.3
350.833	7.68
351.043	8.03
351.253	8.27
351.463	8.1
351.672	7.67
351.882	7.51
352.092	7.64
352.302	7.74
352.511	7.95
352.721	8.12
352.931	8
353.141	8.31
353.35	7.99
353.56	7.86
353.77	8.07
353.979	8.3
354.189	8.67
354.399	8.64
354.608	8.4
354.818	8.39
355.027	8.39
355.237	8.44
355.447	8.42
355.656	8.79
355.866	8.91
356.075	8.7
356.285	8.55
356.494	8.15
356.704	7.94
356.913	7.92
357.123	7.9
357.332	7.94
357.542	8.05
357.751	8.14
357.96	7.82
358.17	7.92
358.379	8.01
358.589	8.03
358.798	8
359.007	8.08
359.217	8.2
359.426	8.25
359.635	8.28
359.845	8.38
360.054	8.28
360.263	8.34
360.472	8.3
360.682	8.1
360.891	8.13
361.1	8.04
361.309	7.93
361.519	8.01
361.728	7.96
361.937	7.73
362.146	7.76
362.355	7.76
362.564	7.91
362.774	7.75
362.983	7.8
363.192	7.73
363.401	7.96
363.61	8.01
363.819	7.93
364.028	7.9
364.237	8.19
364.446	8.03
364.655	8.07
364.864	7.89
365.073	7.88
365.282	7.99
365.491	8.15
365.7	8.1
365.909	8.02
366.118	8.07
366.327	8.06
366.536	8.19
366.745	8.2
366.954	8.22
367.162	8.4
367.371	8.53
367.58	8.42
367.789	8.07
367.998	8.17
368.207	8.25
368.415	8.2
368.624	8.17
368.833	7.81
369.042	7.58
369.25	7.52
369.459	7.42
369.668	7.17
369.877	7.34
370.085	7.44
370.294	7.2
370.503	7.23
370.711	7.17
370.92	7.13
371.129	7.19
371.337	7.43
371.546	7.46
371.754	7.38
371.963	7.46
372.171	7.2
372.38	7.26
372.589	7.29
372.797	7.17
373.006	7.24
373.214	7.36
373.423	7.21
373.631	7.14
373.84	6.83
374.048	6.66
374.256	6.64
374.465	6.73
374.673	6.67
374.882	6.92
375.09	7.05
375.298	7.03
375.507	6.81
375.715	6.88
375.923	6.8
376.132	7.07
376.34	7.04
376.548	7.13
376.757	7.17
376.965	7.27
377.173	6.92
377.381	6.77
377.59	6.86
377.798	7.04
378.006	7.12
378.214	7.21
378.423	7.14
378.631	7.23
378.839	7.18
379.047	7.13
379.255	7.21
379.463	7.39
379.671	7.48
379.879	7.23
380.088	7.05
380.296	7.03
380.504	6.81
380.712	7
380.92	7.11
381.128	7.09
381.336	7.12
381.544	7.01
381.752	7.01
381.96	6.99
382.168	7.07
382.376	7.13
382.584	7.02
382.791	7.19
382.999	6.95
383.207	7.09
383.415	7.48
383.623	7.63
383.831	7.75
384.039	7.78
384.247	7.9
384.454	7.92
384.662	7.8
384.87	7.79
385.078	7.88
385.285	7.86
385.493	7.69
385.701	7.28
385.909	7.08
386.116	6.79
386.324	6.67
386.532	6.61
386.739	6.64
386.947	6.86
387.155	7.05
387.362	7.02
387.57	7.01
387.778	6.84
387.985	7.01
388.193	7.1
388.4	7.17
388.608	7.19
388.816	7.16
389.023	7.15
389.231	7.12
389.438	6.98
389.646	6.96
389.853	6.8
390.061	6.72
390.268	6.62
390.475	6.7
390.683	6.69
390.89	6.56
391.098	6.44
391.305	6.23
391.512	6.13
391.72	6.12
391.927	6.11
392.135	6.17
392.342	6.4
392.549	6.38
392.756	6.42
392.964	6.41
393.171	6.61
393.378	6.51
393.586	6.69
393.793	6.75
394	6.8
394.207	6.7
394.414	6.75
394.622	6.65
394.829	6.7
395.036	6.38
395.243	6.25
395.45	6.01
395.657	6.12
395.864	6.13
396.072	5.98
396.279	5.79
396.486	5.77
396.693	5.85
396.9	5.88
397.107	5.84
397.314	5.97
397.521	6.05
397.728	6.24
397.935	6.31
398.142	6.17
398.349	6.34
398.556	6.33
398.763	6.46
398.97	6.32
399.177	6.34
399.383	6.28
399.59	6.07
399.797	6.02
400.004	6.07
400.211	5.89
400.418	5.8
400.625	5.76
400.831	5.74
401.038	5.71
401.245	5.56
401.452	5.49
401.658	5.4
401.865	5.65
402.072	5.81
402.279	5.5
402.485	5.76
402.692	5.95
402.899	5.88
403.105	6.06
403.312	6.08
403.519	6.22
403.725	6.06
403.932	6.11
404.138	5.97
404.345	5.88
404.552	5.93
404.758	5.72
404.965	5.62
405.171	5.7
405.378	5.72
405.584	5.44
405.791	5.44
405.997	5.68
406.204	5.7
406.41	5.86
406.617	5.78
406.823	5.95
407.029	6
407.236	6.01
407.442	5.97
407.649	5.91
407.855	6.09
408.061	6.08
408.268	5.94
408.474	5.87
408.68	5.7
408.887	5.78
409.093	5.59
409.299	5.59
409.505	5.36
409.712	5.41
409.918	5.26
410.124	5.35
410.33	5.42
410.537	5.3
410.743	5.37
410.949	5.38
411.155	5.41
411.361	5.53
411.567	5.42
411.773	5.65
411.98	5.56
412.186	5.62
412.392	5.56
412.598	5.73
412.804	5.64
413.01	5.62
413.216	5.54
413.422	5.55
413.628	5.36
413.834	5.43
414.04	5.41
414.246	5.34
414.452	5.25
414.658	5.19
414.864	4.96
415.07	5.11
415.275	5.09
415.481	5.2
415.687	5.11
415.893	5.16
416.099	5.12
416.305	5.06
416.511	4.89
416.716	4.78
416.922	4.87
417.128	4.97
417.334	5
417.539	4.93
417.745	4.78
417.951	4.83
418.157	4.77
418.362	4.78
418.568	4.76
418.774	4.93
418.979	5.04
419.185	4.97
419.391	4.92
419.596	4.92
419.802	4.98
420.008	5.07
420.213	4.34
420.419	4.33
420.624	4.34
420.83	4.42
421.035	4.36
421.241	4.4
421.446	4.43
421.652	4.36
421.857	4.32
422.063	4.27
422.268	4.21
422.474	4.88
422.679	4.91
422.885	4.91
423.09	4.86
423.295	4.85
423.501	4.81
423.706	4.81
423.911	4.85
424.117	4.85
424.322	4.87
424.527	4.86
424.733	4.79
424.938	4.82
425.143	4.77
425.349	4.73
425.554	4.77
425.759	4.78
425.964	4.73
426.169	4.7
426.375	4.71
426.58	4.65
426.785	4.63
426.99	4.63
427.195	4.59
427.4	4.71
427.605	4.72
427.811	4.74
428.016	4.68
428.221	4.65
428.426	4.69
428.631	4.65
428.836	4.57
429.041	4.75
429.246	4.78
429.451	4.87
429.656	4.72
429.861	4.79
430.066	4.69
430.271	4.69
430.476	4.72
430.681	4.75
430.886	4.62
431.09	4.73
431.295	4.63
431.5	4.65
431.705	4.59
431.91	4.6
432.115	4.53
432.32	4.54
432.524	4.61
432.729	4.61
432.934	4.64
433.139	4.74
433.343	4.81
433.548	4.76
433.753	4.81
433.958	4.82
434.162	4.91
434.367	4.97
434.572	4.99
434.776	5.04
434.981	5.02
435.186	4.99
435.39	4.98
435.595	4.96
435.799	5.1
436.004	5
436.209	5.06
436.413	5.03
436.618	4.89
436.822	4.83
437.027	4.62
437.231	4.66
437.436	4.56
437.64	4.6
437.845	4.53
438.049	4.39
438.253	4.35
438.458	4.31
438.662	4.28
438.867	4.33
439.071	4.42
439.275	4.54
439.48	4.48
439.684	4.57
439.888	4.61
440.093	4.65
440.297	4.64
440.501	4.78
440.706	4.69
440.91	4.71
441.114	4.77
441.318	4.75
441.523	4.71
441.727	4.73
441.931	4.69
442.135	4.59
442.339	4.64
442.543	4.65
442.748	4.58
442.952	4.76
443.156	4.77
443.36	4.78
443.564	4.77
443.768	4.77
443.972	4.77
444.176	4.76
444.38	4.81
444.584	4.68
444.788	4.73
444.992	4.65
445.196	4.61
445.4	4.52
445.604	4.54
445.808	4.6
446.012	4.57
446.216	4.57
446.42	4.54
446.624	4.59
446.828	4.6
447.032	4.51
447.235	4.51
447.439	4.48
447.643	4.57
447.847	4.59
448.051	4.55
448.254	4.55
448.458	4.55
448.662	4.62
448.866	4.55
449.069	4.62
449.273	4.7
449.477	4.8
449.681	4.75
449.884	4.73
450.088	4.63
450.292	4.53
450.495	4.64
450.699	4.62
450.902	4.53
451.106	4.58
451.31	4.55
451.513	4.48
451.717	4.37
451.92	4.49
452.124	4.46
452.327	4.56
452.531	4.64
452.734	4.63
452.938	4.71
453.141	4.75
453.345	4.7
453.548	4.78
453.752	4.92
453.955	4.92
454.158	4.86
454.362	4.91
454.565	4.85
454.769	4.79
454.972	4.64
455.175	4.64
455.379	4.63
455.582	4.65
455.785	4.56
455.988	4.41
456.192	4.43
456.395	4.37
456.598	4.24
456.801	4.18
457.005	4.35
457.208	4.49
457.411	4.44
457.614	4.47
457.817	4.43
458.021	4.42
458.224	4.34
458.427	4.36
458.63	4.4
458.833	4.44
459.036	4.41
459.239	4.28
459.442	4.25
459.645	4.26
459.848	4.27
460.051	4.22
460.254	4.15
460.457	4.28
460.66	4.25
460.863	4.25
461.066	4.28
461.269	4.34
461.472	4.35
461.675	4.4
461.878	4.41
462.081	4.39
462.284	4.41
462.486	4.49
462.689	4.39
462.892	4.41
463.095	4.51
463.298	4.53
463.5	4.44
463.703	4.43
463.906	4.34
464.109	4.28
464.311	4.31
464.514	4.32
464.717	4.4
464.92	4.41
465.122	4.43
465.325	4.34
465.528	4.26
465.73	4.4
465.933	4.38
466.135	4.35
466.338	4.38
466.541	4.3
466.743	4.39
466.946	4.37
467.148	4.43
467.351	4.45
467.553	4.48
467.756	4.58
467.958	4.51
468.161	4.55
468.363	4.67
468.566	4.73
468.768	4.76
468.971	4.77
469.173	4.69
469.375	4.71
469.578	4.71
469.78	4.64
469.983	4.59
470.185	4.63
470.387	4.67
470.59	4.53
470.792	4.53
470.994	4.49
471.196	4.5
471.399	4.59
471.601	4.61
471.803	4.63
472.005	4.68
472.208	4.73
472.41	4.82
472.612	4.83
472.814	4.91
473.016	4.88
473.218	4.93
473.421	4.9
473.623	4.86
473.825	4.81
474.027	4.76
474.229	4.85
474.431	4.84
474.633	4.72
474.835	4.75
475.037	4.8
475.239	4.88
475.441	4.89
475.643	4.83
475.845	4.85
476.047	4.94
476.249	4.98
476.451	4.96
476.653	4.91
476.855	4.9
477.057	4.88
477.258	4.86
477.46	4.82
477.662	4.82
477.864	4.93
478.066	4.94
478.268	4.86
478.469	4.83
478.671	4.71
478.873	4.8
479.075	4.79
479.276	4.71
479.478	4.77
479.68	4.78
479.882	4.82
480.083	4.7
480.285	4.76
480.487	4.76
480.688	4.8
480.89	4.88
481.091	4.85
481.293	4.84
481.495	4.87
481.696	4.8
481.898	4.76
482.099	4.75
482.301	4.76
482.502	4.7
482.704	4.71
482.905	4.71
483.107	4.69
483.308	4.68
483.51	4.66
483.711	4.68
483.913	4.66
484.114	4.64
484.315	4.62
484.517	4.6
484.718	4.59
484.92	4.6
485.121	4.59
485.322	4.6
485.524	4.59
485.725	4.6
485.926	4.58
486.127	4.62
486.329	4.64
486.53	4.69
486.731	4.68
486.932	4.7
487.134	4.72
487.335	4.73
487.536	4.69
487.737	4.71
487.938	4.74
488.139	4.77
488.341	4.77
488.542	4.81
488.743	4.76
488.944	4.82
489.145	4.82
489.346	4.8
489.547	4.76
489.748	4.8
489.949	4.81
490.15	4.81
490.351	4.73
490.552	4.74
490.753	4.73
490.954	4.75
491.155	4.73
491.356	4.74
491.557	4.77
491.758	4.8
491.959	4.81
492.159	4.79
492.36	4.76
492.561	4.79
492.762	4.81
492.963	4.83
493.164	4.85
493.364	4.87
493.565	4.89
493.766	4.95
493.967	5.01
494.167	5.01
494.368	5.02
494.569	5.13
494.769	5.24
494.97	5.21
495.171	5.18
495.371	5.3
495.572	5.33
495.773	5.4
495.973	5.4
496.174	5.41
496.375	5.41
496.575	5.41
496.776	5.42
496.976	5.43
497.177	5.43
497.377	5.48
497.578	5.42
497.778	5.48
497.979	5.51
498.179	5.43
498.38	5.47
498.58	5.57
498.78	5.61
498.981	5.54
499.181	5.53
499.382	5.59
499.582	5.61
499.782	5.68
499.983	5.71
500.183	5.7
500.383	5.84
500.584	5.81
500.784	5.82
500.984	5.86
501.184	5.93
501.385	5.97
501.585	5.92
501.785	6.04
501.985	6
502.185	5.94
502.386	5.94
502.586	5.97
502.786	6.02
502.986	6
503.186	6.05
503.386	6.12
503.586	6.13
503.786	6.25
503.987	6.18
504.187	6.18
504.387	6.31
504.587	6.29
504.787	6.25
504.987	6.3
505.187	6.31
505.387	6.35
505.587	6.39
505.786	6.41
505.986	6.38
506.186	6.36
506.386	6.37
506.586	6.4
506.786	6.52
506.986	6.56
507.186	6.54
507.386	6.65
507.585	6.63
507.785	6.58
507.985	6.64
508.185	6.7
508.384	6.77
508.584	6.91
508.784	6.89
508.984	6.88
509.183	6.86
509.383	6.92
509.583	7.01
509.782	7.06
509.982	7.17
510.182	7.16
510.381	7.18
510.581	7.29
510.781	7.24
510.98	7.28
511.18	7.3
511.379	7.42
511.579	7.46
511.778	7.4
511.978	7.43
512.177	7.44
512.377	7.54
512.576	7.57
512.776	7.52
512.975	7.62
513.175	7.7
513.374	7.78
513.573	7.8
513.773	7.79
513.972	7.89
514.172	7.96
514.371	8
514.57	8.04
514.77	8.06
514.969	8.18
515.168	8.22
515.367	8.23
515.567	8.23
515.766	8.32
515.965	8.44
516.164	8.41
516.364	8.47
516.563	8.52
516.762	8.53
516.961	8.66
517.16	8.7
517.359	8.69
517.559	8.71
517.758	8.72
517.957	8.69
518.156	8.74
518.355	8.71
518.554	8.72
518.753	8.74
518.952	8.82
519.151	8.74
519.35	8.71
519.549	8.76
519.748	8.81
519.947	8.84
520.146	8.92
520.345	8.87
520.544	8.98
520.743	9.04
520.942	9.08
521.141	9.12
521.339	9.22
521.538	9.32
521.737	9.35
521.936	9.35
522.135	9.49
522.333	9.45
522.532	9.54
522.731	9.56
522.93	9.58
523.129	9.61
523.327	9.63
523.526	9.63
523.725	9.61
523.923	9.66
524.122	9.75
524.321	9.67
524.519	9.7
524.718	9.74
524.917	9.7
525.115	9.77
525.314	9.78
525.512	9.77
525.711	9.8
525.909	9.77
526.108	9.77
526.306	9.74
526.505	9.81
526.703	9.79
526.902	9.78
527.1	9.79
527.299	9.81
527.497	9.81
527.696	9.85
527.894	9.86
528.092	9.91
528.291	9.91
528.489	9.92
528.688	9.95
528.886	10.03
529.084	10.07
529.283	10.13
529.481	10.11
529.679	10.17
529.877	10.16
530.076	10.2
530.274	10.2
530.472	10.24
530.67	10.29
530.869	10.3
531.067	10.32
531.265	10.4
531.463	10.44
531.661	10.52
531.859	10.48
532.057	10.56
532.255	10.56
532.454	10.68
532.652	10.72
532.85	10.71
533.048	10.73
533.246	10.72
533.444	10.67
533.642	10.62
533.84	10.71
534.038	10.82
534.236	10.86
534.434	10.92
534.632	10.91
534.83	10.96
535.027	11.02
535.225	11.1
535.423	11.19
535.621	11.28
535.819	11.47
536.017	11.42
536.215	11.4
536.412	11.42
536.61	11.47
536.808	11.54
537.006	11.59
537.203	11.76
537.401	11.82
537.599	11.87
537.797	11.9
537.994	11.96
538.192	12.03
538.39	12.2
538.587	12.34
538.785	12.45
538.983	12.58
539.18	12.67
539.378	12.73
539.575	12.76
539.773	12.86
539.97	12.94
540.168	12.98
540.366	13.06
540.563	13.1
540.761	13.08
540.958	13.16
541.155	13.22
541.353	13.26
541.55	13.28
541.748	13.34
541.945	13.4
542.143	13.44
542.34	13.53
542.537	13.63
542.735	13.7
542.932	13.83
543.129	13.96
543.327	14.09
543.524	14.39
543.721	14.62
543.919	14.91
544.116	15.18
544.313	15.51
544.51	15.84
544.708	16.11
544.905	16.38
545.102	16.75
545.299	16.97
545.496	17.2
545.693	17.2
545.891	17.26
546.088	17.24
546.285	17.16
546.482	17.15
546.679	16.95
546.876	16.82
547.073	16.71
547.27	16.54
547.467	16.4
547.664	16.3
547.861	16.2
548.058	16.2
548.255	16.12
548.452	16.13
548.649	16.07
548.846	16.15
549.043	16.17
549.24	16.26
549.437	16.19
549.633	16.23
549.83	16.18
550.027	16.11
550.224	15.96
550.421	15.95
550.618	15.78
550.814	15.71
551.011	15.61
551.208	15.54
551.405	15.45
551.601	15.35
551.798	15.32
551.995	15.24
552.191	15.23
552.388	15.21
552.585	15.14
552.781	15.15
552.978	15.08
553.175	15.1
553.371	15.05
553.568	15.01
553.764	15.07
553.961	15.05
554.157	15.05
554.354	15.08
554.55	15.05
554.747	15.17
554.943	15.15
555.14	15.16
555.336	15.23
555.533	15.39
555.729	15.41
555.926	15.45
556.122	15.4
556.318	15.36
556.515	15.42
556.711	15.56
556.907	15.61
557.104	15.72
557.3	15.84
557.496	15.79
557.693	15.73
557.889	15.68
558.085	15.71
558.281	15.79
558.478	15.95
558.674	15.98
558.87	16.12
559.066	16.1
559.262	16.29
559.459	16.43
559.655	16.53
559.851	16.71
560.047	16.92
560.243	16.83
560.439	16.93
560.635	16.95
560.831	16.89
561.027	16.87
561.223	16.86
561.419	16.76
561.615	16.69
561.811	16.66
562.007	16.54
562.203	16.43
562.399	16.54
562.595	16.54
562.791	16.55
562.987	16.64
563.183	16.51
563.379	16.61
563.575	16.63
563.771	16.71
563.966	16.84
564.162	16.85
564.358	16.93
564.554	16.85
564.75	16.86
564.945	16.93
565.141	16.96
565.337	17.08
565.533	17.1
565.728	17.09
565.924	17.1
566.12	17.1
566.315	17.23
566.511	17.37
566.707	17.52
566.902	17.57
567.098	17.53
567.293	17.67
567.489	17.7
567.684	17.65
567.88	17.73
568.076	17.69
568.271	17.68
568.467	17.67
568.662	17.54
568.858	17.6
569.053	17.69
569.248	17.68
569.444	17.58
569.639	17.59
569.835	17.67
570.03	17.68
570.225	17.79
570.421	17.79
570.616	17.75
570.812	17.86
571.007	17.88
571.202	17.79
571.397	17.82
571.593	17.88
571.788	17.98
571.983	18
572.178	18.04
572.374	18.1
572.569	18.1
572.764	18.21
572.959	18.18
573.154	18.21
573.35	18.25
573.545	18.35
573.74	18.42
573.935	18.3
574.13	18.41
574.325	18.62
574.52	18.68
574.715	18.86
574.91	18.94
575.105	19.05
575.3	19.15
575.495	19.29
575.69	19.5
575.885	19.71
576.08	20
576.275	20.2
576.47	20.37
576.665	20.59
576.86	20.78
577.055	20.92
577.25	21.1
577.444	21.31
577.639	21.62
577.834	21.71
578.029	21.83
578.224	21.97
578.418	22.08
578.613	22.19
578.808	22.25
579.003	22.29
579.197	22.41
579.392	22.52
579.587	22.57
579.781	22.6
579.976	22.63
580.171	22.6
580.365	22.6
580.56	22.61
580.755	22.61
580.949	22.54
581.144	22.53
581.338	22.61
581.533	22.7
581.727	22.79
581.922	22.8
582.116	22.84
582.311	23.01
582.505	23.15
582.7	23.1
582.894	23.11
583.089	23.23
583.283	23.4
583.478	23.38
583.672	23.42
583.866	23.36
584.061	23.22
584.255	23.34
584.449	23.42
584.644	23.46
584.838	23.59
585.032	23.68
585.226	23.95
585.421	24.19
585.615	24.32
585.809	24.57
586.003	24.62
586.198	24.88
586.392	24.95
586.586	24.89
586.78	25.03
586.974	25.08
587.168	25.02
587.363	24.76
587.557	24.44
587.751	24.3
587.945	23.98
588.139	23.91
588.333	23.78
588.527	23.56
588.721	23.41
588.915	23.14
589.109	22.93
589.303	22.84
589.497	22.74
589.691	22.68
589.885	22.71
590.079	22.86
590.273	22.88
590.466	22.95
590.66	23.09
590.854	23.15
591.048	23.21
591.242	23.45
591.436	23.69
591.629	23.81
591.823	24.02
592.017	24.16
592.211	24.21
592.404	24.35
592.598	24.32
592.792	24.38
592.986	24.31
593.179	24.36
593.373	24.25
593.567	23.99
593.76	23.98
593.954	23.84
594.147	23.66
594.341	23.4
594.535	23.22
594.728	23.23
594.922	22.94
595.115	22.88
595.309	22.62
595.502	22.49
595.696	22.39
595.889	22.25
596.083	22.18
596.276	22.16
596.47	22.17
596.663	22.3
596.856	22.29
597.05	22.48
597.243	22.57
597.437	22.79
597.63	23.07
597.823	23.24
598.017	23.37
598.21	23.61
598.403	23.84
598.596	24.12
598.79	24.27
598.983	24.36
599.176	24.43
599.369	24.55
599.563	24.54
599.756	24.4
599.949	24.55
600.142	24.62
600.335	24.52
600.528	24.44
600.722	24.37
600.915	24.2
601.108	24.08
601.301	24.04
601.494	23.92
601.687	23.94
601.88	23.88
602.073	23.59
602.266	23.47
602.459	23.37
602.652	23.23
602.845	23.08
603.038	22.87
603.231	22.88
603.424	22.72
603.617	22.66
603.809	22.57
604.002	22.45
604.195	22.52
604.388	22.58
604.581	22.68
604.774	22.78
604.966	22.81
605.159	22.97
605.352	23.08
605.545	23.13
605.737	23.27
605.93	23.44
606.123	23.79
606.316	23.99
606.508	24.17
606.701	24.34
606.894	24.5
607.086	24.76
607.279	25.16
607.471	25.42
607.664	26.03
607.857	26.43
608.049	27.13
608.242	27.79
608.434	28.74
608.627	29.89
608.819	31.31
609.012	32.93
609.204	34.84
609.397	36.8
609.589	39.04
609.782	41.38
609.974	43.93
610.166	46.29
610.359	48.63
610.551	50.95
610.743	53.14
610.936	54.93
611.128	56.2
611.32	57.09
611.513	57.5
611.705	57.56
611.897	57.15
612.09	56.34
612.282	55.59
612.474	54.73
612.666	53.35
612.858	51.89
613.051	50.38
613.243	49.25
613.435	48.03
613.627	46.87
613.819	45.84
614.011	44.75
614.203	43.93
614.395	42.64
614.588	41.32
614.78	40.35
614.972	39.15
615.164	38.08
615.356	36.97
615.548	35.94
615.74	35.1
615.932	34.18
616.124	33.29
616.315	32.41
616.507	31.73
616.699	31.12
616.891	30.42
617.083	29.98
617.275	29.59
617.467	29.27
617.659	29.15
617.85	28.91
618.042	28.64
618.234	28.39
618.426	28.16
618.618	28.08
618.809	28.09
619.001	28.15
619.193	28.11
619.384	28.05
619.576	27.98
619.768	27.62
619.959	27.57
620.151	27.63
620.343	27.89
620.534	27.86
620.726	27.89
620.917	27.79
621.109	27.64
621.301	27.66
621.492	27.77
621.684	27.96
621.875	28.18
622.067	28.16
622.258	28.31
622.45	28.37
622.641	28.55
622.832	28.45
623.024	28.47
623.215	28.58
623.407	28.59
623.598	28.51
623.789	28.29
623.981	28.31
624.172	28.38
624.363	28.28
624.555	28.15
624.746	28.01
624.937	28.25
625.129	28.16
625.32	28.05
625.511	28.08
625.702	27.99
625.893	28.03
626.085	27.88
626.276	27.74
626.467	27.59
626.658	27.47
626.849	27.38
627.04	27.06
627.231	26.97
627.422	26.84
627.614	26.8
627.805	26.98
627.996	27.01
628.187	27.22
628.378	27.43
628.569	27.73
628.76	28.12
628.951	28.53
629.142	29.01
629.332	29.52
629.523	30.07
629.714	30.51
629.905	30.8
630.096	31.11
630.287	31.29
630.478	31.4
630.669	31.32
630.859	31.22
631.05	30.99
631.241	30.71
631.432	30.38
631.623	30.16
631.813	29.53
632.004	29
632.195	28.59
632.385	28.14
632.576	27.72
632.767	27.48
632.957	27.13
633.148	26.83
633.339	26.34
633.529	26.1
633.72	25.69
633.91	25.55
634.101	25.38
634.292	25.21
634.482	24.96
634.673	24.81
634.863	24.67
635.054	24.7
635.244	24.69
635.435	24.85
635.625	25.13
635.815	25.25
636.006	25.3
636.196	25.44
636.387	25.42
636.577	25.68
636.767	25.75
636.958	25.76
637.148	25.63
637.338	25.62
637.529	25.73
637.719	25.55
637.909	25.59
638.099	25.82
638.29	25.68
638.48	25.7
638.67	25.53
638.86	25.4
639.05	25.58
639.241	25.6
639.431	25.64
639.621	25.51
639.811	25.37
640.001	25.4
640.191	25.12
640.381	25.09
640.571	25.18
640.761	25.43
640.951	25.87
641.141	25.8
641.331	25.86
641.521	25.73
641.711	25.84
641.901	25.95
642.091	25.88
642.281	26.07
642.471	26.18
642.661	26.06
642.851	25.77
643.041	25.48
643.231	25.45
643.42	25.62
643.61	25.82
643.8	25.82
643.99	25.76
644.18	25.77
644.369	25.73
644.559	25.81
644.749	25.91
644.939	26.12
645.128	26.41
645.318	26.34
645.508	26.28
645.697	26.06
645.887	25.9
646.076	25.71
646.266	25.67
646.456	25.68
646.645	25.64
646.835	25.6
647.024	25.68
647.214	25.49
647.403	25.63
647.593	25.68
647.782	26
647.972	26.31
648.161	26.51
648.351	26.63
648.54	26.77
648.73	26.85
648.919	26.82
649.108	26.93
649.298	26.84
649.487	26.86
649.677	26.94
649.866	26.96
650.055	26.83
650.244	27.01
650.434	27.08
650.623	26.74
650.812	26.73
651.002	26.88
651.191	26.87
651.38	27.08
651.569	27.21
651.758	27.27
651.947	27.36
652.137	27.39
652.326	27.37
652.515	27.43
652.704	27.72
652.893	28.01
653.082	28.18
653.271	28.01
653.46	27.9
653.649	27.73
653.838	27.63
654.027	27.46
654.216	27.35
654.405	27.16
654.594	26.8
654.783	26.54
654.972	26.26
655.161	26.04
655.35	26.07
655.539	26.13
655.728	25.93
655.916	25.88
656.105	25.88
656.294	25.87
656.483	25.77
656.672	25.86
656.86	26.06
657.049	25.95
657.238	25.91
657.427	25.8
657.615	25.67
657.804	25.76
657.993	25.46
658.181	25.16
658.37	25.18
658.559	25.22
658.747	25.35
658.936	25.13
659.125	24.78
659.313	24.59
659.502	24.5
659.69	24.49
659.879	24.41
660.067	24.46
660.256	24.58
660.444	25
660.633	25.11
660.821	25.11
661.01	25.42
661.198	25.98
661.387	26.41
661.575	26.75
661.763	27.06
661.952	27.28
662.14	27.48
662.328	27.72
662.517	27.51
662.705	27.72
662.893	27.89
663.082	27.74
663.27	27.69
663.458	27.84
663.646	28.12
663.834	28.15
664.023	27.95
664.211	28.16
664.399	28.1
664.587	28.36
664.775	28.14
664.963	27.88
665.152	27.89
665.34	27.72
665.528	27.37
665.716	27.05
665.904	26.75
666.092	26.94
666.28	27.01
666.468	27.08
666.656	26.76
666.844	26.75
667.032	26.83
667.22	26.93
667.408	27.31
667.596	27.11
667.784	27.31
667.971	27.23
668.159	27.38
668.347	27.24
668.535	27.25
668.723	27.27
668.911	27.2
669.098	26.97
669.286	26.86
669.474	26.76
669.662	27.06
669.849	26.72
670.037	27.02
670.225	26.83
670.413	26.72
670.6	26.77
670.788	26.69
670.976	26.59
671.163	26.77
671.351	26.87
671.538	26.51
671.726	26.33
671.913	26.45
672.101	26.39
672.289	26.47
672.476	26.4
672.664	26.34
672.851	26.33
673.039	26.5
673.226	26.59
673.413	26.58
673.601	26.84
673.788	27.1
673.976	27.05
674.163	27.01
674.35	26.8
674.538	26.93
674.725	26.87
674.912	26.85
675.1	26.93
675.287	26.99
675.474	26.98
675.662	27.2
675.849	26.94
676.036	26.76
676.223	26.69
676.411	26.93
676.598	26.87
676.785	26.73
676.972	27.03
677.159	27.21
677.346	27.35
677.533	27.27
677.721	27.06
677.908	27.03
678.095	27.17
678.282	27.02
678.469	26.94
678.656	26.86
678.843	26.91
679.03	26.89
679.217	26.64
679.404	26.39
679.591	26.42
679.778	26.22
679.964	26.31
680.151	26.36
680.338	26.49
680.525	26.57
680.712	26.49
680.899	26.47
681.086	26.06
681.272	26.13
681.459	26.11
681.646	26.12
681.833	26.26
682.02	26.31
682.206	26.41
682.393	26.29
682.58	26.24
682.766	26.45
682.953	26.56
683.14	26.79
683.326	26.9
683.513	26.95
683.7	27.05
683.886	26.99
684.073	27.13
684.259	26.98
684.446	27.25
684.632	27.45
684.819	27.54
685.005	27.62
685.192	27.87
685.378	27.92
685.565	28.1
685.751	28.07
685.938	28.25
686.124	28.35
686.31	28.21
686.497	28.07
686.683	28.01
686.87	27.86
687.056	28.03
687.242	27.85
687.429	27.88
687.615	28.03
687.801	28.09
687.987	28.11
688.174	27.7
688.36	28.08
688.546	28.01
688.732	27.81
688.918	27.85
689.105	27.68
689.291	27.62
689.477	27.71
689.663	27.43
689.849	27.21
690.035	27.35
690.221	27.57
690.407	27.61
690.593	27.47
690.779	27.25
690.965	27.38
691.151	27.36
691.337	27.52
691.523	27.56
691.709	27.69
691.895	27.73
692.081	27.45
692.267	27.43
692.453	27.45
692.639	27.78
692.825	28.48
693.011	28.78
693.196	28.95
693.382	29.12
693.568	28.99
693.754	29.11
693.94	29.19
694.125	29.31
694.311	29.32
694.497	28.88
694.682	28.81
694.868	28.36
695.054	28.05
695.239	27.84
695.425	27.83
695.611	27.78
695.796	27.49
695.982	27.61
696.168	27.27
696.353	26.91
696.539	26.69
696.724	26.61
696.91	26.51
697.095	26.19
697.281	26.09
697.466	25.67
697.652	25.22
697.837	25.1
698.023	24.79
698.208	24.83
698.393	24.74
698.579	24.97
698.764	24.98
698.949	24.99
699.135	25.02
699.32	24.98
699.505	25.11
699.691	25.33
699.876	25.16
700.061	25.23
700.246	25.36
700.432	25.66
700.617	25.53
700.802	25.47
700.987	25.72
701.172	26
701.358	25.91
701.543	25.97
701.728	26.2
701.913	26.59
702.098	27.14
702.283	27.43
702.468	27.6
702.653	28.12
702.838	28.68
703.023	28.64
703.208	28.95
703.393	29.72
703.578	30.16
703.763	30.5
703.948	30.92
704.133	31.13
704.318	31.65
704.503	31.91
704.688	32.3
704.873	32.2
705.057	32.91
705.242	33.37
705.427	33.77
705.612	34.03
705.797	34.04
705.981	34.63
706.166	35.01
706.351	35.14
706.536	35.51
706.72	35.63
706.905	36.34
707.09	36.68
707.274	36.77
707.459	37.16
707.644	37.63
707.828	37.94
708.013	37.88
708.197	37.86
708.382	37.88
708.567	37.96
708.751	37.93
708.936	37.57
709.12	36.95
709.305	36.55
709.489	35.99
709.673	35.5
709.858	35.33
710.042	34.73
710.227	34.46
710.411	34.08
710.596	33.72
710.78	33.88
710.964	33.97
711.149	34.01
711.333	33.87
711.517	34.06
711.702	34.12
711.886	33.96
712.07	34.03
712.254	34.02
712.438	33.58
712.623	33.21
712.807	32.83
712.991	32
713.175	31.62
713.359	31.35
713.544	30.2
713.728	29.32
713.912	28.89
714.096	28.85
714.28	28.34
714.464	28.62
714.648	28.56
714.832	27.71
715.016	27.69
715.2	27.33
715.384	27.01
715.568	27.08
715.752	26.8
715.936	26.86
716.12	26.52
716.304	26.45
716.488	26.01
716.671	25.47
716.855	25.42
717.039	25.3
717.223	24.95
717.407	25.02
717.59	25.08
717.774	25.35
717.958	24.84
718.142	24.86
718.325	24.85
718.509	25.18
718.693	25.27
718.877	25.41
719.06	25.57
719.244	26.08
719.428	26
719.611	26.18
719.795	26.38
719.978	26.83
720.162	26.85
720.345	26.94
720.529	26.54
720.713	27.14
720.896	27.28
721.08	27.21
721.263	27.43
721.446	27.45
721.63	27.34
721.813	27.32
721.997	26.76
722.18	26.75
722.364	26.28
722.547	26.71
722.73	26.21
722.914	26.44
723.097	26.69
723.28	26.11
723.464	25.8
723.647	25.69
723.83	26.1
724.013	26.67
724.197	26.35
724.38	26.68
724.563	26.04
724.746	26.12
724.929	26.23
725.112	25.88
725.296	25.88
725.479	25.86
725.662	25.99
725.845	25.46
726.028	25.3
726.211	25.55
726.394	25.93
726.577	26.01
726.76	26.5
726.943	26.56
727.126	26.74
727.309	27.29
727.492	27.24
727.675	27.09
727.858	26.64
728.041	26.69
728.224	26.44
728.407	25.87
728.589	25.66
728.772	25.4
728.955	25.24
729.138	25.09
729.321	24.82
729.503	24.85
729.686	24.84
729.869	24.92
730.052	24.91
730.234	25.19
730.417	24.71
730.6	25.15
730.782	25.4
730.965	25.57
731.148	25.71
731.33	25.89
731.513	25.6
731.695	25.9
731.878	26.92
732.061	26.97
732.243	26.84
732.426	27.87
732.608	28
732.791	27.89
732.973	27.62
733.156	27.58
733.338	27.61
733.52	28.15
733.703	28.33
733.885	27.4
734.068	27.21
734.25	27.39
734.432	26.62
734.615	26.36
734.797	26.36
734.979	26.46
735.162	26.83
735.344	26.93
735.526	26.66
735.708	26.36
735.891	26.4
736.073	26.57
736.255	26.82
736.437	27.29
736.619	27.63
736.802	27.84
736.984	27.67
737.166	27.6
737.348	27.67
737.53	28.31
737.712	28.58
737.894	28.73
738.076	28.89
738.258	28.64
738.44	28.45
738.622	28.3
738.804	28.06
738.986	28.36
739.168	28.29
739.35	27.85
739.532	27.63
739.714	27.61
739.896	27.58
740.078	27.7
740.259	27.44
740.441	27.37
740.623	27.51
740.805	27.26
740.987	27.01
741.168	27.51
741.35	27.92
741.532	28.3
741.714	28.1
741.895	28.67
742.077	28.88
742.259	29.81
742.44	30.51
742.622	30.71
742.804	31.22
742.985	31.51
743.167	31.46
743.348	31.75
743.53	31.53
743.711	31.86
743.893	31.74
744.075	31.77
744.256	31.62
744.438	31.66
744.619	31.76
744.8	31.8
744.982	32.57
745.163	32.53
745.345	32.52
745.526	32.77
745.707	33.27
745.889	33.42
746.07	33.41
746.252	32.99
746.433	32.37
746.614	32.34
746.795	31.78
746.977	30.85
747.158	30.39
747.339	30.47
747.52	30.56
747.702	29.82
747.883	28.98
748.064	29.1
748.245	29.36
748.426	29.71
748.607	29.76
748.788	30.45
748.97	31.02
749.151	30.64
749.332	30.2
749.513	30.6
749.694	30.52
749.875	30.8
750.056	30.31
750.237	30.24
750.418	30.58
750.599	29.88
750.78	29.69
750.96	29.32
751.141	30.03
751.322	29.75
751.503	28.69
751.684	28.44
751.865	28.97
752.046	29.52
752.226	28.97
752.407	29.05
752.588	29.96
752.769	29.87
752.949	29.76
753.13	29.54
753.311	30.19
753.492	30.44
753.672	31.03
753.853	31.04
754.034	30.43
754.214	30.83
754.395	30.16
754.575	29.29
754.756	29.04
754.937	29.36
755.117	29.75
755.298	29.36
755.478	29.94
755.659	29.88
755.839	29.47
756.02	29.93
756.2	30.12
756.381	30.35
756.561	30.4
756.741	30.47
756.922	30.11
757.102	29.23
757.283	29.33
757.463	28.48
757.643	28.29
757.823	28.36
758.004	28.07
758.184	26.95
758.364	26.24
758.545	26.07
758.725	25.81
758.905	25.41
759.085	25.08
759.265	24.4
759.446	23.95
759.626	23.42
759.806	23.03
759.986	21.67
760.166	22.33
760.346	22.31
760.526	22.39
760.706	22.18
760.886	22.08
761.066	22.22
761.246	22.33
761.426	22.61
761.606	23.1
761.786	23.56
761.966	24.53
762.146	24.26
762.326	24.36
762.506	24.04
762.686	24.07
762.866	23.61
763.046	23.8
763.225	23.87
763.405	23.91
763.585	23.81
763.765	23.61
763.945	23.53
764.124	23.74
764.304	23.94
764.484	23.83
764.664	23.98
764.843	24.75
765.023	24.99
765.203	25.44
765.382	25.61
765.562	25.72
765.741	26.51
765.921	26.95
766.101	27.2
766.28	27.28
766.46	27.97
766.639	27.86
766.819	28.3
766.998	28.61
767.178	28.37
767.357	28.71
767.537	29.05
767.716	29
767.896	29.59
768.075	29.58
768.254	30.04
768.434	30.8
768.613	30.89
768.792	30.92
768.972	30.25
769.151	31.13
769.33	30.8
769.51	30.92
769.689	30.24
769.868	29.77
770.047	29.45
770.226	29.4
770.406	29.5
770.585	30.9
770.764	30.76
770.943	31.47
771.122	31.01
771.301	32.12
771.48	31.76
771.66	31.74
771.839	31.25
772.018	31.28
772.197	31.51
772.376	31.55
772.555	31.01
772.734	31.29
772.913	31.02
773.092	31.01
773.271	30.35
773.449	30.34
773.628	31.02
773.807	31.06
773.986	30.91
774.165	30.52
774.344	30.3
774.523	30.37
774.701	30.52
774.88	30.16
775.059	30.28
775.238	29.98
775.417	30.62
775.595	30.67
775.774	31.05
775.953	31.62
776.131	31.47
776.31	31.02
776.489	31.04
776.667	30.37
776.846	31.6
777.025	31.48
777.203	31.4
777.382	31.55
777.56	31.55
777.739	31.52
777.917	31.62
778.096	31.99
778.274	32.02
778.453	31.91
778.631	30.31
778.81	29.59
778.988	30.34
779.166	31.03
779.345	29.98
779.523	30.13
779.702	29.92
779.88	30.15
780.058	29.91
780.237	30.16
780.415	30.15
780.593	31.55
780.771	31.45
780.95	30.88
781.128	29.93
781.306	31.02
781.484	30.9
781.662	30.93
781.841	30.06
782.019	30.36
782.197	29.88
782.375	30.29
782.553	30.33
782.731	30.56
782.909	30.45
783.087	30.96
783.265	30.78
783.443	30.87
783.621	31.44
783.799	32.24
783.977	31.62
784.155	30.84
784.333	31.13
784.511	31.98
784.689	31.94
784.867	31.57
785.045	31.87
785.223	31.32
785.4	31.18
785.578	31.53
785.756	30.74
785.934	30.83
786.112	31.92
786.289	30.48
786.467	28.63
786.645	28.4
786.823	28.16
787	28.16
787.178	28.19
787.356	27.5
787.533	26.39
787.711	26.96
787.889	27.04
788.066	26.82
788.244	27.75
788.421	28.09
788.599	27.65
788.776	27.64
788.954	27.48
789.131	26.86
789.309	26.14
789.486	27.17
789.664	27.46
789.841	27.79
790.019	27.33
790.196	26.69
790.373	27.17
790.551	28.48
790.728	28.49
790.906	28.45
791.083	29.35
791.26	30.63
791.437	29.82
791.615	29.63
791.792	28.6
791.969	29.07
792.146	28.64
792.324	29.08
792.501	29.31
792.678	29.63
792.855	28.86
793.032	28.75
793.209	29.09
793.387	29.31
793.564	28.17
793.741	28.8
793.918	28.47
794.095	28.95
794.272	29.3
794.449	28.68
794.626	28.42
794.803	29.44
794.98	28.71
795.157	28.1
795.334	27.46
795.511	28.23
795.688	28.12
795.864	28.57
796.041	28.48
796.218	27.55
796.395	27.3
796.572	27.45
796.749	27.39
796.925	27.67
797.102	28.35
797.279	28.62
797.456	28.98
797.632	28.59
797.809	28.72
797.986	29.22
798.162	29.03
798.339	28.92
798.516	28.84
798.692	27.89
798.869	28.02
799.046	26.95
799.222	26.93
799.399	25.65
799.575	25.86
799.752	24.96
799.928	24.41
800.105	24.85
800.281	24.45
800.458	24.79
800.634	26.35
800.811	26.35
800.987	26.48
801.163	26.69
801.34	27.08
801.516	27.9
801.692	28.08
801.869	28.45
802.045	28.43
802.221	28.68
802.398	28.66
802.574	27.52
802.75	27.51
802.926	28.83
803.103	28.33
803.279	28.53
803.455	27.47
803.631	28.17
803.807	27.38
803.983	25.38
804.16	26.25
804.336	25.88
804.512	25.65
804.688	25.98
804.864	24.97
805.04	25.23
805.216	26.28
805.392	26.68
805.568	25.66
805.744	27.05
805.92	27.56
806.096	26.33
806.272	25.4
806.448	26.89
806.623	26.96
806.799	25.89
806.975	25.63
807.151	24.9
807.327	25.6
807.503	25.55
807.678	24.23
807.854	25.67
808.03	25.38
808.206	27.03
808.381	25.18
808.557	25.39
808.733	26.14
808.908	27.51
809.084	27.78
809.26	26.51
809.435	26.11
809.611	25.46
809.787	25.61
809.962	25.9
810.138	25.63
810.313	25.61
810.489	25.14
810.664	25.66
810.84	24.03
811.015	24.03
811.191	25.02
811.366	26.02
811.542	27.04
811.717	27.46
811.892	27.78
812.068	27.27
812.243	27.09
812.419	27.8
812.594	27.3
812.769	27.02
812.944	26.35
813.12	24.68
813.295	23.9
813.47	22.74
813.645	20.7
813.821	20.84
813.996	19.24
814.171	19.22
814.346	18.09
814.521	18.52
814.697	18.79
814.872	18.38
815.047	20.28
815.222	21.75
815.397	22.35
815.572	23.6
815.747	23.59
815.922	24.28
816.097	25.28
816.272	24.86
816.447	22.45
816.622	21.23
816.797	21.26
816.972	20.45
817.147	20.12
817.322	19.74
817.496	20.01
817.671	19.63
817.846	19.34
818.021	19.66
818.196	20.87
818.371	21.81
818.545	23.53
818.72	22.87
818.895	22.64
819.069	21.76
819.244	21.96
819.419	22.67
819.594	22.4
819.768	22.93
819.943	22.23
820.117	21.79
820.292	21.44
820.467	20.69
820.641	20.74
820.816	21.2
820.99	20.63
821.165	20.07
821.339	19.46
821.514	19.49
821.688	19.09
821.863	18.76
822.037	18.48
822.212	18.43
822.386	18.34
822.56	18.45
822.735	18.08
822.909	18.08
823.084	18.32
823.258	18.23
823.432	18.16
823.606	18.11
823.781	18.42
823.955	18.55
824.129	18.7
824.303	18.77
824.478	18.39
824.652	18.7
824.826	18.98
825	18.77
825.174	19.08
825.348	19.18
825.523	19.18
825.697	19.13
825.871	19.28
826.045	19.48
826.219	19.62
826.393	20.18
826.567	19.71
826.741	20.04
826.915	20.12
827.089	19.73
827.263	19.22
827.437	19.65
827.611	19.48
827.784	19.45
827.958	19.45
828.132	19.61
828.306	19.51
828.48	20.17
828.654	19.77
828.827	19.9
829.001	19.98
829.175	20.62
829.349	20.63
829.522	20.24
829.696	20.15
829.87	19.71
830.044	18.4
830.217	18.28
830.391	17.92
830.565	18.31
830.738	17.96
830.912	18.84
831.085	17.81
831.259	16.64
831.432	17.48
831.606	17.9
831.779	19.33
831.953	20.63
832.126	20.37
832.3	19.19
832.473	18.35
832.647	18.42
832.82	17.67
832.994	18.22
833.167	18.62
833.34	19.02
833.514	19.23
833.687	18.31
833.86	18.19
834.034	18.4
834.207	18.66
834.38	19.14
834.553	19.42
834.727	19.35
834.9	19.87
835.073	20.01
835.246	19.65
835.419	18.57
835.593	19.55
835.766	18.92
835.939	19.68
836.112	19.02
836.285	18.48
836.458	18.47
836.631	19.76
836.804	18.13
836.977	18.87
837.15	20.31
837.323	21.3
837.496	20.04
837.669	20.89
837.842	19.89
838.015	22.5
838.188	23.27
838.361	23.3
838.533	22.19
838.706	24.31
838.879	24.01
839.052	24.07
839.225	24.85
839.398	23.75
839.57	23.24
839.743	23.28
839.916	22.3
840.088	21.09
840.261	21.68
840.434	22.15
840.607	21.46
840.779	21.28
840.952	19.23
841.124	17.87
841.297	18.88
841.47	19.49
841.642	20.04
841.815	21.6
841.987	23.49
842.16	21.53
842.332	20.88
842.505	20.71
842.677	20.05
842.85	20.14
843.022	21.09
843.194	23.44
843.367	23.28
843.539	21.98
843.712	19.13
843.884	19.19
844.056	24
844.229	23.98
844.401	25.84
844.573	25.88
844.745	27.05
844.918	26.63
845.09	27.53
845.262	29.69
845.434	32.28
845.606	34.97
845.779	36.07
845.951	32
846.123	30.72
846.295	30.27
846.467	30.46
846.639	33.13
846.811	34.43
846.983	30.76
847.155	31.57
847.327	29.72
847.499	26.68
847.671	25.04
847.843	32
848.015	32.48
848.187	33.59
848.359	35.29
848.531	32.74
848.703	29.4
848.875	27.64
849.047	26.1
849.218	24.26
849.39	24.48
849.562	25.47
849.734	19.48
849.905	24.27
850.077	21.44
850.249	22.93
850.421	20.96
850.592	22.3
850.764	25.32
850.936	25.39
851.107	26.87
851.279	24.43
851.451	23.62
851.622	25.21
851.794	20.74
851.965	22.14
852.137	20.42
852.308	20.76
852.48	21.38
852.651	17.82
852.823	19.37
852.994	16.57
853.166	20.52
853.337	19.19
853.509	18.68
853.68	18.17
853.851	19.58
854.023	18.36
854.194	18.08
854.365	22.8
854.537	24.88
854.708	25.69
854.879	28.36
855.05	26.9
855.222	25.97
855.393	29.82
855.564	30.07
855.735	27.02
855.906	26.19
856.078	24.39
856.249	19.83
856.42	20.41
856.591	18.44
856.762	15.01
856.933	15.06
857.104	13.89
857.275	10.59
857.446	15.98
857.617	16.41
857.788	18.67
857.959	22.8
858.13	23.36
858.301	21.48
858.472	20.26
858.643	22.36
858.814	18.19
858.985	17.46
859.155	15.41
859.326	11.38
859.497	12.88
859.668	6.23
859.839	7.35
860.009	8.85
860.18	8.2
860.351	9.57
860.522	11.81
860.692	16.53
860.863	16.69
861.034	13.85
861.204	11.97
861.375	15.07
861.546	23.09
861.716	23.43
861.887	22.48
862.057	26.77
862.228	24.85
862.398	24.85
862.569	22.06
862.739	27.17
862.91	33.88
863.08	34.27
863.251	30.72
863.421	23.9
863.592	20.83
863.762	19.98
863.932	21.96
864.103	24.12
864.273	20.53
864.443	21.37
864.614	18.54
864.784	11.37
864.954	14.77
865.125	13.2
865.295	15.23
865.465	19.23
865.635	22.03
865.805	16.97
865.976	16.71
866.146	21.05
866.316	21.75
866.486	22.86
866.656	23.97
866.826	23.48
866.996	25.78
867.166	24.16
867.336	20.64
867.506	21.85
867.676	17.96
867.846	19.91
868.016	18.07
868.186	17.28
868.356	19.4
868.526	20.96
868.696	16.73
868.866	18.59
869.036	19.87
869.206	24.27
869.376	20.55
869.545	25.82
869.715	21.81
869.885	17.82
870.055	16.97
870.224	12.63
870.394	13.98
870.564	12.43
870.734	9.43
870.903	9.63
871.073	11.46
871.243	12.49
871.412	11.23
871.582	11.71
871.751	15.6
871.921	14.54
872.091	17.05
872.26	16.89
872.43	17.93
872.599	20.58
872.769	21.6
872.938	16.37
873.108	15.37
873.277	11.24
873.446	13.53
873.616	13.28
873.785	16.19
873.955	12.95
874.124	10.19
874.293	12.01
874.463	13.25
874.632	10.32
874.801	12.44
874.971	11.33
875.14	12.66
875.309	8.91
875.478	8.84
875.647	6.16
875.817	3.1
875.986	6.59
876.155	7.31
876.324	5.06
876.493	9.84
876.662	10.94
876.831	14.15
877	16.66
877.17	17.06
877.339	16.5
877.508	20.76
877.677	23.86
877.846	22
878.015	20.61
878.184	16.82
878.352	11.89
878.521	12.69
878.69	11.85
878.859	10.83
879.028	11.3
879.197	13.27
879.366	12.27
879.534	15.18
879.703	14.67
879.872	16.21
880.041	17.13
880.21	19.48
880.378	18.41
880.547	17.81
880.716	18.8
880.884	18.65
881.053	18.59
881.222	18.21
881.39	17.13
881.559	17.66
881.727	16.9
881.896	16.52
882.065	16.02
882.233	16.19
882.402	16.37
882.57	15.97
882.739	16.82
882.907	16.73
883.076	17.23
883.244	17.47
883.412	17.07
883.581	17.65
883.749	18.68
883.918	18.86
884.086	17.96
884.254	18
884.423	16.85
884.591	15.77
884.759	15.56
884.927	14.97
885.096	15.36
885.264	16.45
885.432	15.84
885.6	15.9
885.769	15.42
885.937	18.05
886.105	17.72
886.273	19.58
886.441	19.04
886.609	20.19
886.777	18.92
886.945	19.53
887.113	17.61
887.281	19.01
887.449	16.91
887.617	17.26
887.785	17.68
887.953	20.57
888.121	24.36
888.289	21.44
888.457	20.27
888.625	22.91
888.793	20.96
888.961	20.59
889.129	19.69
889.296	19.57
889.464	21.03
889.632	18.49
889.8	15.35
889.967	12.15
890.135	20.28
