Data from 2938723__Reflection_02.txt Node
Date: Sun Mar 15 20:32:36 EDT 2015
User: robert
Spectrometer: USB4E03002
Autoset integration time: false
Trigger mode: 4
Integration Time (sec): 1.000000E-1
Scans to average: 10
Electric dark correction enabled: false
Nonlinearity correction enabled: false
Boxcar width: 5
Stray light correction enabled: false
XAxis mode: Wavelengths
Stop averaging: false
Number of Pixels in Spectrum: 3648
>>>>>Begin Spectral Data<<<<<
177.575	19.69
177.794	27.78
178.014	1.85
178.233	-42.12
178.452	-21.67
178.672	-221.67
178.891	-161.02
179.11	-247.73
179.33	-50
179.549	75.73
179.768	270.83
179.987	134.84
180.207	614.71
180.426	136.97
180.645	42.9
180.864	91.94
181.084	67.98
181.303	79.22
181.522	69.45
181.741	77.31
181.96	80.73
182.179	73.06
182.398	76.11
182.618	64.59
182.837	66.52
183.056	56.33
183.275	49.54
183.494	248.61
183.713	-1176.92
183.932	323.28
184.151	346.77
184.37	648.33
184.589	138.03
184.808	183.88
185.027	193.46
185.246	399.24
185.465	-4384.62
185.684	1539.29
185.903	-331.73
186.122	-412.82
186.341	108.04
186.56	82.56
186.779	115.79
186.998	34.14
187.216	115.91
187.435	146.98
187.654	134.41
187.873	367.74
188.092	8700
188.311	-637.18
188.53	291.87
188.748	420
188.967	319.81
189.186	249.65
189.405	7500
189.623	1039.39
189.842	215.34
190.061	264.66
190.28	-483.72
190.498	-1380
190.717	658.33
190.936	45.39
191.154	111.21
191.373	99.77
191.592	89.98
191.81	118.94
192.029	125.05
192.248	108.89
192.466	86.31
192.685	100.74
192.904	93.88
193.122	115.7
193.341	170.56
193.559	109.29
193.778	77.22
193.996	83.77
194.215	57.05
194.433	45.74
194.652	40.95
194.87	28.57
195.089	26.37
195.307	-205.52
195.526	-174.55
195.744	-172.92
195.963	-608.55
196.181	-490.6
196.399	1373.47
196.618	-596.34
196.836	-1343.9
197.055	2600
197.273	-1045.59
197.491	-543.84
197.71	-188.19
197.928	-481.61
198.146	369.92
198.365	306.54
198.583	343.09
198.801	427.34
199.019	301.62
199.238	267.84
199.456	344.66
199.674	221.78
199.892	-10.14
200.111	36.79
200.329	86.36
200.547	12.73
200.765	-110.31
200.983	-266.67
201.202	230
201.42	26.09
201.638	-300
201.856	-144.78
202.074	-64.53
202.292	-609.52
202.51	-183.06
202.728	-587.04
202.946	-292.97
203.165	-117.06
203.383	-1976.92
203.601	1663.16
203.819	591.18
204.037	120.09
204.255	147.08
204.473	206.08
204.691	687.65
204.909	191.28
205.127	-347.89
205.345	-272.16
205.562	-135.5
205.78	-189.21
205.998	-47.9
206.216	15.75
206.434	55.59
206.652	146
206.87	133.83
207.088	215.24
207.306	115.22
207.523	-311.11
207.741	255
207.959	107.32
208.177	166.27
208.395	226.53
208.612	-86.9
208.83	39.68
209.048	-10.39
209.266	-1.04
209.483	35
209.701	46.11
209.919	58.75
210.136	9.63
210.354	-3.17
210.572	-36.19
210.79	8.03
211.007	-27.95
211.225	-17.11
211.442	-7.01
211.66	42.99
211.878	20.75
212.095	-6.29
212.313	-29.22
212.53	-33.53
212.748	10.24
212.966	5.45
213.183	-43.47
213.401	4.47
213.618	-47.89
213.836	-26.01
214.053	-119.15
214.271	-211.76
214.488	-173.84
214.705	-376.77
214.923	-113.13
215.14	-262.3
215.358	-41.47
215.575	-57.84
215.793	-30.9
216.01	20.29
216.227	30.13
216.445	28.72
216.662	49.94
216.879	49.14
217.097	48.17
217.314	43.63
217.531	25.93
217.749	20.1
217.966	26.49
218.183	11.84
218.4	-28.2
218.618	-73.29
218.835	-35.47
219.052	-41.09
219.269	-29.18
219.487	-14
219.704	-14.96
219.921	4.12
220.138	-3.69
220.355	2.46
220.572	7.93
220.79	27.29
221.007	26
221.224	19.56
221.441	26.23
221.658	26.65
221.875	23.72
222.092	25.16
222.309	19.72
222.526	15.01
222.743	17.91
222.96	10.71
223.177	4.23
223.394	4.03
223.611	-1.13
223.828	-5.92
224.045	-8.46
224.262	-1.97
224.479	-9.32
224.696	-7.95
224.913	-2.89
225.13	-5.31
225.347	-1.96
225.564	3.79
225.781	1.08
225.997	6.94
226.214	6.02
226.431	5.98
226.648	4.45
226.865	4.54
227.082	4.36
227.298	5.1
227.515	4.82
227.732	5.07
227.949	4.8
228.165	5.36
228.382	3.13
228.599	3.89
228.816	3.57
229.032	2.93
229.249	2.73
229.466	2.58
229.682	2.58
229.899	3.04
230.116	1.87
230.332	1.87
230.549	1.75
230.765	3
230.982	0.81
231.199	1.07
231.415	0.51
231.632	1
231.848	2.04
232.065	-1.19
232.281	-2.03
232.498	2.4
232.714	0.92
232.931	1.81
233.147	3.68
233.364	6.88
233.58	4.82
233.797	7.28
234.013	9.34
234.23	8.15
234.446	7.92
234.662	6.94
234.879	4.66
235.095	5.05
235.312	4.06
235.528	1.95
235.744	-0.17
235.961	0.86
236.177	0.88
236.393	1.22
236.61	0.98
236.826	3.66
237.042	4.24
237.258	4.4
237.475	2.49
237.691	1.78
237.907	0.47
238.123	1.93
238.339	2.93
238.556	4.18
238.772	3.71
238.988	3
239.204	1.66
239.42	0.59
239.636	-0.88
239.853	-0.39
240.069	0.75
240.285	2.07
240.501	2.61
240.717	2.13
240.933	0.71
241.149	1.12
241.365	1.8
241.581	2.15
241.797	1.85
242.013	2.59
242.229	3.05
242.445	2.87
242.661	2.72
242.877	2.24
243.093	2.94
243.309	2.75
243.525	2.28
243.741	2.02
243.957	1.44
244.173	2.23
244.388	1.57
244.604	1.32
244.82	1.45
245.036	1.74
245.252	1.87
245.468	0.9
245.683	1.57
245.899	1.53
246.115	1.91
246.331	2.33
246.547	2.67
246.762	2.98
246.978	2.87
247.194	3.11
247.409	2.76
247.625	2.37
247.841	2.64
248.057	2.74
248.272	2.72
248.488	2.81
248.703	2.7
248.919	2.35
249.135	2.3
249.35	1.97
249.566	1.39
249.782	1.48
249.997	2.75
250.213	2.82
250.428	2.32
250.644	3.06
250.859	2.48
251.075	3.32
251.29	2.98
251.506	3.17
251.721	3.29
251.937	3.5
252.152	3.35
252.368	3.21
252.583	2.79
252.798	3.49
253.014	2.62
253.229	2.91
253.445	2.73
253.66	2.54
253.875	2.05
254.091	3.04
254.306	2.79
254.521	3.57
254.737	2.96
254.952	3.41
255.167	1.9
255.383	1.86
255.598	0.96
255.813	1.09
256.028	1.25
256.244	0.67
256.459	0.67
256.674	1.31
256.889	1.66
257.104	1.61
257.32	1.94
257.535	2.68
257.75	2.79
257.965	3.45
258.18	2.59
258.395	2.63
258.61	2.74
258.826	2.62
259.041	2.25
259.256	1.74
259.471	1.8
259.686	1.7
259.901	1.52
260.116	1.28
260.331	1.4
260.546	1.62
260.761	1.89
260.976	2.18
261.191	2.04
261.406	2.04
261.621	2.43
261.836	2.55
262.05	2.64
262.265	2.94
262.48	3.4
262.695	3.1
262.91	2.84
263.125	1.98
263.34	1.65
263.555	2.01
263.769	2.42
263.984	1.92
264.199	1.27
264.414	0.74
264.629	0.47
264.843	0.94
265.058	1.3
265.273	1.12
265.488	1.42
265.702	0.54
265.917	0.36
266.132	0.35
266.346	0.36
266.561	0.59
266.776	0.41
266.99	0.59
267.205	0.49
267.42	-0.13
267.634	0.63
267.849	0.85
268.063	1.66
268.278	1.6
268.492	1.09
268.707	1.17
268.922	1.48
269.136	1.97
269.351	2.37
269.565	2.85
269.78	2.74
269.994	1.97
270.209	1.61
270.423	1.21
270.637	0.98
270.852	1.47
271.066	1.81
271.281	1.36
271.495	0.92
271.709	0.3
271.924	-0.13
272.138	-0.11
272.353	0.23
272.567	0.67
272.781	0.97
272.996	1.4
273.21	1.2
273.424	0.85
273.638	0.96
273.853	1.4
274.067	1.23
274.281	1.37
274.495	1.68
274.71	1.09
274.924	0.92
275.138	0.75
275.352	0.59
275.566	0.73
275.781	0.65
275.995	0.42
276.209	0
276.423	0.54
276.637	0.59
276.851	0.42
277.065	0.92
277.279	0.87
277.493	0.7
277.707	0.37
277.921	0.89
278.135	0.66
278.349	1.19
278.563	1.27
278.777	1.02
278.991	0.55
279.205	1.25
279.419	0.8
279.633	0.66
279.847	0.75
280.061	0.25
280.275	-0.67
280.489	0.1
280.703	0.21
280.917	0.78
281.131	0.94
281.344	1.13
281.558	0.7
281.772	0.85
281.986	0.49
282.2	0.83
282.414	1.14
282.627	1.86
282.841	1.59
283.055	0.77
283.269	0.26
283.482	0.09
283.696	0.18
283.91	0.53
284.123	0.61
284.337	1.03
284.551	0.79
284.764	0.76
284.978	0.14
285.192	-0.03
285.405	0.63
285.619	0.94
285.833	1.2
286.046	1.24
286.26	0.75
286.473	0.67
286.687	0.66
286.9	0.78
287.114	1.39
287.327	2.22
287.541	2.61
287.754	2.6
287.968	2.5
288.181	2.32
288.395	2.09
288.608	2.46
288.822	2.84
289.035	2.66
289.248	2.51
289.462	2.1
289.675	1.34
289.889	1.52
290.102	1.73
290.315	1.55
290.529	2.01
290.742	2.24
290.955	1.99
291.169	1.79
291.382	1.55
291.595	1.61
291.808	1.72
292.022	1.97
292.235	1.72
292.448	1.36
292.661	1.48
292.875	1.22
293.088	0.62
293.301	0.71
293.514	0.57
293.727	1.09
293.94	1.35
294.153	1.46
294.367	1.68
294.58	1.73
294.793	1.91
295.006	1.99
295.219	2.02
295.432	2.16
295.645	2.21
295.858	2.22
296.071	1.98
296.284	1.8
296.497	1.88
296.71	1.62
296.923	1.91
297.136	1.69
297.349	1.89
297.562	1.64
297.775	2.05
297.988	2.05
298.201	2.11
298.414	2.48
298.626	2.67
298.839	2.47
299.052	2.78
299.265	2.64
299.478	3.14
299.691	2.91
299.903	3.37
300.116	3.18
300.329	3.06
300.542	3.41
300.755	3.06
300.967	2.65
301.18	2.47
301.393	2.47
301.605	2.28
301.818	1.82
302.031	1.91
302.243	1.67
302.456	1.5
302.669	2.05
302.881	1.71
303.094	1.64
303.307	2.18
303.519	2.59
303.732	2.73
303.944	2.91
304.157	3.13
304.37	3.21
304.582	3
304.795	3.52
305.007	3.46
305.22	3.7
305.432	4.26
305.645	4.17
305.857	3.98
306.069	3.61
306.282	3.62
306.494	3.62
306.707	3.35
306.919	3.93
307.132	3.5
307.344	3.48
307.556	3.62
307.769	3.33
307.981	3.6
308.193	3.71
308.406	3.52
308.618	3.29
308.83	3.06
309.043	3.04
309.255	2.9
309.467	3.12
309.679	3.03
309.892	2.66
310.104	2.57
310.316	2.68
310.528	2.67
310.74	3.12
310.953	2.93
311.165	3.34
311.377	3.39
311.589	3.25
311.801	3.06
312.013	3.16
312.225	3.25
312.437	3.11
312.649	2.5
312.862	2.62
313.074	2.25
313.286	2.53
313.498	2.41
313.71	2.43
313.922	2.29
314.134	2.68
314.346	2.92
314.558	2.79
314.77	3.24
314.982	3.41
315.193	3.52
315.405	3.72
315.617	4.08
315.829	4.24
316.041	4.51
316.253	4.76
316.465	4.69
316.677	4.4
316.888	4.9
317.1	4.59
317.312	4.66
317.524	4.03
317.736	3.9
317.947	3.79
318.159	3.51
318.371	3.74
318.583	3.7
318.794	3.87
319.006	3.73
319.218	3.5
319.43	3.85
319.641	4.06
319.853	4.32
320.064	4.16
320.276	4.13
320.488	4.01
320.699	3.65
320.911	3.73
321.123	3.13
321.334	3.36
321.546	3.48
321.757	3.64
321.969	4.3
322.18	5.04
322.392	5.54
322.603	5.61
322.815	6.14
323.026	6.21
323.238	6.49
323.449	7.09
323.661	7.76
323.872	8.11
324.083	8.22
324.295	8.09
324.506	8.16
324.718	8.24
324.929	8.45
325.14	8.29
325.352	8.76
325.563	8.81
325.774	9.2
325.986	8.98
326.197	9.44
326.408	9.41
326.62	9.75
326.831	9.72
327.042	10.46
327.253	11.03
327.464	11.27
327.676	11.44
327.887	12.02
328.098	12.55
328.309	12.86
328.52	12.85
328.732	13.31
328.943	13.19
329.154	14.18
329.365	14.32
329.576	14.27
329.787	15.09
329.998	15.81
330.209	16.18
330.42	15.99
330.631	16.45
330.842	17.13
331.053	17.79
331.264	18.64
331.475	18.74
331.686	19.06
331.897	19.71
332.108	20.28
332.319	20.15
332.53	20.14
332.741	20.51
332.952	20.87
333.163	21.22
333.374	21.49
333.585	21.53
333.795	21.92
334.006	22.31
334.217	22.74
334.428	22.9
334.639	23.35
334.849	23.49
335.06	24.07
335.271	24.24
335.482	24.08
335.692	24.59
335.903	24.85
336.114	25.08
336.325	25.19
336.535	25.39
336.746	25.28
336.957	25.93
337.167	26.41
337.378	26.37
337.589	26.77
337.799	27
338.01	26.73
338.22	26.68
338.431	26.46
338.642	26.21
338.852	25.95
339.063	26.26
339.273	26.32
339.484	26.25
339.694	26.42
339.905	26.18
340.115	26.72
340.326	26.85
340.536	27.26
340.746	27.31
340.957	28.09
341.167	28.4
341.378	28.29
341.588	27.93
341.799	28.38
342.009	28.56
342.219	28.76
342.43	28.17
342.64	28.22
342.85	28.64
343.061	28.94
343.271	28.5
343.481	28.53
343.691	28.48
343.902	28.58
344.112	28.53
344.322	28.36
344.532	28.31
344.743	28.05
344.953	28.05
345.163	27.59
345.373	27.51
345.583	27.83
345.793	28.02
346.004	27.86
346.214	28.02
346.424	28
346.634	28.25
346.844	28.15
347.054	28.69
347.264	28.76
347.474	28.84
347.684	28.69
347.894	28.68
348.104	28.49
348.314	28.98
348.524	28.78
348.734	28.54
348.944	28.42
349.154	28.59
349.364	28.59
349.574	28.52
349.784	28.15
349.994	28.42
350.204	28.39
350.413	28.26
350.623	28.27
350.833	28.3
351.043	28.4
351.253	28.12
351.463	27.79
351.672	27.71
351.882	27.66
352.092	28
352.302	27.59
352.511	27.17
352.721	27.26
352.931	27.27
353.141	27
353.35	27.09
353.56	27.33
353.77	27.51
353.979	27.49
354.189	27.48
354.399	27.62
354.608	28.02
354.818	28.16
355.027	28.19
355.237	27.95
355.447	28.21
355.656	28.13
355.866	27.95
356.075	27.85
356.285	27.89
356.494	28.26
356.704	28.34
356.913	28.13
357.123	28.16
357.332	28.22
357.542	28.23
357.751	28.11
357.96	28.21
358.17	27.97
358.379	27.96
358.589	27.93
358.798	27.38
359.007	27.13
359.217	27.09
359.426	26.92
359.635	26.62
359.845	26.58
360.054	26.53
360.263	26.38
360.472	26.61
360.682	26.52
360.891	26.49
361.1	26.53
361.309	26.52
361.519	26.49
361.728	26.65
361.937	26.96
362.146	26.91
362.355	27.06
362.564	27.08
362.774	26.82
362.983	26.81
363.192	26.81
363.401	26.91
363.61	26.75
363.819	26.67
364.028	26.42
364.237	25.98
364.446	26.09
364.655	25.83
364.864	25.75
365.073	25.96
365.282	26.07
365.491	25.93
365.7	25.93
365.909	25.92
366.118	26.03
366.327	25.85
366.536	26.05
366.745	26.01
366.954	26.07
367.162	25.92
367.371	25.86
367.58	25.53
367.789	25.69
367.998	25.53
368.207	25.64
368.415	25.46
368.624	25.9
368.833	25.98
369.042	25.96
369.25	25.86
369.459	26.15
369.668	26.32
369.877	26.59
370.085	26.47
370.294	26.5
370.503	26.2
370.711	26.56
370.92	26.41
371.129	25.83
371.337	25.84
371.546	26.04
371.754	25.87
371.963	25.77
372.171	25.77
372.38	25.84
372.589	25.88
372.797	26.16
373.006	25.64
373.214	25.51
373.423	25.83
373.631	25.8
373.84	25.64
374.048	25.74
374.256	25.55
374.465	25.29
374.673	25.17
374.882	25
375.09	24.97
375.298	25.1
375.507	24.96
375.715	25.06
375.923	25.17
376.132	25.17
376.34	24.95
376.548	25.09
376.757	25.08
376.965	25.31
377.173	25.27
377.381	25.37
377.59	25.19
377.798	25.31
378.006	25.4
378.214	25.18
378.423	25.07
378.631	25.1
378.839	25.14
379.047	25.43
379.255	25.11
379.463	25.23
379.671	25.11
379.879	25.59
380.088	25.79
380.296	25.62
380.504	25.41
380.712	25.5
380.92	25.69
381.128	25.51
381.336	25.54
381.544	25.64
381.752	25.8
381.96	25.73
382.168	25.34
382.376	25.22
382.584	25.23
382.791	25.51
382.999	25.63
383.207	25.34
383.415	25.36
383.623	25.33
383.831	25.48
384.039	25.17
384.247	25.16
384.454	25.48
384.662	25.4
384.87	25.24
385.078	25.23
385.285	25.19
385.493	25.42
385.701	25.41
385.909	25.43
386.116	25.26
386.324	25.43
386.532	25.58
386.739	25.32
386.947	25.34
387.155	25.69
387.362	25.74
387.57	25.69
387.778	25.55
387.985	25.57
388.193	25.7
388.4	25.64
388.608	25.37
388.816	25.22
389.023	25.35
389.231	25.39
389.438	25.07
389.646	25.17
389.853	25.24
390.061	25.44
390.268	25.57
390.475	25.41
390.683	25.71
390.89	26.04
391.098	25.97
391.305	25.93
391.512	25.99
391.72	25.97
391.927	25.7
392.135	25.64
392.342	25.57
392.549	25.45
392.756	25.51
392.964	25.08
393.171	25.03
393.378	25.18
393.586	25.14
393.793	25.16
394	25.38
394.207	25.46
394.414	25.43
394.622	25.3
394.829	25.23
395.036	25.22
395.243	25.51
395.45	25.56
395.657	25.39
395.864	25.32
396.072	25.32
396.279	25.13
396.486	25.05
396.693	25.04
396.9	25.18
397.107	25.46
397.314	25.4
397.521	25.58
397.728	25.55
397.935	25.8
398.142	25.99
398.349	26.06
398.556	25.99
398.763	26.09
398.97	26.26
399.177	26.04
399.383	26.03
399.59	25.96
399.797	25.65
400.004	25.9
400.211	25.76
400.418	25.76
400.625	25.51
400.831	25.6
401.038	25.57
401.245	25.35
401.452	25.58
401.658	25.51
401.865	25.83
402.072	25.84
402.279	25.43
402.485	25.5
402.692	25.53
402.899	25.75
403.105	25.75
403.312	25.88
403.519	26.11
403.725	26.14
403.932	26.26
404.138	26.03
404.345	26.08
404.552	26.2
404.758	26.23
404.965	26.19
405.171	26.29
405.378	26.43
405.584	26.29
405.791	26.29
405.997	26.31
406.204	26.28
406.41	26.49
406.617	26.61
406.823	26.61
407.029	26.51
407.236	26.35
407.442	26.21
407.649	26.04
407.855	26.2
408.061	26.11
408.268	26
408.474	26.01
408.68	25.79
408.887	25.75
409.093	25.96
409.299	25.88
409.505	26.25
409.712	26.27
409.918	26.33
410.124	26.51
410.33	26.75
410.537	26.83
410.743	26.75
410.949	26.82
411.155	26.82
411.361	26.76
411.567	26.88
411.773	26.62
411.98	26.63
412.186	26.65
412.392	26.45
412.598	26.4
412.804	26.57
413.01	26.69
413.216	26.77
413.422	26.79
413.628	26.74
413.834	26.74
414.04	26.72
414.246	26.83
414.452	26.81
414.658	26.79
414.864	26.63
415.07	26.57
415.275	26.47
415.481	26.36
415.687	26.42
415.893	26.44
416.099	26.51
416.305	26.69
416.511	26.67
416.716	26.83
416.922	26.81
417.128	26.83
417.334	26.78
417.539	26.82
417.745	26.84
417.951	26.85
418.157	26.89
418.362	26.94
418.568	26.82
418.774	26.87
418.979	26.88
419.185	26.96
419.391	26.95
419.596	26.88
419.802	27.02
420.008	27.09
420.213	27.11
420.419	27.09
420.624	27.02
420.83	27.12
421.035	27.07
421.241	26.99
421.446	26.99
421.652	26.98
421.857	27.11
422.063	27.01
422.268	26.96
422.474	26.88
422.679	26.86
422.885	26.94
423.09	26.93
423.295	26.92
423.501	26.97
423.706	26.93
423.911	26.96
424.117	26.95
424.322	27.01
424.527	27.07
424.733	27.18
424.938	27.17
425.143	27.1
425.349	27.13
425.554	27.13
425.759	27.13
425.964	27.27
426.169	27.4
426.375	27.43
426.58	27.36
426.785	27.48
426.99	27.44
427.195	27.59
427.4	27.68
427.605	27.74
427.811	27.8
428.016	27.84
428.221	27.78
428.426	27.64
428.631	27.56
428.836	27.63
429.041	27.54
429.246	27.48
429.451	27.28
429.656	27.37
429.861	27.3
430.066	27.41
430.271	27.32
430.476	27.4
430.681	27.53
430.886	27.65
431.09	27.5
431.295	27.44
431.5	27.55
431.705	27.74
431.91	27.66
432.115	27.59
432.32	27.52
432.524	27.62
432.729	27.45
432.934	27.33
433.139	27.29
433.343	27.47
433.548	27.58
433.753	27.56
433.958	27.49
434.162	27.47
434.367	27.6
434.572	27.58
434.776	27.56
434.981	27.74
435.186	27.83
435.39	27.93
435.595	27.9
435.799	27.84
436.004	27.8
436.209	27.98
436.413	27.99
436.618	28.03
436.822	28.17
437.027	28.28
437.231	28.2
437.436	28.17
437.64	28.02
437.845	28.05
438.049	27.99
438.253	28.1
438.458	28
438.662	28.16
438.867	28.12
439.071	28.12
439.275	28.1
439.48	28.15
439.684	28.21
439.888	28.27
440.093	28.22
440.297	28.3
440.501	28.32
440.706	28.31
440.91	28.27
441.114	28.32
441.318	28.31
441.523	28.33
441.727	28.3
441.931	28.24
442.135	28.29
442.339	28.4
442.543	28.44
442.748	28.43
442.952	28.46
443.156	28.45
443.36	28.38
443.564	28.38
443.768	28.28
443.972	28.33
444.176	28.39
444.38	28.31
444.584	28.19
444.788	28.25
444.992	28.35
445.196	28.32
445.4	28.34
445.604	28.36
445.808	28.27
446.012	28.31
446.216	28.24
446.42	28.17
446.624	28.23
446.828	28.23
447.032	28.1
447.235	28.02
447.439	28
447.643	28
447.847	27.99
448.051	27.92
448.254	27.95
448.458	27.99
448.662	28.02
448.866	28.03
449.069	28.08
449.273	28.13
449.477	28.14
449.681	28.33
449.884	28.34
450.088	28.36
450.292	28.53
450.495	28.62
450.699	28.53
450.902	28.57
451.106	28.57
451.31	28.59
451.513	28.6
451.717	28.59
451.92	28.49
452.124	28.46
452.327	28.43
452.531	28.31
452.734	28.24
452.938	28.47
453.141	28.46
453.345	28.38
453.548	28.3
453.752	28.32
453.955	28.27
454.158	28.27
454.362	28.25
454.565	28.26
454.769	28.39
454.972	28.41
455.175	28.21
455.379	28.27
455.582	28.27
455.785	28.36
455.988	28.38
456.192	28.5
456.395	28.52
456.598	28.49
456.801	28.55
457.005	28.52
457.208	28.45
457.411	28.46
457.614	28.37
457.817	28.43
458.021	28.47
458.224	28.47
458.427	28.4
458.63	28.52
458.833	28.59
459.036	28.67
459.239	28.76
459.442	28.78
459.645	28.81
459.848	28.85
460.051	28.91
460.254	28.87
460.457	28.97
460.66	28.9
460.863	28.73
461.066	28.69
461.269	28.52
461.472	28.43
461.675	28.4
461.878	28.27
462.081	28.26
462.284	28.23
462.486	28.29
462.689	28.15
462.892	28.18
463.095	28.25
463.298	28.23
463.5	28.39
463.703	28.47
463.906	28.47
464.109	28.45
464.311	28.37
464.514	28.22
464.717	28.18
464.92	28.19
465.122	28.25
465.325	28.27
465.528	28.34
465.73	28.37
465.933	28.35
466.135	28.36
466.338	28.51
466.541	28.54
466.743	28.58
466.946	28.58
467.148	28.63
467.351	28.63
467.553	28.5
467.756	28.52
467.958	28.5
468.161	28.56
468.363	28.58
468.566	28.63
468.768	28.7
468.971	28.77
469.173	28.74
469.375	28.77
469.578	28.79
469.78	28.94
469.983	28.76
470.185	28.77
470.387	28.51
470.59	28.68
470.792	28.56
470.994	28.48
471.196	28.39
471.399	28.56
471.601	28.56
471.803	28.68
472.005	28.7
472.208	28.79
472.41	28.81
472.612	28.92
472.814	28.79
473.016	28.98
473.218	29
473.421	29.06
473.623	28.9
473.825	28.71
474.027	28.66
474.229	28.66
474.431	28.55
474.633	28.5
474.835	28.52
475.037	28.5
475.239	28.33
475.441	28.32
475.643	28.33
475.845	28.37
476.047	28.49
476.249	28.47
476.451	28.42
476.653	28.59
476.855	28.48
477.057	28.38
477.258	28.42
477.46	28.49
477.662	28.45
477.864	28.51
478.066	28.57
478.268	28.65
478.469	28.64
478.671	28.8
478.873	28.78
479.075	28.91
479.276	28.99
479.478	28.98
479.68	29.02
479.882	29.1
480.083	29.09
480.285	29.04
480.487	29.02
480.688	29.05
480.89	28.99
481.091	28.99
481.293	28.96
481.495	29
481.696	28.94
481.898	28.96
482.099	28.93
482.301	28.92
482.502	28.9
482.704	28.84
482.905	28.79
483.107	28.74
483.308	28.76
483.51	28.7
483.711	28.67
483.913	28.72
484.114	28.67
484.315	28.65
484.517	28.59
484.718	28.6
484.92	28.61
485.121	28.66
485.322	28.66
485.524	28.65
485.725	28.69
485.926	28.7
486.127	28.69
486.329	28.74
486.53	28.82
486.731	28.89
486.932	28.88
487.134	28.94
487.335	28.91
487.536	28.92
487.737	28.89
487.938	28.9
488.139	28.92
488.341	28.91
488.542	28.89
488.743	28.88
488.944	28.84
489.145	28.86
489.346	28.79
489.547	28.78
489.748	28.86
489.949	28.86
490.15	28.91
490.351	28.93
490.552	28.89
490.753	28.95
490.954	28.97
491.155	29.02
491.356	29.02
491.557	28.99
491.758	28.95
491.959	28.85
492.159	28.93
492.36	28.96
492.561	28.93
492.762	28.91
492.963	28.83
493.164	28.78
493.364	28.75
493.565	28.77
493.766	28.79
493.967	28.87
494.167	28.93
494.368	28.93
494.569	28.86
494.769	28.89
494.97	28.98
495.171	29.01
495.371	28.98
495.572	28.97
495.773	28.88
495.973	28.96
496.174	28.99
496.375	28.97
496.575	29
496.776	28.97
496.976	29.01
497.177	29.09
497.377	29.06
497.578	29.12
497.778	29.2
497.979	29.31
498.179	29.27
498.38	29.27
498.58	29.31
498.78	29.19
498.981	29.29
499.181	29.25
499.382	29.2
499.582	29.31
499.782	29.28
499.983	29.29
500.183	29.27
500.383	29.32
500.584	29.46
500.784	29.56
500.984	29.66
501.184	29.73
501.385	29.73
501.585	29.84
501.785	29.88
501.985	29.87
502.185	29.77
502.386	29.73
502.586	29.75
502.786	29.67
502.986	29.71
503.186	29.76
503.386	29.62
503.586	29.72
503.786	29.65
503.987	29.7
504.187	29.77
504.387	29.78
504.587	29.74
504.787	29.81
504.987	29.84
505.187	29.68
505.387	29.66
505.587	29.79
505.786	29.76
505.986	29.83
506.186	29.9
506.386	29.83
506.586	29.86
506.786	29.9
506.986	29.85
507.186	29.81
507.386	29.8
507.585	29.78
507.785	29.76
507.985	29.85
508.185	29.85
508.384	29.81
508.584	29.86
508.784	29.95
508.984	30.03
509.183	30.08
509.383	30.07
509.583	30.2
509.782	30.26
509.982	30.23
510.182	30.16
510.381	30.18
510.581	30.2
510.781	30.25
510.98	30.23
511.18	30.19
511.379	30.18
511.579	30.25
511.778	30.21
511.978	30.17
512.177	30.24
512.377	30.19
512.576	30.14
512.776	30.09
512.975	30.09
513.175	30.19
513.374	30.31
513.573	30.32
513.773	30.37
513.972	30.34
514.172	30.4
514.371	30.32
514.57	30.47
514.77	30.53
514.969	30.47
515.168	30.46
515.367	30.39
515.567	30.32
515.766	30.25
515.965	30.2
516.164	30.25
516.364	30.28
516.563	30.37
516.762	30.36
516.961	30.37
517.16	30.48
517.359	30.54
517.559	30.58
517.758	30.58
517.957	30.66
518.156	30.65
518.355	30.68
518.554	30.69
518.753	30.7
518.952	30.64
519.151	30.65
519.35	30.65
519.549	30.65
519.748	30.7
519.947	30.74
520.146	30.72
520.345	30.81
520.544	30.75
520.743	30.77
520.942	30.75
521.141	30.8
521.339	30.86
521.538	30.86
521.737	30.83
521.936	30.76
522.135	30.81
522.333	30.82
522.532	30.8
522.731	30.91
522.93	30.93
523.129	30.97
523.327	30.94
523.526	30.94
523.725	30.97
523.923	31.09
524.122	31.11
524.321	31.1
524.519	31.16
524.718	31.17
524.917	31.07
525.115	31.06
525.314	31.1
525.512	31.13
525.711	31.13
525.909	31.21
526.108	31.13
526.306	31.17
526.505	31.18
526.703	31.21
526.902	31.21
527.1	31.29
527.299	31.29
527.497	31.3
527.696	31.3
527.894	31.37
528.092	31.35
528.291	31.36
528.489	31.37
528.688	31.38
528.886	31.37
529.084	31.35
529.283	31.33
529.481	31.32
529.679	31.28
529.877	31.32
530.076	31.28
530.274	31.24
530.472	31.22
530.67	31.17
530.869	31.08
531.067	31.06
531.265	31.07
531.463	31.1
531.661	31.09
531.859	31.14
532.057	31.12
532.255	31.11
532.454	31.15
532.652	31.22
532.85	31.3
533.048	31.36
533.246	31.38
533.444	31.43
533.642	31.43
533.84	31.48
534.038	31.48
534.236	31.5
534.434	31.48
534.632	31.47
534.83	31.48
535.027	31.43
535.225	31.46
535.423	31.46
535.621	31.54
535.819	31.56
536.017	31.61
536.215	31.57
536.412	31.63
536.61	31.67
536.808	31.7
537.006	31.72
537.203	31.77
537.401	31.77
537.599	31.82
537.797	31.84
537.994	31.84
538.192	31.82
538.39	31.88
538.587	31.95
538.785	31.97
538.983	32.08
539.18	32.15
539.378	32.25
539.575	32.41
539.773	32.49
539.97	32.41
540.168	32.48
540.366	32.52
540.563	32.55
540.761	32.55
540.958	32.6
541.155	32.58
541.353	32.54
541.55	32.48
541.748	32.4
541.945	32.38
542.143	32.45
542.34	32.46
542.537	32.54
542.735	32.6
542.932	32.6
543.129	32.61
543.327	32.64
543.524	32.73
543.721	32.83
543.919	32.92
544.116	33.08
544.313	33.19
544.51	33.32
544.708	33.4
544.905	33.46
545.102	33.57
545.299	33.69
545.496	33.86
545.693	33.89
545.891	33.94
546.088	34.01
546.285	33.92
546.482	33.84
546.679	33.75
546.876	33.58
547.073	33.49
547.27	33.47
547.467	33.39
547.664	33.33
547.861	33.32
548.058	33.25
548.255	33.21
548.452	33.09
548.649	33.11
548.846	33.18
549.043	33.15
549.24	33.15
549.437	33.09
549.633	33.05
549.83	33.01
550.027	32.97
550.224	32.9
550.421	32.79
550.618	32.91
550.814	32.91
551.011	32.85
551.208	33
551.405	33.05
551.601	32.87
551.798	32.87
551.995	32.76
552.191	32.73
552.388	32.82
552.585	32.79
552.781	32.68
552.978	32.58
553.175	32.46
553.371	32.28
553.568	32.33
553.764	32.47
553.961	32.55
554.157	32.5
554.354	32.33
554.55	32.13
554.747	32.09
554.943	32.11
555.14	32.21
555.336	32.3
555.533	32.38
555.729	32.33
555.926	32.33
556.122	32.42
556.318	32.33
556.515	32.44
556.711	32.68
556.907	32.73
557.104	32.67
557.3	32.57
557.496	32.56
557.693	32.59
557.889	32.43
558.085	32.46
558.281	32.2
558.478	32.4
558.674	32.49
558.87	32.4
559.066	32.46
559.262	32.58
559.459	32.59
559.655	32.68
559.851	32.66
560.047	32.77
560.243	32.69
560.439	32.79
560.635	32.7
560.831	32.66
561.027	32.63
561.223	32.68
561.419	32.69
561.615	32.69
561.811	32.64
562.007	32.58
562.203	32.52
562.399	32.62
562.595	32.58
562.791	32.56
562.987	32.66
563.183	32.61
563.379	32.58
563.575	32.47
563.771	32.51
563.966	32.49
564.162	32.56
564.358	32.73
564.554	32.79
564.75	32.76
564.945	32.86
565.141	32.74
565.337	32.93
565.533	32.91
565.728	33
565.924	33.03
566.12	33
566.315	32.98
566.511	32.98
566.707	33.05
566.902	33.19
567.098	33.12
567.293	33.11
567.489	32.93
567.684	32.96
567.88	32.92
568.076	32.99
568.271	33.01
568.467	32.98
568.662	33.03
568.858	32.79
569.053	32.73
569.248	32.84
569.444	32.86
569.639	33.03
569.835	32.99
570.03	33.07
570.225	33.02
570.421	33.08
570.616	33.09
570.812	32.95
571.007	33.05
571.202	33.12
571.397	33.04
571.593	33.07
571.788	33.03
571.983	33.07
572.178	33.05
572.374	33.05
572.569	33.09
572.764	33.17
572.959	33.22
573.154	33.15
573.35	33.21
573.545	33.3
573.74	33.25
573.935	33.38
574.13	33.37
574.325	33.45
574.52	33.41
574.715	33.47
574.91	33.44
575.105	33.47
575.3	33.7
575.495	33.61
575.69	33.62
575.885	33.72
576.08	33.62
576.275	33.62
576.47	33.69
576.665	33.7
576.86	33.56
577.055	33.7
577.25	33.71
577.444	33.58
577.639	33.58
577.834	33.68
578.029	33.79
578.224	33.76
578.418	33.91
578.613	33.81
578.808	33.74
579.003	33.8
579.197	33.69
579.392	33.69
579.587	33.8
579.781	33.81
579.976	33.81
580.171	33.73
580.365	33.79
580.56	33.74
580.755	33.7
580.949	33.92
581.144	34.02
581.338	34.05
581.533	34.24
581.727	34.33
581.922	34.39
582.116	34.39
582.311	34.5
582.505	34.63
582.7	34.75
582.894	34.73
583.089	34.71
583.283	34.65
583.478	34.62
583.672	34.47
583.866	34.35
584.061	34.4
584.255	34.35
584.449	34.24
584.644	33.94
584.838	33.99
585.032	34.23
585.226	34.23
585.421	34.27
585.615	34.5
585.809	34.49
586.003	34.51
586.198	34.62
586.392	34.73
586.586	34.76
586.78	34.91
586.974	34.76
587.168	34.77
587.363	34.92
587.557	34.89
587.751	34.83
587.945	34.77
588.139	34.65
588.333	34.42
588.527	34.43
588.721	34.38
588.915	34.43
589.109	34.41
589.303	34.31
589.497	34.16
589.691	34.37
589.885	34.38
590.079	34.38
590.273	34.48
590.466	34.45
590.66	34.42
590.854	34.51
591.048	34.72
591.242	34.84
591.436	34.95
591.629	35.05
591.823	34.86
592.017	34.8
592.211	34.84
592.404	34.88
592.598	35.04
592.792	35.1
592.986	35.12
593.179	34.84
593.373	34.68
593.567	34.53
593.76	34.66
593.954	34.61
594.147	34.48
594.341	34.54
594.535	34.57
594.728	34.53
594.922	34.54
595.115	34.53
595.309	34.7
595.502	34.9
595.696	35.03
595.889	34.97
596.083	35.14
596.276	35.25
596.47	35.31
596.663	35.3
596.856	35.38
597.05	35.3
597.243	35.37
597.437	35.29
597.63	35.17
597.823	35.18
598.017	35.15
598.21	35.13
598.403	35.14
598.596	35.07
598.79	35.24
598.983	35.22
599.176	35.35
599.369	35.32
599.563	35.45
599.756	35.52
599.949	35.48
600.142	35.48
600.335	35.4
600.528	35.47
600.722	35.46
600.915	35.27
601.108	35.27
601.301	35.43
601.494	35.45
601.687	35.46
601.88	35.55
602.073	35.46
602.266	35.49
602.459	35.51
602.652	35.53
602.845	35.6
603.038	35.69
603.231	35.74
603.424	35.49
603.617	35.44
603.809	35.31
604.002	35.19
604.195	35.3
604.388	35.31
604.581	35.27
604.774	35.27
604.966	35.21
605.159	35.26
605.352	35.33
605.545	35.39
605.737	35.41
605.93	35.63
606.123	35.83
606.316	35.86
606.508	35.8
606.701	35.95
606.894	36.03
607.086	36.17
607.279	36.2
607.471	36.16
607.664	36.4
607.857	36.6
608.049	36.76
608.242	37
608.434	37.28
608.627	37.8
608.819	38.35
609.012	38.85
609.204	39.44
609.397	40.04
609.589	40.71
609.782	41.37
609.974	42.15
610.166	42.86
610.359	43.57
610.551	44.31
610.743	44.87
610.936	45.29
611.128	45.74
611.32	46.1
611.513	46.12
611.705	46.14
611.897	46.11
612.09	45.87
612.282	45.59
612.474	45.2
612.666	44.69
612.858	44.25
613.051	43.85
613.243	43.4
613.435	42.88
613.627	42.8
613.819	42.46
614.011	41.86
614.203	41.44
614.395	41
614.588	40.65
614.78	40.5
614.972	40.28
615.164	40.02
615.356	39.52
615.548	39.05
615.74	38.76
615.932	38.6
616.124	38.5
616.315	38.31
616.507	38.06
616.699	37.81
616.891	37.55
617.083	37.15
617.275	37.01
617.467	37.21
617.659	37.35
617.85	36.99
618.042	36.73
618.234	36.55
618.426	36.58
618.618	36.63
618.809	36.67
619.001	36.62
619.193	36.72
619.384	36.47
619.576	36.22
619.768	36.13
619.959	36.46
620.151	36.42
620.343	36.58
620.534	36.49
620.726	36.67
620.917	36.79
621.109	36.72
621.301	36.5
621.492	36.71
621.684	36.98
621.875	37.17
622.067	36.88
622.258	37.07
622.45	37.26
622.641	37.25
622.832	37.27
623.024	37.09
623.215	37.05
623.407	37.32
623.598	37.29
623.789	37.23
623.981	37.08
624.172	37.29
624.363	37.28
624.555	37.23
624.746	37.35
624.937	37.2
625.129	37.24
625.32	37.34
625.511	37.25
625.702	37.31
625.893	37.2
626.085	37.24
626.276	37.21
626.467	37.19
626.658	37.07
626.849	37.18
627.04	37.43
627.231	37.36
627.422	37.47
627.614	37.59
627.805	37.66
627.996	37.77
628.187	37.73
628.378	38.01
628.569	38.24
628.76	38.41
628.951	38.44
629.142	38.35
629.332	38.68
629.523	38.69
629.714	38.84
629.905	39.07
630.096	39.21
630.287	39.42
630.478	39.36
630.669	38.99
630.859	38.81
631.05	38.66
631.241	38.61
631.432	38.52
631.623	38.4
631.813	38.25
632.004	37.72
632.195	37.4
632.385	37.25
632.576	36.97
632.767	37.16
632.957	37.19
633.148	37.07
633.339	36.95
633.529	36.8
633.72	36.81
633.91	36.73
634.101	37
634.292	37.04
634.482	36.9
634.673	37
634.863	36.87
635.054	37.08
635.244	37.25
635.435	37.3
635.625	37.4
635.815	37.39
636.006	37.46
636.196	37.16
636.387	37.32
636.577	37.42
636.767	37.24
636.958	37.36
637.148	37.25
637.338	37.04
637.529	36.96
637.719	36.9
637.909	37.01
638.099	36.87
638.29	36.96
638.48	36.86
638.67	36.92
638.86	36.87
639.05	36.84
639.241	36.72
639.431	36.7
639.621	36.72
639.811	36.73
640.001	36.77
640.191	36.82
640.381	36.8
640.571	36.88
640.761	36.76
640.951	36.79
641.141	36.68
641.331	36.84
641.521	36.95
641.711	37.17
641.901	37.25
642.091	37.15
642.281	37.38
642.471	37.63
642.661	37.63
642.851	37.71
643.041	37.93
643.231	37.96
643.42	37.85
643.61	37.81
643.8	37.76
643.99	37.55
644.18	37.56
644.369	37.68
644.559	37.64
644.749	37.78
644.939	37.74
645.128	37.59
645.318	37.79
645.508	37.94
645.697	37.98
645.887	37.79
646.076	37.64
646.266	37.74
646.456	37.47
646.645	37.33
646.835	36.96
647.024	37
647.214	37.2
647.403	37.17
647.593	37.25
647.782	37.51
647.972	37.6
648.161	37.86
648.351	37.64
648.54	37.76
648.73	38.03
648.919	38.17
649.108	38.4
649.298	38.18
649.487	38.39
649.677	38.46
649.866	38.29
650.055	38.48
650.244	38.65
650.434	39
650.623	39.05
650.812	38.86
651.002	38.91
651.191	38.61
651.38	38.91
651.569	38.57
651.758	38.42
651.947	38.56
652.137	38.47
652.326	38.39
652.515	38.04
652.704	38.07
652.893	38.11
653.082	38.34
653.271	38.58
653.46	38.37
653.649	38.41
653.838	38.44
654.027	38.59
654.216	38.51
654.405	38.42
654.594	38.66
654.783	38.52
654.972	38.42
655.161	38.17
655.35	37.9
655.539	37.93
655.728	38.05
655.916	38.09
656.105	37.91
656.294	37.97
656.483	38.18
656.672	38.2
656.86	38.37
657.049	38.48
657.238	38.51
657.427	38.56
657.615	38.72
657.804	38.66
657.993	38.61
658.181	38.41
658.37	38.43
658.559	38.44
658.747	38.37
658.936	38.18
659.125	38.25
659.313	38.15
659.502	38.23
659.69	38.23
659.879	38.36
660.067	38.4
660.256	38.5
660.444	38.5
660.633	38.46
660.821	38.47
661.01	38.6
661.198	38.59
661.387	38.58
661.575	38.78
661.763	38.89
661.952	38.81
662.14	38.65
662.328	38.8
662.517	38.68
662.705	38.51
662.893	38.6
663.082	38.62
663.27	38.43
663.458	38.85
663.646	38.61
663.834	38.15
664.023	38.18
664.211	38.04
664.399	37.8
664.587	38.23
664.775	38.37
664.963	38.38
665.152	38.32
665.34	38.86
665.528	38.72
665.716	38.71
665.904	39.11
666.092	39.19
666.28	39.45
666.468	39.42
666.656	39.08
666.844	39.04
667.032	38.94
667.22	38.88
667.408	38.51
667.596	38.48
667.784	38.56
667.971	38.2
668.159	38.17
668.347	38.12
668.535	38.32
668.723	38.37
668.911	38.55
669.098	38.39
669.286	38.55
669.474	38.71
669.662	38.69
669.849	38.78
670.037	38.96
670.225	38.57
670.413	38.65
670.6	38.46
670.788	38.39
670.976	37.93
671.163	38.21
671.351	37.9
671.538	37.89
671.726	37.89
671.913	37.71
672.101	37.59
672.289	37.83
672.476	37.43
672.664	37.53
672.851	37.54
673.039	37.78
673.226	37.55
673.413	37.8
673.601	37.38
673.788	37.56
673.976	37.6
674.163	37.92
674.35	38.12
674.538	38.47
674.725	38.51
674.912	38.43
675.1	38.38
675.287	38.25
675.474	38.19
675.662	38.15
675.849	37.64
676.036	37.78
676.223	37.79
676.411	37.63
676.598	37.56
676.785	37.49
676.972	37.78
677.159	37.74
677.346	38.2
677.533	38.15
677.721	38.27
677.908	38.73
678.095	38.61
678.282	38.52
678.469	38.51
678.656	38.71
678.843	38.88
679.03	38.92
679.217	39
679.404	38.68
679.591	38.66
679.778	38.83
679.964	38.62
680.151	38.65
680.338	38.57
680.525	38.71
680.712	38.66
680.899	38.66
681.086	38.56
681.272	38.39
681.459	38.76
681.646	38.78
681.833	38.79
682.02	38.99
682.206	39.17
682.393	39.28
682.58	39.09
682.766	39.09
682.953	39.13
683.14	39.04
683.326	39.06
683.513	39.07
683.7	38.9
683.886	38.86
684.073	38.87
684.259	38.73
684.446	38.71
684.632	39.04
684.819	38.83
685.005	38.96
685.192	39.32
685.378	39.79
685.565	39.69
685.751	40.25
685.938	40.08
686.124	40.23
686.31	40.19
686.497	40.35
686.683	40.19
686.87	40.22
687.056	40.2
687.242	39.48
687.429	39.58
687.615	39.62
687.801	39.11
687.987	39.3
688.174	38.86
688.36	38.94
688.546	38.85
688.732	38.91
688.918	38.93
689.105	38.66
689.291	39.42
689.477	39.08
689.663	38.91
689.849	39.24
690.035	39.49
690.221	39.75
690.407	39.86
690.593	40
690.779	39.81
690.965	40.13
691.151	40.36
691.337	39.88
691.523	39.95
691.709	40.29
691.895	40.1
692.081	39.95
692.267	39.86
692.453	39.82
692.639	39.71
692.825	39.75
693.011	39.54
693.196	38.88
693.382	38.91
693.568	38.77
693.754	38.74
693.94	38.94
694.125	38.68
694.311	38.72
694.497	38.65
694.682	38.67
694.868	38.82
695.054	38.96
695.239	39.5
695.425	39.55
695.611	39.83
695.796	39.4
695.982	39.48
696.168	39.99
696.353	40.22
696.539	40.14
696.724	39.81
696.91	39.78
697.095	39.61
697.281	39.7
697.466	39.84
697.652	39.8
697.837	39.86
698.023	39.73
698.208	39.47
698.393	39.31
698.579	39.44
698.764	39.72
698.949	39.81
699.135	39.95
699.32	39.76
699.505	39.97
699.691	40.05
699.876	39.98
700.061	40.05
700.246	39.99
700.432	39.98
700.617	40
700.802	39.93
700.987	39.65
701.172	39.42
701.358	39.49
701.543	39.3
701.728	39.12
701.913	38.8
702.098	38.76
702.283	39.02
702.468	39.05
702.653	38.97
702.838	38.93
703.023	39.13
703.208	39.2
703.393	39.09
703.578	38.64
703.763	38.65
703.948	39.32
704.133	39.47
704.318	39.49
704.503	39.51
704.688	39.73
704.873	39.66
705.057	40
705.242	40.37
705.427	40.85
705.612	41.59
705.797	42.03
705.981	42.38
706.166	42.55
706.351	42.52
706.536	42.52
706.72	42.17
706.905	42.4
707.09	42.36
707.274	42.69
707.459	42.77
707.644	42.37
707.828	42.85
708.013	42.49
708.197	42.34
708.382	42.2
708.567	42.55
708.751	42.98
708.936	43.16
709.12	42.99
709.305	42.28
709.489	41.59
709.673	41.65
709.858	40.88
710.042	40.88
710.227	40.8
710.411	41.2
710.596	41.03
710.78	40.85
710.964	40.84
711.149	41.42
711.333	41.69
711.517	42.37
711.702	42.23
711.886	42.16
712.07	42.18
712.254	42.55
712.438	42.01
712.623	41.88
712.807	41.46
712.991	41.42
713.175	40.77
713.359	40.59
713.544	40.22
713.728	40.3
713.912	40.15
714.096	40.49
714.28	39.78
714.464	40.1
714.648	39.84
714.832	40.01
715.016	39.94
715.2	40.14
715.384	40.38
715.568	40.49
715.752	40.57
715.936	40.44
716.12	40.03
716.304	40.41
716.488	40.37
716.671	40.36
716.855	40.39
717.039	39.56
717.223	39.21
717.407	39.07
717.59	39
717.774	38.74
717.958	38.96
718.142	38.33
718.325	38.21
718.509	38.11
718.693	38.63
718.877	38.07
719.06	38.46
719.244	39.04
719.428	39.45
719.611	39.26
719.795	39.84
719.978	40.14
720.162	40.52
720.345	40.52
720.529	40.36
720.713	39.86
720.896	40.79
721.08	40.55
721.263	39.92
721.446	39.17
721.63	39.27
721.813	38.58
721.997	38.17
722.18	38.62
722.364	38.41
722.547	38.16
722.73	38.76
722.914	38.2
723.097	38.56
723.28	38.47
723.464	38.96
723.647	39.38
723.83	39.41
724.013	39.7
724.197	39.77
724.38	39.59
724.563	39.4
724.746	38.98
724.929	39.17
725.112	40.02
725.296	40.43
725.479	40.25
725.662	39.99
725.845	39.89
726.028	39.82
726.211	39.45
726.394	40.14
726.577	40.48
726.76	40.66
726.943	40.72
727.126	39.92
727.309	39.61
727.492	39.33
727.675	39.09
727.858	39.46
728.041	39.53
728.224	39.7
728.407	39.18
728.589	39
728.772	38.43
728.955	38.48
729.138	38.65
729.321	39.23
729.503	39.38
729.686	39.85
729.869	39.91
730.052	40.06
730.234	40
730.417	40.6
730.6	40.51
730.782	40.75
730.965	40.62
731.148	40.44
731.33	40.05
731.513	40.06
731.695	39.33
731.878	38.76
732.061	38.27
732.243	38.11
732.426	37.5
732.608	38.1
732.791	38.35
732.973	38.59
733.156	38.38
733.338	38.38
733.52	38.55
733.703	39.08
733.885	39.29
734.068	39.42
734.25	39.55
734.432	39.81
734.615	39.73
734.797	39.47
734.979	39.15
735.162	39.34
735.344	38.94
735.526	39.06
735.708	39.05
735.891	39.32
736.073	39.88
736.255	40.26
736.437	39.52
736.619	39.22
736.802	39.82
736.984	39.9
737.166	39.7
737.348	40.09
737.53	39.6
737.712	39.11
737.894	38.91
738.076	38.42
738.258	37.92
738.44	38.85
738.622	38.99
738.804	38.58
738.986	38.32
739.168	38.79
739.35	38.82
739.532	38.73
739.714	39.03
739.896	38.73
740.078	38.78
740.259	38.88
740.441	38.02
740.623	37.68
740.805	37.78
740.987	38.15
741.168	37.91
741.35	37.89
741.532	38.41
741.714	38.27
741.895	37.63
742.077	36.93
742.259	36.75
742.44	37.81
742.622	38.11
742.804	37.94
742.985	37.77
743.167	37.86
743.348	37.78
743.53	37.42
743.711	37.51
743.893	38.79
744.075	39.62
744.256	39.44
744.438	38.97
744.619	38.31
744.8	38.55
744.982	38.42
745.163	37.7
745.345	37.61
745.526	37.26
745.707	37.49
745.889	36.62
746.07	36.58
746.252	37.41
746.433	36.99
746.614	37.27
746.795	37.98
746.977	38.39
747.158	39.81
747.339	39.9
747.52	40.31
747.702	40.21
747.883	41.46
748.064	41.3
748.245	41.25
748.426	41.01
748.607	41.23
748.788	40.27
748.97	40.1
749.151	39.26
749.332	38.86
749.513	38.62
749.694	38.28
749.875	38.15
750.056	37.91
750.237	37.52
750.418	38.33
750.599	38.75
750.78	38.68
750.96	38.9
751.141	39.85
751.322	40.35
751.503	40.68
751.684	41.57
751.865	40.53
752.046	40.73
752.226	40.16
752.407	39.47
752.588	39.66
752.769	40.2
752.949	39.88
753.13	38.62
753.311	39.23
753.492	38.66
753.672	38.31
753.853	38.5
754.034	37.62
754.214	38.67
754.395	38.24
754.575	37.49
754.756	36.98
754.937	37.76
755.117	38.88
755.298	37.97
755.478	39.25
755.659	38.66
755.839	39.5
756.02	41.14
756.2	40.63
756.381	41.38
756.561	41.66
756.741	42.02
756.922	41.23
757.102	40.51
757.283	40.63
757.463	40.14
757.643	40.38
757.823	39.97
758.004	39.5
758.184	39.33
758.364	39.49
758.545	39.98
758.725	39.67
758.905	39.49
759.085	39.59
759.265	39.77
759.446	39.39
759.626	39.4
759.806	39.52
759.986	39.24
760.166	39.57
760.346	39.79
760.526	39.49
760.706	39.47
760.886	39.82
761.066	39.4
761.246	39.7
761.426	40.01
761.606	40.1
761.786	39.8
761.966	40.58
762.146	40.52
762.326	40.48
762.506	40.25
762.686	40.25
762.866	40.34
763.046	40.53
763.225	40.19
763.405	40.12
763.585	40.3
763.765	40.38
763.945	39.75
764.124	39.31
764.304	39.28
764.484	38.93
764.664	38.76
764.843	38.8
765.023	39.07
765.203	38.53
765.382	38.04
765.562	37.81
765.741	37.73
765.921	37.93
766.101	37.82
766.28	37.69
766.46	37.82
766.639	38.76
766.819	38.31
766.998	37.66
767.178	38.2
767.357	39.39
767.537	39.62
767.716	39.76
767.896	39.21
768.075	39.63
768.254	39.59
768.434	40
768.613	39.01
768.792	38.52
768.972	38.83
769.151	38.84
769.33	37.89
769.51	37.7
769.689	37.71
769.868	38.37
770.047	39.42
770.226	39.19
770.406	39.59
770.585	39.09
770.764	39.57
770.943	39.86
771.122	40.56
771.301	40.51
771.48	40.63
771.66	41.26
771.839	40.59
772.018	39.88
772.197	39.87
772.376	38.91
772.555	39.37
772.734	39.48
772.913	39.15
773.092	38.76
773.271	39.54
773.449	38.71
773.628	38
773.807	38.47
773.986	38.56
774.165	38.29
774.344	39.09
774.523	39.3
774.701	39.06
774.88	39.16
775.059	39.27
775.238	38.65
775.417	39.33
775.595	39.64
775.774	40.91
775.953	41.09
776.131	42.38
776.31	41.48
776.489	41.41
776.667	41.96
776.846	41.36
777.025	40.8
777.203	41.14
777.382	41.78
777.56	41.6
777.739	41.25
777.917	39.61
778.096	38.81
778.274	39.35
778.453	39.39
778.631	38.48
778.81	39.71
778.988	40.2
779.166	40.41
779.345	39.75
779.523	39.23
779.702	38.09
779.88	39.66
780.058	40.33
780.237	40.56
780.415	41.49
780.593	42.24
780.771	41.49
780.95	41
781.128	39.54
781.306	39.3
781.484	39.21
781.662	39.43
781.841	38.55
782.019	37.99
782.197	36.85
782.375	35.26
782.553	35.45
782.731	35.38
782.909	36.49
783.087	37.43
783.265	37.82
783.443	38.43
783.621	38.25
783.799	38.89
783.977	38.91
784.155	39.8
784.333	40.3
784.511	40.04
784.689	40.21
784.867	38.78
785.045	39.04
785.223	38.29
785.4	37.47
785.578	38.69
785.756	39.54
785.934	39.36
786.112	39.68
786.289	40.03
786.467	40.67
786.645	40.63
786.823	40.72
787	40.77
787.178	41.99
787.356	42.63
787.533	41.27
787.711	40.4
787.889	40.8
788.066	40.03
788.244	39.21
788.421	38.07
788.599	38.88
788.776	38.94
788.954	37.8
789.131	36.33
789.309	36.15
789.486	37.35
789.664	37.61
789.841	37.12
790.019	38.1
790.196	38.14
790.373	38.94
790.551	38.47
790.728	38.73
790.906	39.41
791.083	41.6
791.26	42.21
791.437	41.93
791.615	42.68
791.792	42.32
791.969	41.82
792.146	42.18
792.324	41.03
792.501	40.98
792.678	40.64
792.855	42.04
793.032	40.52
793.209	39.25
793.387	39.87
793.564	39.49
793.741	39.48
793.918	38.52
794.095	39.44
794.272	39.71
794.449	40.39
794.626	41.16
794.803	40.32
794.98	40.97
795.157	41.11
795.334	39.88
795.511	39.62
795.688	39.76
795.864	40.31
796.041	38.66
796.218	39.07
796.395	37.45
796.572	37.58
796.749	37.18
796.925	36.34
797.102	36.9
797.279	36.76
797.456	36.5
797.632	35.36
797.809	36.42
797.986	36.29
798.162	36.86
798.339	37.73
798.516	36.6
798.692	35.47
798.869	35.76
799.046	35.54
799.222	34.97
799.399	36.15
799.575	36.98
799.752	36.01
799.928	37
800.105	36.14
800.281	36.33
800.458	36.65
800.634	38.18
800.811	37.16
800.987	37.49
801.163	37.27
801.34	34.71
801.516	35.82
801.692	36.26
801.869	36.48
802.045	37.03
802.221	36.66
802.398	36.25
802.574	35.08
802.75	36.24
802.926	35.39
803.103	36.66
803.279	38.01
803.455	36.91
803.631	36.01
803.807	36.95
803.983	36.92
804.16	37.65
804.336	38.44
804.512	39.59
804.688	39.44
804.864	38.95
805.04	39.18
805.216	38.45
805.392	39.2
805.568	39.86
805.744	38.39
805.92	36.73
806.096	35.3
806.272	35.99
806.448	34.28
806.623	33.32
806.799	34.18
806.975	33.49
807.151	33.96
807.327	34.67
807.503	34.22
807.678	34.29
807.854	34.87
808.03	35.55
808.206	35.34
808.381	36.18
808.557	34.97
808.733	34.84
808.908	34.8
809.084	35.18
809.26	32.86
809.435	33.79
809.611	34.38
809.787	35.4
809.962	35.23
810.138	35.12
810.313	35.1
810.489	36.15
810.664	35.6
810.84	36.03
811.015	36.59
811.191	38
811.366	36.98
811.542	35.71
811.717	34.85
811.892	34.87
812.068	33.42
812.243	33.23
812.419	34.78
812.594	34.95
812.769	35.61
812.944	35.25
813.12	35.05
813.295	35.77
813.47	36.03
813.645	37.66
813.821	37.83
813.996	39.98
814.171	41.59
814.346	41.61
814.521	42.51
814.697	42.87
814.872	42.49
815.047	43.37
815.222	44.07
815.397	44.72
815.572	45
815.747	44.58
815.922	43.71
816.097	42.68
816.272	42.16
816.447	41.7
816.622	39.97
816.797	40.31
816.972	39.97
817.147	39.1
817.322	39.38
817.496	37.35
817.671	39.05
817.846	37.65
818.021	38.69
818.196	38.17
818.371	38.28
818.545	39.53
818.72	38.89
818.895	38.02
819.069	37.53
819.244	37.41
819.419	37.59
819.594	36.34
819.768	37.6
819.943	38.11
820.117	38.13
820.292	38.02
820.467	37.99
820.641	37.99
820.816	38
820.99	37.53
821.165	37.17
821.339	37.33
821.514	37.56
821.688	37.24
821.863	36.9
822.037	37
822.212	37.06
822.386	36.7
822.56	36.78
822.735	36.95
822.909	37.18
823.084	37.2
823.258	37.11
823.432	36.77
823.606	37
823.781	36.89
823.955	37.15
824.129	37.19
824.303	37.08
824.478	36.9
824.652	36.97
824.826	36.43
825	36.24
825.174	36.14
825.348	36.14
825.523	35.66
825.697	35.23
825.871	34.18
826.045	34.29
826.219	34.81
826.393	35.54
826.567	35.27
826.741	36.02
826.915	36.26
827.089	36.9
827.263	36.83
827.437	37.01
827.611	37.39
827.784	38.09
827.958	37.99
828.132	37.52
828.306	37.01
828.48	36.72
828.654	37.01
828.827	37.1
829.001	36.4
829.175	37.08
829.349	36.95
829.522	37.61
829.696	36.9
829.87	36.03
830.044	36.49
830.217	36.31
830.391	36.81
830.565	36.18
830.738	36.15
830.912	36.34
831.085	35.8
831.259	35.3
831.432	35.22
831.606	36.27
831.779	37.03
831.953	37.16
832.126	35.52
832.3	35.28
832.473	35.58
832.647	35.72
832.82	35.53
832.994	35.22
833.167	35.84
833.34	35.37
833.514	34.2
833.687	34.86
833.86	34.6
834.034	35.99
834.207	35.58
834.38	35.27
834.553	35.27
834.727	35.42
834.9	36.56
835.073	36.6
835.246	35.87
835.419	36.51
835.593	35.26
835.766	35.1
835.939	34.77
836.112	35.6
836.285	35.28
836.458	35.35
836.631	35.87
836.804	33.95
836.977	33.85
837.15	34.89
837.323	34.85
837.496	36.76
837.669	37.55
837.842	39.49
838.015	41.81
838.188	42.2
838.361	43.01
838.533	40.72
838.706	42.65
838.879	42.41
839.052	42.04
839.225	41.95
839.398	41.09
839.57	41.25
839.743	38.57
839.916	37.39
840.088	38.43
840.261	37.31
840.434	38.74
840.607	37.6
840.779	37.15
840.952	36.69
841.124	35.92
841.297	35.86
841.47	36.23
841.642	36.26
841.815	37.36
841.987	37.01
842.16	37.12
842.332	35.61
842.505	36.45
842.677	36.17
842.85	36.68
843.022	40.19
843.194	37.47
843.367	37.81
843.539	36.47
843.712	32.71
843.884	32.59
844.056	33.61
844.229	34.33
844.401	34.66
844.573	37.27
844.745	38.37
844.918	32.54
845.09	37.96
845.262	35.66
845.434	36.69
845.606	37.44
845.779	38.28
845.951	38.47
846.123	39.95
846.295	37.21
846.467	36.14
846.639	39.12
846.811	41.1
846.983	41.15
847.155	43.11
847.327	45.07
847.499	42.99
847.671	43.09
847.843	42.84
848.015	42.11
848.187	41.3
848.359	40.96
848.531	39.38
848.703	41.62
848.875	39.57
849.047	37.41
849.218	41.05
849.39	41.16
849.562	39.69
849.734	40.34
849.905	43.56
850.077	41.66
850.249	44.67
850.421	42.14
850.592	41.54
850.764	41.83
850.936	42.79
851.107	40.13
851.279	42.8
851.451	42.39
851.622	44.65
851.794	44.31
851.965	48.95
852.137	41.82
852.308	40
852.48	38.83
852.651	40.85
852.823	37.1
852.994	33.57
853.166	33.83
853.337	32.7
853.509	32.41
853.68	28.61
853.851	26.97
854.023	33.18
854.194	34.51
854.365	36.62
854.537	33.18
854.708	38.8
854.879	40.12
855.05	38.38
855.222	41.84
855.393	36.79
855.564	37.88
855.735	37.89
855.906	38.42
856.078	40.22
856.249	36.44
856.42	40.23
856.591	39.64
856.762	38.66
856.933	39.37
857.104	39.11
857.275	42.38
857.446	41.25
857.617	45.05
857.788	39.55
857.959	37.52
858.13	38.08
858.301	35.81
858.472	35.03
858.643	37.27
858.814	36.76
858.985	36.38
859.155	35.83
859.326	38.39
859.497	31.98
859.668	33.63
859.839	36.54
860.009	38.93
860.18	38.13
860.351	38.53
860.522	38.62
860.692	38.38
860.863	37.17
861.034	39.3
861.204	35.38
861.375	36.07
861.546	37.05
861.716	32.17
861.887	29.17
862.057	29.43
862.228	24.56
862.398	24.96
862.569	29.41
862.739	27.95
862.91	28.51
863.08	27.55
863.251	30.47
863.421	28.76
863.592	29.21
863.762	34.75
863.932	32.71
864.103	40.55
864.273	37.79
864.443	33.47
864.614	35.83
864.784	34.76
864.954	37.89
865.125	43.24
865.295	39.02
865.465	39.05
865.635	35.6
865.805	40.64
865.976	38.41
866.146	42.53
866.316	41.65
866.486	43.65
866.656	46.54
866.826	50.99
866.996	45.29
867.166	50.13
867.336	53.39
867.506	51.35
867.676	45.42
867.846	42.58
868.016	38.64
868.186	37.08
868.356	39.63
868.526	35.58
868.696	28.79
868.866	30.11
869.036	32.33
869.206	30.15
869.376	31.74
869.545	38.06
869.715	38.08
869.885	40.86
870.055	37.51
870.224	35.2
870.394	37.09
870.564	35.33
870.734	36
870.903	37.57
871.073	38.03
871.243	40.67
871.412	33.94
871.582	36.46
871.751	33.44
871.921	42.4
872.091	44.62
872.26	40.4
872.43	48.67
872.599	45.67
872.769	43.86
872.938	45.54
873.108	45.52
873.277	45.98
873.446	45.59
873.616	45.77
873.785	42.75
873.955	38.48
874.124	37.63
874.293	32.81
874.463	35.42
874.632	34.84
874.801	35.83
874.971	34.96
875.14	31.86
875.309	29.5
875.478	29.87
875.647	31.72
875.817	35.94
875.986	31.86
876.155	32.68
876.324	32.34
876.493	28.73
876.662	23.71
876.831	18.41
877	19.43
877.17	21.98
877.339	23.21
877.508	23.75
877.677	17.4
877.846	21.9
878.015	17.17
878.184	16.69
878.352	21.98
878.521	27.14
878.69	34.41
878.859	36.33
879.028	30.39
879.197	30.28
879.366	28.22
879.534	30.8
879.703	29.44
879.872	33.65
880.041	35
880.21	36.52
880.378	36.12
880.547	35.34
880.716	36.09
880.884	36.21
881.053	35.83
881.222	36.25
881.39	35.77
881.559	36.35
881.727	35.66
881.896	35.11
882.065	34.96
882.233	34.07
882.402	33.78
882.57	33.69
882.739	34.38
882.907	34.16
883.076	34.04
883.244	33.95
883.412	33.5
883.581	33.94
883.749	34.78
883.918	34.37
884.086	34.54
884.254	34.72
884.423	34.4
884.591	33.52
884.759	33.13
884.927	32.6
885.096	33.95
885.264	35.53
885.432	34.11
885.6	32.81
885.769	33.05
885.937	31.7
886.105	30.1
886.273	29.59
886.441	32.58
886.609	32.79
886.777	36.24
886.945	35.39
887.113	31.6
887.281	32.51
887.449	30.83
887.617	30.38
887.785	31.31
887.953	28.61
888.121	31.25
888.289	28.43
888.457	30.1
888.625	29.23
888.793	28.84
888.961	28.5
889.129	29.69
889.296	28.32
889.464	26.21
889.632	28.94
889.8	33.96
889.967	29.82
890.135	31.37
