Data from 2938725__Reflection_03.txt Node
Date: Sun Mar 15 20:14:06 EDT 2015
User: robert
Spectrometer: USB4E03002
Autoset integration time: false
Trigger mode: 4
Integration Time (sec): 1.000000E-1
Scans to average: 10
Electric dark correction enabled: false
Nonlinearity correction enabled: false
Boxcar width: 5
Stray light correction enabled: false
XAxis mode: Wavelengths
Stop averaging: false
Number of Pixels in Spectrum: 3648
>>>>>Begin Spectral Data<<<<<
177.575	274.24
177.794	701.3
178.014	306.14
178.233	253.11
178.452	701.82
178.672	593.75
178.891	274.91
179.11	274.65
179.33	222.16
179.549	444.23
179.768	-1129.03
179.987	-771.19
180.207	-10400
180.426	-103.06
180.645	-100
180.864	2333.33
181.084	-326.74
181.303	21.23
181.522	-14.29
181.741	-51.01
181.96	0.33
182.179	21.05
182.398	70.98
182.618	95.73
182.837	50.12
183.056	64.06
183.275	58.42
183.494	53.85
183.713	46.92
183.932	33.28
184.151	45.2
184.37	16.06
184.589	8.39
184.808	2.38
185.027	-2.39
185.246	20.07
185.465	36.34
185.684	28.14
185.903	40.84
186.122	41.23
186.341	63.41
186.56	63.3
186.779	74.28
186.998	68.7
187.216	54.08
187.435	37.83
187.654	26.81
187.873	-59.56
188.092	-161.81
188.311	-249.03
188.53	-147.54
188.748	-99.72
188.967	-156.22
189.186	-75.23
189.405	5.28
189.623	48.55
189.842	86.88
190.061	87.31
190.28	82.54
190.498	69.41
190.717	80.68
190.936	92.52
191.154	110.55
191.373	111.84
191.592	147.15
191.81	85.06
192.029	77.27
192.248	57.14
192.466	23.04
192.685	-176.47
192.904	0
193.122	-102.56
193.341	-17.74
193.559	18.31
193.778	-305.8
193.996	-107.5
194.215	-45.6
194.433	-127.33
194.652	1517.65
194.87	-391.11
195.089	6.3
195.307	-4.81
195.526	18.39
195.744	12.62
195.963	-11.4
196.181	17.42
196.399	24.47
196.618	3.01
196.836	15.94
197.055	-1.92
197.273	-11.76
197.491	-45.81
197.71	-45.92
197.928	-35.56
198.146	-57.85
198.365	-43.38
198.583	-60.16
198.801	-98.68
199.019	-55.23
199.238	-50.21
199.456	-12.66
199.674	-11.75
199.892	-20.67
200.111	-1.98
200.329	-62.91
200.547	-15.84
200.765	5.79
200.983	2.88
201.202	51.23
201.42	47.28
201.638	22.66
201.856	26.82
202.074	29.12
202.292	30.69
202.51	29.32
202.728	21.63
202.946	4.93
203.165	-2.6
203.383	-8.99
203.601	-16.35
203.819	-22.38
204.037	-28.88
204.255	-33.18
204.473	-42.76
204.691	-68.54
204.909	-74.83
205.127	-17.8
205.345	-24.78
205.562	-18.06
205.78	11.13
205.998	17.78
206.216	7.33
206.434	-9.65
206.652	-12.78
206.87	6.2
207.088	17.49
207.306	8.88
207.523	-18.86
207.741	-34.33
207.959	-26.11
208.177	-120.14
208.395	-147.35
208.612	-104.13
208.83	-95.02
209.048	-114.35
209.266	-124.08
209.483	-206.67
209.701	-168.13
209.919	-86.52
210.136	-39.37
210.354	-72.94
210.572	-8.37
210.79	-6.66
211.007	-5.6
211.225	-1.53
211.442	-7.1
211.66	-29.55
211.878	-20.33
212.095	-105.96
212.313	-112.4
212.53	-101.61
212.748	-89.6
212.966	-110
213.183	-127.32
213.401	-114.1
213.618	-130.59
213.836	-65.83
214.053	-55.18
214.271	-40.8
214.488	21.21
214.705	29.99
214.923	31.54
215.14	32.65
215.358	29.19
215.575	25.64
215.793	23.49
216.01	24.01
216.227	5.19
216.445	1
216.662	-12.72
216.879	-4.34
217.097	-24.26
217.314	-24.33
217.531	-25.35
217.749	-15.43
217.966	-7.83
218.183	-13.75
218.4	-3.23
218.618	-12.94
218.835	-22.61
219.052	-10.42
219.269	-12.37
219.487	-4.71
219.704	8.77
219.921	10.14
220.138	-5.14
220.355	-7.58
220.572	-8.94
220.79	-11.64
221.007	-2
221.224	16.69
221.441	14.76
221.658	14.55
221.875	9.43
222.092	2.09
222.309	-9.08
222.526	-1.07
222.743	-9.92
222.96	-10.81
223.177	-8.79
223.394	-15.5
223.611	-24.94
223.828	-25.37
224.045	-27.2
224.262	-31.99
224.479	-32.25
224.696	-21.59
224.913	-18.44
225.13	-13.79
225.347	-12.2
225.564	-6.95
225.781	-2.96
225.997	-0.05
226.214	0.56
226.431	2.74
226.648	4.87
226.865	4.06
227.082	5.24
227.298	4.33
227.515	4.25
227.732	4.65
227.949	2.96
228.165	2.98
228.382	3.84
228.599	3.26
228.816	3.51
229.032	3.32
229.249	2.92
229.466	1.96
229.682	2.75
229.899	2.79
230.116	2.15
230.332	1.83
230.549	1.63
230.765	1.43
230.982	0.44
231.199	-0.68
231.415	-0.74
231.632	-1.18
231.848	-1
232.065	-1.36
232.281	-2.72
232.498	-1.74
232.714	-2.29
232.931	-1.58
233.147	-2.85
233.364	-1.91
233.58	-0.78
233.797	-1.45
234.013	-0.65
234.23	-0.07
234.446	-0.98
234.662	-1.91
234.879	-2.27
235.095	0.22
235.312	-0.56
235.528	-1.92
235.744	0.73
235.961	-1.05
236.177	-1.1
236.393	-0.08
236.61	0.1
236.826	2.23
237.042	4.6
237.258	4.57
237.475	2.35
237.691	2.72
237.907	4
238.123	2.7
238.339	3.47
238.556	3.1
238.772	2.74
238.988	3.6
239.204	-0.08
239.42	0.38
239.636	1.84
239.853	2.63
240.069	3.76
240.285	4.19
240.501	3.85
240.717	4.29
240.933	4.24
241.149	3.57
241.365	3.07
241.581	3.38
241.797	2.54
242.013	1.49
242.229	0.77
242.445	-0.07
242.661	0.32
242.877	0.11
243.093	-0.19
243.309	0.11
243.525	0.99
243.741	0.71
243.957	0.94
244.173	1.15
244.388	1.2
244.604	2.18
244.82	2.51
245.036	2.02
245.252	1.53
245.468	1.62
245.683	1.67
245.899	1.42
246.115	2.09
246.331	2.16
246.547	2.9
246.762	3.02
246.978	2.78
247.194	2.95
247.409	2.87
247.625	3.44
247.841	3.34
248.057	3.33
248.272	2.99
248.488	2.61
248.703	2.42
248.919	2.36
249.135	2.01
249.35	2.25
249.566	1.97
249.782	1.7
249.997	0.86
250.213	1.12
250.428	1.58
250.644	2.23
250.859	2.24
251.075	2.74
251.29	1.83
251.506	2.22
251.721	2.02
251.937	1.69
252.152	2.14
252.368	2.16
252.583	1.91
252.798	0.97
253.014	0.44
253.229	0.98
253.445	0.62
253.66	-0.08
253.875	-0.19
254.091	-0.15
254.306	0.74
254.521	0.9
254.737	1.48
254.952	1.92
255.167	3.04
255.383	2.78
255.598	0.57
255.813	1.26
256.028	1.78
256.244	2.06
256.459	1.34
256.674	0.66
256.889	0.56
257.104	-0.19
257.32	-0.05
257.535	-0.58
257.75	-0.28
257.965	1.13
258.18	0.96
258.395	0.85
258.61	0.92
258.826	1.15
259.041	1.24
259.256	1.49
259.471	1.59
259.686	1.74
259.901	1.86
260.116	1.99
260.331	1.85
260.546	1.87
260.761	1.93
260.976	1.95
261.191	2.11
261.406	2.08
261.621	1.86
261.836	1.98
262.05	1.31
262.265	1.35
262.48	1.07
262.695	1.27
262.91	1.28
263.125	1.57
263.34	1.97
263.555	1.44
263.769	2.19
263.984	1.8
264.199	1.03
264.414	1.57
264.629	1.21
264.843	1.47
265.058	0.84
265.273	0.9
265.488	1.12
265.702	0.65
265.917	0.98
266.132	0.76
266.346	1.18
266.561	1.79
266.776	2.26
266.99	2.26
267.205	2.15
267.42	2.26
267.634	2.08
267.849	1.37
268.063	1.33
268.278	1.51
268.492	1.41
268.707	1.3
268.922	1.08
269.136	0.7
269.351	1.34
269.565	1.52
269.78	1.31
269.994	1.07
270.209	1.17
270.423	0.88
270.637	0.38
270.852	0.39
271.066	0.23
271.281	0.65
271.495	0.45
271.709	0.12
271.924	0.41
272.138	0.79
272.353	1.07
272.567	1.32
272.781	1.35
272.996	1.48
273.21	1.55
273.424	1.77
273.638	1.61
273.853	1.37
274.067	1.13
274.281	1.21
274.495	1.09
274.71	1.13
274.924	0.81
275.138	1.31
275.352	1.25
275.566	1.48
275.781	1.14
275.995	1.01
276.209	1.03
276.423	0.83
276.637	0.23
276.851	-0.39
277.065	-0.88
277.279	-0.42
277.493	-0.82
277.707	-0.78
277.921	-0.49
278.135	-0.56
278.349	0.05
278.563	0.61
278.777	0.89
278.991	0.66
279.205	1.63
279.419	1.54
279.633	1.47
279.847	1.95
280.061	1.95
280.275	1.27
280.489	1.59
280.703	0.75
280.917	1.04
281.131	1.55
281.344	1.84
281.558	1.68
281.772	2.39
281.986	2.33
282.2	2.04
282.414	1.99
282.627	1.88
282.841	1.61
283.055	1.81
283.269	1.84
283.482	1.49
283.696	1.66
283.91	1.47
284.123	0.88
284.337	0.93
284.551	0.99
284.764	0.98
284.978	1.21
285.192	1.72
285.405	1.66
285.619	1.39
285.833	1.57
286.046	1.43
286.26	1.1
286.473	1.68
286.687	1.77
286.9	1.53
287.114	1.71
287.327	1.62
287.541	1.02
287.754	1.28
287.968	1.45
288.181	1.44
288.395	1.58
288.608	1.81
288.822	1.35
289.035	1.43
289.248	1.27
289.462	1.14
289.675	0.81
289.889	1.09
290.102	0.99
290.315	0.66
290.529	0.63
290.742	0.15
290.955	0.35
291.169	0.09
291.382	-0.22
291.595	-0.34
291.808	-0.39
292.022	-0.89
292.235	-0.48
292.448	-0.29
292.661	0.14
292.875	-0.02
293.088	0.41
293.301	0.83
293.514	1.47
293.727	1.37
293.94	1.81
294.153	1.76
294.367	2.81
294.58	2.18
294.793	1.74
295.006	1.5
295.219	1.43
295.432	1.21
295.645	0.8
295.858	0.58
296.071	0.73
296.284	0.38
296.497	0.6
296.71	0.28
296.923	0.52
297.136	0.57
297.349	0.79
297.562	0.88
297.775	1.18
297.988	0.75
298.201	0.56
298.414	0.63
298.626	1.11
298.839	1.12
299.052	1.28
299.265	1.04
299.478	1.35
299.691	1.1
299.903	0.9
300.116	0.74
300.329	1.84
300.542	1.84
300.755	1.78
300.967	1.8
301.18	1.74
301.393	1.73
301.605	1.94
301.818	1.95
302.031	1.79
302.243	1.72
302.456	1.68
302.669	1.28
302.881	1.69
303.094	1.6
303.307	1.29
303.519	1.4
303.732	1.26
303.944	1.36
304.157	1.05
304.37	1.29
304.582	1.83
304.795	1.94
305.007	2
305.22	1.95
305.432	2.03
305.645	2.33
305.857	2.29
306.069	2.57
306.282	2.86
306.494	3.38
306.707	3
306.919	2.86
307.132	2.7
307.344	2.72
307.556	2.54
307.769	2.83
307.981	2.76
308.193	2.91
308.406	2.71
308.618	2.55
308.83	2.36
309.043	2.75
309.255	2.87
309.467	3.04
309.679	2.97
309.892	3.16
310.104	3.04
310.316	3.06
310.528	2.98
310.74	3.1
310.953	2.98
311.165	2.98
311.377	3
311.589	3.04
311.801	3.05
312.013	3.18
312.225	3.29
312.437	3.16
312.649	3.16
312.862	3.23
313.074	3.1
313.286	3.2
313.498	3.23
313.71	2.75
313.922	2.53
314.134	2.35
314.346	2.2
314.558	2.16
314.77	2.52
314.982	2.35
315.193	2.24
315.405	2.44
315.617	2.69
315.829	2.93
316.041	3.95
316.253	3.78
316.465	4.06
316.677	4.23
316.888	3.96
317.1	4.24
317.312	4.42
317.524	4.75
317.736	4.94
317.947	4.45
318.159	4.61
318.371	4.13
318.583	4.79
318.794	4.59
319.006	4.47
319.218	4.65
319.43	4.48
319.641	4.45
319.853	3.99
320.064	4.13
320.276	4.28
320.488	4.16
320.699	4.17
320.911	4
321.123	4.08
321.334	3.81
321.546	4.07
321.757	4.05
321.969	4.7
322.18	4.91
322.392	4.74
322.603	4.86
322.815	4.69
323.026	4.49
323.238	4.5
323.449	4.77
323.661	5.41
323.872	5.31
324.083	5.12
324.295	4.97
324.506	5.22
324.718	5.6
324.929	5.83
325.14	5.88
325.352	6.31
325.563	6.5
325.774	6.59
325.986	6.57
326.197	7.14
326.408	7.37
326.62	7.83
326.831	8.34
327.042	8.64
327.253	8.71
327.464	8.98
327.676	8.85
327.887	9.24
328.098	9.23
328.309	9.17
328.52	8.74
328.732	8.97
328.943	8.53
329.154	8.3
329.365	7.79
329.576	7.76
329.787	7.77
329.998	8.18
330.209	8.19
330.42	8.42
330.631	8.57
330.842	8.99
331.053	9.06
331.264	9.71
331.475	9.9
331.686	10.09
331.897	10.52
332.108	11.18
332.319	10.77
332.53	10.38
332.741	10.16
332.952	10.44
333.163	10.49
333.374	10.45
333.585	10.19
333.795	10.07
334.006	10.2
334.217	9.93
334.428	10.02
334.639	10.38
334.849	10.43
335.06	11.08
335.271	10.8
335.482	10.87
335.692	10.82
335.903	10.73
336.114	10.63
336.325	10.19
336.535	10.32
336.746	9.58
336.957	10.04
337.167	10.59
337.378	10.16
337.589	10.34
337.799	10.05
338.01	10.12
338.22	9.89
338.431	10.1
338.642	10.36
338.852	10.38
339.063	10.96
339.273	10.86
339.484	10.56
339.694	10.8
339.905	10.73
340.115	11.2
340.326	11.43
340.536	11.95
340.746	12.03
340.957	12.32
341.167	12.22
341.378	11.9
341.588	11.91
341.799	12.31
342.009	12.6
342.219	12.58
342.43	12.64
342.64	12.88
342.85	12.74
343.061	12.67
343.271	12.61
343.481	12.75
343.691	12.74
343.902	12.43
344.112	12.1
344.322	11.85
344.532	11.98
344.743	11.36
344.953	10.88
345.163	10.84
345.373	10.49
345.583	10.25
345.793	10.1
346.004	10.33
346.214	10.56
346.424	10.84
346.634	10.99
346.844	10.88
347.054	11.03
347.264	11.17
347.474	10.8
347.684	10.85
347.894	11.14
348.104	11.23
348.314	10.93
348.524	10.74
348.734	10.28
348.944	9.79
349.154	9.9
349.364	9.97
349.574	9.99
349.784	10.31
349.994	10.36
350.204	10.27
350.413	10.28
350.623	10.24
350.833	10.21
351.043	10.18
351.253	10.24
351.463	10.28
351.672	10.48
351.882	10.41
352.092	10.36
352.302	10.58
352.511	10.52
352.721	10.57
352.931	10.78
353.141	10.93
353.35	10.87
353.56	10.64
353.77	10.48
353.979	10.51
354.189	10.46
354.399	10.14
354.608	9.89
354.818	9.86
355.027	10.11
355.237	9.83
355.447	9.72
355.656	9.99
355.866	10.28
356.075	10.18
356.285	10.24
356.494	10.24
356.704	10.53
356.913	10.58
357.123	10.61
357.332	10.48
357.542	10.46
357.751	10.29
357.96	10.09
358.17	9.98
358.379	10.12
358.589	10.08
358.798	10.19
359.007	10.23
359.217	10.27
359.426	10.22
359.635	10.01
359.845	10.16
360.054	10.49
360.263	10.64
360.472	10.86
360.682	10.72
360.891	10.53
361.1	10.22
361.309	10.15
361.519	10.22
361.728	10.45
361.937	10.7
362.146	10.58
362.355	10.33
362.564	10.2
362.774	10.14
362.983	10.29
363.192	10.27
363.401	10.49
363.61	10.6
363.819	10.51
364.028	10.29
364.237	10.11
364.446	10.21
364.655	10.42
364.864	10.21
365.073	10.08
365.282	9.95
365.491	9.7
365.7	9.82
365.909	9.81
366.118	9.96
366.327	9.87
366.536	10.04
366.745	10.03
366.954	9.85
367.162	10.02
367.371	10.06
367.58	10.43
367.789	10.78
367.998	10.65
368.207	10.36
368.415	10.34
368.624	10.39
368.833	9.91
369.042	10.33
369.25	10.49
369.459	10.58
369.668	10.69
369.877	10.35
370.085	10.04
370.294	10.33
370.503	10.52
370.711	10.12
370.92	10.14
371.129	10.23
371.337	9.7
371.546	9.55
371.754	9.49
371.963	9.3
372.171	9.44
372.38	9.7
372.589	9.4
372.797	9.14
373.006	9.25
373.214	9.14
373.423	9.34
373.631	9.26
373.84	9
374.048	8.71
374.256	8.66
374.465	8.36
374.673	8.31
374.882	8.11
375.09	8.32
375.298	8.48
375.507	8.61
375.715	8.67
375.923	8.95
376.132	9.08
376.34	9.27
376.548	9.14
376.757	8.97
376.965	9.08
377.173	9.16
377.381	9.14
377.59	9.07
377.798	8.87
378.006	8.71
378.214	8.56
378.423	8.48
378.631	8.38
378.839	8.66
379.047	8.97
379.255	8.86
379.463	8.65
379.671	8.53
379.879	8.39
380.088	8.3
380.296	8.21
380.504	8.27
380.712	8.56
380.92	8.64
381.128	8.48
381.336	8.43
381.544	8.5
381.752	8.89
381.96	9.16
382.168	9.05
382.376	9.12
382.584	8.89
382.791	8.75
382.999	8.56
383.207	8.6
383.415	8.45
383.623	8.42
383.831	8.19
384.039	8
384.247	7.89
384.454	8.05
384.662	8.19
384.87	8.35
385.078	8.24
385.285	8.16
385.493	8.03
385.701	8.26
385.909	8.02
386.116	8.18
386.324	8.21
386.532	8.1
386.739	8.27
386.947	8.3
387.155	8.25
387.362	8.36
387.57	8.4
387.778	8.27
387.985	7.98
388.193	8.08
388.4	8.06
388.608	7.89
388.816	7.83
389.023	7.78
389.231	7.62
389.438	7.81
389.646	8.02
389.853	7.93
390.061	8.29
390.268	8.34
390.475	8.28
390.683	8.15
390.89	8.16
391.098	8.02
391.305	8.01
391.512	8.07
391.72	7.76
391.927	7.78
392.135	7.81
392.342	7.55
392.549	7.53
392.756	7.71
392.964	7.83
393.171	7.8
393.378	7.96
393.586	8.02
393.793	8.04
394	8.3
394.207	7.99
394.414	7.9
394.622	7.66
394.829	7.6
395.036	7.44
395.243	7.2
395.45	7.37
395.657	7.49
395.864	7.3
396.072	7.19
396.279	7.06
396.486	7.22
396.693	7.48
396.9	7.79
397.107	7.86
397.314	8.04
397.521	8.27
397.728	8.1
397.935	8.02
398.142	7.99
398.349	8.07
398.556	7.98
398.763	7.71
398.97	7.66
399.177	7.73
399.383	7.49
399.59	7.31
399.797	7.26
400.004	7.47
400.211	7.43
400.418	7.33
400.625	7.15
400.831	7.15
401.038	7.26
401.245	7.24
401.452	7.09
401.658	7.37
401.865	7.34
402.072	7.09
402.279	6.98
402.485	6.79
402.692	6.98
402.899	7.26
403.105	7.36
403.312	7.52
403.519	7.46
403.725	7.45
403.932	7.48
404.138	7.56
404.345	7.87
404.552	7.99
404.758	8.14
404.965	8.11
405.171	7.95
405.378	7.84
405.584	7.89
405.791	7.98
405.997	8.07
406.204	8.01
406.41	8.13
406.617	7.93
406.823	7.8
407.029	7.54
407.236	7.49
407.442	7.44
407.649	7.59
407.855	7.45
408.061	7.39
408.268	7.32
408.474	7.43
408.68	7.2
408.887	7.36
409.093	7.34
409.299	7.68
409.505	7.69
409.712	7.68
409.918	7.62
410.124	7.7
410.33	7.5
410.537	7.33
410.743	7.22
410.949	7.11
411.155	6.97
411.361	6.96
411.567	6.84
411.773	6.89
411.98	6.96
412.186	6.98
412.392	6.91
412.598	7
412.804	7.28
413.01	7.44
413.216	7.61
413.422	7.58
413.628	7.65
413.834	7.81
414.04	7.76
414.246	7.65
414.452	7.6
414.658	7.47
414.864	7.6
415.07	7.5
415.275	7.48
415.481	7.34
415.687	7.4
415.893	7.48
416.099	7.41
416.305	7.32
416.511	7.39
416.716	7.55
416.922	7.79
417.128	7.65
417.334	7.77
417.539	7.72
417.745	7.81
417.951	7.89
418.157	7.82
418.362	7.7
418.568	7.69
418.774	7.6
418.979	7.4
419.185	7.29
419.391	7.34
419.596	7.14
419.802	7.2
420.008	7.26
420.213	6.51
420.419	6.47
420.624	6.53
420.83	6.62
421.035	6.61
421.241	6.64
421.446	6.66
421.652	6.76
421.857	6.79
422.063	6.68
422.268	6.63
422.474	7.3
422.679	7.28
422.885	7.34
423.09	7.25
423.295	7.21
423.501	7.26
423.706	7.24
423.911	7.12
424.117	7.21
424.322	7.2
424.527	7.17
424.733	7.15
424.938	7.11
425.143	7.03
425.349	7.1
425.554	7.2
425.759	7.25
425.964	7.23
426.169	7.31
426.375	7.33
426.58	7.3
426.785	7.39
426.99	7.4
427.195	7.49
427.4	7.57
427.605	7.6
427.811	7.61
428.016	7.44
428.221	7.56
428.426	7.54
428.631	7.5
428.836	7.58
429.041	7.48
429.246	7.5
429.451	7.51
429.656	7.37
429.861	7.21
430.066	7.28
430.271	7.39
430.476	7.32
430.681	7.25
430.886	7.2
431.09	7.38
431.295	7.4
431.5	7.19
431.705	7.19
431.91	7.3
432.115	7.45
432.32	7.43
432.524	7.49
432.729	7.51
432.934	7.62
433.139	7.68
433.343	7.58
433.548	7.71
433.753	8.02
433.958	8.15
434.162	8.24
434.367	8.33
434.572	8.42
434.776	8.56
434.981	8.62
435.186	8.74
435.39	8.83
435.595	8.94
435.799	8.83
436.004	8.74
436.209	8.67
436.413	8.75
436.618	8.7
436.822	8.63
437.027	8.44
437.231	8.36
437.436	8.25
437.64	8.18
437.845	8.18
438.049	8.26
438.253	8.17
438.458	8.05
438.662	7.87
438.867	7.91
439.071	7.89
439.275	7.92
439.48	7.84
439.684	7.92
439.888	7.95
440.093	7.94
440.297	7.96
440.501	7.95
440.706	7.98
440.91	8.03
441.114	7.95
441.318	8.02
441.523	8.11
441.727	8.17
441.931	8.02
442.135	7.97
442.339	7.98
442.543	7.89
442.748	7.96
442.952	8.05
443.156	8.03
443.36	8.05
443.564	7.9
443.768	7.84
443.972	7.89
444.176	7.97
444.38	7.97
444.584	7.8
444.788	7.86
444.992	7.84
445.196	7.75
445.4	7.76
445.604	7.76
445.808	7.8
446.012	7.73
446.216	7.73
446.42	7.68
446.624	7.71
446.828	7.76
447.032	7.69
447.235	7.69
447.439	7.68
447.643	7.68
447.847	7.7
448.051	7.7
448.254	7.73
448.458	7.74
448.662	7.73
448.866	7.66
449.069	7.68
449.273	7.76
449.477	7.77
449.681	7.94
449.884	7.95
450.088	7.89
450.292	7.89
450.495	7.9
450.699	7.85
450.902	7.82
451.106	7.88
451.31	7.99
451.513	7.96
451.717	7.96
451.92	7.8
452.124	7.76
452.327	7.74
452.531	7.69
452.734	7.74
452.938	7.73
453.141	7.75
453.345	7.72
453.548	7.59
453.752	7.65
453.955	7.52
454.158	7.59
454.362	7.63
454.565	7.58
454.769	7.64
454.972	7.71
455.175	7.63
455.379	7.63
455.582	7.62
455.785	7.72
455.988	7.63
456.192	7.72
456.395	7.56
456.598	7.47
456.801	7.6
457.005	7.73
457.208	7.53
457.411	7.65
457.614	7.69
457.817	7.7
458.021	7.6
458.224	7.61
458.427	7.7
458.63	7.75
458.833	7.83
459.036	7.88
459.239	7.78
459.442	7.87
459.645	7.88
459.848	7.94
460.051	7.91
460.254	7.96
460.457	8.01
460.66	7.96
460.863	8
461.066	7.96
461.269	7.9
461.472	7.9
461.675	7.88
461.878	7.84
462.081	7.81
462.284	7.87
462.486	7.93
462.689	7.87
462.892	7.94
463.095	8.04
463.298	8.06
463.5	8.03
463.703	8.09
463.906	8.03
464.109	8.13
464.311	8.17
464.514	8.2
464.717	8.17
464.92	8.16
465.122	7.97
465.325	7.9
465.528	7.86
465.73	7.9
465.933	7.88
466.135	7.79
466.338	7.7
466.541	7.6
466.743	7.6
466.946	7.55
467.148	7.54
467.351	7.64
467.553	7.76
467.756	7.7
467.958	7.66
468.161	7.61
468.363	7.81
468.566	7.86
468.768	7.92
468.971	7.82
469.173	7.73
469.375	7.78
469.578	7.73
469.78	7.62
469.983	7.73
470.185	7.76
470.387	7.8
470.59	7.84
470.792	7.84
470.994	7.9
471.196	7.99
471.399	7.99
471.601	8
471.803	8.09
472.005	8.05
472.208	7.93
472.41	7.9
472.612	7.84
472.814	7.8
473.016	7.74
473.218	7.64
473.421	7.67
473.623	7.77
473.825	7.79
474.027	7.84
474.229	7.89
474.431	8.02
474.633	8.04
474.835	8.11
475.037	8.03
475.239	8.15
475.441	8.19
475.643	8.1
475.845	8.1
476.047	8.04
476.249	8.03
476.451	7.95
476.653	7.89
476.855	7.92
477.057	7.93
477.258	7.94
477.46	7.94
477.662	8.03
477.864	8.14
478.066	8.25
478.268	8.18
478.469	8.19
478.671	8.22
478.873	8.29
479.075	8.27
479.276	8.36
479.478	8.42
479.68	8.38
479.882	8.21
480.083	8.22
480.285	8.06
480.487	8.19
480.688	8.12
480.89	8.09
481.091	8.08
481.293	8.13
481.495	8.05
481.696	8.04
481.898	8.06
482.099	8.06
482.301	7.98
482.502	7.98
482.704	7.98
482.905	8.02
483.107	8.01
483.308	8
483.51	7.95
483.711	7.98
483.913	7.95
484.114	7.92
484.315	7.95
484.517	7.97
484.718	7.99
484.92	7.98
485.121	7.99
485.322	8.02
485.524	8.08
485.725	8.12
485.926	8.12
486.127	8.17
486.329	8.22
486.53	8.24
486.731	8.24
486.932	8.22
487.134	8.26
487.335	8.22
487.536	8.21
487.737	8.17
487.938	8.17
488.139	8.15
488.341	8.14
488.542	8.11
488.743	8.07
488.944	8.1
489.145	8.14
489.346	8.11
489.547	8.13
489.748	8.14
489.949	8.18
490.15	8.22
490.351	8.26
490.552	8.22
490.753	8.25
490.954	8.3
491.155	8.26
491.356	8.26
491.557	8.25
491.758	8.24
491.959	8.24
492.159	8.22
492.36	8.21
492.561	8.17
492.762	8.18
492.963	8.21
493.164	8.21
493.364	8.25
493.565	8.31
493.766	8.31
493.967	8.35
494.167	8.4
494.368	8.39
494.569	8.34
494.769	8.33
494.97	8.36
495.171	8.24
495.371	8.27
495.572	8.17
495.773	8.11
495.973	8.18
496.174	8.23
496.375	8.18
496.575	8.1
496.776	8.08
496.976	8.18
497.177	8.28
497.377	8.34
497.578	8.36
497.778	8.51
497.979	8.44
498.179	8.39
498.38	8.41
498.58	8.43
498.78	8.54
498.981	8.6
499.181	8.56
499.382	8.49
499.582	8.56
499.782	8.51
499.983	8.52
500.183	8.53
500.383	8.67
500.584	8.65
500.784	8.61
500.984	8.59
501.184	8.63
501.385	8.66
501.585	8.7
501.785	8.66
501.985	8.7
502.185	8.69
502.386	8.75
502.586	8.67
502.786	8.62
502.986	8.69
503.186	8.77
503.386	8.68
503.586	8.72
503.786	8.75
503.987	8.76
504.187	8.83
504.387	8.87
504.587	8.87
504.787	8.98
504.987	9.03
505.187	9.03
505.387	9.05
505.587	9.13
505.786	9.12
505.986	9.1
506.186	9.14
506.386	9.03
506.586	8.94
506.786	8.95
506.986	8.88
507.186	8.98
507.386	8.96
507.585	9.04
507.785	9.11
507.985	9.2
508.185	9.24
508.384	9.26
508.584	9.29
508.784	9.36
508.984	9.4
509.183	9.4
509.383	9.34
509.583	9.37
509.782	9.25
509.982	9.18
510.182	9.21
510.381	9.13
510.581	9.18
510.781	9.31
510.98	9.38
511.18	9.4
511.379	9.45
511.579	9.48
511.778	9.57
511.978	9.69
512.177	9.71
512.377	9.68
512.576	9.78
512.776	9.72
512.975	9.69
513.175	9.66
513.374	9.64
513.573	9.62
513.773	9.67
513.972	9.63
514.172	9.61
514.371	9.74
514.57	9.75
514.77	9.75
514.969	9.81
515.168	9.85
515.367	9.96
515.567	10.14
515.766	10.27
515.965	10.35
516.164	10.46
516.364	10.41
516.563	10.39
516.762	10.44
516.961	10.44
517.16	10.53
517.359	10.55
517.559	10.51
517.758	10.48
517.957	10.5
518.156	10.51
518.355	10.45
518.554	10.52
518.753	10.54
518.952	10.63
519.151	10.69
519.35	10.69
519.549	10.76
519.748	10.74
519.947	10.77
520.146	10.79
520.345	10.82
520.544	10.92
520.743	11
520.942	10.99
521.141	10.89
521.339	10.88
521.538	10.83
521.737	10.78
521.936	10.88
522.135	11
522.333	10.96
522.532	10.93
522.731	10.87
522.93	10.87
523.129	11.03
523.327	11.18
523.526	11.25
523.725	11.28
523.923	11.41
524.122	11.54
524.321	11.55
524.519	11.64
524.718	11.79
524.917	11.91
525.115	11.95
525.314	11.9
525.512	11.93
525.711	12.02
525.909	12.18
526.108	12.24
526.306	12.21
526.505	12.2
526.703	12.2
526.902	12.2
527.1	12.27
527.299	12.38
527.497	12.52
527.696	12.56
527.894	12.55
528.092	12.59
528.291	12.59
528.489	12.61
528.688	12.65
528.886	12.74
529.084	12.77
529.283	12.83
529.481	12.81
529.679	12.82
529.877	12.85
530.076	12.96
530.274	12.97
530.472	13.08
530.67	13.18
530.869	13.29
531.067	13.33
531.265	13.51
531.463	13.55
531.661	13.66
531.859	13.62
532.057	13.69
532.255	13.74
532.454	13.8
532.652	13.85
532.85	13.92
533.048	13.91
533.246	13.95
533.444	13.91
533.642	13.94
533.84	13.94
534.038	14.05
534.236	14.12
534.434	14.1
534.632	14.14
534.83	14.2
535.027	14.26
535.225	14.37
535.423	14.54
535.621	14.65
535.819	14.73
536.017	14.84
536.215	14.88
536.412	14.94
536.61	15.01
536.808	15.16
537.006	15.12
537.203	15.1
537.401	15.23
537.599	15.29
537.797	15.34
537.994	15.48
538.192	15.63
538.39	15.84
538.587	15.99
538.785	16.25
538.983	16.36
539.18	16.66
539.378	17.03
539.575	17.26
539.773	17.36
539.97	17.56
540.168	17.72
540.366	17.88
540.563	18
540.761	18.14
540.958	18.25
541.155	18.33
541.353	18.43
541.55	18.5
541.748	18.58
541.945	18.65
542.143	18.7
542.34	18.8
542.537	18.89
542.735	18.96
542.932	19.12
543.129	19.31
543.327	19.58
543.524	19.88
543.721	20.19
543.919	20.6
544.116	21.13
544.313	21.65
544.51	22.18
544.708	22.72
544.905	23.34
545.102	23.86
545.299	24.19
545.496	24.5
545.693	24.62
545.891	24.65
546.088	24.54
546.285	24.32
546.482	24.06
546.679	23.74
546.876	23.33
547.073	22.94
547.27	22.46
547.467	22.13
547.664	21.8
547.861	21.57
548.058	21.34
548.255	21.05
548.452	20.85
548.649	20.73
548.846	20.54
549.043	20.43
549.24	20.23
549.437	20.21
549.633	20.05
549.83	19.91
550.027	19.67
550.224	19.47
550.421	19.3
550.618	19.2
550.814	19.1
551.011	19.07
551.208	19.06
551.405	18.96
551.601	18.7
551.798	18.55
551.995	18.37
552.191	18.21
552.388	18.1
552.585	18.08
552.781	17.97
552.978	17.76
553.175	17.56
553.371	17.46
553.568	17.32
553.764	17.32
553.961	17.22
554.157	17.14
554.354	17.2
554.55	17.28
554.747	17.3
554.943	17.29
555.14	17.51
555.336	17.4
555.533	17.39
555.729	17.48
555.926	17.36
556.122	17.41
556.318	17.52
556.515	17.48
556.711	17.52
556.907	17.35
557.104	17.46
557.3	17.27
557.496	17.27
557.693	17.21
557.889	17.22
558.085	17.26
558.281	17.22
558.478	17.2
558.674	17.14
558.87	16.93
559.066	16.96
559.262	16.84
559.459	16.92
559.655	16.97
559.851	17.03
560.047	16.94
560.243	17.21
560.439	17.3
560.635	17.29
560.831	17.27
561.027	17.18
561.223	17.26
561.419	17.24
561.615	17.27
561.811	17.34
562.007	17.35
562.203	17.52
562.399	17.29
562.595	17.16
562.791	17.09
562.987	17.19
563.183	17.2
563.379	17.12
563.575	17.13
563.771	17.07
563.966	17.21
564.162	17.19
564.358	17.1
564.554	17.19
564.75	17.37
564.945	17.38
565.141	17.4
565.337	17.47
565.533	17.4
565.728	17.44
565.924	17.32
566.12	17.29
566.315	17.31
566.511	17.28
566.707	17.22
566.902	17.24
567.098	17.24
567.293	17.23
567.489	17.37
567.684	17.53
567.88	17.47
568.076	17.63
568.271	17.63
568.467	17.68
568.662	17.66
568.858	17.75
569.053	17.63
569.248	17.66
569.444	17.64
569.639	17.48
569.835	17.52
570.03	17.59
570.225	17.52
570.421	17.38
570.616	17.31
570.812	17.36
571.007	17.31
571.202	17.33
571.397	17.3
571.593	17.36
571.788	17.34
571.983	17.38
572.178	17.25
572.374	17.29
572.569	17.28
572.764	17.24
572.959	17.32
573.154	17.31
573.35	17.29
573.545	17.31
573.74	17.21
573.935	17.34
574.13	17.34
574.325	17.45
574.52	17.57
574.715	17.66
574.91	17.87
575.105	17.82
575.3	17.9
575.495	18.14
575.69	18.34
575.885	18.58
576.08	18.71
576.275	18.79
576.47	18.85
576.665	18.86
576.86	19.05
577.055	19
577.25	19.21
577.444	19.47
577.639	19.58
577.834	19.75
578.029	19.87
578.224	19.99
578.418	20.21
578.613	20.46
578.808	20.5
579.003	20.53
579.197	20.6
579.392	20.61
579.587	20.55
579.781	20.46
579.976	20.37
580.171	20.37
580.365	20.24
580.56	20.06
580.755	19.96
580.949	19.97
581.144	20.08
581.338	20.01
581.533	19.89
581.727	19.85
581.922	19.91
582.116	19.86
582.311	19.64
582.505	19.87
582.7	20.02
582.894	20.12
583.089	20.22
583.283	20.04
583.478	20.14
583.672	20.3
583.866	20.24
584.061	20.22
584.255	20.26
584.449	20.42
584.644	20.43
584.838	20.45
585.032	20.48
585.226	20.32
585.421	20.62
585.615	20.82
585.809	20.9
586.003	21.17
586.198	21.33
586.392	21.45
586.586	21.52
586.78	21.47
586.974	21.36
587.168	21.32
587.363	21.53
587.557	21.33
587.751	21.25
587.945	21.2
588.139	21
588.333	20.71
588.527	20.49
588.721	20.27
588.915	20.28
589.109	20.14
589.303	19.98
589.497	19.71
589.691	19.74
589.885	19.64
590.079	19.66
590.273	19.52
590.466	19.64
590.66	19.75
590.854	20.01
591.048	20.01
591.242	20.23
591.436	20.4
591.629	20.81
591.823	20.88
592.017	21.14
592.211	21.13
592.404	21.2
592.598	21.15
592.792	21.19
592.986	21.01
593.179	21.02
593.373	20.9
593.567	20.85
593.76	20.64
593.954	20.43
594.147	20.08
594.341	19.95
594.535	19.95
594.728	19.98
594.922	19.63
595.115	19.58
595.309	19.4
595.502	19.36
595.696	19.29
595.889	19.21
596.083	19.26
596.276	19.35
596.47	19.34
596.663	19.38
596.856	19.43
597.05	19.73
597.243	19.81
597.437	19.96
597.63	19.96
597.823	20.13
598.017	20.24
598.21	20.36
598.403	20.53
598.596	20.76
598.79	20.82
598.983	20.77
599.176	20.71
599.369	20.67
599.563	20.58
599.756	20.65
599.949	20.54
600.142	20.4
600.335	20.3
600.528	20.14
600.722	19.89
600.915	19.9
601.108	19.88
601.301	19.86
601.494	19.75
601.687	19.59
601.88	19.38
602.073	19.2
602.266	19.27
602.459	19.32
602.652	19.24
602.845	19.13
603.038	19.16
603.231	19.14
603.424	19.03
603.617	18.93
603.809	19.01
604.002	19.13
604.195	19.2
604.388	19.18
604.581	19.21
604.774	19.23
604.966	19.39
605.159	19.21
605.352	19.15
605.545	19.35
605.737	19.59
605.93	19.72
606.123	19.87
606.316	20.08
606.508	20.28
606.701	20.39
606.894	20.63
607.086	20.68
607.279	21.08
607.471	21.47
607.664	21.73
607.857	22.17
608.049	22.68
608.242	23.32
608.434	24.21
608.627	25.38
608.819	26.71
609.012	28.33
609.204	30.18
609.397	32.15
609.589	34.18
609.782	36.38
609.974	38.47
610.166	40.74
610.359	42.92
610.551	44.83
610.743	46.51
610.936	47.97
611.128	48.92
611.32	49.45
611.513	49.55
611.705	49.68
611.897	49.25
612.09	48.69
612.282	47.75
612.474	46.62
612.666	45.47
612.858	44.16
613.051	43.02
613.243	41.96
613.435	40.9
613.627	39.82
613.819	38.55
614.011	37.69
614.203	36.68
614.395	35.79
614.588	34.73
614.78	33.71
614.972	32.66
615.164	31.37
615.356	30.4
615.548	29.55
615.74	29.01
615.932	28.49
616.124	27.68
616.315	27
616.507	26.29
616.699	25.8
616.891	25.23
617.083	24.94
617.275	24.63
617.467	24.35
617.659	24.17
617.85	23.53
618.042	23.07
618.234	22.68
618.426	22.52
618.618	22.39
618.809	22.32
619.001	22.39
619.193	22.2
619.384	22.18
619.576	22.05
619.768	21.91
619.959	21.85
620.151	21.82
620.343	22.01
620.534	22.22
620.726	22.08
620.917	22.01
621.109	21.87
621.301	22.03
621.492	22.06
621.684	21.97
621.875	22.03
622.067	22.39
622.258	22.55
622.45	22.57
622.641	22.57
622.832	22.91
623.024	22.98
623.215	23.2
623.407	23.21
623.598	23.25
623.789	23.38
623.981	23.35
624.172	23.22
624.363	23.33
624.555	23.21
624.746	23.05
624.937	22.93
625.129	23.01
625.32	22.95
625.511	22.91
625.702	22.8
625.893	22.65
626.085	22.77
626.276	22.74
626.467	22.62
626.658	22.72
626.849	22.64
627.04	22.57
627.231	22.37
627.422	22.29
627.614	22.14
627.805	22.15
627.996	22.47
628.187	22.51
628.378	22.62
628.569	22.89
628.76	22.93
628.951	23.14
629.142	23.27
629.332	23.6
629.523	23.76
629.714	24.09
629.905	24.43
630.096	24.65
630.287	24.68
630.478	24.86
630.669	24.61
630.859	24.5
631.05	24.65
631.241	24.4
631.432	24.25
631.623	24.01
631.813	23.69
632.004	23.36
632.195	22.7
632.385	22.49
632.576	22
632.767	21.9
632.957	21.62
633.148	21.21
633.339	20.96
633.529	20.55
633.72	20.48
633.91	20.49
634.101	20.42
634.292	20.4
634.482	20.29
634.673	20.19
634.863	19.92
635.054	19.86
635.244	19.59
635.435	19.88
635.625	19.93
635.815	19.78
636.006	19.75
636.196	19.67
636.387	19.74
636.577	19.66
636.767	19.65
636.958	19.74
637.148	19.87
637.338	19.92
637.529	19.76
637.719	19.94
637.909	19.96
638.099	19.93
638.29	20.04
638.48	19.68
638.67	19.65
638.86	19.9
639.05	19.85
639.241	19.93
639.431	19.89
639.621	19.86
639.811	19.79
640.001	19.81
640.191	19.53
640.381	19.28
640.571	19.37
640.761	19.34
640.951	19.2
641.141	19.26
641.331	19.23
641.521	19.33
641.711	19.36
641.901	19.32
642.091	19.42
642.281	19.39
642.471	19.39
642.661	19.52
642.851	19.49
643.041	19.21
643.231	19.09
643.42	19.06
643.61	18.85
643.8	18.74
643.99	18.78
644.18	18.48
644.369	18.74
644.559	18.76
644.749	18.59
644.939	18.62
645.128	18.52
645.318	18.46
645.508	18.54
645.697	18.86
645.887	18.94
646.076	18.8
646.266	19.15
646.456	18.98
646.645	19.16
646.835	19.29
647.024	19.44
647.214	19.64
647.403	19.84
647.593	19.86
647.782	19.91
647.972	19.94
648.161	20.14
648.351	19.99
648.54	20.12
648.73	20.14
648.919	20.36
649.108	20.38
649.298	20.47
649.487	20.65
649.677	20.75
649.866	20.83
650.055	20.83
650.244	21.05
650.434	21.18
650.623	21.38
650.812	21.25
651.002	21.19
651.191	21.1
651.38	21.3
651.569	21.25
651.758	21.01
651.947	20.92
652.137	20.98
652.326	20.58
652.515	20.51
652.704	20.39
652.893	20.48
653.082	20.28
653.271	20.14
653.46	19.9
653.649	19.71
653.838	19.51
654.027	19.37
654.216	19.33
654.405	19.55
654.594	19.5
654.783	19.45
654.972	19.45
655.161	19.57
655.35	19.74
655.539	19.66
655.728	19.56
655.916	19.86
656.105	19.96
656.294	20.06
656.483	20
656.672	20.18
656.86	19.82
657.049	19.57
657.238	19.68
657.427	19.65
657.615	19.75
657.804	19.92
657.993	19.71
658.181	19.62
658.37	19.45
658.559	19.24
658.747	19.07
658.936	19.45
659.125	19.72
659.313	19.63
659.502	19.67
659.69	19.67
659.879	19.67
660.067	20
660.256	20.02
660.444	20.09
660.633	20.39
660.821	20.43
661.01	20.55
661.198	20.33
661.387	20.35
661.575	20.27
661.763	20.24
661.952	20.24
662.14	20.05
662.328	20.07
662.517	20.09
662.705	19.91
662.893	20.11
663.082	19.87
663.27	20.13
663.458	20.1
663.646	20.03
663.834	20.03
664.023	19.83
664.211	19.84
664.399	19.99
664.587	19.86
664.775	20.04
664.963	20.03
665.152	20.06
665.34	20.14
665.528	20.2
665.716	20.15
665.904	20.15
666.092	20.49
666.28	20.46
666.468	20.39
666.656	20.49
666.844	20.29
667.032	20.06
667.22	19.94
667.408	19.76
667.596	19.76
667.784	19.69
667.971	20.12
668.159	19.84
668.347	19.67
668.535	19.75
668.723	19.7
668.911	19.6
669.098	19.4
669.286	19.48
669.474	19.38
669.662	19.42
669.849	19.69
670.037	19.27
670.225	19.11
670.413	19.33
670.6	19.05
670.788	18.94
670.976	19.04
671.163	19.42
671.351	19.42
671.538	19.56
671.726	19.43
671.913	19.33
672.101	19.47
672.289	19.59
672.476	19.57
672.664	19.81
672.851	20.15
673.039	20.23
673.226	19.98
673.413	19.84
673.601	19.59
673.788	19.74
673.976	19.85
674.163	19.7
674.35	19.84
674.538	19.52
674.725	19.37
674.912	19.29
675.1	19.17
675.287	19.24
675.474	19.29
675.662	19.13
675.849	18.7
676.036	18.32
676.223	18.2
676.411	18.05
676.598	18.25
676.785	18.46
676.972	18.27
677.159	17.95
677.346	17.93
677.533	18.14
677.721	18.54
677.908	18.74
678.095	18.85
678.282	19.28
678.469	19.36
678.656	19.22
678.843	19.38
679.03	19.45
679.217	19.75
679.404	19.62
679.591	19.56
679.778	19.47
679.964	19.58
680.151	19.57
680.338	19.43
680.525	19.5
680.712	19.62
680.899	19.17
681.086	18.99
681.272	19
681.459	19.08
681.646	19.06
681.833	18.81
682.02	18.7
682.206	18.76
682.393	18.75
682.58	18.89
682.766	18.86
682.953	19.11
683.14	19.44
683.326	19.35
683.513	19.58
683.7	19.78
683.886	19.9
684.073	20.03
684.259	20.23
684.446	19.88
684.632	19.72
684.819	19.83
685.005	20.04
685.192	19.88
685.378	19.83
685.565	19.63
685.751	19.16
685.938	19.21
686.124	19.27
686.31	19.59
686.497	19.74
686.683	19.94
686.87	20.23
687.056	20
687.242	20.4
687.429	20.73
687.615	21
687.801	21.31
687.987	21.29
688.174	21.35
688.36	21.13
688.546	21.12
688.732	20.72
688.918	20.89
689.105	21.12
689.291	20.94
689.477	20.73
689.663	20.51
689.849	20.24
690.035	19.89
690.221	19.89
690.407	19.54
690.593	19.29
690.779	19.46
690.965	18.99
691.151	18.9
691.337	18.95
691.523	19.1
691.709	19.01
691.895	19.36
692.081	19.92
692.267	19.91
692.453	19.81
692.639	20.53
692.825	20.66
693.011	20.59
693.196	20.75
693.382	20.57
693.568	20.37
693.754	20.26
693.94	20.3
694.125	20.25
694.311	20.24
694.497	20.91
694.682	20.09
694.868	20.21
695.054	20.29
695.239	20.08
695.425	20.05
695.611	19.93
695.796	19.86
695.982	19.43
696.168	19.62
696.353	19.29
696.539	19.01
696.724	19.48
696.91	19.09
697.095	18.92
697.281	18.86
697.466	18.75
697.652	18.93
697.837	18.93
698.023	19.07
698.208	19.1
698.393	19.32
698.579	19.11
698.764	19.17
698.949	19.39
699.135	19.64
699.32	19.53
699.505	19.57
699.691	19.67
699.876	19.77
700.061	19.56
700.246	19.29
700.432	19.12
700.617	19.28
700.802	19.24
700.987	19.1
701.172	19
701.358	18.77
701.543	18.74
701.728	18.84
701.913	18.93
702.098	19.04
702.283	19.04
702.468	18.92
702.653	19.28
702.838	19.04
703.023	18.68
703.208	18.6
703.393	18.99
703.578	18.98
703.763	18.88
703.948	18.82
704.133	19.35
704.318	19.96
704.503	20.42
704.688	20.41
704.873	20.62
705.057	21.09
705.242	21.72
705.427	22.28
705.612	22.73
705.797	23.36
705.981	23.76
706.166	24.31
706.351	23.83
706.536	24.19
706.72	24.65
706.905	24.97
707.09	25.16
707.274	25.05
707.459	25.18
707.644	24.97
707.828	24.79
708.013	24.7
708.197	24.39
708.382	24.89
708.567	24.8
708.751	24.41
708.936	24.13
709.12	24.09
709.305	23.97
709.489	23.79
709.673	23.84
709.858	23.41
710.042	23.71
710.227	23.66
710.411	23.57
710.596	22.95
710.78	23.15
710.964	23.57
711.149	23.83
711.333	23.87
711.517	23.8
711.702	23.89
711.886	23.68
712.07	23.49
712.254	23.26
712.438	22.91
712.623	23.03
712.807	22.6
712.991	22.25
713.175	21.33
713.359	20.87
713.544	20.88
713.728	20.8
713.912	20.5
714.096	20.28
714.28	20.04
714.464	19.6
714.648	19.47
714.832	19.61
715.016	19.41
715.2	19.75
715.384	19.47
715.568	19.4
715.752	19.31
715.936	19.22
716.12	19.17
716.304	19.05
716.488	19.42
716.671	19.36
716.855	19.16
717.039	18.71
717.223	18.68
717.407	18.82
717.59	18.22
717.774	17.87
717.958	18.29
718.142	18.05
718.325	18.52
718.509	18.41
718.693	18.74
718.877	19.01
719.06	19.49
719.244	19.66
719.428	20.01
719.611	20.5
719.795	20
719.978	20
720.162	20.73
720.345	20.31
720.529	20.01
720.713	19.64
720.896	19.24
721.08	19.34
721.263	19.39
721.446	19.07
721.63	18.32
721.813	18.8
721.997	18.23
722.18	17.06
722.364	17.2
722.547	17.17
722.73	17.26
722.914	17.47
723.097	17.37
723.28	17.1
723.464	17.22
723.647	17.53
723.83	17.51
724.013	18.04
724.197	18.74
724.38	18.89
724.563	18.73
724.746	18.89
724.929	18.69
725.112	18.37
725.296	18.54
725.479	18.33
725.662	18.24
725.845	18.41
726.028	18.03
726.211	17.85
726.394	17.98
726.577	18.37
726.76	18.02
726.943	17.51
727.126	17.54
727.309	17.25
727.492	17.31
727.675	17.57
727.858	17.74
728.041	18.21
728.224	17.71
728.407	17.54
728.589	17.71
728.772	18.01
728.955	18.55
729.138	18.99
729.321	19.07
729.503	19.08
729.686	18.59
729.869	18.38
730.052	18.15
730.234	18.66
730.417	18.49
730.6	18.15
730.782	18.19
730.965	18.44
731.148	18.38
731.33	18.29
731.513	18.37
731.695	18.39
731.878	18.57
732.061	18.97
732.243	19.06
732.426	18.95
732.608	19.63
732.791	19.77
732.973	19.79
733.156	19.78
733.338	20.1
733.52	20.3
733.703	20.44
733.885	20.39
734.068	20
734.25	19.92
734.432	20.02
734.615	19.56
734.797	19.66
734.979	18.95
735.162	18.65
735.344	18.49
735.526	18.22
735.708	18.2
735.891	18.22
736.073	18.06
736.255	18.04
736.437	17.17
736.619	17.35
736.802	16.99
736.984	17.16
737.166	17.42
737.348	17.75
737.53	18.09
737.712	18.32
737.894	18.12
738.076	18
738.258	17.78
738.44	19.07
738.622	18.36
738.804	18.48
738.986	18.9
739.168	18.37
739.35	18
739.532	17.81
739.714	18.06
739.896	18.05
740.078	18.58
740.259	18.46
740.441	17.59
740.623	18.31
740.805	18.07
740.987	17.08
741.168	17.38
741.35	17.67
741.532	17.52
741.714	17.53
741.895	17.14
742.077	17.17
742.259	17.32
742.44	17.66
742.622	17.46
742.804	17.52
742.985	17.61
743.167	17.86
743.348	16.85
743.53	16.6
743.711	16.69
743.893	16.8
744.075	16.34
744.256	17.03
744.438	17.18
744.619	17.32
744.8	17.61
744.982	17.9
745.163	17.38
745.345	17.45
745.526	17.67
745.707	17.35
745.889	17.3
746.07	17.47
746.252	16.78
746.433	17.26
746.614	17.41
746.795	17.41
746.977	17.79
747.158	18.18
747.339	18.94
747.52	19.68
747.702	19.37
747.883	19.3
748.064	19.5
748.245	19.1
748.426	19.1
748.607	18.4
748.788	18.15
748.97	18.4
749.151	18.76
749.332	18.79
749.513	18.23
749.694	19.22
749.875	20.07
750.056	19.92
750.237	20.89
750.418	20.42
750.599	21.17
750.78	21.86
750.96	21.59
751.141	21.18
751.322	21.09
751.503	20.42
751.684	19.81
751.865	19.7
752.046	19.96
752.226	19.98
752.407	19.98
752.588	19.75
752.769	18.87
752.949	18.6
753.13	18.17
753.311	17.65
753.492	17.92
753.672	17.88
753.853	18.22
754.034	17.31
754.214	16.09
754.395	16.28
754.575	16.22
754.756	16.7
754.937	17.13
755.117	17.6
755.298	18.27
755.478	18.53
755.659	18.55
755.839	18.24
756.02	19.09
756.2	19.65
756.381	19.23
756.561	18.8
756.741	18.3
756.922	17.62
757.102	17.29
757.283	17.57
757.463	17.64
757.643	17.56
757.823	16.96
758.004	16.59
758.184	16.37
758.364	16.01
758.545	16.82
758.725	16.83
758.905	17.77
759.085	17.86
759.265	16.87
759.446	16.22
759.626	15.75
759.806	15.93
759.986	15.73
760.166	16.05
760.346	16.47
760.526	15.81
760.706	15.41
760.886	14.54
761.066	14.57
761.246	14.69
761.426	14.88
761.606	15.39
761.786	15.84
761.966	15.99
762.146	15.96
762.326	16.14
762.506	16.28
762.686	16.96
762.866	17.44
763.046	17.67
763.225	17.58
763.405	17.78
763.585	17.9
763.765	17.9
763.945	18.18
764.124	18.35
764.304	18.27
764.484	18.31
764.664	18.53
764.843	17.9
765.023	17.9
765.203	18.67
765.382	18.88
765.562	18.9
765.741	19.06
765.921	19.21
766.101	18.92
766.28	18.82
766.46	19.2
766.639	18.5
766.819	19.16
766.998	18.73
767.178	18.63
767.357	17.95
767.537	17.71
767.716	17.92
767.896	17.51
768.075	17.29
768.254	17.23
768.434	17.45
768.613	17.75
768.792	18
768.972	18.78
769.151	18.6
769.33	18.98
769.51	18.82
769.689	18.06
769.868	17.97
770.047	19.38
770.226	19.65
770.406	18.82
770.585	19.44
770.764	19.27
770.943	18.72
771.122	17.76
771.301	18.29
771.48	19.06
771.66	18.51
771.839	19.09
772.018	18.07
772.197	17.98
772.376	18.62
772.555	17.32
772.734	17.1
772.913	16.79
773.092	18.37
773.271	18.13
773.449	17.45
773.628	18.22
773.807	17.66
773.986	18.35
774.165	17.64
774.344	16.64
774.523	17.91
774.701	17.68
774.88	18.95
775.059	17.79
775.238	17.28
775.417	17.16
775.595	16.54
775.774	16.31
775.953	15.04
776.131	15.78
776.31	15.53
776.489	14.66
776.667	14.59
776.846	13.71
777.025	13.76
777.203	14.24
777.382	14.68
777.56	14.12
777.739	14.61
777.917	15.59
778.096	15.94
778.274	16.68
778.453	16.05
778.631	15.87
778.81	15.92
778.988	16.12
779.166	16.05
779.345	16.29
779.523	17.57
779.702	18.06
779.88	16.61
780.058	15.73
780.237	14.7
780.415	15.91
780.593	16.16
780.771	15.43
780.95	15.92
781.128	16.64
781.306	16.64
781.484	17.18
781.662	16.55
781.841	17.6
782.019	18.12
782.197	20.01
782.375	19.44
782.553	19.15
782.731	19.66
782.909	18.05
783.087	17.3
783.265	17.39
783.443	15.17
783.621	14.62
783.799	15.07
783.977	15.06
784.155	13.63
784.333	13.2
784.511	14.45
784.689	13.88
784.867	16.67
785.045	15.92
785.223	14.61
785.4	16.56
785.578	16.82
785.756	17.24
785.934	17.94
786.112	18.47
786.289	19.14
786.467	19.3
786.645	19.65
786.823	18
787	18.7
787.178	20.13
787.356	19.98
787.533	19.23
787.711	17.66
787.889	16.73
788.066	16.06
788.244	16.88
788.421	15.78
788.599	15.35
788.776	14.84
788.954	14.54
789.131	13.42
789.309	12.37
789.486	13.2
789.664	13.37
789.841	12.94
790.019	13.31
790.196	11
790.373	10.9
790.551	12.33
790.728	13.77
790.906	14.81
791.083	14.64
791.26	14.85
791.437	12.95
791.615	12.86
791.792	13.82
791.969	15.4
792.146	17.53
792.324	19.35
792.501	18.94
792.678	17.9
792.855	17.76
793.032	18.59
793.209	19.36
793.387	20.27
793.564	20.31
793.741	20.91
793.918	19.39
794.095	18.95
794.272	18.15
794.449	16.63
794.626	16.62
794.803	15.96
794.98	15.29
795.157	15.98
795.334	16.93
795.511	17.5
795.688	15.41
795.864	15.4
796.041	14.93
796.218	14.07
796.395	13.25
796.572	14.04
796.749	14.14
796.925	13.87
797.102	13.22
797.279	13.21
797.456	13.35
797.632	14.76
797.809	12.8
797.986	12.29
798.162	13.55
798.339	15.36
798.516	14.41
798.692	14.67
798.869	15.64
799.046	15.69
799.222	15.5
799.399	15.82
799.575	16.05
799.752	18.71
799.928	18.98
800.105	17.92
800.281	17.27
800.458	17.52
800.634	17.82
800.811	17.67
800.987	17.71
801.163	16.19
801.34	15.59
801.516	15.38
801.692	13.95
801.869	13.79
802.045	13.09
802.221	13.99
802.398	14.39
802.574	12.41
802.75	12.62
802.926	11.64
803.103	14.03
803.279	15.42
803.455	14.95
803.631	15.33
803.807	15.25
803.983	16.22
804.16	15.1
804.336	14.21
804.512	14.53
804.688	13.93
804.864	14.83
805.04	12.86
805.216	10.59
805.392	10.24
805.568	10.85
805.744	11.39
805.92	11.74
806.096	13.67
806.272	13.56
806.448	13.68
806.623	12.3
806.799	10.7
806.975	12.2
807.151	12.85
807.327	11.79
807.503	10.69
807.678	9.84
807.854	10.44
808.03	9.07
808.206	10.73
808.381	11.57
808.557	13.89
808.733	16.34
808.908	14.72
809.084	15.37
809.26	17.09
809.435	18.01
809.611	18.85
809.787	18.02
809.962	17.23
810.138	17.98
810.313	18.32
810.489	16.57
810.664	15.77
810.84	19.6
811.015	19.34
811.191	18.57
811.366	17.44
811.542	16.06
811.717	15.46
811.892	16.3
812.068	15.68
812.243	14.78
812.419	15.58
812.594	14.23
812.769	10.88
812.944	9.78
813.12	9.96
813.295	10.67
813.47	12.37
813.645	11.45
813.821	10.57
813.996	9.97
814.171	10.4
814.346	9.73
814.521	10.89
814.697	12.45
814.872	13.48
815.047	15.08
815.222	16.11
815.397	16.29
815.572	17.33
815.747	18.58
815.922	19.15
816.097	19.24
816.272	19.9
816.447	19.28
816.622	17.74
816.797	16.03
816.972	14.87
817.147	14.34
817.322	13.09
817.496	14.42
817.671	14.75
817.846	12.65
818.021	12.54
818.196	12.1
818.371	11.93
818.545	13.42
818.72	15.77
818.895	15.38
819.069	15.02
819.244	16.22
819.419	15.55
819.594	15.25
819.768	16.18
819.943	15.35
820.117	14.42
820.292	15.06
820.467	15.05
820.641	14.25
820.816	15.49
820.99	15.49
821.165	14.86
821.339	15.19
821.514	15.28
821.688	15.49
821.863	15.7
822.037	16.11
822.212	16.27
822.386	16.1
822.56	16.46
822.735	16.11
822.909	16.07
823.084	16.14
823.258	15.95
823.432	15.9
823.606	15.77
823.781	15.91
823.955	15.54
824.129	15.24
824.303	15.34
824.478	14.8
824.652	14.69
824.826	14.56
825	14.36
825.174	14.14
825.348	14.61
825.523	14.49
825.697	14.35
825.871	15.01
826.045	15.15
826.219	14.71
826.393	15.5
826.567	15.39
826.741	15.92
826.915	16.34
827.089	15.98
827.263	15.71
827.437	15.99
827.611	15.74
827.784	15.5
827.958	15.55
828.132	15.82
828.306	15.06
828.48	15.61
828.654	14.92
828.827	13.75
829.001	13.75
829.175	13.09
829.349	12.48
829.522	12.44
829.696	11.66
829.87	10.66
830.044	10.06
830.217	9.94
830.391	6.79
830.565	7.07
830.738	9.47
830.912	10.46
831.085	10.45
831.259	10.53
831.432	9.95
831.606	11.7
831.779	11.95
831.953	13.2
832.126	14.17
832.3	16.59
832.473	15.24
832.647	15.43
832.82	14.74
832.994	13.47
833.167	13.06
833.34	15.17
833.514	14.08
833.687	14.61
833.86	14.24
834.034	14.03
834.207	14.51
834.38	15.3
834.553	15.47
834.727	16.16
834.9	17.33
835.073	18.22
835.246	17.72
835.419	18.96
835.593	19.27
835.766	19.3
835.939	19.3
836.112	18.61
836.285	18.22
836.458	17.11
836.631	17.39
836.804	18.73
836.977	17.97
837.15	16.98
837.323	15.88
837.496	15.01
837.669	14.21
837.842	14.47
838.015	15.59
838.188	15.7
838.361	15.88
838.533	14.53
838.706	12.72
838.879	13.11
839.052	15.05
839.225	14.3
839.398	14.02
839.57	13.48
839.743	14.26
839.916	12.08
840.088	13.1
840.261	13.47
840.434	14.81
840.607	14.86
840.779	14.56
840.952	14.27
841.124	16.09
841.297	17.12
841.47	17.76
841.642	15.67
841.815	18.13
841.987	18.23
842.16	17.14
842.332	16.73
842.505	13.5
842.677	14.6
842.85	11.98
843.022	11.32
843.194	10.48
843.367	12.67
843.539	13.09
843.712	10.43
843.884	10.08
844.056	13.15
844.229	12.65
844.401	15.22
844.573	12.97
844.745	14.95
844.918	16.99
845.09	16.83
845.262	18.4
845.434	21.08
845.606	20.83
845.779	19.35
845.951	17.39
846.123	14.89
846.295	14.79
846.467	14.17
846.639	12.45
846.811	10.67
846.983	11.67
847.155	7.5
847.327	4.38
847.499	6.56
847.671	5.65
847.843	3.11
848.015	4.87
848.187	7.51
848.359	6.86
848.531	7.05
848.703	5.29
848.875	1.06
849.047	6.76
849.218	6.45
849.39	4.04
849.562	9.17
849.734	11.12
849.905	10.59
850.077	6.29
850.249	11.96
850.421	8.08
850.592	6.63
850.764	7.4
850.936	0.06
851.107	4.65
851.279	8.77
851.451	8.21
851.622	8.24
851.794	10.39
851.965	13.46
852.137	6.44
852.308	14.16
852.48	14.75
852.651	19.11
852.823	18.89
852.994	17.13
853.166	18.89
853.337	16.95
853.509	19.4
853.68	14.21
853.851	12.93
854.023	16.46
854.194	11.81
854.365	12.98
854.537	8.52
854.708	9.54
854.879	12.92
855.05	8.49
855.222	8.82
855.393	7.32
855.564	6.13
855.735	6.93
855.906	11.67
856.078	10.38
856.249	5.54
856.42	5.35
856.591	7.75
856.762	1.39
856.933	1.98
857.104	1.13
857.275	1.86
857.446	7.53
857.617	9.87
857.788	8.49
857.959	9.14
858.13	12.95
858.301	16.01
858.472	15.56
858.643	22.36
858.814	24.48
858.985	23.14
859.155	19.87
859.326	20.76
859.497	19.38
859.668	16
859.839	15.59
860.009	19
860.18	17.48
860.351	18.82
860.522	13.8
860.692	12.71
860.863	13.41
861.034	14.53
861.204	10.82
861.375	8.3
861.546	8.82
861.716	8.08
861.887	11.2
862.057	11.06
862.228	14.17
862.398	16.47
862.569	12.05
862.739	10.95
862.91	13.62
863.08	15.68
863.251	19.07
863.421	19.68
863.592	23.38
863.762	20.28
863.932	24.54
864.103	15.93
864.273	18.5
864.443	18.61
864.614	19.55
864.784	19.91
864.954	19.51
865.125	15.07
865.295	12.5
865.465	9.1
865.635	9.15
865.805	6.02
865.976	9.92
866.146	3.62
866.316	7.99
866.486	9.77
866.656	4.48
866.826	-0.19
866.996	8.21
867.166	10.15
867.336	10.66
867.506	6.51
867.676	4.73
867.846	0.84
868.016	5.44
868.186	1.15
868.356	2.19
868.526	6.45
868.696	11.87
868.866	7.5
869.036	10.27
869.206	14.51
869.376	16.46
869.545	15.44
869.715	19.62
869.885	15.6
870.055	13.21
870.224	16.42
870.394	13.53
870.564	15.36
870.734	14
870.903	12.58
871.073	7.25
871.243	8.31
871.412	9.88
871.582	13.42
871.751	21.43
871.921	25.39
872.091	21.85
872.26	24.3
872.43	19.59
872.599	24.24
872.769	19.37
872.938	19.72
873.108	21.91
873.277	19.57
873.446	12.3
873.616	6.49
873.785	11.85
873.955	7.86
874.124	3.32
874.293	10.23
874.463	2.93
874.632	7.31
874.801	7
874.971	5.91
875.14	11.21
875.309	14.82
875.478	14.18
875.647	8.81
875.817	9.44
875.986	10.87
876.155	7.99
876.324	9.9
876.493	10.02
876.662	12.99
876.831	10.73
877	8.38
877.17	10
877.339	8.73
877.508	8.38
877.677	9.42
877.846	13.84
878.015	13.46
878.184	10.33
878.352	14.53
878.521	12.02
878.69	12.86
878.859	14.26
879.028	11.6
879.197	13.79
879.366	13.33
879.534	15.13
879.703	12.65
879.872	15.13
880.041	16.11
880.21	14.99
880.378	16.6
880.547	16.41
880.716	16.13
880.884	16.66
881.053	15.69
881.222	16.46
881.39	16.67
881.559	16.96
881.727	17.44
881.896	17.77
882.065	17.53
882.233	17.1
882.402	16.38
882.57	15.2
882.739	15.04
882.907	15.28
883.076	14.64
883.244	13.91
883.412	13.62
883.581	13.07
883.749	11.66
883.918	11.08
884.086	10.94
884.254	12.19
884.423	14.27
884.591	14.22
884.759	13.66
884.927	14.74
885.096	14.8
885.264	14.87
885.432	13.22
885.6	15.44
885.769	15.7
885.937	15.98
886.105	16.15
886.273	15.51
886.441	17.88
886.609	19.75
886.777	17.88
886.945	17.11
887.113	16.43
887.281	14.16
887.449	9.85
887.617	9.53
887.785	7.91
887.953	6.04
888.121	3.43
888.289	-5.25
888.457	-4.9
888.625	-7.3
888.793	-1.86
888.961	-1.58
889.129	4.22
889.296	6.29
889.464	5.4
889.632	5.24
889.8	1.6
889.967	4.03
890.135	9.74
