Data from 2938812__Reflection_02.txt Node
Date: Thu Mar 12 16:44:16 EDT 2015
User: robert
Spectrometer: USB4E03002
Autoset integration time: false
Trigger mode: 4
Integration Time (sec): 1.000000E-1
Scans to average: 10
Electric dark correction enabled: false
Nonlinearity correction enabled: false
Boxcar width: 5
Stray light correction enabled: false
XAxis mode: Wavelengths
Stop averaging: false
Number of Pixels in Spectrum: 3648
>>>>>Begin Spectral Data<<<<<
177.575	-179.49
177.794	-572.84
178.014	1152.38
178.233	-1904.76
178.452	-8475
178.672	-1161.54
178.891	302.86
179.11	-92.59
179.33	-241.28
179.549	-876.09
179.768	-185.31
179.987	-4.08
180.207	-253.09
180.426	-846.67
180.645	-207.23
180.864	-55.81
181.084	-9
181.303	17.84
181.522	80.16
181.741	159.2
181.96	346.15
182.179	361.11
182.398	78.95
182.618	53.9
182.837	212.24
183.056	130.37
183.275	131.4
183.494	428.21
183.713	-8000
183.932	46.15
184.151	36.27
184.37	31.98
184.589	16.5
184.808	55.73
185.027	8.85
185.246	-13.9
185.465	-97.94
185.684	-327.87
185.903	-396.75
186.122	-289.8
186.341	1232.2
186.56	11880
186.779	290.96
186.998	223.75
187.216	185.35
187.435	100.16
187.654	88.13
187.873	111.85
188.092	128.87
188.311	140.59
188.53	74.46
188.748	66.75
188.967	95.59
189.186	258.02
189.405	621.62
189.623	-622.22
189.842	-46.84
190.061	-27.96
190.28	-10.81
190.498	-1.13
190.717	-1.8
190.936	21.68
191.154	26.48
191.373	46.03
191.592	76.75
191.81	44.14
192.029	59.97
192.248	84.6
192.466	85.94
192.685	161.79
192.904	159.94
193.122	115.46
193.341	124.01
193.559	111.32
193.778	88.8
193.996	74.91
194.215	89.67
194.433	74.23
194.652	68.44
194.87	77.32
195.089	50.83
195.307	48.91
195.526	39.87
195.744	27.03
195.963	20.76
196.181	33.74
196.399	52.63
196.618	64.14
196.836	9.59
197.055	1.72
197.273	31.55
197.491	47.27
197.71	-88.96
197.928	11.45
198.146	73.13
198.365	61.74
198.583	117.02
198.801	51.88
199.019	81.93
199.238	96
199.456	137.22
199.674	36.41
199.892	-34.21
200.111	20.63
200.329	-16.58
200.547	-26.18
200.765	-100.39
200.983	-14.11
201.202	-65.59
201.42	-1117.24
201.638	-37200
201.856	-465.38
202.074	1853.33
202.292	-270.31
202.51	-95.68
202.728	-31.79
202.946	9.09
203.165	44.87
203.383	0.41
203.601	88.61
203.819	98.72
204.037	135.16
204.255	69.12
204.473	102.35
204.691	91.52
204.909	111.83
205.127	165.43
205.345	144.7
205.562	181.95
205.78	169.23
205.998	132.03
206.216	108.65
206.434	112.88
206.652	-452.17
206.87	-53.49
207.088	79.04
207.306	-7.6
207.523	-81.72
207.741	-150
207.959	62.18
208.177	103.07
208.395	79.15
208.612	70.83
208.83	53.23
209.048	51.61
209.266	45.05
209.483	36.32
209.701	26.27
209.919	3.07
210.136	-7.1
210.354	6.29
210.572	-14.64
210.79	8.16
211.007	-2.61
211.225	1.94
211.442	-2.43
211.66	-5.64
211.878	28.57
212.095	-59.1
212.313	-40.33
212.53	-27.84
212.748	-44.03
212.966	-29.05
213.183	-34.37
213.401	-32.95
213.618	-38.39
213.836	-28.81
214.053	-25.98
214.271	-35.42
214.488	54.34
214.705	45.39
214.923	22.57
215.14	26.31
215.358	23.76
215.575	19.16
215.793	11.66
216.01	-8.63
216.227	-18.4
216.445	-25.44
216.662	-41.24
216.879	-44.75
217.097	-36.6
217.314	-17.17
217.531	-4
217.749	7
217.966	-9.84
218.183	6.94
218.4	9.08
218.618	9.02
218.835	15.14
219.052	12.14
219.269	13.84
219.487	13.46
219.704	16.63
219.921	13.89
220.138	-6.86
220.355	-4.1
220.572	-10.53
220.79	3.03
221.007	10.57
221.224	3.01
221.441	7.39
221.658	5.69
221.875	4.06
222.092	5.61
222.309	8.62
222.526	16.05
222.743	16.23
222.96	14.97
223.177	11
223.394	8.85
223.611	10.77
223.828	11.86
224.045	6.39
224.262	4.98
224.479	-0.41
224.696	-4.5
224.913	-4.15
225.13	-4.64
225.347	-3.16
225.564	-4.86
225.781	-7.35
225.997	-4.35
226.214	-2.31
226.431	-0.78
226.648	1.41
226.865	3.17
227.082	3.12
227.298	1.73
227.515	4.77
227.732	4.2
227.949	5.95
228.165	6.81
228.382	6.19
228.599	5.89
228.816	5.28
229.032	4.63
229.249	4.97
229.466	5.06
229.682	5.27
229.899	4.74
230.116	4.25
230.332	2.96
230.549	2.14
230.765	1.77
230.982	2.14
231.199	3.44
231.415	3.93
231.632	4.48
231.848	5.04
232.065	4.68
232.281	4.07
232.498	5.77
232.714	6.24
232.931	6.84
233.147	7.44
233.364	4.8
233.58	4.59
233.797	4.37
234.013	3.02
234.23	3.73
234.446	3.9
234.662	4.44
234.879	2.51
235.095	3.75
235.312	2.63
235.528	2.87
235.744	5.04
235.961	6.48
236.177	6.8
236.393	6.68
236.61	6.85
236.826	7.06
237.042	5.81
237.258	6.7
237.475	8.17
237.691	9.32
237.907	8.62
238.123	8.13
238.339	6.99
238.556	7.23
238.772	6.47
238.988	5.69
239.204	5.75
239.42	5.62
239.636	6.62
239.853	4.32
240.069	3.68
240.285	3.94
240.501	3.14
240.717	2.86
240.933	2.6
241.149	3.03
241.365	3.59
241.581	3.73
241.797	3.93
242.013	3.38
242.229	3.68
242.445	4.41
242.661	4.38
242.877	4.23
243.093	4.38
243.309	4.21
243.525	3.98
243.741	3.48
243.957	3.48
244.173	2.86
244.388	2.77
244.604	2.2
244.82	0.89
245.036	1.67
245.252	2.05
245.468	2.09
245.683	2.59
245.899	2.79
246.115	2.6
246.331	2.84
246.547	3.32
246.762	3.98
246.978	4.24
247.194	4.36
247.409	4.19
247.625	4.02
247.841	4.29
248.057	4.21
248.272	4.23
248.488	4.56
248.703	4.45
248.919	4.31
249.135	3.86
249.35	3.81
249.566	3.41
249.782	2.52
249.997	3.4
250.213	2.44
250.428	2.47
250.644	3.33
250.859	3.12
251.075	3.19
251.29	3.04
251.506	2.81
251.721	2.88
251.937	3.36
252.152	4.26
252.368	3.34
252.583	4.05
252.798	3.86
253.014	3.11
253.229	3.58
253.445	3.44
253.66	3.6
253.875	3.56
254.091	3.84
254.306	3.62
254.521	2.58
254.737	3.67
254.952	2.32
255.167	2.57
255.383	2.99
255.598	3.02
255.813	3.39
256.028	2.09
256.244	3.33
256.459	2.8
256.674	2.87
256.889	3
257.104	2.57
257.32	2.85
257.535	2.82
257.75	2.17
257.965	1.44
258.18	1.31
258.395	2.14
258.61	1.98
258.826	1.77
259.041	2.27
259.256	2.49
259.471	2.62
259.686	2.64
259.901	2.69
260.116	2.87
260.331	3
260.546	2.89
260.761	2.87
260.976	2.83
261.191	2.99
261.406	2.62
261.621	2.51
261.836	2.57
262.05	2.61
262.265	2.42
262.48	2.54
262.695	2.89
262.91	3.42
263.125	3.48
263.34	3.1
263.555	2.93
263.769	2.9
263.984	2.68
264.199	2.18
264.414	1.95
264.629	1.75
264.843	1.91
265.058	1.58
265.273	1.39
265.488	2.09
265.702	2.53
265.917	2.61
266.132	2.45
266.346	2.38
266.561	2.07
266.776	1.95
266.99	2.09
267.205	2.12
267.42	2.24
267.634	2.12
267.849	1.17
268.063	0.89
268.278	0.99
268.492	1.01
268.707	1.57
268.922	2.11
269.136	2.52
269.351	2.7
269.565	2.38
269.78	2.41
269.994	2.83
270.209	3.19
270.423	3.19
270.637	3.12
270.852	3.2
271.066	3.12
271.281	2.83
271.495	2.7
271.709	2.65
271.924	2.83
272.138	2.59
272.353	2.54
272.567	2.38
272.781	2.2
272.996	2.05
273.21	2.13
273.424	1.69
273.638	1.73
273.853	1.74
274.067	1.61
274.281	1.54
274.495	1.72
274.71	1.08
274.924	1.28
275.138	1.45
275.352	1.89
275.566	1.93
275.781	1.96
275.995	2.34
276.209	1.94
276.423	1.99
276.637	2.08
276.851	2.26
277.065	2.49
277.279	2.35
277.493	2.4
277.707	2.4
277.921	2.25
278.135	2.85
278.349	2.75
278.563	4.03
278.777	4.44
278.991	3.91
279.205	3.62
279.419	3.56
279.633	4.01
279.847	3.75
280.061	3.45
280.275	3.96
280.489	3.81
280.703	3.91
280.917	2.82
281.131	2.84
281.344	3.25
281.558	2.9
281.772	2.82
281.986	2.68
282.2	2.48
282.414	2.4
282.627	2.09
282.841	1.93
283.055	1.62
283.269	1.54
283.482	1.12
283.696	1.04
283.91	1.51
284.123	1.99
284.337	1.74
284.551	1.87
284.764	2.1
284.978	2.11
285.192	2.25
285.405	2.28
285.619	2.55
285.833	2.78
286.046	2.59
286.26	2.59
286.473	2.81
286.687	2.97
286.9	3.39
287.114	3.24
287.327	3.28
287.541	3.21
287.754	3.45
287.968	3.85
288.181	3.54
288.395	3.74
288.608	3.65
288.822	3.21
289.035	2.92
289.248	2.68
289.462	2.74
289.675	2.54
289.889	2.47
290.102	2.3
290.315	1.86
290.529	2.22
290.742	2.24
290.955	2.43
291.169	2.52
291.382	2.56
291.595	2.45
291.808	2.67
292.022	2.99
292.235	3.07
292.448	3.2
292.661	3.41
292.875	3.75
293.088	4.18
293.301	4.14
293.514	4.25
293.727	4.68
293.94	5.16
294.153	4.84
294.367	4.87
294.58	5.09
294.793	5.1
295.006	5.02
295.219	4.4
295.432	4.11
295.645	4.2
295.858	4.17
296.071	3.92
296.284	3.71
296.497	4
296.71	4.15
296.923	4.16
297.136	4.24
297.349	4.27
297.562	4.22
297.775	4.32
297.988	4.24
298.201	3.97
298.414	3.99
298.626	3.96
298.839	4.29
299.052	3.87
299.265	4
299.478	4.18
299.691	4.23
299.903	4.52
300.116	4.66
300.329	4.53
300.542	4.81
300.755	5.02
300.967	5.07
301.18	4.38
301.393	4.42
301.605	4.12
301.818	3.94
302.031	3.82
302.243	3.94
302.456	3.84
302.669	3.79
302.881	3.73
303.094	3.67
303.307	3.81
303.519	4.42
303.732	4.87
303.944	4.71
304.157	5.09
304.37	5.37
304.582	5.38
304.795	5.35
305.007	5.8
305.22	6.38
305.432	6.61
305.645	6.78
305.857	6.76
306.069	6.57
306.282	6.83
306.494	6.54
306.707	6.33
306.919	6.62
307.132	6.85
307.344	6.69
307.556	6.27
307.769	6.25
307.981	6.07
308.193	5.66
308.406	5.9
308.618	6.05
308.83	5.92
309.043	6.03
309.255	6.04
309.467	5.93
309.679	5.98
309.892	6.39
310.104	6.51
310.316	6.87
310.528	6.96
310.74	6.93
310.953	6.91
311.165	7.14
311.377	7.45
311.589	7.57
311.801	7.72
312.013	8.03
312.225	7.89
312.437	8.1
312.649	8.13
312.862	8.57
313.074	8.28
313.286	8.32
313.498	8.65
313.71	9.05
313.922	9.41
314.134	9.07
314.346	8.92
314.558	9.28
314.77	8.68
314.982	8.56
315.193	8.7
315.405	9.17
315.617	9.33
315.829	9.1
316.041	8.81
316.253	8.1
316.465	9.03
316.677	9.46
316.888	9.77
317.1	10.42
317.312	10.89
317.524	10.65
317.736	11.02
317.947	11.33
318.159	11.43
318.371	11.47
318.583	11.79
318.794	11.93
319.006	12.15
319.218	12.06
319.43	12.75
319.641	12.51
319.853	12.84
320.064	13.11
320.276	13.63
320.488	14.19
320.699	14.63
320.911	15.13
321.123	15.24
321.334	14.54
321.546	14.79
321.757	14.35
321.969	14.92
322.18	14.77
322.392	14.31
322.603	13.71
322.815	13.76
323.026	14.22
323.238	13.98
323.449	14.08
323.661	14.63
323.872	14.66
324.083	14.94
324.295	14.81
324.506	15.29
324.718	15.66
324.929	15.89
325.14	15.78
325.352	15.5
325.563	16.21
325.774	16.43
325.986	16.65
326.197	16.91
326.408	16.99
326.62	17.45
326.831	17.54
327.042	17.98
327.253	18.35
327.464	18.91
327.676	19.16
327.887	19.14
328.098	19.4
328.309	19.93
328.52	20.04
328.732	20.59
328.943	20.63
329.154	20.79
329.365	21.16
329.576	21.95
329.787	22.28
329.998	23.08
330.209	23.52
330.42	23.78
330.631	23.94
330.842	24.14
331.053	24.18
331.264	24.63
331.475	25.14
331.686	25.18
331.897	25
332.108	25.59
332.319	25.37
332.53	25.45
332.741	25.94
332.952	26.31
333.163	26.93
333.374	27.21
333.585	27.29
333.795	27.36
334.006	28.01
334.217	28.3
334.428	27.89
334.639	28.17
334.849	28.82
335.06	28.77
335.271	28.79
335.482	29.12
335.692	29.2
335.903	29.44
336.114	30.08
336.325	29.9
336.535	29.95
336.746	29.8
336.957	29.91
337.167	29.75
337.378	29.72
337.589	29.89
337.799	29.5
338.01	29.54
338.22	29.41
338.431	29.03
338.642	29.1
338.852	29.27
339.063	29.82
339.273	29.7
339.484	29.7
339.694	29.75
339.905	29.67
340.115	29.87
340.326	29.81
340.536	30.06
340.746	30.38
340.957	30.22
341.167	30.42
341.378	30.77
341.588	31.03
341.799	31.44
342.009	31.45
342.219	31.65
342.43	31.61
342.64	31.96
342.85	31.91
343.061	31.74
343.271	32.13
343.481	31.82
343.691	31.3
343.902	31
344.112	30.72
344.322	30.67
344.532	30.33
344.743	30.29
344.953	30.21
345.163	30.28
345.373	30.19
345.583	29.85
345.793	29.81
346.004	29.67
346.214	29.79
346.424	29.71
346.634	29.92
346.844	30.01
347.054	30.03
347.264	29.77
347.474	29.57
347.684	29.48
347.894	29.52
348.104	29.74
348.314	30.06
348.524	30.09
348.734	29.91
348.944	29.55
349.154	29.53
349.364	29.63
349.574	29.71
349.784	30.01
349.994	30.14
350.204	30.11
350.413	29.95
350.623	29.85
350.833	29.6
351.043	29.44
351.253	29.41
351.463	29.61
351.672	29.62
351.882	29.92
352.092	29.61
352.302	29.68
352.511	29.49
352.721	29.48
352.931	29.29
353.141	29.2
353.35	29.12
353.56	29.13
353.77	28.65
353.979	28.36
354.189	28.1
354.399	28.16
354.608	28.14
354.818	28.3
355.027	28.19
355.237	28.29
355.447	28.59
355.656	28.76
355.866	28.7
356.075	28.89
356.285	28.99
356.494	29.12
356.704	29.02
356.913	29.01
357.123	29.1
357.332	29.12
357.542	29.06
357.751	29.16
357.96	29.17
358.17	29.06
358.379	28.8
358.589	28.69
358.798	28.42
359.007	28.57
359.217	28.51
359.426	28.43
359.635	28.34
359.845	28.48
360.054	28.32
360.263	28.35
360.472	28.55
360.682	28.61
360.891	28.55
361.1	28.46
361.309	28.36
361.519	28.22
361.728	28.09
361.937	28.11
362.146	28.05
362.355	27.89
362.564	28.04
362.774	27.8
362.983	27.81
363.192	27.8
363.401	28.01
363.61	27.89
363.819	27.73
364.028	27.86
364.237	27.98
364.446	28.05
364.655	28.27
364.864	27.99
365.073	28.03
365.282	27.97
365.491	28.08
365.7	27.93
365.909	28.12
366.118	28.22
366.327	28.41
366.536	28.41
366.745	28.18
366.954	27.89
367.162	27.67
367.371	27.92
367.58	27.97
367.789	27.78
367.998	27.74
368.207	27.62
368.415	27.73
368.624	27.38
368.833	27.24
369.042	27.15
369.25	27.39
369.459	27.45
369.668	26.92
369.877	26.88
370.085	27.05
370.294	26.72
370.503	26.57
370.711	26.57
370.92	26.51
371.129	26.38
371.337	26.62
371.546	26.59
371.754	26.76
371.963	27.07
372.171	27.12
372.38	27.09
372.589	27.21
372.797	27.19
373.006	27.11
373.214	27.32
373.423	27.27
373.631	27.14
373.84	26.93
374.048	26.86
374.256	26.75
374.465	26.76
374.673	26.81
374.882	26.88
375.09	26.98
375.298	27.15
375.507	26.96
375.715	27.19
375.923	27.09
376.132	27.23
376.34	27.27
376.548	27.23
376.757	27.09
376.965	26.71
377.173	26.79
377.381	26.8
377.59	26.84
377.798	27.01
378.006	26.92
378.214	26.85
378.423	26.77
378.631	26.85
378.839	26.84
379.047	27.18
379.255	27.44
379.463	27.28
379.671	27.32
379.879	27.03
380.088	26.95
380.296	26.85
380.504	27.05
380.712	26.82
380.92	26.46
381.128	26.54
381.336	26.11
381.544	26.24
381.752	26.59
381.96	26.45
382.168	26.59
382.376	26.54
382.584	26.53
382.791	26.3
382.999	26.55
383.207	26.88
383.415	26.89
383.623	27.1
383.831	27.06
384.039	26.81
384.247	27.11
384.454	26.88
384.662	26.58
384.87	26.5
385.078	26.51
385.285	26.43
385.493	26.4
385.701	26.3
385.909	26.13
386.116	26.29
386.324	26.31
386.532	26.06
386.739	26.35
386.947	26.65
387.155	26.84
387.362	27.17
387.57	27.37
387.778	27.35
387.985	27.36
388.193	27.21
388.4	27.01
388.608	26.95
388.816	27
389.023	26.9
389.231	26.72
389.438	26.79
389.646	26.44
389.853	26.53
390.061	26.47
390.268	26.48
390.475	26.88
390.683	26.94
390.89	26.93
391.098	26.95
391.305	26.81
391.512	26.98
391.72	26.73
391.927	26.77
392.135	26.56
392.342	26.54
392.549	26.7
392.756	26.71
392.964	26.65
393.171	26.82
393.378	26.9
393.586	27.06
393.793	26.96
394	27.23
394.207	27.46
394.414	27.47
394.622	27.54
394.829	27.69
395.036	27.38
395.243	27.37
395.45	27.36
395.657	27.32
395.864	27.3
396.072	27.53
396.279	27.48
396.486	27.51
396.693	27.5
396.9	27.73
397.107	27.43
397.314	27.81
397.521	27.85
397.728	27.84
397.935	28.07
398.142	28.06
398.349	28.1
398.556	27.95
398.763	27.99
398.97	27.95
399.177	27.73
399.383	27.92
399.59	27.7
399.797	27.86
400.004	27.97
400.211	27.76
400.418	27.9
400.625	27.68
400.831	27.94
401.038	27.79
401.245	28.14
401.452	28.12
401.658	28.21
401.865	28.53
402.072	28.4
402.279	28.37
402.485	28.26
402.692	28.25
402.899	28.47
403.105	28.49
403.312	28.41
403.519	28.31
403.725	28.29
403.932	28.21
404.138	28.07
404.345	28.03
404.552	28.03
404.758	28.13
404.965	28.17
405.171	28.04
405.378	27.88
405.584	28.11
405.791	28.15
405.997	28.32
406.204	28.35
406.41	28.48
406.617	28.53
406.823	28.42
407.029	28.62
407.236	28.54
407.442	28.62
407.649	28.81
407.855	28.86
408.061	28.83
408.268	28.7
408.474	28.62
408.68	28.59
408.887	28.63
409.093	28.85
409.299	28.71
409.505	28.64
409.712	28.68
409.918	28.58
410.124	28.48
410.33	28.73
410.537	28.92
410.743	28.93
410.949	28.92
411.155	28.98
411.361	28.9
411.567	28.92
411.773	29.03
411.98	29.06
412.186	29.05
412.392	29.09
412.598	28.75
412.804	28.75
413.01	28.69
413.216	28.61
413.422	28.7
413.628	28.91
413.834	29
414.04	29.19
414.246	29.15
414.452	29.17
414.658	29.23
414.864	29.36
415.07	29.27
415.275	29.32
415.481	29.4
415.687	29.35
415.893	29.15
416.099	29.23
416.305	29.11
416.511	29.3
416.716	29.48
416.922	29.46
417.128	29.57
417.334	29.67
417.539	29.75
417.745	29.79
417.951	29.77
418.157	29.85
418.362	29.82
418.568	29.9
418.774	29.86
418.979	29.85
419.185	29.89
419.391	29.8
419.596	29.77
419.802	29.8
420.008	29.76
420.213	29.81
420.419	29.83
420.624	29.85
420.83	29.9
421.035	29.83
421.241	29.87
421.446	29.89
421.652	29.99
421.857	30.1
422.063	30.11
422.268	30.21
422.474	30.16
422.679	30.08
422.885	30.26
423.09	30.3
423.295	30.4
423.501	30.35
423.706	30.32
423.911	30.28
424.117	30.33
424.322	30.37
424.527	30.31
424.733	30.4
424.938	30.59
425.143	30.46
425.349	30.44
425.554	30.45
425.759	30.42
425.964	30.56
426.169	30.51
426.375	30.41
426.58	30.36
426.785	30.43
426.99	30.5
427.195	30.43
427.4	30.4
427.605	30.47
427.811	30.46
428.016	30.66
428.221	30.62
428.426	30.74
428.631	30.85
428.836	30.95
429.041	31.02
429.246	30.92
429.451	30.99
429.656	31.11
429.861	31.05
430.066	31.17
430.271	31.09
430.476	31.11
430.681	31.04
430.886	31.02
431.09	31.06
431.295	31.06
431.5	31.14
431.705	31.17
431.91	31.11
432.115	31.28
432.32	31.21
432.524	31.34
432.729	31.4
432.934	31.69
433.139	31.66
433.343	31.73
433.548	31.76
433.753	31.76
433.958	31.83
434.162	31.82
434.367	31.77
434.572	31.97
434.776	31.96
434.981	31.96
435.186	31.95
435.39	32.15
435.595	32.27
435.799	32.25
436.004	32.32
436.209	32.32
436.413	32.45
436.618	32.43
436.822	32.33
437.027	32.32
437.231	32.38
437.436	32.39
437.64	32.37
437.845	32.26
438.049	32.28
438.253	32.36
438.458	32.42
438.662	32.43
438.867	32.5
439.071	32.48
439.275	32.64
439.48	32.5
439.684	32.43
439.888	32.46
440.093	32.51
440.297	32.51
440.501	32.48
440.706	32.44
440.91	32.46
441.114	32.46
441.318	32.47
441.523	32.39
441.727	32.51
441.931	32.53
442.135	32.54
442.339	32.5
442.543	32.55
442.748	32.57
442.952	32.67
443.156	32.73
443.36	32.65
443.564	32.7
443.768	32.76
443.972	32.88
444.176	33.01
444.38	33.09
444.584	33.12
444.788	33.05
444.992	33.11
445.196	33.09
445.4	33.09
445.604	33.16
445.808	33.13
446.012	33.06
446.216	32.99
446.42	32.86
446.624	32.75
446.828	32.75
447.032	32.8
447.235	32.75
447.439	32.68
447.643	32.6
447.847	32.53
448.051	32.57
448.254	32.65
448.458	32.54
448.662	32.65
448.866	32.72
449.069	32.73
449.273	32.71
449.477	32.74
449.681	32.85
449.884	32.91
450.088	33.06
450.292	33.15
450.495	33.06
450.699	33.14
450.902	33.16
451.106	33.1
451.31	33.08
451.513	33.12
451.717	33.03
451.92	33.01
452.124	32.95
452.327	32.96
452.531	32.98
452.734	33.03
452.938	33.01
453.141	33
453.345	32.98
453.548	33.02
453.752	33.02
453.955	33.17
454.158	33.22
454.362	33.36
454.565	33.29
454.769	33.25
454.972	33.28
455.175	33.42
455.379	33.35
455.582	33.43
455.785	33.46
455.988	33.47
456.192	33.49
456.395	33.42
456.598	33.24
456.801	33.13
457.005	33.04
457.208	33.04
457.411	32.89
457.614	33.04
457.817	32.92
458.021	33
458.224	32.97
458.427	32.9
458.63	32.83
458.833	32.85
459.036	32.95
459.239	32.97
459.442	32.91
459.645	32.96
459.848	32.86
460.051	32.97
460.254	32.99
460.457	32.96
460.66	32.98
460.863	33.16
461.066	33.14
461.269	33.15
461.472	33.13
461.675	33.23
461.878	33.38
462.081	33.36
462.284	33.39
462.486	33.37
462.689	33.51
462.892	33.56
463.095	33.4
463.298	33.54
463.5	33.51
463.703	33.6
463.906	33.5
464.109	33.25
464.311	33.36
464.514	33.26
464.717	33.15
464.92	33.08
465.122	33.07
465.325	33.04
465.528	32.85
465.73	32.77
465.933	32.79
466.135	32.8
466.338	32.91
466.541	32.93
466.743	32.96
466.946	32.98
467.148	33.01
467.351	33.01
467.553	33.04
467.756	33.23
467.958	33.32
468.161	33.35
468.363	33.42
468.566	33.4
468.768	33.47
468.971	33.49
469.173	33.59
469.375	33.64
469.578	33.53
469.78	33.59
469.983	33.59
470.185	33.58
470.387	33.48
470.59	33.38
470.792	33.36
470.994	33.15
471.196	33.22
471.399	33.21
471.601	33.22
471.803	33.26
472.005	33.35
472.208	33.3
472.41	33.42
472.612	33.54
472.814	33.53
473.016	33.52
473.218	33.62
473.421	33.53
473.623	33.4
473.825	33.26
474.027	33.31
474.229	33.28
474.431	33.25
474.633	33.07
474.835	32.94
475.037	33.05
475.239	33.13
475.441	33.1
475.643	33.18
475.845	33.21
476.047	33.31
476.249	33.32
476.451	33.17
476.653	33.21
476.855	33.25
477.057	33.31
477.258	33.3
477.46	33.22
477.662	33.21
477.864	33.11
478.066	33.12
478.268	33.07
478.469	33.08
478.671	33.18
478.873	33.27
479.075	33.25
479.276	33.26
479.478	33.27
479.68	33.29
479.882	33.32
480.083	33.33
480.285	33.43
480.487	33.45
480.688	33.46
480.89	33.42
481.091	33.38
481.293	33.39
481.495	33.45
481.696	33.37
481.898	33.35
482.099	33.35
482.301	33.39
482.502	33.28
482.704	33.31
482.905	33.28
483.107	33.25
483.308	33.24
483.51	33.26
483.711	33.23
483.913	33.25
484.114	33.24
484.315	33.24
484.517	33.21
484.718	33.23
484.92	33.25
485.121	33.21
485.322	33.22
485.524	33.22
485.725	33.24
485.926	33.27
486.127	33.28
486.329	33.29
486.53	33.31
486.731	33.29
486.932	33.29
487.134	33.28
487.335	33.25
487.536	33.27
487.737	33.25
487.938	33.25
488.139	33.2
488.341	33.19
488.542	33.2
488.743	33.22
488.944	33.27
489.145	33.29
489.346	33.25
489.547	33.35
489.748	33.38
489.949	33.37
490.15	33.34
490.351	33.45
490.552	33.41
490.753	33.49
490.954	33.48
491.155	33.42
491.356	33.4
491.557	33.44
491.758	33.45
491.959	33.47
492.159	33.55
492.36	33.56
492.561	33.55
492.762	33.56
492.963	33.55
493.164	33.52
493.364	33.54
493.565	33.54
493.766	33.51
493.967	33.53
494.167	33.48
494.368	33.47
494.569	33.53
494.769	33.48
494.97	33.54
495.171	33.54
495.371	33.62
495.572	33.74
495.773	33.85
495.973	33.91
496.174	33.89
496.375	33.97
496.575	33.91
496.776	33.87
496.976	33.91
497.177	33.99
497.377	33.9
497.578	33.85
497.778	33.87
497.979	33.79
498.179	33.75
498.38	33.73
498.58	33.69
498.78	33.74
498.981	33.76
499.181	33.8
499.382	33.66
499.582	33.72
499.782	33.76
499.983	33.83
500.183	33.85
500.383	33.84
500.584	33.87
500.784	33.91
500.984	33.91
501.184	33.98
501.385	34.01
501.585	34.09
501.785	34.15
501.985	34.24
502.185	34.1
502.386	34.23
502.586	34.34
502.786	34.37
502.986	34.43
503.186	34.5
503.386	34.44
503.586	34.41
503.786	34.4
503.987	34.36
504.187	34.33
504.387	34.39
504.587	34.26
504.787	34.24
504.987	34.21
505.187	34.09
505.387	34.02
505.587	34
505.786	33.98
505.986	34.05
506.186	34.04
506.386	34.08
506.586	34.16
506.786	34.28
506.986	34.39
507.186	34.46
507.386	34.55
507.585	34.59
507.785	34.68
507.985	34.67
508.185	34.66
508.384	34.68
508.584	34.65
508.784	34.62
508.984	34.6
509.183	34.53
509.383	34.57
509.583	34.53
509.782	34.6
509.982	34.62
510.182	34.67
510.381	34.65
510.581	34.73
510.781	34.78
510.98	34.76
511.18	34.72
511.379	34.72
511.579	34.71
511.778	34.84
511.978	34.75
512.177	34.66
512.377	34.6
512.576	34.65
512.776	34.6
512.975	34.62
513.175	34.66
513.374	34.76
513.573	34.69
513.773	34.67
513.972	34.61
514.172	34.64
514.371	34.73
514.57	34.78
514.77	34.7
514.969	34.73
515.168	34.74
515.367	34.75
515.567	34.81
515.766	34.97
515.965	35.04
516.164	35.03
516.364	35.14
516.563	35.19
516.762	35.21
516.961	35.29
517.16	35.25
517.359	35.18
517.559	35.12
517.758	35.08
517.957	35.06
518.156	35.03
518.355	34.99
518.554	34.9
518.753	34.87
518.952	34.83
519.151	34.79
519.35	34.88
519.549	34.88
519.748	34.92
519.947	34.88
520.146	34.95
520.345	34.94
520.544	35
520.743	35.01
520.942	35.07
521.141	35.04
521.339	35.11
521.538	35
521.737	35.06
521.936	35.06
522.135	35.12
522.333	35.02
522.532	35.06
522.731	35.13
522.93	35.17
523.129	35.16
523.327	35.11
523.526	35.08
523.725	35.15
523.923	35.1
524.122	35.04
524.321	35.03
524.519	35.14
524.718	35.11
524.917	35.08
525.115	35.09
525.314	35.05
525.512	35.15
525.711	35.17
525.909	35.15
526.108	35.16
526.306	35.21
526.505	35.17
526.703	35.08
526.902	35.13
527.1	35.1
527.299	35.07
527.497	35.06
527.696	35.07
527.894	35.07
528.092	35.07
528.291	35.04
528.489	35.06
528.688	35.12
528.886	35.11
529.084	35.05
529.283	35.06
529.481	35.04
529.679	35.01
529.877	35.01
530.076	35.02
530.274	35.01
530.472	35.03
530.67	35.04
530.869	34.96
531.067	34.99
531.265	35.05
531.463	35.11
531.661	35.17
531.859	35.24
532.057	35.2
532.255	35.16
532.454	35.17
532.652	35.18
532.85	35.13
533.048	35.14
533.246	35.13
533.444	35.15
533.642	35.12
533.84	35.1
534.038	35.1
534.236	35.18
534.434	35.22
534.632	35.22
534.83	35.26
535.027	35.26
535.225	35.34
535.423	35.39
535.621	35.46
535.819	35.41
536.017	35.44
536.215	35.44
536.412	35.41
536.61	35.48
536.808	35.49
537.006	35.55
537.203	35.62
537.401	35.64
537.599	35.68
537.797	35.68
537.994	35.71
538.192	35.77
538.39	35.8
538.587	35.87
538.785	35.76
538.983	35.77
539.18	35.81
539.378	35.86
539.575	35.82
539.773	35.82
539.97	35.81
540.168	35.8
540.366	35.78
540.563	35.76
540.761	35.78
540.958	35.83
541.155	35.87
541.353	35.86
541.55	35.82
541.748	35.84
541.945	35.81
542.143	35.81
542.34	35.92
542.537	35.93
542.735	35.99
542.932	35.91
543.129	35.96
543.327	35.95
543.524	35.96
543.721	36.06
543.919	36.13
544.116	36.23
544.313	36.25
544.51	36.3
544.708	36.37
544.905	36.49
545.102	36.59
545.299	36.63
545.496	36.64
545.693	36.68
545.891	36.69
546.088	36.66
546.285	36.68
546.482	36.64
546.679	36.57
546.876	36.57
547.073	36.49
547.27	36.46
547.467	36.47
547.664	36.48
547.861	36.42
548.058	36.3
548.255	36.26
548.452	36.07
548.649	36.05
548.846	36.04
549.043	35.97
549.24	35.9
549.437	35.91
549.633	35.74
549.83	35.71
550.027	35.69
550.224	35.62
550.421	35.6
550.618	35.71
550.814	35.75
551.011	35.68
551.208	35.61
551.405	35.48
551.601	35.53
551.798	35.52
551.995	35.58
552.191	35.61
552.388	35.6
552.585	35.55
552.781	35.39
552.978	35.32
553.175	35.32
553.371	35.38
553.568	35.5
553.764	35.29
553.961	35.38
554.157	35.18
554.354	35.14
554.55	35.2
554.747	35.28
554.943	35.46
555.14	35.47
555.336	35.52
555.533	35.54
555.729	35.56
555.926	35.74
556.122	35.73
556.318	35.99
556.515	36.03
556.711	36.04
556.907	35.98
557.104	35.96
557.3	35.95
557.496	35.85
557.693	35.78
557.889	35.68
558.085	35.69
558.281	35.63
558.478	35.51
558.674	35.56
558.87	35.5
559.066	35.59
559.262	35.52
559.459	35.59
559.655	35.69
559.851	35.74
560.047	35.8
560.243	35.74
560.439	35.68
560.635	35.64
560.831	35.57
561.027	35.61
561.223	35.51
561.419	35.54
561.615	35.58
561.811	35.52
562.007	35.58
562.203	35.6
562.399	35.47
562.595	35.51
562.791	35.48
562.987	35.39
563.183	35.45
563.379	35.55
563.575	35.57
563.771	35.53
563.966	35.54
564.162	35.5
564.358	35.51
564.554	35.6
564.75	35.58
564.945	35.67
565.141	35.72
565.337	35.64
565.533	35.59
565.728	35.5
565.924	35.52
566.12	35.34
566.315	35.27
566.511	35.25
566.707	35.29
566.902	35.3
567.098	35.32
567.293	35.33
567.489	35.4
567.684	35.38
567.88	35.38
568.076	35.47
568.271	35.65
568.467	35.72
568.662	35.67
568.858	35.79
569.053	35.77
569.248	35.73
569.444	35.65
569.639	35.63
569.835	35.71
570.03	35.76
570.225	35.61
570.421	35.69
570.616	35.57
570.812	35.67
571.007	35.61
571.202	35.61
571.397	35.64
571.593	35.66
571.788	35.65
571.983	35.64
572.178	35.69
572.374	35.74
572.569	35.77
572.764	35.93
572.959	35.76
573.154	35.75
573.35	35.74
573.545	35.83
573.74	35.9
573.935	36.07
574.13	36.12
574.325	36.18
574.52	36.17
574.715	36.11
574.91	36.16
575.105	36.42
575.3	36.45
575.495	36.56
575.69	36.45
575.885	36.57
576.08	36.37
576.275	36.41
576.47	36.33
576.665	36.38
576.86	36.43
577.055	36.31
577.25	36.15
577.444	36.12
577.639	36.1
577.834	36.23
578.029	36.17
578.224	36.21
578.418	36.21
578.613	36.3
578.808	36.26
579.003	36.32
579.197	36.45
579.392	36.44
579.587	36.38
579.781	36.49
579.976	36.33
580.171	36.2
580.365	36.29
580.56	36.28
580.755	36.23
580.949	36.41
581.144	36.24
581.338	36.24
581.533	36.4
581.727	36.55
581.922	36.5
582.116	36.74
582.311	36.9
582.505	36.92
582.7	37.05
582.894	37.23
583.089	37.26
583.283	37.41
583.478	37.4
583.672	37.34
583.866	37.19
584.061	37.28
584.255	37.12
584.449	37.02
584.644	37.02
584.838	36.89
585.032	36.79
585.226	36.76
585.421	36.83
585.615	36.97
585.809	37.2
586.003	37.49
586.198	37.46
586.392	37.57
586.586	37.54
586.78	37.53
586.974	37.66
587.168	37.66
587.363	37.58
587.557	37.54
587.751	37.4
587.945	37.17
588.139	37.02
588.333	37.02
588.527	36.92
588.721	37.15
588.915	37.05
589.109	36.85
589.303	36.87
589.497	36.87
589.691	36.86
589.885	36.86
590.079	37.02
590.273	36.97
590.466	36.95
590.66	37.13
590.854	37.07
591.048	37.18
591.242	37.4
591.436	37.43
591.629	37.45
591.823	37.47
592.017	37.54
592.211	37.47
592.404	37.45
592.598	37.46
592.792	37.49
592.986	37.52
593.179	37.51
593.373	37.4
593.567	37.45
593.76	37.46
593.954	37.45
594.147	37.29
594.341	37.25
594.535	37.51
594.728	37.53
594.922	37.46
595.115	37.36
595.309	37.38
595.502	37.25
595.696	37.13
595.889	37.13
596.083	37.17
596.276	37.3
596.47	37.21
596.663	37.1
596.856	37.19
597.05	37.14
597.243	37.2
597.437	37.31
597.63	37.48
597.823	37.57
598.017	37.58
598.21	37.5
598.403	37.53
598.596	37.78
598.79	37.83
598.983	37.79
599.176	37.77
599.369	37.84
599.563	37.71
599.756	37.77
599.949	37.76
600.142	38.04
600.335	38.18
600.528	38.23
600.722	38.14
600.915	38.2
601.108	38.25
601.301	38.29
601.494	38.35
601.687	38.38
601.88	38.48
602.073	38.43
602.266	38.19
602.459	38.21
602.652	38.21
602.845	38.18
603.038	38.07
603.231	38.07
603.424	38.03
603.617	37.81
603.809	37.8
604.002	37.61
604.195	37.69
604.388	37.64
604.581	37.57
604.774	37.57
604.966	37.64
605.159	37.69
605.352	37.64
605.545	37.69
605.737	37.86
605.93	37.89
606.123	38.01
606.316	37.97
606.508	38.25
606.701	38.44
606.894	38.47
607.086	38.6
607.279	38.77
607.471	38.85
607.664	39.16
607.857	39.32
608.049	39.66
608.242	39.87
608.434	40.45
608.627	40.72
608.819	41.29
609.012	41.8
609.204	42.46
609.397	43.27
609.589	44.09
609.782	44.89
609.974	45.78
610.166	46.64
610.359	47.6
610.551	48.23
610.743	48.98
610.936	49.31
611.128	49.87
611.32	50.03
611.513	50.05
611.705	50.1
611.897	49.92
612.09	49.63
612.282	49.25
612.474	48.66
612.666	47.95
612.858	47.4
613.051	47.21
613.243	46.68
613.435	46.3
613.627	45.92
613.819	45.43
614.011	44.96
614.203	44.55
614.395	44.14
614.588	43.84
614.78	43.83
614.972	43.63
615.164	43.15
615.356	42.89
615.548	42.67
615.74	42.32
615.932	41.96
616.124	41.59
616.315	41.44
616.507	41.1
616.699	41.05
616.891	40.73
617.083	40.51
617.275	40.37
617.467	40.2
617.659	39.95
617.85	39.86
618.042	39.92
618.234	39.94
618.426	39.81
618.618	40.03
618.809	39.88
619.001	40.05
619.193	40.08
619.384	40.2
619.576	40.27
619.768	40.39
619.959	40.37
620.151	40.4
620.343	40.47
620.534	40.47
620.726	40.24
620.917	40.11
621.109	40.01
621.301	40.05
621.492	39.87
621.684	39.77
621.875	39.61
622.067	39.83
622.258	39.75
622.45	39.76
622.641	39.74
622.832	39.87
623.024	40.05
623.215	39.93
623.407	40.06
623.598	40.16
623.789	40.19
623.981	40.39
624.172	40.13
624.363	40.23
624.555	40.09
624.746	40.22
624.937	40.16
625.129	40.16
625.32	40.29
625.511	40.26
625.702	40.31
625.893	40.33
626.085	40.28
626.276	40.33
626.467	40.37
626.658	40.55
626.849	40.48
627.04	40.43
627.231	40.41
627.422	40.58
627.614	40.53
627.805	40.55
627.996	40.63
628.187	40.73
628.378	40.9
628.569	41.06
628.76	41.16
628.951	41.34
629.142	41.63
629.332	41.66
629.523	41.63
629.714	41.74
629.905	41.82
630.096	41.88
630.287	41.98
630.478	41.71
630.669	41.59
630.859	41.57
631.05	41.51
631.241	41.21
631.432	41.23
631.623	40.86
631.813	40.61
632.004	40.42
632.195	40.49
632.385	40.22
632.576	40.21
632.767	40.18
632.957	39.97
633.148	39.82
633.339	39.89
633.529	39.82
633.72	39.83
633.91	39.82
634.101	39.68
634.292	39.3
634.482	39.26
634.673	39.34
634.863	39.29
635.054	39.01
635.244	38.94
635.435	38.9
635.625	38.83
635.815	38.9
636.006	38.86
636.196	39.03
636.387	39.24
636.577	39.44
636.767	39.31
636.958	39.22
637.148	39.5
637.338	39.72
637.529	39.66
637.719	39.66
637.909	39.74
638.099	39.79
638.29	39.85
638.48	39.81
638.67	39.78
638.86	40.05
639.05	40.05
639.241	40.11
639.431	39.74
639.621	39.75
639.811	40
640.001	39.75
640.191	39.82
640.381	39.84
640.571	39.77
640.761	39.52
640.951	39.42
641.141	39.36
641.331	39.34
641.521	39.68
641.711	39.8
641.901	39.51
642.091	39.79
642.281	39.62
642.471	39.53
642.661	39.67
642.851	39.79
643.041	39.48
643.231	39.61
643.42	39.52
643.61	39.43
643.8	39.18
643.99	39.31
644.18	39.1
644.369	39.1
644.559	39.19
644.749	39.12
644.939	39.35
645.128	39.77
645.318	39.59
645.508	39.62
645.697	39.55
645.887	39.7
646.076	39.5
646.266	39.75
646.456	39.93
646.645	39.84
646.835	39.77
647.024	39.66
647.214	39.58
647.403	39.88
647.593	40.09
647.782	40.01
647.972	40.11
648.161	40.24
648.351	40.15
648.54	40.3
648.73	40.39
648.919	40.47
649.108	40.54
649.298	40.26
649.487	40.39
649.677	40.22
649.866	40.41
650.055	40.7
650.244	40.72
650.434	40.64
650.623	40.45
650.812	40.41
651.002	40.42
651.191	40.48
651.38	40.7
651.569	40.63
651.758	40.68
651.947	40.75
652.137	40.57
652.326	40.72
652.515	40.91
652.704	40.95
652.893	40.99
653.082	41.07
653.271	41.35
653.46	41.38
653.649	41.08
653.838	40.89
654.027	40.76
654.216	40.48
654.405	40.32
654.594	40.03
654.783	40.09
654.972	39.85
655.161	39.71
655.35	39.16
655.539	39.22
655.728	39.51
655.916	39.5
656.105	39.52
656.294	39.85
656.483	39.99
656.672	40.42
656.86	40.35
657.049	40.59
657.238	40.66
657.427	40.58
657.615	40.47
657.804	40.21
657.993	40.32
658.181	40.42
658.37	40.35
658.559	40.33
658.747	40.19
658.936	40.24
659.125	40.46
659.313	40.49
659.502	40.66
659.69	40.66
659.879	40.86
660.067	40.91
660.256	40.95
660.444	41.03
660.633	41.16
660.821	41.25
661.01	41.19
661.198	40.86
661.387	41.04
661.575	40.91
661.763	41.14
661.952	41.15
662.14	41.53
662.328	41.49
662.517	41.27
662.705	41.3
662.893	41.04
663.082	41.04
663.27	41.26
663.458	41.05
663.646	41.36
663.834	41.36
664.023	41.45
664.211	41.42
664.399	41.64
664.587	41.71
664.775	41.45
664.963	41.74
665.152	41.98
665.34	41.9
665.528	42
665.716	41.69
665.904	41.75
666.092	41.6
666.28	41.59
666.468	41.5
666.656	41.77
666.844	41.9
667.032	41.88
667.22	42.07
667.408	42.01
667.596	42.06
667.784	42.19
667.971	41.97
668.159	42.11
668.347	41.93
668.535	41.73
668.723	41.8
668.911	41.97
669.098	41.71
669.286	41.45
669.474	41.73
669.662	41.54
669.849	41.69
670.037	41.77
670.225	41.84
670.413	41.85
670.6	42.22
670.788	42.16
670.976	41.8
671.163	41.83
671.351	41.84
671.538	41.34
671.726	41.58
671.913	41.52
672.101	41.69
672.289	41.61
672.476	41.48
672.664	41.38
672.851	41.34
673.039	41.62
673.226	41.91
673.413	42
673.601	42.32
673.788	42.28
673.976	42.11
674.163	42.23
674.35	42.41
674.538	42.51
674.725	42.62
674.912	42.72
675.1	42.8
675.287	42.76
675.474	42.71
675.662	42.82
675.849	42.92
676.036	43.03
676.223	42.7
676.411	42.58
676.598	42.47
676.785	42.14
676.972	41.96
677.159	41.6
677.346	41.64
677.533	41.8
677.721	41.87
677.908	41.76
678.095	41.95
678.282	41.96
678.469	41.89
678.656	42.13
678.843	42.36
679.03	42.58
679.217	42.7
679.404	42.53
679.591	42.2
679.778	42.04
679.964	41.8
680.151	41.58
680.338	41.63
680.525	41.58
680.712	41.63
680.899	41.48
681.086	41.19
681.272	41.3
681.459	41.59
681.646	41.86
681.833	41.83
682.02	42.22
682.206	42.4
682.393	42.73
682.58	42.99
682.766	42.79
682.953	42.92
683.14	42.9
683.326	43.1
683.513	42.74
683.7	42.5
683.886	42.61
684.073	42.52
684.259	42.19
684.446	42.11
684.632	42.17
684.819	42.09
685.005	42.18
685.192	42.63
685.378	42.37
685.565	42.78
685.751	42.97
685.938	42.99
686.124	42.94
686.31	43.21
686.497	42.99
686.683	42.91
686.87	43.12
687.056	43.18
687.242	42.8
687.429	42.64
687.615	42.52
687.801	42.37
687.987	42.51
688.174	42.61
688.36	42.6
688.546	42.42
688.732	42.27
688.918	42.08
689.105	42.08
689.291	42.24
689.477	42.73
689.663	42.67
689.849	42.79
690.035	42.59
690.221	42.52
690.407	42.55
690.593	42.47
690.779	42.44
690.965	42.54
691.151	42.67
691.337	42.73
691.523	42.6
691.709	42.68
691.895	43.02
692.081	43.01
692.267	42.98
692.453	43.12
692.639	43.53
692.825	43.76
693.011	44.16
693.196	44.15
693.382	44.36
693.568	44.49
693.754	44.28
693.94	43.98
694.125	44.14
694.311	44.3
694.497	44.47
694.682	44.3
694.868	44.26
695.054	44.15
695.239	44.12
695.425	43.77
695.611	43.65
695.796	43.91
695.982	43.7
696.168	43.84
696.353	43.91
696.539	43.79
696.724	43.91
696.91	44.04
697.095	43.92
697.281	43.82
697.466	44.25
697.652	44.28
697.837	44.31
698.023	44.57
698.208	44.61
698.393	44.63
698.579	44.72
698.764	44.7
698.949	44.71
699.135	44.7
699.32	44.77
699.505	44.63
699.691	44.63
699.876	44.72
700.061	44.6
700.246	44.46
700.432	44.28
700.617	44.47
700.802	44.54
700.987	44.34
701.172	44.66
701.358	44.79
701.543	44.83
701.728	44.84
701.913	45.01
702.098	45.25
702.283	45.26
702.468	45.42
702.653	45.24
702.838	45.39
703.023	45.3
703.208	45.17
703.393	45.37
703.578	45.36
703.763	45.74
703.948	45.79
704.133	46.08
704.318	46.47
704.503	46.97
704.688	47.49
704.873	47.79
705.057	48.65
705.242	48.4
705.427	48.46
705.612	49.15
705.797	49.39
705.981	49.77
706.166	50.34
706.351	51.42
706.536	51.61
706.72	51.36
706.905	51.81
707.09	51.76
707.274	52.3
707.459	52.29
707.644	52.23
707.828	52.03
708.013	51.65
708.197	51.49
708.382	50.66
708.567	50.22
708.751	50.17
708.936	49.91
709.12	49.71
709.305	49.73
709.489	49.65
709.673	49.42
709.858	49.42
710.042	49.41
710.227	48.9
710.411	48.76
710.596	48.99
710.78	48.94
710.964	48.99
711.149	49.27
711.333	49.38
711.517	49.36
711.702	49.27
711.886	49.27
712.07	49.27
712.254	49.22
712.438	48.9
712.623	48.75
712.807	49.12
712.991	48.86
713.175	49.01
713.359	48.47
713.544	48.64
713.728	48.53
713.912	48.5
714.096	48.48
714.28	48.58
714.464	48.97
714.648	48.86
714.832	48.4
715.016	48.46
715.2	47.77
715.384	48.11
715.568	48.19
715.752	48.21
715.936	47.82
716.12	47.93
716.304	47.88
716.488	47.77
716.671	47.52
716.855	47.81
717.039	47.71
717.223	47.73
717.407	47.44
717.59	46.8
717.774	47.27
717.958	47.5
718.142	47.47
718.325	46.93
718.509	46.76
718.693	47.08
718.877	46.89
719.06	47.02
719.244	47.42
719.428	47.16
719.611	47.63
719.795	46.88
719.978	47.05
720.162	47.43
720.345	47.95
720.529	48.62
720.713	48.34
720.896	48.53
721.08	48.27
721.263	48.3
721.446	49.01
721.63	48.82
721.813	48.76
721.997	48.52
722.18	48.84
722.364	48.9
722.547	48.23
722.73	48.69
722.914	48.3
723.097	48.94
723.28	48.99
723.464	48.72
723.647	49.08
723.83	49.47
724.013	49.46
724.197	49.2
724.38	49.57
724.563	49.78
724.746	50.07
724.929	50.08
725.112	49.89
725.296	49.77
725.479	50.17
725.662	50.06
725.845	49.73
726.028	50.28
726.211	50.31
726.394	49.81
726.577	49.86
726.76	49.24
726.943	49.46
727.126	49.45
727.309	49.15
727.492	49.1
727.675	48.91
727.858	49.29
728.041	48.98
728.224	48.52
728.407	48.95
728.589	48.88
728.772	49.22
728.955	49.19
729.138	48.7
729.321	49.23
729.503	49.09
729.686	49.14
729.869	49.01
730.052	49.14
730.234	49.19
730.417	49.25
730.6	49.42
730.782	49.52
730.965	49.67
731.148	49.91
731.33	49.6
731.513	49.54
731.695	49.36
731.878	49.63
732.061	49.56
732.243	49.73
732.426	49.44
732.608	49.55
732.791	49.22
732.973	49.44
733.156	49.6
733.338	49.92
733.52	50.03
733.703	50.22
733.885	50.14
734.068	50.28
734.25	50.32
734.432	50.78
734.615	50.75
734.797	51.15
734.979	50.96
735.162	51.15
735.344	50.73
735.526	50.65
735.708	51.18
735.891	50.85
736.073	51.29
736.255	51.25
736.437	51.04
736.619	50.72
736.802	50.73
736.984	50.38
737.166	50.21
737.348	50.62
737.53	50.69
737.712	50.26
737.894	50.28
738.076	49.73
738.258	49.81
738.44	50.35
738.622	50.32
738.804	50.41
738.986	50.6
739.168	50.87
739.35	51.34
739.532	51.11
739.714	51.31
739.896	52.09
740.078	52.34
740.259	52.21
740.441	51.81
740.623	52.72
740.805	52.28
740.987	52.58
741.168	52.79
741.35	52.66
741.532	52.93
741.714	52.74
741.895	52.5
742.077	52.57
742.259	53.37
742.44	53.15
742.622	52.85
742.804	53.45
742.985	52.92
743.167	52.54
743.348	52.36
743.53	52.18
743.711	52.7
743.893	52.74
744.075	52.37
744.256	51.7
744.438	51.61
744.619	51.37
744.8	50.8
744.982	51.16
745.163	51.06
745.345	51.14
745.526	52.02
745.707	52.1
745.889	51.66
746.07	52.34
746.252	52.37
746.433	52.98
746.614	53.33
746.795	54.15
746.977	54.65
747.158	54.78
747.339	54.08
747.52	53.7
747.702	53.65
747.883	53.63
748.064	53.33
748.245	53
748.426	52.9
748.607	52.56
748.788	51.99
748.97	52.25
749.151	51.65
749.332	52.5
749.513	52.58
749.694	52.39
749.875	52.55
750.056	52.74
750.237	52.66
750.418	53.2
750.599	53.29
750.78	53.89
750.96	53.5
751.141	53.73
751.322	53.51
751.503	53.04
751.684	52.53
751.865	53.16
752.046	53.19
752.226	53.54
752.407	52.91
752.588	53.72
752.769	53.1
752.949	52.22
753.13	53.04
753.311	53.09
753.492	53.69
753.672	53.83
753.853	53.91
754.034	54.15
754.214	53.78
754.395	54.06
754.575	53.75
754.756	54.16
754.937	55.15
755.117	55.08
755.298	55.28
755.478	55.01
755.659	55.04
755.839	54.24
756.02	53.86
756.2	55.58
756.381	55.55
756.561	55.6
756.741	55.5
756.922	54.92
757.102	54.83
757.283	54.39
757.463	54.48
757.643	55.1
757.823	55.28
758.004	54.74
758.184	53.63
758.364	53.32
758.545	53.74
758.725	52.95
758.905	53.64
759.085	53.23
759.265	53.11
759.446	53.08
759.626	53.24
759.806	53.22
759.986	53.84
760.166	53.05
760.346	52.85
760.526	51.8
760.706	52.52
760.886	52.13
761.066	52.27
761.246	52.76
761.426	52.38
761.606	51.91
761.786	52.06
761.966	51.85
762.146	52.72
762.326	53.39
762.506	53.56
762.686	53.34
762.866	53.89
763.046	53.8
763.225	53.66
763.405	53.86
763.585	53.97
763.765	53.92
763.945	53.87
764.124	53.17
764.304	52.93
764.484	53.18
764.664	53.37
764.843	53.24
765.023	53.45
765.203	53.28
765.382	53.93
765.562	53.85
765.741	53.72
765.921	54.67
766.101	55.69
766.28	55.39
766.46	55.22
766.639	55.76
766.819	55.91
766.998	55.9
767.178	56.4
767.357	56.02
767.537	56.22
767.716	56.88
767.896	56.3
768.075	55.53
768.254	56.1
768.434	55.93
768.613	55.35
768.792	54.72
768.972	54.86
769.151	55.28
769.33	55.72
769.51	56.27
769.689	56.66
769.868	57.02
770.047	57.83
770.226	57.3
770.406	57.42
770.585	57.14
770.764	57.84
770.943	58.04
771.122	57.6
771.301	58.06
771.48	56.44
771.66	56.54
771.839	56.48
772.018	55.7
772.197	56.34
772.376	57.13
772.555	57.44
772.734	57.3
772.913	56.94
773.092	56.38
773.271	55.24
773.449	56.36
773.628	55.7
773.807	55.02
773.986	55.94
774.165	55.98
774.344	55.41
774.523	55.72
774.701	56.12
774.88	56.05
775.059	56.82
775.238	56.89
775.417	57.67
775.595	57.44
775.774	58.12
775.953	58.06
776.131	57.73
776.31	58.17
776.489	58.22
776.667	57.68
776.846	58.65
777.025	58.35
777.203	57.93
777.382	57.4
777.56	58
777.739	57.62
777.917	57.08
778.096	56.24
778.274	56.23
778.453	56.76
778.631	55.79
778.81	55.78
778.988	55.83
779.166	56.41
779.345	56.83
779.523	56.58
779.702	56.79
779.88	57.08
780.058	58.62
780.237	58.65
780.415	58.58
780.593	60
780.771	59.34
780.95	59.42
781.128	58.76
781.306	59.24
781.484	60.05
781.662	60.21
781.841	59.66
782.019	59.87
782.197	59.9
782.375	59.65
782.553	59.33
782.731	59.13
782.909	59.56
783.087	60.37
783.265	58.92
783.443	58.67
783.621	58.74
783.799	57.84
783.977	58.02
784.155	58.13
784.333	57.64
784.511	57.39
784.689	56.83
784.867	56.86
785.045	56.73
785.223	58.22
785.4	57.78
785.578	57.82
785.756	58.5
785.934	57.39
786.112	56.39
786.289	56.87
786.467	56.59
786.645	58.29
786.823	57.74
787	57.42
787.178	56.38
787.356	56.43
787.533	55.95
787.711	56.95
787.889	56.93
788.066	57.04
788.244	57.07
788.421	57.99
788.599	57.29
788.776	57.01
788.954	57.29
789.131	57.62
789.309	57.72
789.486	57.88
789.664	58.08
789.841	57.77
790.019	57.49
790.196	57.11
790.373	57.52
790.551	58.22
790.728	58.61
790.906	58.36
791.083	57.99
791.26	57.79
791.437	57.97
791.615	58.11
791.792	59.65
791.969	61.04
792.146	61.57
792.324	60.59
792.501	60.69
792.678	60.92
792.855	60.67
793.032	60.25
793.209	60.36
793.387	59.97
793.564	60.05
793.741	59.51
793.918	59.56
794.095	58.69
794.272	58.92
794.449	58.21
794.626	57.7
794.803	58.13
794.98	59.1
795.157	59.63
795.334	59.67
795.511	58.96
795.688	58.39
795.864	57.79
796.041	57.57
796.218	57.87
796.395	57.74
796.572	57.05
796.749	56.51
796.925	55.83
797.102	54.95
797.279	54.89
797.456	54.88
797.632	55.65
797.809	55.69
797.986	56.95
798.162	55.58
798.339	55.09
798.516	56.82
798.692	57.7
798.869	58.1
799.046	57.73
799.222	57.62
799.399	58.68
799.575	59.36
799.752	59.19
799.928	58.29
800.105	59.72
800.281	60.65
800.458	59
800.634	57.73
800.811	57.61
800.987	58.3
801.163	58.52
801.34	57.84
801.516	56.12
801.692	56.11
801.869	56.52
802.045	56.29
802.221	56.11
802.398	56.05
802.574	57.08
802.75	58.3
802.926	58.63
803.103	59.05
803.279	58.97
803.455	60.76
803.631	61.56
803.807	61.05
803.983	61.13
804.16	62.02
804.336	64.7
804.512	63.99
804.688	62.47
804.864	62.21
805.04	62.36
805.216	62.55
805.392	60.76
805.568	60.67
805.744	60.3
805.92	59.69
806.096	59.6
806.272	58.65
806.448	59.13
806.623	59.29
806.799	59.44
806.975	59.61
807.151	58.8
807.327	60.18
807.503	60.31
807.678	61.31
807.854	62.27
808.03	61.33
808.206	60.62
808.381	60.75
808.557	60.06
808.733	60.15
808.908	60.76
809.084	60.57
809.26	59.16
809.435	56.69
809.611	56.4
809.787	55.82
809.962	55.71
810.138	54.78
810.313	54.59
810.489	55.22
810.664	55.31
810.84	54.56
811.015	54.69
811.191	56.11
811.366	58.35
811.542	58.38
811.717	59.48
811.892	59.67
812.068	60.04
812.243	59.94
812.419	60
812.594	57.68
812.769	55.7
812.944	56.54
813.12	54.34
813.295	52.69
813.47	51.19
813.645	49.24
813.821	49.18
813.996	49.09
814.171	49.89
814.346	50.35
814.521	52.41
814.697	53.93
814.872	54.44
815.047	55.48
815.222	56.04
815.397	57.73
815.572	56.99
815.747	56.61
815.922	56.34
816.097	55.11
816.272	54.69
816.447	54.09
816.622	55.14
816.797	53.47
816.972	54
817.147	55.54
817.322	56.22
817.496	57.41
817.671	58
817.846	58.33
818.021	58.79
818.196	58.97
818.371	59.47
818.545	59.89
818.72	60.18
818.895	59.75
819.069	58.85
819.244	58.62
819.419	58.75
819.594	57.64
819.768	58.87
819.943	58.88
820.117	59.14
820.292	58.97
820.467	58.03
820.641	58.4
820.816	57.77
820.99	57.51
821.165	56.85
821.339	56.24
821.514	56.53
821.688	56.06
821.863	55.98
822.037	55.7
822.212	55.45
822.386	55.38
822.56	55.32
822.735	55.51
822.909	55.43
823.084	55.41
823.258	55.45
823.432	55.3
823.606	55.15
823.781	55.37
823.955	55.4
824.129	55.59
824.303	55.7
824.478	55.92
824.652	55.52
824.826	55.69
825	55.88
825.174	56.2
825.348	56.11
825.523	56.29
825.697	55.5
825.871	55.58
826.045	55.5
826.219	55.46
826.393	55.09
826.567	56.04
826.741	55.92
826.915	56.03
827.089	56.11
827.263	56.29
827.437	56.18
827.611	56.68
827.784	56.8
827.958	56.85
828.132	57
828.306	57.04
828.48	56.69
828.654	57.1
828.827	57.94
829.001	58.12
829.175	58.99
829.349	59.61
829.522	59.87
829.696	59.56
829.87	59.67
830.044	59.47
830.217	60.37
830.391	60.49
830.565	60.58
830.738	59.72
830.912	60.39
831.085	60.39
831.259	60.58
831.432	60.09
831.606	61.08
831.779	61.57
831.953	61.13
832.126	59.11
832.3	58.46
832.473	57.66
832.647	58.81
832.82	57.86
832.994	57.37
833.167	56.63
833.34	56.83
833.514	56.7
833.687	56.18
833.86	56.35
834.034	56.64
834.207	56.46
834.38	56.48
834.553	54.73
834.727	54.79
834.9	54.43
835.073	55.41
835.246	54.7
835.419	54.22
835.593	54.68
835.766	54.61
835.939	54.77
836.112	55.18
836.285	55.21
836.458	57.72
836.631	57.33
836.804	57.68
836.977	57
837.15	57.94
837.323	57.41
837.496	57.74
837.669	57.93
837.842	58.72
838.015	58.59
838.188	58.47
838.361	56.12
838.533	56.34
838.706	57.26
838.879	58
839.052	57.34
839.225	57.32
839.398	56.38
839.57	54.34
839.743	51.79
839.916	53.36
840.088	51.88
840.261	52.15
840.434	51.55
840.607	51.32
840.779	49.71
840.952	50.3
841.124	52.09
841.297	52.01
841.47	54.36
841.642	55.87
841.815	55
841.987	56.85
842.16	56.35
842.332	58.17
842.505	56.49
842.677	56.33
842.85	56.58
843.022	56.93
843.194	59.24
843.367	57.17
843.539	57.93
843.712	57.5
843.884	58.1
844.056	59.21
844.229	57.68
844.401	60.99
844.573	61.57
844.745	61.42
844.918	59.24
845.09	57.93
845.262	61.1
845.434	63.1
845.606	61.69
845.779	61.69
845.951	64.06
846.123	68.09
846.295	68.6
846.467	69.34
846.639	67.47
846.811	68.98
846.983	69.04
847.155	70.27
847.327	69.58
847.499	73.91
847.671	74.36
847.843	68.57
848.015	66.97
848.187	62.46
848.359	62.73
848.531	62.48
848.703	61.2
848.875	62.23
849.047	60.89
849.218	60.03
849.39	57.83
849.562	57.42
849.734	59.14
849.905	62.09
850.077	67.64
850.249	66.96
850.421	74.79
850.592	72.45
850.764	71.76
850.936	72.2
851.107	73.18
851.279	71.08
851.451	74.82
851.622	77.12
851.794	73.73
851.965	67.3
852.137	65.37
852.308	60.52
852.48	62.92
852.651	62.79
852.823	63.89
852.994	59.65
853.166	61.65
853.337	58.73
853.509	56.8
853.68	56.17
853.851	56.05
854.023	55.16
854.194	57.25
854.365	59.46
854.537	56.96
854.708	57.4
854.879	63.71
855.05	64.89
855.222	61.88
855.393	66.13
855.564	66.7
855.735	67.83
855.906	71.26
856.078	69.43
856.249	67.73
856.42	71.38
856.591	66.94
856.762	64
856.933	61.7
857.104	63.55
857.275	63.29
857.446	59.85
857.617	57.43
857.788	55.62
857.959	56.26
858.13	56.56
858.301	55.18
858.472	55.83
858.643	52.47
858.814	52.61
858.985	51.03
859.155	47.76
859.326	50.97
859.497	56.34
859.668	59.47
859.839	57.18
860.009	53.9
860.18	55.06
860.351	53.7
860.522	59.96
860.692	57.4
860.863	61.22
861.034	63.4
861.204	59.44
861.375	59.66
861.546	59.55
861.716	60.28
861.887	66.35
862.057	64.95
862.228	61.85
862.398	57.44
862.569	61.91
862.739	56.51
862.91	57.91
863.08	63.12
863.251	62.81
863.421	63.75
863.592	66.21
863.762	61.84
863.932	62.11
864.103	66.42
864.273	65.27
864.443	65.96
864.614	69.28
864.784	63.92
864.954	62.78
865.125	60.96
865.295	59.61
865.465	55.23
865.635	51.28
865.805	49.78
865.976	48.48
866.146	49.18
866.316	47.63
866.486	47.64
866.656	47.46
866.826	45.45
866.996	46.73
867.166	44.45
867.336	47.11
867.506	54.3
867.676	53.19
867.846	54.14
868.016	54.63
868.186	54.77
868.356	53.02
868.526	58.97
868.696	61.55
868.866	61.07
869.036	59.82
869.206	60.11
869.376	53.13
869.545	60.42
869.715	59.42
869.885	58.05
870.055	57.74
870.224	56.66
870.394	58.88
870.564	58.37
870.734	56.97
870.903	59.09
871.073	59.93
871.243	65.36
871.412	62.79
871.582	64.62
871.751	66.01
871.921	61.5
872.091	60.52
872.26	56.81
872.43	53.29
872.599	54.59
872.769	50.65
872.938	47.22
873.108	45.45
873.277	39.59
873.446	35.64
873.616	37.2
873.785	40.99
873.955	42.31
874.124	43.61
874.293	42.4
874.463	37.83
874.632	40.19
874.801	45.45
874.971	46.19
875.14	48.49
875.309	52.13
875.478	48.18
875.647	50.8
875.817	51.74
875.986	49.27
876.155	54.51
876.324	59.31
876.493	61.17
876.662	52.84
876.831	52.05
877	49.78
877.17	47.52
877.339	53.32
877.508	46.97
877.677	43.78
877.846	41.77
878.015	40.94
878.184	41.11
878.352	38.39
878.521	46.21
878.69	48.86
878.859	54.68
879.028	56.46
879.197	55.65
879.366	54.19
879.534	55.05
879.703	58.91
879.872	57.7
880.041	56.9
880.21	57.8
880.378	56.66
880.547	54.64
880.716	52.63
880.884	52.89
881.053	51.24
881.222	51.55
881.39	51.28
881.559	49.42
881.727	49.25
881.896	49.5
882.065	48.41
882.233	48.38
882.402	48.94
882.57	48.93
882.739	48.47
882.907	48.49
883.076	48.35
883.244	48.24
883.412	48.71
883.581	47.86
883.749	47.01
883.918	47.72
884.086	47.62
884.254	47.11
884.423	47.38
884.591	47.22
884.759	46.99
884.927	46.22
885.096	45.01
885.264	45.07
885.432	47.44
885.6	47.84
885.769	46.68
885.937	42.85
886.105	43.53
886.273	43.16
886.441	43.52
886.609	44.72
886.777	46.54
886.945	46.47
887.113	45.99
887.281	40.78
887.449	42.02
887.617	42.42
887.785	44
887.953	42.19
888.121	42.85
888.289	40.46
888.457	37.09
888.625	39.71
888.793	44.16
888.961	41.53
889.129	46.66
889.296	41.86
889.464	41.92
889.632	44.22
889.8	43.95
889.967	40.28
890.135	41.5
