Data from 2938831__Reflection_02.txt Node
Date: Thu Mar 12 12:21:52 EDT 2015
User: robert
Spectrometer: USB4E03002
Autoset integration time: false
Trigger mode: 4
Integration Time (sec): 1.000000E-1
Scans to average: 10
Electric dark correction enabled: false
Nonlinearity correction enabled: false
Boxcar width: 5
Stray light correction enabled: false
XAxis mode: Wavelengths
Stop averaging: false
Number of Pixels in Spectrum: 3648
>>>>>Begin Spectral Data<<<<<
177.575	108.39
177.794	137.26
178.014	149.67
178.233	141.69
178.452	123.01
178.672	122.21
178.891	147.39
179.11	190.48
179.33	274.84
179.549	199.03
179.768	261.88
179.987	200
180.207	137.21
180.426	87.74
180.645	167.19
180.864	-642.86
181.084	229.85
181.303	105.65
181.522	115.38
181.741	98.8
181.96	115.65
182.179	57.79
182.398	62.73
182.618	93.97
182.837	276.25
183.056	130.37
183.275	142.27
183.494	197.54
183.713	232.16
183.932	166.76
184.151	146.69
184.37	143.55
184.589	147.58
184.808	121.56
185.027	125.81
185.246	123.34
185.465	117.38
185.684	127.68
185.903	94.71
186.122	89.45
186.341	113.88
186.56	123.89
186.779	119.88
186.998	135.92
187.216	149.9
187.435	139.4
187.654	101.71
187.873	151.3
188.092	116.84
188.311	135.18
188.53	165.41
188.748	106.65
188.967	96.07
189.186	68.74
189.405	71.51
189.623	69.89
189.842	70.51
190.061	79.12
190.28	66.33
190.498	67.79
190.717	57.85
190.936	55.59
191.154	62.99
191.373	80.29
191.592	109.03
191.81	117.33
192.029	170.41
192.248	349.26
192.466	269.87
192.685	248.8
192.904	166.34
193.122	159.58
193.341	122.42
193.559	87.13
193.778	44.34
193.996	49.93
194.215	37.29
194.433	36.06
194.652	29.51
194.87	26.14
195.089	29.84
195.307	43.23
195.526	45.15
195.744	50.23
195.963	94.63
196.181	201.48
196.399	342.7
196.618	457.25
196.836	-972.73
197.055	771.43
197.273	490.83
197.491	924.69
197.71	508.61
197.928	346.67
198.146	198.06
198.365	120.98
198.583	100.73
198.801	102.35
199.019	104.81
199.238	72.65
199.456	64.34
199.674	68.22
199.892	45.13
200.111	46.23
200.329	50.84
200.547	55.7
200.765	91.07
200.983	73.93
201.202	39.3
201.42	58.09
201.638	77.25
201.856	64.92
202.074	63.28
202.292	77.6
202.51	159.57
202.728	86.43
202.946	98.23
203.165	63.18
203.383	111.3
203.601	115.57
203.819	88.51
204.037	71.04
204.255	107.72
204.473	104.1
204.691	76.91
204.909	70.72
205.127	77.81
205.345	76.42
205.562	71.72
205.78	55.36
205.998	51.87
206.216	62.84
206.434	63.77
206.652	66.4
206.87	46.85
207.088	54.34
207.306	51.11
207.523	37.88
207.741	35.81
207.959	39.54
208.177	28.1
208.395	11.41
208.612	38.36
208.83	30.03
209.048	23.17
209.266	44.84
209.483	69.24
209.701	64.55
209.919	69.84
210.136	56.14
210.354	77.75
210.572	69.95
210.79	72.58
211.007	63.32
211.225	71.45
211.442	83.41
211.66	74.63
211.878	41.71
212.095	161.81
212.313	141.18
212.53	142.75
212.748	123.1
212.966	130.66
213.183	128.62
213.401	126.31
213.618	138.97
213.836	141.91
214.053	147.32
214.271	153.79
214.488	54.19
214.705	51.05
214.923	36.06
215.14	61.84
215.358	65.44
215.575	72.01
215.793	47.05
216.01	40.94
216.227	34.26
216.445	12.75
216.662	6.56
216.879	20.52
217.097	19.14
217.314	38.14
217.531	39.27
217.749	31.84
217.966	19.86
218.183	45.42
218.4	41.89
218.618	42.55
218.835	52.47
219.052	43.6
219.269	34.77
219.487	38.8
219.704	33.6
219.921	11.64
220.138	25.69
220.355	34.19
220.572	21.98
220.79	26.09
221.007	12.2
221.224	8.12
221.441	13.05
221.658	25.09
221.875	15.01
222.092	9.72
222.309	15.61
222.526	6.95
222.743	3.49
222.96	3.82
223.177	5.76
223.394	13.43
223.611	17.52
223.828	16.99
224.045	4.49
224.262	7.85
224.479	11.52
224.696	13.03
224.913	15.79
225.13	21.18
225.347	19.13
225.564	13.53
225.781	12.49
225.997	9.55
226.214	8.8
226.431	13.07
226.648	13.01
226.865	13.37
227.082	11.23
227.298	11.59
227.515	8.61
227.732	9.27
227.949	9.9
228.165	8.89
228.382	9.21
228.599	8.49
228.816	7.04
229.032	7.77
229.249	6.86
229.466	6.79
229.682	6.79
229.899	7.61
230.116	7.72
230.332	8.42
230.549	8.44
230.765	8.5
230.982	10.1
231.199	11.47
231.415	11.16
231.632	12.51
231.848	13.11
232.065	12.01
232.281	11.41
232.498	12.16
232.714	11.38
232.931	10.46
233.147	9.81
233.364	7.28
233.58	6.88
233.797	5.86
234.013	6.13
234.23	6.19
234.446	8.95
234.662	8.22
234.879	6.25
235.095	5.95
235.312	6.97
235.528	6.78
235.744	7.86
235.961	8.34
236.177	9.92
236.393	9.47
236.61	9.68
236.826	7.96
237.042	8.11
237.258	9.77
237.475	8.37
237.691	7.03
237.907	7.42
238.123	6.91
238.339	6.07
238.556	5.44
238.772	4.84
238.988	5.41
239.204	5.76
239.42	5.22
239.636	4.6
239.853	3.13
240.069	3.8
240.285	3.36
240.501	3.03
240.717	3.66
240.933	3.41
241.149	3.65
241.365	3.43
241.581	3.28
241.797	3.74
242.013	4.07
242.229	4.88
242.445	5
242.661	5.85
242.877	6.1
243.093	5.41
243.309	5.6
243.525	6.01
243.741	5.52
243.957	5.19
244.173	5.55
244.388	5.32
244.604	6
244.82	6.41
245.036	5.81
245.252	5.99
245.468	6.23
245.683	5.81
245.899	5.32
246.115	5.33
246.331	5.77
246.547	5.57
246.762	5.59
246.978	5.26
247.194	5.28
247.409	5.19
247.625	4.88
247.841	4.89
248.057	5.1
248.272	4.98
248.488	5.08
248.703	4.85
248.919	5.41
249.135	5.24
249.35	5.41
249.566	5.23
249.782	5.44
249.997	6.09
250.213	6.46
250.428	6.21
250.644	5.85
250.859	6.62
251.075	6.95
251.29	6.66
251.506	6.63
251.721	6.29
251.937	6.58
252.152	6.18
252.368	6.54
252.583	6.74
252.798	6.88
253.014	7.89
253.229	7.76
253.445	7.38
253.66	7.01
253.875	7.16
254.091	7.47
254.306	7.51
254.521	8.41
254.737	8.01
254.952	7.26
255.167	7.71
255.383	8.11
255.598	7.05
255.813	7.13
256.028	5.87
256.244	6.23
256.459	5.8
256.674	4.6
256.889	5.52
257.104	5.53
257.32	6.18
257.535	5.96
257.75	5.21
257.965	5.2
258.18	5.4
258.395	5.59
258.61	5.34
258.826	5.32
259.041	5.42
259.256	4.51
259.471	4.66
259.686	4.08
259.901	4.07
260.116	3.99
260.331	3.88
260.546	3.69
260.761	3.68
260.976	3.72
261.191	3.65
261.406	3.78
261.621	4.23
261.836	4.22
262.05	4.66
262.265	4.22
262.48	4.43
262.695	4.93
262.91	5.25
263.125	5.29
263.34	5.15
263.555	4.95
263.769	4.91
263.984	4.36
264.199	3.63
264.414	3.66
264.629	4.46
264.843	3.95
265.058	3.77
265.273	4.02
265.488	4.24
265.702	3.83
265.917	4.23
266.132	4.28
266.346	4.82
266.561	4.94
266.776	4.6
266.99	4.82
267.205	4.99
267.42	4.36
267.634	3.84
267.849	3.57
268.063	3.73
268.278	3.67
268.492	3.63
268.707	3.16
268.922	2.8
269.136	3.26
269.351	3.36
269.565	3.49
269.78	3.84
269.994	4.1
270.209	4.26
270.423	4.46
270.637	4.47
270.852	4.43
271.066	4.43
271.281	5
271.495	4.76
271.709	4.39
271.924	4.12
272.138	4.38
272.353	4.08
272.567	3.69
272.781	3.89
272.996	4.07
273.21	4.09
273.424	3.99
273.638	3.24
273.853	3.05
274.067	2.97
274.281	3.03
274.495	2.53
274.71	3.5
274.924	3.74
275.138	3.76
275.352	3.5
275.566	3.51
275.781	3.12
275.995	3.88
276.209	4.41
276.423	4.48
276.637	4.23
276.851	4.34
277.065	3.6
277.279	3.44
277.493	2.73
277.707	3.2
277.921	2.61
278.135	2.71
278.349	2.44
278.563	2.61
278.777	2.23
278.991	2.63
279.205	2.78
279.419	2.92
279.633	3.15
279.847	3.43
280.061	2.63
280.275	2.93
280.489	3.39
280.703	3.45
280.917	3.1
281.131	3.71
281.344	3.49
281.558	3.7
281.772	3.68
281.986	3.88
282.2	3.6
282.414	4.12
282.627	4.13
282.841	3.95
283.055	3.68
283.269	3.8
283.482	3.57
283.696	3.64
283.91	3.2
284.123	3.55
284.337	3.58
284.551	3.78
284.764	3.36
284.978	3.6
285.192	3.48
285.405	3.53
285.619	3.61
285.833	3.41
286.046	3.45
286.26	3.95
286.473	3.53
286.687	3
286.9	2.99
287.114	3.11
287.327	2.82
287.541	3.03
287.754	3.01
287.968	2.74
288.181	3.14
288.395	3.27
288.608	2.83
288.822	3.09
289.035	3.59
289.248	3.62
289.462	3.84
289.675	4.02
289.889	4.29
290.102	4.57
290.315	4.22
290.529	4.04
290.742	3.74
290.955	4.07
291.169	4.14
291.382	4.34
291.595	4.39
291.808	4.52
292.022	5.01
292.235	4.8
292.448	4.63
292.661	5.23
292.875	5.35
293.088	5.55
293.301	5.63
293.514	5.78
293.727	5.79
293.94	5.77
294.153	5.69
294.367	5.34
294.58	5.43
294.793	5.68
295.006	5.77
295.219	5.61
295.432	5.58
295.645	5.51
295.858	5.53
296.071	5.59
296.284	5.74
296.497	5.72
296.71	5.84
296.923	5.68
297.136	5.77
297.349	5.74
297.562	6.03
297.775	6.27
297.988	6.3
298.201	6.28
298.414	6.39
298.626	6.49
298.839	6.49
299.052	6.47
299.265	6.81
299.478	6.69
299.691	6.94
299.903	7.12
300.116	7.17
300.329	7.35
300.542	7.13
300.755	7.31
300.967	7.66
301.18	7.86
301.393	7.86
301.605	7.91
301.818	8.16
302.031	8.05
302.243	8.03
302.456	7.88
302.669	7.65
302.881	8.12
303.094	8.03
303.307	8.14
303.519	8.18
303.732	8.14
303.944	8.26
304.157	8.07
304.37	7.8
304.582	8.01
304.795	8.19
305.007	8.35
305.22	8.26
305.432	8.02
305.645	8.03
305.857	8.14
306.069	8.3
306.282	8.47
306.494	8.72
306.707	8.84
306.919	8.63
307.132	8.6
307.344	8.6
307.556	8.76
307.769	8.96
307.981	8.7
308.193	8.59
308.406	8.81
308.618	8.61
308.83	8.37
309.043	8.31
309.255	8.13
309.467	7.97
309.679	8.27
309.892	8.03
310.104	8.01
310.316	7.93
310.528	8
310.74	7.99
310.953	8.2
311.165	8.61
311.377	8.96
311.589	9.14
311.801	9.57
312.013	9.39
312.225	9.73
312.437	9.85
312.649	10.18
312.862	10.64
313.074	10.62
313.286	10.64
313.498	10.47
313.71	10.53
313.922	10.6
314.134	10.58
314.346	11.02
314.558	11.04
314.77	10.98
314.982	11.14
315.193	10.71
315.405	11.02
315.617	10.94
315.829	11.22
316.041	11.3
316.253	11.1
316.465	11.29
316.677	11.26
316.888	11.41
317.1	11.44
317.312	11.39
317.524	11.25
317.736	10.93
317.947	11.1
318.159	10.7
318.371	10.69
318.583	10.9
318.794	10.55
319.006	10.55
319.218	10.47
319.43	9.85
319.641	9.59
319.853	10.02
320.064	10.33
320.276	10.21
320.488	10.51
320.699	10.3
320.911	10.71
321.123	10.91
321.334	10.3
321.546	10.21
321.757	10.9
321.969	11.36
322.18	11.2
322.392	11.37
322.603	11.4
322.815	11.66
323.026	11.95
323.238	11.61
323.449	11.78
323.661	12.13
323.872	12.22
324.083	12.27
324.295	12.46
324.506	12.91
324.718	12.76
324.929	12.89
325.14	12.78
325.352	12.82
325.563	13.2
325.774	13.69
325.986	14.08
326.197	14.21
326.408	14.54
326.62	14.32
326.831	14.43
327.042	14.79
327.253	14.97
327.464	15.18
327.676	15.58
327.887	15.75
328.098	15.4
328.309	15.55
328.52	16.01
328.732	16.22
328.943	16.79
329.154	16.95
329.365	16.87
329.576	17.24
329.787	17.38
329.998	17.74
330.209	18.02
330.42	18.61
330.631	18.93
330.842	18.99
331.053	19.24
331.264	19.11
331.475	19.27
331.686	19.37
331.897	19.21
332.108	19.11
332.319	18.93
332.53	19.07
332.741	19.09
332.952	18.75
333.163	18.82
333.374	18.92
333.585	19
333.795	18.91
334.006	19.13
334.217	19.66
334.428	19.91
334.639	20.33
334.849	20.2
335.06	20.22
335.271	20.08
335.482	20.13
335.692	20.02
335.903	20.19
336.114	19.98
336.325	20.13
336.535	19.54
336.746	19.58
336.957	19.13
337.167	19.2
337.378	19.23
337.589	19.83
337.799	19.8
338.01	19.95
338.22	20.15
338.431	20.41
338.642	20.44
338.852	21.38
339.063	21.38
339.273	21.83
339.484	21.89
339.694	22.04
339.905	21.94
340.115	21.9
340.326	21.72
340.536	21.46
340.746	21.54
340.957	21.59
341.167	21.1
341.378	21.24
341.588	20.9
341.799	20.72
342.009	20.65
342.219	20.65
342.43	20.24
342.64	20.41
342.85	20.54
343.061	20.8
343.271	20.82
343.481	20.63
343.691	20.38
343.902	19.89
344.112	20.18
344.322	19.97
344.532	20.21
344.743	20.31
344.953	20.53
345.163	20.61
345.373	19.91
345.583	19.58
345.793	19.9
346.004	20.26
346.214	20.58
346.424	20.52
346.634	20.57
346.844	20.3
347.054	20.9
347.264	20.71
347.474	20.23
347.684	20.63
347.894	20.71
348.104	20.58
348.314	20.12
348.524	20.23
348.734	20.12
348.944	20.2
349.154	20.12
349.364	19.6
349.574	19.34
349.784	19.42
349.994	19.23
350.204	19.39
350.413	19.13
350.623	19.32
350.833	19.38
351.043	19.35
351.253	19.49
351.463	19.49
351.672	19.42
351.882	19.44
352.092	19.1
352.302	18.92
352.511	18.7
352.721	18.76
352.931	18.66
353.141	18.63
353.35	18.37
353.56	18.23
353.77	18.17
353.979	18.11
354.189	18.21
354.399	18.66
354.608	19.11
354.818	19.27
355.027	19.24
355.237	19.27
355.447	19.11
355.656	19.22
355.866	18.86
356.075	18.8
356.285	18.83
356.494	18.78
356.704	18.72
356.913	18.68
357.123	18.61
357.332	18.64
357.542	18.68
357.751	18.77
357.96	18.64
358.17	18.7
358.379	18.61
358.589	18.66
358.798	18.56
359.007	18.47
359.217	18.23
359.426	18.16
359.635	18.06
359.845	17.97
360.054	17.84
360.263	18
360.472	18.23
360.682	18.33
360.891	18.24
361.1	18.39
361.309	18.31
361.519	18.41
361.728	18.42
361.937	18.55
362.146	18.46
362.355	18.49
362.564	18.42
362.774	18.25
362.983	18.11
363.192	17.94
363.401	17.75
363.61	17.78
363.819	17.77
364.028	17.82
364.237	17.6
364.446	17.66
364.655	17.77
364.864	17.64
365.073	17.59
365.282	17.72
365.491	17.97
365.7	17.98
365.909	17.9
366.118	17.96
366.327	18.03
366.536	18.12
366.745	18.21
366.954	18.06
367.162	18.31
367.371	18.3
367.58	18.13
367.789	18.08
367.998	18.04
368.207	18.21
368.415	18.04
368.624	17.58
368.833	17.61
369.042	17.6
369.25	17.55
369.459	17.61
369.668	17.38
369.877	17.35
370.085	17.66
370.294	17.48
370.503	17.53
370.711	17.59
370.92	17.81
371.129	17.8
371.337	17.7
371.546	17.78
371.754	17.51
371.963	17.68
372.171	17.83
372.38	17.71
372.589	17.96
372.797	17.86
373.006	17.74
373.214	17.86
373.423	17.79
373.631	17.74
373.84	17.86
374.048	17.88
374.256	17.97
374.465	17.95
374.673	17.88
374.882	17.84
375.09	17.71
375.298	17.84
375.507	17.76
375.715	17.82
375.923	18.01
376.132	17.67
376.34	17.62
376.548	17.57
376.757	17.56
376.965	17.46
377.173	17.45
377.381	17.54
377.59	17.37
377.798	17.21
378.006	17.01
378.214	16.85
378.423	17.05
378.631	17.18
378.839	17.09
379.047	17.04
379.255	17.04
379.463	16.99
379.671	16.86
379.879	16.96
380.088	17.19
380.296	17.23
380.504	17.21
380.712	17.2
380.92	17.06
381.128	17.24
381.336	16.95
381.544	17.04
381.752	16.96
381.96	16.98
382.168	17.02
382.376	16.79
382.584	16.86
382.791	16.88
382.999	16.82
383.207	17.12
383.415	17.05
383.623	17.42
383.831	17.33
384.039	17.46
384.247	17.45
384.454	17.27
384.662	17.42
384.87	17.35
385.078	17.33
385.285	17.43
385.493	17.15
385.701	17.15
385.909	16.86
386.116	16.85
386.324	16.63
386.532	16.54
386.739	16.66
386.947	16.5
387.155	16.65
387.362	16.75
387.57	16.79
387.778	16.96
387.985	16.8
388.193	16.87
388.4	17.12
388.608	17.39
388.816	17.52
389.023	17.44
389.231	17.47
389.438	17.47
389.646	17.46
389.853	17.24
390.061	17.2
390.268	17.49
390.475	17.52
390.683	17.37
390.89	17.2
391.098	17.15
391.305	17.12
391.512	17.08
391.72	16.93
391.927	16.87
392.135	17.07
392.342	17.21
392.549	16.92
392.756	17.04
392.964	16.93
393.171	16.86
393.378	16.93
393.586	17.03
393.793	16.95
394	17
394.207	16.81
394.414	16.78
394.622	16.52
394.829	16.66
395.036	16.62
395.243	16.67
395.45	16.77
395.657	16.72
395.864	16.83
396.072	16.98
396.279	17.21
396.486	17.33
396.693	17.48
396.9	17.4
397.107	17.66
397.314	17.73
397.521	17.8
397.728	17.84
397.935	17.8
398.142	17.66
398.349	17.78
398.556	17.48
398.763	17.47
398.97	17.25
399.177	17.14
399.383	16.9
399.59	16.75
399.797	16.77
400.004	16.61
400.211	16.68
400.418	16.76
400.625	16.59
400.831	16.58
401.038	16.94
401.245	17.16
401.452	17.44
401.658	17.47
401.865	17.42
402.072	17.09
402.279	17.23
402.485	17.09
402.692	17.08
402.899	17.27
403.105	17.36
403.312	16.98
403.519	16.9
403.725	17
403.932	16.98
404.138	17.17
404.345	17.39
404.552	17.58
404.758	17.68
404.965	17.78
405.171	17.68
405.378	17.57
405.584	17.69
405.791	17.67
405.997	17.67
406.204	17.57
406.41	17.65
406.617	17.65
406.823	17.46
407.029	17.59
407.236	17.35
407.442	17.35
407.649	17.54
407.855	17.52
408.061	17.58
408.268	17.44
408.474	17.54
408.68	17.31
408.887	17.44
409.093	17.61
409.299	17.48
409.505	17.53
409.712	17.54
409.918	17.46
410.124	17.43
410.33	17.3
410.537	17.37
410.743	17.34
410.949	17.44
411.155	17.39
411.361	17.22
411.567	17.21
411.773	17.37
411.98	17.36
412.186	17.37
412.392	17.55
412.598	17.65
412.804	17.74
413.01	17.92
413.216	17.94
413.422	17.86
413.628	18.02
413.834	18.17
414.04	18
414.246	18.05
414.452	18.2
414.658	18.12
414.864	18.1
415.07	17.98
415.275	17.92
415.481	17.83
415.687	18.05
415.893	18
416.099	17.87
416.305	17.9
416.511	17.9
416.716	17.9
416.922	17.9
417.128	17.97
417.334	17.94
417.539	17.9
417.745	17.86
417.951	17.63
418.157	17.57
418.362	17.8
418.568	17.9
418.774	17.9
418.979	17.83
419.185	17.84
419.391	17.85
419.596	17.93
419.802	17.97
420.008	18.04
420.213	18.75
420.419	18.84
420.624	18.67
420.83	18.59
421.035	18.58
421.241	18.59
421.446	18.61
421.652	18.54
421.857	18.54
422.063	18.5
422.268	18.56
422.474	17.98
422.679	17.89
422.885	17.9
423.09	17.91
423.295	17.96
423.501	17.95
423.706	17.91
423.911	17.94
424.117	17.91
424.322	17.97
424.527	17.95
424.733	18
424.938	18.05
425.143	18.06
425.349	18.1
425.554	18.07
425.759	18.12
425.964	18.11
426.169	18.13
426.375	18.08
426.58	18.02
426.785	18.01
426.99	17.96
427.195	18
427.4	17.99
427.605	18.06
427.811	18.11
428.016	18.11
428.221	18.3
428.426	18.27
428.631	18.4
428.836	18.52
429.041	18.59
429.246	18.61
429.451	18.48
429.656	18.51
429.861	18.46
430.066	18.56
430.271	18.56
430.476	18.46
430.681	18.47
430.886	18.44
431.09	18.46
431.295	18.38
431.5	18.44
431.705	18.62
431.91	18.59
432.115	18.58
432.32	18.49
432.524	18.52
432.729	18.57
432.934	18.64
433.139	18.64
433.343	18.72
433.548	18.79
433.753	18.81
433.958	18.79
434.162	18.84
434.367	18.83
434.572	18.81
434.776	18.95
434.981	18.88
435.186	18.89
435.39	18.83
435.595	18.74
435.799	18.76
436.004	18.81
436.209	18.75
436.413	18.79
436.618	18.81
436.822	18.84
437.027	18.81
437.231	18.86
437.436	18.82
437.64	18.91
437.845	18.96
438.049	18.87
438.253	18.79
438.458	18.81
438.662	18.82
438.867	18.84
439.071	18.93
439.275	18.8
439.48	18.67
439.684	18.73
439.888	18.71
440.093	18.73
440.297	18.79
440.501	18.87
440.706	18.87
440.91	18.91
441.114	18.94
441.318	18.91
441.523	18.99
441.727	19.07
441.931	19.08
442.135	19.06
442.339	18.98
442.543	19.02
442.748	18.94
442.952	18.92
443.156	18.91
443.36	18.95
443.564	18.96
443.768	18.94
443.972	19
444.176	19.04
444.38	19.07
444.584	19.1
444.788	19.11
444.992	19.15
445.196	19.2
445.4	19.17
445.604	19.14
445.808	19.06
446.012	19.11
446.216	19.15
446.42	19.07
446.624	19.17
446.828	19.14
447.032	19.08
447.235	19.03
447.439	19.06
447.643	19.16
447.847	19.12
448.051	19.19
448.254	19.09
448.458	19.09
448.662	19.13
448.866	19.02
449.069	19.05
449.273	19.05
449.477	19.18
449.681	19.11
449.884	18.98
450.088	19.03
450.292	18.99
450.495	19.18
450.699	19.22
450.902	19.14
451.106	19.17
451.31	19.3
451.513	19.37
451.717	19.25
451.92	19.32
452.124	19.31
452.327	19.33
452.531	19.43
452.734	19.29
452.938	19.28
453.141	19.33
453.345	19.34
453.548	19.3
453.752	19.32
453.955	19.36
454.158	19.35
454.362	19.39
454.565	19.3
454.769	19.2
454.972	19.19
455.175	19.1
455.379	19.12
455.582	19.08
455.785	18.99
455.988	19.01
456.192	19.05
456.395	19.02
456.598	19.16
456.801	19.1
457.005	19.21
457.208	19.27
457.411	19.31
457.614	19.38
457.817	19.43
458.021	19.5
458.224	19.39
458.427	19.38
458.63	19.39
458.833	19.2
459.036	19.26
459.239	19.24
459.442	19.19
459.645	19.16
459.848	19.13
460.051	19.09
460.254	19.11
460.457	19.05
460.66	19.1
460.863	19.04
461.066	19.06
461.269	19
461.472	18.91
461.675	18.95
461.878	19.02
462.081	19.05
462.284	19.07
462.486	18.99
462.689	19.1
462.892	19.01
463.095	19.09
463.298	19.22
463.5	19.37
463.703	19.49
463.906	19.39
464.109	19.34
464.311	19.21
464.514	19.31
464.717	19.37
464.92	19.3
465.122	19.36
465.325	19.38
465.528	19.36
465.73	19.34
465.933	19.37
466.135	19.41
466.338	19.5
466.541	19.55
466.743	19.5
466.946	19.48
467.148	19.57
467.351	19.48
467.553	19.46
467.756	19.47
467.958	19.45
468.161	19.43
468.363	19.53
468.566	19.41
468.768	19.42
468.971	19.42
469.173	19.5
469.375	19.47
469.578	19.57
469.78	19.59
469.983	19.64
470.185	19.76
470.387	19.76
470.59	19.67
470.792	19.71
470.994	19.71
471.196	19.84
471.399	19.73
471.601	19.79
471.803	19.73
472.005	19.77
472.208	19.73
472.41	19.63
472.612	19.53
472.814	19.46
473.016	19.4
473.218	19.46
473.421	19.25
473.623	19.34
473.825	19.4
474.027	19.4
474.229	19.29
474.431	19.27
474.633	19.25
474.835	19.38
475.037	19.5
475.239	19.62
475.441	19.6
475.643	19.79
475.845	19.71
476.047	19.61
476.249	19.62
476.451	19.66
476.653	19.76
476.855	19.78
477.057	19.71
477.258	19.67
477.46	19.71
477.662	19.72
477.864	19.65
478.066	19.66
478.268	19.68
478.469	19.65
478.671	19.64
478.873	19.55
479.075	19.54
479.276	19.57
479.478	19.59
479.68	19.58
479.882	19.57
480.083	19.6
480.285	19.59
480.487	19.67
480.688	19.65
480.89	19.75
481.091	19.76
481.293	19.75
481.495	19.67
481.696	19.62
481.898	19.5
482.099	19.45
482.301	19.32
482.502	19.27
482.704	19.21
482.905	19.22
483.107	19.14
483.308	19.1
483.51	19.09
483.711	19.12
483.913	19.07
484.114	19.09
484.315	19.07
484.517	19.1
484.718	19.13
484.92	19.16
485.121	19.13
485.322	19.14
485.524	19.18
485.725	19.19
485.926	19.19
486.127	19.29
486.329	19.28
486.53	19.31
486.731	19.28
486.932	19.25
487.134	19.19
487.335	19.22
487.536	19.19
487.737	19.16
487.938	19.16
488.139	19.15
488.341	19.13
488.542	19.14
488.743	19.11
488.944	19.14
489.145	19.15
489.346	19.17
489.547	19.14
489.748	19.18
489.949	19.21
490.15	19.2
490.351	19.2
490.552	19.23
490.753	19.23
490.954	19.26
491.155	19.28
491.356	19.29
491.557	19.35
491.758	19.4
491.959	19.42
492.159	19.43
492.36	19.42
492.561	19.46
492.762	19.43
492.963	19.48
493.164	19.45
493.364	19.46
493.565	19.47
493.766	19.45
493.967	19.42
494.167	19.39
494.368	19.38
494.569	19.47
494.769	19.46
494.97	19.53
495.171	19.58
495.371	19.61
495.572	19.63
495.773	19.67
495.973	19.69
496.174	19.77
496.375	19.87
496.575	19.97
496.776	19.85
496.976	19.93
497.177	19.84
497.377	19.76
497.578	19.86
497.778	19.92
497.979	19.94
498.179	19.93
498.38	19.88
498.58	19.79
498.78	19.79
498.981	19.96
499.181	19.98
499.382	20.11
499.582	20.19
499.782	20.24
499.983	20.2
500.183	20.21
500.383	20.24
500.584	20.34
500.784	20.39
500.984	20.38
501.184	20.32
501.385	20.3
501.585	20.22
501.785	20.2
501.985	20.15
502.185	20.06
502.386	20.02
502.586	20.01
502.786	20.02
502.986	20.14
503.186	20.07
503.386	20.12
503.586	20.15
503.786	20.28
503.987	20.36
504.187	20.35
504.387	20.43
504.587	20.43
504.787	20.39
504.987	20.37
505.187	20.33
505.387	20.41
505.587	20.46
505.786	20.5
505.986	20.5
506.186	20.45
506.386	20.47
506.586	20.52
506.786	20.52
506.986	20.55
507.186	20.65
507.386	20.58
507.585	20.61
507.785	20.55
507.985	20.52
508.185	20.48
508.384	20.43
508.584	20.46
508.784	20.53
508.984	20.63
509.183	20.63
509.383	20.63
509.583	20.65
509.782	20.65
509.982	20.74
510.182	20.73
510.381	20.77
510.581	20.81
510.781	20.85
510.98	20.84
511.18	20.88
511.379	20.91
511.579	20.84
511.778	20.87
511.978	20.87
512.177	20.73
512.377	20.73
512.576	20.77
512.776	20.79
512.975	20.75
513.175	20.72
513.374	20.69
513.573	20.8
513.773	20.84
513.972	20.97
514.172	20.99
514.371	21.09
514.57	21.12
514.77	21.15
514.969	21.19
515.168	21.2
515.367	21.23
515.567	21.28
515.766	21.27
515.965	21.28
516.164	21.28
516.364	21.25
516.563	21.33
516.762	21.39
516.961	21.43
517.16	21.37
517.359	21.46
517.559	21.45
517.758	21.41
517.957	21.42
518.156	21.36
518.355	21.33
518.554	21.33
518.753	21.33
518.952	21.29
519.151	21.29
519.35	21.35
519.549	21.39
519.748	21.41
519.947	21.5
520.146	21.5
520.345	21.6
520.544	21.57
520.743	21.61
520.942	21.6
521.141	21.67
521.339	21.55
521.538	21.56
521.737	21.45
521.936	21.44
522.135	21.44
522.333	21.49
522.532	21.46
522.731	21.61
522.93	21.67
523.129	21.73
523.327	21.71
523.526	21.7
523.725	21.67
523.923	21.66
524.122	21.75
524.321	21.67
524.519	21.62
524.718	21.59
524.917	21.52
525.115	21.53
525.314	21.51
525.512	21.46
525.711	21.54
525.909	21.59
526.108	21.59
526.306	21.58
526.505	21.59
526.703	21.54
526.902	21.63
527.1	21.6
527.299	21.59
527.497	21.57
527.696	21.61
527.894	21.62
528.092	21.61
528.291	21.59
528.489	21.57
528.688	21.59
528.886	21.62
529.084	21.61
529.283	21.58
529.481	21.56
529.679	21.56
529.877	21.52
530.076	21.48
530.274	21.45
530.472	21.51
530.67	21.46
530.869	21.44
531.067	21.42
531.265	21.42
531.463	21.49
531.661	21.5
531.859	21.49
532.057	21.54
532.255	21.56
532.454	21.62
532.652	21.64
532.85	21.72
533.048	21.74
533.246	21.75
533.444	21.75
533.642	21.75
533.84	21.78
534.038	21.86
534.236	21.85
534.434	21.92
534.632	21.88
534.83	21.86
535.027	21.82
535.225	21.86
535.423	21.91
535.621	21.97
535.819	22.01
536.017	22.06
536.215	22.02
536.412	22.1
536.61	22.08
536.808	22.15
537.006	22.2
537.203	22.2
537.401	22.19
537.599	22.19
537.797	22.16
537.994	22.19
538.192	22.16
538.39	22.19
538.587	22.24
538.785	22.29
538.983	22.34
539.18	22.38
539.378	22.44
539.575	22.44
539.773	22.52
539.97	22.55
540.168	22.56
540.366	22.56
540.563	22.59
540.761	22.63
540.958	22.62
541.155	22.64
541.353	22.67
541.55	22.69
541.748	22.71
541.945	22.7
542.143	22.71
542.34	22.68
542.537	22.69
542.735	22.69
542.932	22.64
543.129	22.69
543.327	22.63
543.524	22.68
543.721	22.77
543.919	22.78
544.116	22.86
544.313	22.94
544.51	23.09
544.708	23.24
544.905	23.3
545.102	23.39
545.299	23.39
545.496	23.46
545.693	23.37
545.891	23.28
546.088	23.38
546.285	23.39
546.482	23.42
546.679	23.31
546.876	23.19
547.073	23.23
547.27	23.09
547.467	23.12
547.664	23.12
547.861	23.19
548.058	23.17
548.255	23.16
548.452	23.16
548.649	23.14
548.846	23.25
549.043	23.28
549.24	23.25
549.437	23.41
549.633	23.37
549.83	23.48
550.027	23.39
550.224	23.48
550.421	23.45
550.618	23.33
550.814	23.3
551.011	23.23
551.208	23.24
551.405	23.24
551.601	23.24
551.798	23.21
551.995	23.04
552.191	22.99
552.388	22.91
552.585	22.86
552.781	22.94
552.978	22.96
553.175	22.94
553.371	22.97
553.568	22.97
553.764	22.95
553.961	23.07
554.157	23.15
554.354	23.32
554.55	23.41
554.747	23.39
554.943	23.37
555.14	23.3
555.336	23.23
555.533	23.25
555.729	23.24
555.926	23.36
556.122	23.27
556.318	23.32
556.515	23.2
556.711	23.27
556.907	23.38
557.104	23.38
557.3	23.35
557.496	23.42
557.693	23.43
557.889	23.36
558.085	23.34
558.281	23.37
558.478	23.42
558.674	23.53
558.87	23.45
559.066	23.46
559.262	23.5
559.459	23.59
559.655	23.66
559.851	23.56
560.047	23.66
560.243	23.6
560.439	23.53
560.635	23.51
560.831	23.5
561.027	23.54
561.223	23.57
561.419	23.6
561.615	23.48
561.811	23.52
562.007	23.67
562.203	23.66
562.399	23.76
562.595	23.79
562.791	23.79
562.987	23.73
563.183	23.74
563.379	23.65
563.575	23.6
563.771	23.76
563.966	23.72
564.162	23.64
564.358	23.57
564.554	23.45
564.75	23.51
564.945	23.52
565.141	23.58
565.337	23.61
565.533	23.5
565.728	23.54
565.924	23.42
566.12	23.46
566.315	23.51
566.511	23.61
566.707	23.62
566.902	23.64
567.098	23.63
567.293	23.64
567.489	23.64
567.684	23.68
567.88	23.57
568.076	23.63
568.271	23.56
568.467	23.6
568.662	23.58
568.858	23.6
569.053	23.62
569.248	23.56
569.444	23.5
569.639	23.49
569.835	23.61
570.03	23.6
570.225	23.6
570.421	23.66
570.616	23.52
570.812	23.42
571.007	23.51
571.202	23.53
571.397	23.53
571.593	23.58
571.788	23.56
571.983	23.53
572.178	23.61
572.374	23.59
572.569	23.64
572.764	23.82
572.959	23.88
573.154	23.84
573.35	23.75
573.545	23.76
573.74	23.7
573.935	23.67
574.13	23.71
574.325	23.7
574.52	23.7
574.715	23.61
574.91	23.54
575.105	23.62
575.3	23.61
575.495	23.68
575.69	23.76
575.885	23.86
576.08	23.86
576.275	23.8
576.47	23.9
576.665	24.11
576.86	24.14
577.055	24.14
577.25	24.11
577.444	24.2
577.639	24.28
577.834	24.28
578.029	24.37
578.224	24.53
578.418	24.77
578.613	24.76
578.808	24.67
579.003	24.74
579.197	24.84
579.392	24.91
579.587	24.87
579.781	24.88
579.976	24.9
580.171	24.95
580.365	24.9
580.56	24.91
580.755	25.17
580.949	25.25
581.144	25.34
581.338	25.17
581.533	25.15
581.727	25.18
581.922	25.2
582.116	25.33
582.311	25.28
582.505	25.4
582.7	25.33
582.894	25.16
583.089	24.94
583.283	24.89
583.478	25.14
583.672	25.16
583.866	25.28
584.061	25.26
584.255	25.2
584.449	25.12
584.644	25
584.838	25.04
585.032	24.96
585.226	25.18
585.421	25.13
585.615	25.04
585.809	25.04
586.003	25.04
586.198	25.04
586.392	25.11
586.586	25.17
586.78	25.26
586.974	25.33
587.168	25.31
587.363	25.35
587.557	25.41
587.751	25.56
587.945	25.61
588.139	25.52
588.333	25.44
588.527	25.33
588.721	25.44
588.915	25.43
589.109	25.34
589.303	25.35
589.497	25.31
589.691	25.24
589.885	25.13
590.079	25.09
590.273	25.12
590.466	25.22
590.66	25.29
590.854	25.34
591.048	25.35
591.242	25.39
591.436	25.49
591.629	25.49
591.823	25.6
592.017	25.7
592.211	25.74
592.404	25.89
592.598	25.97
592.792	26.09
592.986	26.05
593.179	25.85
593.373	25.88
593.567	25.95
593.76	26.08
593.954	26.05
594.147	25.86
594.341	25.79
594.535	25.66
594.728	25.65
594.922	25.55
595.115	25.48
595.309	25.56
595.502	25.46
595.696	25.39
595.889	25.35
596.083	25.41
596.276	25.52
596.47	25.58
596.663	25.46
596.856	25.43
597.05	25.41
597.243	25.46
597.437	25.55
597.63	25.76
597.823	25.87
598.017	25.81
598.21	25.82
598.403	25.83
598.596	25.88
598.79	26
598.983	26.04
599.176	26.07
599.369	25.95
599.563	26.1
599.756	25.82
599.949	25.77
600.142	25.84
600.335	25.8
600.528	25.86
600.722	25.91
600.915	26.04
601.108	26.06
601.301	26.13
601.494	26.27
601.687	26.28
601.88	26.43
602.073	26.49
602.266	26.53
602.459	26.63
602.652	26.64
602.845	26.77
603.038	26.66
603.231	26.63
603.424	26.59
603.617	26.52
603.809	26.41
604.002	26.38
604.195	26.38
604.388	26.4
604.581	26.35
604.774	26.31
604.966	26.09
605.159	26.17
605.352	26.24
605.545	26.29
605.737	26.38
605.93	26.44
606.123	26.52
606.316	26.38
606.508	26.32
606.701	26.39
606.894	26.53
607.086	26.77
607.279	26.96
607.471	26.96
607.664	27.08
607.857	27.11
608.049	27.11
608.242	27.33
608.434	27.83
608.627	28.11
608.819	28.37
609.012	28.81
609.204	29.18
609.397	29.58
609.589	30
609.782	30.52
609.974	31.14
610.166	31.87
610.359	32.42
610.551	32.88
610.743	33.25
610.936	33.79
611.128	34.01
611.32	34.19
611.513	34.18
611.705	34.36
611.897	34.32
612.09	34.24
612.282	33.9
612.474	33.55
612.666	33.32
612.858	33.2
613.051	32.74
613.243	32.37
613.435	32.14
613.627	32.06
613.819	31.66
614.011	31.53
614.203	31.28
614.395	31.23
614.588	31.09
614.78	30.55
614.972	30.48
615.164	30.42
615.356	30.27
615.548	30.26
615.74	30.04
615.932	30.1
616.124	29.88
616.315	29.72
616.507	29.48
616.699	29.34
616.891	29.59
617.083	29.41
617.275	29.22
617.467	29.1
617.659	28.97
617.85	28.9
618.042	28.61
618.234	28.75
618.426	28.84
618.618	28.78
618.809	28.82
619.001	28.73
619.193	28.77
619.384	28.78
619.576	29.07
619.768	29.01
619.959	29.02
620.151	29.24
620.343	28.82
620.534	28.78
620.726	28.93
620.917	29
621.109	29
621.301	28.93
621.492	28.97
621.684	28.98
621.875	29.05
622.067	29.17
622.258	29.11
622.45	29.36
622.641	29.42
622.832	29.45
623.024	29.47
623.215	29.39
623.407	29.28
623.598	29.31
623.789	29.17
623.981	29.15
624.172	29.16
624.363	29.28
624.555	29.33
624.746	29.35
624.937	29.34
625.129	29.33
625.32	29.41
625.511	29.48
625.702	29.44
625.893	29.45
626.085	29.45
626.276	29.37
626.467	29.29
626.658	29.23
626.849	29.14
627.04	29.18
627.231	29.1
627.422	29.08
627.614	29.02
627.805	29.01
627.996	29.13
628.187	29.22
628.378	29.3
628.569	29.38
628.76	29.46
628.951	29.61
629.142	29.69
629.332	29.65
629.523	29.77
629.714	30.03
629.905	30.22
630.096	30.28
630.287	30.19
630.478	30.32
630.669	30.27
630.859	30.38
631.05	30.37
631.241	30.23
631.432	30.32
631.623	30.23
631.813	30.34
632.004	30.37
632.195	30.17
632.385	30.14
632.576	30
632.767	29.91
632.957	29.71
633.148	29.48
633.339	29.53
633.529	29.59
633.72	29.54
633.91	29.5
634.101	29.38
634.292	29.36
634.482	29.36
634.673	29.48
634.863	29.54
635.054	29.77
635.244	29.89
635.435	29.89
635.625	29.84
635.815	29.88
636.006	29.59
636.196	29.61
636.387	29.68
636.577	29.83
636.767	29.85
636.958	29.78
637.148	29.87
637.338	29.91
637.529	29.86
637.719	29.98
637.909	29.94
638.099	30.17
638.29	30.14
638.48	30.07
638.67	30
638.86	29.91
639.05	30.09
639.241	29.97
639.431	29.89
639.621	29.87
639.811	29.75
640.001	29.74
640.191	29.72
640.381	29.96
640.571	30.02
640.761	30.09
640.951	30.06
641.141	29.89
641.331	29.78
641.521	30.08
641.711	30.14
641.901	30.2
642.091	30.45
642.281	30.43
642.471	30.3
642.661	30.42
642.851	30.36
643.041	30.3
643.231	30.38
643.42	30.43
643.61	30.45
643.8	30.58
643.99	30.7
644.18	30.6
644.369	30.71
644.559	30.77
644.749	30.82
644.939	30.97
645.128	31.01
645.318	31.24
645.508	31.22
645.697	31.01
645.887	31.05
646.076	30.92
646.266	30.87
646.456	30.81
646.645	30.67
646.835	30.78
647.024	30.74
647.214	30.84
647.403	30.69
647.593	30.85
647.782	30.84
647.972	30.79
648.161	30.98
648.351	31.02
648.54	31.18
648.73	31.17
648.919	30.89
649.108	31.04
649.298	30.99
649.487	31.09
649.677	31.06
649.866	31.22
650.055	31.3
650.244	31.18
650.434	31.14
650.623	31.24
650.812	31.49
651.002	31.8
651.191	31.66
651.38	31.77
651.569	31.92
651.758	32.18
651.947	32.28
652.137	32.42
652.326	32.53
652.515	32.78
652.704	32.76
652.893	32.72
653.082	32.73
653.271	32.85
653.46	32.78
653.649	32.58
653.838	32.21
654.027	32.12
654.216	32.18
654.405	32.27
654.594	32.47
654.783	32.51
654.972	32.43
655.161	32.44
655.35	32.25
655.539	32.29
655.728	32.49
655.916	32.8
656.105	32.92
656.294	32.76
656.483	32.59
656.672	32.4
656.86	32.17
657.049	32.34
657.238	32
657.427	32.12
657.615	32.33
657.804	32.19
657.993	32.07
658.181	31.88
658.37	31.74
658.559	31.8
658.747	31.8
658.936	31.89
659.125	31.9
659.313	32.12
659.502	32.15
659.69	32.2
659.879	32.31
660.067	32.35
660.256	32.57
660.444	32.77
660.633	32.92
660.821	33.1
661.01	33.22
661.198	33.16
661.387	33.28
661.575	33.45
661.763	33.3
661.952	33.26
662.14	33.6
662.328	33.57
662.517	33.58
662.705	33.6
662.893	33.5
663.082	33.32
663.27	33.49
663.458	33.47
663.646	33.5
663.834	33.71
664.023	33.96
664.211	33.68
664.399	33.7
664.587	33.54
664.775	33.39
664.963	33.65
665.152	34.23
665.34	34.23
665.528	34.43
665.716	34.32
665.904	34.22
666.092	34.33
666.28	34.36
666.468	34.43
666.656	34.83
666.844	35.11
667.032	34.98
667.22	34.7
667.408	34.63
667.596	34.47
667.784	34.51
667.971	34.5
668.159	34.37
668.347	34.51
668.535	34.51
668.723	34.76
668.911	34.74
669.098	34.8
669.286	34.86
669.474	35
669.662	35.06
669.849	35.4
670.037	35.63
670.225	35.97
670.413	35.83
670.6	35.93
670.788	35.53
670.976	35.55
671.163	35.4
671.351	35.57
671.538	35.63
671.726	35.65
671.913	35.45
672.101	35.22
672.289	34.89
672.476	35.15
672.664	35.36
672.851	35.56
673.039	35.85
673.226	35.99
673.413	35.99
673.601	36.21
673.788	36.26
673.976	36.46
674.163	36.77
674.35	37.11
674.538	36.92
674.725	37.1
674.912	37.16
675.1	36.9
675.287	37.19
675.474	37.09
675.662	36.91
675.849	36.81
676.036	37.01
676.223	36.9
676.411	36.46
676.598	36.58
676.785	36.54
676.972	36.7
677.159	36.67
677.346	36.54
677.533	36.6
677.721	36.62
677.908	37.11
678.095	36.76
678.282	36.66
678.469	37.04
678.656	37.24
678.843	37.11
679.03	37.12
679.217	37.32
679.404	37.25
679.591	37.2
679.778	37.32
679.964	37.01
680.151	37.06
680.338	37.2
680.525	37.31
680.712	37.4
680.899	37.39
681.086	37.51
681.272	37.48
681.459	37.39
681.646	37.69
681.833	37.6
682.02	37.86
682.206	37.99
682.393	37.89
682.58	38.05
682.766	37.72
682.953	37.78
683.14	37.62
683.326	38.05
683.513	38.51
683.7	38.31
683.886	38.57
684.073	38.46
684.259	38.63
684.446	39.16
684.632	38.89
684.819	39.35
685.005	39.16
685.192	39.24
685.378	38.98
685.565	39
685.751	39.21
685.938	39.48
686.124	39.62
686.31	39.52
686.497	39.36
686.683	39.32
686.87	39.17
687.056	39.36
687.242	39.4
687.429	39.26
687.615	38.99
687.801	38.74
687.987	38.53
688.174	38.28
688.36	38.59
688.546	38.58
688.732	38.66
688.918	38.65
689.105	38.76
689.291	38.74
689.477	39.06
689.663	39.34
689.849	39.68
690.035	39.55
690.221	39.82
690.407	39.73
690.593	39.87
690.779	39.97
690.965	40.13
691.151	40.03
691.337	40.01
691.523	39.89
691.709	39.73
691.895	39.66
692.081	39.67
692.267	39.78
692.453	39.54
692.639	39.55
692.825	39.52
693.011	39.56
693.196	39.75
693.382	40
693.568	39.98
693.754	40.31
693.94	40.74
694.125	40.86
694.311	40.91
694.497	40.95
694.682	40.83
694.868	41.11
695.054	41.15
695.239	41.32
695.425	41.08
695.611	41.05
695.796	40.78
695.982	40.22
696.168	40.35
696.353	40.51
696.539	40.32
696.724	40.39
696.91	40.35
697.095	40.23
697.281	40.06
697.466	40.39
697.652	40.65
697.837	40.83
698.023	40.87
698.208	40.84
698.393	40.73
698.579	40.9
698.764	40.95
698.949	40.88
699.135	40.89
699.32	40.98
699.505	40.88
699.691	40.59
699.876	40.48
700.061	40.68
700.246	40.68
700.432	40.74
700.617	40.9
700.802	41.07
700.987	41.27
701.172	40.85
701.358	41.08
701.543	41.07
701.728	41.12
701.913	41.36
702.098	41.35
702.283	41.5
702.468	41.4
702.653	41.77
702.838	41.71
703.023	41.72
703.208	42.65
703.393	42.63
703.578	42.77
703.763	43.15
703.948	43.4
704.133	43.49
704.318	43.69
704.503	43.64
704.688	43.29
704.873	43.33
705.057	43.37
705.242	43.32
705.427	43.2
705.612	43.65
705.797	43.81
705.981	44.14
706.166	44.54
706.351	44.72
706.536	44.97
706.72	45.11
706.905	45.54
707.09	45.65
707.274	46.02
707.459	46.35
707.644	46.08
707.828	46.03
708.013	45.74
708.197	45.49
708.382	45.42
708.567	45.67
708.751	45.81
708.936	45.68
709.12	45.9
709.305	45.95
709.489	45.71
709.673	45.6
709.858	45.75
710.042	45.64
710.227	45.6
710.411	45.26
710.596	45.03
710.78	45.14
710.964	45.18
711.149	44.8
711.333	44.73
711.517	44.83
711.702	45.06
711.886	44.88
712.07	45.15
712.254	45.2
712.438	45.32
712.623	45.19
712.807	45.05
712.991	44.65
713.175	44.76
713.359	44.61
713.544	44.68
713.728	44.33
713.912	44.3
714.096	43.57
714.28	43.43
714.464	43.62
714.648	44.09
714.832	43.94
715.016	43.88
715.2	43.8
715.384	43.71
715.568	43.5
715.752	43.43
715.936	43.48
716.12	44
716.304	44.05
716.488	43.7
716.671	43.1
716.855	43.49
717.039	43.57
717.223	43.67
717.407	43.79
717.59	43.96
717.774	44.35
717.958	44.41
718.142	43.99
718.325	43.88
718.509	44.02
718.693	44.45
718.877	44.03
719.06	44.02
719.244	43.8
719.428	43.38
719.611	43.26
719.795	43.57
719.978	43.61
720.162	44.24
720.345	44.7
720.529	44.96
720.713	45.05
720.896	45
721.08	45.36
721.263	45.7
721.446	45.71
721.63	46.2
721.813	46.02
721.997	46
722.18	45.7
722.364	45.98
722.547	45.55
722.73	45.26
722.914	44.85
723.097	44.89
723.28	44.6
723.464	44.8
723.647	44.44
723.83	43.85
724.013	43.99
724.197	43.72
724.38	43.43
724.563	44.01
724.746	44.23
724.929	44.47
725.112	43.76
725.296	44.01
725.479	44.09
725.662	43.74
725.845	44.31
726.028	44.11
726.211	44.27
726.394	43.94
726.577	43.48
726.76	43.19
726.943	43.56
727.126	44.04
727.309	43.71
727.492	43.5
727.675	43.78
727.858	43.4
728.041	43.06
728.224	42.71
728.407	42.97
728.589	43.02
728.772	43.44
728.955	43.62
729.138	43.56
729.321	43.53
729.503	43.83
729.686	43.63
729.869	43.92
730.052	44.38
730.234	44.99
730.417	45.15
730.6	45.42
730.782	45.21
730.965	45
731.148	45.39
731.33	45.43
731.513	45.11
731.695	45.56
731.878	45.84
732.061	45.81
732.243	45.54
732.426	45.28
732.608	45.1
732.791	45.53
732.973	45.42
733.156	45.18
733.338	45.28
733.52	45.47
733.703	45.15
733.885	44.65
734.068	44.71
734.25	44.71
734.432	45.02
734.615	45.75
734.797	45.26
734.979	45.07
735.162	44.99
735.344	45.49
735.526	45.39
735.708	45.69
735.891	45.88
736.073	45.93
736.255	45.84
736.437	45.29
736.619	44.71
736.802	45.23
736.984	45.96
737.166	46.55
737.348	45.92
737.53	46.21
737.712	45.93
737.894	45.62
738.076	45.52
738.258	46.04
738.44	46.21
738.622	46.22
738.804	45.75
738.986	45.56
739.168	45.18
739.35	45.78
739.532	46.06
739.714	46.16
739.896	46.76
740.078	46.89
740.259	46.36
740.441	46.33
740.623	46.47
740.805	47.09
740.987	47.03
741.168	46.87
741.35	46.77
741.532	46.8
741.714	47.25
741.895	47.24
742.077	46.5
742.259	47.26
742.44	48.02
742.622	47.99
742.804	47.59
742.985	47.7
743.167	47.82
743.348	48.2
743.53	48.09
743.711	48.22
743.893	47.78
744.075	48.83
744.256	48.7
744.438	48.57
744.619	48.75
744.8	49.4
744.982	49.33
745.163	49.16
745.345	49.07
745.526	49.03
745.707	49.28
745.889	49.91
746.07	49.42
746.252	49.17
746.433	49.25
746.614	49.6
746.795	49.33
746.977	49.18
747.158	50
747.339	50.18
747.52	49.96
747.702	49.62
747.883	49.25
748.064	49.78
748.245	49.92
748.426	49.57
748.607	48.8
748.788	48.52
748.97	48.95
749.151	48.19
749.332	47.91
749.513	47.83
749.694	47.72
749.875	47.61
750.056	47.66
750.237	48.17
750.418	48.19
750.599	49.06
750.78	49.02
750.96	49.2
751.141	49.78
751.322	49.64
751.503	50.28
751.684	50.45
751.865	51.25
752.046	51.27
752.226	50.85
752.407	51.47
752.588	50.94
752.769	51.15
752.949	50.56
753.13	49.82
753.311	49.83
753.492	50.08
753.672	50.08
753.853	49.37
754.034	49.35
754.214	49.16
754.395	48.51
754.575	48.56
754.756	48.53
754.937	49.46
755.117	50.4
755.298	50.6
755.478	49.84
755.659	49.29
755.839	49.11
756.02	48.91
756.2	49.01
756.381	48.97
756.561	48.81
756.741	48.94
756.922	48.81
757.102	47.95
757.283	47.67
757.463	47.5
757.643	47.41
757.823	47.32
758.004	46.84
758.184	46.76
758.364	46.57
758.545	46.32
758.725	46.7
758.905	45.44
759.085	45.51
759.265	45.42
759.446	45.67
759.626	46.22
759.806	45.64
759.986	45.16
760.166	45.11
760.346	45.41
760.526	45.49
760.706	45.43
760.886	45.55
761.066	46.17
761.246	46.12
761.426	45.79
761.606	44.95
761.786	45.68
761.966	46.39
762.146	46.52
762.326	46.74
762.506	46.85
762.686	46.41
762.866	46.82
763.046	45.98
763.225	46.44
763.405	46.57
763.585	46.94
763.765	46.87
763.945	46.5
764.124	46.41
764.304	46.03
764.484	45.67
764.664	45.6
764.843	45.46
765.023	46.07
765.203	45.43
765.382	45.72
765.562	45.38
765.741	45.62
765.921	45.93
766.101	45.91
766.28	46.23
766.46	47.04
766.639	47.25
766.819	47.86
766.998	47.68
767.178	47.85
767.357	47.26
767.537	47.88
767.716	48.03
767.896	48.26
768.075	48.3
768.254	49.17
768.434	48.99
768.613	49.06
768.792	48.46
768.972	48.02
769.151	48.49
769.33	49.14
769.51	49.16
769.689	49.2
769.868	48.71
770.047	49.1
770.226	48.13
770.406	48.18
770.585	48.07
770.764	48.88
770.943	50.13
771.122	49.84
771.301	49.39
771.48	49.62
771.66	49.79
771.839	50.15
772.018	49.93
772.197	50.21
772.376	49.98
772.555	49.92
772.734	49.34
772.913	48.16
773.092	48.17
773.271	48.64
773.449	48.2
773.628	48.42
773.807	49.27
773.986	49.41
774.165	49.99
774.344	50.15
774.523	50.51
774.701	51.09
774.88	51.93
775.059	52.2
775.238	52.51
775.417	52.97
775.595	52.68
775.774	52.24
775.953	52.68
776.131	51.01
776.31	50.38
776.489	50.32
776.667	49.96
776.846	49.42
777.025	49.34
777.203	48.37
777.382	48.19
777.56	47.64
777.739	48.13
777.917	47.26
778.096	48.09
778.274	48.45
778.453	48.73
778.631	48.75
778.81	49.17
778.988	49.29
779.166	49.72
779.345	50.21
779.523	50.61
779.702	50.38
779.88	50.43
780.058	50.48
780.237	50.11
780.415	49.97
780.593	50.51
780.771	50.64
780.95	51.22
781.128	51.06
781.306	50.86
781.484	51.29
781.662	50.83
781.841	51.39
782.019	51.71
782.197	52.38
782.375	52.89
782.553	52.28
782.731	51.96
782.909	50.89
783.087	50.89
783.265	50.64
783.443	50.33
783.621	50.28
783.799	50.32
783.977	50.24
784.155	50.48
784.333	49.19
784.511	48.91
784.689	49.7
784.867	50.34
785.045	50.67
785.223	49.95
785.4	49.38
785.578	49.23
785.756	49.01
785.934	48.45
786.112	49.05
786.289	49.66
786.467	50.55
786.645	50.98
786.823	50.96
787	51.34
787.178	51.51
787.356	51.89
787.533	51.96
787.711	52.54
787.889	52.89
788.066	51.85
788.244	51.73
788.421	51.37
788.599	50.15
788.776	49.56
788.954	48.73
789.131	49.37
789.309	48.94
789.486	48.77
789.664	48.64
789.841	48.47
790.019	49.13
790.196	49.89
790.373	49.28
790.551	49.45
790.728	50.38
790.906	51.69
791.083	52.67
791.26	53.56
791.437	53.87
791.615	53.76
791.792	53.98
791.969	53.45
792.146	52.42
792.324	52.87
792.501	52.93
792.678	52.33
792.855	51.4
793.032	49.42
793.209	48.9
793.387	48.68
793.564	48.8
793.741	48.96
793.918	49.4
794.095	48.57
794.272	48.29
794.449	49.14
794.626	49.49
794.803	50.42
794.98	51.18
795.157	50.12
795.334	51.32
795.511	50.42
795.688	50.5
795.864	50.6
796.041	50.62
796.218	50.73
796.395	50.64
796.572	50.8
796.749	49.9
796.925	49.95
797.102	50.63
797.279	50.07
797.456	51.24
797.632	51.07
797.809	50.37
797.986	51.57
798.162	50.82
798.339	49.15
798.516	48.14
798.692	48.98
798.869	48.99
799.046	49.43
799.222	49.26
799.399	47.63
799.575	47.49
799.752	46.78
799.928	46.79
800.105	47.28
800.281	48.5
800.458	49.33
800.634	47.95
800.811	48.43
800.987	49.02
801.163	49.61
801.34	50.29
801.516	49.71
801.692	50.81
801.869	50.73
802.045	51.61
802.221	51.34
802.398	50.75
802.574	50.86
802.75	51.16
802.926	50.34
803.103	49.72
803.279	49.27
803.455	50.39
803.631	50.24
803.807	49.92
803.983	50.1
804.16	49.79
804.336	50.5
804.512	50.63
804.688	48.85
804.864	48.23
805.04	47.38
805.216	47.92
805.392	46.87
805.568	46.87
805.744	47.29
805.92	44.96
806.096	46.29
806.272	45.97
806.448	46.19
806.623	45.76
806.799	46.79
806.975	47.44
807.151	47.76
807.327	49.9
807.503	48.81
807.678	47.95
807.854	49.94
808.03	49.29
808.206	48.38
808.381	48.78
808.557	49.54
808.733	49.52
808.908	49.57
809.084	48.84
809.26	47.25
809.435	47.66
809.611	48.74
809.787	48.89
809.962	48.68
810.138	49.78
810.313	48.63
810.489	48.96
810.664	48.77
810.84	48.23
811.015	48.25
811.191	47.53
811.366	47.54
811.542	47.26
811.717	45.41
811.892	45.66
812.068	44.96
812.243	46.08
812.419	46.23
812.594	45.47
812.769	45.12
812.944	45.89
813.12	45.62
813.295	45.8
813.47	44.58
813.645	45.5
813.821	45.55
813.996	45
814.171	45.03
814.346	44.22
814.521	44.53
814.697	44.6
814.872	44.65
815.047	46.16
815.222	46.49
815.397	46.73
815.572	45.85
815.747	46.68
815.922	45.93
816.097	44.89
816.272	45.32
816.447	45
816.622	44.52
816.797	43.66
816.972	42.55
817.147	41.37
817.322	41.61
817.496	41.85
817.671	39.83
817.846	40.72
818.021	41.21
818.196	40.88
818.371	41.28
818.545	41.37
818.72	41.42
818.895	42.17
819.069	43.85
819.244	42.86
819.419	43.47
819.594	43.14
819.768	42.55
819.943	42.51
820.117	42.32
820.292	41.82
820.467	42.66
820.641	42.51
820.816	41.56
820.99	40.98
821.165	40.56
821.339	39.97
821.514	40.26
821.688	40.22
821.863	40.1
822.037	40.11
822.212	40.07
822.386	39.52
822.56	39.31
822.735	39.21
822.909	38.9
823.084	38.95
823.258	39.02
823.432	38.84
823.606	38.83
823.781	38.86
823.955	38.53
824.129	38.24
824.303	38.54
824.478	38.4
824.652	38.5
824.826	38.67
825	39.11
825.174	39.29
825.348	38.69
825.523	38.91
825.697	38.47
825.871	38.81
826.045	38.93
826.219	38.81
826.393	39.17
826.567	39.07
826.741	39.08
826.915	38.26
827.089	37.93
827.263	38.46
827.437	38.23
827.611	38.81
827.784	38.6
827.958	38.44
828.132	38.32
828.306	38.47
828.48	38.26
828.654	38.64
828.827	39.57
829.001	39.56
829.175	40.15
829.349	40.4
829.522	40.23
829.696	41.05
829.87	41.8
830.044	42.47
830.217	42.37
830.391	43.67
830.565	43.25
830.738	42.51
830.912	43.41
831.085	43.14
831.259	44.13
831.432	43.33
831.606	43.07
831.779	42.74
831.953	43.22
832.126	42.8
832.3	41.49
832.473	41.58
832.647	41.57
832.82	40.57
832.994	39.39
833.167	38.32
833.34	38.01
833.514	37.51
833.687	38.36
833.86	37.42
834.034	37.35
834.207	37.74
834.38	37.13
834.553	37.89
834.727	38.72
834.9	38.68
835.073	38.59
835.246	38.87
835.419	39.31
835.593	39.02
835.766	39.3
835.939	40.36
836.112	40.66
836.285	41.08
836.458	40.2
836.631	39.74
836.804	41.46
836.977	41.58
837.15	42.4
837.323	43.05
837.496	43.41
837.669	43.35
837.842	41.85
838.015	42.61
838.188	42.28
838.361	42.31
838.533	42.05
838.706	43.78
838.879	44.88
839.052	44.31
839.225	45.31
839.398	42.39
839.57	43.18
839.743	44.01
839.916	43.36
840.088	44.52
840.261	46.67
840.434	46.51
840.607	45.86
840.779	46.19
840.952	46.18
841.124	44.41
841.297	46.91
841.47	46.61
841.642	45.74
841.815	46.52
841.987	46.77
842.16	44.39
842.332	44.95
842.505	44.22
842.677	43.24
842.85	42.7
843.022	42.61
843.194	41.31
843.367	42.61
843.539	44.85
843.712	43.16
843.884	45.08
844.056	47.08
844.229	45.86
844.401	45.42
844.573	49.22
844.745	51.92
844.918	52.35
845.09	56.38
845.262	54.56
845.434	52.83
845.606	55.63
845.779	52.9
845.951	51.17
846.123	52.75
846.295	52.87
846.467	47.86
846.639	46.88
846.811	46.39
846.983	45.2
847.155	45.04
847.327	44.91
847.499	46.12
847.671	48.52
847.843	49.13
848.015	47.59
848.187	44.38
848.359	47.18
848.531	50.08
848.703	49.96
848.875	50.31
849.047	54.25
849.218	56.02
849.39	53.79
849.562	52.29
849.734	49.84
849.905	50.28
850.077	52.82
850.249	55.35
850.421	53.18
850.592	55.82
850.764	54.77
850.936	51.53
851.107	50.87
851.279	48.74
851.451	50.34
851.622	49.74
851.794	47.25
851.965	47.37
852.137	46.27
852.308	47.75
852.48	45.18
852.651	43.94
852.823	44.8
852.994	41.47
853.166	42.55
853.337	41.63
853.509	45.42
853.68	48.38
853.851	47.83
854.023	47.59
854.194	47.16
854.365	47.63
854.537	49.73
854.708	48.14
854.879	50.07
855.05	50.32
855.222	49.18
855.393	49.05
855.564	50.16
855.735	50.77
855.906	49.7
856.078	45.24
856.249	44.89
856.42	43.38
856.591	43.86
856.762	45.77
856.933	46.34
857.104	45.21
857.275	46.31
857.446	47.91
857.617	46.71
857.788	45.21
857.959	46.12
858.13	42.68
858.301	43.62
858.472	44.23
858.643	43.62
858.814	41.13
858.985	46.43
859.155	43.94
859.326	42.38
859.497	43.36
859.668	47.3
859.839	51.76
860.009	57.35
860.18	58.15
860.351	58.55
860.522	59.34
860.692	58.64
860.863	55.58
861.034	54.14
861.204	54.87
861.375	53.32
861.546	52.19
861.716	48.1
861.887	45.46
862.057	43.39
862.228	43.68
862.398	42.57
862.569	44.69
862.739	43.36
862.91	43.6
863.08	37.73
863.251	39.06
863.421	39.98
863.592	40.32
863.762	43.15
863.932	39.11
864.103	38.2
864.273	35.39
864.443	33
864.614	31.76
864.784	31.65
864.954	38.22
865.125	35.82
865.295	33.09
865.465	32.59
865.635	30.8
865.805	31.54
865.976	33.02
866.146	36.32
866.316	40.17
866.486	40.28
866.656	44.76
866.826	46.65
866.996	45.43
867.166	46.96
867.336	47.11
867.506	49.37
867.676	49.8
867.846	48.12
868.016	47.42
868.186	42.55
868.356	41.78
868.526	38.7
868.696	38.24
868.866	43.69
869.036	44.76
869.206	44
869.376	41.23
869.545	38.08
869.715	42.69
869.885	42.73
870.055	44.62
870.224	51.79
870.394	50.53
870.564	50.31
870.734	48.94
870.903	45.34
871.073	46.98
871.243	46.72
871.412	53.7
871.582	50.57
871.751	50.11
871.921	48.5
872.091	48.83
872.26	49.6
872.43	47.37
872.599	43.59
872.769	44.73
872.938	46.78
873.108	51.38
873.277	50.77
873.446	50.28
873.616	51.19
873.785	52.26
873.955	45.93
874.124	45.32
874.293	43.4
874.463	46.47
874.632	43.5
874.801	43.71
874.971	42.2
875.14	38.26
875.309	36.41
875.478	33.96
875.647	31.72
875.817	32.46
875.986	33.67
876.155	35.83
876.324	37.16
876.493	39.81
876.662	41.35
876.831	37.21
877	36.02
877.17	35.94
877.339	38.75
877.508	38.9
877.677	41
877.846	36.71
878.015	35.41
878.184	32.19
878.352	33.99
878.521	31.69
878.69	37.33
878.859	37.89
879.028	38.35
879.197	40.36
879.366	41.03
879.534	39.91
879.703	42.97
879.872	40.48
880.041	40.44
880.21	36.54
880.378	34.9
880.547	32.28
880.716	33.35
880.884	32.52
881.053	31.09
881.222	30.81
881.39	30.5
881.559	29.56
881.727	30.06
881.896	29.56
882.065	30.37
882.233	30.08
882.402	29.68
882.57	29.36
882.739	29.08
882.907	29.14
883.076	29.13
883.244	28.54
883.412	28.19
883.581	27.5
883.749	27.77
883.918	27.5
884.086	27.17
884.254	27.06
884.423	27.22
884.591	27.31
884.759	27.01
884.927	27.13
885.096	27.3
885.264	27.7
885.432	27.84
885.6	29.49
885.769	29.18
885.937	30.98
886.105	32.08
886.273	31.75
886.441	32.98
886.609	32.49
886.777	33.77
886.945	37.07
887.113	39.37
887.281	41.36
887.449	38.43
887.617	38.64
887.785	38.84
887.953	36.3
888.121	38.29
888.289	39.36
888.457	39.23
888.625	37.26
888.793	36.05
888.961	34.59
889.129	37.65
889.296	39.88
889.464	40.92
889.632	40.43
889.8	46.51
889.967	44.17
890.135	44.54
