Data from 2938780__Reflection_01.txt Node
Date: Fri Mar 13 13:00:39 EDT 2015
User: robert
Spectrometer: USB4E03002
Autoset integration time: false
Trigger mode: 4
Integration Time (sec): 1.000000E-1
Scans to average: 10
Electric dark correction enabled: false
Nonlinearity correction enabled: false
Boxcar width: 5
Stray light correction enabled: false
XAxis mode: Wavelengths
Stop averaging: false
Number of Pixels in Spectrum: 3648
>>>>>Begin Spectral Data<<<<<
177.575	101.15
177.794	104.45
178.014	107.58
178.233	105.6
178.452	108.36
178.672	101.53
178.891	98.07
179.11	91.57
179.33	93.96
179.549	90.72
179.768	94.64
179.987	99.13
180.207	95.78
180.426	90.2
180.645	91.67
180.864	90.95
181.084	92
181.303	92.48
181.522	95.46
181.741	92.13
181.96	96.33
182.179	91.8
182.398	86.71
182.618	85.08
182.837	87.02
183.056	84.57
183.275	80.53
183.494	78.71
183.713	78.34
183.932	80.4
184.151	79.8
184.37	77.44
184.589	80.23
184.808	81.04
185.027	80.18
185.246	83.45
185.465	84.01
185.684	90.46
185.903	93.7
186.122	93.58
186.341	89.99
186.56	87.41
186.779	88.05
186.998	86.44
187.216	90.91
187.435	95.95
187.654	88.46
187.873	86.25
188.092	84.58
188.311	83.82
188.53	85.66
188.748	84.56
188.967	89.22
189.186	88.61
189.405	90.89
189.623	89.72
189.842	88.87
190.061	93.35
190.28	99.13
190.498	97.27
190.717	100.94
190.936	99.38
191.154	105.26
191.373	102.13
191.592	100.38
191.81	101.67
192.029	100.03
192.248	99.87
192.466	96.23
192.685	91.45
192.904	93.56
193.122	90.43
193.341	94.21
193.559	90.97
193.778	92.87
193.996	94.51
194.215	90.9
194.433	92.22
194.652	91.24
194.87	93.15
195.089	94.64
195.307	90.68
195.526	90.86
195.744	86.86
195.963	86.93
196.181	86.83
196.399	84.25
196.618	85.49
196.836	85.51
197.055	85.76
197.273	86.36
197.491	85.39
197.71	93.94
197.928	94.34
198.146	93.71
198.365	98.08
198.583	96.99
198.801	97.8
199.019	97.94
199.238	98.43
199.456	104.05
199.674	100.51
199.892	100.76
200.111	93.4
200.329	100.06
200.547	97.73
200.765	96.51
200.983	97.79
201.202	101.79
201.42	105
201.638	101.83
201.856	94.16
202.074	98.42
202.292	94.09
202.51	93.82
202.728	88.89
202.946	91.21
203.165	90.53
203.383	92.28
203.601	87.9
203.819	88.24
204.037	86.01
204.255	84.94
204.473	83.32
204.691	85.69
204.909	87.31
205.127	87.95
205.345	88.85
205.562	83.28
205.78	76.01
205.998	75.13
206.216	72.04
206.434	74.38
206.652	80.05
206.87	77.5
207.088	77.51
207.306	80.16
207.523	80.5
207.741	82.55
207.959	84.24
208.177	88.65
208.395	92.43
208.612	90.47
208.83	89.53
209.048	85.17
209.266	85.57
209.483	85.09
209.701	84.12
209.919	80.42
210.136	81.42
210.354	79.08
210.572	78.73
210.79	76.94
211.007	78.6
211.225	79.06
211.442	78.17
211.66	81.27
211.878	87.17
212.095	89.51
212.313	92.17
212.53	87.9
212.748	89.72
212.966	88.35
213.183	89.23
213.401	88.57
213.618	86.5
213.836	88.12
214.053	86.12
214.271	79.08
214.488	74.27
214.705	74.99
214.923	73.83
215.14	73.11
215.358	72.05
215.575	69.8
215.793	72.46
216.01	72.98
216.227	73.12
216.445	71.39
216.662	73.62
216.879	74.66
217.097	70.52
217.314	68.18
217.531	67.46
217.749	70.41
217.966	73.06
218.183	71.12
218.4	69.95
218.618	70.38
218.835	65.21
219.052	65.25
219.269	64.54
219.487	65.47
219.704	70.04
219.921	70.63
220.138	68.88
220.355	62.2
220.572	58.81
220.79	59.36
221.007	61.42
221.224	63.56
221.441	62.61
221.658	64.32
221.875	63.23
222.092	59.67
222.309	58.59
222.526	57.45
222.743	59.95
222.96	60.02
223.177	58.89
223.394	52.27
223.611	50.27
223.828	50.4
224.045	48.9
224.262	44.91
224.479	42.85
224.696	44.07
224.913	44.23
225.13	44.09
225.347	43.53
225.564	42.25
225.781	41.14
225.997	40.15
226.214	37.32
226.431	32.99
226.648	32.9
226.865	31.97
227.082	27.3
227.298	22.69
227.515	18.92
227.732	16.63
227.949	16.04
228.165	15.74
228.382	14.84
228.599	14.37
228.816	13.88
229.032	12.31
229.249	11.39
229.466	11.48
229.682	11.81
229.899	12.77
230.116	12.82
230.332	12.52
230.549	12.25
230.765	12.91
230.982	12.76
231.199	13.85
231.415	16.22
231.632	17.64
231.848	17.78
232.065	19.04
232.281	19.29
232.498	19.48
232.714	19.03
232.931	20.28
233.147	20.66
233.364	21.14
233.58	20.34
233.797	19.99
234.013	19.92
234.23	20.09
234.446	19.89
234.662	19.02
234.879	19.06
235.095	19.07
235.312	18.48
235.528	19.17
235.744	18.05
235.961	18.3
236.177	18.02
236.393	18.24
236.61	19.49
236.826	19.3
237.042	20.37
237.258	20.37
237.475	21.94
237.691	23.15
237.907	22.8
238.123	23.87
238.339	24.13
238.556	24.76
238.772	23.27
238.988	22.59
239.204	22.23
239.42	20.95
239.636	21.05
239.853	19.73
240.069	17.96
240.285	16.92
240.501	15.52
240.717	14.35
240.933	13.04
241.149	12.31
241.365	11.01
241.581	9.83
241.797	9.17
242.013	8.15
242.229	7.62
242.445	7.3
242.661	6.97
242.877	6.82
243.093	6.62
243.309	6.65
243.525	6.71
243.741	6.78
243.957	7.2
244.173	8
244.388	8.48
244.604	8.6
244.82	8.74
245.036	8.52
245.252	7.85
245.468	7.53
245.683	6.49
245.899	5.9
246.115	5.69
246.331	4.98
246.547	4.54
246.762	3.89
246.978	3.64
247.194	3.26
247.409	2.87
247.625	2.76
247.841	2.27
248.057	2.66
248.272	2.83
248.488	2.76
248.703	3.11
248.919	3.28
249.135	3.84
249.35	4.55
249.566	5.29
249.782	6.21
249.997	7.25
250.213	8.24
250.428	8.57
250.644	9.38
250.859	9.76
251.075	9.6
251.29	10.32
251.506	9.69
251.721	9.59
251.937	9.16
252.152	8.93
252.368	8.97
252.583	9.27
252.798	9.18
253.014	9.25
253.229	9.42
253.445	9.93
253.66	9.26
253.875	10.41
254.091	10.89
254.306	11.56
254.521	13.25
254.737	14.06
254.952	14
255.167	14.12
255.383	13.33
255.598	12.96
255.813	12.26
256.028	12.65
256.244	12.18
256.459	12.54
256.674	12.08
256.889	10.22
257.104	9.6
257.32	9.44
257.535	8.82
257.75	8.55
257.965	8.05
258.18	7.54
258.395	6.47
258.61	5.49
258.826	4.28
259.041	4.15
259.256	3.79
259.471	3.04
259.686	2.87
259.901	2.6
260.116	2.36
260.331	2.05
260.546	2.1
260.761	2.3
260.976	2.72
261.191	2.61
261.406	2.35
261.621	3.15
261.836	3.81
262.05	3.93
262.265	4.25
262.48	5.13
262.695	6.01
262.91	6.54
263.125	6.88
263.34	6.87
263.555	8
263.769	9.25
263.984	8.42
264.199	8.37
264.414	8.69
264.629	9.12
264.843	8.99
265.058	8.91
265.273	8.77
265.488	8.32
265.702	8.15
265.917	7.77
266.132	6.95
266.346	6.95
266.561	7.29
266.776	7.01
266.99	6.93
267.205	6.77
267.42	6.63
267.634	6.11
267.849	6.11
268.063	6.26
268.278	6.04
268.492	6.3
268.707	6.14
268.922	5.53
269.136	5.89
269.351	5.52
269.565	5.08
269.78	4.68
269.994	4.74
270.209	4.72
270.423	4.06
270.637	4.19
270.852	3.99
271.066	4.06
271.281	4.26
271.495	3.87
271.709	4.19
271.924	4.15
272.138	4.53
272.353	4.83
272.567	4.93
272.781	5.52
272.996	5.35
273.21	5.37
273.424	5.26
273.638	5.22
273.853	5.61
274.067	5.54
274.281	5.87
274.495	5.99
274.71	6.01
274.924	6.37
275.138	6.43
275.352	6.22
275.566	6.44
275.781	6.77
275.995	7.05
276.209	6.88
276.423	6.82
276.637	7.01
276.851	7.04
277.065	6.7
277.279	6.32
277.493	5.69
277.707	6.31
277.921	5.99
278.135	5.53
278.349	5.11
278.563	4.96
278.777	5.25
278.991	4.98
279.205	4.98
279.419	5.3
279.633	5.06
279.847	5.27
280.061	5.28
280.275	4.84
280.489	5.17
280.703	5.32
280.917	5.2
281.131	4.93
281.344	4.59
281.558	4.19
281.772	4.45
281.986	4.72
282.2	4.97
282.414	4.77
282.627	5.02
282.841	5.03
283.055	5.07
283.269	5
283.482	4.98
283.696	4.96
283.91	5.03
284.123	4.22
284.337	3.71
284.551	3.37
284.764	3.22
284.978	2.91
285.192	2.83
285.405	2.71
285.619	2.52
285.833	2.54
286.046	2.73
286.26	2.8
286.473	3.1
286.687	3.24
286.9	3.49
287.114	3.31
287.327	3.6
287.541	3.66
287.754	3.47
287.968	4.14
288.181	4.14
288.395	4.09
288.608	3.99
288.822	4.11
289.035	4.12
289.248	3.79
289.462	3.82
289.675	3.63
289.889	3.52
290.102	3.58
290.315	3.02
290.529	2.8
290.742	2.79
290.955	2.77
291.169	2.86
291.382	2.82
291.595	3.08
291.808	3.41
292.022	3.85
292.235	3.98
292.448	4.24
292.661	4.39
292.875	4.87
293.088	4.82
293.301	4.9
293.514	4.65
293.727	4.51
293.94	4.49
294.153	4.22
294.367	4.04
294.58	3.83
294.793	3.48
295.006	3.48
295.219	2.93
295.432	3.04
295.645	2.86
295.858	2.67
296.071	2.69
296.284	2.49
296.497	2.23
296.71	2.06
296.923	2.06
297.136	2.31
297.349	2.14
297.562	2.39
297.775	2.1
297.988	2.14
298.201	2.38
298.414	2.39
298.626	2.38
298.839	2.47
299.052	2.38
299.265	2.69
299.478	2.46
299.691	2.79
299.903	2.91
300.116	3.41
300.329	3.48
300.542	3.34
300.755	3.49
300.967	3.73
301.18	4.09
301.393	4.51
301.605	4.29
301.818	4.31
302.031	4.47
302.243	4.21
302.456	4.05
302.669	4.2
302.881	4.43
303.094	4.61
303.307	4.39
303.519	4.22
303.732	4.14
303.944	4.03
304.157	3.97
304.37	3.42
304.582	3.74
304.795	3.94
305.007	4.02
305.22	3.93
305.432	3.75
305.645	3.92
305.857	4.33
306.069	4.42
306.282	4.24
306.494	4.33
306.707	4.78
306.919	4.52
307.132	4.15
307.344	3.85
307.556	3.76
307.769	3.96
307.981	3.94
308.193	3.44
308.406	3.27
308.618	3.39
308.83	3.61
309.043	3.35
309.255	3.1
309.467	3.07
309.679	2.9
309.892	3.02
310.104	2.76
310.316	2.84
310.528	2.84
310.74	2.93
310.953	2.59
311.165	2.56
311.377	2.6
311.589	2.96
311.801	2.79
312.013	2.91
312.225	2.61
312.437	2.5
312.649	2.32
312.862	2.63
313.074	2.65
313.286	3.27
313.498	3.36
313.71	3.29
313.922	3.14
314.134	3.8
314.346	4.14
314.558	4.4
314.77	4.83
314.982	5.19
315.193	5.19
315.405	5.17
315.617	5.09
315.829	5
316.041	5.41
316.253	5.56
316.465	5.22
316.677	4.96
316.888	5.23
317.1	5.49
317.312	5.3
317.524	5.42
317.736	5.7
317.947	6.17
318.159	6.45
318.371	6.18
318.583	6.05
318.794	6.26
319.006	6.35
319.218	6.25
319.43	6.09
319.641	6.29
319.853	5.9
320.064	5.93
320.276	5.45
320.488	5.35
320.699	5.61
320.911	5.96
321.123	6.01
321.334	6.02
321.546	5.85
321.757	6.18
321.969	6.19
322.18	6.65
322.392	6.08
322.603	6.49
322.815	6.09
323.026	6.1
323.238	5.85
323.449	5.38
323.661	5.53
323.872	5.5
324.083	5
324.295	4.47
324.506	4.24
324.718	4.37
324.929	4.18
325.14	4.24
325.352	4.08
325.563	4.33
325.774	4.71
325.986	4.46
326.197	4.58
326.408	4.59
326.62	4.75
326.831	4.78
327.042	4.82
327.253	4.94
327.464	5.13
327.676	5.01
327.887	4.84
328.098	4.75
328.309	4.85
328.52	4.65
328.732	4.57
328.943	4.77
329.154	5.03
329.365	5.41
329.576	5.41
329.787	5.29
329.998	5.81
330.209	5.53
330.42	5.86
330.631	5.68
330.842	5.94
331.053	6.43
331.264	6.21
331.475	6.16
331.686	5.89
331.897	5.8
332.108	5.93
332.319	5.65
332.53	5.8
332.741	5.49
332.952	5.9
333.163	5.97
333.374	5.69
333.585	5.83
333.795	5.81
334.006	5.41
334.217	5.23
334.428	5.15
334.639	5.24
334.849	4.93
335.06	5.01
335.271	4.98
335.482	5
335.692	4.74
335.903	4.78
336.114	4.44
336.325	4.67
336.535	4.79
336.746	4.61
336.957	4.69
337.167	5.27
337.378	5.29
337.589	5.14
337.799	4.83
338.01	5.3
338.22	5.17
338.431	5.15
338.642	5.21
338.852	5.06
339.063	5.47
339.273	5.43
339.484	5.08
339.694	4.94
339.905	5.12
340.115	5.26
340.326	5.09
340.536	5.19
340.746	5.3
340.957	5.32
341.167	5.49
341.378	5.47
341.588	5.39
341.799	5.4
342.009	5.47
342.219	5.25
342.43	5.16
342.64	5.45
342.85	5.36
343.061	5.47
343.271	5.66
343.481	5.66
343.691	5.37
343.902	5.28
344.112	5.5
344.322	5.36
344.532	5.52
344.743	5.43
344.953	5.1
345.163	5
345.373	4.73
345.583	4.62
345.793	4.61
346.004	4.81
346.214	4.95
346.424	4.93
346.634	5.15
346.844	5.35
347.054	5.5
347.264	5.51
347.474	5.68
347.684	5.98
347.894	6.01
348.104	5.91
348.314	5.84
348.524	5.83
348.734	5.85
348.944	5.95
349.154	5.57
349.364	5.7
349.574	5.79
349.784	5.99
349.994	5.86
350.204	6.1
350.413	6.39
350.623	6.33
350.833	6.4
351.043	6.28
351.253	6.28
351.463	6.25
351.672	6.41
351.882	6.25
352.092	6.05
352.302	6.33
352.511	6.14
352.721	6.03
352.931	5.97
353.141	5.97
353.35	5.86
353.56	5.56
353.77	5.85
353.979	5.73
354.189	6.1
354.399	6.1
354.608	5.96
354.818	5.64
355.027	5.63
355.237	5.79
355.447	5.71
355.656	5.7
355.866	5.79
356.075	5.76
356.285	5.79
356.494	5.47
356.704	5.44
356.913	5.35
357.123	5.68
357.332	5.63
357.542	5.59
357.751	5.53
357.96	5.66
358.17	5.73
358.379	5.63
358.589	5.72
358.798	5.9
359.007	6
359.217	6.14
359.426	5.8
359.635	5.67
359.845	5.57
360.054	5.55
360.263	5.21
360.472	5.18
360.682	4.99
360.891	4.87
361.1	4.4
361.309	4.21
361.519	4.13
361.728	4.2
361.937	4.19
362.146	4.26
362.355	4.41
362.564	4.82
362.774	4.79
362.983	4.82
363.192	4.76
363.401	5.14
363.61	5.37
363.819	5.67
364.028	5.92
364.237	6.19
364.446	6.39
364.655	6.52
364.864	6.39
365.073	6.53
365.282	6.77
365.491	6.93
365.7	7.05
365.909	7.05
366.118	7.26
366.327	7.42
366.536	7.53
366.745	7.35
366.954	7.24
367.162	7.48
367.371	7.48
367.58	7.81
367.789	7.75
367.998	7.87
368.207	7.97
368.415	7.83
368.624	7.94
368.833	8.01
369.042	8.3
369.25	8.74
369.459	8.9
369.668	9
369.877	8.81
370.085	8.8
370.294	8.86
370.503	9.18
370.711	8.97
370.92	8.58
371.129	8.5
371.337	8.28
371.546	7.97
371.754	7.81
371.963	7.7
372.171	7.52
372.38	7.73
372.589	7.62
372.797	7.3
373.006	7.48
373.214	7.5
373.423	7.3
373.631	7.23
373.84	7.22
374.048	7.13
374.256	7.27
374.465	7.48
374.673	7.35
374.882	7.54
375.09	7.98
375.298	7.67
375.507	7.87
375.715	8.06
375.923	8.17
376.132	8.09
376.34	8.09
376.548	7.94
376.757	7.85
376.965	7.94
377.173	7.78
377.381	7.32
377.59	7.59
377.798	7.54
378.006	7.45
378.214	7.45
378.423	7.64
378.631	7.55
378.839	7.79
379.047	7.8
379.255	7.88
379.463	8.02
379.671	8.11
379.879	8.09
380.088	8.06
380.296	8.12
380.504	8.21
380.712	7.89
380.92	7.88
381.128	7.85
381.336	7.87
381.544	7.62
381.752	7.25
381.96	7.2
382.168	6.87
382.376	7.08
382.584	6.97
382.791	7
382.999	6.94
383.207	6.96
383.415	6.92
383.623	6.96
383.831	6.99
384.039	7.27
384.247	7.44
384.454	7.72
384.662	7.58
384.87	7.57
385.078	7.48
385.285	7.55
385.493	7.68
385.701	7.53
385.909	7.44
386.116	7.58
386.324	7.37
386.532	7.3
386.739	7.33
386.947	7.49
387.155	7.72
387.362	7.88
387.57	7.98
387.778	8.07
387.985	8.33
388.193	8.62
388.4	8.85
388.608	9.46
388.816	9.72
389.023	10.12
389.231	10.23
389.438	10.31
389.646	10.53
389.853	10.73
390.061	10.7
390.268	10.8
390.475	10.61
390.683	10.4
390.89	9.91
391.098	9.72
391.305	9.29
391.512	9.05
391.72	8.79
391.927	8.45
392.135	8.32
392.342	8.36
392.549	8.29
392.756	8.16
392.964	8.09
393.171	8.32
393.378	8.44
393.586	8.54
393.793	8.57
394	8.8
394.207	9.13
394.414	9.27
394.622	9.31
394.829	9.36
395.036	9.63
395.243	9.72
395.45	9.82
395.657	9.9
395.864	10.15
396.072	10.47
396.279	10.74
396.486	10.83
396.693	11.15
396.9	11.67
397.107	12.14
397.314	12.72
397.521	13.26
397.728	13.74
397.935	14.11
398.142	14.55
398.349	15.12
398.556	15.55
398.763	15.95
398.97	16.35
399.177	16.6
399.383	16.91
399.59	17.21
399.797	17.64
400.004	18.07
400.211	18.74
400.418	19.18
400.625	19.32
400.831	19.56
401.038	20.09
401.245	20.4
401.452	20.66
401.658	20.83
401.865	20.9
402.072	21.02
402.279	20.83
402.485	20.59
402.692	20.48
402.899	20.61
403.105	20.54
403.312	20.29
403.519	19.93
403.725	19.88
403.932	19.62
404.138	19.48
404.345	19.38
404.552	19.48
404.758	19.54
404.965	19.44
405.171	19.54
405.378	19.54
405.584	19.68
405.791	20.07
405.997	20.25
406.204	20.89
406.41	21.31
406.617	21.74
406.823	22.31
407.029	22.7
407.236	23.34
407.442	23.77
407.649	24.59
407.855	25.09
408.061	25.55
408.268	25.88
408.474	26.19
408.68	26.36
408.887	26.49
409.093	26.3
409.299	26.66
409.505	26.81
409.712	26.87
409.918	26.8
410.124	27.02
410.33	27.16
410.537	27.51
410.743	27.65
410.949	28.2
411.155	28.67
411.361	29.33
411.567	29.58
411.773	29.97
411.98	30.27
412.186	30.78
412.392	31.13
412.598	31.71
412.804	32.05
413.01	32.37
413.216	32.53
413.422	32.62
413.628	32.67
413.834	32.62
414.04	32.63
414.246	32.66
414.452	32.3
414.658	32.06
414.864	31.52
415.07	31.17
415.275	30.6
415.481	30.26
415.687	29.68
415.893	29.02
416.099	28.38
416.305	27.71
416.511	27.06
416.716	26.37
416.922	25.58
417.128	24.94
417.334	24.15
417.539	23.55
417.745	22.74
417.951	22.19
418.157	21.55
418.362	21.1
418.568	20.48
418.774	19.81
418.979	19.38
419.185	18.93
419.391	18.44
419.596	17.96
419.802	17.54
420.008	17.23
420.213	17.56
420.419	17.34
420.624	17.01
420.83	16.9
421.035	16.77
421.241	16.62
421.446	16.54
421.652	16.47
421.857	16.41
422.063	16.45
422.268	16.4
422.474	15.73
422.679	15.63
422.885	15.59
423.09	15.43
423.295	15.37
423.501	15.3
423.706	15.26
423.911	15.26
424.117	15.33
424.322	15.3
424.527	15.36
424.733	15.46
424.938	15.66
425.143	15.83
425.349	16.11
425.554	16.33
425.759	16.8
425.964	17.23
426.169	17.76
426.375	18.25
426.58	18.92
426.785	19.45
426.99	20.06
427.195	20.72
427.4	21.37
427.605	21.9
427.811	22.54
428.016	22.84
428.221	23.15
428.426	23.08
428.631	23.14
428.836	23.03
429.041	22.95
429.246	22.83
429.451	22.62
429.656	22.47
429.861	22.45
430.066	22.32
430.271	22.28
430.476	22.3
430.681	22.68
430.886	22.8
431.09	23.05
431.295	23.29
431.5	23.45
431.705	23.21
431.91	23.25
432.115	23.12
432.32	23.04
432.524	22.89
432.729	22.82
432.934	22.49
433.139	22.55
433.343	22.68
433.548	22.85
433.753	23.17
433.958	23.9
434.162	24.54
434.367	25.32
434.572	26.2
434.776	27.12
434.981	27.98
435.186	28.95
435.39	29.73
435.595	30.23
435.799	30.46
436.004	30.62
436.209	30.51
436.413	30.12
436.618	29.62
436.822	28.95
437.027	28.2
437.231	27.44
437.436	26.65
437.64	25.73
437.845	24.95
438.049	24.38
438.253	23.71
438.458	23.12
438.662	22.52
438.867	22.04
439.071	21.54
439.275	21.09
439.48	20.63
439.684	20.32
439.888	20.11
440.093	19.91
440.297	19.74
440.501	19.72
440.706	19.78
440.91	19.96
441.114	20.06
441.318	20.35
441.523	20.74
441.727	21.27
441.931	21.69
442.135	22.28
442.339	22.73
442.543	23.27
442.748	23.64
442.952	23.99
443.156	24.22
443.36	24.36
443.564	24.34
443.768	24.19
443.972	23.8
444.176	23.42
444.38	22.79
444.584	22.26
444.788	21.53
444.992	20.99
445.196	20.32
445.4	19.73
445.604	19.29
445.808	18.97
446.012	18.56
446.216	18.37
446.42	18.25
446.624	18.21
446.828	18.2
447.032	18.35
447.235	18.56
447.439	18.92
447.643	19.36
447.847	19.82
448.051	20.27
448.254	20.99
448.458	21.62
448.662	22.34
448.866	23.07
449.069	23.91
449.273	24.69
449.477	25.41
449.681	26.08
449.884	26.82
450.088	27.47
450.292	27.98
450.495	28.31
450.699	28.56
450.902	28.57
451.106	28.6
451.31	28.62
451.513	28.6
451.717	28.32
451.92	28.15
452.124	27.93
452.327	27.68
452.531	27.51
452.734	27.34
452.938	27.42
453.141	27.61
453.345	27.85
453.548	27.9
453.752	28.1
453.955	28.43
454.158	28.7
454.362	28.93
454.565	29.29
454.769	29.73
454.972	30.09
455.175	30.31
455.379	30.5
455.582	30.65
455.785	30.95
455.988	31.09
456.192	31.25
456.395	31.34
456.598	31.32
456.801	31.21
457.005	30.86
457.208	30.62
457.411	29.97
457.614	29.37
457.817	28.45
458.021	27.42
458.224	26.38
458.427	25.31
458.63	24.28
458.833	23.42
459.036	22.51
459.239	21.88
459.442	21.18
459.645	20.81
459.848	20.48
460.051	20.47
460.254	20.64
460.457	21.04
460.66	21.53
460.863	22.16
461.066	22.88
461.269	23.76
461.472	24.65
461.675	25.72
461.878	26.85
462.081	28.02
462.284	28.99
462.486	29.85
462.689	30.5
462.892	31.2
463.095	31.86
463.298	32.49
463.5	32.92
463.703	33.14
463.906	33.3
464.109	33.38
464.311	33.39
464.514	33.38
464.717	33.45
464.92	33.56
465.122	33.5
465.325	33.47
465.528	33.31
465.73	33.22
465.933	33.1
466.135	33.19
466.338	33.04
466.541	32.95
466.743	32.92
466.946	32.9
467.148	32.99
467.351	33.14
467.553	33.27
467.756	33.47
467.958	33.59
468.161	34.01
468.363	34.13
468.566	34.56
468.768	34.86
468.971	35.18
469.173	35.52
469.375	35.71
469.578	35.92
469.78	36.21
469.983	36.44
470.185	36.83
470.387	37.07
470.59	37.42
470.792	37.64
470.994	37.97
471.196	38.29
471.399	38.53
471.601	38.8
471.803	39.04
472.005	39.2
472.208	39.36
472.41	39.55
472.612	39.72
472.814	40
473.016	40.25
473.218	40.61
473.421	40.83
473.623	41.1
473.825	41.47
474.027	41.79
474.229	42.12
474.431	42.41
474.633	42.57
474.835	42.68
475.037	42.67
475.239	42.67
475.441	42.52
475.643	42.35
475.845	41.99
476.047	41.66
476.249	41.33
476.451	41
476.653	40.73
476.855	40.53
477.057	40.34
477.258	40.1
477.46	40.04
477.662	39.99
477.864	40.05
478.066	40.29
478.268	40.4
478.469	40.52
478.671	40.67
478.873	40.88
479.075	40.89
479.276	40.87
479.478	40.99
479.68	40.83
479.882	40.64
480.083	40.31
480.285	39.81
480.487	39.24
480.688	38.53
480.89	37.54
481.091	36.32
481.293	34.87
481.495	33.13
481.696	30.9
481.898	28.55
482.099	26.28
482.301	24.14
482.502	22.1
482.704	20.29
482.905	18.71
483.107	17.34
483.308	16.21
483.51	15.3
483.711	14.62
483.913	14.17
484.114	13.91
484.315	13.82
484.517	13.87
484.718	14.08
484.92	14.4
485.121	14.83
485.322	15.32
485.524	15.8
485.725	16.33
485.926	16.81
486.127	17.19
486.329	17.48
486.53	17.59
486.731	17.67
486.932	17.64
487.134	17.66
487.335	17.69
487.536	17.79
487.737	17.99
487.938	18.29
488.139	18.73
488.341	19.32
488.542	20.02
488.743	20.85
488.944	21.75
489.145	22.75
489.346	23.63
489.547	24.37
489.748	24.96
489.949	25.36
490.15	25.52
490.351	25.47
490.552	25.26
490.753	24.92
490.954	24.5
491.155	24.1
491.356	23.74
491.557	23.59
491.758	23.66
491.959	23.96
492.159	24.47
492.36	25.25
492.561	26.3
492.762	27.53
492.963	28.9
493.164	30.55
493.364	32.35
493.565	34.38
493.766	36.39
493.967	38.46
494.167	40.39
494.368	42.1
494.569	43.47
494.769	44.43
494.97	45.24
495.171	45.81
495.371	46.11
495.572	46.33
495.773	46.14
495.973	45.97
496.174	45.51
496.375	45.13
496.575	44.78
496.776	44.45
496.976	44.22
497.177	44.07
497.377	43.92
497.578	43.94
497.778	44.02
497.979	44.34
498.179	44.58
498.38	45.08
498.58	45.64
498.78	46.21
498.981	46.84
499.181	47.48
499.382	48.13
499.582	48.91
499.782	49.5
499.983	50.16
500.183	50.82
500.383	51.51
500.584	52.19
500.784	52.66
500.984	53.21
501.184	53.7
501.385	54.17
501.585	54.5
501.785	54.77
501.985	55.19
502.185	55.28
502.386	55.33
502.586	55.36
502.786	55.27
502.986	55.15
503.186	55.05
503.386	54.94
503.586	54.91
503.786	55.02
503.987	55.05
504.187	55.08
504.387	55.34
504.587	55.56
504.787	55.84
504.987	56.28
505.187	56.7
505.387	57.03
505.587	57.37
505.786	57.47
505.986	57.49
506.186	57.55
506.386	57.55
506.586	57.38
506.786	57.14
506.986	56.87
507.186	56.22
507.386	55.68
507.585	55.19
507.785	54.59
507.985	54.12
508.185	53.62
508.384	53.19
508.584	52.77
508.784	52.37
508.984	52.2
509.183	52
509.383	51.98
509.583	52.11
509.782	52.12
509.982	52.29
510.182	52.36
510.381	52.56
510.581	52.74
510.781	52.98
510.98	53.26
511.18	53.36
511.379	53.52
511.579	53.67
511.778	53.59
511.978	53.7
512.177	53.87
512.377	54.21
512.576	54.45
512.776	54.82
512.975	55.14
513.175	55.61
513.374	56.19
513.573	56.79
513.773	57.48
513.972	58.24
514.172	58.88
514.371	59.45
514.57	59.83
514.77	60.23
514.969	60.35
515.168	60.31
515.367	60.04
515.567	59.51
515.766	58.93
515.965	58.09
516.164	56.88
516.364	55.7
516.563	54.31
516.762	53
516.961	51.55
517.16	50.21
517.359	48.95
517.559	47.84
517.758	46.96
517.957	46.16
518.156	45.5
518.355	45.33
518.554	45.24
518.753	45.41
518.952	45.87
519.151	46.59
519.35	47.47
519.549	48.62
519.748	49.79
519.947	51.13
520.146	52.53
520.345	54.08
520.544	55.54
520.743	57.09
520.942	58.55
521.141	59.8
521.339	60.95
521.538	62.05
521.737	62.89
521.936	63.81
522.135	64.64
522.333	65.32
522.532	65.96
522.731	66.45
522.93	66.62
523.129	66.62
523.327	66.31
523.526	65.73
523.725	64.7
523.923	63.49
524.122	62
524.321	60.3
524.519	58.49
524.718	56.63
524.917	54.86
525.115	53.17
525.314	51.48
525.512	50.1
525.711	48.66
525.909	47.4
526.108	46.08
526.306	44.6
526.505	42.93
526.703	41.18
526.902	39.41
527.1	37.63
527.299	35.88
527.497	34.36
527.696	32.89
527.894	31.65
528.092	30.56
528.291	29.75
528.489	29.21
528.688	28.96
528.886	29.11
529.084	29.52
529.283	30.23
529.481	31.22
529.679	32.42
529.877	33.88
530.076	35.5
530.274	37.32
530.472	39.2
530.67	41.1
530.869	42.92
531.067	44.28
531.265	45.22
531.463	45.7
531.661	45.76
531.859	45.47
532.057	44.91
532.255	44.33
532.454	43.67
532.652	43.07
532.85	42.61
533.048	42.34
533.246	42.28
533.444	42.63
533.642	43.17
533.84	44.07
534.038	45.24
534.236	46.56
534.434	47.86
534.632	49.23
534.83	50.59
535.027	51.86
535.225	53.01
535.423	54.05
535.621	54.77
535.819	55.39
536.017	55.88
536.215	56.17
536.412	56.6
536.61	57.16
536.808	58.01
537.006	59.08
537.203	60.34
537.401	61.83
537.599	63.39
537.797	65.06
537.994	66.74
538.192	68.37
538.39	69.76
538.587	70.82
538.785	71.44
538.983	71.22
539.18	70.19
539.378	68.59
539.575	66.45
539.773	64.06
539.97	61.63
540.168	59.27
540.366	56.94
540.563	54.97
540.761	53.17
540.958	51.72
541.155	50.56
541.353	49.91
541.55	49.6
541.748	49.69
541.945	50.16
542.143	50.91
542.34	51.92
542.537	53.23
542.735	54.73
542.932	56.52
543.129	58.58
543.327	61.03
543.524	63.82
543.721	66.78
543.919	69.83
544.116	72.88
544.313	75.92
544.51	78.84
544.708	81.45
544.905	83.95
545.102	86.17
545.299	87.99
545.496	89.27
545.693	89.85
545.891	90.14
546.088	89.93
546.285	89.53
546.482	89.08
546.679	88.76
546.876	88.62
547.073	88.74
547.27	89.16
547.467	89.83
547.664	90.86
547.861	92.16
548.058	93.74
548.255	95.72
548.452	97.86
548.649	100.01
548.846	102.22
549.043	104.44
549.24	106.33
549.437	108.02
549.633	109.49
549.83	110.56
550.027	111.52
550.224	112.02
550.421	112.23
550.618	112.05
550.814	111.69
551.011	110.88
551.208	109.77
551.405	108.85
551.601	107.59
551.798	106.26
551.995	104.94
552.191	103.74
552.388	102.71
552.585	101.94
552.781	101.52
552.978	101.35
553.175	101.59
553.371	102.15
553.568	102.64
553.764	103.53
553.961	104.63
554.157	105.86
554.354	107.21
554.55	108.38
554.747	109.53
554.943	110.76
555.14	111.74
555.336	112.54
555.533	113.23
555.729	113.78
555.926	114.13
556.122	114.39
556.318	114.63
556.515	114.67
556.711	114.96
556.907	115.25
557.104	115.09
557.3	115.22
557.496	115.19
557.693	115.35
557.889	115.51
558.085	115.47
558.281	115.56
558.478	115.6
558.674	115.61
558.87	115.63
559.066	115.39
559.262	115.43
559.459	115.16
559.655	114.98
559.851	114.48
560.047	113.69
560.243	113.24
560.439	112.67
560.635	112.31
560.831	111.86
561.027	111.37
561.223	111.02
561.419	110.78
561.615	110.71
561.811	110.54
562.007	110.64
562.203	111.33
562.399	111.53
562.595	111.64
562.791	111.56
562.987	111.57
563.183	111.42
563.379	111.14
563.575	110.46
563.771	109.52
563.966	108.28
564.162	106.61
564.358	104.48
564.554	102.42
564.75	100.2
564.945	98.22
565.141	96.29
565.337	94.55
565.533	92.7
565.728	91.42
565.924	90.18
566.12	89.5
566.315	88.92
566.511	88.83
566.707	88.95
566.902	89.28
567.098	89.68
567.293	90.23
567.489	90.67
567.684	91.29
567.88	91.8
568.076	92.28
568.271	92.62
568.467	93.06
568.662	93.04
568.858	92.97
569.053	92.83
569.248	92.44
569.444	91.77
569.639	90.99
569.835	90.15
570.03	89.08
570.225	88.08
570.421	87.02
570.616	85.69
570.812	84.67
571.007	83.29
571.202	82.22
571.397	81.35
571.593	80.54
571.788	79.95
571.983	79.64
572.178	79.35
572.374	79.27
572.569	79.2
572.764	79.31
572.959	79.36
573.154	79.89
573.35	80.33
573.545	80.43
573.74	80.62
573.935	80.91
574.13	80.94
574.325	81.25
574.52	81.37
574.715	81.58
574.91	81.86
575.105	82.44
575.3	82.96
575.495	83.67
575.69	84.59
575.885	85.79
576.08	87.03
576.275	88.47
576.47	89.56
576.665	91.04
576.86	92.45
577.055	93.84
577.25	95.14
577.444	96.48
577.639	97.7
577.834	99.21
578.029	100.46
578.224	101.77
578.418	102.82
578.613	104.39
578.808	105.43
579.003	106.56
579.197	107.75
579.392	108.53
579.587	109.36
579.781	110.03
579.976	110.3
580.171	110.6
580.365	110.69
580.56	111.07
580.755	110.87
580.949	111.27
581.144	111.45
581.338	111.66
581.533	112.08
581.727	112.3
581.922	112.48
582.116	112.8
582.311	113.27
582.505	113.48
582.7	113.61
582.894	113.88
583.089	113.84
583.283	113.88
583.478	113.8
583.672	113.59
583.866	113.47
584.061	113.18
584.255	112.97
584.449	112.69
584.644	112.37
584.838	112
585.032	112.03
585.226	111.65
585.421	111.46
585.615	111.23
585.809	110.93
586.003	110.61
586.198	110.14
586.392	109.24
586.586	108.13
586.78	106.91
586.974	105.56
587.168	103.56
587.363	101.7
587.557	99.53
587.751	97.32
587.945	95
588.139	92.66
588.333	90.44
588.527	88.6
588.721	86.96
588.915	85.42
589.109	84.05
589.303	83.26
589.497	82.57
589.691	82.18
589.885	82.08
590.079	82.26
590.273	82.67
590.466	83.36
590.66	84.27
590.854	85.01
591.048	86.05
591.242	87
591.436	88.02
591.629	89.04
591.823	89.86
592.017	90.56
592.211	90.86
592.404	91.02
592.598	90.85
592.792	90.36
592.986	89.79
593.179	89.07
593.373	88.25
593.567	87.24
593.76	86
593.954	84.94
594.147	83.69
594.341	82.73
594.535	81.47
594.728	80.23
594.922	78.83
595.115	77.48
595.309	75.95
595.502	74.56
595.696	73.13
595.889	71.79
596.083	70.45
596.276	69.35
596.47	68.34
596.663	67.66
596.856	67.32
597.05	67.37
597.243	67.79
597.437	68.59
597.63	69.62
597.823	70.87
598.017	72.48
598.21	74.28
598.403	76.43
598.596	78.54
598.79	80.72
598.983	82.83
599.176	84.67
599.369	86.07
599.563	87.35
599.756	88.49
599.949	89.35
600.142	89.71
600.335	90.15
600.528	89.94
600.722	89.58
600.915	88.85
601.108	87.88
601.301	86.87
601.494	85.78
601.687	84.69
601.88	83.2
602.073	81.61
602.266	79.88
602.459	77.8
602.652	75.8
602.845	74.08
603.038	72.22
603.231	70.58
603.424	68.99
603.617	67.56
603.809	66.28
604.002	65.22
604.195	64.38
604.388	63.95
604.581	63.85
604.774	64.09
604.966	64.48
605.159	65.36
605.352	66.25
605.545	67.63
605.737	69.28
605.93	70.93
606.123	72.82
606.316	74.82
606.508	76.79
606.701	78.68
606.894	80.3
607.086	81.53
607.279	82.48
607.471	83.13
607.664	83.52
607.857	83.69
608.049	84.12
608.242	84.53
608.434	85.5
608.627	86.91
608.819	88.95
609.012	91.43
609.204	94.92
609.397	98.74
609.589	103.17
609.782	108.15
609.974	113.68
610.166	119.43
610.359	125.16
610.551	130.69
610.743	135.88
610.936	140.34
611.128	144.25
611.32	147
611.513	149.17
611.705	150.77
611.897	151.57
612.09	151.14
612.282	149.85
612.474	148.54
612.666	146.85
612.858	144.87
613.051	142.93
613.243	141.15
613.435	139.6
613.627	137.89
613.819	136.14
614.011	134.32
614.203	132.53
614.395	130.79
614.588	128.67
614.78	126.67
614.972	124.81
615.164	122.75
615.356	120.49
615.548	118.25
615.74	116.54
615.932	114.76
616.124	112.78
616.315	111.21
616.507	109.89
616.699	108.51
616.891	107.33
617.083	106.36
617.275	105.37
617.467	104.69
617.659	104.15
617.85	103.16
618.042	102.54
618.234	102.24
618.426	102.14
618.618	101.95
618.809	102.09
619.001	101.76
619.193	101.67
619.384	101.75
619.576	102.15
619.768	102.49
619.959	102.77
620.151	102.96
620.343	103.12
620.534	103.11
620.726	103.24
620.917	103.2
621.109	103.56
621.301	103.61
621.492	103.84
621.684	103.59
621.875	103.33
622.067	103.43
622.258	103.61
622.45	103.93
622.641	103.91
622.832	103.73
623.024	103.6
623.215	103.15
623.407	102.85
623.598	102.54
623.789	101.98
623.981	101.49
624.172	100.72
624.363	99.67
624.555	98.21
624.746	96.9
624.937	95.6
625.129	94.09
625.32	92.55
625.511	90.6
625.702	88.88
625.893	87.38
626.085	85.91
626.276	84.73
626.467	83.69
626.658	82.98
626.849	82.43
627.04	82.03
627.231	81.98
627.422	82.28
627.614	82.91
627.805	83.61
627.996	84.31
628.187	85.43
628.378	86.42
628.569	87.8
628.76	89.16
628.951	90.42
629.142	92.01
629.332	93.42
629.523	94.98
629.714	96.28
629.905	97.55
630.096	98.91
630.287	99.89
630.478	101.01
630.669	101.53
630.859	101.6
631.05	101.81
631.241	101.71
631.432	101.31
631.623	100.47
631.813	99.87
632.004	98.8
632.195	97.7
632.385	96.43
632.576	95.03
632.767	93.59
632.957	92.79
633.148	91.76
633.339	90.73
633.529	89.82
633.72	89.29
633.91	88.53
634.101	88.15
634.292	87.71
634.482	87.68
634.673	87.89
634.863	88.31
635.054	88.53
635.244	88.82
635.435	89.19
635.625	89.82
635.815	90.25
636.006	90.82
636.196	91.33
636.387	92.06
636.577	92.72
636.767	93.18
636.958	93.76
637.148	94.42
637.338	95.01
637.529	95.59
637.719	96
637.909	96.56
638.099	97.04
638.29	97.43
638.48	98.03
638.67	98.36
638.86	98.59
639.05	99.01
639.241	99.11
639.431	99.56
639.621	100.08
639.811	100.5
640.001	100.83
640.191	101.39
640.381	101.68
640.571	102.1
640.761	102.48
640.951	102.76
641.141	102.98
641.331	103.42
641.521	103.42
641.711	103.64
641.901	104.07
642.091	104.46
642.281	104.5
642.471	104.84
642.661	104.71
642.851	104.91
643.041	105.14
643.231	105.2
643.42	104.88
643.61	105.13
643.8	104.85
643.99	104.61
644.18	104.02
644.369	103.83
644.559	103.68
644.749	103.45
644.939	103.08
645.128	102.69
645.318	102.07
645.508	101.8
645.697	100.92
645.887	100.23
646.076	99.45
646.266	99.25
646.456	98.52
646.645	97.62
646.835	96.9
647.024	96.25
647.214	95.76
647.403	95.44
647.593	95.36
647.782	95.7
647.972	95.82
648.161	96.16
648.351	96.22
648.54	96.91
648.73	97.27
648.919	97.95
649.108	98.34
649.298	98.58
649.487	98.77
649.677	98.87
649.866	98.74
650.055	98.66
650.244	98.33
650.434	98.12
650.623	97.34
650.812	97.09
651.002	96.59
651.191	96.35
651.38	96.21
651.569	96.27
651.758	96.25
651.947	96.49
652.137	96.87
652.326	97.27
652.515	97.55
652.704	98.26
652.893	98.69
653.082	99.14
653.271	99.19
653.46	99.34
653.649	99.41
653.838	99.45
654.027	99.24
654.216	98.71
654.405	98.32
654.594	97.59
654.783	96.97
654.972	96.42
655.161	95.92
655.35	95.61
655.539	94.96
655.728	94.65
655.916	94.14
656.105	93.69
656.294	93.69
656.483	93.5
656.672	93.17
656.86	92.61
657.049	91.83
657.238	90.71
657.427	89.65
657.615	88.68
657.804	87.31
657.993	85.86
658.181	84.65
658.37	83.19
658.559	82.12
658.747	81.39
658.936	80.75
659.125	80.48
659.313	80.54
659.502	80.76
659.69	81.22
659.879	82.19
660.067	83.66
660.256	84.99
660.444	86.53
660.633	88.26
660.821	90.22
661.01	92.63
661.198	94.69
661.387	96.88
661.575	98.87
661.763	101.06
661.952	103.02
662.14	104.7
662.328	106.38
662.517	108.26
662.705	109.69
662.893	111.1
663.082	112.13
663.27	113.42
663.458	114.3
663.646	115.58
663.834	116.39
664.023	117.31
664.211	117.94
664.399	118.85
664.587	119.37
664.775	120.33
664.963	120.8
665.152	120.93
665.34	121.29
665.528	121.42
665.716	121.55
665.904	122.17
666.092	122.19
666.28	122.28
666.468	122.06
666.656	121.85
666.844	121.49
667.032	121.23
667.22	120.92
667.408	120.75
667.596	120.75
667.784	120.58
667.971	119.74
668.159	119.22
668.347	118.83
668.535	118.72
668.723	118.51
668.911	118.1
669.098	117.93
669.286	118.26
669.474	118.13
669.662	118.17
669.849	118.3
670.037	118.96
670.225	119.77
670.413	120.86
670.6	121.64
670.788	122.44
670.976	123.17
671.163	123.92
671.351	124.7
671.538	125.69
671.726	126.75
671.913	127.69
672.101	128.74
672.289	129.29
672.476	129.73
672.664	130.33
672.851	131.12
673.039	131.7
673.226	132.35
673.413	133.07
673.601	132.96
673.788	133.36
673.976	133.64
674.163	133.9
674.35	134.24
674.538	134.53
674.725	135.14
674.912	135.51
675.1	136.46
675.287	136.93
675.474	136.45
675.662	137.13
675.849	137.13
676.036	137.24
676.223	137.09
676.411	136.9
676.598	136.56
676.785	135.82
676.972	134.71
677.159	133.69
677.346	132.81
677.533	131.75
677.721	130.66
677.908	129.34
678.095	127.76
678.282	126.15
678.469	124.44
678.656	122.58
678.843	120.74
679.03	119.37
679.217	117.4
679.404	115.93
679.591	114.86
679.778	113.69
679.964	113.04
680.151	112.58
680.338	112.17
680.525	112.42
680.712	112.72
680.899	113.46
681.086	114.58
681.272	116.05
681.459	117.04
681.646	118.4
681.833	119.74
682.02	121.24
682.206	122.93
682.393	124.52
682.58	125.88
682.766	127.62
682.953	128.81
683.14	129.97
683.326	130.99
683.513	132.32
683.7	133.88
683.886	134.89
684.073	135.62
684.259	136.06
684.446	136.51
684.632	136.73
684.819	135.86
685.005	135.41
685.192	134.61
685.378	133.85
685.565	132.46
685.751	130.89
685.938	129.84
686.124	128.33
686.31	126.52
686.497	125.19
686.683	123.6
686.87	123.34
687.056	122.53
687.242	121.91
687.429	121.52
687.615	121.79
687.801	122.32
687.987	122.5
688.174	122.9
688.36	124.12
688.546	124.54
688.732	125.23
688.918	125.68
689.105	126.97
689.291	127.86
689.477	128.38
689.663	129.47
689.849	130.01
690.035	131.2
690.221	132.12
690.407	132.53
690.593	133.67
690.779	135.1
690.965	136.37
691.151	137.13
691.337	137.72
691.523	138.88
691.709	139.5
691.895	139.45
692.081	140.07
692.267	140.92
692.453	141.93
692.639	142.08
692.825	142.38
693.011	142.71
693.196	142.88
693.382	143.58
693.568	144.2
693.754	144.58
693.94	145.59
694.125	145.72
694.311	146.35
694.497	146.66
694.682	148.08
694.868	147.86
695.054	148.45
695.239	148.73
695.425	148.51
695.611	148.45
695.796	147.92
695.982	146.94
696.168	145.09
696.353	142.84
696.539	140.04
696.724	136.53
696.91	132.91
697.095	128.32
697.281	124.11
697.466	119.77
697.652	115.38
697.837	111.34
698.023	108.06
698.208	105.22
698.393	102.56
698.579	100.64
698.764	99.12
698.949	98.4
699.135	98.52
699.32	98.68
699.505	99.86
699.691	101.66
699.876	103.69
700.061	106.2
700.246	109.19
700.432	112.36
700.617	115.97
700.802	119.65
700.987	124.03
701.172	128.35
701.358	132.99
701.543	137.47
701.728	141.61
701.913	145.89
702.098	149.64
702.283	153.4
702.468	157.41
702.653	161.34
702.838	165.31
703.023	168
703.208	170.44
703.393	173.34
703.578	175.92
703.763	178.14
703.948	180.61
704.133	182.43
704.318	185.05
704.503	186.89
704.688	188.22
704.873	189.19
705.057	190.7
705.242	192.04
705.427	194.29
705.612	195.15
705.797	195.68
705.981	196.75
706.166	197.83
706.351	198.12
706.536	198.95
706.72	200.06
706.905	201.08
707.09	202.58
707.274	202.59
707.459	201.68
707.644	201.56
707.828	202.01
708.013	201.62
708.197	201.75
708.382	201.23
708.567	200.3
708.751	199.01
708.936	198.09
709.12	196.29
709.305	194.98
709.489	194.59
709.673	193.76
709.858	192.27
710.042	191.34
710.227	190.81
710.411	189.15
710.596	188.92
710.78	188.56
710.964	188.11
711.149	187.41
711.333	187.62
711.517	187.15
711.702	186.51
711.886	186.5
712.07	186.29
712.254	185.03
712.438	185.42
712.623	184.22
712.807	182.27
712.991	181.49
713.175	180.73
713.359	179.22
713.544	177.21
713.728	175.24
713.912	172.21
714.096	169.3
714.28	166.17
714.464	162.32
714.648	158.61
714.832	155.07
715.016	151.25
715.2	147.22
715.384	143.54
715.568	139.4
715.752	135.88
715.936	133.07
716.12	129.87
716.304	127.04
716.488	124.62
716.671	122.7
716.855	121.19
717.039	118.95
717.223	117.66
717.407	116.51
717.59	115.59
717.774	114.61
717.958	114.25
718.142	114.51
718.325	115
718.509	115.42
718.693	116.26
718.877	117.42
719.06	119.71
719.244	121.71
719.428	124.07
719.611	127.51
719.795	131.74
719.978	135.09
720.162	138.92
720.345	142.89
720.529	146.71
720.713	149.95
720.896	153.43
721.08	156.52
721.263	159.01
721.446	160.89
721.63	161.8
721.813	161.23
721.997	162.13
722.18	161.43
722.364	159.96
722.547	158.09
722.73	156.91
722.914	155.14
723.097	152.68
723.28	150.5
723.464	148.45
723.647	147.28
723.83	146.24
724.013	145.01
724.197	143.83
724.38	142.47
724.563	141.94
724.746	140.91
724.929	140.48
725.112	140.77
725.296	140.92
725.479	141.42
725.662	140.98
725.845	140.47
726.028	139.72
726.211	139.31
726.394	139.06
726.577	138.09
726.76	138.08
726.943	136.89
727.126	135.89
727.309	134.69
727.492	133.26
727.675	131.69
727.858	130.94
728.041	130.5
728.224	130.23
728.407	129.95
728.589	129.84
728.772	129.16
728.955	129.47
729.138	129.27
729.321	130.19
729.503	131.07
729.686	132.01
729.869	132.57
730.052	132.83
730.234	133.13
730.417	134.38
730.6	135.31
730.782	137.11
730.965	137.8
731.148	139.67
731.33	140.95
731.513	142.93
731.695	144.81
731.878	146.64
732.061	148.28
732.243	150.03
732.426	150.97
732.608	153.31
732.791	154.64
732.973	156.8
733.156	158.26
733.338	159.83
733.52	160.76
733.703	162.92
733.885	164.36
734.068	166.68
734.25	168.84
734.432	171.36
734.615	173.63
734.797	175.82
734.979	178.17
735.162	180.27
735.344	181.63
735.526	183.28
735.708	184.22
735.891	186.14
736.073	186.77
736.255	188.85
736.437	190.59
736.619	191.75
736.802	192.45
736.984	193.18
737.166	192.46
737.348	193.01
737.53	193.29
737.712	193.23
737.894	193.85
738.076	194.32
738.258	194.1
738.44	194.35
738.622	194.18
738.804	195.17
738.986	195.09
739.168	196.78
739.35	197.94
739.532	199.51
739.714	201.31
739.896	202.29
740.078	203.37
740.259	203.9
740.441	205.5
740.623	207.38
740.805	207.8
740.987	210.61
741.168	212.14
741.35	213.71
741.532	215.34
741.714	216.84
741.895	219.25
742.077	221.79
742.259	224.93
742.44	226.52
742.622	228.97
742.804	231.75
742.985	231.61
743.167	233.29
743.348	235.53
743.53	237.2
743.711	238.75
743.893	238.47
744.075	239.76
744.256	240.95
744.438	241.4
744.619	241.9
744.8	242.63
744.982	244.93
745.163	247.73
745.345	248.1
745.526	247.62
745.707	248.24
745.889	249.4
746.07	249.46
746.252	248.18
746.433	248.03
746.614	247.14
746.795	245.98
746.977	244.71
747.158	242.3
747.339	240.96
747.52	241.68
747.702	241.07
747.883	241.15
748.064	240.63
748.245	239.73
748.426	239.37
748.607	237.34
748.788	237.7
748.97	237.19
749.151	237.17
749.332	237.65
749.513	237.06
749.694	237.04
749.875	235.5
750.056	235.56
750.237	235.38
750.418	237.1
750.599	239.8
750.78	240.63
750.96	242.19
751.141	242.66
751.322	242.07
751.503	242.52
751.684	242.95
751.865	244.6
752.046	245.16
752.226	247.69
752.407	246.24
752.588	245.06
752.769	242.94
752.949	242.09
753.13	241.21
753.311	243.35
753.492	243.47
753.672	243.31
753.853	242.56
754.034	243.01
754.214	241.48
754.395	240.81
754.575	240.15
754.756	241.55
754.937	242.66
755.117	244.27
755.298	243.49
755.478	243.71
755.659	243.76
755.839	245.79
756.02	246.01
756.2	245.81
756.381	246.36
756.561	247.58
756.741	245.54
756.922	242.27
757.102	238.89
757.283	234.65
757.463	227.81
757.643	220.92
757.823	213.1
758.004	204.02
758.184	194
758.364	183.42
758.545	171.08
758.725	160.34
758.905	149.16
759.085	137.56
759.265	127.4
759.446	118.25
759.626	109.84
759.806	102.38
759.986	96.53
760.166	92.52
760.346	89.86
760.526	88.71
760.706	88.47
760.886	89.08
761.066	90.38
761.246	90.81
761.426	92.1
761.606	92.78
761.786	92.68
761.966	92.15
762.146	91.32
762.326	89.75
762.506	88.39
762.686	87.61
762.866	86.41
763.046	85.11
763.225	84.9
763.405	84.54
763.585	85.32
763.765	87.25
763.945	89.24
764.124	92.82
764.304	97.01
764.484	101.44
764.664	105.86
764.843	111.49
765.023	118.4
765.203	125.18
765.382	132.44
765.562	139.42
765.741	147.19
765.921	155.7
766.101	162.56
766.28	170.08
766.46	177.93
766.639	185.98
766.819	193.46
766.998	200.53
767.178	206.69
767.357	213.62
767.537	220.66
767.716	226.6
767.896	231.28
768.075	236.59
768.254	240.55
768.434	244.24
768.613	247.5
768.792	249.49
768.972	251.11
769.151	254.64
769.33	256.46
769.51	258.65
769.689	260.09
769.868	262.2
770.047	264.1
770.226	267.08
770.406	269.4
770.585	269.81
770.764	273.3
770.943	274.66
771.122	276.86
771.301	278.77
771.48	280.55
771.66	282.42
771.839	284.47
772.018	287.62
772.197	288.71
772.376	288.72
772.555	292.52
772.734	292.88
772.913	292.09
773.092	292.68
773.271	293.84
773.449	295.66
773.628	297.03
773.807	297.41
773.986	297.31
774.165	296.63
774.344	299.02
774.523	299.74
774.701	298.03
774.88	299.59
775.059	299.49
775.238	302.52
775.417	303.1
775.595	300.6
775.774	301.51
775.953	301.2
776.131	301.9
776.31	302.81
776.489	301.64
776.667	303.19
776.846	302.27
777.025	301.65
777.203	298.5
777.382	297.44
777.56	296.95
777.739	296.84
777.917	293.71
778.096	292.03
778.274	290.6
778.453	290.09
778.631	289.52
778.81	290.1
778.988	290.14
779.166	289.96
779.345	288.86
779.523	290.72
779.702	287.33
779.88	289.21
780.058	289.78
780.237	287.61
780.415	286.54
780.593	287.47
780.771	288.98
780.95	288.23
781.128	285.69
781.306	284.75
781.484	285.2
781.662	289.54
781.841	290.41
782.019	293.21
782.197	292.2
782.375	292.71
782.553	292.1
782.731	291.32
782.909	291.09
783.087	294.07
783.265	292.85
783.443	291.64
783.621	288.26
783.799	286.84
783.977	283.44
784.155	285.38
784.333	285.26
784.511	285.1
784.689	283.38
784.867	280.92
785.045	280.38
785.223	280.27
785.4	279.84
785.578	279.05
785.756	274.67
785.934	273.12
786.112	272.42
786.289	268.9
786.467	264.59
786.645	261.09
786.823	260.15
787	256.24
787.178	254.43
787.356	248.46
787.533	244.11
787.711	240.59
787.889	236.35
788.066	231.31
788.244	227.09
788.421	226.05
788.599	224.23
788.776	221.49
788.954	219.42
789.131	217.28
789.309	217
789.486	217.22
789.664	219.74
789.841	222.31
790.019	223.45
790.196	226.7
790.373	226.89
790.551	228.87
790.728	232.65
790.906	234.79
791.083	239.57
791.26	242.62
791.437	245.56
791.615	249.02
791.792	247.55
791.969	249.8
792.146	251.48
792.324	253.15
792.501	255.35
792.678	255.99
792.855	257.09
793.032	254.59
793.209	253.75
793.387	252.93
793.564	249.56
793.741	248.4
793.918	246.56
794.095	246.2
794.272	243.95
794.449	241.16
794.626	237.86
794.803	234.62
794.98	232.71
795.157	231.16
795.334	228.83
795.511	226.91
795.688	226.39
795.864	225.07
796.041	222.55
796.218	220.86
796.395	218.37
796.572	218.06
796.749	217.32
796.925	217.24
797.102	218.03
797.279	216.73
797.456	216.69
797.632	219.13
797.809	219.4
797.986	220.51
798.162	221.43
798.339	222.38
798.516	221.4
798.692	221.4
798.869	221.62
799.046	221.24
799.222	224.06
799.399	225.37
799.575	224.02
799.752	223.36
799.928	220.71
800.105	220
800.281	220.01
800.458	219.93
800.634	222.74
800.811	222.44
800.987	221.31
801.163	220.8
801.34	220.49
801.516	219.58
801.692	220.99
801.869	223
802.045	225.64
802.221	226.7
802.398	228.39
802.574	225.44
802.75	225.43
802.926	227.3
803.103	226.07
803.279	225.05
803.455	224.02
803.631	224.14
803.807	223.74
803.983	220.55
804.16	219.4
804.336	220.1
804.512	220.99
804.688	220.76
804.864	218.46
805.04	218.74
805.216	218.44
805.392	220.15
805.568	216.31
805.744	215.94
805.92	216.04
806.096	213.76
806.272	211.05
806.448	209.55
806.623	209.5
806.799	210.22
806.975	210.08
807.151	210.77
807.327	208.87
807.503	209.47
807.678	208.13
807.854	209.21
808.03	210.66
808.206	210.99
808.381	212.38
808.557	213.17
808.733	213.84
808.908	213.19
809.084	215.19
809.26	217.17
809.435	219.98
809.611	222.69
809.787	221.75
809.962	221
810.138	221.94
810.313	220.63
810.489	218.84
810.664	216.87
810.84	214.85
811.015	212.04
811.191	211.01
811.366	208.44
811.542	205.77
811.717	203.64
811.892	203.24
812.068	199.11
812.243	197.7
812.419	193.15
812.594	190.15
812.769	188.04
812.944	185.94
813.12	182.05
813.295	179.05
813.47	174.64
813.645	171.36
813.821	168
813.996	166.77
814.171	163.9
814.346	162.2
814.521	160.13
814.697	157.98
814.872	154.48
815.047	153.8
815.222	151.97
815.397	151.05
815.572	152.46
815.747	151.27
815.922	149.68
816.097	148.64
816.272	148.22
816.447	148.85
816.622	148.88
816.797	149.25
816.972	147.85
817.147	146.34
817.322	146.21
817.496	145.41
817.671	144.21
817.846	143.11
818.021	143.37
818.196	142.06
818.371	140.6
818.545	139.88
818.72	138.2
818.895	135.75
819.069	135.2
819.244	133.74
819.419	129.89
819.594	127.39
819.768	124.33
819.943	117.93
820.117	112.38
820.292	104.44
820.467	94.59
820.641	85.63
820.816	76.5
820.99	68.26
821.165	60.14
821.339	53.14
821.514	47.27
821.688	42.16
821.863	38.22
822.037	34.88
822.212	32.28
822.386	30.46
822.56	29.19
822.735	28.57
822.909	28.26
823.084	28.49
823.258	29.22
823.432	29.87
823.606	31.21
823.781	32.88
823.955	34.79
824.129	37.18
824.303	40.15
824.478	42.72
824.652	45.96
824.826	49.16
825	52.8
825.174	55.81
825.348	58.89
825.523	61.15
825.697	63.22
825.871	64.33
826.045	64.66
826.219	64.57
826.393	64.49
826.567	63.7
826.741	62.38
826.915	61.1
827.089	60.12
827.263	59.3
827.437	59.19
827.611	59.3
827.784	59.54
827.958	60.03
828.132	61.14
828.306	62.23
828.48	64.14
828.654	67.27
828.827	70.21
829.001	73.01
829.175	76.89
829.349	81.24
829.522	85.11
829.696	90.53
829.87	97.32
830.044	102.12
830.217	108.35
830.391	113.39
830.565	117.34
830.738	121.89
830.912	125.63
831.085	129.87
831.259	132.2
831.432	133.46
831.606	132.9
831.779	127.88
831.953	125.87
832.126	122
832.3	116.64
832.473	112.07
832.647	107.82
832.82	103.67
832.994	97.95
833.167	93.08
833.34	89.87
833.514	86.51
833.687	85.05
833.86	82.46
834.034	80.74
834.207	80.44
834.38	80.68
834.553	81.1
834.727	81.64
834.9	83.4
835.073	84.66
835.246	86.47
835.419	89.2
835.593	92.81
835.766	97.32
835.939	101.57
836.112	106.01
836.285	111.51
836.458	117.08
836.631	122.41
836.804	129.44
836.977	136.88
837.15	144.41
837.323	151.45
837.496	158.31
837.669	165.49
837.842	170.87
838.015	177.23
838.188	180.97
838.361	184.39
838.533	188.58
838.706	188.74
838.879	191.29
839.052	187.83
839.225	189.01
839.398	186.32
839.57	182.92
839.743	182.58
839.916	180.05
840.088	176.24
840.261	175.81
840.434	175.2
840.607	175.52
840.779	175.2
840.952	179.02
841.124	179.15
841.297	179.77
841.47	182.05
841.642	185.24
841.815	189.77
841.987	194.26
842.16	194.22
842.332	197.26
842.505	202.74
842.677	207.26
842.85	208.57
843.022	212.68
843.194	217.82
843.367	219.52
843.539	225.5
843.712	226.3
843.884	230.62
844.056	237.48
844.229	242.31
844.401	242.65
844.573	238.19
844.745	239.81
844.918	241.18
845.09	244.96
845.262	245.85
845.434	244.8
845.606	248.81
845.779	244.29
845.951	244.77
846.123	244.39
846.295	242.56
846.467	249.13
846.639	248.47
846.811	248.55
846.983	244.55
847.155	248.26
847.327	246.68
847.499	239.35
847.671	248.35
847.843	247.27
848.015	240.62
848.187	244.47
848.359	243.72
848.531	247.92
848.703	246.67
848.875	251.83
849.047	250.4
849.218	253.27
849.39	260.11
849.562	256.09
849.734	252.06
849.905	254.77
850.077	254.29
850.249	254.52
850.421	246.41
850.592	247.38
850.764	243.34
850.936	244.29
851.107	240.92
851.279	239.25
851.451	237.34
851.622	242.2
851.794	240.92
851.965	239.6
852.137	238.82
852.308	244.33
852.48	245.3
852.651	249.39
852.823	241.77
852.994	243.17
853.166	238.75
853.337	239.4
853.509	232.23
853.68	231.36
853.851	225.85
854.023	221.28
854.194	219.1
854.365	217.85
854.537	214.39
854.708	212.57
854.879	212.76
855.05	217.96
855.222	216.36
855.393	218.79
855.564	223.32
855.735	222.28
855.906	228.42
856.078	227.88
856.249	220.64
856.42	223.87
856.591	226.2
856.762	225.39
856.933	221.5
857.104	223.48
857.275	225.93
857.446	227.14
857.617	228.87
857.788	223
857.959	222.28
858.13	229.35
858.301	229.66
858.472	231.17
858.643	224.09
858.814	227.58
858.985	227.37
859.155	227.38
859.326	221.12
859.497	226.26
859.668	227.52
859.839	225.81
860.009	228.79
860.18	228.3
860.351	225.42
860.522	225.42
860.692	220.36
860.863	222.99
861.034	223.1
861.204	228.13
861.375	225.79
861.546	227.65
861.716	228.37
861.887	224.24
862.057	222.5
862.228	226.5
862.398	228.37
862.569	229.89
862.739	224.22
862.91	221.67
863.08	218.28
863.251	215.87
863.421	213.24
863.592	212.1
863.762	207.48
863.932	203.91
864.103	199.8
864.273	196.6
864.443	193.4
864.614	191.01
864.784	190.22
864.954	187.41
865.125	187.12
865.295	190.21
865.465	188.4
865.635	185.56
865.805	183.5
865.976	184.43
866.146	187.42
866.316	189.41
866.486	189.38
866.656	188.47
866.826	191.7
866.996	187.48
867.166	183.57
867.336	185.6
867.506	189.5
867.676	191.89
867.846	190.81
868.016	189.99
868.186	189.46
868.356	190.74
868.526	192.03
868.696	188.71
868.866	190.67
869.036	187.74
869.206	184.52
869.376	187.27
869.545	185.64
869.715	188.36
869.885	187.2
870.055	186.64
870.224	183.91
870.394	182.63
870.564	183.5
870.734	183.84
870.903	186.09
871.073	188.14
871.243	182.21
871.412	179.07
871.582	174.19
871.751	172.82
871.921	170.99
872.091	172
872.26	169.92
872.43	167.96
872.599	170.3
872.769	170.31
872.938	168
873.108	170.39
873.277	173.15
873.446	174.12
873.616	175.44
873.785	176.12
873.955	175.94
874.124	170.99
874.293	170
874.463	165.5
874.632	161.26
874.801	160.52
874.971	157.87
875.14	153.03
875.309	154.59
875.478	154.68
875.647	151.12
875.817	149.24
875.986	153.54
876.155	154.45
876.324	153.7
876.493	155.2
876.662	156.28
876.831	153.58
877	156.15
877.17	152.44
877.339	148.05
877.508	151.87
877.677	149.46
877.846	146.27
878.015	143.78
878.184	141.07
878.352	138.4
878.521	134.12
878.69	133.29
878.859	128.46
879.028	124.19
879.197	120.16
879.366	113.22
879.534	108.78
879.703	100.95
879.872	96.04
880.041	90.07
880.21	83.55
880.378	77.29
880.547	69.15
880.716	64.42
880.884	58.86
881.053	54.29
881.222	50.25
881.39	46.9
881.559	44.5
881.727	40.94
881.896	39.48
882.065	37.85
882.233	35.92
882.402	35.42
882.57	34.43
882.739	34.39
882.907	34.5
883.076	34.15
883.244	34.64
883.412	35
883.581	35.99
883.749	36.66
883.918	37.56
884.086	39.61
884.254	41.02
884.423	43.21
884.591	45.95
884.759	48.43
884.927	52.12
885.096	55.1
885.264	58.96
885.432	63.32
885.6	66.52
885.769	70.52
885.937	74.32
886.105	79.35
886.273	81.72
886.441	84.5
886.609	87.24
886.777	90.15
886.945	91.83
887.113	93.15
887.281	94.82
887.449	97.37
887.617	98.7
887.785	101.35
887.953	103.59
888.121	109.09
888.289	110.45
888.457	113.37
888.625	114.54
888.793	116.27
888.961	122.56
889.129	125.38
889.296	125.24
889.464	127.2
889.632	127.73
889.8	127.9
889.967	127.29
890.135	127.97
