Data from 2938738__Reflection_02.txt Node
Date: Sun Mar 15 18:10:07 EDT 2015
User: robert
Spectrometer: USB4E03002
Autoset integration time: false
Trigger mode: 4
Integration Time (sec): 1.000000E-1
Scans to average: 10
Electric dark correction enabled: false
Nonlinearity correction enabled: false
Boxcar width: 5
Stray light correction enabled: false
XAxis mode: Wavelengths
Stop averaging: false
Number of Pixels in Spectrum: 3648
>>>>>Begin Spectral Data<<<<<
177.575	174.2
177.794	247.25
178.014	320.77
178.233	392.87
178.452	584.7
178.672	543.19
178.891	768.66
179.11	758.95
179.33	994.57
179.549	1044.12
179.768	2687.1
179.987	1426.98
180.207	684.67
180.426	633
180.645	581.46
180.864	466.9
181.084	584.46
181.303	567.77
181.522	699.65
181.741	701.75
181.96	907.87
182.179	892.43
182.398	973.25
182.618	1252.4
182.837	1156.49
183.056	1003.98
183.275	1297.4
183.494	838.44
183.713	688.72
183.932	693.32
184.151	791.11
184.37	984.19
184.589	1502.73
184.808	1173.67
185.027	961.25
185.246	775.76
185.465	842.57
185.684	796.41
185.903	926.7
186.122	1200.37
186.341	1428.94
186.56	810.11
186.779	517.39
186.998	463.59
187.216	477.52
187.435	487.48
187.654	557.34
187.873	591.44
188.092	509.62
188.311	523.84
188.53	538.61
188.748	468.23
188.967	452.34
189.186	512.18
189.405	455.25
189.623	541.72
189.842	630.1
190.061	702.38
190.28	685.12
190.498	1540.71
190.717	1284.76
190.936	1195.78
191.154	1307.91
191.373	-16945
191.592	-17705
191.81	-4128.74
192.029	-3945.16
192.248	-2993.39
192.466	-3145.76
192.685	3454.87
192.904	1100.26
193.122	1016.13
193.341	995.93
193.559	906.29
193.778	840.17
193.996	939.95
194.215	795.87
194.433	636.71
194.652	554.48
194.87	463.73
195.089	619.43
195.307	765.44
195.526	1093.46
195.744	924.8
195.963	1419.92
196.181	4971.23
196.399	2579.05
196.618	2059.46
196.836	2350.61
197.055	4287.1
197.273	3637.27
197.491	2688.89
197.71	1592.8
197.928	861.28
198.146	922.37
198.365	715.64
198.583	498.28
198.801	587.5
199.019	694.39
199.238	506.53
199.456	553.28
199.674	585.67
199.892	659.71
200.111	603.03
200.329	681.02
200.547	761.08
200.765	1070.59
200.983	807.4
201.202	615.62
201.42	603.63
201.638	1847.85
201.856	1404.45
202.074	2574.81
202.292	1918.38
202.51	3822.58
202.728	14275
202.946	-8409.52
203.165	-3995.24
203.383	-2622.83
203.601	-2241.78
203.819	-1570.65
204.037	2786.44
204.255	1558.96
204.473	1515.04
204.691	914.13
204.909	639.08
205.127	634.5
205.345	419.44
205.562	391.32
205.78	466.05
205.998	465.56
206.216	444.79
206.434	549.72
206.652	525.95
206.87	470.65
207.088	538.06
207.306	642.16
207.523	561.23
207.741	956.17
207.959	717.61
208.177	538.47
208.395	475.42
208.612	471.1
208.83	483.43
209.048	475.71
209.266	619.62
209.483	651.23
209.701	655.81
209.919	710.47
210.136	477.71
210.354	477.63
210.572	563.26
210.79	455.04
211.007	443.49
211.225	434.93
211.442	532.62
211.66	422.29
211.878	390.7
212.095	328.04
212.313	314.47
212.53	351.01
212.748	324.76
212.966	333.99
213.183	363.33
213.401	334.02
213.618	330.64
213.836	350.45
214.053	367.76
214.271	411.99
214.488	476.73
214.705	564.19
214.923	513.59
215.14	1104.53
215.358	709.23
215.575	851.39
215.793	749.89
216.01	607.17
216.227	459.84
216.445	417.61
216.662	393.92
216.879	410.5
217.097	417.68
217.314	379.08
217.531	333.27
217.749	352.04
217.966	342.35
218.183	351.21
218.4	358.22
218.618	393.38
218.835	355.21
219.052	342.18
219.269	315.37
219.487	293.98
219.704	319.24
219.921	330.5
220.138	337.31
220.355	303.66
220.572	303.37
220.79	305.04
221.007	297.6
221.224	307.98
221.441	299.03
221.658	272.99
221.875	271.47
222.092	283.11
222.309	247.12
222.526	222.46
222.743	215.18
222.96	217.12
223.177	192.89
223.394	179.32
223.611	185.74
223.828	175.95
224.045	183.11
224.262	156.19
224.479	141.08
224.696	146.51
224.913	134.78
225.13	125.58
225.347	118.35
225.564	118.14
225.781	108.79
225.997	101.91
226.214	98.76
226.431	87.21
226.648	82.76
226.865	74.12
227.082	63.3
227.298	59.26
227.515	51.77
227.732	46.46
227.949	41.18
228.165	36.01
228.382	33.13
228.599	30.87
228.816	29.06
229.032	27.05
229.249	25.64
229.466	24.41
229.682	23.97
229.899	23.86
230.116	22.98
230.332	23.34
230.549	25.36
230.765	26.28
230.982	26.75
231.199	28.33
231.415	32.35
231.632	33.73
231.848	36.72
232.065	39.35
232.281	43.12
232.498	45.53
232.714	48.41
232.931	50.11
233.147	51.37
233.364	50.7
233.58	50.24
233.797	49.15
234.013	51.62
234.23	50.99
234.446	48.89
234.662	46.38
234.879	47.78
235.095	48.15
235.312	48.36
235.528	47.63
235.744	49.61
235.961	49.83
236.177	48.12
236.393	48.49
236.61	49.19
236.826	48.65
237.042	50.24
237.258	49.71
237.475	50.72
237.691	50.75
237.907	50.34
238.123	51.6
238.339	51.62
238.556	51.73
238.772	48.54
238.988	48
239.204	45.81
239.42	44.16
239.636	41.51
239.853	37.27
240.069	34.43
240.285	32.98
240.501	29.41
240.717	27.24
240.933	25.19
241.149	24.82
241.365	23.13
241.581	22.68
241.797	21.64
242.013	20.9
242.229	20.56
242.445	20.25
242.661	19.82
242.877	19.41
243.093	19.72
243.309	19.91
243.525	19.52
243.741	19.99
243.957	21.66
244.173	22.1
244.388	22.48
244.604	22.54
244.82	23
245.036	22.31
245.252	21.43
245.468	20.21
245.683	18.81
245.899	17.87
246.115	16.53
246.331	14.8
246.547	13.99
246.762	13.53
246.978	13.16
247.194	12.03
247.409	11.99
247.625	12.43
247.841	12.11
248.057	12.41
248.272	12.38
248.488	12.75
248.703	13.07
248.919	13.44
249.135	13.85
249.35	14.44
249.566	16.4
249.782	17.01
249.997	17.42
250.213	18.74
250.428	19.91
250.644	20.67
250.859	21.17
251.075	21.37
251.29	21.75
251.506	21.05
251.721	20.7
251.937	19.7
252.152	19.9
252.368	19.86
252.583	20.27
252.798	20.84
253.014	20.71
253.229	20.83
253.445	21.8
253.66	22.23
253.875	22.91
254.091	24.95
254.306	26.96
254.521	27.86
254.737	29.08
254.952	29.2
255.167	28.93
255.383	29.43
255.598	30.12
255.813	29.45
256.028	29.03
256.244	29.78
256.459	28.51
256.674	26.89
256.889	25.65
257.104	23.81
257.32	23.27
257.535	22.28
257.75	20.7
257.965	18.97
258.18	17.56
258.395	16.76
258.61	15.01
258.826	13.68
259.041	12.98
259.256	12.41
259.471	12.2
259.686	11.65
259.901	10.94
260.116	10.86
260.331	10.63
260.546	10.9
260.761	10.89
260.976	11.12
261.191	11.34
261.406	11.76
261.621	12.03
261.836	12.27
262.05	12.48
262.265	13.27
262.48	14.39
262.695	14.81
262.91	14.98
263.125	15.77
263.34	16.43
263.555	16.74
263.769	17.36
263.984	18.12
264.199	18.88
264.414	19.54
264.629	20.27
264.843	19.41
265.058	19.87
265.273	19.15
265.488	18.82
265.702	18.14
265.917	18
266.132	17.03
266.346	15.51
266.561	14.95
266.776	14.52
266.99	13.86
267.205	13.82
267.42	14.12
267.634	14.1
267.849	14.01
268.063	13.9
268.278	14.4
268.492	14.66
268.707	15.96
268.922	16.29
269.136	16.2
269.351	16.53
269.565	16.41
269.78	15.95
269.994	16.06
270.209	15.76
270.423	16.06
270.637	15.36
270.852	14.74
271.066	14.11
271.281	14.06
271.495	13.98
271.709	13.84
271.924	13.33
272.138	12.91
272.353	13.07
272.567	12.94
272.781	12.72
272.996	12.74
273.21	13.34
273.424	13.51
273.638	13.18
273.853	13.4
274.067	13
274.281	13.85
274.495	14.27
274.71	14.1
274.924	14.47
275.138	14.27
275.352	14.93
275.566	14.82
275.781	14.5
275.995	14.57
276.209	14.61
276.423	14.64
276.637	14.58
276.851	14.71
277.065	14.42
277.279	14.13
277.493	15.07
277.707	14.6
277.921	14.52
278.135	14.58
278.349	14.22
278.563	14.2
278.777	14.61
278.991	14.6
279.205	14.63
279.419	14.54
279.633	14.38
279.847	13.7
280.061	13.2
280.275	13.08
280.489	13.44
280.703	13.51
280.917	13.76
281.131	13.31
281.344	13.71
281.558	13.21
281.772	13.24
281.986	13.4
282.2	13.17
282.414	13.35
282.627	13.36
282.841	12.89
283.055	12.95
283.269	12.74
283.482	12.73
283.696	11.8
283.91	11.77
284.123	11.4
284.337	11.2
284.551	11.12
284.764	10.96
284.978	10.57
285.192	10.51
285.405	10.53
285.619	9.79
285.833	9.59
286.046	9.63
286.26	9.56
286.473	9.83
286.687	9.92
286.9	9.96
287.114	9.86
287.327	10.25
287.541	10.73
287.754	10.43
287.968	11.32
288.181	11.34
288.395	11.11
288.608	11.11
288.822	10.91
289.035	10.53
289.248	10.57
289.462	10.73
289.675	10.27
289.889	10.02
290.102	10.26
290.315	9.79
290.529	10.33
290.742	10.89
290.955	11.21
291.169	11.42
291.382	11.59
291.595	11.97
291.808	12.62
292.022	12.73
292.235	13.16
292.448	13.79
292.661	13.7
292.875	13.3
293.088	13.42
293.301	13.73
293.514	13.39
293.727	13.36
293.94	13.3
294.153	12.54
294.367	12.66
294.58	12.16
294.793	11.8
295.006	12.37
295.219	12.13
295.432	11.92
295.645	11.48
295.858	11.7
296.071	11.68
296.284	11.55
296.497	11.68
296.71	11.62
296.923	11.6
297.136	11.3
297.349	10.88
297.562	11.24
297.775	11.52
297.988	11.6
298.201	11.87
298.414	11.89
298.626	11.91
298.839	12.05
299.052	12.11
299.265	12.31
299.478	12.94
299.691	13.64
299.903	14.05
300.116	14.19
300.329	14.69
300.542	14.41
300.755	14.91
300.967	14.95
301.18	14.97
301.393	15.3
301.605	15.58
301.818	15.23
302.031	14.85
302.243	14.74
302.456	14.45
302.669	14.13
302.881	14.07
303.094	13.79
303.307	13.91
303.519	14.09
303.732	13.92
303.944	13.84
304.157	14.23
304.37	14.56
304.582	14.71
304.795	14.72
305.007	14.86
305.22	14.84
305.432	15.07
305.645	15.45
305.857	15.81
306.069	16.2
306.282	16.03
306.494	15.92
306.707	15.67
306.919	15.5
307.132	15.59
307.344	15.31
307.556	15.52
307.769	15.5
307.981	15.01
308.193	14.28
308.406	13.96
308.618	14.21
308.83	14.46
309.043	14.72
309.255	14.6
309.467	14.52
309.679	14.64
309.892	14.5
310.104	14.36
310.316	14.38
310.528	14.57
310.74	14.77
310.953	14.55
311.165	14.16
311.377	14.06
311.589	14.05
311.801	14.21
312.013	13.91
312.225	14.14
312.437	14.55
312.649	14.9
312.862	15.03
313.074	14.84
313.286	15.23
313.498	15.54
313.71	15.48
313.922	15.59
314.134	15.63
314.346	16.14
314.558	16.27
314.77	16.36
314.982	16.17
315.193	15.88
315.405	16.11
315.617	16.35
315.829	16.36
316.041	16.7
316.253	16.73
316.465	16.87
316.677	17.48
316.888	17.54
317.1	17.32
317.312	17.93
317.524	18.2
317.736	18.16
317.947	17.9
318.159	18.22
318.371	17.75
318.583	18.21
318.794	18.2
319.006	17.88
319.218	17.98
319.43	18.11
319.641	17.83
319.853	18.11
320.064	19.24
320.276	19.24
320.488	19.84
320.699	20.85
320.911	20.42
321.123	20.56
321.334	20.59
321.546	20.35
321.757	20.07
321.969	20.28
322.18	20.59
322.392	20.04
322.603	19.86
322.815	19.07
323.026	18.45
323.238	18.67
323.449	18.85
323.661	18.67
323.872	18.75
324.083	18.96
324.295	18.75
324.506	18.38
324.718	18.05
324.929	17.84
325.14	18.11
325.352	17.85
325.563	17.92
325.774	17.77
325.986	17.91
326.197	18.24
326.408	18.37
326.62	18.44
326.831	18.27
327.042	18.52
327.253	18.82
327.464	18.9
327.676	19.77
327.887	19.87
328.098	19.68
328.309	19.76
328.52	19.72
328.732	19.73
328.943	20.17
329.154	20.5
329.365	20.47
329.576	20.87
329.787	20.45
329.998	20.5
330.209	20.75
330.42	21.37
330.631	21.55
330.842	21.84
331.053	22.16
331.264	21.73
331.475	21.68
331.686	21.78
331.897	21.58
332.108	21.67
332.319	21.61
332.53	21.26
332.741	20.86
332.952	20.71
333.163	20.38
333.374	20.2
333.585	20.25
333.795	20.7
334.006	20.87
334.217	20.89
334.428	21.11
334.639	21.65
334.849	21.82
335.06	21.44
335.271	21.68
335.482	22.17
335.692	22.28
335.903	22.13
336.114	22.06
336.325	22.03
336.535	22.31
336.746	22.42
336.957	21.45
337.167	21.7
337.378	22.5
337.589	22.51
337.799	22.28
338.01	22.46
338.22	22.49
338.431	22.25
338.642	22.13
338.852	22.07
339.063	22.05
339.273	22.3
339.484	22.04
339.694	21.55
339.905	21.81
340.115	21.75
340.326	21.27
340.536	21.36
340.746	21.05
340.957	20.62
341.167	20.5
341.378	20
341.588	20.13
341.799	20.15
342.009	20.3
342.219	19.97
342.43	19.7
342.64	19.77
342.85	19.3
343.061	19.29
343.271	19.73
343.481	19.67
343.691	20.01
343.902	19.63
344.112	19.36
344.322	19.31
344.532	18.85
344.743	18.78
344.953	18.77
345.163	18.99
345.373	19.49
345.583	19.49
345.793	19.62
346.004	19.25
346.214	19.22
346.424	19.38
346.634	19.25
346.844	19.54
347.054	19.84
347.264	19.87
347.474	20.56
347.684	20.22
347.894	19.98
348.104	19.8
348.314	20.1
348.524	20.11
348.734	20.12
348.944	19.95
349.154	20.09
349.364	20.25
349.574	19.92
349.784	19.29
349.994	19.28
350.204	19.34
350.413	19.18
350.623	19.38
350.833	19.29
351.043	19.13
351.253	19.58
351.463	19.42
351.672	19.08
351.882	19.23
352.092	19.37
352.302	19.49
352.511	19.6
352.721	19.66
352.931	19.52
353.141	19.63
353.35	19.9
353.56	19.61
353.77	19.44
353.979	19.21
354.189	19.28
354.399	19.02
354.608	18.92
354.818	18.72
355.027	18.37
355.237	18.15
355.447	18.16
355.656	17.74
355.866	17.56
356.075	17.52
356.285	17.65
356.494	17.45
356.704	17.54
356.913	17.68
357.123	17.74
357.332	17.79
357.542	17.96
357.751	17.94
357.96	17.93
358.17	17.92
358.379	18.04
358.589	18.06
358.798	17.86
359.007	17.78
359.217	17.69
359.426	17.32
359.635	17.19
359.845	16.64
360.054	16.29
360.263	15.97
360.472	15.97
360.682	15.61
360.891	15.41
361.1	15.44
361.309	15.26
361.519	14.91
361.728	14.79
361.937	14.82
362.146	14.87
362.355	14.94
362.564	15.24
362.774	15.44
362.983	15.49
363.192	15.21
363.401	15.13
363.61	15.28
363.819	15.45
364.028	15.7
364.237	15.86
364.446	15.96
364.655	15.87
364.864	15.75
365.073	15.42
365.282	15.55
365.491	15.97
365.7	16.06
365.909	15.98
366.118	16.2
366.327	16.15
366.536	15.96
366.745	16.13
366.954	16.44
367.162	16.48
367.371	16.56
367.58	16.44
367.789	16.38
367.998	16.48
368.207	16.57
368.415	16.44
368.624	16.42
368.833	16.49
369.042	16.23
369.25	16.02
369.459	16.07
369.668	15.72
369.877	15.74
370.085	15.8
370.294	15.57
370.503	15.67
370.711	15.24
370.92	15.2
371.129	15.1
371.337	15.1
371.546	14.73
371.754	14.8
371.963	15.02
372.171	15.22
372.38	15.24
372.589	15.41
372.797	15.48
373.006	16
373.214	15.89
373.423	15.97
373.631	16.09
373.84	16.19
374.048	15.89
374.256	15.98
374.465	15.97
374.673	15.91
374.882	15.71
375.09	15.57
375.298	15.31
375.507	15.29
375.715	15.19
375.923	15.08
376.132	15.25
376.34	14.95
376.548	14.79
376.757	14.27
376.965	14.13
377.173	14.01
377.381	13.52
377.59	13.25
377.798	13.15
378.006	12.86
378.214	12.84
378.423	12.8
378.631	13.04
378.839	12.96
379.047	13.24
379.255	12.98
379.463	13.09
379.671	12.94
379.879	13.16
380.088	13.33
380.296	13.14
380.504	13.27
380.712	13.27
380.92	13.13
381.128	13.18
381.336	12.94
381.544	12.94
381.752	12.92
381.96	13.14
382.168	13
382.376	12.78
382.584	13.09
382.791	13.36
382.999	13.15
383.207	13.03
383.415	12.95
383.623	13.12
383.831	13.22
384.039	13.08
384.247	13
384.454	12.85
384.662	12.94
384.87	13
385.078	12.41
385.285	12.5
385.493	12.87
385.701	12.75
385.909	12.56
386.116	12.45
386.324	12.46
386.532	12.33
386.739	12.24
386.947	12.16
387.155	12.14
387.362	12.53
387.57	12.15
387.778	11.87
387.985	11.96
388.193	11.99
388.4	11.95
388.608	12.13
388.816	12.16
389.023	12.53
389.231	12.4
389.438	12.32
389.646	11.79
389.853	11.87
390.061	11.58
390.268	11.54
390.475	11.19
390.683	11.23
390.89	10.98
391.098	11.21
391.305	10.98
391.512	11.06
391.72	10.94
391.927	10.92
392.135	10.98
392.342	11.26
392.549	11.12
392.756	11.17
392.964	11.14
393.171	11.09
393.378	11.05
393.586	10.86
393.793	10.92
394	10.85
394.207	10.94
394.414	11
394.622	10.82
394.829	10.77
395.036	10.83
395.243	10.76
395.45	11.02
395.657	10.77
395.864	10.86
396.072	10.55
396.279	10.51
396.486	10.51
396.693	10.41
396.9	10.45
397.107	10.63
397.314	10.85
397.521	10.79
397.728	10.54
397.935	10.59
398.142	10.46
398.349	10.41
398.556	10.62
398.763	10.57
398.97	10.49
399.177	10.35
399.383	10.2
399.59	9.99
399.797	9.94
400.004	9.87
400.211	9.9
400.418	10.12
400.625	10.29
400.831	10.19
401.038	10.28
401.245	10.26
401.452	10.27
401.658	10.27
401.865	10.29
402.072	10.16
402.279	10.3
402.485	10.32
402.692	10.27
402.899	10.22
403.105	9.98
403.312	9.58
403.519	9.63
403.725	9.52
403.932	9.47
404.138	9.35
404.345	9.44
404.552	9.08
404.758	8.97
404.965	8.89
405.171	8.94
405.378	9.03
405.584	9.28
405.791	9.34
405.997	9.4
406.204	9.54
406.41	9.66
406.617	9.52
406.823	9.73
407.029	9.82
407.236	10
407.442	9.99
407.649	9.99
407.855	9.95
408.061	9.87
408.268	9.77
408.474	9.46
408.68	9.4
408.887	9.44
409.093	9.19
409.299	9.13
409.505	8.84
409.712	8.87
409.918	8.81
410.124	8.78
410.33	8.88
410.537	9.06
410.743	9
410.949	8.95
411.155	9.16
411.361	9.16
411.567	9.17
411.773	9.15
411.98	8.89
412.186	8.92
412.392	9.08
412.598	8.8
412.804	8.63
413.01	8.65
413.216	8.57
413.422	8.72
413.628	8.88
413.834	8.62
414.04	8.64
414.246	8.88
414.452	8.84
414.658	8.5
414.864	8.58
415.07	8.63
415.275	8.69
415.481	8.66
415.687	8.36
415.893	8.23
416.099	8.3
416.305	8.33
416.511	8.24
416.716	8.14
416.922	8.23
417.128	8.23
417.334	8.15
417.539	8.02
417.745	8.04
417.951	7.93
418.157	7.86
418.362	7.81
418.568	7.65
418.774	7.43
418.979	7.3
419.185	7.22
419.391	7.01
419.596	6.97
419.802	6.99
420.008	6.89
420.213	7.05
420.419	7.1
420.624	7.13
420.83	7.12
421.035	7.14
421.241	7.11
421.446	7.12
421.652	7.17
421.857	7.13
422.063	7.13
422.268	7.18
422.474	6.94
422.679	6.91
422.885	6.84
423.09	6.8
423.295	6.81
423.501	6.85
423.706	6.83
423.911	6.77
424.117	6.81
424.322	6.79
424.527	6.76
424.733	6.89
424.938	6.82
425.143	6.9
425.349	6.97
425.554	7
425.759	7.13
425.964	7.14
426.169	7.27
426.375	7.32
426.58	7.36
426.785	7.45
426.99	7.46
427.195	7.57
427.4	7.5
427.605	7.65
427.811	7.65
428.016	7.53
428.221	7.6
428.426	7.62
428.631	7.59
428.836	7.6
429.041	7.58
429.246	7.73
429.451	7.78
429.656	7.88
429.861	7.75
430.066	7.82
430.271	7.86
430.476	7.8
430.681	7.8
430.886	7.73
431.09	7.7
431.295	7.5
431.5	7.26
431.705	7.18
431.91	7.1
432.115	6.98
432.32	6.96
432.524	6.9
432.729	6.85
432.934	6.81
433.139	6.81
433.343	6.8
433.548	6.96
433.753	7.04
433.958	7.14
434.162	7.17
434.367	7.25
434.572	7.07
434.776	7.17
434.981	7.32
435.186	7.32
435.39	7.38
435.595	7.54
435.799	7.44
436.004	7.4
436.209	7.27
436.413	7.21
436.618	7.16
436.822	7.29
437.027	7.2
437.231	7.08
437.436	7.03
437.64	7.02
437.845	6.86
438.049	6.84
438.253	6.85
438.458	6.85
438.662	6.8
438.867	6.8
439.071	6.83
439.275	6.88
439.48	6.82
439.684	6.77
439.888	6.73
440.093	6.71
440.297	6.74
440.501	6.76
440.706	6.78
440.91	6.81
441.114	6.79
441.318	6.67
441.523	6.58
441.727	6.63
441.931	6.7
442.135	6.77
442.339	6.73
442.543	6.76
442.748	6.6
442.952	6.6
443.156	6.62
443.36	6.6
443.564	6.75
443.768	6.79
443.972	6.79
444.176	6.8
444.38	6.67
444.584	6.86
444.788	6.84
444.992	6.9
445.196	6.78
445.4	6.74
445.604	6.69
445.808	6.69
446.012	6.61
446.216	6.58
446.42	6.53
446.624	6.56
446.828	6.45
447.032	6.44
447.235	6.38
447.439	6.45
447.643	6.4
447.847	6.53
448.051	6.53
448.254	6.59
448.458	6.56
448.662	6.65
448.866	6.53
449.069	6.54
449.273	6.54
449.477	6.67
449.681	6.7
449.884	6.86
450.088	6.82
450.292	6.69
450.495	6.68
450.699	6.79
450.902	6.86
451.106	6.98
451.31	7.1
451.513	7.12
451.717	7.05
451.92	7.07
452.124	6.98
452.327	6.97
452.531	7.1
452.734	7.07
452.938	7.11
453.141	6.99
453.345	7.02
453.548	6.93
453.752	6.97
453.955	7.08
454.158	7.07
454.362	7.17
454.565	7.09
454.769	7.15
454.972	7.19
455.175	7.13
455.379	7.2
455.582	7.23
455.785	7.14
455.988	7.17
456.192	7.09
456.395	6.91
456.598	6.89
456.801	6.93
457.005	6.87
457.208	6.96
457.411	6.86
457.614	6.75
457.817	6.62
458.021	6.58
458.224	6.49
458.427	6.39
458.63	6.42
458.833	6.26
459.036	6.28
459.239	6.24
459.442	6.25
459.645	6.26
459.848	6.28
460.051	6.26
460.254	6.32
460.457	6.31
460.66	6.38
460.863	6.41
461.066	6.41
461.269	6.36
461.472	6.42
461.675	6.41
461.878	6.47
462.081	6.43
462.284	6.47
462.486	6.46
462.689	6.47
462.892	6.56
463.095	6.66
463.298	6.89
463.5	7.01
463.703	6.99
463.906	7
464.109	7.08
464.311	7.19
464.514	7.33
464.717	7.4
464.92	7.45
465.122	7.54
465.325	7.56
465.528	7.46
465.73	7.48
465.933	7.4
466.135	7.36
466.338	7.26
466.541	7.2
466.743	7.1
466.946	7.09
467.148	7.09
467.351	6.99
467.553	6.93
467.756	6.92
467.958	6.87
468.161	6.92
468.363	6.96
468.566	7.06
468.768	7.08
468.971	7.2
469.173	7.1
469.375	7.1
469.578	7.1
469.78	7.1
469.983	7.05
470.185	7.14
470.387	7.16
470.59	7.19
470.792	7.08
470.994	7.05
471.196	6.99
471.399	7.1
471.601	6.97
471.803	6.8
472.005	6.87
472.208	6.88
472.41	6.82
472.612	6.93
472.814	6.81
473.016	6.95
473.218	7
473.421	6.98
473.623	7.01
473.825	7.19
474.027	7.48
474.229	7.41
474.431	7.43
474.633	7.43
474.835	7.24
475.037	7.27
475.239	7.14
475.441	7.17
475.643	7.19
475.845	7.16
476.047	7.04
476.249	6.89
476.451	6.92
476.653	6.85
476.855	6.74
477.057	6.73
477.258	6.61
477.46	6.66
477.662	6.6
477.864	6.64
478.066	6.65
478.268	6.67
478.469	6.63
478.671	6.64
478.873	6.8
479.075	6.83
479.276	6.83
479.478	6.97
479.68	6.94
479.882	6.87
480.083	6.89
480.285	6.84
480.487	6.78
480.688	6.72
480.89	6.59
481.091	6.42
481.293	6.37
481.495	6.25
481.696	6.11
481.898	5.93
482.099	5.8
482.301	5.63
482.502	5.54
482.704	5.45
482.905	5.4
483.107	5.33
483.308	5.27
483.51	5.21
483.711	5.18
483.913	5.14
484.114	5.15
484.315	5.18
484.517	5.19
484.718	5.18
484.92	5.2
485.121	5.18
485.322	5.23
485.524	5.22
485.725	5.26
485.926	5.26
486.127	5.3
486.329	5.29
486.53	5.27
486.731	5.26
486.932	5.31
487.134	5.31
487.335	5.31
487.536	5.31
487.737	5.33
487.938	5.32
488.139	5.35
488.341	5.37
488.542	5.4
488.743	5.44
488.944	5.48
489.145	5.46
489.346	5.48
489.547	5.54
489.748	5.51
489.949	5.57
490.15	5.58
490.351	5.56
490.552	5.51
490.753	5.49
490.954	5.48
491.155	5.47
491.356	5.47
491.557	5.48
491.758	5.48
491.959	5.54
492.159	5.56
492.36	5.56
492.561	5.62
492.762	5.66
492.963	5.67
493.164	5.74
493.364	5.81
493.565	5.85
493.766	5.92
493.967	5.93
494.167	5.99
494.368	6.07
494.569	6.21
494.769	6.21
494.97	6.29
495.171	6.42
495.371	6.35
495.572	6.34
495.773	6.37
495.973	6.39
496.174	6.42
496.375	6.45
496.575	6.33
496.776	6.28
496.976	6.36
497.177	6.34
497.377	6.35
497.578	6.46
497.778	6.48
497.979	6.46
498.179	6.52
498.38	6.51
498.58	6.57
498.78	6.64
498.981	6.64
499.181	6.69
499.382	6.77
499.582	6.73
499.782	6.78
499.983	6.79
500.183	6.86
500.383	6.88
500.584	6.96
500.784	6.91
500.984	7.05
501.184	7.16
501.385	7.27
501.585	7.3
501.785	7.36
501.985	7.37
502.185	7.43
502.386	7.43
502.586	7.48
502.786	7.47
502.986	7.52
503.186	7.48
503.386	7.47
503.586	7.38
503.786	7.39
503.987	7.45
504.187	7.41
504.387	7.5
504.587	7.55
504.787	7.53
504.987	7.58
505.187	7.62
505.387	7.7
505.587	7.78
505.786	7.86
505.986	7.92
506.186	8.06
506.386	8.15
506.586	8.14
506.786	8.1
506.986	8.1
507.186	8.18
507.386	8.17
507.585	8.15
507.785	8.11
507.985	8.02
508.185	8.1
508.384	8.05
508.584	7.93
508.784	7.97
508.984	8.17
509.183	8.3
509.383	8.38
509.583	8.42
509.782	8.48
509.982	8.52
510.182	8.64
510.381	8.63
510.581	8.69
510.781	8.97
510.98	9.03
511.18	8.95
511.379	8.92
511.579	8.81
511.778	8.87
511.978	8.89
512.177	8.98
512.377	9.04
512.576	9.08
512.776	9.17
512.975	9.19
513.175	9.27
513.374	9.36
513.573	9.42
513.773	9.65
513.972	9.68
514.172	9.79
514.371	9.91
514.57	9.93
514.77	10
514.969	9.97
515.168	9.97
515.367	10.05
515.567	10.16
515.766	10.22
515.965	10.27
516.164	10.45
516.364	10.53
516.563	10.49
516.762	10.56
516.961	10.63
517.16	10.75
517.359	10.81
517.559	10.88
517.758	10.95
517.957	10.99
518.156	10.95
518.355	10.93
518.554	10.95
518.753	11.06
518.952	11.09
519.151	11.13
519.35	11.23
519.549	11.31
519.748	11.37
519.947	11.43
520.146	11.48
520.345	11.64
520.544	11.71
520.743	11.8
520.942	11.83
521.141	11.97
521.339	12.14
521.538	12.2
521.737	12.23
521.936	12.3
522.135	12.37
522.333	12.56
522.532	12.66
522.731	12.84
522.93	12.94
523.129	13.06
523.327	13.24
523.526	13.26
523.725	13.36
523.923	13.52
524.122	13.58
524.321	13.63
524.519	13.7
524.718	13.67
524.917	13.71
525.115	13.85
525.314	13.95
525.512	13.89
525.711	13.99
525.909	14.02
526.108	13.96
526.306	14.01
526.505	14.08
526.703	14.09
526.902	14.16
527.1	14.2
527.299	14.24
527.497	14.27
527.696	14.35
527.894	14.33
528.092	14.33
528.291	14.38
528.489	14.4
528.688	14.41
528.886	14.46
529.084	14.52
529.283	14.54
529.481	14.59
529.679	14.63
529.877	14.7
530.076	14.74
530.274	14.84
530.472	15
530.67	15.11
530.869	15.23
531.067	15.37
531.265	15.46
531.463	15.65
531.661	15.67
531.859	15.83
532.057	15.87
532.255	16.04
532.454	16.08
532.652	16.09
532.85	16.13
533.048	16.24
533.246	16.27
533.444	16.32
533.642	16.34
533.84	16.49
534.038	16.46
534.236	16.56
534.434	16.58
534.632	16.7
534.83	16.77
535.027	16.9
535.225	16.95
535.423	16.97
535.621	17.13
535.819	17.23
536.017	17.27
536.215	17.4
536.412	17.46
536.61	17.56
536.808	17.58
537.006	17.65
537.203	17.77
537.401	17.87
537.599	18.03
537.797	17.99
537.994	18
538.192	18.12
538.39	18.23
538.587	18.37
538.785	18.45
538.983	18.62
539.18	18.71
539.378	18.7
539.575	18.74
539.773	18.77
539.97	18.8
540.168	18.89
540.366	18.93
540.563	18.88
540.761	18.88
540.958	18.85
541.155	18.75
541.353	18.74
541.55	18.7
541.748	18.72
541.945	18.72
542.143	18.77
542.34	18.78
542.537	18.74
542.735	18.81
542.932	18.84
543.129	18.91
543.327	19.08
543.524	19.16
543.721	19.29
543.919	19.31
544.116	19.44
544.313	19.56
544.51	19.6
544.708	19.66
544.905	19.7
545.102	19.8
545.299	19.87
545.496	19.96
545.693	20.06
545.891	20.2
546.088	20.3
546.285	20.34
546.482	20.37
546.679	20.43
546.876	20.61
547.073	20.72
547.27	20.78
547.467	20.91
547.664	20.93
547.861	21.01
548.058	20.97
548.255	21.14
548.452	21.2
548.649	21.32
548.846	21.52
549.043	21.45
549.24	21.51
549.437	21.62
549.633	21.52
549.83	21.65
550.027	21.59
550.224	21.75
550.421	21.59
550.618	21.64
550.814	21.6
551.011	21.6
551.208	21.83
551.405	21.88
551.601	21.96
551.798	22.19
551.995	22.28
552.191	22.46
552.388	22.36
552.585	22.47
552.781	22.43
552.978	22.51
553.175	22.56
553.371	22.49
553.568	22.59
553.764	22.5
553.961	22.44
554.157	22.42
554.354	22.43
554.55	22.57
554.747	22.66
554.943	22.76
555.14	22.74
555.336	22.78
555.533	22.98
555.729	22.97
555.926	23.16
556.122	23.26
556.318	23.36
556.515	23.54
556.711	23.65
556.907	23.61
557.104	23.62
557.3	23.78
557.496	23.81
557.693	23.67
557.889	23.83
558.085	23.78
558.281	23.87
558.478	23.88
558.674	23.75
558.87	23.82
559.066	24.03
559.262	24.23
559.459	24.28
559.655	24.29
559.851	24.4
560.047	24.41
560.243	24.59
560.439	24.71
560.635	24.75
560.831	24.79
561.027	24.75
561.223	24.65
561.419	24.78
561.615	24.68
561.811	24.73
562.007	24.67
562.203	24.52
562.399	24.43
562.595	24.3
562.791	24.31
562.987	24.4
563.183	24.49
563.379	24.6
563.575	24.59
563.771	24.68
563.966	24.69
564.162	24.94
564.358	25.1
564.554	25.06
564.75	25.12
564.945	25.18
565.141	25.12
565.337	25.2
565.533	25.17
565.728	25.2
565.924	25.26
566.12	25.3
566.315	25.23
566.511	25.21
566.707	25.41
566.902	25.55
567.098	25.58
567.293	25.73
567.489	25.7
567.684	25.78
567.88	25.83
568.076	26
568.271	26.14
568.467	26.11
568.662	26.16
568.858	26.1
569.053	26
569.248	26.04
569.444	25.97
569.639	26.08
569.835	26.1
570.03	25.99
570.225	25.89
570.421	25.71
570.616	25.81
570.812	25.95
571.007	25.99
571.202	26.02
571.397	26.09
571.593	26.24
571.788	26.19
571.983	26.13
572.178	26.32
572.374	26.41
572.569	26.42
572.764	26.42
572.959	26.28
573.154	26.29
573.35	26.27
573.545	26.25
573.74	26.31
573.935	26.26
574.13	26.31
574.325	26.17
574.52	26.2
574.715	26.32
574.91	26.32
575.105	26.48
575.3	26.6
575.495	26.65
575.69	26.7
575.885	26.72
576.08	26.96
576.275	27.12
576.47	27.21
576.665	27.25
576.86	27.39
577.055	27.45
577.25	27.45
577.444	27.55
577.639	27.76
577.834	27.8
578.029	27.87
578.224	27.72
578.418	27.64
578.613	27.67
578.808	27.79
579.003	27.8
579.197	27.95
579.392	28.03
579.587	28.13
579.781	28.29
579.976	28.4
580.171	28.25
580.365	28.28
580.56	28.38
580.755	28.45
580.949	28.33
581.144	28.38
581.338	28.24
581.533	28.27
581.727	28.12
581.922	27.99
582.116	27.8
582.311	27.97
582.505	28.17
582.7	28.14
582.894	28.26
583.089	28.31
583.283	28.18
583.478	28.34
583.672	28.42
583.866	28.37
584.061	28.29
584.255	28.56
584.449	28.61
584.644	28.54
584.838	28.73
585.032	28.9
585.226	28.94
585.421	29.14
585.615	29.11
585.809	29.13
586.003	29.19
586.198	29.42
586.392	29.33
586.586	29.53
586.78	29.58
586.974	29.6
587.168	29.38
587.363	29.34
587.557	29.28
587.751	29.35
587.945	29.2
588.139	29.35
588.333	29.22
588.527	29.32
588.721	29.06
588.915	29.16
589.109	29.11
589.303	29.16
589.497	29.2
589.691	29.32
589.885	29.49
590.079	29.63
590.273	29.58
590.466	29.65
590.66	29.62
590.854	29.72
591.048	29.76
591.242	29.79
591.436	29.8
591.629	29.86
591.823	29.76
592.017	29.48
592.211	29.54
592.404	29.58
592.598	29.6
592.792	29.57
592.986	29.57
593.179	29.54
593.373	29.52
593.567	29.53
593.76	29.47
593.954	29.54
594.147	29.71
594.341	29.63
594.535	29.52
594.728	29.58
594.922	29.58
595.115	29.47
595.309	29.53
595.502	29.65
595.696	29.62
595.889	29.46
596.083	29.44
596.276	29.39
596.47	29.36
596.663	29.25
596.856	29.27
597.05	29.32
597.243	29.36
597.437	29.15
597.63	29.06
597.823	29.05
598.017	29.36
598.21	29.4
598.403	29.5
598.596	29.66
598.79	29.86
598.983	29.9
599.176	30.01
599.369	30.17
599.563	30.4
599.756	30.51
599.949	30.74
600.142	30.66
600.335	30.79
600.528	30.56
600.722	30.5
600.915	30.75
601.108	30.74
601.301	30.74
601.494	30.76
601.687	30.74
601.88	30.72
602.073	30.73
602.266	30.74
602.459	30.64
602.652	30.75
602.845	30.8
603.038	30.55
603.231	30.53
603.424	30.48
603.617	30.46
603.809	30.36
604.002	30.34
604.195	30.25
604.388	30.15
604.581	30.11
604.774	30.19
604.966	30.11
605.159	30.21
605.352	30.06
605.545	30.09
605.737	30.08
605.93	30.18
606.123	30.15
606.316	30.24
606.508	30.42
606.701	30.54
606.894	30.55
607.086	30.62
607.279	30.59
607.471	30.74
607.664	30.75
607.857	30.78
608.049	30.83
608.242	31.08
608.434	30.93
608.627	31.02
608.819	30.82
609.012	30.88
609.204	31.01
609.397	31.1
609.589	31.3
609.782	31.33
609.974	31.45
610.166	31.66
610.359	31.62
610.551	31.88
610.743	31.88
610.936	32.32
611.128	32.41
611.32	32.51
611.513	32.56
611.705	32.5
611.897	32.61
612.09	32.61
612.282	32.49
612.474	32.35
612.666	32.48
612.858	32.46
613.051	32.28
613.243	32.28
613.435	32.34
613.627	32.28
613.819	32.43
614.011	32.73
614.203	32.76
614.395	32.7
614.588	32.81
614.78	32.68
614.972	32.84
615.164	32.76
615.356	32.69
615.548	32.42
615.74	32.65
615.932	32.67
616.124	32.3
616.315	32.43
616.507	32.61
616.699	32.57
616.891	32.64
617.083	32.5
617.275	32.61
617.467	32.62
617.659	32.96
617.85	32.91
618.042	32.93
618.234	32.86
618.426	32.89
618.618	32.74
618.809	32.89
619.001	32.83
619.193	32.98
619.384	33.06
619.576	33.13
619.768	32.94
619.959	32.88
620.151	32.89
620.343	33.15
620.534	32.88
620.726	32.99
620.917	33.03
621.109	33.13
621.301	33.17
621.492	33.09
621.684	33.07
621.875	33.18
622.067	33.22
622.258	33.11
622.45	32.95
622.641	33.31
622.832	33.29
623.024	33.48
623.215	33.44
623.407	33.15
623.598	33.2
623.789	33.25
623.981	33.19
624.172	33.1
624.363	33.07
624.555	33.29
624.746	33.03
624.937	33
625.129	32.6
625.32	32.45
625.511	32.75
625.702	32.65
625.893	32.63
626.085	32.66
626.276	32.79
626.467	32.79
626.658	32.58
626.849	32.71
627.04	32.74
627.231	32.73
627.422	32.74
627.614	32.56
627.805	32.74
627.996	32.81
628.187	32.71
628.378	32.65
628.569	32.79
628.76	32.79
628.951	32.67
629.142	32.73
629.332	32.95
629.523	33.09
629.714	33.43
629.905	33.44
630.096	33.4
630.287	33.47
630.478	33.46
630.669	33.21
630.859	33.31
631.05	33.57
631.241	33.48
631.432	33.45
631.623	33.46
631.813	33.23
632.004	33.07
632.195	32.86
632.385	32.96
632.576	33.03
632.767	33.19
632.957	33.33
633.148	33.07
633.339	33.08
633.529	33.32
633.72	33.38
633.91	33.45
634.101	33.48
634.292	33.72
634.482	33.68
634.673	33.77
634.863	33.66
635.054	33.48
635.244	33.44
635.435	33.48
635.625	33.33
635.815	33.28
636.006	33.33
636.196	33.42
636.387	33.48
636.577	33.42
636.767	33.25
636.958	33.32
637.148	33.46
637.338	33.5
637.529	33.6
637.719	33.44
637.909	33.54
638.099	33.52
638.29	33.35
638.48	33.36
638.67	33.44
638.86	33.71
639.05	33.78
639.241	34.08
639.431	34.2
639.621	34.27
639.811	34.43
640.001	34.46
640.191	34.46
640.381	34.66
640.571	34.82
640.761	34.66
640.951	34.48
641.141	34.31
641.331	34.15
641.521	34.24
641.711	34.08
641.901	34.21
642.091	34.21
642.281	34.17
642.471	34.22
642.661	34.07
642.851	34.55
643.041	34.9
643.231	34.95
643.42	34.95
643.61	34.75
643.8	34.92
643.99	34.73
644.18	34.6
644.369	34.52
644.559	34.53
644.749	34.6
644.939	34.22
645.128	33.96
645.318	34.1
645.508	34.19
645.697	34.33
645.887	34.33
646.076	34.41
646.266	34.37
646.456	34.55
646.645	34.6
646.835	34.5
647.024	34.68
647.214	34.7
647.403	34.88
647.593	34.57
647.782	34.67
647.972	34.53
648.161	34.54
648.351	34.61
648.54	34.65
648.73	34.67
648.919	34.5
649.108	34.47
649.298	34.32
649.487	34.34
649.677	34.46
649.866	34.44
650.055	34.46
650.244	34.44
650.434	34.36
650.623	34.33
650.812	34.61
651.002	34.91
651.191	34.72
651.38	35.2
651.569	35.12
651.758	35.15
651.947	35.26
652.137	35.49
652.326	35.55
652.515	36.03
652.704	36.09
652.893	35.92
653.082	35.91
653.271	36.15
653.46	35.88
653.649	35.9
653.838	36.11
654.027	36.12
654.216	35.96
654.405	36.03
654.594	35.67
654.783	35.66
654.972	35.61
655.161	35.45
655.35	35.66
655.539	35.63
655.728	35.66
655.916	35.5
656.105	35.29
656.294	35.44
656.483	35.26
656.672	35.35
656.86	35.22
657.049	34.95
657.238	35.02
657.427	34.72
657.615	34.7
657.804	34.78
657.993	34.56
658.181	34.61
658.37	34.56
658.559	34.65
658.747	34.65
658.936	34.61
659.125	34.69
659.313	34.75
659.502	34.81
659.69	34.92
659.879	34.66
660.067	34.68
660.256	34.65
660.444	34.69
660.633	34.76
660.821	34.88
661.01	35.14
661.198	35.22
661.387	35.3
661.575	35.24
661.763	35.14
661.952	35.33
662.14	35.71
662.328	35.71
662.517	35.76
662.705	35.81
662.893	35.87
663.082	35.86
663.27	35.78
663.458	35.89
663.646	36.23
663.834	36.35
664.023	36.45
664.211	36.56
664.399	36.91
664.587	36.98
664.775	36.94
664.963	36.74
665.152	36.69
665.34	36.88
665.528	36.83
665.716	37.12
665.904	37.25
666.092	37.4
666.28	37.31
666.468	37.21
666.656	37.33
666.844	37.34
667.032	37.44
667.22	37.43
667.408	37.51
667.596	37.7
667.784	37.07
667.971	37.28
668.159	37.06
668.347	36.71
668.535	36.7
668.723	36.64
668.911	36.73
669.098	36.67
669.286	36.66
669.474	36.55
669.662	36.41
669.849	36.7
670.037	36.34
670.225	36.59
670.413	36.96
670.6	36.79
670.788	36.62
670.976	36.74
671.163	36.74
671.351	36.61
671.538	36.79
671.726	36.66
671.913	36.52
672.101	36.6
672.289	36.48
672.476	36.28
672.664	36.61
672.851	36.77
673.039	36.59
673.226	36.55
673.413	36.7
673.601	36.7
673.788	36.61
673.976	36.81
674.163	36.85
674.35	36.89
674.538	37.06
674.725	37.1
674.912	37.11
675.1	37.09
675.287	37.36
675.474	37.34
675.662	37.49
675.849	37.42
676.036	37.71
676.223	37.99
676.411	37.95
676.598	38.28
676.785	38.46
676.972	38.34
677.159	38.43
677.346	38.01
677.533	38.06
677.721	37.51
677.908	38.01
678.095	37.82
678.282	37.8
678.469	37.67
678.656	37.42
678.843	37.25
679.03	37.22
679.217	37.33
679.404	37.59
679.591	37.49
679.778	38.05
679.964	37.73
680.151	37.44
680.338	37.18
680.525	37.15
680.712	36.95
680.899	36.83
681.086	36.83
681.272	36.55
681.459	36.69
681.646	36.7
681.833	36.56
682.02	36.64
682.206	36.7
682.393	36.81
682.58	36.84
682.766	37.25
682.953	37.25
683.14	37.23
683.326	37.63
683.513	37.51
683.7	37.96
683.886	37.81
684.073	38.27
684.259	38.53
684.446	38.18
684.632	38.17
684.819	37.78
685.005	37.57
685.192	37.5
685.378	37.43
685.565	37.08
685.751	36.66
685.938	37.1
686.124	36.78
686.31	36.94
686.497	37.39
686.683	37.53
686.87	37.91
687.056	38.01
687.242	38.47
687.429	38.52
687.615	38.77
687.801	38.88
687.987	38.66
688.174	38.87
688.36	38.94
688.546	38.98
688.732	39.13
688.918	39.23
689.105	39.3
689.291	38.72
689.477	38.55
689.663	39.06
689.849	38.98
690.035	38.68
690.221	38.68
690.407	38.31
690.593	38.35
690.779	38.39
690.965	38.34
691.151	38.61
691.337	39.4
691.523	39.82
691.709	39.73
691.895	40.13
692.081	40.26
692.267	40.19
692.453	40.63
692.639	40.55
692.825	40.43
693.011	39.99
693.196	39.91
693.382	39.74
693.568	39.44
693.754	39.14
693.94	38.94
694.125	38.85
694.311	38.86
694.497	38.67
694.682	38.73
694.868	38.76
695.054	38.97
695.239	38.99
695.425	38.58
695.611	38.79
695.796	38.61
695.982	38.63
696.168	38.5
696.353	38.12
696.539	37.85
696.724	37.96
696.91	38.13
697.095	38.41
697.281	38.08
697.466	38.29
697.652	37.9
697.837	37.93
698.023	37.63
698.208	37.57
698.393	37.43
698.579	37.68
698.764	37.57
698.949	37.36
699.135	36.92
699.32	37.09
699.505	36.94
699.691	36.81
699.876	36.7
700.061	36.89
700.246	37.07
700.432	37.47
700.617	37.18
700.802	37.18
700.987	37.47
701.172	37.65
701.358	38
701.543	38.25
701.728	38.77
701.913	39.14
702.098	39.25
702.283	39.49
702.468	39.4
702.653	39.61
702.838	40.1
703.023	40.17
703.208	40.49
703.393	40.21
703.578	40.52
703.763	40.43
703.948	40.78
704.133	40.67
704.318	40.9
704.503	41.18
704.688	41.66
704.873	41.38
705.057	41.31
705.242	41.62
705.427	41.38
705.612	41.34
705.797	41.6
705.981	41.03
706.166	41.08
706.351	41.14
706.536	40.7
706.72	40.4
706.905	40.52
707.09	40.2
707.274	40.01
707.459	40.4
707.644	40.51
707.828	40.4
708.013	40.41
708.197	40.57
708.382	40.22
708.567	40.41
708.751	40.34
708.936	39.87
709.12	40.32
709.305	40.19
709.489	40.12
709.673	39.51
709.858	39.3
710.042	39.5
710.227	39.27
710.411	39.37
710.596	39.52
710.78	39.93
710.964	40.21
711.149	40.25
711.333	40.38
711.517	40.33
711.702	40.55
711.886	40.76
712.07	40.8
712.254	41.03
712.438	41.05
712.623	40.85
712.807	40.74
712.991	40.97
713.175	40.59
713.359	40.5
713.544	40.71
713.728	40.57
713.912	41.05
714.096	41.29
714.28	41.12
714.464	40.97
714.648	41.13
714.832	40.6
715.016	40.86
715.2	40.64
715.384	40.93
715.568	40.97
715.752	41.03
715.936	40.92
716.12	40.53
716.304	41.26
716.488	41.43
716.671	41.76
716.855	42.52
717.039	41.99
717.223	42.33
717.407	41.95
717.59	42.01
717.774	42.17
717.958	41.89
718.142	42.51
718.325	41.92
718.509	41.87
718.693	41.65
718.877	41.5
719.06	41.35
719.244	41.75
719.428	42.4
719.611	42.07
719.795	42.05
719.978	42.21
720.162	42.17
720.345	42.41
720.529	42.9
720.713	43.2
720.896	43.04
721.08	43.41
721.263	43.19
721.446	43.28
721.63	43.76
721.813	43.71
721.997	43.56
722.18	43.36
722.364	43.44
722.547	43.28
722.73	43.37
722.914	43.67
723.097	43.94
723.28	43.89
723.464	43.44
723.647	43.07
723.83	43.7
724.013	43.92
724.197	43.91
724.38	44.27
724.563	44.47
724.746	44.69
724.929	44.38
725.112	44.39
725.296	44.23
725.479	44.41
725.662	44.82
725.845	44.51
726.028	43.99
726.211	44.14
726.394	43.87
726.577	43.7
726.76	43.23
726.943	43.2
727.126	43.02
727.309	43.37
727.492	42.95
727.675	42.53
727.858	42.15
728.041	42.98
728.224	43.02
728.407	43.2
728.589	43.05
728.772	43.03
728.955	42.65
729.138	42.15
729.321	41.97
729.503	42.18
729.686	42.65
729.869	42.96
730.052	42.78
730.234	41.91
730.417	41.61
730.6	41.54
730.782	41.48
730.965	42
731.148	42.25
731.33	41.99
731.513	42.6
731.695	41.88
731.878	41.84
732.061	41.54
732.243	42.42
732.426	42.62
732.608	42.6
732.791	43.01
732.973	43.14
733.156	43.24
733.338	43.7
733.52	42.93
733.703	43.44
733.885	43.38
734.068	43.71
734.25	43.52
734.432	42.89
734.615	43.35
734.797	43.36
734.979	43.33
735.162	43.41
735.344	43.05
735.526	43.44
735.708	43.99
735.891	44.43
736.073	44.39
736.255	44.77
736.437	45.01
736.619	44.79
736.802	44.91
736.984	45.11
737.166	46.26
737.348	47
737.53	47.18
737.712	46.33
737.894	45.8
738.076	46.08
738.258	45.76
738.44	45.74
738.622	46.07
738.804	45.82
738.986	45.9
739.168	45.13
739.35	44.37
739.532	44.58
739.714	45.34
739.896	45.91
740.078	45.52
740.259	45.98
740.441	46.63
740.623	46.07
740.805	46.06
740.987	45.66
741.168	45.36
741.35	46.54
741.532	46.25
741.714	45.28
741.895	45.41
742.077	45.34
742.259	44.96
742.44	45.49
742.622	45.7
742.804	46.4
742.985	46.48
743.167	47.38
743.348	46.94
743.53	47.26
743.711	48.05
743.893	48.65
744.075	49.27
744.256	49.4
744.438	48.32
744.619	48.57
744.8	48.03
744.982	47.69
745.163	47.43
745.345	47.6
745.526	47.44
745.707	47.62
745.889	47.79
746.07	47.74
746.252	47.97
746.433	48.63
746.614	49.35
746.795	49.32
746.977	50.17
747.158	50.14
747.339	49.2
747.52	49.38
747.702	49
747.883	47.88
748.064	48.31
748.245	48.63
748.426	48.76
748.607	48.11
748.788	48.46
748.97	48.53
749.151	48.04
749.332	48.65
749.513	48.03
749.694	48.88
749.875	50.22
750.056	50.05
750.237	49.66
750.418	49.52
750.599	49.5
750.78	49.93
750.96	49.2
751.141	49.93
751.322	49.86
751.503	49.85
751.684	49.28
751.865	48.35
752.046	47.7
752.226	47.24
752.407	47.4
752.588	47.32
752.769	46.9
752.949	47.86
753.13	47.6
753.311	48.12
753.492	48.22
753.672	48.54
753.853	48.66
754.034	49.26
754.214	49.52
754.395	49.58
754.575	49.45
754.756	49.36
754.937	49.63
755.117	50.11
755.298	49.87
755.478	49.87
755.659	49.92
755.839	49.63
756.02	48.83
756.2	49.52
756.381	48.66
756.561	49.36
756.741	49.29
756.922	47.98
757.102	48.36
757.283	48.06
757.463	48.49
757.643	48.31
757.823	48.92
758.004	50.34
758.184	50.05
758.364	50.8
758.545	50.6
758.725	50.68
758.905	51.72
759.085	50.81
759.265	50.84
759.446	49.88
759.626	49.89
759.806	49.66
759.986	48.27
760.166	47.58
760.346	46.71
760.526	46.23
760.706	45.8
760.886	45.45
761.066	45.32
761.246	45.68
761.426	46.48
761.606	45.88
761.786	45.11
761.966	45.66
762.146	45.53
762.326	46.07
762.506	45.74
762.686	45.22
762.866	44.84
763.046	44.64
763.225	43.97
763.405	43.64
763.585	43.12
763.765	42.8
763.945	42.01
764.124	42.36
764.304	42.11
764.484	42.31
764.664	42.55
764.843	42.53
765.023	42.91
765.203	43.45
765.382	44.06
765.562	44.42
765.741	45.26
765.921	46.24
766.101	46.38
766.28	46.02
766.46	46.53
766.639	47.01
766.819	47.41
766.998	47.83
767.178	47.89
767.357	47.87
767.537	48.76
767.716	49.24
767.896	48.98
768.075	49.42
768.254	50.25
768.434	49.82
768.613	50.44
768.792	50.54
768.972	50.39
769.151	50.19
769.33	50.92
769.51	50.66
769.689	50.39
769.868	50.67
770.047	50.86
770.226	50.57
770.406	51.29
770.585	50.94
770.764	51.48
770.943	51.16
771.122	52.09
771.301	51.07
771.48	51.99
771.66	52.93
771.839	52.82
772.018	52.14
772.197	53.28
772.376	53.11
772.555	53.3
772.734	52.79
772.913	52.93
773.092	52.5
773.271	53.6
773.449	53.73
773.628	53.03
773.807	54.03
773.986	53.84
774.165	52.83
774.344	53.5
774.523	53.12
774.701	54.25
774.88	54.58
775.059	54.48
775.238	53.66
775.417	54.17
775.595	54.15
775.774	54.03
775.953	54.19
776.131	54.93
776.31	54.86
776.489	54.67
776.667	53.69
776.846	53.99
777.025	54.05
777.203	53.35
777.382	52.34
777.56	52.97
777.739	52.26
777.917	51.83
778.096	51.82
778.274	52.28
778.453	53.47
778.631	53.85
778.81	52.97
778.988	54.15
779.166	55.2
779.345	55.79
779.523	56
779.702	56.24
779.88	57.71
780.058	58.21
780.237	57.45
780.415	56.32
780.593	56.25
780.771	57.21
780.95	57.39
781.128	57.35
781.306	57.34
781.484	56.49
781.662	56.67
781.841	56.16
782.019	54.57
782.197	53.6
782.375	54.28
782.553	53.16
782.731	53.32
782.909	52.83
783.087	53.02
783.265	53.63
783.443	54.33
783.621	54.4
783.799	55.63
783.977	57.29
784.155	59.22
784.333	60.21
784.511	60.6
784.689	60.33
784.867	60.11
785.045	59.43
785.223	59.07
785.4	58.89
785.578	59.75
785.756	59.25
785.934	59.06
786.112	58.47
786.289	57.22
786.467	57.67
786.645	57.12
786.823	56.86
787	56.64
787.178	56.52
787.356	56.73
787.533	56.65
787.711	55.41
787.889	55.36
788.066	53.99
788.244	53.71
788.421	53.73
788.599	53.72
788.776	53.06
788.954	54.45
789.131	54.71
789.309	54.04
789.486	53.62
789.664	55.23
789.841	55.03
790.019	55.91
790.196	55.71
790.373	55.55
790.551	55.77
790.728	56.63
790.906	56.17
791.083	56.54
791.26	56.64
791.437	56.57
791.615	56.43
791.792	56.77
791.969	56.67
792.146	57.38
792.324	57.91
792.501	58.91
792.678	58.94
792.855	57.98
793.032	56.93
793.209	57.25
793.387	59.22
793.564	59.45
793.741	60.53
793.918	61.56
794.095	61.27
794.272	61.39
794.449	59.61
794.626	60.09
794.803	61.19
794.98	61.19
795.157	60.82
795.334	59.69
795.511	58.01
795.688	58.12
795.864	57.71
796.041	58.41
796.218	59.23
796.395	60.98
796.572	60.19
796.749	59.68
796.925	59.19
797.102	59.71
797.279	58.31
797.456	58.83
797.632	57.56
797.809	57.69
797.986	57.33
798.162	56.47
798.339	55.24
798.516	54.67
798.692	55.3
798.869	56.01
799.046	55.56
799.222	56.14
799.399	56.38
799.575	56.87
799.752	58.04
799.928	59.03
800.105	59.25
800.281	61.18
800.458	62.63
800.634	61.49
800.811	62.04
800.987	62.4
801.163	62.26
801.34	62.25
801.516	63.4
801.692	64.01
801.869	63.47
802.045	63.29
802.221	61.95
802.398	61.14
802.574	62.07
802.75	62.58
802.926	62.14
803.103	62.89
803.279	63.57
803.455	63.66
803.631	62.29
803.807	62.3
803.983	62.53
804.16	63.15
804.336	62.49
804.512	62.95
804.688	62.78
804.864	65.27
805.04	65.52
805.216	63.95
805.392	64.99
805.568	65.96
805.744	66.3
805.92	66.29
806.096	66.42
806.272	69.54
806.448	69.72
806.623	69.15
806.799	66.79
806.975	66.9
807.151	69.66
807.327	68.26
807.503	68.68
807.678	67.37
807.854	67.37
808.03	65.83
808.206	65.28
808.381	64.67
808.557	65.79
808.733	67.15
808.908	66.48
809.084	66.46
809.26	66.4
809.435	66.19
809.611	68.09
809.787	68.17
809.962	69.92
810.138	70.01
810.313	69.25
810.489	69.49
810.664	70.68
810.84	71.64
811.015	71.25
811.191	71.86
811.366	70.21
811.542	70.86
811.717	71.26
811.892	70.9
812.068	70.23
812.243	70.91
812.419	70.36
812.594	68.77
812.769	68.57
812.944	68.56
813.12	68.75
813.295	70.25
813.47	70
813.645	69.09
813.821	68.46
813.996	68.2
814.171	68.78
814.346	68.64
814.521	68.54
814.697	68.6
814.872	67.71
815.047	66.26
815.222	65.4
815.397	64.73
815.572	65.81
815.747	65.81
815.922	66.27
816.097	67.76
816.272	68.19
816.447	69.94
816.622	70.26
816.797	71.37
816.972	72.45
817.147	72.85
817.322	73
817.496	71.25
817.671	71.53
817.846	72.03
818.021	70.24
818.196	69.06
818.371	65.98
818.545	64.38
818.72	63.89
818.895	62.73
819.069	61.28
819.244	59.14
819.419	59.98
819.594	58.34
819.768	56.73
819.943	55.62
820.117	54.11
820.292	53.91
820.467	51.95
820.641	49.4
820.816	47.71
820.99	46.47
821.165	45.41
821.339	43.78
821.514	42.72
821.688	41.58
821.863	40.08
822.037	39.24
822.212	38.28
822.386	37.88
822.56	37.49
822.735	37.12
822.909	36.75
823.084	36.72
823.258	36.98
823.432	37.02
823.606	37.06
823.781	37.53
823.955	37.96
824.129	38.44
824.303	38.97
824.478	39.3
824.652	39.79
824.826	40.19
825	40.46
825.174	40.64
825.348	40.63
825.523	40.73
825.697	41.49
825.871	41.56
826.045	41.4
826.219	41.12
826.393	41.77
826.567	41.85
826.741	42.21
826.915	42.33
827.089	42.46
827.263	43.16
827.437	42.87
827.611	42.47
827.784	42.99
827.958	43.3
828.132	43.5
828.306	43.41
828.48	44.45
828.654	45.12
828.827	45.48
829.001	45.88
829.175	47.14
829.349	49.25
829.522	50.62
829.696	52.07
829.87	53.3
830.044	57.34
830.217	59.25
830.391	59.38
830.565	60.46
830.738	62.22
830.912	62.91
831.085	63.94
831.259	65.37
831.432	66.3
831.606	65.72
831.779	66.31
831.953	63.34
832.126	63.43
832.3	62.97
832.473	61.96
832.647	60.77
832.82	58.86
832.994	56.08
833.167	54.52
833.34	52.13
833.514	50.24
833.687	49.28
833.86	48.29
834.034	47.9
834.207	48
834.38	46.19
834.553	45.84
834.727	46.6
834.9	47.56
835.073	47.98
835.246	49.39
835.419	51.31
835.593	52.21
835.766	53.28
835.939	54.18
836.112	54.4
836.285	57.26
836.458	59.28
836.631	60.72
836.804	62.28
836.977	64.68
837.15	67.18
837.323	67.25
837.496	69.13
837.669	72.79
837.842	73.56
838.015	76.83
838.188	79.35
838.361	80.73
838.533	82.08
838.706	83.3
838.879	82.39
839.052	84.37
839.225	85.47
839.398	85.53
839.57	85.53
839.743	86.74
839.916	83.84
840.088	83.75
840.261	84.41
840.434	83.67
840.607	81.86
840.779	83.98
840.952	81.73
841.124	83.8
841.297	84.12
841.47	81.25
841.642	80.24
841.815	81.23
841.987	80.47
842.16	81.34
842.332	84.16
842.505	89.11
842.677	88.21
842.85	88.74
843.022	88.17
843.194	89.45
843.367	93.37
843.539	94.89
843.712	95.32
843.884	98.45
844.056	100
844.229	102.55
844.401	105.28
844.573	108.31
844.745	112.88
844.918	117.67
845.09	115.65
845.262	117.87
845.434	119.83
845.606	127.79
845.779	126.9
845.951	122.94
846.123	121.6
846.295	114.42
846.467	114.03
846.639	113.38
846.811	109.68
846.983	111.76
847.155	110.49
847.327	109.6
847.499	107.34
847.671	105.78
847.843	106.2
848.015	105.66
848.187	109.75
848.359	108.53
848.531	109.95
848.703	108.19
848.875	114.93
849.047	114.74
849.218	117.89
849.39	122.62
849.562	128.87
849.734	135.12
849.905	133.01
850.077	135.41
850.249	135.05
850.421	143.97
850.592	146.86
850.764	147.09
850.936	148.93
851.107	144.18
851.279	142.3
851.451	139.3
851.622	144.05
851.794	145.01
851.965	143.68
852.137	140.69
852.308	132.7
852.48	140.1
852.651	138.99
852.823	138.62
852.994	142.45
853.166	139.66
853.337	143.14
853.509	132.49
853.68	133.81
853.851	136.91
854.023	138.26
854.194	138.46
854.365	131.36
854.537	129.51
854.708	133.33
854.879	129.44
855.05	128.39
855.222	130.41
855.393	127.65
855.564	130.33
855.735	127.6
855.906	133.27
856.078	139.3
856.249	139.82
856.42	139.07
856.591	140.88
856.762	145.03
856.933	151.34
857.104	137.69
857.275	147.37
857.446	144.85
857.617	156.34
857.788	153.13
857.959	150.12
858.13	148.02
858.301	151.43
858.472	146.59
858.643	148.78
858.814	148.81
858.985	161.95
859.155	157.92
859.326	166.41
859.497	154.24
859.668	155.56
859.839	149.84
860.009	159.75
860.18	156.23
860.351	152.19
860.522	146.22
860.692	142.85
860.863	135.99
861.034	133.28
861.204	133.18
861.375	135.97
861.546	144.03
861.716	143.22
861.887	137
862.057	143.35
862.228	145.26
862.398	148.46
862.569	151.51
862.739	153.46
862.91	157.06
863.08	150.26
863.251	151.08
863.421	145.34
863.592	146.46
863.762	149.41
863.932	141.33
864.103	143.23
864.273	144.63
864.443	143.09
864.614	141.42
864.784	135.9
864.954	140.92
865.125	144.51
865.295	145.23
865.465	149.6
865.635	146.6
865.805	150.24
865.976	149.59
866.146	142.64
866.316	141.77
866.486	145.56
866.656	152.81
866.826	154.1
866.996	150.22
867.166	149.55
867.336	142.05
867.506	147.24
867.676	145.76
867.846	150.9
868.016	158.56
868.186	157.71
868.356	154.26
868.526	154.3
868.696	150.73
868.866	144.4
869.036	145.33
869.206	150.63
869.376	145.69
869.545	142.6
869.715	141.23
869.885	142.3
870.055	144.68
870.224	146.81
870.394	143.56
870.564	146.7
870.734	148.04
870.903	144.49
871.073	141.75
871.243	137.39
871.412	141.42
871.582	139.29
871.751	140.95
871.921	132.27
872.091	131.55
872.26	132.44
872.43	132.48
872.599	132
872.769	128.4
872.938	131.58
873.108	132.17
873.277	136.97
873.446	134.57
873.616	131.68
873.785	138.11
873.955	131.65
874.124	138.01
874.293	134.77
874.463	137.16
874.632	143.94
874.801	147.35
874.971	154.43
875.14	150.82
875.309	161.16
875.478	163.98
875.647	172.04
875.817	182.51
875.986	174.33
876.155	165.71
876.324	168.68
876.493	169.07
876.662	165.35
876.831	166.27
877	161.97
877.17	149.45
877.339	151.28
877.508	150.6
877.677	152.4
877.846	153.11
878.015	160.47
878.184	143.66
878.352	136.64
878.521	136.78
878.69	131.29
878.859	132.99
879.028	135.31
879.197	131.3
879.366	125.24
879.534	119.62
879.703	110.61
879.872	101.82
880.041	97.92
880.21	91.54
880.378	83.91
880.547	77.24
880.716	71.92
880.884	66.78
881.053	61.55
881.222	57.87
881.39	54.55
881.559	53.52
881.727	51.35
881.896	49.75
882.065	49.2
882.233	48.46
882.402	47.54
882.57	46.21
882.739	46.18
882.907	47.61
883.076	47.93
883.244	48.32
883.412	48.3
883.581	49.84
883.749	50.69
883.918	51.61
884.086	52.88
884.254	55.36
884.423	57.17
884.591	58.76
884.759	60.17
884.927	61.05
885.096	63.29
885.264	65.9
885.432	68.31
885.6	73.22
885.769	74.53
885.937	75.33
886.105	77.06
886.273	82.53
886.441	86.07
886.609	88.41
886.777	91.91
886.945	96.5
887.113	100.86
887.281	102.1
887.449	104.76
887.617	108.74
887.785	114.13
887.953	117.26
888.121	117.77
888.289	120.97
888.457	121.33
888.625	123.52
888.793	125.24
888.961	128.49
889.129	135.1
889.296	132.14
889.464	132.23
889.632	133.96
889.8	133.56
889.967	133.01
890.135	137.16
