Data from 2938743__Reflection_03.txt Node
Date: Sun Mar 15 11:58:41 EDT 2015
User: robert
Spectrometer: USB4E03002
Autoset integration time: false
Trigger mode: 4
Integration Time (sec): 1.000000E-1
Scans to average: 10
Electric dark correction enabled: false
Nonlinearity correction enabled: false
Boxcar width: 5
Stray light correction enabled: false
XAxis mode: Wavelengths
Stop averaging: false
Number of Pixels in Spectrum: 3648
>>>>>Begin Spectral Data<<<<<
177.575	525.6
177.794	431.22
178.014	769.46
178.233	961.37
178.452	1203.86
178.672	1831.76
178.891	1998.5
179.11	-6123.26
179.33	-1559.04
179.549	-1383.08
179.768	-2017.48
179.987	-4014.29
180.207	-1124.01
180.426	-6050
180.645	-4501.49
180.864	-41471.43
181.084	2646.43
181.303	-14633.33
181.522	1693.26
181.741	1516.82
181.96	2661.79
182.179	770.31
182.398	686.9
182.618	460.61
182.837	479.82
183.056	445.23
183.275	500.3
183.494	567.36
183.713	457.52
183.932	399.23
184.151	360.13
184.37	340.29
184.589	514.67
184.808	524.29
185.027	581.12
185.246	596.83
185.465	511.85
185.684	582.64
185.903	536.71
186.122	498.71
186.341	783.89
186.56	1265.18
186.779	1018.06
186.998	944.54
187.216	1105.67
187.435	2151.59
187.654	2073.81
187.873	6886
188.092	2113.58
188.311	1463.64
188.53	2107.05
188.748	1934.97
188.967	1499.14
189.186	1672.12
189.405	1332.56
189.623	1838.74
189.842	1185.52
190.061	1146.9
190.28	1119.53
190.498	1961.04
190.717	1580
190.936	2541.27
191.154	1720.11
191.373	1483.18
191.592	669.4
191.81	589.37
192.029	485.69
192.248	514.72
192.466	727.67
192.685	633.93
192.904	509.76
193.122	699.54
193.341	742.33
193.559	574.95
193.778	638.58
193.996	1361.27
194.215	2006.82
194.433	-9396.3
194.652	3105.68
194.87	2251.54
195.089	3236.05
195.307	5169.81
195.526	1879.11
195.744	3855.84
195.963	-3247.37
196.181	-7474.42
196.399	-6792
196.618	-2787.2
196.836	-3025
197.055	-1373.41
197.273	-1588.83
197.491	-1938.42
197.71	-6548.21
197.928	-3601.02
198.146	-2922.88
198.365	-3060.55
198.583	-5820.69
198.801	9858.82
199.019	2069.75
199.238	1112.94
199.456	770.29
199.674	1145.1
199.892	1457.02
200.111	1745.6
200.329	2052.63
200.547	792.87
200.765	579.27
200.983	542.31
201.202	523.48
201.42	603.17
201.638	546.12
201.856	633.88
202.074	452.97
202.292	365.27
202.51	428.13
202.728	373.71
202.946	469.53
203.165	597.94
203.383	616.11
203.601	612.41
203.819	565.69
204.037	631.38
204.255	509.28
204.473	417.05
204.691	458.29
204.909	422.88
205.127	458.86
205.345	364.11
205.562	338.46
205.78	454.87
205.998	567.63
206.216	700.87
206.434	658.13
206.652	950.15
206.87	2474.22
207.088	8847.06
207.306	1484.47
207.523	2067.09
207.741	2344.44
207.959	2888.43
208.177	1117.38
208.395	821.57
208.612	700.95
208.83	784.6
209.048	822.92
209.266	593.02
209.483	595.17
209.701	692.65
209.919	788.99
210.136	590.23
210.354	505.4
210.572	708.76
210.79	641.67
211.007	509.76
211.225	449.39
211.442	400.96
211.66	416.93
211.878	479.17
212.095	309.74
212.313	281.15
212.53	312.37
212.748	343.34
212.966	299.86
213.183	288.1
213.401	299.11
213.618	297.26
213.836	280.17
214.053	294.07
214.271	256.16
214.488	401.41
214.705	346.55
214.923	378.26
215.14	332.8
215.358	335.17
215.575	375.42
215.793	309.97
216.01	313.7
216.227	293.75
216.445	286.95
216.662	327.02
216.879	303.31
217.097	302.6
217.314	281.13
217.531	261.66
217.749	245.77
217.966	243.67
218.183	293.17
218.4	292.62
218.618	319.44
218.835	332
219.052	267.61
219.269	270.31
219.487	274.94
219.704	272.53
219.921	289.68
220.138	278.49
220.355	217.99
220.572	185.73
220.79	177.88
221.007	171.74
221.224	155.01
221.441	154.47
221.658	148.89
221.875	137.4
222.092	130.99
222.309	125.87
222.526	128.1
222.743	130.68
222.96	134.22
223.177	134
223.394	135.05
223.611	135.24
223.828	136.51
224.045	129.56
224.262	133.69
224.479	126.75
224.696	118.87
224.913	115.75
225.13	107.98
225.347	99.97
225.564	91.46
225.781	84.57
225.997	83.78
226.214	78.73
226.431	74.65
226.648	67.63
226.865	62.32
227.082	58.57
227.298	52.49
227.515	47.8
227.732	42.7
227.949	39.41
228.165	35.57
228.382	31.81
228.599	28.91
228.816	26.57
229.032	25.01
229.249	24.56
229.466	23.85
229.682	22.79
229.899	23.19
230.116	23.75
230.332	24.72
230.549	26.27
230.765	27.53
230.982	29.53
231.199	30.94
231.415	32.76
231.632	33.92
231.848	35.73
232.065	37.31
232.281	38.01
232.498	40.22
232.714	40.99
232.931	40.38
233.147	40.57
233.364	40.49
233.58	39.3
233.797	40.24
234.013	40.83
234.23	39.34
234.446	39.69
234.662	39.57
234.879	39.76
235.095	39.31
235.312	37.91
235.528	39.36
235.744	38.92
235.961	40.31
236.177	39.62
236.393	40.09
236.61	42.12
236.826	42.33
237.042	44.59
237.258	43.82
237.475	43.86
237.691	45.66
237.907	44.31
238.123	44.07
238.339	43.39
238.556	44.52
238.772	41.8
238.988	39.52
239.204	39.31
239.42	36.76
239.636	35.47
239.853	34.39
240.069	32.05
240.285	30.74
240.501	29.64
240.717	28.34
240.933	25.5
241.149	24.73
241.365	22.9
241.581	21.26
241.797	20.2
242.013	19.14
242.229	18.34
242.445	17.56
242.661	16.9
242.877	16.65
243.093	16.77
243.309	16.85
243.525	17.56
243.741	18.12
243.957	19.07
244.173	19.2
244.388	19.53
244.604	19.61
244.82	20.47
245.036	19.67
245.252	18.11
245.468	16.98
245.683	16.62
245.899	15.18
246.115	14.2
246.331	12.81
246.547	12.53
246.762	11.92
246.978	11.51
247.194	11.17
247.409	11.37
247.625	11.79
247.841	11.63
248.057	11.43
248.272	11.58
248.488	11.71
248.703	12.12
248.919	11.97
249.135	12.81
249.35	13.58
249.566	14.08
249.782	14.4
249.997	14.83
250.213	15.66
250.428	16.45
250.644	16.57
250.859	17.36
251.075	17.67
251.29	18.22
251.506	17.64
251.721	17.11
251.937	17.14
252.152	16.68
252.368	15.7
252.583	16.19
252.798	16.13
253.014	16.4
253.229	16.07
253.445	16.09
253.66	16.88
253.875	18.46
254.091	20.57
254.306	21.43
254.521	22.93
254.737	24.24
254.952	24.72
255.167	25.85
255.383	25.23
255.598	26.63
255.813	26.2
256.028	25.39
256.244	24.7
256.459	22.68
256.674	21.25
256.889	19.93
257.104	20.43
257.32	18.86
257.535	16.96
257.75	16.56
257.965	15.3
258.18	14.15
258.395	12.83
258.61	11.07
258.826	10.78
259.041	10.18
259.256	9.76
259.471	8.95
259.686	8.65
259.901	8.73
260.116	8.41
260.331	8.19
260.546	8.36
260.761	8.59
260.976	8.83
261.191	8.86
261.406	9.71
261.621	10.18
261.836	10.34
262.05	10.94
262.265	11.7
262.48	12.53
262.695	12.8
262.91	13.63
263.125	14.26
263.34	15.53
263.555	16.48
263.769	16.03
263.984	17.05
264.199	17.94
264.414	17.94
264.629	17.71
264.843	17.22
265.058	18.06
265.273	17.92
265.488	17.87
265.702	16.75
265.917	15.96
266.132	15.89
266.346	15.14
266.561	14.86
266.776	14.2
266.99	13.6
267.205	13.61
267.42	12.7
267.634	12.2
267.849	11.52
268.063	11.82
268.278	11.75
268.492	11.72
268.707	11.73
268.922	11.15
269.136	11.41
269.351	11.89
269.565	12.35
269.78	12.46
269.994	13.04
270.209	13.45
270.423	13.13
270.637	13.28
270.852	12.31
271.066	11.8
271.281	12.31
271.495	11.75
271.709	11.28
271.924	10.89
272.138	10.87
272.353	10.63
272.567	10.88
272.781	11.03
272.996	10.51
273.21	11.15
273.424	11.82
273.638	11.58
273.853	12.23
274.067	12.52
274.281	13.19
274.495	13.46
274.71	13.58
274.924	13.46
275.138	13.67
275.352	14.09
275.566	14.38
275.781	13.99
275.995	14.14
276.209	14.07
276.423	14.18
276.637	13.63
276.851	13.46
277.065	13.2
277.279	12.85
277.493	12.95
277.707	13.17
277.921	12.77
278.135	12.62
278.349	12.29
278.563	11.82
278.777	11.73
278.991	11.91
279.205	11.89
279.419	12.08
279.633	12.28
279.847	11.66
280.061	11.37
280.275	11.44
280.489	11.43
280.703	11.56
280.917	11.84
281.131	11.83
281.344	11.8
281.558	11.81
281.772	11.56
281.986	11.34
282.2	11.8
282.414	12.1
282.627	11.69
282.841	11.39
283.055	11.63
283.269	11.72
283.482	11.58
283.696	11.3
283.91	11.2
284.123	10.94
284.337	10.67
284.551	10.15
284.764	9.19
284.978	9.03
285.192	9.22
285.405	9.04
285.619	9.16
285.833	8.91
286.046	8.51
286.26	8.44
286.473	8.56
286.687	8.62
286.9	8.81
287.114	8.93
287.327	9.16
287.541	9.19
287.754	8.99
287.968	8.14
288.181	8.09
288.395	8.16
288.608	8.18
288.822	8.03
289.035	8.28
289.248	8.17
289.462	8.59
289.675	8.51
289.889	8.33
290.102	7.8
290.315	8.32
290.529	8.73
290.742	8.97
290.955	9.32
291.169	9.45
291.382	9.48
291.595	9.65
291.808	9.36
292.022	10.24
292.235	10.65
292.448	11.21
292.661	11.07
292.875	10.77
293.088	11.1
293.301	10.78
293.514	10.97
293.727	10.89
293.94	10.9
294.153	10.99
294.367	10.08
294.58	9.97
294.793	9.95
295.006	9.83
295.219	9.96
295.432	9.56
295.645	9.23
295.858	9
296.071	8.62
296.284	8.27
296.497	8.23
296.71	8.34
296.923	7.84
297.136	7.86
297.349	7.89
297.562	7.64
297.775	7.52
297.988	7.74
298.201	8.02
298.414	8.37
298.626	8.52
298.839	8.67
299.052	8.73
299.265	9.32
299.478	9.2
299.691	9.78
299.903	10.31
300.116	10.43
300.329	10.39
300.542	9.91
300.755	9.69
300.967	10.06
301.18	10.23
301.393	10.22
301.605	10.12
301.818	10.36
302.031	10.35
302.243	10.12
302.456	10.56
302.669	10.61
302.881	10.99
303.094	11.16
303.307	11.06
303.519	11.2
303.732	11.43
303.944	11.54
304.157	11.68
304.37	11.55
304.582	11.8
304.795	11.61
305.007	11.61
305.22	11.88
305.432	11.89
305.645	11.72
305.857	11.53
306.069	11.6
306.282	11.61
306.494	11.39
306.707	11.4
306.919	11.56
307.132	11.54
307.344	11.5
307.556	11.12
307.769	11.14
307.981	11.09
308.193	10.74
308.406	10.26
308.618	9.89
308.83	10.03
309.043	10.1
309.255	9.54
309.467	9.61
309.679	9.75
309.892	9.68
310.104	9.68
310.316	9.41
310.528	9.66
310.74	9.79
310.953	10.03
311.165	10.04
311.377	9.65
311.589	9.78
311.801	9.47
312.013	9.57
312.225	9.43
312.437	9.7
312.649	10.15
312.862	10.12
313.074	10.06
313.286	10.31
313.498	10.25
313.71	10.35
313.922	10.61
314.134	11.16
314.346	11.1
314.558	11.29
314.77	10.83
314.982	10.79
315.193	11.41
315.405	11.43
315.617	11.56
315.829	12.04
316.041	12.59
316.253	12.36
316.465	12.54
316.677	12.66
316.888	13.07
317.1	13.31
317.312	13.72
317.524	13.22
317.736	13.8
317.947	13.79
318.159	13.49
318.371	13.6
318.583	13.67
318.794	13.68
319.006	13.92
319.218	13.64
319.43	13.95
319.641	13.88
319.853	14.24
320.064	14.72
320.276	15.29
320.488	15.43
320.699	15.57
320.911	15.69
321.123	15.49
321.334	15.37
321.546	15.71
321.757	15.35
321.969	15.55
322.18	15.58
322.392	15.11
322.603	14.54
322.815	14.73
323.026	14.17
323.238	14.28
323.449	14.47
323.661	14.29
323.872	14.08
324.083	14.04
324.295	14.02
324.506	14.1
324.718	13.81
324.929	13.58
325.14	13.51
325.352	14.21
325.563	14.05
325.774	13.83
325.986	13.73
326.197	13.76
326.408	14.04
326.62	13.93
326.831	13.64
327.042	14.16
327.253	14.64
327.464	14.76
327.676	14.33
327.887	14.67
328.098	14.96
328.309	15.75
328.52	15.97
328.732	16.22
328.943	16.39
329.154	16.63
329.365	16.4
329.576	16.69
329.787	17.04
329.998	17.29
330.209	17.5
330.42	17.53
330.631	17.22
330.842	17.56
331.053	17.66
331.264	17.76
331.475	18.08
331.686	18.3
331.897	18.16
332.108	17.65
332.319	17.58
332.53	17.52
332.741	17.42
332.952	17.83
333.163	17.56
333.374	17.17
333.585	16.95
333.795	16.84
334.006	16.9
334.217	16.55
334.428	16.56
334.639	16.34
334.849	16.05
335.06	15.93
335.271	15.68
335.482	16.17
335.692	16.45
335.903	16.65
336.114	16.59
336.325	16.27
336.535	16.55
336.746	16.73
336.957	17.06
337.167	17.47
337.378	17.8
337.589	18.09
337.799	17.78
338.01	17.72
338.22	17.78
338.431	17.75
338.642	17.4
338.852	17.34
339.063	17.4
339.273	16.98
339.484	16.39
339.694	16.61
339.905	16.03
340.115	15.93
340.326	15.93
340.536	15.51
340.746	15.22
340.957	15.76
341.167	15.42
341.378	15.35
341.588	15.26
341.799	15.63
342.009	15.26
342.219	15.12
342.43	14.96
342.64	14.7
342.85	14.88
343.061	15.02
343.271	14.64
343.481	14.51
343.691	14.55
343.902	14.65
344.112	14.44
344.322	14.51
344.532	14.71
344.743	14.73
344.953	14.81
345.163	14.63
345.373	14.55
345.583	14.67
345.793	14.91
346.004	14.81
346.214	14.97
346.424	14.8
346.634	14.86
346.844	14.79
347.054	14.88
347.264	14.89
347.474	14.97
347.684	15.31
347.894	15.12
348.104	15.12
348.314	15
348.524	15.17
348.734	15.04
348.944	15.07
349.154	14.88
349.364	14.59
349.574	14.32
349.784	14.53
349.994	14.16
350.204	14.43
350.413	14.38
350.623	14.44
350.833	14.21
351.043	14.23
351.253	13.85
351.463	14.01
351.672	14.04
351.882	14.15
352.092	13.82
352.302	13.79
352.511	13.86
352.721	13.77
352.931	13.77
353.141	13.59
353.35	13.67
353.56	13.99
353.77	13.78
353.979	13.77
354.189	13.71
354.399	13.49
354.608	13.41
354.818	13.26
355.027	13.48
355.237	13.6
355.447	13.49
355.656	13.64
355.866	13.55
356.075	13.32
356.285	13.23
356.494	13.13
356.704	13.44
356.913	13.28
357.123	13.17
357.332	12.77
357.542	12.34
357.751	12.25
357.96	12.16
358.17	12.01
358.379	12.08
358.589	12.02
358.798	12.11
359.007	12.17
359.217	12.17
359.426	12.19
359.635	12.17
359.845	12.29
360.054	12.31
360.263	12.28
360.472	11.89
360.682	12.08
360.891	11.99
361.1	11.85
361.309	11.51
361.519	11.34
361.728	11.37
361.937	11.52
362.146	11.72
362.355	11.63
362.564	11.86
362.774	11.95
362.983	11.59
363.192	11.62
363.401	11.69
363.61	11.59
363.819	11.83
364.028	11.94
364.237	11.86
364.446	11.68
364.655	11.89
364.864	11.71
365.073	12.34
365.282	12.73
365.491	12.73
365.7	12.44
365.909	12.71
366.118	12.86
366.327	12.81
366.536	13.04
366.745	13.11
366.954	13.2
367.162	13.01
367.371	12.52
367.58	12.58
367.789	12.68
367.998	13.13
368.207	13.24
368.415	12.92
368.624	12.63
368.833	12.47
369.042	12.39
369.25	12.75
369.459	13.36
369.668	13.54
369.877	13.27
370.085	13.41
370.294	13.23
370.503	12.94
370.711	13.34
370.92	13.34
371.129	13.38
371.337	13.19
371.546	12.88
371.754	12.47
371.963	12.24
372.171	11.97
372.38	11.99
372.589	11.99
372.797	12.07
373.006	11.77
373.214	11.65
373.423	11.45
373.631	11.48
373.84	11.19
374.048	11.4
374.256	11.39
374.465	11.61
374.673	11.39
374.882	11.39
375.09	11.19
375.298	11.29
375.507	11.6
375.715	11.6
375.923	11.77
376.132	11.86
376.34	11.59
376.548	11.81
376.757	11.83
376.965	12.13
377.173	12.08
377.381	12.28
377.59	12.23
377.798	12.06
378.006	11.87
378.214	11.78
378.423	11.91
378.631	11.81
378.839	11.47
379.047	11.51
379.255	11.31
379.463	11.45
379.671	11.54
379.879	11.51
380.088	11.42
380.296	11.64
380.504	11.69
380.712	11.67
380.92	11.54
381.128	11.84
381.336	11.75
381.544	11.5
381.752	11.45
381.96	11.23
382.168	11.1
382.376	11.53
382.584	11.4
382.791	11.28
382.999	11.32
383.207	11.3
383.415	11.24
383.623	11.19
383.831	11.29
384.039	11.12
384.247	11.23
384.454	11.28
384.662	11.15
384.87	11.35
385.078	11.08
385.285	10.76
385.493	10.72
385.701	10.58
385.909	10.53
386.116	10.42
386.324	10.62
386.532	10.67
386.739	10.63
386.947	10.37
387.155	10.23
387.362	10.31
387.57	10.49
387.778	10.52
387.985	10.53
388.193	10.86
388.4	11.09
388.608	10.97
388.816	10.93
389.023	10.86
389.231	11.07
389.438	11.19
389.646	11.36
389.853	11.23
390.061	11.44
390.268	11.22
390.475	11.06
390.683	10.97
390.89	11.02
391.098	11.01
391.305	11.07
391.512	10.91
391.72	10.71
391.927	10.55
392.135	10.43
392.342	10.32
392.549	10.52
392.756	10.22
392.964	10.31
393.171	10.27
393.378	10.02
393.586	9.89
393.793	9.83
394	9.95
394.207	10.02
394.414	10.25
394.622	10.03
394.829	10.08
395.036	10.09
395.243	10.05
395.45	9.91
395.657	9.99
395.864	10.02
396.072	10.06
396.279	9.99
396.486	10.11
396.693	10.03
396.9	10.26
397.107	10.19
397.314	10.7
397.521	10.32
397.728	10.25
397.935	10.22
398.142	10.37
398.349	10.37
398.556	10.48
398.763	10.22
398.97	10.19
399.177	10.09
399.383	10.08
399.59	9.68
399.797	9.69
400.004	9.62
400.211	9.49
400.418	9.47
400.625	9.38
400.831	9.18
401.038	9.33
401.245	9.17
401.452	9.36
401.658	9.38
401.865	9.39
402.072	9.72
402.279	9.92
402.485	10.28
402.692	10.12
402.899	10.15
403.105	10.13
403.312	10.08
403.519	10.04
403.725	9.7
403.932	9.59
404.138	9.62
404.345	9.43
404.552	9.18
404.758	8.88
404.965	8.92
405.171	8.74
405.378	8.83
405.584	8.95
405.791	9.07
405.997	9.09
406.204	9.2
406.41	9.15
406.617	9.23
406.823	9.48
407.029	9.61
407.236	9.56
407.442	9.76
407.649	9.86
407.855	9.59
408.061	9.6
408.268	9.7
408.474	9.77
408.68	9.77
408.887	9.74
409.093	9.62
409.299	9.47
409.505	9.45
409.712	9.3
409.918	9.15
410.124	9.33
410.33	9.28
410.537	9.38
410.743	9.21
410.949	9.22
411.155	9.31
411.361	9.44
411.567	9.6
411.773	9.68
411.98	9.62
412.186	9.54
412.392	9.32
412.598	9.38
412.804	9.33
413.01	9.36
413.216	9.26
413.422	9.19
413.628	8.92
413.834	8.83
414.04	8.67
414.246	8.73
414.452	8.81
414.658	8.95
414.864	8.89
415.07	8.78
415.275	8.84
415.481	8.89
415.687	8.68
415.893	8.75
416.099	8.74
416.305	8.81
416.511	8.67
416.716	8.52
416.922	8.38
417.128	8.31
417.334	8.24
417.539	8.02
417.745	7.85
417.951	7.85
418.157	7.88
418.362	7.83
418.568	7.72
418.774	7.77
418.979	7.69
419.185	7.71
419.391	7.55
419.596	7.5
419.802	7.49
420.008	7.55
420.213	6.87
420.419	6.78
420.624	6.67
420.83	6.74
421.035	6.72
421.241	6.74
421.446	6.6
421.652	6.66
421.857	6.62
422.063	6.57
422.268	6.49
422.474	7
422.679	7
422.885	7.08
423.09	6.96
423.295	6.9
423.501	6.96
423.706	7
423.911	6.97
424.117	6.91
424.322	6.99
424.527	6.97
424.733	7.05
424.938	7.05
425.143	7.03
425.349	7
425.554	7.08
425.759	7.05
425.964	7.16
426.169	7.25
426.375	7.36
426.58	7.43
426.785	7.68
426.99	7.64
427.195	7.71
427.4	7.78
427.605	7.99
427.811	8.1
428.016	8.09
428.221	7.92
428.426	7.93
428.631	8.02
428.836	7.88
429.041	7.79
429.246	8.1
429.451	8.23
429.656	8.22
429.861	8.29
430.066	8.18
430.271	8.24
430.476	8.28
430.681	8.25
430.886	8.36
431.09	8.38
431.295	8.32
431.5	8.19
431.705	7.93
431.91	7.76
432.115	7.64
432.32	7.67
432.524	7.49
432.729	7.66
432.934	7.75
433.139	7.67
433.343	7.7
433.548	7.71
433.753	7.68
433.958	7.82
434.162	7.94
434.367	7.98
434.572	7.95
434.776	8.14
434.981	8.03
435.186	7.98
435.39	7.99
435.595	8.05
435.799	8.11
436.004	8.15
436.209	8.19
436.413	8.14
436.618	8.08
436.822	8.09
437.027	8.03
437.231	7.99
437.436	7.92
437.64	7.89
437.845	7.88
438.049	7.7
438.253	7.58
438.458	7.52
438.662	7.53
438.867	7.49
439.071	7.46
439.275	7.38
439.48	7.41
439.684	7.43
439.888	7.34
440.093	7.32
440.297	7.34
440.501	7.27
440.706	7.25
440.91	7.22
441.114	7.22
441.318	7.21
441.523	7.3
441.727	7.4
441.931	7.39
442.135	7.42
442.339	7.32
442.543	7.42
442.748	7.6
442.952	7.51
443.156	7.61
443.36	7.63
443.564	7.65
443.768	7.46
443.972	7.29
444.176	7.23
444.38	7.27
444.584	7.2
444.788	7.17
444.992	7.16
445.196	7.21
445.4	7.09
445.604	7.04
445.808	6.99
446.012	7.06
446.216	7.08
446.42	7.09
446.624	7.12
446.828	7.27
447.032	7.29
447.235	7.28
447.439	7.34
447.643	7.4
447.847	7.46
448.051	7.53
448.254	7.54
448.458	7.56
448.662	7.68
448.866	7.64
449.069	7.58
449.273	7.59
449.477	7.56
449.681	7.6
449.884	7.64
450.088	7.63
450.292	7.59
450.495	7.65
450.699	7.71
450.902	7.68
451.106	7.62
451.31	7.63
451.513	7.5
451.717	7.61
451.92	7.59
452.124	7.66
452.327	7.62
452.531	7.61
452.734	7.62
452.938	7.56
453.141	7.58
453.345	7.68
453.548	7.7
453.752	7.81
453.955	7.88
454.158	7.87
454.362	7.81
454.565	7.99
454.769	8.03
454.972	7.98
455.175	8.14
455.379	8.09
455.582	8.08
455.785	8.16
455.988	8.2
456.192	8.2
456.395	8.12
456.598	8.08
456.801	7.91
457.005	8.08
457.208	8.12
457.411	8.03
457.614	7.97
457.817	7.91
458.021	7.72
458.224	7.66
458.427	7.46
458.63	7.36
458.833	7.41
459.036	7.47
459.239	7.3
459.442	7.26
459.645	7.26
459.848	7.24
460.051	7.2
460.254	7.24
460.457	7.21
460.66	7.25
460.863	7.31
461.066	7.18
461.269	7.09
461.472	7.27
461.675	7.24
461.878	7.18
462.081	7.3
462.284	7.4
462.486	7.41
462.689	7.4
462.892	7.47
463.095	7.47
463.298	7.61
463.5	7.69
463.703	7.52
463.906	7.58
464.109	7.69
464.311	7.56
464.514	7.64
464.717	7.76
464.92	7.82
465.122	7.87
465.325	7.9
465.528	8
465.73	7.98
465.933	8
466.135	7.94
466.338	7.94
466.541	8.05
466.743	7.96
466.946	7.8
467.148	7.74
467.351	7.63
467.553	7.63
467.756	7.68
467.958	7.81
468.161	7.84
468.363	7.89
468.566	7.78
468.768	7.82
468.971	7.81
469.173	7.94
469.375	8.04
469.578	7.92
469.78	8.09
469.983	8.02
470.185	7.95
470.387	7.99
470.59	8.14
470.792	8.25
470.994	8.21
471.196	8.29
471.399	8.28
471.601	8.26
471.803	8.39
472.005	8.25
472.208	8.09
472.41	8.05
472.612	8.03
472.814	7.92
473.016	7.92
473.218	7.88
473.421	7.79
473.623	7.82
473.825	7.72
474.027	7.79
474.229	7.83
474.431	7.94
474.633	7.97
474.835	7.99
475.037	7.87
475.239	7.97
475.441	8.01
475.643	8.02
475.845	7.9
476.047	8.03
476.249	8.05
476.451	8.01
476.653	7.91
476.855	7.83
477.057	7.76
477.258	7.81
477.46	7.64
477.662	7.6
477.864	7.61
478.066	7.55
478.268	7.45
478.469	7.46
478.671	7.35
478.873	7.41
479.075	7.47
479.276	7.45
479.478	7.41
479.68	7.48
479.882	7.41
480.083	7.31
480.285	7.34
480.487	7.27
480.688	7.16
480.89	7.34
481.091	7.25
481.293	7.11
481.495	7.07
481.696	7.05
481.898	6.9
482.099	6.91
482.301	6.84
482.502	6.8
482.704	6.73
482.905	6.68
483.107	6.54
483.308	6.55
483.51	6.54
483.711	6.51
483.913	6.44
484.114	6.45
484.315	6.41
484.517	6.41
484.718	6.43
484.92	6.45
485.121	6.45
485.322	6.48
485.524	6.46
485.725	6.46
485.926	6.46
486.127	6.51
486.329	6.49
486.53	6.46
486.731	6.49
486.932	6.44
487.134	6.47
487.335	6.45
487.536	6.43
487.737	6.38
487.938	6.41
488.139	6.4
488.341	6.42
488.542	6.44
488.743	6.53
488.944	6.56
489.145	6.59
489.346	6.6
489.547	6.64
489.748	6.69
489.949	6.73
490.15	6.68
490.351	6.72
490.552	6.71
490.753	6.71
490.954	6.7
491.155	6.64
491.356	6.66
491.557	6.62
491.758	6.61
491.959	6.64
492.159	6.64
492.36	6.72
492.561	6.8
492.762	6.78
492.963	6.8
493.164	6.87
493.364	6.98
493.565	7.01
493.766	7.07
493.967	7.17
494.167	7.2
494.368	7.27
494.569	7.27
494.769	7.2
494.97	7.29
495.171	7.37
495.371	7.31
495.572	7.39
495.773	7.47
495.973	7.51
496.174	7.45
496.375	7.41
496.575	7.49
496.776	7.52
496.976	7.51
497.177	7.54
497.377	7.56
497.578	7.49
497.778	7.38
497.979	7.46
498.179	7.46
498.38	7.54
498.58	7.64
498.78	7.62
498.981	7.6
499.181	7.57
499.382	7.6
499.582	7.53
499.782	7.59
499.983	7.56
500.183	7.43
500.383	7.39
500.584	7.34
500.784	7.3
500.984	7.24
501.184	7.24
501.385	7.34
501.585	7.32
501.785	7.3
501.985	7.4
502.185	7.44
502.386	7.5
502.586	7.61
502.786	7.74
502.986	7.7
503.186	7.71
503.386	7.76
503.586	7.71
503.786	7.75
503.987	7.85
504.187	7.83
504.387	7.81
504.587	7.84
504.787	7.89
504.987	7.81
505.187	7.87
505.387	7.94
505.587	7.95
505.786	8.03
505.986	8.09
506.186	8.06
506.386	8.24
506.586	8.38
506.786	8.28
506.986	8.29
507.186	8.28
507.386	8.26
507.585	8.25
507.785	8.16
507.985	8.19
508.185	8.13
508.384	8.13
508.584	7.89
508.784	7.83
508.984	7.89
509.183	7.84
509.383	7.86
509.583	7.9
509.782	7.93
509.982	8.01
510.182	8.05
510.381	7.98
510.581	7.98
510.781	8.08
510.98	8.13
511.18	8.12
511.379	8.21
511.579	8.2
511.778	8.19
511.978	8.22
512.177	8.27
512.377	8.22
512.576	8.36
512.776	8.45
512.975	8.5
513.175	8.49
513.374	8.42
513.573	8.37
513.773	8.37
513.972	8.4
514.172	8.44
514.371	8.42
514.57	8.52
514.77	8.6
514.969	8.55
515.168	8.55
515.367	8.56
515.567	8.8
515.766	8.9
515.965	9.03
516.164	9.07
516.364	8.98
516.563	9
516.762	8.92
516.961	8.84
517.16	8.9
517.359	8.88
517.559	8.93
517.758	8.82
517.957	8.81
518.156	8.75
518.355	8.76
518.554	8.8
518.753	8.78
518.952	8.8
519.151	8.81
519.35	8.81
519.549	8.85
519.748	8.9
519.947	8.92
520.146	8.89
520.345	8.97
520.544	8.97
520.743	8.98
520.942	9.11
521.141	9.19
521.339	9.27
521.538	9.34
521.737	9.33
521.936	9.27
522.135	9.41
522.333	9.52
522.532	9.53
522.731	9.55
522.93	9.7
523.129	9.71
523.327	9.7
523.526	9.71
523.725	9.67
523.923	9.65
524.122	9.66
524.321	9.62
524.519	9.56
524.718	9.52
524.917	9.54
525.115	9.5
525.314	9.52
525.512	9.57
525.711	9.51
525.909	9.52
526.108	9.56
526.306	9.59
526.505	9.59
526.703	9.59
526.902	9.6
527.1	9.53
527.299	9.51
527.497	9.44
527.696	9.36
527.894	9.4
528.092	9.37
528.291	9.34
528.489	9.32
528.688	9.32
528.886	9.35
529.084	9.38
529.283	9.44
529.481	9.46
529.679	9.49
529.877	9.6
530.076	9.6
530.274	9.69
530.472	9.75
530.67	9.82
530.869	9.85
531.067	9.93
531.265	9.96
531.463	10.05
531.661	10.01
531.859	10.05
532.057	10.05
532.255	10.09
532.454	10.12
532.652	10.19
532.85	10.24
533.048	10.32
533.246	10.26
533.444	10.29
533.642	10.3
533.84	10.43
534.038	10.5
534.236	10.51
534.434	10.56
534.632	10.59
534.83	10.56
535.027	10.57
535.225	10.58
535.423	10.67
535.621	10.71
535.819	10.7
536.017	10.75
536.215	10.76
536.412	10.85
536.61	10.88
536.808	10.87
537.006	10.93
537.203	11.01
537.401	11.13
537.599	11.2
537.797	11.29
537.994	11.4
538.192	11.45
538.39	11.51
538.587	11.57
538.785	11.72
538.983	11.81
539.18	11.96
539.378	11.94
539.575	11.9
539.773	11.91
539.97	11.85
540.168	11.91
540.366	11.89
540.563	11.94
540.761	11.95
540.958	11.92
541.155	11.93
541.353	11.92
541.55	11.97
541.748	12
541.945	12.04
542.143	12.11
542.34	12.12
542.537	12.18
542.735	12.25
542.932	12.29
543.129	12.42
543.327	12.57
543.524	12.71
543.721	12.83
543.919	12.99
544.116	13.1
544.313	13.31
544.51	13.47
544.708	13.64
544.905	13.77
545.102	14.03
545.299	14.12
545.496	14.18
545.693	14.27
545.891	14.32
546.088	14.34
546.285	14.33
546.482	14.3
546.679	14.37
546.876	14.4
547.073	14.34
547.27	14.25
547.467	14.29
547.664	14.29
547.861	14.28
548.058	14.36
548.255	14.45
548.452	14.59
548.649	14.7
548.846	14.67
549.043	14.73
549.24	14.83
549.437	15
549.633	15.1
549.83	15.32
550.027	15.43
550.224	15.47
550.421	15.45
550.618	15.4
550.814	15.37
551.011	15.42
551.208	15.48
551.405	15.65
551.601	15.61
551.798	15.59
551.995	15.48
552.191	15.46
552.388	15.47
552.585	15.51
552.781	15.64
552.978	15.63
553.175	15.68
553.371	15.67
553.568	15.59
553.764	15.58
553.961	15.59
554.157	15.61
554.354	15.59
554.55	15.65
554.747	15.74
554.943	15.74
555.14	15.95
555.336	16.03
555.533	16.23
555.729	16.34
555.926	16.46
556.122	16.47
556.318	16.62
556.515	16.72
556.711	16.72
556.907	16.78
557.104	16.89
557.3	16.85
557.496	16.81
557.693	16.73
557.889	16.85
558.085	16.97
558.281	17.21
558.478	17.3
558.674	17.49
558.87	17.65
559.066	17.69
559.262	17.88
559.459	17.86
559.655	17.99
559.851	18.07
560.047	18.06
560.243	18.08
560.439	17.98
560.635	17.97
560.831	17.93
561.027	17.96
561.223	17.94
561.419	17.79
561.615	17.83
561.811	17.81
562.007	17.81
562.203	17.82
562.399	17.81
562.595	17.8
562.791	17.95
562.987	17.99
563.183	17.95
563.379	17.94
563.575	18.11
563.771	18.27
563.966	18.36
564.162	18.46
564.358	18.39
564.554	18.3
564.75	18.33
564.945	18.17
565.141	18.12
565.337	18.2
565.533	18.18
565.728	18.1
565.924	18.07
566.12	18.08
566.315	18.12
566.511	18.28
566.707	18.42
566.902	18.5
567.098	18.68
567.293	18.74
567.489	18.7
567.684	18.84
567.88	19.04
568.076	19.01
568.271	19.01
568.467	18.91
568.662	18.92
568.858	18.92
569.053	18.97
569.248	18.98
569.444	19.08
569.639	19.1
569.835	19.17
570.03	19.08
570.225	19.18
570.421	19.22
570.616	19.31
570.812	19.33
571.007	19.32
571.202	19.27
571.397	19.24
571.593	19.29
571.788	19.33
571.983	19.45
572.178	19.47
572.374	19.4
572.569	19.44
572.764	19.64
572.959	19.66
573.154	19.82
573.35	19.91
573.545	19.94
573.74	19.91
573.935	20.01
574.13	19.91
574.325	20.03
574.52	20.19
574.715	20.29
574.91	20.25
575.105	20.41
575.3	20.38
575.495	20.55
575.69	20.72
575.885	20.9
576.08	20.95
576.275	21.13
576.47	21.3
576.665	21.52
576.86	21.65
577.055	21.66
577.25	21.59
577.444	21.78
577.639	21.86
577.834	21.82
578.029	21.95
578.224	21.97
578.418	22
578.613	22.06
578.808	22.18
579.003	22.28
579.197	22.32
579.392	22.4
579.587	22.43
579.781	22.34
579.976	22.57
580.171	22.47
580.365	22.67
580.56	22.87
580.755	22.75
580.949	22.8
581.144	22.86
581.338	22.94
581.533	23.08
581.727	23.19
581.922	23.39
582.116	23.45
582.311	23.63
582.505	23.63
582.7	23.57
582.894	23.65
583.089	23.52
583.283	23.51
583.478	23.67
583.672	23.81
583.866	23.97
584.061	23.88
584.255	23.84
584.449	23.75
584.644	23.96
584.838	24.06
585.032	24.14
585.226	24.25
585.421	24.19
585.615	24.29
585.809	24.23
586.003	24.22
586.198	24.38
586.392	24.52
586.586	24.59
586.78	24.51
586.974	24.45
587.168	24.46
587.363	24.31
587.557	24.37
587.751	24.29
587.945	24.1
588.139	24.03
588.333	23.96
588.527	23.82
588.721	23.77
588.915	23.65
589.109	23.77
589.303	23.87
589.497	23.94
589.691	23.86
589.885	23.81
590.079	23.97
590.273	23.92
590.466	23.98
590.66	23.9
590.854	23.91
591.048	24.1
591.242	24.02
591.436	23.96
591.629	24.19
591.823	24.49
592.017	24.54
592.211	24.63
592.404	24.7
592.598	24.73
592.792	25.01
592.986	25.15
593.179	25.05
593.373	24.91
593.567	24.89
593.76	24.69
593.954	24.46
594.147	24.4
594.341	24.24
594.535	24.05
594.728	24.08
594.922	23.7
595.115	23.48
595.309	23.28
595.502	23.36
595.696	23.41
595.889	23.4
596.083	23.33
596.276	23.31
596.47	23.32
596.663	23.36
596.856	23.29
597.05	23.41
597.243	23.52
597.437	23.72
597.63	23.74
597.823	23.64
598.017	23.6
598.21	23.69
598.403	23.83
598.596	23.87
598.79	24.03
598.983	24.22
599.176	24.31
599.369	24.34
599.563	24.28
599.756	24.43
599.949	24.64
600.142	24.8
600.335	24.9
600.528	24.85
600.722	25.09
600.915	24.98
601.108	24.71
601.301	24.6
601.494	24.66
601.687	24.57
601.88	24.53
602.073	24.32
602.266	24.1
602.459	23.91
602.652	23.84
602.845	23.67
603.038	23.75
603.231	23.67
603.424	23.67
603.617	23.44
603.809	23.47
604.002	23.31
604.195	23.36
604.388	23.43
604.581	23.48
604.774	23.53
604.966	23.57
605.159	23.43
605.352	23.56
605.545	23.68
605.737	23.78
605.93	23.92
606.123	24.14
606.316	24.24
606.508	24.59
606.701	24.71
606.894	24.82
607.086	25.04
607.279	25.21
607.471	25.29
607.664	25.49
607.857	25.85
608.049	26.09
608.242	26.43
608.434	26.88
608.627	27.17
608.819	27.7
609.012	28.4
609.204	29.07
609.397	29.92
609.589	30.86
609.782	31.78
609.974	32.89
610.166	34.09
610.359	34.97
610.551	35.9
610.743	36.77
610.936	37.44
611.128	38.09
611.32	38.56
611.513	38.99
611.705	39.26
611.897	39.43
612.09	39.12
612.282	38.5
612.474	38.09
612.666	37.54
612.858	36.85
613.051	36.6
613.243	35.97
613.435	35.64
613.627	35.03
613.819	34.55
614.011	34.34
614.203	33.82
614.395	33.48
614.588	33.1
614.78	32.81
614.972	32.71
615.164	32.37
615.356	32.02
615.548	31.37
615.74	30.94
615.932	30.37
616.124	29.7
616.315	29.47
616.507	29.33
616.699	29.04
616.891	28.76
617.083	28.36
617.275	27.96
617.467	27.8
617.659	27.83
617.85	27.76
618.042	27.92
618.234	27.85
618.426	27.59
618.618	27.4
618.809	27.52
619.001	27.31
619.193	27.24
619.384	27.12
619.576	27.18
619.768	27.14
619.959	27.53
620.151	27.42
620.343	27.3
620.534	27.36
620.726	27.55
620.917	27.58
621.109	27.71
621.301	27.74
621.492	28.01
621.684	28.06
621.875	28.01
622.067	27.73
622.258	27.64
622.45	27.88
622.641	28.02
622.832	27.97
623.024	28.01
623.215	28.1
623.407	28.17
623.598	28.07
623.789	28.04
623.981	27.9
624.172	27.75
624.363	27.86
624.555	27.56
624.746	27.46
624.937	27.18
625.129	26.85
625.32	26.74
625.511	26.62
625.702	26.69
625.893	26.79
626.085	26.91
626.276	26.8
626.467	26.63
626.658	26.54
626.849	26.41
627.04	26.49
627.231	26.69
627.422	26.64
627.614	26.6
627.805	26.67
627.996	26.64
628.187	26.65
628.378	26.95
628.569	27.3
628.76	27.6
628.951	27.79
629.142	27.91
629.332	27.98
629.523	28.18
629.714	28.51
629.905	28.53
630.096	28.7
630.287	28.78
630.478	28.87
630.669	28.79
630.859	28.82
631.05	28.87
631.241	28.77
631.432	28.74
631.623	28.75
631.813	28.45
632.004	28.33
632.195	27.99
632.385	27.8
632.576	27.51
632.767	27.17
632.957	27.11
633.148	27.02
633.339	26.81
633.529	26.59
633.72	26.38
633.91	26.61
634.101	26.37
634.292	26.31
634.482	26.16
634.673	26.15
634.863	26.26
635.054	26.19
635.244	26.07
635.435	26.32
635.625	26.41
635.815	26.56
636.006	26.49
636.196	26.47
636.387	26.43
636.577	26.48
636.767	26.56
636.958	26.57
637.148	26.48
637.338	26.44
637.529	26.52
637.719	26.55
637.909	26.38
638.099	26.15
638.29	26.3
638.48	26.43
638.67	26.42
638.86	26.14
639.05	26.23
639.241	26.38
639.431	26.68
639.621	26.63
639.811	26.45
640.001	26.41
640.191	26.43
640.381	26.49
640.571	26.45
640.761	26.66
640.951	27.04
641.141	26.86
641.331	26.91
641.521	26.91
641.711	26.8
641.901	26.94
642.091	27.23
642.281	27.28
642.471	27.48
642.661	27.78
642.851	27.92
643.041	27.8
643.231	28.06
643.42	27.94
643.61	27.98
643.8	28.14
643.99	28.23
644.18	27.92
644.369	27.98
644.559	27.8
644.749	27.34
644.939	27.29
645.128	27.41
645.318	27.22
645.508	27.51
645.697	27.46
645.887	27.3
646.076	27.27
646.266	27.34
646.456	27.51
646.645	27.67
646.835	28.09
647.024	28.08
647.214	27.89
647.403	27.81
647.593	27.89
647.782	27.93
647.972	27.89
648.161	28.2
648.351	28.29
648.54	28.39
648.73	28.47
648.919	28.27
649.108	28.25
649.298	28.65
649.487	28.85
649.677	28.56
649.866	28.51
650.055	28.66
650.244	28.45
650.434	28.38
650.623	28.33
650.812	28.01
651.002	27.78
651.191	27.73
651.38	27.52
651.569	27.47
651.758	27.55
651.947	27.48
652.137	27.53
652.326	27.36
652.515	27.58
652.704	27.59
652.893	27.74
653.082	28.02
653.271	28.18
653.46	28.12
653.649	28.06
653.838	27.87
654.027	27.76
654.216	27.75
654.405	28.02
654.594	28.08
654.783	27.84
654.972	27.69
655.161	27.52
655.35	27.57
655.539	27.72
655.728	27.8
655.916	27.68
656.105	27.77
656.294	27.69
656.483	27.29
656.672	27.09
656.86	27.23
657.049	27.21
657.238	27.25
657.427	26.97
657.615	26.76
657.804	26.55
657.993	26.5
658.181	26.29
658.37	26.26
658.559	26.24
658.747	26.11
658.936	26.07
659.125	25.97
659.313	25.9
659.502	25.94
659.69	25.89
659.879	25.91
660.067	26.21
660.256	26.42
660.444	26.56
660.633	26.94
660.821	27.3
661.01	27.48
661.198	27.92
661.387	28.01
661.575	28.19
661.763	28.54
661.952	28.92
662.14	29.04
662.328	29.17
662.517	29.28
662.705	29.22
662.893	29
663.082	28.98
663.27	28.8
663.458	29.1
663.646	29.23
663.834	29.12
664.023	29.11
664.211	28.93
664.399	29.02
664.587	28.91
664.775	28.86
664.963	29.18
665.152	29.2
665.34	29.19
665.528	28.86
665.716	29.06
665.904	29.17
666.092	29.31
666.28	29.6
666.468	29.43
666.656	29.63
666.844	29.97
667.032	29.88
667.22	29.79
667.408	29.84
667.596	30.56
667.784	30.21
667.971	30
668.159	29.85
668.347	29.43
668.535	29.91
668.723	29.59
668.911	29.14
669.098	28.81
669.286	28.92
669.474	28.98
669.662	28.56
669.849	28.78
670.037	29.21
670.225	29.09
670.413	29.23
670.6	29.03
670.788	29.34
670.976	29.75
671.163	29.96
671.351	29.95
671.538	30.3
671.726	30.3
671.913	29.89
672.101	29.68
672.289	29.77
672.476	29.73
672.664	29.58
672.851	29.6
673.039	29.41
673.226	29.56
673.413	29.42
673.601	29.14
673.788	29.06
673.976	29.23
674.163	29.37
674.35	29.56
674.538	29.66
674.725	29.69
674.912	29.84
675.1	29.78
675.287	29.97
675.474	30.03
675.662	30.25
675.849	30.46
676.036	30.61
676.223	30.59
676.411	30.76
676.598	30.7
676.785	30.66
676.972	30.52
677.159	30.54
677.346	30.19
677.533	30.29
677.721	29.93
677.908	29.52
678.095	29.45
678.282	29.18
678.469	28.5
678.656	28.49
678.843	28.42
679.03	28.07
679.217	28
679.404	28.27
679.591	28.11
679.778	28.11
679.964	28.22
680.151	28.14
680.338	28.11
680.525	28.33
680.712	28.48
680.899	28.69
681.086	29.08
681.272	29.16
681.459	29.04
681.646	29.08
681.833	29.05
682.02	29.2
682.206	29.37
682.393	29.63
682.58	29.61
682.766	29.63
682.953	29.83
683.14	29.51
683.326	29.83
683.513	29.81
683.7	29.87
683.886	29.87
684.073	30.17
684.259	30.42
684.446	30.35
684.632	30.78
684.819	30.9
685.005	30.51
685.192	30.76
685.378	30.55
685.565	30.55
685.751	30.59
685.938	30.78
686.124	30.62
686.31	30.77
686.497	30.91
686.683	30.79
686.87	30.52
687.056	30.5
687.242	30.43
687.429	30.39
687.615	30.54
687.801	30.69
687.987	30.89
688.174	31.12
688.36	30.78
688.546	30.64
688.732	30.8
688.918	31.06
689.105	31.4
689.291	31.51
689.477	31.49
689.663	31.51
689.849	31.1
690.035	31.02
690.221	30.99
690.407	31.45
690.593	31.41
690.779	31.45
690.965	31.51
691.151	31.78
691.337	31.77
691.523	32.08
691.709	32.33
691.895	32.62
692.081	32.92
692.267	32.86
692.453	32.51
692.639	32.47
692.825	32.56
693.011	32.52
693.196	32.16
693.382	32.24
693.568	32.02
693.754	31.72
693.94	32.12
694.125	31.85
694.311	31.96
694.497	31.76
694.682	31.98
694.868	31.51
695.054	31.71
695.239	31.56
695.425	31.36
695.611	31.59
695.796	31.29
695.982	31.05
696.168	30.98
696.353	30.6
696.539	30.7
696.724	30.47
696.91	30.43
697.095	30.14
697.281	29.93
697.466	29.3
697.652	28.96
697.837	28.81
698.023	28.42
698.208	28.28
698.393	28.07
698.579	27.79
698.764	27.68
698.949	27.61
699.135	27.46
699.32	27.48
699.505	28
699.691	28.18
699.876	28.49
700.061	28.83
700.246	28.87
700.432	29.17
700.617	29.48
700.802	29.64
700.987	30.08
701.172	30.47
701.358	30.77
701.543	31.15
701.728	31.39
701.913	31.85
702.098	31.94
702.283	32.28
702.468	32.53
702.653	32.82
702.838	33.39
703.023	33.96
703.208	33.97
703.393	34.01
703.578	34.65
703.763	35.01
703.948	35.15
704.133	35.51
704.318	35.89
704.503	36.19
704.688	36.39
704.873	36.59
705.057	36.9
705.242	37.46
705.427	37.88
705.612	37.55
705.797	37.95
705.981	38.14
706.166	38.56
706.351	38.48
706.536	38.55
706.72	38.47
706.905	38.39
707.09	38.45
707.274	38.26
707.459	38.27
707.644	38.19
707.828	38.14
708.013	37.99
708.197	37.66
708.382	37.66
708.567	37.65
708.751	37.85
708.936	37.74
709.12	36.97
709.305	36.7
709.489	36.49
709.673	36.5
709.858	36.15
710.042	35.93
710.227	36.02
710.411	35.89
710.596	35.7
710.78	35.51
710.964	35.45
711.149	35.35
711.333	35.75
711.517	35.91
711.702	35.9
711.886	35.66
712.07	35.58
712.254	35.44
712.438	35.51
712.623	35.78
712.807	35.54
712.991	35.55
713.175	35.71
713.359	35.13
713.544	35.04
713.728	34.7
713.912	34.49
714.096	34.04
714.28	33.66
714.464	33.28
714.648	32.52
714.832	32.46
715.016	32.25
715.2	32.06
715.384	32.5
715.568	32.19
715.752	31.96
715.936	32.11
716.12	32.42
716.304	32.81
716.488	32.76
716.671	32.81
716.855	32.98
717.039	33.23
717.223	33.11
717.407	32.63
717.59	33.03
717.774	33.22
717.958	32.83
718.142	32.89
718.325	32.36
718.509	32.78
718.693	33.22
718.877	32.79
719.06	32.68
719.244	33.12
719.428	33.68
719.611	33.47
719.795	33.66
719.978	34.26
720.162	34.73
720.345	35.3
720.529	35.51
720.713	35.85
720.896	36.32
721.08	36.74
721.263	36.33
721.446	36.36
721.63	36.61
721.813	37.05
721.997	37.14
722.18	36.82
722.364	36.81
722.547	36.62
722.73	36.34
722.914	36.14
723.097	36.2
723.28	36.8
723.464	36.27
723.647	36.03
723.83	35.48
724.013	35.42
724.197	35.2
724.38	35.37
724.563	35.26
724.746	35.44
724.929	35.8
725.112	35.53
725.296	35.1
725.479	35.53
725.662	35.25
725.845	34.85
726.028	34.38
726.211	34.76
726.394	34.54
726.577	34.25
726.76	33.94
726.943	33.46
727.126	33.64
727.309	33.37
727.492	33.35
727.675	33.4
727.858	33.84
728.041	34.2
728.224	34.07
728.407	33.97
728.589	34.34
728.772	34.33
728.955	34.83
729.138	34.32
729.321	35.08
729.503	35.01
729.686	35.25
729.869	34.84
730.052	34.31
730.234	34.39
730.417	34.59
730.6	34.18
730.782	34.3
730.965	34.21
731.148	34.52
731.33	33.98
731.513	33.77
731.695	33.75
731.878	34.4
732.061	34.69
732.243	35.12
732.426	34.74
732.608	35.18
732.791	35.23
732.973	34.79
733.156	34.98
733.338	35.03
733.52	35.49
733.703	35.19
733.885	35.48
734.068	35.81
734.25	34.94
734.432	35.16
734.615	35.46
734.797	35.84
734.979	36.69
735.162	36.68
735.344	36.46
735.526	36.38
735.708	37.38
735.891	37.72
736.073	37.91
736.255	38.49
736.437	39.11
736.619	38.52
736.802	38.11
736.984	37.95
737.166	38.22
737.348	39.03
737.53	39.21
737.712	38.57
737.894	38.17
738.076	38.08
738.258	38.55
738.44	38.19
738.622	38.14
738.804	38.17
738.986	38.45
739.168	37.73
739.35	38.17
739.532	38.12
739.714	38.61
739.896	38.72
740.078	38.46
740.259	38.12
740.441	38.39
740.623	38.58
740.805	38.88
740.987	38.85
741.168	39.03
741.35	38.59
741.532	38.58
741.714	38.53
741.895	38.79
742.077	39.74
742.259	39.85
742.44	40.5
742.622	41.15
742.804	41.5
742.985	41.71
743.167	41.85
743.348	41.45
743.53	42.04
743.711	42.23
743.893	41.77
744.075	41.84
744.256	42.33
744.438	42.38
744.619	42.74
744.8	42.76
744.982	43.19
745.163	43.82
745.345	44.58
745.526	44.57
745.707	44.73
745.889	45.31
746.07	44.68
746.252	43.99
746.433	43.7
746.614	42.87
746.795	41.7
746.977	41.27
747.158	40.62
747.339	40.59
747.52	41.09
747.702	40.33
747.883	40.59
748.064	40.22
748.245	40.42
748.426	40.42
748.607	40.88
748.788	41.44
748.97	41.03
749.151	41.58
749.332	41.89
749.513	40.92
749.694	41.97
749.875	41.59
750.056	42.04
750.237	42.04
750.418	41.65
750.599	41.65
750.78	41.93
750.96	42.89
751.141	42.23
751.322	41.71
751.503	42.15
751.684	41.11
751.865	41.17
752.046	41.99
752.226	42.1
752.407	42.72
752.588	42.64
752.769	43.12
752.949	42.9
753.13	44.36
753.311	44.52
753.492	44.37
753.672	44.96
753.853	45.28
754.034	44.64
754.214	44.28
754.395	42.74
754.575	43.34
754.756	43.39
754.937	43.05
755.117	42.97
755.298	42.78
755.478	42.79
755.659	41.76
755.839	41.41
756.02	41.36
756.2	41.72
756.381	42.55
756.561	41.72
756.741	41.56
756.922	41.47
757.102	41.01
757.283	41.25
757.463	41.48
757.643	42.42
757.823	41.9
758.004	41.82
758.184	40.91
758.364	40.49
758.545	40.42
758.725	40.62
758.905	40.43
759.085	39.25
759.265	38.53
759.446	37.95
759.626	38.07
759.806	37.84
759.986	37.64
760.166	37.7
760.346	37.72
760.526	37.42
760.706	36.23
760.886	35.84
761.066	36.04
761.246	36.18
761.426	35.96
761.606	34.96
761.786	34.65
761.966	34.03
762.146	33.88
762.326	33.81
762.506	33.11
762.686	33.28
762.866	33.19
763.046	32.88
763.225	32.59
763.405	31.67
763.585	31.79
763.765	31.77
763.945	31.8
764.124	31.61
764.304	31.47
764.484	32.02
764.664	31.8
764.843	31.51
765.023	32.04
765.203	31.95
765.382	33.09
765.562	33.63
765.741	34.61
765.921	35.34
766.101	36.38
766.28	36.94
766.46	36.78
766.639	37.33
766.819	38.23
766.998	38.31
767.178	39.1
767.357	39.29
767.537	39.61
767.716	39.43
767.896	40.14
768.075	40.49
768.254	40.43
768.434	41.74
768.613	42.22
768.792	42.78
768.972	43.16
769.151	44.34
769.33	45.25
769.51	46.17
769.689	46.1
769.868	45.81
770.047	46.16
770.226	47.42
770.406	47.27
770.585	47.38
770.764	47.3
770.943	47.48
771.122	46.43
771.301	46.38
771.48	45.53
771.66	46.16
771.839	46.37
772.018	46.35
772.197	46.54
772.376	46.72
772.555	47.82
772.734	46.56
772.913	47.25
773.092	47.94
773.271	48.21
773.449	49.11
773.628	48.8
773.807	48.47
773.986	49.42
774.165	48.85
774.344	49.8
774.523	50.22
774.701	52.14
774.88	51.16
775.059	49.86
775.238	49.78
775.417	50.13
775.595	51.3
775.774	51.88
775.953	50.32
776.131	51.17
776.31	49.75
776.489	48.91
776.667	48.96
776.846	49.47
777.025	50.07
777.203	50.58
777.382	49.73
777.56	50.08
777.739	50.67
777.917	51.19
778.096	50.67
778.274	51.22
778.453	50.69
778.631	49.32
778.81	49.64
778.988	50.31
779.166	49.39
779.345	48.96
779.523	47.84
779.702	48.31
779.88	48.87
780.058	49.28
780.237	50.83
780.415	52.01
780.593	53.36
780.771	53.66
780.95	54.1
781.128	55.16
781.306	56.27
781.484	57.35
781.662	56.98
781.841	56.4
782.019	55.58
782.197	54.39
782.375	53.9
782.553	52.99
782.731	52.58
782.909	52.83
783.087	51.67
783.265	50.84
783.443	50.05
783.621	49.63
783.799	49.62
783.977	50.18
784.155	50.39
784.333	50.73
784.511	51.69
784.689	51.91
784.867	51.54
785.045	51.76
785.223	51.37
785.4	51.53
785.578	51.84
785.756	51.63
785.934	52.29
786.112	52.72
786.289	52.15
786.467	51.85
786.645	51.59
786.823	50.9
787	51.12
787.178	51.21
787.356	50.05
787.533	49.09
787.711	49.94
787.889	48.53
788.066	48.25
788.244	48.26
788.421	48.58
788.599	47.71
788.776	47.54
788.954	47.11
789.131	47.07
789.309	48.22
789.486	48.52
789.664	48.75
789.841	49.62
790.019	49.09
790.196	49.98
790.373	49.5
790.551	51.13
790.728	50.98
790.906	52.08
791.083	53.11
791.26	52.12
791.437	51.35
791.615	51.78
791.792	52.1
791.969	52.74
792.146	51.91
792.324	52.52
792.501	52.36
792.678	52.59
792.855	52.07
793.032	52.24
793.209	53.67
793.387	54.33
793.564	54.91
793.741	55.79
793.918	57.44
794.095	57.43
794.272	56.41
794.449	55.86
794.626	56.74
794.803	56.26
794.98	54
795.157	53.01
795.334	52.66
795.511	50.8
795.688	50
795.864	47.62
796.041	47.3
796.218	47.13
796.395	48.42
796.572	47.61
796.749	48.25
796.925	49.41
797.102	48.93
797.279	48.63
797.456	48.24
797.632	47.98
797.809	47.87
797.986	47.76
798.162	50.24
798.339	48.71
798.516	49.04
798.692	48.18
798.869	49.89
799.046	50.61
799.222	52.39
799.399	53.28
799.575	54.08
799.752	56.54
799.928	57.69
800.105	55.31
800.281	55.77
800.458	55.84
800.634	57.18
800.811	57.3
800.987	56.98
801.163	56.58
801.34	56.06
801.516	54.16
801.692	51.77
801.869	51.1
802.045	52.62
802.221	52.73
802.398	53.25
802.574	53.1
802.75	52.42
802.926	54.31
803.103	54.74
803.279	56.21
803.455	57.12
803.631	58.2
803.807	57.79
803.983	57.96
804.16	59.49
804.336	60.08
804.512	61.27
804.688	61.39
804.864	60.27
805.04	60.28
805.216	60.59
805.392	63.47
805.568	63.99
805.744	64.66
805.92	64.09
806.096	64.77
806.272	64.87
806.448	63.93
806.623	63.78
806.799	63.33
806.975	63.56
807.151	62.3
807.327	60.74
807.503	60.2
807.678	60.81
807.854	61.14
808.03	59.05
808.206	57.77
808.381	56.54
808.557	56.7
808.733	58.19
808.908	57.21
809.084	58.04
809.26	58.32
809.435	58.2
809.611	56.27
809.787	57.43
809.962	57.95
810.138	58.46
810.313	59.34
810.489	60.07
810.664	59.02
810.84	58.59
811.015	58.15
811.191	56.41
811.366	55.97
811.542	59.07
811.717	57.48
811.892	56.79
812.068	57.61
812.243	58.38
812.419	57.66
812.594	57.26
812.769	58.38
812.944	59.08
813.12	60.57
813.295	62.13
813.47	59.89
813.645	61.67
813.821	62.92
813.996	61.93
814.171	62.23
814.346	60.91
814.521	62.98
814.697	62.69
814.872	62.37
815.047	62.11
815.222	61.54
815.397	62.08
815.572	61.45
815.747	60.21
815.922	60.53
816.097	60.28
816.272	62.04
816.447	61.06
816.622	61.31
816.797	61.4
816.972	60.5
817.147	59.63
817.322	59.49
817.496	58.95
817.671	58.93
817.846	58.16
818.021	56.06
818.196	55.51
818.371	54.69
818.545	54.57
818.72	53.26
818.895	53.81
819.069	51.25
819.244	49.46
819.419	48.38
819.594	47.22
819.768	46.3
819.943	45.98
820.117	43.72
820.292	41.27
820.467	39.1
820.641	37.36
820.816	34.7
820.99	33.55
821.165	32.47
821.339	30.98
821.514	30.15
821.688	28.93
821.863	27.82
822.037	27.28
822.212	26.68
822.386	26.01
822.56	25.55
822.735	25.61
822.909	25.53
823.084	25.48
823.258	25.64
823.432	25.56
823.606	25.84
823.781	26.05
823.955	26.1
824.129	26.73
824.303	27.26
824.478	27.92
824.652	28.32
824.826	28.66
825	29.44
825.174	29.78
825.348	30.85
825.523	31.49
825.697	31.89
825.871	32.81
826.045	32.89
826.219	33.45
826.393	33.48
826.567	33.17
826.741	33.63
826.915	33.77
827.089	34.07
827.263	33.2
827.437	33.09
827.611	33.32
827.784	33.63
827.958	33.56
828.132	33.73
828.306	34.17
828.48	34.85
828.654	35.67
828.827	35.56
829.001	36.26
829.175	37.56
829.349	38.54
829.522	39.69
829.696	41.12
829.87	42.95
830.044	42.92
830.217	44.49
830.391	45.33
830.565	46.15
830.738	49.66
830.912	50.3
831.085	50.85
831.259	52.71
831.432	52.44
831.606	51.3
831.779	51.48
831.953	51.76
832.126	50.09
832.3	50.76
832.473	49.6
832.647	46.21
832.82	44.61
832.994	43.61
833.167	41.73
833.34	41.52
833.514	41.04
833.687	40.09
833.86	39.74
834.034	39.23
834.207	37.85
834.38	37.49
834.553	37.79
834.727	37.84
834.9	38.39
835.073	38.84
835.246	38.84
835.419	39.74
835.593	41.18
835.766	41.69
835.939	43.57
836.112	44.9
836.285	47.51
836.458	48.93
836.631	50.05
836.804	51.11
836.977	52.61
837.15	56.34
837.323	57.9
837.496	60.38
837.669	64.02
837.842	65.8
838.015	66.66
838.188	64.25
838.361	66.19
838.533	68.2
838.706	70
838.879	69.65
839.052	68.49
839.225	68.88
839.398	66.4
839.57	65.2
839.743	64.02
839.916	62.91
840.088	65.74
840.261	64.46
840.434	65.76
840.607	65.49
840.779	66.15
840.952	66.58
841.124	67.44
841.297	69.84
841.47	71.13
841.642	74.23
841.815	78.27
841.987	78.78
842.16	80.85
842.332	84.05
842.505	84.5
842.677	87.67
842.85	88.86
843.022	89.36
843.194	89.27
843.367	90.56
843.539	90.5
843.712	91.84
843.884	91.61
844.056	95.06
844.229	93.18
844.401	93.47
844.573	95.82
844.745	100.23
844.918	103.21
845.09	107.39
845.262	109.02
845.434	109.57
845.606	110.86
845.779	115.95
845.951	115.29
846.123	113.9
846.295	116.63
846.467	114.19
846.639	111.52
846.811	111.73
846.983	108.72
847.155	110.24
847.327	113.09
847.499	113.42
847.671	112.47
847.843	112.45
848.015	116.19
848.187	122.96
848.359	123.41
848.531	118.69
848.703	115.72
848.875	116.52
849.047	114.17
849.218	108.75
849.39	111.55
849.562	109.24
849.734	111.49
849.905	114.13
850.077	105.71
850.249	103.51
850.421	107.02
850.592	109.92
850.764	110.72
850.936	113.94
851.107	117.74
851.279	116.93
851.451	120.47
851.622	116.36
851.794	111.65
851.965	116.55
852.137	118.69
852.308	120.29
852.48	116.93
852.651	115.91
852.823	108.9
852.994	108.54
853.166	107.03
853.337	104.23
853.509	106.51
853.68	104.01
853.851	101.41
854.023	100.07
854.194	99.77
854.365	104.66
854.537	106.16
854.708	106.43
854.879	107.08
855.05	109.66
855.222	111.55
855.393	109.75
855.564	110.27
855.735	113.93
855.906	117.42
856.078	115.92
856.249	108.55
856.42	106.76
856.591	109.33
856.762	105.28
856.933	100.78
857.104	103.13
857.275	102.89
857.446	104.71
857.617	105.29
857.788	103.48
857.959	102.49
858.13	109.3
858.301	114.31
858.472	118.2
858.643	124.11
858.814	129.17
858.985	123.44
859.155	125.16
859.326	132.28
859.497	128.89
859.668	133.83
859.839	141.4
860.009	143.16
860.18	140.03
860.351	134.61
860.522	140.74
860.692	138.4
860.863	143.38
861.034	147.21
861.204	144.36
861.375	146.57
861.546	138.06
861.716	131.87
861.887	134.9
862.057	133.25
862.228	132.77
862.398	132.97
862.569	133.12
862.739	127.97
862.91	119.69
863.08	119.2
863.251	118
863.421	119.6
863.592	121.56
863.762	114.98
863.932	117.93
864.103	116.48
864.273	114.13
864.443	111.28
864.614	114.35
864.784	113.32
864.954	110.27
865.125	114.39
865.295	116.26
865.465	116.33
865.635	114.59
865.805	114.19
865.976	117.52
866.146	113.54
866.316	119.91
866.486	123.32
866.656	131.96
866.826	136.39
866.996	135.13
867.166	130.13
867.336	130.87
867.506	134.54
867.676	131.64
867.846	131.14
868.016	133.19
868.186	128.77
868.356	125.89
868.526	128.41
868.696	131.95
868.866	128.96
869.036	135.45
869.206	133.2
869.376	126.36
869.545	128.91
869.715	129.93
869.885	121.91
870.055	123.23
870.224	124.68
870.394	121.4
870.564	115.46
870.734	115.92
870.903	113.69
871.073	111.01
871.243	115.71
871.412	109.45
871.582	108.25
871.751	111.48
871.921	111.82
872.091	109.29
872.26	105.22
872.43	106.52
872.599	106.64
872.769	108.19
872.938	110.48
873.108	110.38
873.277	115.52
873.446	113.78
873.616	118.06
873.785	117.71
873.955	119.55
874.124	124.48
874.293	124.95
874.463	122.38
874.632	119.5
874.801	120.16
874.971	123.31
875.14	125.16
875.309	127.32
875.478	125.49
875.647	121.82
875.817	120.91
875.986	122.55
876.155	119.75
876.324	131.58
876.493	136.2
876.662	129.1
876.831	121.38
877	116.82
877.17	115.05
877.339	115
877.508	113.14
877.677	114.17
877.846	105.06
878.015	103.27
878.184	94.14
878.352	93.61
878.521	94.41
878.69	95.46
878.859	95.38
879.028	98.27
879.197	91.8
879.366	90.15
879.534	83.19
879.703	81.52
879.872	79.05
880.041	73.98
880.21	68.93
880.378	64.37
880.547	59.66
880.716	55.33
880.884	51.31
881.053	50.85
881.222	48.02
881.39	45.76
881.559	43.15
881.727	40.55
881.896	38.52
882.065	37.31
882.233	37.24
882.402	36.6
882.57	36.29
882.739	34.92
882.907	33.45
883.076	34.44
883.244	35.5
883.412	36.79
883.581	37.74
883.749	39
883.918	40.59
884.086	41.06
884.254	42.19
884.423	42.54
884.591	44.76
884.759	47.83
884.927	50.37
885.096	53.09
885.264	57.03
885.432	58.93
885.6	62.59
885.769	64.33
885.937	67.15
886.105	70.81
886.273	74.62
886.441	77.82
886.609	81.96
886.777	83.12
886.945	85.12
887.113	85.4
887.281	92.01
887.449	96.34
887.617	99.96
887.785	101.87
887.953	104.92
888.121	113.88
888.289	119.84
888.457	117.4
888.625	114.01
888.793	116.97
888.961	113.82
889.129	111.27
889.296	106.82
889.464	104.78
889.632	106.63
889.8	107.2
889.967	106.03
890.135	100.4
