Data from 2938838__Reflection_01.txt Node
Date: Wed Mar 11 16:05:10 EDT 2015
User: robert
Spectrometer: USB4E03002
Autoset integration time: false
Trigger mode: 4
Integration Time (sec): 1.000000E-1
Scans to average: 10
Electric dark correction enabled: false
Nonlinearity correction enabled: false
Boxcar width: 5
Stray light correction enabled: false
XAxis mode: Wavelengths
Stop averaging: false
Number of Pixels in Spectrum: 3648
>>>>>Begin Spectral Data<<<<<
177.575	177.78
177.794	80.61
178.014	22.04
178.233	-44.71
178.452	-119.87
178.672	-39.86
178.891	-60.21
179.11	-47.39
179.33	-73.24
179.549	-314.94
179.768	-151.04
179.987	-243.58
180.207	-1777.78
180.426	-139.42
180.645	-148.44
180.864	-24.48
181.084	-107.99
181.303	-67.37
181.522	-231
181.741	-53.02
181.96	-15.38
182.179	-8.97
182.398	9.18
182.618	12.67
182.837	20.45
183.056	31.9
183.275	-3.95
183.494	29.15
183.713	-46.98
183.932	-54.38
184.151	-263.39
184.37	-145
184.589	243.54
184.808	333.33
185.027	189.96
185.246	154.52
185.465	168.28
185.684	146
185.903	185.94
186.122	229.25
186.341	398.37
186.56	193.67
186.779	197.06
186.998	270.25
187.216	212.47
187.435	191.47
187.654	232.06
187.873	207.82
188.092	261.48
188.311	149.4
188.53	110.6
188.748	81.63
188.967	72.03
189.186	21.38
189.405	12.68
189.623	28.22
189.842	48.05
190.061	0.38
190.28	8.86
190.498	0.17
190.717	11.19
190.936	46.13
191.154	60.69
191.373	86.72
191.592	142.35
191.81	141.26
192.029	130.88
192.248	110.98
192.466	172.68
192.685	192.28
192.904	192.69
193.122	183.25
193.341	-2109.09
193.559	-1356.52
193.778	701.75
193.996	620.41
194.215	-323.73
194.433	207.76
194.652	132.56
194.87	147.64
195.089	137.48
195.307	146.03
195.526	151.23
195.744	136.72
195.963	113.28
196.181	106.7
196.399	104.91
196.618	104.95
196.836	109.09
197.055	103.73
197.273	33.15
197.491	6.76
197.71	14.42
197.928	-340.48
198.146	672.09
198.365	221.67
198.583	148.89
198.801	240.39
199.019	144.03
199.238	122.8
199.456	210.48
199.674	110.56
199.892	-1450
200.111	-275.9
200.329	-5.3
200.547	50.96
200.765	25.39
200.983	39.51
201.202	28.7
201.42	-28.54
201.638	-18.49
201.856	33.72
202.074	12.13
202.292	15.07
202.51	67.06
202.728	-6.92
202.946	-46.58
203.165	-44.3
203.383	-155.32
203.601	131.58
203.819	28.57
204.037	-34.42
204.255	117.34
204.473	73.73
204.691	33.99
204.909	93.4
205.127	41.13
205.345	5.62
205.562	4.13
205.78	31.58
205.998	83.33
206.216	-59.76
206.434	-951.52
206.652	-544.9
206.87	-238.3
207.088	-152.17
207.306	570.49
207.523	-741.94
207.741	-364.29
207.959	-97.67
208.177	-53.16
208.395	-93.78
208.612	8.52
208.83	16.11
209.048	8.65
209.266	34.73
209.483	34.55
209.701	46.38
209.919	49.13
210.136	61.91
210.354	44.18
210.572	51.79
210.79	51.68
211.007	55.34
211.225	67.27
211.442	78.2
211.66	69.16
211.878	53.49
212.095	1533.33
212.313	741.98
212.53	-1428.12
212.748	-87.43
212.966	992.31
213.183	246.06
213.401	291.09
213.618	177.52
213.836	124.77
214.053	117.1
214.271	102.66
214.488	126.92
214.705	714.81
214.923	-164.39
215.14	-251.65
215.358	-29.44
215.575	8.54
215.793	38.19
216.01	60.13
216.227	65.22
216.445	93.24
216.662	95.93
216.879	94.42
217.097	108.85
217.314	131.08
217.531	130.03
217.749	129.9
217.966	127.47
218.183	112.47
218.4	65.49
218.618	56.72
218.835	35.48
219.052	11.76
219.269	22.15
219.487	-7.47
219.704	-13.28
219.921	-9.87
220.138	3.24
220.355	4.17
220.572	4.19
220.79	11.32
221.007	17.12
221.224	18.4
221.441	25.62
221.658	25.52
221.875	29.22
222.092	27.7
222.309	20.47
222.526	19.09
222.743	17.9
222.96	21.95
223.177	20.67
223.394	23.33
223.611	18.26
223.828	19.18
224.045	11.23
224.262	11.35
224.479	12.74
224.696	18.18
224.913	15.58
225.13	18.4
225.347	13.65
225.564	13.03
225.781	8.5
225.997	15.92
226.214	15.58
226.431	18.41
226.648	18.45
226.865	15.41
227.082	14
227.298	12.62
227.515	10.22
227.732	10.36
227.949	10.26
228.165	9.85
228.382	8.89
228.599	7.8
228.816	7.39
229.032	6.44
229.249	6.68
229.466	5.58
229.682	4.77
229.899	4.63
230.116	4.41
230.332	4.85
230.549	5.31
230.765	4.93
230.982	4.74
231.199	3.85
231.415	4.8
231.632	4.04
231.848	5.03
232.065	5.59
232.281	6.02
232.498	8.41
232.714	7.58
232.931	6.75
233.147	7.6
233.364	7.81
233.58	10.83
233.797	9.56
234.013	11.07
234.23	11.5
234.446	13.26
234.662	14.35
234.879	12.69
235.095	14.06
235.312	13.85
235.528	13.85
235.744	15.44
235.961	13.32
236.177	14.51
236.393	13.21
236.61	11.17
236.826	10.12
237.042	8.15
237.258	6.9
237.475	4.75
237.691	5.06
237.907	3.8
238.123	2.78
238.339	3.83
238.556	1.58
238.772	2.05
238.988	4.7
239.204	4.95
239.42	6.09
239.636	7.79
239.853	8.04
240.069	8.09
240.285	7.42
240.501	7.62
240.717	7.29
240.933	7.9
241.149	7.85
241.365	7.65
241.581	7.46
241.797	6.93
242.013	6.72
242.229	6.76
242.445	6.46
242.661	6.6
242.877	6.1
243.093	5.93
243.309	6.04
243.525	5.98
243.741	5.83
243.957	6.02
244.173	6.54
244.388	6.47
244.604	6.43
244.82	6.57
245.036	6.17
245.252	6.75
245.468	6.48
245.683	6.4
245.899	6.2
246.115	6.49
246.331	6.14
246.547	6.07
246.762	5.98
246.978	6.29
247.194	6.16
247.409	6.65
247.625	6.19
247.841	6.4
248.057	6.33
248.272	6.74
248.488	6.51
248.703	6.87
248.919	7.13
249.135	7.51
249.35	7.17
249.566	7.3
249.782	7.51
249.997	8.33
250.213	8.48
250.428	8.61
250.644	7.84
250.859	7.02
251.075	6.77
251.29	5.55
251.506	4.61
251.721	4.79
251.937	5.22
252.152	4.84
252.368	5.18
252.583	5.29
252.798	5.12
253.014	5.11
253.229	5.87
253.445	6.26
253.66	7.33
253.875	7.89
254.091	7.55
254.306	7.36
254.521	7.3
254.737	6.36
254.952	5.71
255.167	6.45
255.383	6.38
255.598	6.77
255.813	5.81
256.028	5.14
256.244	4.97
256.459	5.31
256.674	5.26
256.889	6.03
257.104	6.39
257.32	6.83
257.535	6.48
257.75	6.28
257.965	5.99
258.18	6.35
258.395	6.18
258.61	6.17
258.826	5.95
259.041	5.84
259.256	5.45
259.471	5.3
259.686	5.33
259.901	5.18
260.116	5.33
260.331	5.3
260.546	5.19
260.761	5.28
260.976	5.32
261.191	5.38
261.406	5.37
261.621	5.15
261.836	4.87
262.05	4.66
262.265	4.79
262.48	4.66
262.695	4.79
262.91	4.78
263.125	4.69
263.34	4.51
263.555	4.25
263.769	4.31
263.984	4.33
264.199	4.85
264.414	5.01
264.629	4.54
264.843	4.87
265.058	4.47
265.273	4.06
265.488	4
265.702	4.29
265.917	4.61
266.132	4.69
266.346	4.04
266.561	4.59
266.776	4.68
266.99	4.86
267.205	4.7
267.42	5
267.634	4.99
267.849	4.98
268.063	4.86
268.278	4.98
268.492	4.84
268.707	5.4
268.922	4.68
269.136	4.13
269.351	4.63
269.565	5.04
269.78	4.82
269.994	4.98
270.209	5.18
270.423	5.12
270.637	4.95
270.852	5.22
271.066	5.36
271.281	5.51
271.495	5.9
271.709	5.5
271.924	4.64
272.138	4.72
272.353	4.67
272.567	4.93
272.781	4.75
272.996	4.72
273.21	4.36
273.424	4.42
273.638	4.83
273.853	4.48
274.067	4.71
274.281	5.45
274.495	5.41
274.71	5.41
274.924	4.94
275.138	5.3
275.352	5.31
275.566	5.46
275.781	5.81
275.995	5.31
276.209	5.5
276.423	5.07
276.637	4.88
276.851	5.19
277.065	5.18
277.279	5.35
277.493	5.23
277.707	5.16
277.921	4.84
278.135	4.37
278.349	4.51
278.563	4.54
278.777	4.76
278.991	4.56
279.205	4.09
279.419	4
279.633	3.21
279.847	3.59
280.061	3.58
280.275	3.91
280.489	4.08
280.703	3.66
280.917	3.06
281.131	3.26
281.344	3.18
281.558	3.33
281.772	3.49
281.986	4.18
282.2	4.16
282.414	4.09
282.627	4.72
282.841	4.42
283.055	4.54
283.269	4.89
283.482	4.63
283.696	4.94
283.91	4.66
284.123	4.75
284.337	4.49
284.551	4.17
284.764	4.49
284.978	3.81
285.192	3.97
285.405	4.03
285.619	3.91
285.833	3.68
286.046	3.54
286.26	3.64
286.473	3.57
286.687	3.73
286.9	3.85
287.114	3.61
287.327	3.56
287.541	3.54
287.754	4.11
287.968	4.57
288.181	4.87
288.395	4.72
288.608	4.79
288.822	4.72
289.035	4.83
289.248	4.63
289.462	5
289.675	5.16
289.889	5.12
290.102	4.65
290.315	4.47
290.529	4.44
290.742	4.81
290.955	5.02
291.169	5.25
291.382	5.29
291.595	5.41
291.808	5.18
292.022	5.42
292.235	5.73
292.448	5.95
292.661	5.81
292.875	6
293.088	6.2
293.301	6.12
293.514	6.1
293.727	5.91
293.94	5.98
294.153	6.13
294.367	6.02
294.58	5.78
294.793	5.71
295.006	5.79
295.219	5.71
295.432	5.56
295.645	5.79
295.858	5.92
296.071	5.92
296.284	5.93
296.497	5.86
296.71	5.77
296.923	5.75
297.136	5.82
297.349	6.11
297.562	6.19
297.775	6.04
297.988	5.78
298.201	5.62
298.414	5.78
298.626	5.82
298.839	5.96
299.052	6.17
299.265	6.08
299.478	6.27
299.691	5.95
299.903	5.91
300.116	5.88
300.329	5.89
300.542	5.97
300.755	5.93
300.967	5.9
301.18	6
301.393	6.04
301.605	6.03
301.818	5.89
302.031	6.05
302.243	6.23
302.456	6.57
302.669	6.68
302.881	6.65
303.094	6.7
303.307	7.06
303.519	6.88
303.732	6.95
303.944	7.22
304.157	7.13
304.37	7.07
304.582	6.71
304.795	6.72
305.007	6.96
305.22	6.99
305.432	6.86
305.645	6.7
305.857	6.59
306.069	6.35
306.282	6.13
306.494	6.31
306.707	6.74
306.919	6.92
307.132	6.77
307.344	6.61
307.556	6.61
307.769	6.63
307.981	6.54
308.193	6.74
308.406	7.12
308.618	7.48
308.83	7.45
309.043	7.18
309.255	7.17
309.467	7.17
309.679	7.29
309.892	7.54
310.104	7.68
310.316	7.44
310.528	7.34
310.74	7.28
310.953	7.11
311.165	7.13
311.377	7.24
311.589	7.48
311.801	7.57
312.013	7.46
312.225	7.36
312.437	7.33
312.649	7.77
312.862	7.9
313.074	7.83
313.286	8.15
313.498	8.27
313.71	7.94
313.922	7.53
314.134	7.26
314.346	6.93
314.558	6.77
314.77	6.96
314.982	6.79
315.193	6.83
315.405	6.84
315.617	6.77
315.829	6.41
316.041	6.82
316.253	6.97
316.465	7
316.677	7.77
316.888	7.9
317.1	7.61
317.312	7.73
317.524	7.49
317.736	7.43
317.947	7.34
318.159	7.73
318.371	7.67
318.583	7.62
318.794	7.44
319.006	6.97
319.218	6.8
319.43	6.37
319.641	6.51
319.853	6.63
320.064	6.49
320.276	6.46
320.488	6.11
320.699	6.03
320.911	6.54
321.123	6.53
321.334	6.51
321.546	6.39
321.757	6.98
321.969	6.74
322.18	6.76
322.392	7.11
322.603	7.22
322.815	7.22
323.026	7.21
323.238	6.93
323.449	7.15
323.661	7.25
323.872	7.62
324.083	7.59
324.295	7.6
324.506	7.89
324.718	7.57
324.929	7.8
325.14	7.89
325.352	7.73
325.563	7.71
325.774	7.64
325.986	8.13
326.197	7.94
326.408	7.78
326.62	8.03
326.831	7.56
327.042	7.69
327.253	7.45
327.464	7.6
327.676	7.85
327.887	7.93
328.098	8.08
328.309	8.12
328.52	7.88
328.732	8.26
328.943	7.82
329.154	8.15
329.365	8.51
329.576	8.08
329.787	8.07
329.998	8.06
330.209	8.41
330.42	8.37
330.631	7.94
330.842	8.53
331.053	8.34
331.264	8.64
331.475	8.64
331.686	8.34
331.897	8.71
332.108	8.49
332.319	9.19
332.53	8.85
332.741	8.77
332.952	8.78
333.163	8.55
333.374	8.57
333.585	8.68
333.795	8.62
334.006	8.63
334.217	8.56
334.428	8.66
334.639	8.02
334.849	8.12
335.06	8.4
335.271	8.28
335.482	8.35
335.692	8.36
335.903	8.06
336.114	8.32
336.325	8.58
336.535	8.4
336.746	8.27
336.957	8.43
337.167	8.41
337.378	8.46
337.589	8.79
337.799	8.43
338.01	8.15
338.22	8.49
338.431	8.24
338.642	7.92
338.852	8.07
339.063	8.35
339.273	8.09
339.484	7.65
339.694	7.99
339.905	8
340.115	8.39
340.326	8.69
340.536	8.45
340.746	8.55
340.957	8.59
341.167	8.43
341.378	8.35
341.588	8.25
341.799	8.81
342.009	8.38
342.219	8.06
342.43	8.14
342.64	8.19
342.85	7.74
343.061	7.65
343.271	7.55
343.481	7.7
343.691	7.6
343.902	7.76
344.112	7.74
344.322	7.82
344.532	8.05
344.743	7.93
344.953	7.86
345.163	8.26
345.373	8.2
345.583	8.3
345.793	8.62
346.004	8.71
346.214	8.79
346.424	8.55
346.634	8.4
346.844	8.23
347.054	8.5
347.264	8.42
347.474	8.15
347.684	8.39
347.894	8.41
348.104	8.16
348.314	8.15
348.524	8.25
348.734	8.07
348.944	8.18
349.154	8.07
349.364	7.96
349.574	8.21
349.784	8.39
349.994	8.28
350.204	8.15
350.413	8.21
350.623	8.27
350.833	8.18
351.043	8.37
351.253	8.47
351.463	8.48
351.672	8.09
351.882	7.95
352.092	7.77
352.302	7.62
352.511	7.54
352.721	7.28
352.931	7.16
353.141	7.12
353.35	7.38
353.56	7.69
353.77	7.58
353.979	7.88
354.189	7.7
354.399	8.05
354.608	8.07
354.818	8.29
355.027	8.47
355.237	8.44
355.447	8.33
355.656	8.14
355.866	7.72
356.075	7.83
356.285	7.57
356.494	7.67
356.704	7.54
356.913	7.68
357.123	7.52
357.332	7.48
357.542	7.31
357.751	7.59
357.96	7.54
358.17	7.72
358.379	7.76
358.589	7.68
358.798	7.72
359.007	7.52
359.217	7.26
359.426	7.41
359.635	7.22
359.845	7.2
360.054	6.83
360.263	6.82
360.472	6.8
360.682	6.93
360.891	7.17
361.1	7.04
361.309	7.23
361.519	7.42
361.728	7.33
361.937	7.51
362.146	7.62
362.355	7.68
362.564	7.74
362.774	7.48
362.983	7.54
363.192	7.63
363.401	7.78
363.61	7.82
363.819	7.82
364.028	7.86
364.237	7.65
364.446	7.62
364.655	7.71
364.864	7.72
365.073	7.96
365.282	7.76
365.491	7.62
365.7	7.43
365.909	7.38
366.118	7.39
366.327	7.14
366.536	7.2
366.745	7.11
366.954	7.01
367.162	7.01
367.371	6.62
367.58	6.7
367.789	6.52
367.998	6.55
368.207	6.27
368.415	6.01
368.624	6.18
368.833	6.33
369.042	6.45
369.25	6.35
369.459	6.4
369.668	6.63
369.877	6.55
370.085	6.62
370.294	6.55
370.503	6.7
370.711	6.54
370.92	6.53
371.129	6.45
371.337	6.38
371.546	6.24
371.754	6.08
371.963	6.3
372.171	6.24
372.38	6.13
372.589	6.2
372.797	6.32
373.006	6.52
373.214	6.58
373.423	6.49
373.631	6.44
373.84	6.53
374.048	6.22
374.256	5.71
374.465	5.58
374.673	5.72
374.882	5.64
375.09	5.62
375.298	5.74
375.507	5.57
375.715	5.72
375.923	5.64
376.132	5.66
376.34	5.99
376.548	6.3
376.757	6.4
376.965	6.27
377.173	6.12
377.381	5.9
377.59	5.74
377.798	5.75
378.006	5.55
378.214	5.52
378.423	5.5
378.631	5.41
378.839	5.22
379.047	5.06
379.255	4.95
379.463	5.02
379.671	5.18
379.879	5.23
380.088	5.22
380.296	5.25
380.504	5.3
380.712	5.24
380.92	5.42
381.128	5.66
381.336	5.76
381.544	5.69
381.752	5.66
381.96	5.41
382.168	5.65
382.376	5.44
382.584	5.48
382.791	5.42
382.999	5.49
383.207	5.26
383.415	5.06
383.623	5.01
383.831	5.04
384.039	5.08
384.247	5.2
384.454	4.9
384.662	5.12
384.87	5.15
385.078	5.22
385.285	5.17
385.493	5.02
385.701	5.17
385.909	4.99
386.116	4.98
386.324	4.88
386.532	4.89
386.739	4.91
386.947	4.75
387.155	4.91
387.362	4.87
387.57	4.89
387.778	4.92
387.985	4.9
388.193	4.96
388.4	5.08
388.608	5.09
388.816	5.09
389.023	5.02
389.231	4.89
389.438	4.69
389.646	4.61
389.853	4.59
390.061	4.5
390.268	4.28
390.475	4.17
390.683	4.05
390.89	4.07
391.098	3.78
391.305	3.75
391.512	3.83
391.72	3.65
391.927	3.69
392.135	3.6
392.342	3.59
392.549	3.71
392.756	3.75
392.964	3.76
393.171	3.63
393.378	3.82
393.586	3.73
393.793	3.86
394	3.88
394.207	3.94
394.414	3.96
394.622	3.99
394.829	3.93
395.036	3.93
395.243	3.9
395.45	4.06
395.657	4.1
395.864	4.07
396.072	3.98
396.279	4.13
396.486	4.02
396.693	4.09
396.9	4.05
397.107	4.01
397.314	4.05
397.521	4.02
397.728	3.86
397.935	3.75
398.142	3.8
398.349	3.85
398.556	3.76
398.763	3.63
398.97	3.43
399.177	3.5
399.383	3.29
399.59	3.09
399.797	3.02
400.004	3.15
400.211	3.3
400.418	3.35
400.625	3.2
400.831	3.14
401.038	3.36
401.245	3.55
401.452	3.64
401.658	3.72
401.865	3.87
402.072	3.98
402.279	3.83
402.485	3.7
402.692	3.71
402.899	3.58
403.105	3.57
403.312	3.42
403.519	3.43
403.725	3.34
403.932	3.49
404.138	3.44
404.345	3.42
404.552	3.55
404.758	3.45
404.965	3.33
405.171	3.46
405.378	3.35
405.584	3.33
405.791	3.25
405.997	3.21
406.204	3.25
406.41	3.21
406.617	3.19
406.823	3.04
407.029	3.05
407.236	3.19
407.442	3.06
407.649	3.21
407.855	3.23
408.061	3.06
408.268	3.22
408.474	3.22
408.68	3.29
408.887	3.24
409.093	3.31
409.299	3.39
409.505	3.38
409.712	3.51
409.918	3.45
410.124	3.36
410.33	3.47
410.537	3.22
410.743	3.22
410.949	3.2
411.155	3.44
411.361	3.43
411.567	3.47
411.773	3.46
411.98	3.55
412.186	3.54
412.392	3.76
412.598	3.69
412.804	3.87
413.01	3.7
413.216	3.67
413.422	3.29
413.628	3.26
413.834	3.17
414.04	3.12
414.246	3.02
414.452	2.93
414.658	2.87
414.864	2.95
415.07	2.93
415.275	2.88
415.481	2.95
415.687	3.1
415.893	3.25
416.099	3.24
416.305	3.22
416.511	3.18
416.716	3.22
416.922	3.16
417.128	3.18
417.334	3.1
417.539	3.28
417.745	3.24
417.951	3.22
418.157	3.05
418.362	3.07
418.568	3.07
418.774	2.98
418.979	2.96
419.185	2.97
419.391	2.92
419.596	2.87
419.802	2.81
420.008	2.76
420.213	2.03
420.419	2.01
420.624	1.97
420.83	2.01
421.035	2.04
421.241	2.07
421.446	2.04
421.652	2.07
421.857	2.14
422.063	2.06
422.268	2.07
422.474	2.76
422.679	2.84
422.885	2.82
423.09	2.8
423.295	2.78
423.501	2.82
423.706	2.8
423.911	2.82
424.117	2.84
424.322	2.89
424.527	2.91
424.733	2.91
424.938	2.9
425.143	3
425.349	2.99
425.554	3.04
425.759	3.01
425.964	3.03
426.169	3.01
426.375	2.98
426.58	2.98
426.785	2.97
426.99	2.99
427.195	3.01
427.4	2.94
427.605	2.91
427.811	2.93
428.016	2.82
428.221	2.86
428.426	2.88
428.631	2.91
428.836	2.95
429.041	3.01
429.246	2.94
429.451	2.87
429.656	2.81
429.861	2.86
430.066	2.82
430.271	2.83
430.476	2.87
430.681	2.83
430.886	2.68
431.09	2.61
431.295	2.4
431.5	2.46
431.705	2.51
431.91	2.52
432.115	2.55
432.32	2.6
432.524	2.71
432.729	2.66
432.934	2.72
433.139	2.81
433.343	2.83
433.548	3
433.753	2.9
433.958	2.9
434.162	2.9
434.367	2.98
434.572	2.95
434.776	2.92
434.981	3
435.186	2.97
435.39	2.92
435.595	2.91
435.799	2.89
436.004	2.85
436.209	2.89
436.413	2.94
436.618	2.86
436.822	2.91
437.027	2.81
437.231	2.7
437.436	2.71
437.64	2.73
437.845	2.76
438.049	2.75
438.253	2.89
438.458	2.86
438.662	2.85
438.867	2.79
439.071	2.75
439.275	2.83
439.48	2.78
439.684	2.72
439.888	2.78
440.093	2.78
440.297	2.77
440.501	2.83
440.706	2.85
440.91	2.88
441.114	2.85
441.318	2.9
441.523	2.92
441.727	2.93
441.931	3.02
442.135	2.9
442.339	2.8
442.543	2.77
442.748	2.64
442.952	2.63
443.156	2.69
443.36	2.71
443.564	2.6
443.768	2.47
443.972	2.58
444.176	2.64
444.38	2.74
444.584	2.79
444.788	2.94
444.992	2.93
445.196	2.92
445.4	2.8
445.604	2.77
445.808	2.8
446.012	2.91
446.216	2.88
446.42	2.78
446.624	2.78
446.828	2.74
447.032	2.61
447.235	2.62
447.439	2.55
447.643	2.61
447.847	2.64
448.051	2.59
448.254	2.53
448.458	2.44
448.662	2.49
448.866	2.42
449.069	2.42
449.273	2.46
449.477	2.56
449.681	2.61
449.884	2.46
450.088	2.53
450.292	2.54
450.495	2.61
450.699	2.64
450.902	2.59
451.106	2.61
451.31	2.65
451.513	2.59
451.717	2.5
451.92	2.46
452.124	2.58
452.327	2.45
452.531	2.56
452.734	2.46
452.938	2.54
453.141	2.52
453.345	2.56
453.548	2.55
453.752	2.54
453.955	2.54
454.158	2.57
454.362	2.53
454.565	2.62
454.769	2.53
454.972	2.56
455.175	2.69
455.379	2.7
455.582	2.7
455.785	2.74
455.988	2.68
456.192	2.63
456.395	2.63
456.598	2.65
456.801	2.58
457.005	2.68
457.208	2.68
457.411	2.61
457.614	2.54
457.817	2.45
458.021	2.35
458.224	2.47
458.427	2.5
458.63	2.47
458.833	2.52
459.036	2.59
459.239	2.56
459.442	2.56
459.645	2.51
459.848	2.54
460.051	2.58
460.254	2.66
460.457	2.62
460.66	2.63
460.863	2.63
461.066	2.6
461.269	2.6
461.472	2.66
461.675	2.66
461.878	2.66
462.081	2.66
462.284	2.66
462.486	2.77
462.689	2.82
462.892	2.98
463.095	3.04
463.298	3.05
463.5	3.02
463.703	2.92
463.906	2.96
464.109	2.92
464.311	2.96
464.514	2.93
464.717	2.85
464.92	2.9
465.122	2.74
465.325	2.74
465.528	2.83
465.73	2.81
465.933	2.84
466.135	2.87
466.338	3
466.541	2.97
466.743	3.04
466.946	3.02
467.148	2.9
467.351	2.94
467.553	2.95
467.756	2.82
467.958	2.74
468.161	2.71
468.363	2.65
468.566	2.53
468.768	2.52
468.971	2.6
469.173	2.51
469.375	2.63
469.578	2.63
469.78	2.68
469.983	2.74
470.185	2.87
470.387	2.92
470.59	2.93
470.792	3.01
470.994	3.04
471.196	2.96
471.399	3.03
471.601	2.97
471.803	2.85
472.005	2.65
472.208	2.67
472.41	2.73
472.612	2.7
472.814	2.7
473.016	2.71
473.218	2.67
473.421	2.65
473.623	2.6
473.825	2.65
474.027	2.71
474.229	2.85
474.431	2.79
474.633	2.7
474.835	2.72
475.037	2.77
475.239	2.72
475.441	2.79
475.643	2.87
475.845	2.84
476.047	2.78
476.249	2.82
476.451	2.85
476.653	2.83
476.855	2.76
477.057	2.77
477.258	2.7
477.46	2.76
477.662	2.71
477.864	2.69
478.066	2.73
478.268	2.71
478.469	2.63
478.671	2.62
478.873	2.71
479.075	2.78
479.276	2.8
479.478	2.85
479.68	2.85
479.882	2.85
480.083	2.85
480.285	2.88
480.487	2.92
480.688	2.94
480.89	2.92
481.091	2.85
481.293	2.81
481.495	2.79
481.696	2.74
481.898	2.71
482.099	2.68
482.301	2.64
482.502	2.61
482.704	2.59
482.905	2.59
483.107	2.57
483.308	2.55
483.51	2.56
483.711	2.53
483.913	2.52
484.114	2.51
484.315	2.51
484.517	2.51
484.718	2.51
484.92	2.5
485.121	2.54
485.322	2.54
485.524	2.55
485.725	2.56
485.926	2.59
486.127	2.6
486.329	2.61
486.53	2.61
486.731	2.62
486.932	2.59
487.134	2.6
487.335	2.52
487.536	2.53
487.737	2.52
487.938	2.5
488.139	2.48
488.341	2.45
488.542	2.39
488.743	2.38
488.944	2.35
489.145	2.38
489.346	2.42
489.547	2.45
489.748	2.46
489.949	2.51
490.15	2.52
490.351	2.51
490.552	2.56
490.753	2.61
490.954	2.59
491.155	2.62
491.356	2.58
491.557	2.57
491.758	2.58
491.959	2.59
492.159	2.56
492.36	2.56
492.561	2.59
492.762	2.62
492.963	2.61
493.164	2.65
493.364	2.66
493.565	2.71
493.766	2.66
493.967	2.62
494.167	2.66
494.368	2.72
494.569	2.8
494.769	2.83
494.97	2.76
495.171	2.88
495.371	2.83
495.572	2.82
495.773	2.81
495.973	2.81
496.174	2.83
496.375	2.81
496.575	2.74
496.776	2.71
496.976	2.68
497.177	2.65
497.377	2.6
497.578	2.62
497.778	2.65
497.979	2.69
498.179	2.69
498.38	2.75
498.58	2.76
498.78	2.76
498.981	2.79
499.181	2.85
499.382	2.93
499.582	2.93
499.782	3.04
499.983	3.02
500.183	3.03
500.383	3.07
500.584	3.09
500.784	3.15
500.984	3.14
501.184	3.08
501.385	3.12
501.585	3.19
501.785	3.27
501.985	3.33
502.185	3.43
502.386	3.55
502.586	3.65
502.786	3.58
502.986	3.63
503.186	3.68
503.386	3.76
503.586	3.66
503.786	3.58
503.987	3.58
504.187	3.58
504.387	3.56
504.587	3.51
504.787	3.49
504.987	3.63
505.187	3.55
505.387	3.61
505.587	3.75
505.786	3.8
505.986	3.91
506.186	3.92
506.386	3.87
506.586	3.94
506.786	3.92
506.986	4
507.186	3.91
507.386	3.99
507.585	4.04
507.785	4.02
507.985	4.13
508.185	4.13
508.384	4.13
508.584	4.3
508.784	4.34
508.984	4.45
509.183	4.46
509.383	4.56
509.583	4.63
509.782	4.69
509.982	4.73
510.182	4.74
510.381	4.87
510.581	5.02
510.781	4.99
510.98	5
511.18	5.05
511.379	5.09
511.579	5.17
511.778	5.22
511.978	5.23
512.177	5.19
512.377	5.3
512.576	5.29
512.776	5.34
512.975	5.39
513.175	5.46
513.374	5.55
513.573	5.6
513.773	5.68
513.972	5.75
514.172	5.85
514.371	6.02
514.57	6.12
514.77	6.15
514.969	6.26
515.168	6.36
515.367	6.5
515.567	6.56
515.766	6.71
515.965	6.8
516.164	6.91
516.364	6.98
516.563	7.11
516.762	7.13
516.961	7.25
517.16	7.21
517.359	7.31
517.559	7.32
517.758	7.38
517.957	7.39
518.156	7.45
518.355	7.5
518.554	7.62
518.753	7.61
518.952	7.68
519.151	7.75
519.35	7.85
519.549	7.9
519.748	7.98
519.947	8.05
520.146	8.21
520.345	8.26
520.544	8.37
520.743	8.42
520.942	8.6
521.141	8.71
521.339	8.81
521.538	8.92
521.737	8.99
521.936	9.08
522.135	9.26
522.333	9.38
522.532	9.52
522.731	9.57
522.93	9.72
523.129	9.77
523.327	9.81
523.526	9.95
523.725	10.09
523.923	10.19
524.122	10.36
524.321	10.43
524.519	10.48
524.718	10.52
524.917	10.6
525.115	10.65
525.314	10.74
525.512	10.86
525.711	10.89
525.909	10.94
526.108	11.02
526.306	11.07
526.505	11.19
526.703	11.32
526.902	11.54
527.1	11.66
527.299	11.77
527.497	11.83
527.696	11.98
527.894	12.06
528.092	12.17
528.291	12.24
528.489	12.31
528.688	12.38
528.886	12.44
529.084	12.43
529.283	12.49
529.481	12.51
529.679	12.61
529.877	12.64
530.076	12.7
530.274	12.76
530.472	12.87
530.67	12.99
530.869	13.08
531.067	13.16
531.265	13.34
531.463	13.47
531.661	13.67
531.859	13.8
532.057	13.91
532.255	14.07
532.454	14.17
532.652	14.26
532.85	14.35
533.048	14.43
533.246	14.56
533.444	14.59
533.642	14.65
533.84	14.71
534.038	14.73
534.236	14.82
534.434	14.9
534.632	14.98
534.83	15.08
535.027	15.17
535.225	15.24
535.423	15.24
535.621	15.4
535.819	15.51
536.017	15.65
536.215	15.79
536.412	15.87
536.61	15.93
536.808	16.04
537.006	16.14
537.203	16.13
537.401	16.2
537.599	16.31
537.797	16.36
537.994	16.37
538.192	16.41
538.39	16.46
538.587	16.54
538.785	16.62
538.983	16.73
539.18	16.81
539.378	17.01
539.575	17.13
539.773	17.22
539.97	17.29
540.168	17.37
540.366	17.34
540.563	17.43
540.761	17.5
540.958	17.55
541.155	17.54
541.353	17.58
541.55	17.61
541.748	17.61
541.945	17.62
542.143	17.64
542.34	17.69
542.537	17.78
542.735	17.82
542.932	17.87
543.129	17.95
543.327	18.05
543.524	18.16
543.721	18.29
543.919	18.46
544.116	18.59
544.313	18.78
544.51	18.89
544.708	19.07
544.905	19.14
545.102	19.2
545.299	19.25
545.496	19.36
545.693	19.36
545.891	19.38
546.088	19.39
546.285	19.42
546.482	19.41
546.679	19.45
546.876	19.47
547.073	19.52
547.27	19.58
547.467	19.65
547.664	19.63
547.861	19.76
548.058	19.73
548.255	19.81
548.452	19.82
548.649	19.9
548.846	19.99
549.043	20.04
549.24	20.06
549.437	20.16
549.633	20.12
549.83	20.27
550.027	20.3
550.224	20.48
550.421	20.59
550.618	20.74
550.814	20.82
551.011	20.87
551.208	20.9
551.405	20.95
551.601	20.93
551.798	21.05
551.995	21.02
552.191	20.94
552.388	20.99
552.585	20.9
552.781	20.93
552.978	20.92
553.175	20.91
553.371	20.95
553.568	21.11
553.764	21.15
553.961	21.17
554.157	21.17
554.354	21.23
554.55	21.21
554.747	21.27
554.943	21.34
555.14	21.53
555.336	21.7
555.533	21.75
555.729	21.65
555.926	21.76
556.122	21.74
556.318	21.78
556.515	21.88
556.711	22.01
556.907	22.09
557.104	22.05
557.3	21.96
557.496	21.96
557.693	22.02
557.889	22.19
558.085	22.33
558.281	22.43
558.478	22.59
558.674	22.6
558.87	22.61
559.066	22.6
559.262	22.76
559.459	22.74
559.655	22.64
559.851	22.71
560.047	22.66
560.243	22.5
560.439	22.67
560.635	22.63
560.831	22.71
561.027	22.69
561.223	22.77
561.419	22.73
561.615	22.8
561.811	22.99
562.007	22.97
562.203	22.96
562.399	23.07
562.595	23.06
562.791	23.1
562.987	23.16
563.183	23.19
563.379	23.26
563.575	23.32
563.771	23.32
563.966	23.31
564.162	23.32
564.358	23.37
564.554	23.35
564.75	23.32
564.945	23.35
565.141	23.3
565.337	23.38
565.533	23.42
565.728	23.45
565.924	23.57
566.12	23.65
566.315	23.68
566.511	23.71
566.707	23.8
566.902	23.8
567.098	23.79
567.293	23.94
567.489	24.08
567.684	24.12
567.88	24.18
568.076	24.16
568.271	24.16
568.467	24.15
568.662	24.24
568.858	24.29
569.053	24.44
569.248	24.5
569.444	24.44
569.639	24.35
569.835	24.29
570.03	24.3
570.225	24.31
570.421	24.17
570.616	24.21
570.812	24.22
571.007	24.14
571.202	24.22
571.397	24.32
571.593	24.34
571.788	24.38
571.983	24.42
572.178	24.43
572.374	24.46
572.569	24.53
572.764	24.61
572.959	24.68
573.154	24.8
573.35	24.76
573.545	24.72
573.74	24.72
573.935	24.72
574.13	24.73
574.325	24.72
574.52	24.83
574.715	24.98
574.91	25.03
575.105	24.96
575.3	25.01
575.495	25.02
575.69	25.11
575.885	25.24
576.08	25.21
576.275	25.35
576.47	25.39
576.665	25.36
576.86	25.24
577.055	25.24
577.25	25.35
577.444	25.28
577.639	25.41
577.834	25.41
578.029	25.35
578.224	25.51
578.418	25.45
578.613	25.54
578.808	25.58
579.003	25.74
579.197	25.78
579.392	25.72
579.587	25.77
579.781	25.68
579.976	25.74
580.171	25.81
580.365	25.8
580.56	25.76
580.755	25.75
580.949	25.77
581.144	25.73
581.338	25.73
581.533	25.82
581.727	25.82
581.922	25.75
582.116	25.82
582.311	25.84
582.505	25.79
582.7	25.94
582.894	25.86
583.089	25.85
583.283	25.83
583.478	25.83
583.672	25.77
583.866	25.88
584.061	26.06
584.255	25.97
584.449	25.89
584.644	25.95
584.838	25.97
585.032	26.04
585.226	26.11
585.421	26.27
585.615	26.24
585.809	26.36
586.003	26.5
586.198	26.47
586.392	26.43
586.586	26.49
586.78	26.56
586.974	26.59
587.168	26.74
587.363	26.71
587.557	26.61
587.751	26.8
587.945	26.79
588.139	26.72
588.333	26.79
588.527	26.86
588.721	26.93
588.915	26.93
589.109	26.93
589.303	26.95
589.497	27.05
589.691	27.03
589.885	26.92
590.079	26.95
590.273	26.87
590.466	26.71
590.66	26.79
590.854	26.83
591.048	26.73
591.242	26.72
591.436	26.66
591.629	26.65
591.823	26.67
592.017	26.76
592.211	26.85
592.404	27.04
592.598	27.17
592.792	27.11
592.986	27.11
593.179	27.23
593.373	27.32
593.567	27.33
593.76	27.37
593.954	27.41
594.147	27.39
594.341	27.31
594.535	27.19
594.728	27.33
594.922	27.44
595.115	27.41
595.309	27.31
595.502	27.2
595.696	27.2
595.889	27.19
596.083	27.23
596.276	27.27
596.47	27.27
596.663	27.29
596.856	27.17
597.05	27.18
597.243	27.11
597.437	27.25
597.63	27.32
597.823	27.24
598.017	27.18
598.21	27.3
598.403	27.39
598.596	27.48
598.79	27.55
598.983	27.63
599.176	27.57
599.369	27.67
599.563	27.69
599.756	27.77
599.949	28.03
600.142	28.14
600.335	28.03
600.528	27.95
600.722	27.84
600.915	27.86
601.108	27.9
601.301	27.95
601.494	27.95
601.687	27.88
601.88	27.58
602.073	27.45
602.266	27.48
602.459	27.42
602.652	27.44
602.845	27.59
603.038	27.54
603.231	27.54
603.424	27.61
603.617	27.68
603.809	27.74
604.002	27.92
604.195	27.9
604.388	28.06
604.581	28.11
604.774	28.15
604.966	28.05
605.159	28.12
605.352	27.98
605.545	27.91
605.737	27.87
605.93	27.9
606.123	27.95
606.316	28.08
606.508	27.89
606.701	27.86
606.894	27.79
607.086	27.83
607.279	27.73
607.471	28.02
607.664	28.06
607.857	28.26
608.049	28.33
608.242	28.36
608.434	28.5
608.627	28.68
608.819	29.08
609.012	29.31
609.204	29.53
609.397	29.86
609.589	29.95
609.782	30.29
609.974	30.51
610.166	30.81
610.359	31.07
610.551	31.36
610.743	31.61
610.936	31.63
611.128	31.73
611.32	31.99
611.513	32
611.705	32.06
611.897	31.99
612.09	31.89
612.282	31.76
612.474	31.69
612.666	31.38
612.858	31.12
613.051	31.11
613.243	30.9
613.435	30.76
613.627	30.63
613.819	30.52
614.011	30.38
614.203	30.22
614.395	30.18
614.588	30.22
614.78	30.14
614.972	29.98
615.164	29.9
615.356	29.78
615.548	29.61
615.74	29.51
615.932	29.42
616.124	29.43
616.315	29.3
616.507	29.12
616.699	28.88
616.891	28.98
617.083	28.9
617.275	28.8
617.467	28.88
617.659	28.85
617.85	28.96
618.042	28.95
618.234	28.86
618.426	29.01
618.618	29.14
618.809	29.22
619.001	29.02
619.193	29.28
619.384	29.24
619.576	29.26
619.768	29.13
619.959	29.01
620.151	29.02
620.343	28.93
620.534	28.69
620.726	28.58
620.917	28.55
621.109	28.62
621.301	28.56
621.492	28.51
621.684	28.37
621.875	28.46
622.067	28.44
622.258	28.5
622.45	28.64
622.641	28.87
622.832	28.82
623.024	28.88
623.215	28.88
623.407	28.67
623.598	28.77
623.789	28.79
623.981	28.82
624.172	28.79
624.363	28.91
624.555	28.88
624.746	28.94
624.937	29.14
625.129	29.05
625.32	29.2
625.511	29.27
625.702	29.07
625.893	29.1
626.085	29.12
626.276	29.15
626.467	29.11
626.658	29.15
626.849	29.18
627.04	29.03
627.231	29.07
627.422	28.91
627.614	29.03
627.805	29.15
627.996	29.25
628.187	29.39
628.378	29.43
628.569	29.32
628.76	29.28
628.951	29.21
629.142	29.21
629.332	29.12
629.523	29.17
629.714	29.03
629.905	29.02
630.096	29.06
630.287	29.02
630.478	29.01
630.669	29.15
630.859	29.26
631.05	29.24
631.241	29.33
631.432	29.52
631.623	29.53
631.813	29.69
632.004	29.88
632.195	29.85
632.385	29.77
632.576	29.71
632.767	29.54
632.957	29.44
633.148	29.42
633.339	29.29
633.529	29.23
633.72	29.19
633.91	29.27
634.101	29.09
634.292	29.01
634.482	28.82
634.673	29.13
634.863	29.09
635.054	29.09
635.244	29.23
635.435	29.25
635.625	29.05
635.815	29.14
636.006	28.97
636.196	29.01
636.387	29.03
636.577	29.35
636.767	29.12
636.958	29.25
637.148	29.23
637.338	28.95
637.529	28.98
637.719	29.03
637.909	29
638.099	28.88
638.29	28.97
638.48	29.06
638.67	28.93
638.86	28.84
639.05	28.83
639.241	29.02
639.431	28.94
639.621	28.95
639.811	29.07
640.001	29.01
640.191	29.18
640.381	29.16
640.571	28.93
640.761	28.89
640.951	28.81
641.141	28.84
641.331	28.98
641.521	28.99
641.711	29.03
641.901	29.01
642.091	29.01
642.281	29.14
642.471	29.21
642.661	29.24
642.851	29.29
643.041	29.45
643.231	29.6
643.42	29.32
643.61	29.43
643.8	29.24
643.99	29.48
644.18	29.42
644.369	29.26
644.559	29.33
644.749	29.32
644.939	29.33
645.128	29.48
645.318	29.05
645.508	29.17
645.697	29.3
645.887	29.59
646.076	29.48
646.266	29.4
646.456	29.41
646.645	29.24
646.835	29.27
647.024	29.31
647.214	29.21
647.403	29.32
647.593	29.17
647.782	29.09
647.972	29.1
648.161	29.12
648.351	29.35
648.54	29.53
648.73	29.46
648.919	29.65
649.108	29.44
649.298	29.34
649.487	29.48
649.677	29.48
649.866	29.62
650.055	29.54
650.244	29.48
650.434	29.49
650.623	29.23
650.812	29.33
651.002	29.45
651.191	29.55
651.38	29.67
651.569	29.6
651.758	29.71
651.947	29.56
652.137	29.6
652.326	29.5
652.515	29.47
652.704	29.59
652.893	29.5
653.082	29.26
653.271	29.31
653.46	29.27
653.649	29.29
653.838	29.22
654.027	29.36
654.216	29.48
654.405	29.51
654.594	29.31
654.783	29.29
654.972	29.47
655.161	29.47
655.35	29.41
655.539	29.26
655.728	29.14
655.916	29.19
656.105	29.16
656.294	29.11
656.483	29.04
656.672	29.15
656.86	29.16
657.049	29.12
657.238	29.2
657.427	29.17
657.615	29.27
657.804	29.45
657.993	29.23
658.181	29.08
658.37	28.9
658.559	29.08
658.747	29.14
658.936	29.12
659.125	28.88
659.313	28.71
659.502	28.77
659.69	28.69
659.879	28.68
660.067	28.81
660.256	29.1
660.444	29.15
660.633	29.08
660.821	29.05
661.01	28.97
661.198	29.16
661.387	29.47
661.575	29.44
661.763	29.41
661.952	29.51
662.14	29.44
662.328	29.23
662.517	29.41
662.705	29.57
662.893	29.6
663.082	29.5
663.27	29.58
663.458	29.61
663.646	29.83
663.834	29.9
664.023	29.55
664.211	29.9
664.399	29.9
664.587	29.9
664.775	29.86
664.963	29.91
665.152	30.19
665.34	30.15
665.528	29.87
665.716	29.73
665.904	29.73
666.092	29.9
666.28	29.79
666.468	29.73
666.656	29.58
666.844	29.38
667.032	29.38
667.22	29.18
667.408	29.15
667.596	29.41
667.784	29.53
667.971	29.54
668.159	29.58
668.347	29.69
668.535	29.69
668.723	29.73
668.911	29.67
669.098	29.76
669.286	29.65
669.474	29.69
669.662	29.5
669.849	29.48
670.037	29.6
670.225	29.47
670.413	29.3
670.6	29.53
670.788	29.56
670.976	29.75
671.163	29.58
671.351	29.82
671.538	29.73
671.726	29.83
671.913	29.68
672.101	29.78
672.289	29.95
672.476	30.05
672.664	29.9
672.851	30.02
673.039	30.17
673.226	30.32
673.413	30.42
673.601	30.57
673.788	30.4
673.976	30.64
674.163	30.34
674.35	30.17
674.538	30.2
674.725	29.99
674.912	29.91
675.1	29.76
675.287	29.77
675.474	29.71
675.662	29.71
675.849	29.8
676.036	29.66
676.223	30.09
676.411	30.36
676.598	29.98
676.785	30.12
676.972	30.18
677.159	30.29
677.346	30.36
677.533	30.53
677.721	30.52
677.908	30.49
678.095	30.5
678.282	30.22
678.469	30.1
678.656	30.54
678.843	30.57
679.03	30.15
679.217	30.32
679.404	30.23
679.591	29.97
679.778	30.2
679.964	29.98
680.151	29.91
680.338	29.8
680.525	29.77
680.712	29.47
680.899	29.49
681.086	29.44
681.272	29.04
681.459	28.99
681.646	29.13
681.833	28.7
682.02	29.04
682.206	29.19
682.393	29.44
682.58	29.45
682.766	29.77
682.953	29.73
683.14	30.31
683.326	30.53
683.513	30.54
683.7	30.74
683.886	31.01
684.073	30.96
684.259	31.07
684.446	30.98
684.632	30.97
684.819	30.91
685.005	30.92
685.192	30.88
685.378	30.92
685.565	31.1
685.751	31.16
685.938	31.1
686.124	31.09
686.31	31.02
686.497	31
686.683	31.02
686.87	31.02
687.056	31.13
687.242	30.76
687.429	30.87
687.615	30.89
687.801	30.54
687.987	30.36
688.174	30.83
688.36	30.78
688.546	30.78
688.732	30.76
688.918	30.53
689.105	30.59
689.291	30.87
689.477	30.61
689.663	30.3
689.849	30.72
690.035	30.87
690.221	30.33
690.407	30.24
690.593	30.27
690.779	30.13
690.965	30.38
691.151	30.39
691.337	30.38
691.523	30.45
691.709	30.51
691.895	30.34
692.081	30.29
692.267	30.54
692.453	30.78
692.639	31
692.825	31.31
693.011	31.3
693.196	31.19
693.382	31
693.568	31.04
693.754	31.16
693.94	30.9
694.125	30.92
694.311	30.35
694.497	30.16
694.682	29.81
694.868	29.83
695.054	29.37
695.239	29.39
695.425	29.1
695.611	29.15
695.796	29.09
695.982	29.33
696.168	29.5
696.353	29.95
696.539	30.14
696.724	30.13
696.91	30.2
697.095	30.41
697.281	30.23
697.466	30.48
697.652	30.57
697.837	30.6
698.023	30.47
698.208	30.33
698.393	30.25
698.579	29.91
698.764	29.85
698.949	29.68
699.135	29.69
699.32	29.86
699.505	29.92
699.691	29.86
699.876	29.91
700.061	29.98
700.246	29.79
700.432	29.67
700.617	29.8
700.802	29.87
700.987	30.21
701.172	29.82
701.358	29.7
701.543	29.45
701.728	29.48
701.913	29.57
702.098	29.55
702.283	29.79
702.468	30.02
702.653	29.99
702.838	30.32
703.023	29.92
703.208	30.5
703.393	30.72
703.578	31.26
703.763	31.24
703.948	31.14
704.133	31.36
704.318	31.76
704.503	31.76
704.688	32.28
704.873	32.27
705.057	32.58
705.242	32.51
705.427	32.44
705.612	32.44
705.797	32.42
705.981	32.28
706.166	32.01
706.351	31.47
706.536	31.63
706.72	31.43
706.905	31.28
707.09	31.15
707.274	31.35
707.459	31.6
707.644	31.49
707.828	31.55
708.013	31.63
708.197	31.81
708.382	32.17
708.567	32.19
708.751	32.12
708.936	32.24
709.12	32.09
709.305	31.83
709.489	31.45
709.673	31.34
709.858	31.36
710.042	31.67
710.227	31.62
710.411	31.8
710.596	31.51
710.78	31.79
710.964	31.84
711.149	31.7
711.333	31.74
711.517	31.92
711.702	32.21
711.886	32.05
712.07	32.08
712.254	32.07
712.438	31.98
712.623	32.1
712.807	31.78
712.991	31.55
713.175	31.79
713.359	31.54
713.544	31.51
713.728	31.14
713.912	31.15
714.096	30.65
714.28	30.86
714.464	30.64
714.648	30.68
714.832	30.47
715.016	30.34
715.2	30.21
715.384	30.15
715.568	30.18
715.752	29.97
715.936	29.86
716.12	29.79
716.304	29.42
716.488	29.41
716.671	29.02
716.855	28.97
717.039	29.07
717.223	29.27
717.407	29.8
717.59	29.54
717.774	29.89
717.958	30.01
718.142	30.1
718.325	30.31
718.509	30.63
718.693	31.01
718.877	31.39
719.06	31.37
719.244	31.18
719.428	31.17
719.611	31.14
719.795	31.21
719.978	31.07
720.162	31.11
720.345	30.93
720.529	30.52
720.713	30.32
720.896	30.03
721.08	30.18
721.263	30.44
721.446	30.42
721.63	30.9
721.813	30.88
721.997	31.08
722.18	31.29
722.364	31.41
722.547	31.41
722.73	31.56
722.914	31.46
723.097	31.39
723.28	31.45
723.464	31.38
723.647	31.18
723.83	31.18
724.013	31.11
724.197	30.89
724.38	30.81
724.563	31.08
724.746	31.18
724.929	31.33
725.112	31.49
725.296	31.42
725.479	31.3
725.662	31.06
725.845	31.46
726.028	31.63
726.211	31.77
726.394	31.57
726.577	31.41
726.76	31.24
726.943	31.5
727.126	31.13
727.309	30.67
727.492	31.04
727.675	31.01
727.858	30.69
728.041	30.62
728.224	30.67
728.407	30.61
728.589	30.41
728.772	30.65
728.955	30.54
729.138	30.62
729.321	30.67
729.503	30.39
729.686	30.51
729.869	30.34
730.052	29.93
730.234	30.02
730.417	30.37
730.6	30.58
730.782	30.5
730.965	30.54
731.148	30.98
731.33	31.18
731.513	31.46
731.695	31.41
731.878	31.81
732.061	32.3
732.243	32.06
732.426	32.1
732.608	32.09
732.791	32
732.973	31.94
733.156	31.71
733.338	31.55
733.52	31.41
733.703	31.45
733.885	31.22
734.068	30.92
734.25	30.87
734.432	30.63
734.615	30.56
734.797	30.65
734.979	30.66
735.162	30.79
735.344	30.82
735.526	30.57
735.708	30.84
735.891	30.89
736.073	31.08
736.255	31.17
736.437	31.12
736.619	31.29
736.802	30.92
736.984	31.11
737.166	30.46
737.348	30.72
737.53	31.07
737.712	30.87
737.894	30.72
738.076	30.8
738.258	31.35
738.44	31.62
738.622	31.26
738.804	31.6
738.986	31.33
739.168	31.51
739.35	31.24
739.532	31.35
739.714	31.35
739.896	31.32
740.078	31.1
740.259	31.02
740.441	30.82
740.623	31.26
740.805	31.87
740.987	31.75
741.168	31.92
741.35	32.3
741.532	31.6
741.714	31.61
741.895	31.54
742.077	30.92
742.259	30.87
742.44	31.11
742.622	31.49
742.804	30.72
742.985	30.64
743.167	30.59
743.348	30.3
743.53	31.04
743.711	31.47
743.893	31.55
744.075	32.32
744.256	32.6
744.438	33.22
744.619	32.98
744.8	33.01
744.982	33.32
745.163	33.27
745.345	33.47
745.526	33.13
745.707	32.67
745.889	33.16
746.07	33.01
746.252	32.35
746.433	32.29
746.614	32.07
746.795	31.84
746.977	31.68
747.158	31.83
747.339	32.33
747.52	32.39
747.702	32.15
747.883	32.08
748.064	32.3
748.245	32.55
748.426	31.78
748.607	31.78
748.788	32.42
748.97	32.78
749.151	33.38
749.332	32.94
749.513	33
749.694	33.18
749.875	33
750.056	33.06
750.237	32.78
750.418	33.02
750.599	33.12
750.78	33.28
750.96	32.85
751.141	32.08
751.322	32.09
751.503	32.26
751.684	32.73
751.865	32.62
752.046	32.28
752.226	32.75
752.407	32.86
752.588	32.93
752.769	32.02
752.949	32.46
753.13	33.36
753.311	33.16
753.492	32.99
753.672	32.65
753.853	32.11
754.034	32.42
754.214	32.28
754.395	31.5
754.575	31.55
754.756	32.47
754.937	32.47
755.117	32.09
755.298	32.01
755.478	32.09
755.659	32.02
755.839	32.63
756.02	32.51
756.2	32.8
756.381	33.25
756.561	33.36
756.741	32.72
756.922	32.02
757.102	32.11
757.283	32.29
757.463	31.87
757.643	31.97
757.823	31.31
758.004	31.13
758.184	30.01
758.364	29.95
758.545	29.7
758.725	29.77
758.905	29.99
759.085	29.61
759.265	29.37
759.446	29.55
759.626	29.47
759.806	30.1
759.986	30.4
760.166	31.09
760.346	31.39
760.526	31.01
760.706	31.03
760.886	31.19
761.066	31.13
761.246	30.63
761.426	30.6
761.606	30.54
761.786	30.56
761.966	30.27
762.146	30.48
762.326	30.22
762.506	30.22
762.686	30.04
762.866	29.92
763.046	29.81
763.225	30.3
763.405	30.16
763.585	30.6
763.765	30.62
763.945	30.68
764.124	30.63
764.304	30.87
764.484	31.01
764.664	31.11
764.843	31.25
765.023	31.38
765.203	31.59
765.382	31.88
765.562	31.65
765.741	31.98
765.921	31.95
766.101	32.13
766.28	31.68
766.46	31.91
766.639	31.8
766.819	32.43
766.998	32.19
767.178	32
767.357	31.5
767.537	31.23
767.716	30.85
767.896	31.26
768.075	31.16
768.254	32.05
768.434	31.88
768.613	32.23
768.792	31.4
768.972	31.37
769.151	31.87
769.33	32.41
769.51	32.4
769.689	32.56
769.868	32.47
770.047	32.18
770.226	32.09
770.406	31.76
770.585	32.35
770.764	32.24
770.943	32.3
771.122	31.35
771.301	31.71
771.48	31.83
771.66	32.06
771.839	32.09
772.018	32.02
772.197	31.72
772.376	32.3
772.555	31.72
772.734	32.7
772.913	33.62
773.092	34.21
773.271	33.71
773.449	33.49
773.628	32.36
773.807	33.27
773.986	33.74
774.165	33.89
774.344	33.85
774.523	33.97
774.701	33.96
774.88	33.2
775.059	33.25
775.238	33.46
775.417	33.4
775.595	34.07
775.774	32.59
775.953	32.36
776.131	32.22
776.31	32.3
776.489	31.99
776.667	31.2
776.846	31.59
777.025	31.21
777.203	31.46
777.382	32.61
777.56	32.71
777.739	33.77
777.917	33.07
778.096	33.18
778.274	33.4
778.453	34.13
778.631	34.18
778.81	34.74
778.988	35.03
779.166	34.46
779.345	33.77
779.523	33.48
779.702	33.63
779.88	33.73
780.058	33.24
780.237	33.11
780.415	32.16
780.593	32.56
780.771	32.83
780.95	32.63
781.128	33.18
781.306	33.25
781.484	33.43
781.662	32.9
781.841	34.01
782.019	33.98
782.197	34.21
782.375	34.67
782.553	34.34
782.731	33.71
782.909	33.51
783.087	33.49
783.265	32.87
783.443	33.5
783.621	33.28
783.799	33.13
783.977	32.88
784.155	32.6
784.333	32.45
784.511	32.65
784.689	32.16
784.867	33.31
785.045	32.86
785.223	33.44
785.4	33.59
785.578	34.81
785.756	34.23
785.934	34.19
786.112	34.17
786.289	34.76
786.467	34.24
786.645	34.9
786.823	33.66
787	33.72
787.178	33.77
787.356	32.5
787.533	31.04
787.711	31.2
787.889	30.98
788.066	30.53
788.244	29.91
788.421	30.68
788.599	29.36
788.776	30.79
788.954	30.84
789.131	31.09
789.309	31.26
789.486	30.64
789.664	30.02
789.841	30.61
790.019	30.79
790.196	31.28
790.373	31.7
790.551	32.67
790.728	31.58
790.906	31.36
791.083	31.43
791.26	32.53
791.437	33.59
791.615	34.7
791.792	34.73
791.969	35.49
792.146	35.16
792.324	34.37
792.501	34.91
792.678	35.68
792.855	35.71
793.032	35.24
793.209	34.29
793.387	33.63
793.564	33.28
793.741	33.3
793.918	32.79
794.095	32.41
794.272	32.56
794.449	32.71
794.626	32.36
794.803	33.21
794.98	32.95
795.157	31.57
795.334	32.56
795.511	31.95
795.688	31.44
795.864	31.28
796.041	31.16
796.218	31.08
796.395	30.29
796.572	30.1
796.749	29.83
796.925	30.69
797.102	32.3
797.279	32.95
797.456	34.33
797.632	34.31
797.809	34.43
797.986	34.74
798.162	35.24
798.339	36.26
798.516	36.26
798.692	36.49
798.869	35.46
799.046	35.59
799.222	34.34
799.399	32.66
799.575	33.4
799.752	34.63
799.928	34.91
800.105	34.09
800.281	33.86
800.458	32.67
800.634	33.21
800.811	32.67
800.987	33.45
801.163	33.59
801.34	35.36
801.516	34.81
801.692	33.46
801.869	33.11
802.045	33.28
802.221	32.69
802.398	34.03
802.574	33.76
802.75	35.3
802.926	33.13
803.103	33.35
803.279	32.41
803.455	32.79
803.631	32.46
803.807	32.75
803.983	34.05
804.16	34.02
804.336	35.07
804.512	34
804.688	33.08
804.864	32.88
805.04	32.07
805.216	32.59
805.392	32.84
805.568	33.1
805.744	33.2
805.92	32.16
806.096	32.02
806.272	31.08
806.448	31.17
806.623	31.4
806.799	33.32
806.975	33.87
807.151	34.24
807.327	33.83
807.503	33.76
807.678	34.49
807.854	34.42
808.03	34.45
808.206	33.93
808.381	34.64
808.557	34.66
808.733	33.16
808.908	33.23
809.084	32.78
809.26	33.23
809.435	33.21
809.611	32.7
809.787	32.92
809.962	32.19
810.138	31.9
810.313	30.85
810.489	29.64
810.664	30.25
810.84	30.48
811.015	30.32
811.191	29.59
811.366	30.63
811.542	29.75
811.717	29.67
811.892	31.27
812.068	32.25
812.243	32.27
812.419	34.07
812.594	34.9
812.769	34.1
812.944	34.2
813.12	34.02
813.295	31.27
813.47	31.19
813.645	30.06
813.821	28.2
813.996	27.05
814.171	27.53
814.346	27.95
814.521	26.86
814.697	26.17
814.872	25.89
815.047	25.54
815.222	27.15
815.397	28.29
815.572	28.22
815.747	29.65
815.922	31.2
816.097	31.8
816.272	30.86
816.447	30.4
816.622	30.83
816.797	30.3
816.972	31.76
817.147	31.28
817.322	31.07
817.496	31.37
817.671	31.68
817.846	30.14
818.021	30.02
818.196	29.89
818.371	31.39
818.545	31.72
818.72	32.56
818.895	30.57
819.069	31.35
819.244	30.96
819.419	31.6
819.594	30.23
819.768	30.89
819.943	30.56
820.117	30.01
820.292	29
820.467	29.22
820.641	28.94
820.816	29.31
820.99	29.23
821.165	29.31
821.339	29.01
821.514	29.38
821.688	29
821.863	28.85
822.037	29.03
822.212	29.05
822.386	28.9
822.56	28.86
822.735	29.05
822.909	28.83
823.084	28.82
823.258	28.65
823.432	28.47
823.606	28.62
823.781	28.76
823.955	28.9
824.129	28.84
824.303	28.67
824.478	28.74
824.652	28.63
824.826	28.91
825	28.69
825.174	29.01
825.348	29.47
825.523	29.59
825.697	29.52
825.871	29.22
826.045	29.8
826.219	29.68
826.393	29.59
826.567	29.27
826.741	29.08
826.915	29.47
827.089	29.34
827.263	29.17
827.437	29.02
827.611	29.03
827.784	29.15
827.958	28.73
828.132	29.37
828.306	29.32
828.48	29.3
828.654	29.3
828.827	29.04
829.001	29.38
829.175	29.58
829.349	29.73
829.522	29.14
829.696	28.87
829.87	28.6
830.044	28.18
830.217	28.18
830.391	29.27
830.565	29.3
830.738	29.54
830.912	30.41
831.085	29.62
831.259	29.47
831.432	30.26
831.606	30.31
831.779	31.16
831.953	31.42
832.126	30.79
832.3	30.84
832.473	31.63
832.647	31.66
832.82	30.55
832.994	30.45
833.167	30.57
833.34	30.25
833.514	30.76
833.687	30.38
833.86	30.74
834.034	31.29
834.207	31.14
834.38	30.5
834.553	30.27
834.727	30.45
834.9	30.54
835.073	30.52
835.246	31.15
835.419	30.77
835.593	31.19
835.766	30.14
835.939	30.44
836.112	30.8
836.285	30.86
836.458	30.9
836.631	30.72
836.804	30.18
836.977	30.43
837.15	30.93
837.323	31.3
837.496	31.17
837.669	34.17
837.842	32.58
838.015	31.14
838.188	32.02
838.361	31.82
838.533	33.14
838.706	34.8
838.879	34.64
839.052	34.12
839.225	33.36
839.398	33.86
839.57	30.95
839.743	32.18
839.916	33.19
840.088	34.28
840.261	33.88
840.434	33.53
840.607	33.93
840.779	33.98
840.952	33.89
841.124	33.19
841.297	34.15
841.47	35.9
841.642	36.95
841.815	37.12
841.987	36.86
842.16	38.93
842.332	40.06
842.505	39.19
842.677	38.65
842.85	37.82
843.022	39.58
843.194	41.78
843.367	39.4
843.539	40.33
843.712	40.08
843.884	38.66
844.056	37.82
844.229	36.16
844.401	37.17
844.573	36.19
844.745	35.48
844.918	36.82
845.09	30.75
845.262	36.51
845.434	34.12
845.606	34.09
845.779	34.07
845.951	34.71
846.123	32.14
846.295	32.1
846.467	35.41
846.639	36.43
846.811	35.15
846.983	39.27
847.155	35.56
847.327	36.02
847.499	37.25
847.671	38.47
847.843	40.13
848.015	43.38
848.187	42.21
848.359	42.3
848.531	42.43
848.703	42.55
848.875	39.22
849.047	42.16
849.218	43.14
849.39	41.66
849.562	41.78
849.734	36.57
849.905	31.89
850.077	32.5
850.249	32.44
850.421	33.3
850.592	34.16
850.764	37.13
850.936	36.03
851.107	35.11
851.279	36.54
851.451	38.38
851.622	40.6
851.794	44.19
851.965	45.98
852.137	42.48
852.308	42.64
852.48	39.57
852.651	36.74
852.823	37.83
852.994	38.68
853.166	37.94
853.337	36.01
853.509	35.5
853.68	34.26
853.851	34.15
854.023	37.99
854.194	38.2
854.365	41.51
854.537	39.15
854.708	36.4
854.879	41.14
855.05	41.04
855.222	41.54
855.393	42.72
855.564	46.31
855.735	45.87
855.906	45.61
856.078	44.81
856.249	43.39
856.42	46.41
856.591	50.42
856.762	40.52
856.933	39.77
857.104	33.53
857.275	30.89
857.446	27.17
857.617	24.85
857.788	25.42
857.959	26.79
858.13	30.07
858.301	34.22
858.472	30.22
858.643	33.82
858.814	32.8
858.985	38.23
859.155	36.99
859.326	37.72
859.497	37.6
859.668	34.7
859.839	32.69
860.009	30.09
860.18	23.61
860.351	22.35
860.522	21.36
860.692	23.98
860.863	23.88
861.034	26.46
861.204	23.62
861.375	30.59
861.546	30.78
861.716	29.95
861.887	28.7
862.057	34.59
862.228	33.48
862.398	34.68
862.569	33.75
862.739	34.92
862.91	38.33
863.08	40.03
863.251	33.26
863.421	33.59
863.592	34.6
863.762	37
863.932	33.98
864.103	35.43
864.273	33.96
864.443	34.26
864.614	34.9
864.784	33.12
864.954	35.9
865.125	36.33
865.295	35.98
865.465	37.42
865.635	36.18
865.805	35.77
865.976	35.9
866.146	37.42
866.316	35.82
866.486	35.01
866.656	30.71
866.826	31.58
866.996	29.64
867.166	27.29
867.336	28.72
867.506	24.02
867.676	27.7
867.846	29.8
868.016	31.5
868.186	34.39
868.356	36.86
868.526	37.36
868.696	32.53
868.866	34.86
869.036	42.55
869.206	43.11
869.376	46.47
869.545	46.18
869.715	46.05
869.885	42.27
870.055	43.1
870.224	38.85
870.394	41.16
870.564	41.04
870.734	43.28
870.903	41.64
871.073	39
871.243	37.43
871.412	34.57
871.582	34.86
871.751	36.18
871.921	35.36
872.091	33.72
872.26	33.65
872.43	33.28
872.599	31.39
872.769	28.48
872.938	32.48
873.108	35.46
873.277	35.65
873.446	35.24
873.616	39.34
873.785	39.73
873.955	44.25
874.124	43.54
874.293	47.76
874.463	45.96
874.632	46.73
874.801	43.79
874.971	45.89
875.14	44.5
875.309	41.33
875.478	38.69
875.647	38.38
875.817	37.31
875.986	33.75
876.155	31.47
876.324	34.48
876.493	33.92
876.662	37.5
876.831	33.8
877	33.99
877.17	35.47
877.339	29.49
877.508	33.06
877.677	30.84
877.846	38.03
878.015	38.9
878.184	34.77
878.352	32.2
878.521	28.18
878.69	27.59
878.859	29.27
879.028	31.27
879.197	30.11
879.366	25.44
879.534	24.15
879.703	23.26
879.872	24.34
880.041	27.26
880.21	25.97
880.378	25.6
880.547	26.01
880.716	26.66
880.884	26.74
881.053	29.66
881.222	29.69
881.39	29.62
881.559	28.76
881.727	28.39
881.896	28.33
882.065	28.96
882.233	28.89
882.402	29.22
882.57	29.43
882.739	28.71
882.907	27.35
883.076	27.29
883.244	27.42
883.412	27.9
883.581	27.68
883.749	27.27
883.918	27.62
884.086	27.68
884.254	27.24
884.423	25.52
884.591	25.81
884.759	26.67
884.927	26.57
885.096	25.94
885.264	25.86
885.432	27.89
885.6	26.25
885.769	26.43
885.937	26.55
886.105	27.18
886.273	30.06
886.441	28.19
886.609	28.57
886.777	31.57
886.945	32.1
887.113	33.16
887.281	30.74
887.449	33.54
887.617	30.45
887.785	29.91
887.953	27.22
888.121	27.34
888.289	35.91
888.457	35.55
888.625	31.07
888.793	35.22
888.961	29.93
889.129	27.51
889.296	29.01
889.464	30.76
889.632	33.03
889.8	35.72
889.967	35.12
890.135	26.57
