Data from 2938802__Reflection_03.txt Node
Date: Thu Mar 12 22:37:52 EDT 2015
User: robert
Spectrometer: USB4E03002
Autoset integration time: false
Trigger mode: 4
Integration Time (sec): 1.000000E-1
Scans to average: 10
Electric dark correction enabled: false
Nonlinearity correction enabled: false
Boxcar width: 5
Stray light correction enabled: false
XAxis mode: Wavelengths
Stop averaging: false
Number of Pixels in Spectrum: 3648
>>>>>Begin Spectral Data<<<<<
177.575	72.9
177.794	-294.44
178.014	78.21
178.233	80.67
178.452	79.52
178.672	92.74
178.891	134.55
179.11	116.46
179.33	143.78
179.549	144.06
179.768	116.55
179.987	99.7
180.207	113.69
180.426	113.38
180.645	138.07
180.864	134.12
181.084	148.42
181.303	103.09
181.522	102.87
181.741	96.35
181.96	91.38
182.179	100.08
182.398	108.03
182.618	102.05
182.837	86.76
183.056	83.76
183.275	82.83
183.494	74.32
183.713	81.44
183.932	84.55
184.151	74.19
184.37	79.64
184.589	68.64
184.808	70.32
185.027	73.17
185.246	79.44
185.465	68.74
185.684	79.94
185.903	79.04
186.122	76.78
186.341	83.59
186.56	77.82
186.779	80.68
186.998	98.08
187.216	99.93
187.435	94.5
187.654	90.25
187.873	95.2
188.092	84.88
188.311	95.41
188.53	95.25
188.748	78.11
188.967	82.24
189.186	81.1
189.405	62.73
189.623	41.45
189.842	56.46
190.061	58.59
190.28	54.33
190.498	44.22
190.717	36.87
190.936	35.81
191.154	42.74
191.373	35.35
191.592	39.83
191.81	43.6
192.029	49.24
192.248	38.07
192.466	41.17
192.685	39.32
192.904	50.89
193.122	52.1
193.341	51.99
193.559	62.82
193.778	80.39
193.996	71.09
194.215	70.33
194.433	79.88
194.652	97.23
194.87	110.64
195.089	113.29
195.307	99.07
195.526	96.85
195.744	111.03
195.963	100.71
196.181	107.26
196.399	117.98
196.618	113.11
196.836	106.54
197.055	91.54
197.273	85.88
197.491	95.88
197.71	98.51
197.928	105.8
198.146	90.88
198.365	80.99
198.583	79.47
198.801	73.25
199.019	71.61
199.238	75.21
199.456	78.83
199.674	84.24
199.892	76.92
200.111	82.56
200.329	79.48
200.547	84.43
200.765	91.08
200.983	84.26
201.202	78.38
201.42	81.09
201.638	75.26
201.856	74.21
202.074	69.49
202.292	77.64
202.51	68.55
202.728	77.94
202.946	75.28
203.165	79.48
203.383	77.13
203.601	83.12
203.819	89.85
204.037	95.63
204.255	111.32
204.473	94.62
204.691	73.96
204.909	72.37
205.127	60.12
205.345	59.33
205.562	56.78
205.78	73.29
205.998	75.39
206.216	66.87
206.434	62.22
206.652	56
206.87	63.49
207.088	61.68
207.306	62.01
207.523	62.93
207.741	59.47
207.959	62.95
208.177	45.32
208.395	44.06
208.612	49.19
208.83	53.56
209.048	57.02
209.266	61.94
209.483	82.2
209.701	75.62
209.919	75.6
210.136	80.09
210.354	74.4
210.572	79.72
210.79	77.51
211.007	79.44
211.225	80.26
211.442	73.39
211.66	73.73
211.878	62.4
212.095	69.44
212.313	65.13
212.53	62.41
212.748	66.05
212.966	62.72
213.183	61.73
213.401	60.38
213.618	57.95
213.836	66.16
214.053	67.87
214.271	70.79
214.488	71.27
214.705	76.59
214.923	79.83
215.14	79.7
215.358	90.81
215.575	98.22
215.793	84.74
216.01	84.48
216.227	72.61
216.445	66.51
216.662	73.4
216.879	69.28
217.097	70.62
217.314	62.06
217.531	70.81
217.749	59.9
217.966	64.61
218.183	66.02
218.4	70.02
218.618	68.11
218.835	66.65
219.052	62.02
219.269	56.21
219.487	54.06
219.704	57.79
219.921	47.96
220.138	47.1
220.355	40.48
220.572	41.03
220.79	33.42
221.007	36.16
221.224	35.82
221.441	33.55
221.658	35.99
221.875	34.47
222.092	28.3
222.309	29.43
222.526	27.26
222.743	26.79
222.96	27.95
223.177	24.63
223.394	24.8
223.611	25.08
223.828	29.16
224.045	28.39
224.262	29.76
224.479	32.51
224.696	32.48
224.913	31.92
225.13	34.79
225.347	32.96
225.564	31.82
225.781	32.47
225.997	29.29
226.214	24.98
226.431	23.13
226.648	18.05
226.865	18.11
227.082	15.94
227.298	14.01
227.515	10.85
227.732	9.8
227.949	9.77
228.165	8.97
228.382	8.54
228.599	8.27
228.816	7.99
229.032	8.57
229.249	7.69
229.466	7.45
229.682	7
229.899	7.72
230.116	7.56
230.332	7.76
230.549	7.16
230.765	7.29
230.982	7.92
231.199	8.17
231.415	8.6
231.632	9.22
231.848	8.83
232.065	10.42
232.281	10.68
232.498	10.3
232.714	10.04
232.931	10.01
233.147	10.35
233.364	10.93
233.58	10.23
233.797	8.72
234.013	8.68
234.23	8.88
234.446	9.31
234.662	7.97
234.879	8.61
235.095	8.53
235.312	8.32
235.528	8.76
235.744	8.21
235.961	8.02
236.177	7.78
236.393	6.88
236.61	7.56
236.826	7.82
237.042	7.77
237.258	8.17
237.475	7.9
237.691	8.48
237.907	8.15
238.123	6.92
238.339	6.91
238.556	8.18
238.772	8.3
238.988	8.37
239.204	7.42
239.42	8.23
239.636	8.21
239.853	8.83
240.069	8.59
240.285	8.2
240.501	7.71
240.717	7.8
240.933	6.87
241.149	7.01
241.365	6.74
241.581	6.93
241.797	6.9
242.013	6.57
242.229	6.55
242.445	6.57
242.661	6.7
242.877	7.06
243.093	7.06
243.309	7.81
243.525	7.15
243.741	7.1
243.957	6.93
244.173	6.89
244.388	7.3
244.604	6.72
244.82	6.97
245.036	6.56
245.252	6.63
245.468	6.15
245.683	5.97
245.899	7.02
246.115	6.67
246.331	6.89
246.547	6.88
246.762	6.51
246.978	6.41
247.194	5.98
247.409	5.99
247.625	5.9
247.841	5.92
248.057	5.83
248.272	5.21
248.488	5.31
248.703	5.25
248.919	4.83
249.135	5.21
249.35	5.76
249.566	6.28
249.782	6.51
249.997	7.06
250.213	8.12
250.428	8.82
250.644	9.38
250.859	9.25
251.075	8.94
251.29	8.91
251.506	8.09
251.721	7.9
251.937	7.41
252.152	7.68
252.368	7.11
252.583	6.78
252.798	6.18
253.014	6.06
253.229	6.64
253.445	6.76
253.66	7.56
253.875	7.78
254.091	7.63
254.306	8.3
254.521	7.66
254.737	8.56
254.952	7.84
255.167	8.1
255.383	8.22
255.598	7.33
255.813	7.11
256.028	6.18
256.244	7.14
256.459	6.72
256.674	6.68
256.889	6.62
257.104	5.64
257.32	5.73
257.535	5.57
257.75	5.59
257.965	5.85
258.18	5.16
258.395	5.18
258.61	4.54
258.826	4.44
259.041	4.04
259.256	3.81
259.471	3.88
259.686	3.94
259.901	3.93
260.116	3.74
260.331	3.6
260.546	3.76
260.761	3.96
260.976	4.11
261.191	4.18
261.406	4.17
261.621	4.37
261.836	4.64
262.05	4.54
262.265	4.59
262.48	4.73
262.695	4.8
262.91	5.06
263.125	5.08
263.34	5.44
263.555	5.78
263.769	6.26
263.984	6.49
264.199	6.08
264.414	6.72
264.629	6.84
264.843	7.54
265.058	7.08
265.273	6.61
265.488	6.42
265.702	5.79
265.917	5.55
266.132	5.4
266.346	5.02
266.561	5.42
266.776	5.65
266.99	5.49
267.205	4.64
267.42	4.71
267.634	4.87
267.849	4.65
268.063	4.79
268.278	5
268.492	5.22
268.707	5.6
268.922	5.47
269.136	4.75
269.351	4.26
269.565	4.89
269.78	5
269.994	4.73
270.209	4.74
270.423	4.65
270.637	3.77
270.852	3.29
271.066	3.22
271.281	2.88
271.495	3.04
271.709	3.58
271.924	3.38
272.138	3.37
272.353	3.64
272.567	3.57
272.781	3.78
272.996	4.26
273.21	4.6
273.424	4.43
273.638	4.88
273.853	4.65
274.067	4.54
274.281	4.83
274.495	4.97
274.71	5.14
274.924	5.29
275.138	4.81
275.352	4.81
275.566	4.81
275.781	5.13
275.995	5.16
276.209	5.81
276.423	6.24
276.637	5.86
276.851	5.84
277.065	5.87
277.279	6.13
277.493	6.35
277.707	6.76
277.921	6.96
278.135	6.99
278.349	6.61
278.563	6.32
278.777	6.04
278.991	5.88
279.205	5.91
279.419	5.33
279.633	5.11
279.847	5.44
280.061	5.16
280.275	4.98
280.489	4.61
280.703	4.37
280.917	4.4
281.131	4.4
281.344	4.44
281.558	4.28
281.772	4.42
281.986	4.15
282.2	4.03
282.414	4.03
282.627	4.05
282.841	4.4
283.055	4.64
283.269	4.59
283.482	4.52
283.696	4.48
283.91	4.48
284.123	4.56
284.337	4.99
284.551	4.63
284.764	4.87
284.978	4.63
285.192	4.24
285.405	4.34
285.619	4.44
285.833	4.27
286.046	4.35
286.26	4.41
286.473	4.59
286.687	4.12
286.9	4.52
287.114	4.19
287.327	4.56
287.541	4.66
287.754	4.78
287.968	4.77
288.181	4.96
288.395	5.03
288.608	5.12
288.822	5.11
289.035	5.34
289.248	5.28
289.462	5.23
289.675	4.81
289.889	4.76
290.102	4.36
290.315	4.21
290.529	4.27
290.742	4.19
290.955	4.4
291.169	4.42
291.382	4.54
291.595	4.62
291.808	4.95
292.022	5.26
292.235	5.57
292.448	5.63
292.661	5.42
292.875	5.07
293.088	5.25
293.301	5.27
293.514	5.01
293.727	4.82
293.94	4.87
294.153	4.81
294.367	4.75
294.58	4.64
294.793	5.04
295.006	5.54
295.219	5.56
295.432	5.34
295.645	5.14
295.858	5.42
296.071	5.36
296.284	5.21
296.497	5
296.71	5.11
296.923	5.16
297.136	4.84
297.349	4.51
297.562	4.65
297.775	4.7
297.988	4.53
298.201	4.49
298.414	4.66
298.626	4.48
298.839	4.57
299.052	4.5
299.265	4.49
299.478	4.67
299.691	4.83
299.903	4.54
300.116	4.61
300.329	5.19
300.542	4.9
300.755	4.96
300.967	5.25
301.18	5.36
301.393	5.67
301.605	5.46
301.818	5.8
302.031	5.86
302.243	6.46
302.456	6.68
302.669	6.11
302.881	6.3
303.094	6.55
303.307	6.59
303.519	6.49
303.732	6.21
303.944	6.41
304.157	6.32
304.37	6.56
304.582	6.53
304.795	6.39
305.007	7
305.22	6.84
305.432	6.67
305.645	6.55
305.857	6.67
306.069	6.74
306.282	7.02
306.494	6.72
306.707	6.81
306.919	6.85
307.132	7.07
307.344	6.59
307.556	6.49
307.769	6.81
307.981	6.71
308.193	6.84
308.406	6.84
308.618	6.72
308.83	6.83
309.043	6.66
309.255	6.53
309.467	6.2
309.679	6.4
309.892	6.56
310.104	6.01
310.316	6.04
310.528	6.07
310.74	6.05
310.953	6.06
311.165	6.16
311.377	6.46
311.589	6.32
311.801	6.5
312.013	6.42
312.225	6.29
312.437	6.78
312.649	6.99
312.862	6.96
313.074	7.07
313.286	7.46
313.498	7.45
313.71	7.16
313.922	7.27
314.134	7.34
314.346	7.58
314.558	8.15
314.77	7.81
314.982	7.69
315.193	7.59
315.405	7.38
315.617	7.25
315.829	7.02
316.041	7.16
316.253	6.9
316.465	7.35
316.677	7.44
316.888	7.34
317.1	7.32
317.312	7.79
317.524	7.88
317.736	8.29
317.947	7.99
318.159	8.38
318.371	8.59
318.583	9.39
318.794	8.68
319.006	9.07
319.218	9.16
319.43	9.34
319.641	9.07
319.853	9.11
320.064	9.11
320.276	9.36
320.488	9.75
320.699	9.75
320.911	9.62
321.123	10.19
321.334	10.1
321.546	10.09
321.757	10.61
321.969	11.46
322.18	11.55
322.392	11.86
322.603	12.08
322.815	12.12
323.026	11.78
323.238	11.99
323.449	11.82
323.661	11.55
323.872	11.59
324.083	11.59
324.295	11.15
324.506	11.17
324.718	11.44
324.929	11.83
325.14	11.9
325.352	12.27
325.563	12.27
325.774	12.92
325.986	13.04
326.197	13.44
326.408	13.9
326.62	14.05
326.831	14.55
327.042	14.49
327.253	14.42
327.464	14.72
327.676	15.06
327.887	15.3
328.098	15.51
328.309	16.09
328.52	16.44
328.732	16.37
328.943	16.77
329.154	17.24
329.365	17.49
329.576	17.93
329.787	18.23
329.998	18.98
330.209	19.26
330.42	19.42
330.631	19.81
330.842	19.95
331.053	20.69
331.264	20.73
331.475	20.8
331.686	21.36
331.897	21.41
332.108	21.72
332.319	21.8
332.53	22.49
332.741	22.5
332.952	22.97
333.163	23.24
333.374	23.18
333.585	23.62
333.795	23.88
334.006	24.04
334.217	24.43
334.428	24.15
334.639	24.27
334.849	24.23
335.06	24.6
335.271	24.39
335.482	24.88
335.692	25.05
335.903	25.46
336.114	25.55
336.325	25.74
336.535	26.12
336.746	26.73
336.957	26.74
337.167	26.94
337.378	27.11
337.589	27.26
337.799	27.13
338.01	27.3
338.22	27.19
338.431	27.37
338.642	27.33
338.852	27.26
339.063	27.17
339.273	27.22
339.484	27.23
339.694	27.02
339.905	27.07
340.115	26.75
340.326	26.4
340.536	26.57
340.746	26.46
340.957	26.32
341.167	26.21
341.378	26.42
341.588	26.52
341.799	26.31
342.009	26.65
342.219	26.35
342.43	26.68
342.64	26.88
342.85	26.88
343.061	26.88
343.271	26.78
343.481	26.96
343.691	26.86
343.902	26.76
344.112	26.98
344.322	26.96
344.532	27.25
344.743	27.16
344.953	27.02
345.163	26.97
345.373	27.07
345.583	27.09
345.793	27.09
346.004	26.85
346.214	26.94
346.424	26.86
346.634	26.7
346.844	26.81
347.054	26.94
347.264	27.27
347.474	27.18
347.684	27.29
347.894	27.77
348.104	27.38
348.314	27.65
348.524	27.51
348.734	27.77
348.944	27.79
349.154	27.54
349.364	27.37
349.574	27
349.784	26.78
349.994	26.63
350.204	26.4
350.413	26.64
350.623	26.51
350.833	26.46
351.043	26.37
351.253	26.53
351.463	26.49
351.672	26.38
351.882	26.48
352.092	26.46
352.302	26.23
352.511	26.34
352.721	26.18
352.931	26.24
353.141	26.26
353.35	25.87
353.56	25.6
353.77	25.54
353.979	25.59
354.189	25.58
354.399	25.54
354.608	25.82
354.818	25.58
355.027	25.56
355.237	25.56
355.447	25.5
355.656	25.96
355.866	25.86
356.075	26.04
356.285	25.93
356.494	25.85
356.704	25.88
356.913	25.88
357.123	25.89
357.332	25.94
357.542	25.8
357.751	25.93
357.96	25.54
358.17	25.55
358.379	25.24
358.589	25
358.798	25.12
359.007	25.35
359.217	25.09
359.426	25.02
359.635	24.95
359.845	24.94
360.054	24.87
360.263	25.07
360.472	25.06
360.682	25.1
360.891	25.3
361.1	25.21
361.309	25.03
361.519	25.2
361.728	25.15
361.937	25.13
362.146	25
362.355	24.98
362.564	24.79
362.774	24.91
362.983	25.04
363.192	25.19
363.401	25.16
363.61	25.02
363.819	24.91
364.028	24.94
364.237	24.64
364.446	24.63
364.655	24.66
364.864	24.62
365.073	24.45
365.282	24.45
365.491	24.26
365.7	24.29
365.909	24.4
366.118	24.59
366.327	24.66
366.536	24.75
366.745	24.86
366.954	24.86
367.162	25.12
367.371	25.09
367.58	25.09
367.789	25.32
367.998	25.31
368.207	25.58
368.415	25.34
368.624	25.24
368.833	25.5
369.042	25.4
369.25	25.2
369.459	25.04
369.668	25.3
369.877	25.19
370.085	25.03
370.294	24.84
370.503	24.73
370.711	24.75
370.92	24.64
371.129	24.76
371.337	24.86
371.546	24.79
371.754	24.66
371.963	24.41
372.171	24.29
372.38	24.26
372.589	24.37
372.797	24.22
373.006	24.06
373.214	24.26
373.423	23.87
373.631	23.91
373.84	23.85
374.048	23.77
374.256	23.79
374.465	23.99
374.673	24.01
374.882	23.97
375.09	23.75
375.298	23.77
375.507	23.81
375.715	24.15
375.923	24.08
376.132	24.03
376.34	24.04
376.548	23.87
376.757	23.85
376.965	23.67
377.173	23.73
377.381	23.97
377.59	23.89
377.798	23.73
378.006	23.78
378.214	23.81
378.423	23.78
378.631	23.73
378.839	23.73
379.047	23.41
379.255	23.68
379.463	23.62
379.671	23.43
379.879	23.38
380.088	23.4
380.296	23.16
380.504	22.95
380.712	23.05
380.92	23.04
381.128	23.12
381.336	23.45
381.544	23.25
381.752	23.21
381.96	23.22
382.168	23.32
382.376	23.11
382.584	23.05
382.791	23.32
382.999	23.27
383.207	23.29
383.415	23.13
383.623	23.07
383.831	23.06
384.039	23.24
384.247	23.42
384.454	23.51
384.662	23.63
384.87	23.6
385.078	23.39
385.285	23.49
385.493	23.67
385.701	23.92
385.909	23.83
386.116	23.73
386.324	23.58
386.532	23.57
386.739	23.49
386.947	23.35
387.155	23.41
387.362	23.45
387.57	23.53
387.778	23.31
387.985	23.29
388.193	23.2
388.4	23.19
388.608	23.14
388.816	22.92
389.023	22.92
389.231	23.07
389.438	23.15
389.646	23.02
389.853	22.85
390.061	22.84
390.268	22.78
390.475	22.83
390.683	22.96
390.89	22.96
391.098	23.1
391.305	23.2
391.512	23.17
391.72	23.02
391.927	23.04
392.135	23.09
392.342	23.3
392.549	23.24
392.756	23.15
392.964	23.08
393.171	23.2
393.378	23.1
393.586	23.03
393.793	22.82
394	22.74
394.207	22.75
394.414	22.78
394.622	22.6
394.829	22.68
395.036	22.81
395.243	22.98
395.45	22.93
395.657	22.85
395.864	22.73
396.072	22.98
396.279	23.15
396.486	23.23
396.693	23.31
396.9	23.26
397.107	23.21
397.314	23.03
397.521	22.78
397.728	22.62
397.935	22.78
398.142	22.83
398.349	22.63
398.556	22.67
398.763	22.68
398.97	22.55
399.177	22.65
399.383	22.72
399.59	22.96
399.797	23.17
400.004	23.18
400.211	23.11
400.418	23.12
400.625	23.23
400.831	23.15
401.038	23.16
401.245	23.02
401.452	23.01
401.658	22.86
401.865	22.67
402.072	22.36
402.279	22.47
402.485	22.55
402.692	22.5
402.899	22.49
403.105	22.32
403.312	22.3
403.519	22.4
403.725	22.33
403.932	22.32
404.138	22.41
404.345	22.54
404.552	22.5
404.758	22.41
404.965	22.58
405.171	22.64
405.378	22.74
405.584	22.76
405.791	22.56
405.997	22.55
406.204	22.55
406.41	22.47
406.617	22.52
406.823	22.57
407.029	22.66
407.236	22.56
407.442	22.52
407.649	22.55
407.855	22.44
408.061	22.64
408.268	22.65
408.474	22.86
408.68	22.92
408.887	22.74
409.093	22.77
409.299	22.66
409.505	22.53
409.712	22.41
409.918	22.35
410.124	22.42
410.33	22.61
410.537	22.53
410.743	22.44
410.949	22.42
411.155	22.48
411.361	22.27
411.567	22.36
411.773	22.41
411.98	22.36
412.186	22.27
412.392	22.27
412.598	22.1
412.804	22.15
413.01	22.03
413.216	22.01
413.422	22.07
413.628	22.2
413.834	22.19
414.04	22.3
414.246	22.58
414.452	22.53
414.658	22.55
414.864	22.54
415.07	22.56
415.275	22.62
415.481	22.6
415.687	22.63
415.893	22.56
416.099	22.5
416.305	22.37
416.511	22.3
416.716	22.33
416.922	22.34
417.128	22.36
417.334	22.43
417.539	22.37
417.745	22.4
417.951	22.3
418.157	22.26
418.362	22.28
418.568	22.36
418.774	22.33
418.979	22.34
419.185	22.34
419.391	22.28
419.596	22.18
419.802	22.18
420.008	22.12
420.213	21.62
420.419	21.65
420.624	21.62
420.83	21.54
421.035	21.49
421.241	21.45
421.446	21.43
421.652	21.39
421.857	21.35
422.063	21.32
422.268	21.35
422.474	21.85
422.679	21.79
422.885	21.79
423.09	21.81
423.295	21.83
423.501	21.85
423.706	21.85
423.911	21.94
424.117	22.09
424.322	22.06
424.527	22
424.733	22
424.938	22.02
425.143	22
425.349	22.01
425.554	21.99
425.759	22.05
425.964	22.03
426.169	21.98
426.375	21.85
426.58	21.82
426.785	21.8
426.99	21.84
427.195	21.86
427.4	21.88
427.605	21.94
427.811	22.03
428.016	21.91
428.221	21.93
428.426	22.02
428.631	22.14
428.836	22.19
429.041	22.47
429.246	22.38
429.451	22.4
429.656	22.39
429.861	22.28
430.066	22.25
430.271	22.31
430.476	22.23
430.681	22.2
430.886	21.99
431.09	22.1
431.295	21.91
431.5	21.96
431.705	21.95
431.91	21.94
432.115	22
432.32	22.02
432.524	22.08
432.729	22.15
432.934	22.08
433.139	22.22
433.343	22.15
433.548	22.14
433.753	22.08
433.958	22.23
434.162	22.23
434.367	22.22
434.572	22.24
434.776	22.18
434.981	22.23
435.186	22.29
435.39	22.37
435.595	22.36
435.799	22.4
436.004	22.4
436.209	22.23
436.413	22.22
436.618	22.21
436.822	22.16
437.027	22.2
437.231	22.13
437.436	22.12
437.64	21.97
437.845	22.01
438.049	22.01
438.253	22.12
438.458	22.17
438.662	22.25
438.867	22.28
439.071	22.28
439.275	22.29
439.48	22.32
439.684	22.28
439.888	22.37
440.093	22.35
440.297	22.31
440.501	22.29
440.706	22.34
440.91	22.25
441.114	22.19
441.318	22.2
441.523	22.2
441.727	22.18
441.931	22.2
442.135	22.2
442.339	22.27
442.543	22.28
442.748	22.22
442.952	22.35
443.156	22.39
443.36	22.42
443.564	22.45
443.768	22.37
443.972	22.38
444.176	22.46
444.38	22.37
444.584	22.3
444.788	22.29
444.992	22.36
445.196	22.24
445.4	22.22
445.604	22.25
445.808	22.19
446.012	22.2
446.216	22.11
446.42	22.06
446.624	22.07
446.828	22.12
447.032	22.11
447.235	22.06
447.439	22.11
447.643	22.15
447.847	22.15
448.051	22.15
448.254	22.16
448.458	22.23
448.662	22.2
448.866	22.21
449.069	22.19
449.273	22.24
449.477	22.25
449.681	22.07
449.884	22.16
450.088	22.17
450.292	22.18
450.495	22.22
450.699	22.3
450.902	22.36
451.106	22.35
451.31	22.44
451.513	22.42
451.717	22.47
451.92	22.65
452.124	22.53
452.327	22.52
452.531	22.59
452.734	22.64
452.938	22.63
453.141	22.55
453.345	22.45
453.548	22.36
453.752	22.32
453.955	22.37
454.158	22.23
454.362	22.21
454.565	22.18
454.769	22.15
454.972	22.14
455.175	22.12
455.379	22.22
455.582	22.39
455.785	22.34
455.988	22.27
456.192	22.19
456.395	22.23
456.598	22.34
456.801	22.45
457.005	22.46
457.208	22.56
457.411	22.55
457.614	22.45
457.817	22.35
458.021	22.41
458.224	22.57
458.427	22.5
458.63	22.49
458.833	22.38
459.036	22.32
459.239	22.33
459.442	22.27
459.645	22.19
459.848	22.19
460.051	22.24
460.254	22.29
460.457	22.21
460.66	22.23
460.863	22.25
461.066	22.21
461.269	22.15
461.472	22.18
461.675	22.1
461.878	22.11
462.081	22.13
462.284	22.1
462.486	22.01
462.689	22.11
462.892	22.14
463.095	22.17
463.298	22.29
463.5	22.31
463.703	22.33
463.906	22.41
464.109	22.54
464.311	22.56
464.514	22.59
464.717	22.69
464.92	22.65
465.122	22.62
465.325	22.66
465.528	22.64
465.73	22.77
465.933	22.8
466.135	22.75
466.338	22.67
466.541	22.74
466.743	22.82
466.946	22.75
467.148	22.73
467.351	22.78
467.553	22.72
467.756	22.68
467.958	22.62
468.161	22.47
468.363	22.51
468.566	22.45
468.768	22.44
468.971	22.38
469.173	22.3
469.375	22.27
469.578	22.27
469.78	22.2
469.983	22.24
470.185	22.24
470.387	22.23
470.59	22.3
470.792	22.49
470.994	22.54
471.196	22.47
471.399	22.6
471.601	22.7
471.803	22.66
472.005	22.68
472.208	22.72
472.41	22.66
472.612	22.71
472.814	22.63
473.016	22.62
473.218	22.54
473.421	22.58
473.623	22.5
473.825	22.44
474.027	22.42
474.229	22.48
474.431	22.4
474.633	22.42
474.835	22.45
475.037	22.52
475.239	22.37
475.441	22.34
475.643	22.39
475.845	22.44
476.047	22.45
476.249	22.54
476.451	22.51
476.653	22.56
476.855	22.7
477.057	22.6
477.258	22.53
477.46	22.66
477.662	22.75
477.864	22.69
478.066	22.67
478.268	22.69
478.469	22.63
478.671	22.7
478.873	22.74
479.075	22.58
479.276	22.69
479.478	22.71
479.68	22.68
479.882	22.63
480.083	22.68
480.285	22.62
480.487	22.57
480.688	22.6
480.89	22.56
481.091	22.51
481.293	22.55
481.495	22.46
481.696	22.51
481.898	22.48
482.099	22.51
482.301	22.5
482.502	22.51
482.704	22.5
482.905	22.47
483.107	22.45
483.308	22.47
483.51	22.44
483.711	22.45
483.913	22.45
484.114	22.44
484.315	22.36
484.517	22.33
484.718	22.34
484.92	22.35
485.121	22.34
485.322	22.33
485.524	22.32
485.725	22.35
485.926	22.32
486.127	22.32
486.329	22.32
486.53	22.38
486.731	22.46
486.932	22.48
487.134	22.51
487.335	22.55
487.536	22.59
487.737	22.57
487.938	22.55
488.139	22.56
488.341	22.55
488.542	22.6
488.743	22.65
488.944	22.57
489.145	22.55
489.346	22.55
489.547	22.54
489.748	22.51
489.949	22.56
490.15	22.58
490.351	22.64
490.552	22.63
490.753	22.58
490.954	22.57
491.155	22.62
491.356	22.66
491.557	22.62
491.758	22.65
491.959	22.65
492.159	22.63
492.36	22.64
492.561	22.67
492.762	22.72
492.963	22.79
493.164	22.73
493.364	22.75
493.565	22.75
493.766	22.75
493.967	22.69
494.167	22.8
494.368	22.83
494.569	22.92
494.769	22.87
494.97	22.8
495.171	22.8
495.371	22.86
495.572	22.91
495.773	22.89
495.973	22.93
496.174	22.96
496.375	22.94
496.575	22.95
496.776	22.9
496.976	22.9
497.177	22.99
497.377	22.97
497.578	22.97
497.778	22.94
497.979	22.92
498.179	22.99
498.38	23.01
498.58	23.02
498.78	23.02
498.981	23
499.181	23.02
499.382	22.97
499.582	22.99
499.782	23.01
499.983	23.08
500.183	23.17
500.383	23.18
500.584	23.21
500.784	23.17
500.984	23.14
501.184	23.31
501.385	23.44
501.585	23.52
501.785	23.49
501.985	23.53
502.185	23.44
502.386	23.42
502.586	23.44
502.786	23.43
502.986	23.44
503.186	23.5
503.386	23.36
503.586	23.31
503.786	23.29
503.987	23.32
504.187	23.34
504.387	23.44
504.587	23.45
504.787	23.39
504.987	23.41
505.187	23.46
505.387	23.45
505.587	23.55
505.786	23.56
505.986	23.6
506.186	23.64
506.386	23.59
506.586	23.48
506.786	23.5
506.986	23.54
507.186	23.64
507.386	23.72
507.585	23.76
507.785	23.74
507.985	23.82
508.185	23.8
508.384	23.79
508.584	23.84
508.784	23.92
508.984	23.9
509.183	23.91
509.383	23.86
509.583	23.76
509.782	23.72
509.982	23.78
510.182	23.75
510.381	23.8
510.581	23.8
510.781	23.88
510.98	23.91
511.18	23.92
511.379	24
511.579	23.97
511.778	23.99
511.978	24.04
512.177	24.01
512.377	23.96
512.576	23.89
512.776	23.96
512.975	23.88
513.175	23.82
513.374	23.85
513.573	23.81
513.773	23.92
513.972	24.02
514.172	24.03
514.371	24.08
514.57	24.12
514.77	24.19
514.969	24.16
515.168	24.23
515.367	24.26
515.567	24.31
515.766	24.39
515.965	24.31
516.164	24.35
516.364	24.3
516.563	24.33
516.762	24.37
516.961	24.43
517.16	24.51
517.359	24.58
517.559	24.67
517.758	24.7
517.957	24.72
518.156	24.77
518.355	24.77
518.554	24.89
518.753	24.86
518.952	24.84
519.151	24.88
519.35	24.81
519.549	24.74
519.748	24.73
519.947	24.76
520.146	24.73
520.345	24.77
520.544	24.7
520.743	24.7
520.942	24.69
521.141	24.67
521.339	24.65
521.538	24.69
521.737	24.7
521.936	24.6
522.135	24.53
522.333	24.52
522.532	24.53
522.731	24.64
522.93	24.55
523.129	24.6
523.327	24.64
523.526	24.68
523.725	24.76
523.923	24.79
524.122	24.88
524.321	24.97
524.519	24.98
524.718	24.98
524.917	25.01
525.115	25.06
525.314	25.08
525.512	25.14
525.711	25.12
525.909	25.1
526.108	25.12
526.306	25.16
526.505	25.14
526.703	25.13
526.902	25.15
527.1	25.16
527.299	25.15
527.497	25.12
527.696	25.12
527.894	25.11
528.092	25.13
528.291	25.12
528.489	25.08
528.688	25.08
528.886	25.07
529.084	25.06
529.283	25.05
529.481	25.07
529.679	25.13
529.877	25.13
530.076	25.2
530.274	25.21
530.472	25.24
530.67	25.27
530.869	25.32
531.067	25.39
531.265	25.41
531.463	25.45
531.661	25.43
531.859	25.45
532.057	25.49
532.255	25.45
532.454	25.46
532.652	25.45
532.85	25.51
533.048	25.46
533.246	25.51
533.444	25.52
533.642	25.52
533.84	25.58
534.038	25.58
534.236	25.51
534.434	25.5
534.632	25.52
534.83	25.55
535.027	25.48
535.225	25.57
535.423	25.52
535.621	25.53
535.819	25.48
536.017	25.45
536.215	25.48
536.412	25.55
536.61	25.56
536.808	25.56
537.006	25.54
537.203	25.65
537.401	25.69
537.599	25.73
537.797	25.7
537.994	25.82
538.192	25.86
538.39	25.9
538.587	25.97
538.785	26
538.983	26.08
539.18	26.21
539.378	26.25
539.575	26.29
539.773	26.36
539.97	26.44
540.168	26.42
540.366	26.48
540.563	26.47
540.761	26.46
540.958	26.54
541.155	26.54
541.353	26.49
541.55	26.47
541.748	26.44
541.945	26.43
542.143	26.43
542.34	26.44
542.537	26.46
542.735	26.48
542.932	26.56
543.129	26.53
543.327	26.54
543.524	26.66
543.721	26.71
543.919	26.86
544.116	26.93
544.313	27.05
544.51	27.17
544.708	27.17
544.905	27.21
545.102	27.23
545.299	27.3
545.496	27.44
545.693	27.42
545.891	27.47
546.088	27.43
546.285	27.43
546.482	27.39
546.679	27.37
546.876	27.45
547.073	27.42
547.27	27.44
547.467	27.45
547.664	27.35
547.861	27.39
548.058	27.34
548.255	27.34
548.452	27.33
548.649	27.21
548.846	27.16
549.043	27.14
549.24	27.19
549.437	27.1
549.633	27.02
549.83	26.94
550.027	26.85
550.224	26.76
550.421	26.66
550.618	26.72
550.814	26.89
551.011	26.77
551.208	26.69
551.405	26.74
551.601	26.58
551.798	26.6
551.995	26.61
552.191	26.66
552.388	26.59
552.585	26.66
552.781	26.62
552.978	26.53
553.175	26.58
553.371	26.58
553.568	26.44
553.764	26.6
553.961	26.69
554.157	26.72
554.354	26.7
554.55	26.89
554.747	26.88
554.943	26.91
555.14	26.87
555.336	26.99
555.533	27.07
555.729	27.18
555.926	27.19
556.122	26.97
556.318	26.91
556.515	26.99
556.711	26.85
556.907	26.67
557.104	26.72
557.3	26.82
557.496	26.83
557.693	26.68
557.889	26.66
558.085	26.73
558.281	26.91
558.478	26.98
558.674	27.01
558.87	27.1
559.066	27.26
559.262	27.24
559.459	27.18
559.655	27.1
559.851	27.21
560.047	27.09
560.243	27.06
560.439	26.89
560.635	26.88
560.831	26.71
561.027	26.79
561.223	26.69
561.419	26.56
561.615	26.62
561.811	26.64
562.007	26.6
562.203	26.73
562.399	26.72
562.595	26.7
562.791	26.78
562.987	26.88
563.183	26.82
563.379	26.93
563.575	27.04
563.771	27.03
563.966	27.11
564.162	27.16
564.358	27.11
564.554	27.16
564.75	27.22
564.945	27.21
565.141	27.3
565.337	27.42
565.533	27.44
565.728	27.47
565.924	27.48
566.12	27.51
566.315	27.48
566.511	27.55
566.707	27.49
566.902	27.58
567.098	27.62
567.293	27.43
567.489	27.23
567.684	27.27
567.88	27.24
568.076	27.23
568.271	27.24
568.467	27.29
568.662	27.33
568.858	27.33
569.053	27.44
569.248	27.4
569.444	27.53
569.639	27.75
569.835	27.67
570.03	27.64
570.225	27.66
570.421	27.68
570.616	27.66
570.812	27.67
571.007	27.8
571.202	27.8
571.397	27.81
571.593	27.75
571.788	27.75
571.983	27.69
572.178	27.64
572.374	27.65
572.569	27.56
572.764	27.58
572.959	27.53
573.154	27.47
573.35	27.45
573.545	27.47
573.74	27.48
573.935	27.33
574.13	27.35
574.325	27.52
574.52	27.55
574.715	27.52
574.91	27.57
575.105	27.61
575.3	27.67
575.495	27.66
575.69	27.56
575.885	27.59
576.08	27.79
576.275	27.92
576.47	27.85
576.665	27.85
576.86	28
577.055	28.03
577.25	28.05
577.444	28.02
577.639	28.08
577.834	28.2
578.029	28.27
578.224	28.2
578.418	28.3
578.613	28.23
578.808	28.22
579.003	28.08
579.197	28.08
579.392	28.18
579.587	28.29
579.781	28.21
579.976	28.25
580.171	28.22
580.365	28.21
580.56	28.16
580.755	28.48
580.949	28.58
581.144	28.65
581.338	28.67
581.533	28.68
581.727	28.56
581.922	28.54
582.116	28.53
582.311	28.56
582.505	28.59
582.7	28.77
582.894	28.6
583.089	28.59
583.283	28.66
583.478	28.68
583.672	28.59
583.866	28.65
584.061	28.72
584.255	28.87
584.449	29.05
584.644	28.97
584.838	28.79
585.032	28.86
585.226	28.79
585.421	28.92
585.615	28.78
585.809	28.98
586.003	29.04
586.198	29.24
586.392	29.27
586.586	29.19
586.78	29.29
586.974	29.38
587.168	29.36
587.363	29.41
587.557	29.24
587.751	29.4
587.945	29.29
588.139	29.44
588.333	29.21
588.527	29.15
588.721	29.11
588.915	29.19
589.109	29.07
589.303	29.07
589.497	29.16
589.691	29.21
589.885	29.26
590.079	29.22
590.273	29.09
590.466	29.18
590.66	29.08
590.854	29.16
591.048	29.18
591.242	29.06
591.436	29.01
591.629	29.08
591.823	29.28
592.017	29.13
592.211	29.23
592.404	29.2
592.598	29.27
592.792	29.41
592.986	29.4
593.179	29.35
593.373	29.58
593.567	29.7
593.76	29.64
593.954	29.48
594.147	29.7
594.341	29.61
594.535	29.57
594.728	29.55
594.922	29.51
595.115	29.54
595.309	29.41
595.502	29.38
595.696	29.36
595.889	29.29
596.083	29.26
596.276	29.23
596.47	29.31
596.663	29.37
596.856	29.33
597.05	29.25
597.243	29.22
597.437	29.35
597.63	29.32
597.823	29.36
598.017	29.53
598.21	29.72
598.403	29.76
598.596	29.8
598.79	29.77
598.983	29.88
599.176	30.02
599.369	30.08
599.563	30.12
599.756	30.21
599.949	30.18
600.142	30.09
600.335	30.02
600.528	29.91
600.722	29.88
600.915	29.93
601.108	29.95
601.301	30.08
601.494	30.16
601.687	30.15
601.88	30.16
602.073	30.18
602.266	30.11
602.459	30.08
602.652	30.15
602.845	30.09
603.038	30.18
603.231	30.17
603.424	30.08
603.617	30.04
603.809	30.04
604.002	30.03
604.195	29.91
604.388	29.97
604.581	30.09
604.774	30.14
604.966	30.16
605.159	30.13
605.352	30.09
605.545	30.04
605.737	30.03
605.93	30.01
606.123	30.06
606.316	30.26
606.508	30.34
606.701	30.38
606.894	30.49
607.086	30.65
607.279	30.7
607.471	30.86
607.664	31.17
607.857	31.38
608.049	31.69
608.242	31.83
608.434	31.96
608.627	32.25
608.819	32.51
609.012	32.86
609.204	33.24
609.397	33.57
609.589	34.04
609.782	34.48
609.974	35
610.166	35.4
610.359	36.05
610.551	36.65
610.743	36.95
610.936	37.28
611.128	37.47
611.32	37.59
611.513	37.79
611.705	37.81
611.897	37.82
612.09	37.58
612.282	37.4
612.474	37.1
612.666	36.81
612.858	36.61
613.051	36.29
613.243	35.96
613.435	35.83
613.627	35.51
613.819	35.34
614.011	35.12
614.203	34.8
614.395	34.61
614.588	34.35
614.78	34.05
614.972	33.89
615.164	33.73
615.356	33.5
615.548	33.3
615.74	33.39
615.932	33.16
616.124	32.84
616.315	33
616.507	32.88
616.699	32.69
616.891	32.72
617.083	32.68
617.275	32.41
617.467	32.36
617.659	32.29
617.85	31.97
618.042	31.85
618.234	31.84
618.426	31.62
618.618	31.78
618.809	31.59
619.001	31.41
619.193	31.54
619.384	31.69
619.576	31.87
619.768	31.84
619.959	31.9
620.151	32.03
620.343	31.97
620.534	32
620.726	31.81
620.917	32.05
621.109	32.08
621.301	31.88
621.492	31.99
621.684	31.86
621.875	31.84
622.067	31.99
622.258	31.88
622.45	31.9
622.641	32.08
622.832	32.32
623.024	32.4
623.215	32.46
623.407	32.5
623.598	32.47
623.789	32.41
623.981	32.5
624.172	32.59
624.363	32.7
624.555	32.77
624.746	32.65
624.937	32.62
625.129	32.58
625.32	32.49
625.511	32.55
625.702	32.52
625.893	32.57
626.085	32.46
626.276	32.35
626.467	32.43
626.658	32.41
626.849	32.43
627.04	32.42
627.231	32.51
627.422	32.6
627.614	32.52
627.805	32.61
627.996	32.74
628.187	32.78
628.378	32.93
628.569	32.96
628.76	33.05
628.951	33.06
629.142	32.99
629.332	33.06
629.523	33.21
629.714	33.27
629.905	33.28
630.096	33.26
630.287	33.38
630.478	33.39
630.669	33.51
630.859	33.48
631.05	33.5
631.241	33.54
631.432	33.38
631.623	33.34
631.813	33.41
632.004	33.28
632.195	33.07
632.385	32.98
632.576	32.81
632.767	32.49
632.957	32.47
633.148	32.42
633.339	32.27
633.529	32.26
633.72	32.05
633.91	31.96
634.101	31.95
634.292	31.96
634.482	31.89
634.673	31.97
634.863	32.04
635.054	32.01
635.244	32.11
635.435	31.98
635.625	32.12
635.815	32.13
636.006	32.15
636.196	32.21
636.387	32.37
636.577	32.36
636.767	32.3
636.958	32.15
637.148	32.22
637.338	32.23
637.529	32.39
637.719	32.29
637.909	32.41
638.099	32.37
638.29	32.16
638.48	32.21
638.67	32.35
638.86	32.43
639.05	32.54
639.241	32.48
639.431	32.38
639.621	32.46
639.811	32.42
640.001	32.31
640.191	32.21
640.381	32.44
640.571	32.35
640.761	32.34
640.951	32.21
641.141	32.2
641.331	32.32
641.521	32.34
641.711	32.29
641.901	32.06
642.091	32.26
642.281	32.48
642.471	32.43
642.661	32.41
642.851	32.65
643.041	32.86
643.231	32.95
643.42	33
643.61	32.97
643.8	32.93
643.99	33.13
644.18	33.15
644.369	33.25
644.559	33.41
644.749	33.35
644.939	33.16
645.128	32.96
645.318	33.13
645.508	32.92
645.697	32.89
645.887	32.95
646.076	32.97
646.266	32.74
646.456	32.7
646.645	32.73
646.835	32.94
647.024	32.88
647.214	32.81
647.403	32.78
647.593	32.89
647.782	32.93
647.972	33.04
648.161	33.17
648.351	33.38
648.54	33.19
648.73	33.11
648.919	33.19
649.108	33.23
649.298	33.28
649.487	33.23
649.677	33.32
649.866	33.2
650.055	33.27
650.244	33.16
650.434	33.01
650.623	33.07
650.812	33.17
651.002	33.07
651.191	33
651.38	33.23
651.569	33.19
651.758	33.09
651.947	33.43
652.137	33.39
652.326	33.41
652.515	33.48
652.704	33.36
652.893	33.2
653.082	33.01
653.271	33.15
653.46	32.98
653.649	33.05
653.838	33.24
654.027	33.02
654.216	33.18
654.405	33.18
654.594	33.21
654.783	33.34
654.972	33.36
655.161	33.81
655.35	33.9
655.539	33.92
655.728	33.87
655.916	33.99
656.105	34.22
656.294	34.06
656.483	34.07
656.672	33.92
656.86	34.24
657.049	34.36
657.238	34.09
657.427	33.75
657.615	33.64
657.804	33.48
657.993	33.22
658.181	32.89
658.37	32.91
658.559	32.94
658.747	32.98
658.936	32.92
659.125	32.83
659.313	32.85
659.502	32.92
659.69	32.82
659.879	32.95
660.067	32.94
660.256	33.01
660.444	33.04
660.633	33.04
660.821	32.95
661.01	32.75
661.198	32.61
661.387	32.35
661.575	32.54
661.763	32.77
661.952	32.74
662.14	32.75
662.328	32.99
662.517	32.8
662.705	32.95
662.893	33.04
663.082	33.07
663.27	33.23
663.458	33.36
663.646	33.47
663.834	33.42
664.023	33.68
664.211	33.95
664.399	33.82
664.587	33.97
664.775	33.89
664.963	34
665.152	34.15
665.34	34.34
665.528	34.52
665.716	34.5
665.904	34.67
666.092	34.37
666.28	34.12
666.468	33.95
666.656	33.99
666.844	34.03
667.032	34.09
667.22	34.14
667.408	34.13
667.596	34.05
667.784	33.84
667.971	33.98
668.159	34.12
668.347	34.18
668.535	34.45
668.723	34.36
668.911	34.17
669.098	34.34
669.286	34.22
669.474	34.09
669.662	34.21
669.849	34.48
670.037	34.31
670.225	34.36
670.413	34.55
670.6	34.59
670.788	34.57
670.976	34.59
671.163	34.65
671.351	34.64
671.538	34.62
671.726	34.74
671.913	34.57
672.101	34.44
672.289	34.21
672.476	34.18
672.664	33.97
672.851	33.98
673.039	34.05
673.226	33.87
673.413	33.8
673.601	34.05
673.788	33.84
673.976	34.13
674.163	34.15
674.35	34.39
674.538	34.46
674.725	34.85
674.912	35.02
675.1	35.08
675.287	35.19
675.474	35.42
675.662	35.21
675.849	35.23
676.036	35.06
676.223	35.26
676.411	35.18
676.598	34.87
676.785	34.45
676.972	34.42
677.159	34.34
677.346	34.11
677.533	34.04
677.721	34.27
677.908	34.22
678.095	34.1
678.282	34.39
678.469	34.48
678.656	34.58
678.843	34.66
679.03	34.72
679.217	34.81
679.404	35.03
679.591	35.12
679.778	34.81
679.964	35.01
680.151	34.93
680.338	34.54
680.525	34.54
680.712	34.69
680.899	34.68
681.086	34.71
681.272	34.78
681.459	34.8
681.646	34.72
681.833	35
682.02	34.94
682.206	35.07
682.393	35.27
682.58	35.25
682.766	35.24
682.953	35.41
683.14	35.18
683.326	35.27
683.513	35.05
683.7	35.22
683.886	35.06
684.073	35.1
684.259	35.05
684.446	35.1
684.632	35.15
684.819	34.75
685.005	34.48
685.192	34.61
685.378	34.43
685.565	34.43
685.751	34.16
685.938	34.31
686.124	34.14
686.31	34.49
686.497	34.28
686.683	34.37
686.87	34.6
687.056	34.77
687.242	34.62
687.429	34.77
687.615	34.76
687.801	34.83
687.987	34.64
688.174	34.8
688.36	34.49
688.546	34.45
688.732	34.4
688.918	34.65
689.105	34.94
689.291	35.11
689.477	35.02
689.663	35.03
689.849	34.72
690.035	34.63
690.221	34.41
690.407	34.51
690.593	34.62
690.779	34.75
690.965	34.41
691.151	34.3
691.337	34.74
691.523	34.82
691.709	34.9
691.895	35.08
692.081	35.26
692.267	35.46
692.453	35.56
692.639	35.55
692.825	35.22
693.011	35.4
693.196	35.17
693.382	34.71
693.568	34.67
693.754	34.57
693.94	34.6
694.125	34.69
694.311	34.64
694.497	34.56
694.682	34.46
694.868	34.46
695.054	34.72
695.239	34.74
695.425	34.76
695.611	34.91
695.796	35.12
695.982	35.32
696.168	35.06
696.353	35.29
696.539	35.37
696.724	35.34
696.91	35.47
697.095	35.18
697.281	35.24
697.466	35.33
697.652	35.18
697.837	35.21
698.023	34.94
698.208	35.11
698.393	34.8
698.579	34.79
698.764	34.89
698.949	34.81
699.135	34.74
699.32	34.71
699.505	34.63
699.691	34.57
699.876	34.31
700.061	34.49
700.246	34.27
700.432	34.34
700.617	34.16
700.802	34.17
700.987	34.04
701.172	34.32
701.358	34.39
701.543	34.3
701.728	34.36
701.913	34.31
702.098	34.2
702.283	34.3
702.468	34.32
702.653	34.3
702.838	34.2
703.023	34.63
703.208	34.34
703.393	34.33
703.578	34.61
703.763	34.72
703.948	35.13
704.133	35.68
704.318	35.84
704.503	35.89
704.688	36.04
704.873	36.1
705.057	36.14
705.242	36.53
705.427	36.7
705.612	36.33
705.797	36.55
705.981	36.65
706.166	36.4
706.351	36.55
706.536	36.9
706.72	37
706.905	37.03
707.09	37.1
707.274	37.07
707.459	37.05
707.644	37.88
707.828	37.73
708.013	37.91
708.197	37.93
708.382	38.07
708.567	37.94
708.751	37.81
708.936	37.88
709.12	37.46
709.305	37.28
709.489	37.38
709.673	37.21
709.858	37.13
710.042	37.09
710.227	37.09
710.411	36.73
710.596	36.61
710.78	36.45
710.964	36.63
711.149	36.95
711.333	37.11
711.517	36.87
711.702	36.26
711.886	36.21
712.07	36.15
712.254	35.86
712.438	36.26
712.623	36.09
712.807	36.09
712.991	35.53
713.175	35.55
713.359	35.25
713.544	35.08
713.728	34.97
713.912	35
714.096	34.35
714.28	34.4
714.464	34.23
714.648	34.42
714.832	34.46
715.016	34.75
715.2	34.18
715.384	34.03
715.568	34.21
715.752	34.51
715.936	34.31
716.12	34.71
716.304	35.05
716.488	34.91
716.671	34.32
716.855	34.37
717.039	34.1
717.223	34.59
717.407	34.66
717.59	34.7
717.774	34.26
717.958	34.48
718.142	34.5
718.325	34.11
718.509	33.94
718.693	34.28
718.877	34.1
719.06	34.17
719.244	33.76
719.428	33.52
719.611	33.23
719.795	33.75
719.978	33.69
720.162	33.58
720.345	33.47
720.529	33.78
720.713	34.05
720.896	34.53
721.08	34.74
721.263	34.96
721.446	35.14
721.63	35.56
721.813	35.85
721.997	35.61
722.18	35.4
722.364	35.25
722.547	35.09
722.73	35.03
722.914	34.87
723.097	34.78
723.28	34.64
723.464	35.03
723.647	34.91
723.83	34.38
724.013	34.19
724.197	34.86
724.38	35.28
724.563	35.11
724.746	34.64
724.929	34.57
725.112	34.74
725.296	34.98
725.479	35.33
725.662	35.35
725.845	35.44
726.028	35.64
726.211	34.82
726.394	34.83
726.577	34.77
726.76	35.62
726.943	35.53
727.126	35.34
727.309	35.35
727.492	35.03
727.675	34.76
727.858	34.85
728.041	35.06
728.224	35.56
728.407	35.47
728.589	36.19
728.772	35.71
728.955	35.72
729.138	36.16
729.321	35.93
729.503	35.63
729.686	35.99
729.869	35.77
730.052	35.6
730.234	35.7
730.417	35.24
730.6	34.63
730.782	34.73
730.965	34.77
731.148	34.32
731.33	34.46
731.513	34.53
731.695	34.46
731.878	34.73
732.061	34.71
732.243	34.79
732.426	35.23
732.608	35.35
732.791	35.13
732.973	34.66
733.156	34.6
733.338	34.54
733.52	34.62
733.703	34.16
733.885	34.07
734.068	34
734.25	33.63
734.432	33.88
734.615	33.96
734.797	34.12
734.979	34.42
735.162	34.77
735.344	34.82
735.526	35.25
735.708	35.61
735.891	35.5
736.073	35.76
736.255	35.78
736.437	35.29
736.619	35.46
736.802	35.7
736.984	36.05
737.166	35.67
737.348	35.53
737.53	35.15
737.712	34.99
737.894	34.87
738.076	34.83
738.258	34.65
738.44	34.44
738.622	34
738.804	33.68
738.986	33.71
739.168	33.97
739.35	33.76
739.532	33.99
739.714	34.24
739.896	34.41
740.078	34.14
740.259	34.57
740.441	35.07
740.623	35.2
740.805	35.36
740.987	35.25
741.168	35.01
741.35	35.49
741.532	35.27
741.714	34.97
741.895	35.37
742.077	35.35
742.259	35.39
742.44	35.28
742.622	35.49
742.804	35.19
742.985	34.85
743.167	34.76
743.348	34.6
743.53	34.01
743.711	33.93
743.893	33.18
744.075	33.41
744.256	33.35
744.438	33.35
744.619	32.75
744.8	33.2
744.982	33.6
745.163	33.97
745.345	34.4
745.526	35.19
745.707	34.99
745.889	35.13
746.07	35.25
746.252	35.4
746.433	35.6
746.614	36.13
746.795	35.52
746.977	35.86
747.158	35.85
747.339	35.22
747.52	35.29
747.702	35.5
747.883	35.83
748.064	35.6
748.245	34.95
748.426	34.22
748.607	34.3
748.788	34.81
748.97	34.04
749.151	34.18
749.332	34.46
749.513	34.14
749.694	34.57
749.875	34.78
750.056	34.53
750.237	35.42
750.418	36.34
750.599	36.14
750.78	35.84
750.96	35.95
751.141	35.51
751.322	35.21
751.503	35.42
751.684	35.22
751.865	35.05
752.046	35.37
752.226	34.85
752.407	34.71
752.588	34.75
752.769	34.76
752.949	34.5
753.13	34.43
753.311	34.85
753.492	34.4
753.672	34.06
753.853	33.81
754.034	33.45
754.214	33.67
754.395	33.32
754.575	33.77
754.756	34.78
754.937	35.26
755.117	35.17
755.298	35.43
755.478	35.69
755.659	36.52
755.839	36.57
756.02	36.56
756.2	36.13
756.381	36.28
756.561	35.63
756.741	35.08
756.922	35.03
757.102	34.69
757.283	33.99
757.463	33.63
757.643	33.18
757.823	33.32
758.004	33.58
758.184	33.94
758.364	34.27
758.545	34.61
758.725	34.47
758.905	34.32
759.085	34.93
759.265	34.72
759.446	35.31
759.626	34.68
759.806	34.8
759.986	35.05
760.166	34.53
760.346	34.1
760.526	33.99
760.706	33.96
760.886	33.92
761.066	33.66
761.246	33.7
761.426	33.42
761.606	33.69
761.786	33.63
761.966	33.66
762.146	33.73
762.326	34.25
762.506	34.19
762.686	34.15
762.866	34.39
763.046	34.56
763.225	34.69
763.405	34.23
763.585	34.08
763.765	33.5
763.945	33.27
764.124	33.2
764.304	32.8
764.484	32.83
764.664	33
764.843	32.85
765.023	32.6
765.203	32.33
765.382	32.86
765.562	33.18
765.741	33.49
765.921	33.4
766.101	33.83
766.28	33.86
766.46	33.59
766.639	33.56
766.819	33.94
766.998	34.03
767.178	34.47
767.357	34.88
767.537	34.73
767.716	35.44
767.896	35.23
768.075	35.07
768.254	35.03
768.434	35.14
768.613	35.04
768.792	34.74
768.972	35.4
769.151	35.15
769.33	34.68
769.51	35.07
769.689	34.62
769.868	35.12
770.047	35.12
770.226	35.13
770.406	34.93
770.585	34.81
770.764	35.51
770.943	35.08
771.122	34.61
771.301	34.57
771.48	33.75
771.66	33.55
771.839	33.67
772.018	33.28
772.197	33.45
772.376	34.12
772.555	34.27
772.734	32.88
772.913	32.67
773.092	33.15
773.271	32.9
773.449	32.77
773.628	33.08
773.807	32.38
773.986	32.08
774.165	31.88
774.344	31.53
774.523	31.1
774.701	31.47
774.88	31.36
775.059	31.9
775.238	31.47
775.417	32.03
775.595	31.75
775.774	32.16
775.953	32.4
776.131	32.75
776.31	33.28
776.489	33.22
776.667	33.68
776.846	34.14
777.025	33.74
777.203	33.84
777.382	33.98
777.56	34.08
777.739	34.48
777.917	34.61
778.096	33.9
778.274	32.53
778.453	33.32
778.631	32.71
778.81	31.81
778.988	31.57
779.166	32.78
779.345	32.52
779.523	32.42
779.702	31.99
779.88	31.74
780.058	32.19
780.237	32.54
780.415	31.83
780.593	31.88
780.771	33.02
780.95	34.47
781.128	33.66
781.306	34.77
781.484	34.14
781.662	34.33
781.841	35.07
782.019	35.39
782.197	36.24
782.375	35.55
782.553	35.88
782.731	34.68
782.909	33.89
783.087	33.99
783.265	33.63
783.443	34.81
783.621	35.42
783.799	35.51
783.977	34.92
784.155	33.96
784.333	35.41
784.511	35.43
784.689	35.71
784.867	35.04
785.045	35.39
785.223	34.77
785.4	34.66
785.578	34.14
785.756	33.63
785.934	33.82
786.112	34.27
786.289	33.96
786.467	33.82
786.645	34.55
786.823	35.43
787	34.79
787.178	34.81
787.356	34.89
787.533	35.12
787.711	34.96
787.889	34.86
788.066	35.25
788.244	34.86
788.421	34.71
788.599	33.97
788.776	33.24
788.954	32.99
789.131	33.22
789.309	32.55
789.486	32.28
789.664	32.26
789.841	32.49
790.019	32.05
790.196	32.24
790.373	32.07
790.551	33.16
790.728	33.23
790.906	34.95
791.083	34.79
791.26	34.65
791.437	34.73
791.615	34.97
791.792	35.32
791.969	35.09
792.146	34.89
792.324	35.08
792.501	34.1
792.678	34.37
792.855	33.82
793.032	33.75
793.209	34.94
793.387	34.43
793.564	35.33
793.741	34.63
793.918	35.99
794.095	35.55
794.272	35.57
794.449	36.23
794.626	35.6
794.803	34.78
794.98	34.86
795.157	34.36
795.334	34.17
795.511	32.69
795.688	33.2
795.864	31.82
796.041	32.73
796.218	32
796.395	30.72
796.572	30.89
796.749	31.08
796.925	30.52
797.102	30.96
797.279	31.95
797.456	32.76
797.632	31.38
797.809	31.69
797.986	31.23
798.162	31.76
798.339	32.92
798.516	33.55
798.692	33.92
798.869	34.38
799.046	34.91
799.222	33.7
799.399	33.38
799.575	34.5
799.752	34.59
799.928	34.07
800.105	34.31
800.281	33.89
800.458	33.73
800.634	32.23
800.811	31.81
800.987	30.27
801.163	31.4
801.34	30.64
801.516	30.81
801.692	30.9
801.869	31.81
802.045	31.96
802.221	32.39
802.398	31.93
802.574	33.3
802.75	34.23
802.926	35.09
803.103	35.42
803.279	36.06
803.455	36.29
803.631	35.73
803.807	35.24
803.983	36.06
804.16	36.42
804.336	36.78
804.512	36.16
804.688	35.41
804.864	34.94
805.04	35.35
805.216	35.83
805.392	36.04
805.568	36.95
805.744	38.81
805.92	38.44
806.096	37.91
806.272	38.5
806.448	37.61
806.623	37.98
806.799	37.97
806.975	37.47
807.151	36.79
807.327	35.53
807.503	35.67
807.678	34.05
807.854	33.84
808.03	35.45
808.206	35.01
808.381	36.22
808.557	35.59
808.733	37.13
808.908	37.31
809.084	37.87
809.26	37.82
809.435	37.45
809.611	37.61
809.787	37.15
809.962	35.18
810.138	34.99
810.313	34.69
810.489	34.88
810.664	33.66
810.84	32.05
811.015	32.22
811.191	32.83
811.366	32.98
811.542	32.38
811.717	32.95
811.892	33.99
812.068	33
812.243	33.06
812.419	32.56
812.594	32.06
812.769	33.45
812.944	32.74
813.12	31.67
813.295	31.59
813.47	32.53
813.645	31.99
813.821	29.8
813.996	31.35
814.171	31.48
814.346	32.01
814.521	31.81
814.697	32.29
814.872	31.66
815.047	32.86
815.222	34.55
815.397	32.97
815.572	33.13
815.747	33.3
815.922	32.2
816.097	32.9
816.272	33.12
816.447	33.71
816.622	32.13
816.797	32.03
816.972	32.28
817.147	30.84
817.322	31.29
817.496	31.96
817.671	32.94
817.846	33.12
818.021	32.75
818.196	32.65
818.371	32.78
818.545	33.86
818.72	35.28
818.895	34.49
819.069	34.42
819.244	35.65
819.419	35.36
819.594	34.82
819.768	35.41
819.943	35.06
820.117	33.77
820.292	32.49
820.467	30.92
820.641	30.07
820.816	29.89
820.99	29.53
821.165	28.57
821.339	28.19
821.514	27.85
821.688	27.68
821.863	27.58
822.037	28.06
822.212	28.17
822.386	28.06
822.56	27.89
822.735	27.75
822.909	27.56
823.084	27.66
823.258	27.38
823.432	27.59
823.606	27.34
823.781	27.21
823.955	26.93
824.129	26.96
824.303	26.99
824.478	27.11
824.652	27.17
824.826	27.3
825	27.41
825.174	28
825.348	27.99
825.523	28.09
825.697	28.11
825.871	28.25
826.045	28.24
826.219	29.07
826.393	29.41
826.567	29.64
826.741	29.47
826.915	29.49
827.089	29.51
827.263	29.13
827.437	29.62
827.611	30.02
827.784	29.91
827.958	29.85
828.132	29.3
828.306	28.64
828.48	28.74
828.654	29.29
828.827	29.26
829.001	28.99
829.175	29.52
829.349	29.27
829.522	29.2
829.696	29.66
829.87	29.79
830.044	29.63
830.217	31.04
830.391	30.32
830.565	29.83
830.738	29.67
830.912	29.19
831.085	30.22
831.259	30.48
831.432	29.63
831.606	29.8
831.779	30.02
831.953	31.5
832.126	31.11
832.3	31.25
832.473	31.14
832.647	31.83
832.82	31.99
832.994	30.88
833.167	31.18
833.34	31.29
833.514	30.97
833.687	31
833.86	30.66
834.034	29.67
834.207	29.76
834.38	29.13
834.553	27.95
834.727	28.57
834.9	28.51
835.073	28.97
835.246	28.77
835.419	28.84
835.593	28.72
835.766	28.39
835.939	30.3
836.112	30.85
836.285	31.42
836.458	32.52
836.631	31.48
836.804	32.65
836.977	30.78
837.15	30.89
837.323	32.08
837.496	32.2
837.669	32.38
837.842	31.7
838.015	31.34
838.188	32.72
838.361	32.57
838.533	33.88
838.706	31.27
838.879	30.93
839.052	30.37
839.225	29.11
839.398	29.86
839.57	30.65
839.743	29.8
839.916	30.2
840.088	29.66
840.261	30.2
840.434	30.64
840.607	33.4
840.779	33.79
840.952	34.78
841.124	34.55
841.297	33
841.47	31.36
841.642	31.68
841.815	32.17
841.987	32.99
842.16	34.19
842.332	34.86
842.505	35
842.677	36.34
842.85	36
843.022	36.67
843.194	39.13
843.367	41.74
843.539	40.73
843.712	37.9
843.884	35.27
844.056	35.9
844.229	35.73
844.401	35.77
844.573	35.41
844.745	36.66
844.918	38.31
845.09	38.5
845.262	38.58
845.434	38.73
845.606	39.9
845.779	43.55
845.951	42.41
846.123	40.7
846.295	39.11
846.467	38.23
846.639	38.41
846.811	35.76
846.983	35.82
847.155	33.38
847.327	37.33
847.499	35.42
847.671	34.2
847.843	36.13
848.015	35.42
848.187	34
848.359	38
848.531	39.85
848.703	40.23
848.875	41.8
849.047	42.12
849.218	37.28
849.39	42.16
849.562	41.23
849.734	38.22
849.905	41.48
850.077	43.35
850.249	42.59
850.421	40.22
850.592	40.38
850.764	40.93
850.936	45.42
851.107	46.52
851.279	47.31
851.451	48.4
851.622	51.06
851.794	49.81
851.965	52.6
852.137	50.32
852.308	48.79
852.48	47.04
852.651	44.5
852.823	42.75
852.994	41.66
853.166	40.6
853.337	39.39
853.509	39.04
853.68	37.64
853.851	37.21
854.023	35.87
854.194	36.77
854.365	35.42
854.537	36.95
854.708	36.58
854.879	38.85
855.05	36.64
855.222	38.42
855.393	36.25
855.564	37.59
855.735	35.14
855.906	34.38
856.078	32.83
856.249	39.71
856.42	38.57
856.591	38.46
856.762	36.42
856.933	37.11
857.104	35.37
857.275	35.14
857.446	35.99
857.617	37.37
857.788	40.57
857.959	42.36
858.13	38.57
858.301	36.7
858.472	36.25
858.643	39.86
858.814	39.23
858.985	40.93
859.155	44.93
859.326	46.33
859.497	47.34
859.668	45.73
859.839	46.25
860.009	45.63
860.18	45.66
860.351	46.65
860.522	44.66
860.692	47.15
860.863	46.15
861.034	43.58
861.204	43.65
861.375	43.7
861.546	44.58
861.716	44.53
861.887	46.23
862.057	45.8
862.228	47.02
862.398	46.24
862.569	45.8
862.739	47.56
862.91	47.67
863.08	45.28
863.251	40.95
863.421	38.82
863.592	35.72
863.762	35.71
863.932	36.74
864.103	36.03
864.273	33.73
864.443	32.61
864.614	27.73
864.784	28.11
864.954	26.18
865.125	28.42
865.295	32.92
865.465	38.24
865.635	36.76
865.805	38.66
865.976	40.15
866.146	43.37
866.316	40.61
866.486	42.34
866.656	41.16
866.826	40.91
866.996	38.95
867.166	35.85
867.336	33.5
867.506	33.43
867.676	32.21
867.846	30.73
868.016	33.51
868.186	34.24
868.356	35.56
868.526	35.39
868.696	34.33
868.866	32.73
869.036	32.53
869.206	33.49
869.376	36.65
869.545	39.07
869.715	36.55
869.885	31.97
870.055	34.67
870.224	34.18
870.394	32.13
870.564	37.11
870.734	38.55
870.903	38.6
871.073	37.99
871.243	34.05
871.412	30.86
871.582	33.44
871.751	35.04
871.921	37.9
872.091	38.94
872.26	41.64
872.43	39.31
872.599	42.26
872.769	41.93
872.938	41.06
873.108	47.54
873.277	50.33
873.446	49.06
873.616	46.49
873.785	42.36
873.955	44.82
874.124	41.65
874.293	43.94
874.463	41.1
874.632	40.67
874.801	40.15
874.971	34.6
875.14	35.03
875.309	34.21
875.478	34.99
875.647	34.59
875.817	30.73
875.986	34.81
876.155	31.68
876.324	30.77
876.493	32.11
876.662	31.06
876.831	32.48
877	27.54
877.17	31.37
877.339	35.32
877.508	36.83
877.677	40.87
877.846	39.67
878.015	42.85
878.184	42.79
878.352	43.68
878.521	44.72
878.69	42.91
878.859	44.35
879.028	44.09
879.197	39.24
879.366	38.51
879.534	35.05
879.703	35.58
879.872	32.49
880.041	32.17
880.21	30.66
880.378	30.1
880.547	30.62
880.716	28.95
880.884	27.67
881.053	28.63
881.222	29.39
881.39	28.2
881.559	27.36
881.727	27.77
881.896	27.85
882.065	27.49
882.233	26.81
882.402	26.42
882.57	26.55
882.739	26
882.907	25.62
883.076	24.84
883.244	25.4
883.412	25.17
883.581	25.28
883.749	25.16
883.918	25.68
884.086	26.43
884.254	26.64
884.423	27.84
884.591	28.47
884.759	28.69
884.927	28.71
885.096	29.65
885.264	30.34
885.432	29.48
885.6	29.07
885.769	29.08
885.937	28.82
886.105	30.15
886.273	30.46
886.441	30.04
886.609	29.59
886.777	29.48
886.945	30.28
887.113	30.61
887.281	31.98
887.449	33.99
887.617	31.68
887.785	30.3
887.953	30.55
888.121	26.57
888.289	28.05
888.457	30.31
888.625	30.07
888.793	30.08
888.961	29.53
889.129	30.02
889.296	28.71
889.464	30.14
889.632	32.15
889.8	30.47
889.967	34.9
890.135	36.5
