Data from 2938749__Reflection_02.txt Node
Date: Sat Mar 14 14:47:28 EDT 2015
User: robert
Spectrometer: USB4E03002
Autoset integration time: false
Trigger mode: 4
Integration Time (sec): 1.000000E-1
Scans to average: 10
Electric dark correction enabled: false
Nonlinearity correction enabled: false
Boxcar width: 5
Stray light correction enabled: false
XAxis mode: Wavelengths
Stop averaging: false
Number of Pixels in Spectrum: 3648
>>>>>Begin Spectral Data<<<<<
177.575	-172.77
177.794	-195.05
178.014	-213.64
178.233	-323.27
178.452	-452.94
178.672	-21200
178.891	423.67
179.11	329.39
179.33	220.39
179.549	278.65
179.768	238
179.987	277.75
180.207	240.28
180.426	200.78
180.645	183.79
180.864	226.97
181.084	318.49
181.303	422.6
181.522	319.28
181.741	428.36
181.96	273.02
182.179	266.84
182.398	299.51
182.618	393.95
182.837	365.61
183.056	614.95
183.275	388.44
183.494	249.09
183.713	361.8
183.932	322.48
184.151	287.04
184.37	131.82
184.589	184.56
184.808	144.05
185.027	152.04
185.246	133.9
185.465	153.83
185.684	137.43
185.903	173.36
186.122	142.63
186.341	139.64
186.56	175.5
186.779	229.79
186.998	293.68
187.216	3209.09
187.435	745.92
187.654	2606.67
187.873	1802.38
188.092	1383.33
188.311	495.09
188.53	1767.44
188.748	-2240.62
188.967	-2960.87
189.186	-661.26
189.405	2211.11
189.623	588.55
189.842	369.76
190.061	289.87
190.28	227.27
190.498	273.13
190.717	372
190.936	167.91
191.154	219.67
191.373	193.55
191.592	151.38
191.81	177.53
192.029	178.19
192.248	199.28
192.466	244.58
192.685	264.39
192.904	411.73
193.122	310.53
193.341	-8237.5
193.559	-837.5
193.778	-153.87
193.996	-116.55
194.215	-148.74
194.433	-154.44
194.652	-188.28
194.87	-137.65
195.089	-186.2
195.307	-241.23
195.526	-284.74
195.744	-874.24
195.963	1375.29
196.181	502.15
196.399	294.93
196.618	243.19
196.836	183.02
197.055	165.25
197.273	179.78
197.491	132.88
197.71	100.6
197.928	90.84
198.146	103.2
198.365	74.53
198.583	79.36
198.801	56.28
199.019	78.24
199.238	125
199.456	238.31
199.674	131.9
199.892	168.73
200.111	171.36
200.329	132.73
200.547	136.63
200.765	138.29
200.983	162.72
201.202	208.33
201.42	236.49
201.638	184.32
201.856	178.81
202.074	227.71
202.292	197.07
202.51	259.81
202.728	337.69
202.946	389.35
203.165	525.49
203.383	262.6
203.601	164.73
203.819	98.01
204.037	90.18
204.255	62.71
204.473	54.39
204.691	44.35
204.909	51.74
205.127	66.71
205.345	62.26
205.562	61.37
205.78	64.66
205.998	64.18
206.216	47.37
206.434	44.15
206.652	67.35
206.87	70.29
207.088	100.93
207.306	136.33
207.523	120.19
207.741	157.24
207.959	249.22
208.177	180.16
208.395	153.02
208.612	182.99
208.83	171.74
209.048	160.14
209.266	216.77
209.483	145.14
209.701	121.04
209.919	157.63
210.136	179.67
210.354	186.22
210.572	318.03
210.79	292.12
211.007	314.94
211.225	428.81
211.442	387.03
211.66	203.47
211.878	176.08
212.095	-16.05
212.313	-24.34
212.53	-40.86
212.748	-33.65
212.966	-11.95
213.183	-32.42
213.401	-20.2
213.618	1.74
213.836	-26.57
214.053	-49.69
214.271	-95.51
214.488	139.94
214.705	193.93
214.923	358.43
215.14	301.87
215.358	227.87
215.575	196.19
215.793	120.27
216.01	129.94
216.227	236.64
216.445	191.78
216.662	126.91
216.879	124.77
217.097	91.29
217.314	79.98
217.531	89.93
217.749	94.76
217.966	90.21
218.183	93.4
218.4	80.81
218.618	74.26
218.835	80.33
219.052	80.55
219.269	79.92
219.487	86.58
219.704	85.73
219.921	68.81
220.138	70.26
220.355	62.92
220.572	64.92
220.79	60.11
221.007	54.55
221.224	46.54
221.441	51.86
221.658	47.76
221.875	39.99
222.092	40.63
222.309	36.98
222.526	20.34
222.743	25.64
222.96	23.35
223.177	29.08
223.394	30.02
223.611	21.4
223.828	19.95
224.045	22.66
224.262	35
224.479	35.85
224.696	32.09
224.913	39.29
225.13	35.65
225.347	32.72
225.564	31.51
225.781	29.84
225.997	30.55
226.214	27.29
226.431	25.95
226.648	19.53
226.865	14.47
227.082	16.43
227.298	13.62
227.515	14.17
227.732	12.84
227.949	9.97
228.165	9.28
228.382	8.79
228.599	8.41
228.816	8.66
229.032	9.02
229.249	9.48
229.466	9.74
229.682	9.65
229.899	9.23
230.116	8.39
230.332	9.61
230.549	9.14
230.765	7.98
230.982	7.6
231.199	6.98
231.415	7.88
231.632	8.88
231.848	8.47
232.065	10.88
232.281	12.31
232.498	15.42
232.714	14.73
232.931	15.28
233.147	15.39
233.364	15.44
233.58	14.92
233.797	14.56
234.013	12.27
234.23	10.66
234.446	9.53
234.662	10.53
234.879	8.61
235.095	9.61
235.312	11.2
235.528	11.41
235.744	13.47
235.961	13.57
236.177	13.45
236.393	14.72
236.61	15.54
236.826	13.37
237.042	12.08
237.258	12.17
237.475	12.46
237.691	12.98
237.907	14.79
238.123	13.53
238.339	13.98
238.556	13.87
238.772	14.69
238.988	14.65
239.204	15.99
239.42	13.74
239.636	14.22
239.853	14.09
240.069	13.44
240.285	12.79
240.501	11.97
240.717	11.73
240.933	10.62
241.149	9.63
241.365	9.74
241.581	9.09
241.797	8.97
242.013	9.1
242.229	8.98
242.445	8.2
242.661	8.16
242.877	8.2
243.093	8.31
243.309	8.84
243.525	8.73
243.741	8.26
243.957	8.36
244.173	8.76
244.388	7.87
244.604	7.81
244.82	7.89
245.036	7.83
245.252	7.62
245.468	6.81
245.683	6.31
245.899	6.45
246.115	6.64
246.331	6.52
246.547	6.72
246.762	6.71
246.978	6.6
247.194	6.7
247.409	6.73
247.625	6.75
247.841	6.56
248.057	6.58
248.272	6.91
248.488	6.89
248.703	7.28
248.919	6.99
249.135	7.4
249.35	7.49
249.566	7.78
249.782	7.83
249.997	7.85
250.213	8.93
250.428	8.88
250.644	8.25
250.859	7.79
251.075	7.26
251.29	7.3
251.506	7.21
251.721	7.28
251.937	6.85
252.152	7.08
252.368	6.79
252.583	6.23
252.798	6.53
253.014	6.81
253.229	7.76
253.445	8.11
253.66	7.79
253.875	7.4
254.091	6.85
254.306	6.28
254.521	6.46
254.737	7.15
254.952	8.66
255.167	7.96
255.383	9.32
255.598	7.77
255.813	7.02
256.028	7.76
256.244	8.74
256.459	8.98
256.674	10.13
256.889	9.96
257.104	8.88
257.32	7.31
257.535	6.25
257.75	4.56
257.965	5.33
258.18	5.33
258.395	4.94
258.61	4.48
258.826	4.66
259.041	4.46
259.256	4.27
259.471	4.43
259.686	4.54
259.901	4.86
260.116	4.85
260.331	4.84
260.546	4.96
260.761	5.26
260.976	5.41
261.191	5.05
261.406	5.15
261.621	5.06
261.836	5.24
262.05	5.84
262.265	5.99
262.48	6.69
262.695	6.64
262.91	6.81
263.125	7.02
263.34	6.87
263.555	7.65
263.769	7.03
263.984	7.21
264.199	7.1
264.414	6.39
264.629	6.34
264.843	5.46
265.058	5.11
265.273	4.5
265.488	3.51
265.702	3.43
265.917	3.22
266.132	4.1
266.346	4.11
266.561	4.71
266.776	4.73
266.99	5.31
267.205	5.71
267.42	5.38
267.634	5.37
267.849	5.63
268.063	6.43
268.278	6.28
268.492	5.9
268.707	6.1
268.922	5.76
269.136	5.89
269.351	5.34
269.565	4.92
269.78	5.35
269.994	5.38
270.209	5.33
270.423	4.78
270.637	5
270.852	4.46
271.066	4.53
271.281	4.55
271.495	4.64
271.709	4.77
271.924	5.03
272.138	4.66
272.353	5.02
272.567	5.31
272.781	5.23
272.996	5.06
273.21	5.26
273.424	4.61
273.638	4.53
273.853	4.42
274.067	4.72
274.281	5.01
274.495	5.25
274.71	5.38
274.924	5.02
275.138	4.57
275.352	4.88
275.566	5.55
275.781	5.95
275.995	6.19
276.209	5.96
276.423	5.79
276.637	5.14
276.851	4.88
277.065	4.42
277.279	4.26
277.493	4.95
277.707	4.8
277.921	4.79
278.135	4.98
278.349	4.76
278.563	4.84
278.777	4.59
278.991	4.69
279.205	4.88
279.419	4.53
279.633	4.57
279.847	4.24
280.061	4.22
280.275	3.68
280.489	3.43
280.703	3.42
280.917	3.44
281.131	3.08
281.344	3.3
281.558	3.73
281.772	4.09
281.986	4.22
282.2	4.02
282.414	3.92
282.627	4.08
282.841	4.01
283.055	4.06
283.269	4.09
283.482	4.82
283.696	4.67
283.91	4.55
284.123	4.51
284.337	4.41
284.551	4.48
284.764	4.52
284.978	4.38
285.192	4.32
285.405	4.15
285.619	4.24
285.833	4.17
286.046	4
286.26	3.92
286.473	3.69
286.687	3.84
286.9	4.02
287.114	3.75
287.327	3.82
287.541	3.97
287.754	3.92
287.968	3.57
288.181	3.22
288.395	3.56
288.608	3.55
288.822	3.89
289.035	3.67
289.248	3.81
289.462	3.7
289.675	3.75
289.889	3.72
290.102	3.59
290.315	3.95
290.529	4.16
290.742	4.1
290.955	3.93
291.169	3.93
291.382	4.45
291.595	4.23
291.808	4.93
292.022	5.22
292.235	5.41
292.448	5.63
292.661	5.45
292.875	5.16
293.088	5.11
293.301	5.62
293.514	5.69
293.727	5.62
293.94	5.61
294.153	5.26
294.367	5.23
294.58	5.02
294.793	5.12
295.006	5.36
295.219	5.5
295.432	5.46
295.645	5.3
295.858	5.05
296.071	4.78
296.284	4.49
296.497	4.55
296.71	4.37
296.923	4.27
297.136	4.49
297.349	4.23
297.562	4.16
297.775	4.08
297.988	3.81
298.201	3.79
298.414	3.69
298.626	3.87
298.839	3.73
299.052	3.41
299.265	3.77
299.478	3.37
299.691	3.64
299.903	3.85
300.116	3.93
300.329	3.99
300.542	4.4
300.755	4.48
300.967	4.72
301.18	4.86
301.393	4.9
301.605	4.88
301.818	4.91
302.031	5
302.243	4.92
302.456	4.91
302.669	4.9
302.881	4.78
303.094	5.05
303.307	4.81
303.519	4.61
303.732	5.08
303.944	4.64
304.157	4.95
304.37	4.78
304.582	4.54
304.795	4.56
305.007	5.3
305.22	4.92
305.432	4.97
305.645	5.4
305.857	5.5
306.069	5.24
306.282	5.45
306.494	5.56
306.707	5.5
306.919	5.74
307.132	5.79
307.344	5.49
307.556	5.68
307.769	5.62
307.981	5.3
308.193	5.91
308.406	5.89
308.618	5.63
308.83	5.61
309.043	5.48
309.255	5.52
309.467	5.69
309.679	5.39
309.892	5.93
310.104	5.82
310.316	6.08
310.528	5.77
310.74	5.92
310.953	6.4
311.165	6.18
311.377	6.38
311.589	6.5
311.801	6.47
312.013	6.56
312.225	6.29
312.437	6.14
312.649	6.36
312.862	6.46
313.074	6.53
313.286	6.46
313.498	6.56
313.71	6.84
313.922	6.53
314.134	6.67
314.346	6.85
314.558	6.76
314.77	7.05
314.982	6.94
315.193	6.66
315.405	6.5
315.617	6.45
315.829	6.78
316.041	6.62
316.253	6.86
316.465	6.74
316.677	6.74
316.888	6.51
317.1	6.45
317.312	6.24
317.524	6.2
317.736	6.76
317.947	7.22
318.159	7.44
318.371	7.14
318.583	7.14
318.794	7.3
319.006	7.57
319.218	7.86
319.43	8.11
319.641	7.92
319.853	7.99
320.064	8.05
320.276	7.69
320.488	7.54
320.699	7.95
320.911	7.92
321.123	8.13
321.334	8.04
321.546	8.45
321.757	8.7
321.969	8.65
322.18	8.83
322.392	8.75
322.603	9.06
322.815	9.16
323.026	8.98
323.238	9.49
323.449	9.53
323.661	9.44
323.872	9.31
324.083	9.35
324.295	9.79
324.506	9.76
324.718	9.68
324.929	9.42
325.14	9.54
325.352	10.12
325.563	9.91
325.774	9.92
325.986	9.97
326.197	10.18
326.408	10.35
326.62	10.48
326.831	10.94
327.042	11.23
327.253	11.69
327.464	11.73
327.676	11.94
327.887	12.24
328.098	12.37
328.309	12.64
328.52	12.88
328.732	12.79
328.943	12.54
329.154	12.62
329.365	12.53
329.576	12.55
329.787	12.63
329.998	12.3
330.209	12.63
330.42	12.39
330.631	12.54
330.842	13.2
331.053	13.91
331.264	14.5
331.475	14.53
331.686	15.19
331.897	15.36
332.108	15.23
332.319	15.56
332.53	15.36
332.741	15.76
332.952	15.79
333.163	15.16
333.374	15.3
333.585	15.09
333.795	15.31
334.006	14.81
334.217	14.76
334.428	14.87
334.639	14.56
334.849	14.2
335.06	14.43
335.271	14.51
335.482	14.53
335.692	14.06
335.903	14.23
336.114	14.26
336.325	14.52
336.535	14.37
336.746	14.6
336.957	14.95
337.167	15.3
337.378	15.19
337.589	14.87
337.799	14.71
338.01	14.64
338.22	14.49
338.431	14.38
338.642	14.14
338.852	14.39
339.063	14.43
339.273	14.1
339.484	14.09
339.694	14.31
339.905	14.38
340.115	14.51
340.326	14.57
340.536	14.89
340.746	15.04
340.957	14.87
341.167	14.8
341.378	14.5
341.588	14.68
341.799	14.46
342.009	13.93
342.219	14.27
342.43	14.2
342.64	14.22
342.85	14.14
343.061	14.06
343.271	14.05
343.481	13.99
343.691	14.13
343.902	14.08
344.112	14.35
344.322	14.6
344.532	14.91
344.743	14.98
344.953	14.91
345.163	14.69
345.373	14.45
345.583	14.48
345.793	14.49
346.004	14.55
346.214	14.4
346.424	14.23
346.634	14.29
346.844	14.06
347.054	14.23
347.264	14.09
347.474	14.05
347.684	14.25
347.894	14.35
348.104	14.3
348.314	14.46
348.524	14.68
348.734	14.96
348.944	14.74
349.154	14.21
349.364	13.87
349.574	13.91
349.784	13.84
349.994	13.62
350.204	13.65
350.413	13.55
350.623	13.07
350.833	12.9
351.043	12.67
351.253	12.95
351.463	13.22
351.672	13.42
351.882	13.43
352.092	13.59
352.302	13.97
352.511	13.87
352.721	14.16
352.931	14.38
353.141	14.59
353.35	14.37
353.56	14.46
353.77	14.23
353.979	13.95
354.189	14.11
354.399	13.89
354.608	13.58
354.818	13.69
355.027	13.62
355.237	13.4
355.447	13.31
355.656	13.58
355.866	13.33
356.075	13.62
356.285	13.81
356.494	13.64
356.704	13.54
356.913	13.45
357.123	13.47
357.332	13.37
357.542	13.55
357.751	13.43
357.96	13.13
358.17	12.86
358.379	12.77
358.589	12.85
358.798	12.9
359.007	13.03
359.217	13.05
359.426	12.89
359.635	12.86
359.845	12.66
360.054	12.74
360.263	12.95
360.472	13.07
360.682	12.85
360.891	12.54
361.1	12.57
361.309	12.68
361.519	12.69
361.728	12.75
361.937	12.76
362.146	12.74
362.355	12.54
362.564	12.61
362.774	12.59
362.983	12.86
363.192	13.06
363.401	13.09
363.61	12.98
363.819	13.08
364.028	13.15
364.237	12.83
364.446	12.83
364.655	13
364.864	12.93
365.073	12.98
365.282	12.94
365.491	13.07
365.7	13.09
365.909	12.98
366.118	12.91
366.327	12.66
366.536	12.75
366.745	12.76
366.954	12.49
367.162	12.38
367.371	12.44
367.58	12.15
367.789	11.88
367.998	11.63
368.207	11.75
368.415	11.94
368.624	12.07
368.833	12.23
369.042	12.11
369.25	12.26
369.459	12.1
369.668	12.14
369.877	11.96
370.085	12.02
370.294	12.16
370.503	12.03
370.711	11.67
370.92	11.49
371.129	11.37
371.337	11.4
371.546	11.19
371.754	11.18
371.963	10.75
372.171	10.92
372.38	10.61
372.589	10.55
372.797	10.52
373.006	10.51
373.214	10.49
373.423	10.55
373.631	10.63
373.84	10.87
374.048	10.94
374.256	11.27
374.465	11.22
374.673	11.38
374.882	11.26
375.09	11.32
375.298	11.3
375.507	11.37
375.715	11.21
375.923	11.07
376.132	11.01
376.34	10.86
376.548	10.66
376.757	10.56
376.965	10.45
377.173	10.4
377.381	10.27
377.59	10.14
377.798	9.98
378.006	9.91
378.214	9.92
378.423	9.83
378.631	9.78
378.839	9.64
379.047	9.66
379.255	9.62
379.463	9.42
379.671	9.36
379.879	9.3
380.088	9.34
380.296	9.41
380.504	9.29
380.712	9.12
380.92	9.03
381.128	9.23
381.336	9.1
381.544	9.07
381.752	8.98
381.96	8.95
382.168	8.75
382.376	8.67
382.584	8.53
382.791	8.57
382.999	8.58
383.207	8.52
383.415	8.34
383.623	8.58
383.831	8.63
384.039	8.82
384.247	8.89
384.454	9.17
384.662	9.25
384.87	9.27
385.078	9.2
385.285	9.19
385.493	9.06
385.701	9.05
385.909	8.88
386.116	8.73
386.324	8.68
386.532	8.53
386.739	8.3
386.947	8.27
387.155	8.24
387.362	8.11
387.57	8.06
387.778	8.02
387.985	7.89
388.193	7.84
388.4	7.73
388.608	7.74
388.816	7.67
389.023	7.7
389.231	7.63
389.438	7.65
389.646	7.82
389.853	7.73
390.061	8
390.268	8
390.475	7.73
390.683	7.87
390.89	7.92
391.098	8.05
391.305	8.03
391.512	8.11
391.72	8.03
391.927	7.71
392.135	7.69
392.342	7.52
392.549	7.44
392.756	7.52
392.964	7.47
393.171	7.37
393.378	7.28
393.586	7.38
393.793	7.19
394	7.14
394.207	7.22
394.414	7.3
394.622	7.3
394.829	7.39
395.036	7.44
395.243	7.39
395.45	7.28
395.657	7.26
395.864	7.27
396.072	7.11
396.279	7.16
396.486	7.12
396.693	7.05
396.9	6.98
397.107	6.9
397.314	6.77
397.521	6.72
397.728	6.67
397.935	6.53
398.142	6.43
398.349	6.72
398.556	6.58
398.763	6.64
398.97	6.4
399.177	6.39
399.383	6.25
399.59	6.04
399.797	6.22
400.004	6.13
400.211	5.95
400.418	6.01
400.625	5.74
400.831	5.68
401.038	5.67
401.245	5.75
401.452	5.67
401.658	5.66
401.865	5.87
402.072	5.57
402.279	5.66
402.485	5.81
402.692	5.53
402.899	5.59
403.105	5.66
403.312	5.57
403.519	5.71
403.725	5.78
403.932	5.85
404.138	5.87
404.345	5.89
404.552	5.92
404.758	6.03
404.965	6.14
405.171	6.13
405.378	6.01
405.584	6.11
405.791	6.03
405.997	6.04
406.204	5.95
406.41	5.94
406.617	5.92
406.823	6.04
407.029	6
407.236	5.86
407.442	5.98
407.649	6
407.855	5.94
408.061	5.92
408.268	5.96
408.474	6.25
408.68	6.27
408.887	6.4
409.093	6.31
409.299	6.17
409.505	6.23
409.712	6.2
409.918	6.28
410.124	6.31
410.33	6.27
410.537	6.19
410.743	5.93
410.949	6.03
411.155	5.99
411.361	5.85
411.567	5.83
411.773	5.92
411.98	5.74
412.186	5.65
412.392	5.74
412.598	5.92
412.804	5.93
413.01	5.99
413.216	5.97
413.422	5.95
413.628	6.12
413.834	6.15
414.04	6.05
414.246	5.99
414.452	5.89
414.658	5.69
414.864	5.66
415.07	5.66
415.275	5.62
415.481	5.52
415.687	5.47
415.893	5.27
416.099	5.25
416.305	5.15
416.511	5.27
416.716	5.3
416.922	5.25
417.128	5.13
417.334	5.17
417.539	5.2
417.745	5.09
417.951	5.01
418.157	4.96
418.362	5.06
418.568	5.1
418.774	5.05
418.979	5.14
419.185	5.19
419.391	5.24
419.596	5.17
419.802	5.12
420.008	5.11
420.213	5.81
420.419	5.79
420.624	5.7
420.83	5.75
421.035	5.81
421.241	5.75
421.446	5.69
421.652	5.58
421.857	5.66
422.063	5.64
422.268	5.74
422.474	5.07
422.679	5.1
422.885	5.1
423.09	5
423.295	4.95
423.501	4.91
423.706	4.93
423.911	4.9
424.117	4.79
424.322	4.84
424.527	4.82
424.733	4.87
424.938	4.84
425.143	4.84
425.349	4.84
425.554	4.9
425.759	4.95
425.964	4.98
426.169	5.02
426.375	5.04
426.58	5.01
426.785	4.86
426.99	4.81
427.195	4.89
427.4	4.82
427.605	4.83
427.811	4.75
428.016	4.65
428.221	4.69
428.426	4.72
428.631	4.66
428.836	4.79
429.041	4.91
429.246	5.02
429.451	4.97
429.656	5.15
429.861	5.26
430.066	5.32
430.271	5.49
430.476	5.37
430.681	5.25
430.886	5.38
431.09	5.34
431.295	5.35
431.5	5.32
431.705	5.37
431.91	5.37
432.115	5.25
432.32	5.26
432.524	5.24
432.729	5.27
432.934	5.41
433.139	5.39
433.343	5.32
433.548	5.36
433.753	5.22
433.958	5.24
434.162	5.2
434.367	5.3
434.572	5.18
434.776	5.21
434.981	5.23
435.186	5.23
435.39	5.25
435.595	5.28
435.799	5.23
436.004	5.38
436.209	5.28
436.413	5.34
436.618	5.2
436.822	5.31
437.027	5.27
437.231	5.2
437.436	5.23
437.64	5.06
437.845	4.94
438.049	4.95
438.253	4.99
438.458	5.06
438.662	4.96
438.867	4.99
439.071	4.88
439.275	4.83
439.48	4.88
439.684	4.89
439.888	5.02
440.093	5.15
440.297	5.19
440.501	5.11
440.706	5.06
440.91	5.01
441.114	5.13
441.318	5.15
441.523	5.19
441.727	5.17
441.931	5.16
442.135	5.19
442.339	5.12
442.543	5.07
442.748	5.18
442.952	5.29
443.156	5.39
443.36	5.34
443.564	5.34
443.768	5.26
443.972	5.28
444.176	5.21
444.38	5.09
444.584	5.18
444.788	5.13
444.992	5.06
445.196	4.94
445.4	4.91
445.604	4.88
445.808	4.85
446.012	4.93
446.216	4.94
446.42	5.02
446.624	5.06
446.828	5
447.032	5.02
447.235	5.01
447.439	5.06
447.643	5.06
447.847	5.05
448.051	5.13
448.254	5.11
448.458	5.12
448.662	5.09
448.866	5.02
449.069	5.04
449.273	5.08
449.477	5.09
449.681	5.11
449.884	5.07
450.088	5.1
450.292	5.01
450.495	5.03
450.699	4.92
450.902	4.79
451.106	4.83
451.31	4.8
451.513	4.66
451.717	4.65
451.92	4.56
452.124	4.52
452.327	4.53
452.531	4.6
452.734	4.56
452.938	4.59
453.141	4.75
453.345	4.79
453.548	4.77
453.752	4.88
453.955	4.88
454.158	4.91
454.362	5.06
454.565	5.07
454.769	5.12
454.972	5.07
455.175	5.26
455.379	5.23
455.582	5.24
455.785	5.27
455.988	5.36
456.192	5.42
456.395	5.46
456.598	5.39
456.801	5.44
457.005	5.27
457.208	5.35
457.411	5.19
457.614	5.22
457.817	5.24
458.021	5.18
458.224	5.08
458.427	4.99
458.63	4.86
458.833	4.92
459.036	4.86
459.239	4.96
459.442	4.86
459.645	4.93
459.848	4.91
460.051	4.88
460.254	4.94
460.457	4.94
460.66	4.95
460.863	5.06
461.066	4.97
461.269	5.06
461.472	5.02
461.675	5.14
461.878	5.08
462.081	5.07
462.284	5.03
462.486	5.08
462.689	5.17
462.892	5.25
463.095	5.26
463.298	5.38
463.5	5.31
463.703	5.3
463.906	5.35
464.109	5.45
464.311	5.54
464.514	5.59
464.717	5.54
464.92	5.46
465.122	5.51
465.325	5.56
465.528	5.52
465.73	5.48
465.933	5.5
466.135	5.49
466.338	5.52
466.541	5.44
466.743	5.48
466.946	5.44
467.148	5.41
467.351	5.45
467.553	5.43
467.756	5.48
467.958	5.51
468.161	5.53
468.363	5.5
468.566	5.38
468.768	5.46
468.971	5.44
469.173	5.49
469.375	5.48
469.578	5.34
469.78	5.25
469.983	5.24
470.185	5.21
470.387	5.18
470.59	5.15
470.792	5.21
470.994	5.12
471.196	5.1
471.399	5.09
471.601	5.18
471.803	5.28
472.005	5.44
472.208	5.43
472.41	5.51
472.612	5.64
472.814	5.69
473.016	5.62
473.218	5.67
473.421	5.59
473.623	5.49
473.825	5.46
474.027	5.43
474.229	5.37
474.431	5.26
474.633	5.33
474.835	5.29
475.037	5.18
475.239	5.17
475.441	5.05
475.643	5.16
475.845	5.32
476.047	5.27
476.249	5.23
476.451	5.14
476.653	5.24
476.855	5.16
477.057	5.1
477.258	5.13
477.46	5.25
477.662	5.38
477.864	5.28
478.066	5.16
478.268	5.23
478.469	5.22
478.671	5.22
478.873	5.15
479.075	5.12
479.276	5.22
479.478	5.28
479.68	5.22
479.882	5.15
480.083	5.26
480.285	5.27
480.487	5.27
480.688	5.32
480.89	5.35
481.091	5.34
481.293	5.37
481.495	5.31
481.696	5.28
481.898	5.25
482.099	5.25
482.301	5.21
482.502	5.2
482.704	5.16
482.905	5.09
483.107	5.06
483.308	5.05
483.51	5.02
483.711	4.97
483.913	4.92
484.114	4.93
484.315	4.9
484.517	4.9
484.718	4.89
484.92	4.89
485.121	4.93
485.322	4.94
485.524	4.95
485.725	4.96
485.926	4.97
486.127	5.02
486.329	4.98
486.53	5
486.731	5.02
486.932	5
487.134	4.98
487.335	4.96
487.536	4.93
487.737	4.91
487.938	4.94
488.139	4.95
488.341	4.94
488.542	4.96
488.743	4.98
488.944	4.95
489.145	4.99
489.346	5
489.547	5.03
489.748	5.07
489.949	5.1
490.15	5.09
490.351	5.09
490.552	5.09
490.753	5.09
490.954	5.08
491.155	5.06
491.356	5.06
491.557	5.05
491.758	5.06
491.959	5.08
492.159	5.1
492.36	5.1
492.561	5.14
492.762	5.19
492.963	5.17
493.164	5.16
493.364	5.27
493.565	5.29
493.766	5.37
493.967	5.42
494.167	5.44
494.368	5.44
494.569	5.56
494.769	5.5
494.97	5.57
495.171	5.6
495.371	5.6
495.572	5.6
495.773	5.6
495.973	5.67
496.174	5.61
496.375	5.65
496.575	5.74
496.776	5.69
496.976	5.78
497.177	5.77
497.377	5.83
497.578	5.87
497.778	5.86
497.979	5.92
498.179	5.91
498.38	5.95
498.58	5.9
498.78	5.8
498.981	5.82
499.181	5.83
499.382	5.82
499.582	5.81
499.782	5.83
499.983	5.84
500.183	5.95
500.383	5.99
500.584	5.97
500.784	6.07
500.984	6.17
501.184	6.19
501.385	6.25
501.585	6.32
501.785	6.36
501.985	6.45
502.185	6.54
502.386	6.43
502.586	6.5
502.786	6.63
502.986	6.69
503.186	6.71
503.386	6.8
503.586	6.72
503.786	6.85
503.987	6.96
504.187	6.99
504.387	7.02
504.587	7.1
504.787	7.1
504.987	7.12
505.187	7.14
505.387	7.3
505.587	7.33
505.786	7.41
505.986	7.41
506.186	7.4
506.386	7.42
506.586	7.49
506.786	7.62
506.986	7.79
507.186	7.88
507.386	7.91
507.585	7.92
507.785	8.04
507.985	8.13
508.185	8.19
508.384	8.31
508.584	8.42
508.784	8.53
508.984	8.58
509.183	8.55
509.383	8.67
509.583	8.8
509.782	8.88
509.982	8.93
510.182	9.06
510.381	9.1
510.581	9.18
510.781	9.31
510.98	9.3
511.18	9.38
511.379	9.4
511.579	9.45
511.778	9.54
511.978	9.62
512.177	9.69
512.377	9.85
512.576	9.93
512.776	10.02
512.975	10.06
513.175	10.18
513.374	10.13
513.573	10.31
513.773	10.38
513.972	10.41
514.172	10.48
514.371	10.49
514.57	10.53
514.77	10.63
514.969	10.77
515.168	10.87
515.367	11.09
515.567	11.32
515.766	11.41
515.965	11.5
516.164	11.68
516.364	11.86
516.563	11.99
516.762	12.13
516.961	12.34
517.16	12.4
517.359	12.48
517.559	12.49
517.758	12.56
517.957	12.55
518.156	12.68
518.355	12.72
518.554	12.72
518.753	12.85
518.952	12.84
519.151	12.82
519.35	12.85
519.549	12.95
519.748	13.09
519.947	13.17
520.146	13.35
520.345	13.45
520.544	13.6
520.743	13.73
520.942	13.86
521.141	14.03
521.339	14.15
521.538	14.31
521.737	14.37
521.936	14.45
522.135	14.59
522.333	14.71
522.532	14.74
522.731	14.81
522.93	14.89
523.129	14.94
523.327	15.08
523.526	15.23
523.725	15.31
523.923	15.39
524.122	15.45
524.321	15.51
524.519	15.6
524.718	15.73
524.917	15.79
525.115	15.89
525.314	15.93
525.512	15.99
525.711	16.09
525.909	16.13
526.108	16.25
526.306	16.33
526.505	16.38
526.703	16.44
526.902	16.49
527.1	16.58
527.299	16.6
527.497	16.64
527.696	16.62
527.894	16.61
528.092	16.68
528.291	16.7
528.489	16.72
528.688	16.75
528.886	16.78
529.084	16.81
529.283	16.79
529.481	16.86
529.679	16.86
529.877	16.96
530.076	17.02
530.274	17.05
530.472	17.08
530.67	17.14
530.869	17.18
531.067	17.25
531.265	17.37
531.463	17.49
531.661	17.57
531.859	17.73
532.057	17.76
532.255	17.8
532.454	17.88
532.652	17.94
532.85	17.98
533.048	18.02
533.246	18.07
533.444	18.08
533.642	18.11
533.84	18.14
534.038	18.11
534.236	18.18
534.434	18.23
534.632	18.31
534.83	18.37
535.027	18.4
535.225	18.55
535.423	18.53
535.621	18.59
535.819	18.66
536.017	18.77
536.215	18.94
536.412	18.98
536.61	19.06
536.808	19.03
537.006	19.1
537.203	19.2
537.401	19.21
537.599	19.38
537.797	19.4
537.994	19.47
538.192	19.5
538.39	19.52
538.587	19.58
538.785	19.7
538.983	19.77
539.18	19.99
539.378	20.03
539.575	20.09
539.773	20.18
539.97	20.29
540.168	20.37
540.366	20.43
540.563	20.46
540.761	20.51
540.958	20.54
541.155	20.64
541.353	20.63
541.55	20.72
541.748	20.74
541.945	20.73
542.143	20.72
542.34	20.72
542.537	20.69
542.735	20.79
542.932	20.8
543.129	20.86
543.327	20.88
543.524	20.98
543.721	21.08
543.919	21.28
544.116	21.45
544.313	21.69
544.51	21.87
544.708	22.12
544.905	22.28
545.102	22.48
545.299	22.7
545.496	22.86
545.693	22.91
545.891	22.85
546.088	22.9
546.285	22.9
546.482	22.87
546.679	22.96
546.876	22.84
547.073	22.79
547.27	22.69
547.467	22.53
547.664	22.48
547.861	22.42
548.058	22.45
548.255	22.33
548.452	22.34
548.649	22.27
548.846	22.08
549.043	22.04
549.24	22.04
549.437	22.11
549.633	22.12
549.83	22.14
550.027	22.11
550.224	22.18
550.421	22.24
550.618	22.17
550.814	22.3
551.011	22.34
551.208	22.34
551.405	22.29
551.601	22.25
551.798	22.23
551.995	22.07
552.191	22.21
552.388	22.18
552.585	22.11
552.781	22.11
552.978	22.06
553.175	21.98
553.371	22.1
553.568	22.1
553.764	22.03
553.961	22.01
554.157	22.04
554.354	21.89
554.55	21.91
554.747	22
554.943	21.95
555.14	21.94
555.336	22
555.533	21.87
555.729	21.97
555.926	22.07
556.122	22.27
556.318	22.34
556.515	22.49
556.711	22.56
556.907	22.55
557.104	22.59
557.3	22.55
557.496	22.64
557.693	22.7
557.889	22.55
558.085	22.57
558.281	22.49
558.478	22.57
558.674	22.52
558.87	22.46
559.066	22.57
559.262	22.54
559.459	22.64
559.655	22.57
559.851	22.56
560.047	22.64
560.243	22.61
560.439	22.63
560.635	22.72
560.831	22.64
561.027	22.61
561.223	22.5
561.419	22.57
561.615	22.46
561.811	22.56
562.007	22.66
562.203	22.75
562.399	22.93
562.595	22.96
562.791	22.82
562.987	22.93
563.183	23.01
563.379	23.09
563.575	23.11
563.771	23.27
563.966	23.27
564.162	23.18
564.358	23.14
564.554	23.08
564.75	23.08
564.945	23.18
565.141	23.12
565.337	23.1
565.533	22.96
565.728	22.93
565.924	22.84
566.12	22.86
566.315	22.84
566.511	22.91
566.707	22.89
566.902	22.87
567.098	22.93
567.293	23.02
567.489	22.99
567.684	23.1
567.88	23.17
568.076	23.35
568.271	23.27
568.467	23.43
568.662	23.41
568.858	23.37
569.053	23.44
569.248	23.47
569.444	23.47
569.639	23.51
569.835	23.58
570.03	23.54
570.225	23.38
570.421	23.46
570.616	23.43
570.812	23.46
571.007	23.57
571.202	23.57
571.397	23.52
571.593	23.48
571.788	23.55
571.983	23.61
572.178	23.75
572.374	23.76
572.569	23.75
572.764	23.76
572.959	23.78
573.154	23.72
573.35	23.71
573.545	23.67
573.74	23.71
573.935	23.72
574.13	23.6
574.325	23.58
574.52	23.67
574.715	23.93
574.91	23.99
575.105	24.08
575.3	24.25
575.495	24.37
575.69	24.52
575.885	24.57
576.08	24.64
576.275	24.88
576.47	25.06
576.665	25.11
576.86	24.99
577.055	25.04
577.25	25.09
577.444	25.14
577.639	25.27
577.834	25.32
578.029	25.56
578.224	25.48
578.418	25.61
578.613	25.64
578.808	25.72
579.003	25.78
579.197	25.88
579.392	26.01
579.587	26.05
579.781	26.04
579.976	26.08
580.171	25.9
580.365	26.11
580.56	25.88
580.755	25.84
580.949	25.94
581.144	25.93
581.338	25.88
581.533	25.65
581.727	25.6
581.922	25.54
582.116	25.68
582.311	25.86
582.505	25.93
582.7	26.11
582.894	26.08
583.089	26.19
583.283	26.07
583.478	26.29
583.672	26.59
583.866	26.5
584.061	26.58
584.255	26.48
584.449	26.4
584.644	26.43
584.838	26.37
585.032	26.37
585.226	26.26
585.421	26.46
585.615	26.43
585.809	26.43
586.003	26.56
586.198	26.54
586.392	26.6
586.586	26.65
586.78	26.61
586.974	26.56
587.168	26.61
587.363	26.67
587.557	26.67
587.751	26.53
587.945	26.36
588.139	26.44
588.333	26.47
588.527	26.44
588.721	26.47
588.915	26.49
589.109	26.57
589.303	26.6
589.497	26.56
589.691	26.45
589.885	26.44
590.079	26.48
590.273	26.27
590.466	26.36
590.66	26.39
590.854	26.47
591.048	26.57
591.242	26.69
591.436	26.85
591.629	26.98
591.823	27
592.017	27.16
592.211	27.31
592.404	27.59
592.598	27.53
592.792	27.59
592.986	27.55
593.179	27.49
593.373	27.28
593.567	27.04
593.76	26.92
593.954	27.06
594.147	27.01
594.341	26.92
594.535	26.78
594.728	26.77
594.922	26.62
595.115	26.44
595.309	26.39
595.502	26.41
595.696	26.34
595.889	26.38
596.083	26.21
596.276	26.21
596.47	26.11
596.663	26.06
596.856	26.11
597.05	26.09
597.243	26.16
597.437	26.12
597.63	26.22
597.823	26.31
598.017	26.31
598.21	26.41
598.403	26.48
598.596	26.57
598.79	26.71
598.983	26.68
599.176	26.65
599.369	26.78
599.563	26.75
599.756	26.77
599.949	26.91
600.142	27.04
600.335	27.13
600.528	27.07
600.722	27.2
600.915	27.12
601.108	27.16
601.301	27.3
601.494	27.24
601.687	27.33
601.88	27.31
602.073	27.19
602.266	27.12
602.459	27.11
602.652	27.07
602.845	26.96
603.038	26.9
603.231	26.72
603.424	26.87
603.617	26.72
603.809	26.8
604.002	26.73
604.195	26.61
604.388	26.5
604.581	26.43
604.774	26.4
604.966	26.36
605.159	26.41
605.352	26.53
605.545	26.32
605.737	26.47
605.93	26.45
606.123	26.64
606.316	26.94
606.508	27.05
606.701	27.12
606.894	27.25
607.086	27.43
607.279	27.47
607.471	27.53
607.664	27.76
607.857	28.02
608.049	28.21
608.242	28.38
608.434	28.44
608.627	28.97
608.819	29.58
609.012	30.23
609.204	30.8
609.397	31.7
609.589	32.59
609.782	33.56
609.974	34.36
610.166	35.31
610.359	36.2
610.551	37.37
610.743	38.13
610.936	38.77
611.128	39.29
611.32	39.72
611.513	39.87
611.705	40.05
611.897	39.76
612.09	39.58
612.282	39.29
612.474	38.74
612.666	38.08
612.858	37.53
613.051	37.03
613.243	36.61
613.435	36.18
613.627	35.83
613.819	35.21
614.011	34.86
614.203	34.47
614.395	33.93
614.588	33.73
614.78	33.36
614.972	32.81
615.164	32.44
615.356	32.07
615.548	31.59
615.74	31.25
615.932	31.07
616.124	30.78
616.315	30.47
616.507	30.3
616.699	30.09
616.891	29.96
617.083	29.96
617.275	29.79
617.467	29.59
617.659	29.5
617.85	29.3
618.042	29.23
618.234	29.12
618.426	29.13
618.618	29
618.809	28.83
619.001	28.64
619.193	28.59
619.384	28.31
619.576	28.34
619.768	28.3
619.959	28.31
620.151	28.22
620.343	28.33
620.534	28.12
620.726	28.3
620.917	28.44
621.109	28.58
621.301	28.5
621.492	28.75
621.684	28.66
621.875	28.82
622.067	28.89
622.258	29
622.45	28.96
622.641	29.18
622.832	29.12
623.024	29.14
623.215	29.02
623.407	28.96
623.598	28.91
623.789	29.07
623.981	29.09
624.172	29.01
624.363	28.95
624.555	28.82
624.746	28.62
624.937	28.57
625.129	28.42
625.32	28.44
625.511	28.52
625.702	28.74
625.893	28.69
626.085	28.87
626.276	28.79
626.467	28.74
626.658	28.86
626.849	28.92
627.04	28.87
627.231	28.95
627.422	29.01
627.614	29.15
627.805	29.01
627.996	28.99
628.187	28.73
628.378	29.01
628.569	29.08
628.76	29.13
628.951	29.24
629.142	29.45
629.332	29.61
629.523	29.69
629.714	29.78
629.905	29.97
630.096	30
630.287	30.28
630.478	30.17
630.669	30.22
630.859	30.4
631.05	30.27
631.241	30.05
631.432	29.96
631.623	29.7
631.813	29.53
632.004	29.35
632.195	29.16
632.385	28.79
632.576	28.83
632.767	28.69
632.957	28.33
633.148	28.41
633.339	28.7
633.529	28.51
633.72	28.69
633.91	28.68
634.101	28.48
634.292	28.53
634.482	28.66
634.673	28.4
634.863	28.24
635.054	28.38
635.244	28.34
635.435	28.02
635.625	27.82
635.815	27.82
636.006	27.75
636.196	27.72
636.387	27.7
636.577	27.62
636.767	27.63
636.958	27.86
637.148	27.72
637.338	27.72
637.529	27.92
637.719	28.33
637.909	28.28
638.099	28.31
638.29	28.47
638.48	28.42
638.67	28.55
638.86	28.74
639.05	28.58
639.241	28.67
639.431	28.75
639.621	28.56
639.811	28.4
640.001	28.46
640.191	28.46
640.381	28.49
640.571	28.47
640.761	28.53
640.951	28.53
641.141	28.6
641.331	28.62
641.521	28.61
641.711	28.65
641.901	28.81
642.091	28.57
642.281	28.52
642.471	28.48
642.661	28.63
642.851	28.49
643.041	28.46
643.231	28.58
643.42	28.48
643.61	28.69
643.8	28.62
643.99	28.43
644.18	28.79
644.369	28.8
644.559	28.79
644.749	28.79
644.939	28.86
645.128	28.91
645.318	28.85
645.508	28.98
645.697	28.59
645.887	28.83
646.076	28.65
646.266	28.47
646.456	28.39
646.645	28.63
646.835	28.69
647.024	28.63
647.214	28.51
647.403	28.69
647.593	28.64
647.782	28.86
647.972	28.6
648.161	29.08
648.351	29.1
648.54	29.29
648.73	29.3
648.919	29.34
649.108	29.24
649.298	29.47
649.487	29.37
649.677	29.34
649.866	29.3
650.055	29.62
650.244	29.49
650.434	29.56
650.623	29.49
650.812	29.38
651.002	29.57
651.191	29.78
651.38	29.54
651.569	29.44
651.758	29.47
651.947	29.48
652.137	29.4
652.326	29.38
652.515	29.36
652.704	29.16
652.893	29.01
653.082	28.87
653.271	28.73
653.46	28.8
653.649	28.84
653.838	29.02
654.027	29.05
654.216	28.77
654.405	28.7
654.594	28.67
654.783	28.7
654.972	28.99
655.161	29
655.35	29.05
655.539	29.24
655.728	29.21
655.916	29.04
656.105	29.1
656.294	29.1
656.483	28.94
656.672	28.94
656.86	28.98
657.049	28.89
657.238	28.67
657.427	28.51
657.615	28.24
657.804	28.23
657.993	28.17
658.181	28.07
658.37	28.19
658.559	28.25
658.747	28.25
658.936	28.26
659.125	28.3
659.313	28.33
659.502	28.46
659.69	28.41
659.879	28.45
660.067	28.59
660.256	28.47
660.444	28.51
660.633	28.42
660.821	28.27
661.01	28.44
661.198	28.4
661.387	28.71
661.575	28.72
661.763	29.1
661.952	29.28
662.14	29.43
662.328	29.54
662.517	29.59
662.705	29.8
662.893	30.13
663.082	30.15
663.27	30.16
663.458	30
663.646	30.09
663.834	29.61
664.023	29.38
664.211	29.06
664.399	28.98
664.587	28.86
664.775	28.87
664.963	28.65
665.152	28.53
665.34	28.52
665.528	28.35
665.716	28.14
665.904	28.38
666.092	28.27
666.28	28.48
666.468	28.58
666.656	28.68
666.844	28.71
667.032	28.71
667.22	28.47
667.408	28.41
667.596	28.47
667.784	28.65
667.971	28.75
668.159	28.94
668.347	28.93
668.535	29.22
668.723	29.25
668.911	29.14
669.098	29.16
669.286	29.69
669.474	29.83
669.662	29.76
669.849	29.66
670.037	29.62
670.225	29.52
670.413	29.61
670.6	29.19
670.788	29.31
670.976	29.4
671.163	29.42
671.351	29.14
671.538	29.03
671.726	29.42
671.913	29.61
672.101	29.56
672.289	29.76
672.476	29.54
672.664	29.6
672.851	29.46
673.039	29.62
673.226	29.7
673.413	29.78
673.601	29.77
673.788	29.47
673.976	29.53
674.163	29.56
674.35	29.45
674.538	29.29
674.725	29.47
674.912	29.57
675.1	29.47
675.287	29.47
675.474	29.4
675.662	29.54
675.849	29.72
676.036	29.45
676.223	29.51
676.411	29.46
676.598	29.59
676.785	29.29
676.972	29.17
677.159	29.07
677.346	29.12
677.533	29.12
677.721	29.08
677.908	29.23
678.095	29.25
678.282	29.15
678.469	29.39
678.656	29.38
678.843	29.31
679.03	29.39
679.217	29.46
679.404	29.52
679.591	29.36
679.778	29.19
679.964	28.95
680.151	29
680.338	29.14
680.525	29
680.712	29.16
680.899	29.42
681.086	29.46
681.272	29.36
681.459	29.35
681.646	29.49
681.833	29.76
682.02	29.54
682.206	29.49
682.393	29.41
682.58	29.36
682.766	29.25
682.953	29.48
683.14	29.34
683.326	29.44
683.513	29.46
683.7	29.45
683.886	29.23
684.073	29.39
684.259	29.35
684.446	29.52
684.632	29.55
684.819	29.43
685.005	29.21
685.192	29.43
685.378	29.62
685.565	29.83
685.751	30.1
685.938	30.17
686.124	30.48
686.31	30.63
686.497	30.37
686.683	30.39
686.87	30.59
687.056	30.63
687.242	30.44
687.429	30.36
687.615	30.1
687.801	30.03
687.987	30.32
688.174	30.05
688.36	30.09
688.546	30.38
688.732	30.52
688.918	30.48
689.105	30.55
689.291	30.68
689.477	30.72
689.663	30.57
689.849	30.24
690.035	29.82
690.221	29.62
690.407	29.57
690.593	29.31
690.779	29.32
690.965	29.59
691.151	29.57
691.337	29.73
691.523	29.64
691.709	29.97
691.895	30.29
692.081	30.82
692.267	30.82
692.453	30.91
692.639	31.56
692.825	31.41
693.011	31.26
693.196	31.52
693.382	31.44
693.568	31.53
693.754	31.23
693.94	30.99
694.125	30.56
694.311	30.89
694.497	30.94
694.682	30.69
694.868	30.6
695.054	30.3
695.239	29.94
695.425	29.7
695.611	30.04
695.796	30.16
695.982	30.49
696.168	30.63
696.353	30.62
696.539	30.55
696.724	30.2
696.91	30.17
697.095	30.48
697.281	30.48
697.466	30.67
697.652	30.15
697.837	29.96
698.023	29.56
698.208	29.55
698.393	29.39
698.579	29.26
698.764	29.18
698.949	29.21
699.135	29.16
699.32	29.14
699.505	29
699.691	29.02
699.876	29.19
700.061	29.48
700.246	29.27
700.432	29.72
700.617	29.65
700.802	29.82
700.987	29.96
701.172	29.56
701.358	29.56
701.543	29.9
701.728	30.14
701.913	30.18
702.098	30.33
702.283	30.75
702.468	30.67
702.653	31.08
702.838	31.45
703.023	31.69
703.208	32.26
703.393	32.55
703.578	32.41
703.763	32.5
703.948	32.73
704.133	33
704.318	33.04
704.503	33.13
704.688	33.12
704.873	32.95
705.057	32.91
705.242	32.92
705.427	32.72
705.612	32.67
705.797	33.06
705.981	33.35
706.166	33.56
706.351	33.49
706.536	33.8
706.72	34.07
706.905	34.59
707.09	34.44
707.274	34.9
707.459	35.14
707.644	35.09
707.828	34.83
708.013	34.46
708.197	34.15
708.382	34.08
708.567	33.82
708.751	33.82
708.936	33.18
709.12	33.01
709.305	32.54
709.489	32.53
709.673	32.52
709.858	32.38
710.042	32.6
710.227	32.68
710.411	32.86
710.596	32.52
710.78	32.28
710.964	32.61
711.149	33.17
711.333	33.11
711.517	32.84
711.702	32.85
711.886	32.83
712.07	32.42
712.254	32.5
712.438	32.22
712.623	32.38
712.807	32.22
712.991	31.87
713.175	31.53
713.359	31.54
713.544	31.9
713.728	32.05
713.912	31.99
714.096	31.79
714.28	31.03
714.464	31.1
714.648	30.79
714.832	30.96
715.016	30.99
715.2	30.95
715.384	30.78
715.568	30.5
715.752	30.01
715.936	30.31
716.12	30.55
716.304	30.6
716.488	30.47
716.671	30.45
716.855	30.5
717.039	30.42
717.223	30.13
717.407	30.37
717.59	30.27
717.774	30.47
717.958	30.46
718.142	30.21
718.325	30.14
718.509	30.24
718.693	30.34
718.877	30.1
719.06	30.21
719.244	30.37
719.428	30.28
719.611	30.37
719.795	30.71
719.978	30.44
720.162	30.68
720.345	30.95
720.529	30.88
720.713	31.29
720.896	31.46
721.08	31.45
721.263	31.92
721.446	31.51
721.63	31.53
721.813	31.59
721.997	31.78
722.18	31.92
722.364	31.94
722.547	31.83
722.73	31.86
722.914	31.71
723.097	31.86
723.28	31.39
723.464	31.88
723.647	31.76
723.83	31.27
724.013	31.31
724.197	31.24
724.38	31.32
724.563	31.69
724.746	31.32
724.929	31.28
725.112	31.84
725.296	32.13
725.479	32.34
725.662	32.3
725.845	32.46
726.028	32.54
726.211	32.53
726.394	32.07
726.577	32.19
726.76	32.41
726.943	32.44
727.126	31.4
727.309	31.03
727.492	30.87
727.675	30.99
727.858	30.99
728.041	30.34
728.224	30.38
728.407	30.62
728.589	30.09
728.772	29.73
728.955	29.76
729.138	29.99
729.321	30.21
729.503	30.22
729.686	30.38
729.869	30.43
730.052	30.52
730.234	30.41
730.417	30.42
730.6	30.28
730.782	30.59
730.965	30.47
731.148	30.58
731.33	30.8
731.513	30.68
731.695	30.44
731.878	30.84
732.061	31
732.243	31
732.426	31.13
732.608	31.54
732.791	31.44
732.973	31.37
733.156	31.52
733.338	31.49
733.52	31.4
733.703	31.49
733.885	31.17
734.068	30.65
734.25	30.57
734.432	30.65
734.615	30.36
734.797	29.99
734.979	30.35
735.162	30.46
735.344	30.05
735.526	30.4
735.708	30.35
735.891	30.31
736.073	30.92
736.255	31.27
736.437	31.01
736.619	30.79
736.802	31.27
736.984	31.42
737.166	31.5
737.348	31.43
737.53	31.23
737.712	31.4
737.894	31.58
738.076	31.84
738.258	31.7
738.44	32.01
738.622	32.08
738.804	31.98
738.986	32.15
739.168	31.94
739.35	32.45
739.532	32.73
739.714	32.25
739.896	31.85
740.078	31.94
740.259	32.05
740.441	31.88
740.623	31.93
740.805	31.83
740.987	31.51
741.168	31.41
741.35	31.07
741.532	30.81
741.714	31.14
741.895	31.52
742.077	31.43
742.259	31.06
742.44	31.89
742.622	32.75
742.804	33.02
742.985	33.11
743.167	32.94
743.348	33.19
743.53	33.22
743.711	33.18
743.893	33.87
744.075	33.77
744.256	34.65
744.438	34.24
744.619	33.77
744.8	33.58
744.982	32.84
745.163	33.21
745.345	33.11
745.526	32.93
745.707	33.35
745.889	32.62
746.07	32.66
746.252	32.62
746.433	32.77
746.614	33.07
746.795	33.63
746.977	34.1
747.158	34.17
747.339	33.42
747.52	33.1
747.702	32.86
747.883	32.73
748.064	32.71
748.245	32.27
748.426	31.74
748.607	31.19
748.788	30.43
748.97	30.87
749.151	30.24
749.332	31.22
749.513	31.66
749.694	31.5
749.875	31.02
750.056	31.29
750.237	30.63
750.418	30.79
750.599	30.97
750.78	31.26
750.96	31.53
751.141	31.92
751.322	31.52
751.503	30.97
751.684	31.23
751.865	32.32
752.046	31.8
752.226	32.83
752.407	32.55
752.588	33
752.769	33.37
752.949	32.57
753.13	31.98
753.311	32.9
753.492	33.67
753.672	33.45
753.853	32.87
754.034	33.76
754.214	33.3
754.395	33.56
754.575	33.27
754.756	33.03
754.937	33.79
755.117	34.47
755.298	33.24
755.478	32.86
755.659	33.41
755.839	33.27
756.02	33.03
756.2	32.83
756.381	33.39
756.561	33.46
756.741	33.14
756.922	33.2
757.102	32.69
757.283	33.73
757.463	34.12
757.643	34.24
757.823	34.31
758.004	33.31
758.184	32.92
758.364	32.32
758.545	32.16
758.725	31.96
758.905	31.18
759.085	31.17
759.265	30.67
759.446	29.91
759.626	29.58
759.806	29.15
759.986	29.96
760.166	30.32
760.346	29.67
760.526	28.9
760.706	28.87
760.886	29.06
761.066	29.09
761.246	28.89
761.426	29.36
761.606	29.31
761.786	29.63
761.966	29.45
762.146	29.06
762.326	29.45
762.506	29.45
762.686	28.78
762.866	29.05
763.046	29.07
763.225	28.9
763.405	28.92
763.585	28.79
763.765	28.81
763.945	28.67
764.124	29.02
764.304	29.23
764.484	29.65
764.664	30.02
764.843	29.71
765.023	30.18
765.203	30.47
765.382	30.35
765.562	30.57
765.741	30.34
765.921	30.1
766.101	29.83
766.28	30.11
766.46	30.57
766.639	31.04
766.819	30.9
766.998	30.73
767.178	30.4
767.357	31.01
767.537	30.17
767.716	30.94
767.896	31.55
768.075	31.7
768.254	31.76
768.434	31.15
768.613	31.88
768.792	32.22
768.972	32.05
769.151	32.57
769.33	32.42
769.51	33.7
769.689	33.5
769.868	33.47
770.047	33.67
770.226	33.71
770.406	34.21
770.585	32.79
770.764	33.17
770.943	34.03
771.122	34.71
771.301	34.7
771.48	34.44
771.66	35.06
771.839	35.05
772.018	35.27
772.197	34.92
772.376	35.27
772.555	36.61
772.734	36.79
772.913	36.1
773.092	35.19
773.271	34.24
773.449	34.2
773.628	33.19
773.807	33.48
773.986	33.79
774.165	33.99
774.344	33.98
774.523	33.41
774.701	33.18
774.88	33.11
775.059	33.9
775.238	35.06
775.417	34.82
775.595	35.53
775.774	35.75
775.953	35.22
776.131	34.46
776.31	33.72
776.489	34.15
776.667	33.44
776.846	34.16
777.025	34.01
777.203	33.97
777.382	34.14
777.56	33.59
777.739	32.81
777.917	33.4
778.096	33.64
778.274	34.56
778.453	35.17
778.631	34.69
778.81	34.43
778.988	33.56
779.166	33.3
779.345	33.7
779.523	34.2
779.702	34.97
779.88	34.25
780.058	33.97
780.237	33.32
780.415	32.72
780.593	33.23
780.771	33
780.95	32.99
781.128	33.29
781.306	33.59
781.484	32.54
781.662	32.12
781.841	32.29
782.019	32.75
782.197	32.92
782.375	32.64
782.553	32.81
782.731	32.96
782.909	33.76
783.087	33.92
783.265	33.43
783.443	34.62
783.621	35.02
783.799	34.61
783.977	35.32
784.155	35.21
784.333	35.95
784.511	35.55
784.689	36.18
784.867	36.36
785.045	35.73
785.223	36.08
785.4	36.52
785.578	36
785.756	37.6
785.934	37.06
786.112	37.76
786.289	36.77
786.467	37.51
786.645	36.82
786.823	37.12
787	37.07
787.178	36.52
787.356	35.5
787.533	35.68
787.711	34.25
787.889	33.44
788.066	32.02
788.244	32.67
788.421	32.43
788.599	31.73
788.776	31.05
788.954	31.47
789.131	31.15
789.309	31.46
789.486	32.07
789.664	33.04
789.841	33.76
790.019	34.31
790.196	33.75
790.373	34.25
790.551	33.83
790.728	33.65
790.906	32.44
791.083	32.84
791.26	33.05
791.437	32.18
791.615	32.34
791.792	32.39
791.969	33.14
792.146	33.46
792.324	32.89
792.501	34.24
792.678	34.91
792.855	35.21
793.032	35.54
793.209	35.81
793.387	35.69
793.564	35.93
793.741	35.96
793.918	35.42
794.095	34.57
794.272	34.81
794.449	35.2
794.626	34.76
794.803	34.83
794.98	34.69
795.157	33.51
795.334	33.97
795.511	32.28
795.688	32.25
795.864	32.71
796.041	33.42
796.218	32.64
796.395	31.46
796.572	30.66
796.749	31.47
796.925	30.58
797.102	31.06
797.279	30.97
797.456	32.08
797.632	32.34
797.809	31.34
797.986	30.95
798.162	32.11
798.339	32.51
798.516	32.94
798.692	33.1
798.869	33.04
799.046	33.88
799.222	33.92
799.399	33.8
799.575	33.27
799.752	33.54
799.928	33.65
800.105	33.03
800.281	34.22
800.458	35.4
800.634	35.27
800.811	35.89
800.987	34.14
801.163	33.32
801.34	33.4
801.516	32.11
801.692	33.49
801.869	34.28
802.045	34.92
802.221	33.38
802.398	31.64
802.574	31.5
802.75	31.27
802.926	32.58
803.103	32.83
803.279	33.03
803.455	35.12
803.631	33.84
803.807	33.75
803.983	33.32
804.16	34
804.336	34.62
804.512	34.39
804.688	34.88
804.864	34.47
805.04	35.46
805.216	35.57
805.392	35.46
805.568	35.98
805.744	34.44
805.92	34.21
806.096	34.59
806.272	35.15
806.448	34.41
806.623	33.38
806.799	34.01
806.975	31.57
807.151	31.88
807.327	30.66
807.503	29.62
807.678	30.64
807.854	32
808.03	32.03
808.206	32.13
808.381	32.52
808.557	33.29
808.733	32.04
808.908	32.49
809.084	31.72
809.26	32.72
809.435	32.8
809.611	33.48
809.787	32.17
809.962	31.55
810.138	31.41
810.313	31.07
810.489	31.52
810.664	33.36
810.84	33.71
811.015	34.67
811.191	33.84
811.366	34.74
811.542	33.94
811.717	34.6
811.892	34.52
812.068	36.37
812.243	37.44
812.419	37.65
812.594	37.89
812.769	38.46
812.944	37.67
813.12	37.36
813.295	37.81
813.47	37.54
813.645	37.32
813.821	37.91
813.996	35.26
814.171	34.21
814.346	33.24
814.521	31.97
814.697	31.5
814.872	31.38
815.047	31.67
815.222	30.77
815.397	30.34
815.572	30.26
815.747	29.28
815.922	30.21
816.097	30.2
816.272	30.99
816.447	30.92
816.622	31.51
816.797	32.66
816.972	33.17
817.147	32.27
817.322	34.7
817.496	35.03
817.671	35.28
817.846	35.21
818.021	35.22
818.196	33.5
818.371	32.38
818.545	33.27
818.72	30.91
818.895	30.96
819.069	31.98
819.244	30.45
819.419	31.16
819.594	31.31
819.768	30.35
819.943	30.76
820.117	31.13
820.292	31.67
820.467	30.35
820.641	30.92
820.816	30.84
820.99	30.06
821.165	29.37
821.339	28.29
821.514	27.77
821.688	27.92
821.863	27.66
822.037	27.57
822.212	27.07
822.386	26.92
822.56	26.68
822.735	26.45
822.909	26.19
823.084	26.19
823.258	26.57
823.432	26.74
823.606	26.63
823.781	26.41
823.955	26.26
824.129	26.31
824.303	26.57
824.478	26.54
824.652	26.43
824.826	26.86
825	27.23
825.174	26.71
825.348	26.73
825.523	26.5
825.697	26.58
825.871	26.84
826.045	27.36
826.219	27
826.393	27.21
826.567	27.48
826.741	27.6
826.915	26.94
827.089	27.07
827.263	27.04
827.437	27.29
827.611	27.38
827.784	27.08
827.958	26.66
828.132	27.04
828.306	27.2
828.48	26.5
828.654	26.14
828.827	25.99
829.001	25.28
829.175	25.15
829.349	24.98
829.522	25.55
829.696	26.29
829.87	27.43
830.044	27.32
830.217	27.76
830.391	28.45
830.565	27.97
830.738	29.49
830.912	30.05
831.085	30.1
831.259	30.27
831.432	29.91
831.606	29.37
831.779	29.06
831.953	29.24
832.126	28.94
832.3	30.33
832.473	31.04
832.647	30.83
832.82	31.14
832.994	30.47
833.167	29.66
833.34	29.34
833.514	28.93
833.687	28.11
833.86	28.37
834.034	27.92
834.207	27.53
834.38	27.22
834.553	26.68
834.727	26.28
834.9	26.9
835.073	27.34
835.246	27.77
835.419	27.89
835.593	28.81
835.766	28.75
835.939	28.88
836.112	29.42
836.285	29.51
836.458	30.58
836.631	31.45
836.804	31.33
836.977	32.35
837.15	32.13
837.323	34.44
837.496	33.59
837.669	32.54
837.842	31.88
838.015	31.33
838.188	33.28
838.361	33.49
838.533	33.58
838.706	34.62
838.879	35.33
839.052	34.78
839.225	33.29
839.398	33.42
839.57	35.64
839.743	36.85
839.916	37.43
840.088	38.43
840.261	38.84
840.434	39.71
840.607	39.55
840.779	39.03
840.952	40.84
841.124	40.31
841.297	41.58
841.47	39.87
841.642	41.61
841.815	42.86
841.987	41.79
842.16	40.34
842.332	40.58
842.505	40.61
842.677	42.04
842.85	41.86
843.022	40.89
843.194	38.66
843.367	39.77
843.539	40.08
843.712	35.78
843.884	35.1
844.056	37.35
844.229	36.67
844.401	35.32
844.573	32.91
844.745	32.41
844.918	33.7
845.09	36.13
845.262	38.17
845.434	36.15
845.606	40.78
845.779	41.87
845.951	41.86
846.123	42.58
846.295	42.85
846.467	42.78
846.639	39.42
846.811	44.81
846.983	42.82
847.155	45.28
847.327	45.57
847.499	42.26
847.671	40.91
847.843	37.74
848.015	36.55
848.187	40.29
848.359	39
848.531	42.47
848.703	39.58
848.875	40.28
849.047	35.73
849.218	34.72
849.39	39.81
849.562	39.97
849.734	42.89
849.905	43.87
850.077	44.53
850.249	46.59
850.421	43.27
850.592	41.18
850.764	45.27
850.936	46.7
851.107	46.75
851.279	43.36
851.451	41.14
851.622	41.7
851.794	40.65
851.965	39.8
852.137	38.66
852.308	39.23
852.48	40.89
852.651	40.08
852.823	36.89
852.994	36.07
853.166	34.31
853.337	38.93
853.509	41.5
853.68	40.03
853.851	39.82
854.023	40.93
854.194	42.34
854.365	44.19
854.537	44.05
854.708	48.21
854.879	53.1
855.05	52.12
855.222	48.51
855.393	44.34
855.564	48.61
855.735	47.29
855.906	46.75
856.078	49.32
856.249	46.35
856.42	42.98
856.591	42.72
856.762	43.09
856.933	44.11
857.104	45.97
857.275	47.57
857.446	43.23
857.617	39.98
857.788	43.52
857.959	41.14
858.13	41.38
858.301	44.06
858.472	42.4
858.643	36.36
858.814	38.86
858.985	35.99
859.155	31.21
859.326	39.32
859.497	38.8
859.668	32.18
859.839	35.14
860.009	37.68
860.18	35.89
860.351	31.75
860.522	33.97
860.692	35.35
860.863	36.41
861.034	39.2
861.204	32.52
861.375	35.91
861.546	38.15
861.716	33.29
861.887	31.33
862.057	38.02
862.228	39.89
862.398	40.74
862.569	37.3
862.739	38.54
862.91	39.97
863.08	38.86
863.251	36.77
863.421	42.31
863.592	42.03
863.762	41.01
863.932	36.61
864.103	37.78
864.273	36.63
864.443	38.17
864.614	38.52
864.784	42.66
864.954	43.28
865.125	43
865.295	39.62
865.465	43.12
865.635	45.9
865.805	47.78
865.976	50.74
866.146	50.44
866.316	45.29
866.486	46.87
866.656	47.76
866.826	47.2
866.996	51.03
867.166	52.5
867.336	53.73
867.506	53.87
867.676	49.56
867.846	45.66
868.016	44.96
868.186	45.13
868.356	45.62
868.526	40.02
868.696	44.76
868.866	45.59
869.036	45.08
869.206	43.44
869.376	39.52
869.545	42.42
869.715	47.74
869.885	45.22
870.055	52.43
870.224	53.79
870.394	58.58
870.564	57.42
870.734	59.53
870.903	58.36
871.073	56.99
871.243	58.84
871.412	58.82
871.582	54.98
871.751	59.85
871.921	56.26
872.091	51.48
872.26	49.12
872.43	47.45
872.599	39.83
872.769	39.78
872.938	37.32
873.108	36.99
873.277	34.52
873.446	36.42
873.616	34.95
873.785	37.19
873.955	35.31
874.124	32.18
874.293	34.6
874.463	40.78
874.632	41.85
874.801	43.34
874.971	42.99
875.14	44.5
875.309	42.93
875.478	42.21
875.647	42.24
875.817	43.13
875.986	42.87
876.155	41.66
876.324	36.39
876.493	32.19
876.662	34.14
876.831	32.45
877	30.33
877.17	30.26
877.339	31.29
877.508	32.64
877.677	34.35
877.846	36.57
878.015	33.31
878.184	34.65
878.352	35.35
878.521	32.75
878.69	34.1
878.859	35.48
879.028	32.39
879.197	32.32
879.366	25.21
879.534	26.84
879.703	25.65
879.872	27.11
880.041	29.56
880.21	29.7
880.378	27.66
880.547	26.48
880.716	25.35
880.884	26.45
881.053	26.45
881.222	27.67
881.39	26.56
881.559	26.22
881.727	25.93
881.896	24.84
882.065	24.44
882.233	25.41
882.402	25.55
882.57	25.67
882.739	25.64
882.907	25.36
883.076	24.93
883.244	25.18
883.412	25.14
883.581	26.14
883.749	26.55
883.918	26.39
884.086	26.04
884.254	26.83
884.423	27.88
884.591	27.92
884.759	28.4
884.927	28.49
885.096	28.05
885.264	29.04
885.432	28.63
885.6	28.11
885.769	29.37
885.937	30.56
886.105	29.16
886.273	28.61
886.441	28.16
886.609	27.63
886.777	30.19
886.945	30.81
887.113	28.87
887.281	27.31
887.449	31.32
887.617	32.45
887.785	33.3
887.953	35.69
888.121	35.88
888.289	36.88
888.457	40.28
888.625	35.86
888.793	37.76
888.961	40.38
889.129	44.12
889.296	43.36
889.464	44.59
889.632	43.72
889.8	43.45
889.967	45.66
890.135	48.77
