Data from 2938780__Reflection_02.txt Node
Date: Fri Mar 13 13:01:17 EDT 2015
User: robert
Spectrometer: USB4E03002
Autoset integration time: false
Trigger mode: 4
Integration Time (sec): 1.000000E-1
Scans to average: 10
Electric dark correction enabled: false
Nonlinearity correction enabled: false
Boxcar width: 5
Stray light correction enabled: false
XAxis mode: Wavelengths
Stop averaging: false
Number of Pixels in Spectrum: 3648
>>>>>Begin Spectral Data<<<<<
177.575	115.36
177.794	107.04
178.014	98.79
178.233	102.1
178.452	104.93
178.672	99.74
178.891	96.06
179.11	86.45
179.33	87.66
179.549	85.34
179.768	87.32
179.987	85.82
180.207	89.04
180.426	86.13
180.645	87.99
180.864	86.67
181.084	83.81
181.303	84.66
181.522	91.99
181.741	86.82
181.96	88.78
182.179	85.17
182.398	81.85
182.618	79.33
182.837	83.11
183.056	77.1
183.275	77.94
183.494	81.34
183.713	80.52
183.932	81.27
184.151	84.66
184.37	85.28
184.589	89.02
184.808	93.94
185.027	94.08
185.246	95.34
185.465	98.83
185.684	98.38
185.903	98.35
186.122	99.03
186.341	94.14
186.56	89.9
186.779	87.15
186.998	86.27
187.216	84.63
187.435	85.5
187.654	82.24
187.873	81.26
188.092	79.41
188.311	74.88
188.53	76.81
188.748	76
188.967	79.13
189.186	80.33
189.405	83.06
189.623	82.26
189.842	82.63
190.061	86.02
190.28	90.86
190.498	92.88
190.717	99.45
190.936	96.06
191.154	98.6
191.373	98.26
191.592	97.7
191.81	94.19
192.029	94.25
192.248	96.34
192.466	96.23
192.685	91.81
192.904	91.94
193.122	86.77
193.341	85.68
193.559	86.52
193.778	88.01
193.996	88.89
194.215	85.45
194.433	87.45
194.652	87.37
194.87	85.89
195.089	84.46
195.307	81.84
195.526	88.08
195.744	92.31
195.963	94.75
196.181	93.44
196.399	90.75
196.618	92.96
196.836	92.3
197.055	91.61
197.273	94.28
197.491	97.9
197.71	103.28
197.928	100.79
198.146	97.02
198.365	98.08
198.583	96.96
198.801	99.05
199.019	98.82
199.238	96.52
199.456	98.39
199.674	94.58
199.892	90.63
200.111	86.72
200.329	86.35
200.547	86.73
200.765	83.26
200.983	81.7
201.202	82.87
201.42	88.86
201.638	92.79
201.856	87.87
202.074	89.51
202.292	88.35
202.51	89.53
202.728	92.99
202.946	93.89
203.165	95.78
203.383	96.57
203.601	94.9
203.819	87.21
204.037	84.66
204.255	86.84
204.473	87.68
204.691	92.02
204.909	98.22
205.127	95.22
205.345	95.86
205.562	92.67
205.78	92.84
205.998	95.04
206.216	102.85
206.434	104.01
206.652	110.21
206.87	108.55
207.088	104.62
207.306	100.53
207.523	99.55
207.741	98.92
207.959	98.57
208.177	98.96
208.395	99.66
208.612	97.5
208.83	95.28
209.048	89.29
209.266	90.56
209.483	90.61
209.701	90.52
209.919	88.28
210.136	89.17
210.354	87.11
210.572	88.74
210.79	83.55
211.007	80.88
211.225	80.77
211.442	79.84
211.66	79.67
211.878	82.26
212.095	83.08
212.313	84.75
212.53	82.45
212.748	81.91
212.966	80.28
213.183	80.62
213.401	80.45
213.618	81.24
213.836	81.38
214.053	80.05
214.271	76.61
214.488	73.3
214.705	72.09
214.923	72.55
215.14	72.99
215.358	70.63
215.575	70.44
215.793	70.08
216.01	68.13
216.227	68.89
216.445	68.16
216.662	70.59
216.879	74.4
217.097	73.31
217.314	72.73
217.531	71.53
217.749	71.99
217.966	75.19
218.183	77.77
218.4	77.47
218.618	78.71
218.835	74.67
219.052	71.27
219.269	67.73
219.487	68.4
219.704	70.11
219.921	70.63
220.138	71.6
220.355	67.91
220.572	65.35
220.79	62.9
221.007	62.51
221.224	63.92
221.441	63.53
221.658	63.08
221.875	63.07
222.092	58.3
222.309	56.17
222.526	52.81
222.743	52.46
222.96	48.94
223.177	51.34
223.394	48.58
223.611	50.19
223.828	52.43
224.045	51.94
224.262	48.55
224.479	50.51
224.696	52.75
224.913	52.58
225.13	52.72
225.347	53.53
225.564	51.93
225.781	49.49
225.997	47.46
226.214	44.23
226.431	40.28
226.648	40.36
226.865	38.22
227.082	33.87
227.298	31.12
227.515	26.67
227.732	25.13
227.949	23.33
228.165	22.24
228.382	20.9
228.599	20.13
228.816	19.99
229.032	18.55
229.249	17.73
229.466	17.41
229.682	18.18
229.899	19.31
230.116	18.87
230.332	19.71
230.549	20.06
230.765	20.47
230.982	21.19
231.199	21.78
231.415	23.2
231.632	24.94
231.848	26.49
232.065	25.97
232.281	27.15
232.498	27.67
232.714	25.63
232.931	26.51
233.147	26.84
233.364	26.27
233.58	26.43
233.797	25.23
234.013	23.6
234.23	22.52
234.446	23.05
234.662	22.49
234.879	22.3
235.095	23.27
235.312	22.3
235.528	23.19
235.744	23.25
235.961	22.77
236.177	23.55
236.393	24.44
236.61	25.72
236.826	25.03
237.042	24.56
237.258	25.34
237.475	26.55
237.691	26.73
237.907	25.85
238.123	25.31
238.339	26.57
238.556	27.25
238.772	27
238.988	26.6
239.204	26.29
239.42	26.38
239.636	25.48
239.853	23.4
240.069	22.39
240.285	21.37
240.501	20.48
240.717	19.09
240.933	17.89
241.149	16.59
241.365	15.28
241.581	14.69
241.797	13.88
242.013	13.51
242.229	13.43
242.445	13.43
242.661	13.69
242.877	13.78
243.093	13.71
243.309	13.79
243.525	13.92
243.741	14.01
243.957	14.36
244.173	15.39
244.388	15.26
244.604	15.29
244.82	15.37
245.036	14.88
245.252	14.4
245.468	13.54
245.683	13.1
245.899	12.4
246.115	11.8
246.331	11.14
246.547	10.33
246.762	10.12
246.978	10.03
247.194	9.78
247.409	9.66
247.625	9.69
247.841	9.64
248.057	9.63
248.272	9.61
248.488	9.72
248.703	9.92
248.919	10.41
249.135	10.67
249.35	11
249.566	11.62
249.782	11.91
249.997	11.88
250.213	12.3
250.428	12.69
250.644	13.93
250.859	14.33
251.075	14.39
251.29	14.43
251.506	14.6
251.721	14.39
251.937	13.91
252.152	13.85
252.368	13.93
252.583	13.56
252.798	13.52
253.014	13.55
253.229	13.89
253.445	14.4
253.66	13.91
253.875	14.4
254.091	15.04
254.306	15.15
254.521	16.28
254.737	17.47
254.952	18.19
255.167	18.57
255.383	17.53
255.598	16.88
255.813	16.29
256.028	16.46
256.244	15.64
256.459	15.2
256.674	15.05
256.889	13.51
257.104	12.82
257.32	12.73
257.535	11.33
257.75	11.36
257.965	11.87
258.18	11.41
258.395	10.52
258.61	9.93
258.826	9.44
259.041	9.41
259.256	9.23
259.471	8.72
259.686	8.44
259.901	8.39
260.116	7.98
260.331	7.52
260.546	7.72
260.761	8.03
260.976	8.14
261.191	7.75
261.406	7.38
261.621	7.77
261.836	7.99
262.05	8.34
262.265	8.83
262.48	9.49
262.695	10.1
262.91	10.28
263.125	10.55
263.34	11
263.555	12.26
263.769	12.86
263.984	12.63
264.199	12.36
264.414	12.16
264.629	12.49
264.843	12.83
265.058	13.06
265.273	12.3
265.488	12.11
265.702	11.89
265.917	11.44
266.132	11.43
266.346	11.13
266.561	11.28
266.776	11.15
266.99	10.85
267.205	10.38
267.42	9.95
267.634	9.83
267.849	9.58
268.063	9.99
268.278	9.78
268.492	9.61
268.707	9.6
268.922	9.41
269.136	9.7
269.351	9.12
269.565	9.29
269.78	8.88
269.994	8.69
270.209	8.97
270.423	8.17
270.637	8.14
270.852	8.26
271.066	8.21
271.281	8.44
271.495	8.2
271.709	8.29
271.924	7.91
272.138	8.18
272.353	8.45
272.567	8.56
272.781	8.9
272.996	9.02
273.21	8.89
273.424	8.95
273.638	8.74
273.853	8.81
274.067	8.87
274.281	9.43
274.495	9.65
274.71	10.06
274.924	9.74
275.138	9.66
275.352	9.48
275.566	9.65
275.781	9.41
275.995	10.07
276.209	10.03
276.423	10.28
276.637	10.21
276.851	10.31
277.065	9.81
277.279	10.11
277.493	9.83
277.707	10.05
277.921	10.01
278.135	10.59
278.349	9.93
278.563	10.21
278.777	10.09
278.991	9.71
279.205	9.78
279.419	9.81
279.633	9.22
279.847	9.67
280.061	9.83
280.275	9
280.489	8.83
280.703	9.07
280.917	8.79
281.131	8.6
281.344	8.58
281.558	8.25
281.772	8.56
281.986	8.86
282.2	8.77
282.414	9.04
282.627	9.34
282.841	9.41
283.055	9.26
283.269	9.03
283.482	9.02
283.696	8.8
283.91	8.67
284.123	7.99
284.337	7.63
284.551	7.45
284.764	7.01
284.978	6.97
285.192	6.72
285.405	6.89
285.619	6.86
285.833	7.16
286.046	7.08
286.26	7.11
286.473	7.56
286.687	7.74
286.9	7.8
287.114	7.64
287.327	7.74
287.541	7.81
287.754	7.85
287.968	8.1
288.181	7.96
288.395	8.08
288.608	8.15
288.822	8.02
289.035	7.96
289.248	7.63
289.462	7.61
289.675	7.61
289.889	7.5
290.102	7.12
290.315	7.02
290.529	6.82
290.742	7.01
290.955	6.98
291.169	7.07
291.382	7.22
291.595	7.37
291.808	7.79
292.022	8.2
292.235	8.52
292.448	8.75
292.661	8.73
292.875	8.89
293.088	8.95
293.301	8.76
293.514	8.7
293.727	8.67
293.94	8.82
294.153	8.42
294.367	7.84
294.58	7.61
294.793	7.51
295.006	7.4
295.219	7.15
295.432	7.08
295.645	7.22
295.858	7.01
296.071	6.76
296.284	6.62
296.497	6.7
296.71	6.76
296.923	6.95
297.136	6.92
297.349	6.85
297.562	7.08
297.775	6.95
297.988	6.97
298.201	7.09
298.414	7.01
298.626	7.11
298.839	6.9
299.052	7.09
299.265	7.18
299.478	7.1
299.691	7.61
299.903	7.75
300.116	8.19
300.329	8.07
300.542	7.91
300.755	8.22
300.967	8.37
301.18	8.75
301.393	8.67
301.605	8.41
301.818	8.49
302.031	8.22
302.243	8.18
302.456	7.96
302.669	8.26
302.881	8.49
303.094	8.64
303.307	8.55
303.519	8.67
303.732	8.84
303.944	8.85
304.157	8.84
304.37	8.69
304.582	8.79
304.795	8.67
305.007	8.79
305.22	9.03
305.432	8.94
305.645	8.86
305.857	8.63
306.069	8.7
306.282	8.62
306.494	8.71
306.707	8.89
306.919	8.73
307.132	8.53
307.344	8.17
307.556	7.89
307.769	7.94
307.981	8.07
308.193	7.94
308.406	7.82
308.618	7.85
308.83	7.79
309.043	7.71
309.255	7.38
309.467	7.88
309.679	7.86
309.892	7.92
310.104	7.93
310.316	7.84
310.528	7.81
310.74	7.97
310.953	7.74
311.165	7.76
311.377	8.01
311.589	8.5
311.801	8.3
312.013	8.3
312.225	8.34
312.437	8.09
312.649	8.19
312.862	8.34
313.074	8.16
313.286	8.57
313.498	8.89
313.71	8.83
313.922	8.76
314.134	8.69
314.346	9.04
314.558	9.18
314.77	9.8
314.982	9.94
315.193	10.42
315.405	10.78
315.617	10.87
315.829	10.71
316.041	10.92
316.253	10.52
316.465	10.89
316.677	10.52
316.888	10.38
317.1	10.25
317.312	10.46
317.524	10.32
317.736	10.33
317.947	10.57
318.159	10.99
318.371	10.85
318.583	11.23
318.794	11.45
319.006	11.76
319.218	11.93
319.43	11.82
319.641	11.82
319.853	12.05
320.064	12.03
320.276	11.65
320.488	11.66
320.699	11.66
320.911	11.82
321.123	11.71
321.334	11.53
321.546	11.68
321.757	12.02
321.969	11.99
322.18	11.83
322.392	11.68
322.603	12.43
322.815	12.01
323.026	12.3
323.238	12.25
323.449	11.74
323.661	12.07
323.872	12
324.083	11.57
324.295	11.4
324.506	11.18
324.718	11
324.929	10.66
325.14	11.09
325.352	11.08
325.563	11.3
325.774	11.81
325.986	12.03
326.197	12.39
326.408	12.8
326.62	13.04
326.831	13.5
327.042	14.05
327.253	14.57
327.464	14.55
327.676	14.34
327.887	14.32
328.098	14.56
328.309	14.47
328.52	14.38
328.732	14.52
328.943	14.95
329.154	14.97
329.365	15.1
329.576	14.81
329.787	15.04
329.998	15.64
330.209	15.92
330.42	15.97
330.631	16.07
330.842	16.26
331.053	16.49
331.264	16.17
331.475	16.31
331.686	16.48
331.897	16.57
332.108	16.74
332.319	16.83
332.53	16.83
332.741	16.77
332.952	16.79
333.163	16.57
333.374	16.53
333.585	16.71
333.795	16.73
334.006	16.26
334.217	16.27
334.428	16.04
334.639	15.72
334.849	15.45
335.06	15.51
335.271	15.67
335.482	16.1
335.692	15.93
335.903	16.18
336.114	15.97
336.325	16.2
336.535	15.98
336.746	16.22
336.957	16.52
337.167	17.09
337.378	17.51
337.589	17.45
337.799	16.92
338.01	17.22
338.22	16.69
338.431	16.9
338.642	16.84
338.852	17.13
339.063	17.17
339.273	17.11
339.484	16.62
339.694	16.07
339.905	16.21
340.115	16.65
340.326	16.18
340.536	16.41
340.746	16.47
340.957	16.83
341.167	16.9
341.378	16.71
341.588	16.37
341.799	16.43
342.009	16.49
342.219	16.01
342.43	16.13
342.64	16.55
342.85	16.58
343.061	16.27
343.271	16.07
343.481	15.94
343.691	15.74
343.902	15.91
344.112	16.07
344.322	15.9
344.532	16.36
344.743	15.8
344.953	15.47
345.163	15.38
345.373	15.11
345.583	15.1
345.793	15.24
346.004	15.23
346.214	15.25
346.424	15.11
346.634	15.33
346.844	15.18
347.054	15.61
347.264	15.74
347.474	15.61
347.684	15.94
347.894	15.85
348.104	15.53
348.314	15.51
348.524	15.55
348.734	15.81
348.944	15.9
349.154	15.98
349.364	15.73
349.574	15.57
349.784	15.77
349.994	15.76
350.204	15.72
350.413	15.72
350.623	15.71
350.833	15.63
351.043	15.48
351.253	15.33
351.463	14.99
351.672	15.14
351.882	15.21
352.092	15.11
352.302	14.89
352.511	15.03
352.721	15.09
352.931	15.35
353.141	15.28
353.35	15.09
353.56	15.06
353.77	15.18
353.979	15.04
354.189	14.93
354.399	14.76
354.608	15.07
354.818	14.79
355.027	14.72
355.237	14.36
355.447	14.58
355.656	14.64
355.866	14.53
356.075	14.67
356.285	14.83
356.494	15.08
356.704	15.08
356.913	14.91
357.123	14.84
357.332	14.76
357.542	14.81
357.751	14.47
357.96	14.35
358.17	14.24
358.379	14.21
358.589	14.01
358.798	13.81
359.007	13.94
359.217	14.03
359.426	13.9
359.635	13.72
359.845	13.71
360.054	13.65
360.263	13.64
360.472	13.72
360.682	13.49
360.891	13.45
361.1	13.56
361.309	13.41
361.519	13.39
361.728	13.4
361.937	13.68
362.146	13.73
362.355	13.82
362.564	13.91
362.774	13.81
362.983	13.72
363.192	13.71
363.401	13.6
363.61	13.63
363.819	13.64
364.028	13.96
364.237	14.01
364.446	13.9
364.655	13.87
364.864	13.68
365.073	13.71
365.282	13.98
365.491	14
365.7	13.74
365.909	13.66
366.118	13.69
366.327	13.6
366.536	13.49
366.745	13.49
366.954	13.55
367.162	13.69
367.371	13.75
367.58	13.83
367.789	13.76
367.998	13.9
368.207	14.04
368.415	13.81
368.624	13.83
368.833	13.74
369.042	13.92
369.25	13.98
369.459	14.07
369.668	14.05
369.877	14
370.085	13.95
370.294	14
370.503	13.91
370.711	14.03
370.92	13.94
371.129	14.06
371.337	13.81
371.546	13.79
371.754	13.81
371.963	13.59
372.171	13.31
372.38	13.62
372.589	13.55
372.797	13.53
373.006	13.61
373.214	13.47
373.423	13.35
373.631	13.5
373.84	13.29
374.048	13.04
374.256	13.39
374.465	13.63
374.673	13.37
374.882	13.66
375.09	13.86
375.298	13.75
375.507	13.94
375.715	13.8
375.923	13.68
376.132	13.72
376.34	13.67
376.548	13.44
376.757	13.41
376.965	13.46
377.173	13.31
377.381	12.99
377.59	13.06
377.798	13.06
378.006	13.15
378.214	13.12
378.423	13.23
378.631	13.37
378.839	13.37
379.047	13.24
379.255	13.14
379.463	13.32
379.671	13.53
379.879	13.34
380.088	13.27
380.296	13.06
380.504	13.13
380.712	12.93
380.92	12.91
381.128	13.02
381.336	12.95
381.544	12.8
381.752	12.58
381.96	12.54
382.168	12.54
382.376	12.62
382.584	12.77
382.791	12.74
382.999	12.68
383.207	12.57
383.415	12.56
383.623	12.62
383.831	12.82
384.039	12.73
384.247	12.78
384.454	12.9
384.662	12.72
384.87	12.71
385.078	12.61
385.285	12.8
385.493	12.71
385.701	12.58
385.909	12.48
386.116	12.42
386.324	12.42
386.532	12.38
386.739	12.22
386.947	12.29
387.155	12.29
387.362	12.52
387.57	12.43
387.778	12.45
387.985	12.43
388.193	12.55
388.4	12.57
388.608	12.69
388.816	12.63
389.023	12.76
389.231	12.67
389.438	12.58
389.646	12.41
389.853	12.29
390.061	12.23
390.268	12.25
390.475	12.07
390.683	11.96
390.89	11.76
391.098	11.72
391.305	11.62
391.512	11.47
391.72	11.5
391.927	11.35
392.135	11.46
392.342	11.59
392.549	11.51
392.756	11.6
392.964	11.6
393.171	11.71
393.378	11.77
393.586	11.7
393.793	11.67
394	11.58
394.207	11.81
394.414	11.8
394.622	11.76
394.829	11.79
395.036	11.74
395.243	11.75
395.45	11.65
395.657	11.6
395.864	11.61
396.072	11.68
396.279	11.75
396.486	11.67
396.693	11.56
396.9	11.61
397.107	11.65
397.314	11.81
397.521	11.7
397.728	11.59
397.935	11.6
398.142	11.59
398.349	11.82
398.556	11.77
398.763	11.69
398.97	11.58
399.177	11.45
399.383	11.42
399.59	11.44
399.797	11.47
400.004	11.4
400.211	11.45
400.418	11.53
400.625	11.36
400.831	11.48
401.038	11.54
401.245	11.67
401.452	11.77
401.658	11.79
401.865	11.73
402.072	11.79
402.279	12.07
402.485	11.86
402.692	11.65
402.899	11.58
403.105	11.59
403.312	11.54
403.519	11.43
403.725	11.43
403.932	11.29
404.138	11.01
404.345	11.04
404.552	10.77
404.758	10.81
404.965	10.68
405.171	10.74
405.378	10.67
405.584	10.63
405.791	10.74
405.997	10.57
406.204	10.75
406.41	10.86
406.617	10.8
406.823	11.04
407.029	10.89
407.236	11.22
407.442	11.27
407.649	11.36
407.855	11.48
408.061	11.42
408.268	11.57
408.474	11.53
408.68	11.62
408.887	11.73
409.093	11.63
409.299	11.88
409.505	11.73
409.712	11.64
409.918	11.47
410.124	11.38
410.33	11.47
410.537	11.3
410.743	11.24
410.949	11.32
411.155	11.26
411.361	11.19
411.567	11.15
411.773	11.16
411.98	11.07
412.186	11.08
412.392	11.14
412.598	11.13
412.804	11.06
413.01	11.01
413.216	10.94
413.422	10.89
413.628	10.87
413.834	10.82
414.04	10.88
414.246	10.92
414.452	10.81
414.658	10.68
414.864	10.48
415.07	10.73
415.275	10.56
415.481	10.66
415.687	10.53
415.893	10.53
416.099	10.5
416.305	10.38
416.511	10.43
416.716	10.36
416.922	10.32
417.128	10.26
417.334	10.07
417.539	10.18
417.745	9.9
417.951	9.85
418.157	9.88
418.362	9.84
418.568	9.84
418.774	9.67
418.979	9.72
419.185	9.67
419.391	9.71
419.596	9.68
419.802	9.56
420.008	9.53
420.213	9.51
420.419	9.42
420.624	9.35
420.83	9.3
421.035	9.26
421.241	9.26
421.446	9.22
421.652	9.2
421.857	9.13
422.063	9.09
422.268	9.09
422.474	9.11
422.679	9.13
422.885	9.12
423.09	9.08
423.295	9.11
423.501	9.03
423.706	9.05
423.911	9.02
424.117	9.08
424.322	9.01
424.527	9.06
424.733	9.04
424.938	9.03
425.143	8.97
425.349	8.98
425.554	8.97
425.759	9.02
425.964	9.03
426.169	9.05
426.375	9.07
426.58	9.19
426.785	9.19
426.99	9.25
427.195	9.3
427.4	9.36
427.605	9.42
427.811	9.51
428.016	9.53
428.221	9.69
428.426	9.73
428.631	9.7
428.836	9.8
429.041	9.87
429.246	9.73
429.451	9.69
429.656	9.86
429.861	9.87
430.066	9.74
430.271	9.67
430.476	9.54
430.681	9.54
430.886	9.53
431.09	9.47
431.295	9.33
431.5	9.5
431.705	9.44
431.91	9.36
432.115	9.25
432.32	9.47
432.524	9.41
432.729	9.52
432.934	9.45
433.139	9.48
433.343	9.54
433.548	9.5
433.753	9.5
433.958	9.55
434.162	9.59
434.367	9.76
434.572	9.66
434.776	9.71
434.981	9.55
435.186	9.62
435.39	9.72
435.595	9.73
435.799	9.76
436.004	9.8
436.209	9.88
436.413	9.85
436.618	9.76
436.822	9.72
437.027	9.75
437.231	9.75
437.436	9.78
437.64	9.68
437.845	9.64
438.049	9.74
438.253	9.67
438.458	9.54
438.662	9.41
438.867	9.36
439.071	9.35
439.275	9.3
439.48	9.3
439.684	9.24
439.888	9.26
440.093	9.15
440.297	9.12
440.501	9.06
440.706	9.06
440.91	9.1
441.114	9.13
441.318	9.12
441.523	9.19
441.727	9.2
441.931	9.22
442.135	9.24
442.339	9.36
442.543	9.39
442.748	9.39
442.952	9.45
443.156	9.46
443.36	9.42
443.564	9.46
443.768	9.49
443.972	9.48
444.176	9.35
444.38	9.34
444.584	9.22
444.788	9.07
444.992	9.09
445.196	9.06
445.4	9
445.604	9.03
445.808	9.04
446.012	8.96
446.216	8.96
446.42	8.96
446.624	8.9
446.828	8.85
447.032	8.87
447.235	8.88
447.439	8.84
447.643	8.86
447.847	8.84
448.051	8.82
448.254	8.81
448.458	8.81
448.662	8.88
448.866	8.87
449.069	9.04
449.273	9.1
449.477	9.06
449.681	9.19
449.884	9.33
450.088	9.48
450.292	9.53
450.495	9.55
450.699	9.61
450.902	9.58
451.106	9.64
451.31	9.64
451.513	9.73
451.717	9.74
451.92	9.64
452.124	9.58
452.327	9.46
452.531	9.39
452.734	9.32
452.938	9.3
453.141	9.41
453.345	9.5
453.548	9.43
453.752	9.37
453.955	9.49
454.158	9.49
454.362	9.52
454.565	9.48
454.769	9.48
454.972	9.57
455.175	9.52
455.379	9.46
455.582	9.32
455.785	9.4
455.988	9.49
456.192	9.33
456.395	9.25
456.598	9.2
456.801	9.31
457.005	9.29
457.208	9.36
457.411	9.41
457.614	9.36
457.817	9.31
458.021	9.1
458.224	9.04
458.427	8.9
458.63	8.94
458.833	8.82
459.036	8.8
459.239	8.76
459.442	8.62
459.645	8.51
459.848	8.49
460.051	8.55
460.254	8.65
460.457	8.63
460.66	8.81
460.863	8.86
461.066	8.92
461.269	8.83
461.472	8.96
461.675	9.01
461.878	9.2
462.081	9.29
462.284	9.31
462.486	9.26
462.689	9.2
462.892	9.17
463.095	9.08
463.298	9.2
463.5	9.37
463.703	9.26
463.906	9.29
464.109	9.27
464.311	9.18
464.514	9.09
464.717	9.16
464.92	9.25
465.122	9.4
465.325	9.48
465.528	9.47
465.73	9.43
465.933	9.43
466.135	9.51
466.338	9.36
466.541	9.42
466.743	9.5
466.946	9.49
467.148	9.48
467.351	9.39
467.553	9.37
467.756	9.32
467.958	9.19
468.161	9.35
468.363	9.3
468.566	9.46
468.768	9.45
468.971	9.4
469.173	9.38
469.375	9.36
469.578	9.35
469.78	9.35
469.983	9.35
470.185	9.47
470.387	9.44
470.59	9.38
470.792	9.29
470.994	9.23
471.196	9.24
471.399	9.29
471.601	9.33
471.803	9.3
472.005	9.35
472.208	9.41
472.41	9.44
472.612	9.37
472.814	9.54
473.016	9.62
473.218	9.67
473.421	9.66
473.623	9.67
473.825	9.65
474.027	9.71
474.229	9.64
474.431	9.6
474.633	9.56
474.835	9.58
475.037	9.49
475.239	9.36
475.441	9.38
475.643	9.48
475.845	9.37
476.047	9.36
476.249	9.29
476.451	9.39
476.653	9.34
476.855	9.35
477.057	9.31
477.258	9.27
477.46	9.31
477.662	9.31
477.864	9.22
478.066	9.35
478.268	9.38
478.469	9.33
478.671	9.18
478.873	9.23
479.075	9.1
479.276	9.05
479.478	9.1
479.68	9.09
479.882	9.1
480.083	9.08
480.285	8.94
480.487	8.92
480.688	8.93
480.89	8.98
481.091	8.86
481.293	8.79
481.495	8.81
481.696	8.68
481.898	8.57
482.099	8.5
482.301	8.42
482.502	8.35
482.704	8.27
482.905	8.23
483.107	8.15
483.308	8.14
483.51	8.12
483.711	8.11
483.913	8.1
484.114	8.12
484.315	8.12
484.517	8.13
484.718	8.13
484.92	8.13
485.121	8.15
485.322	8.2
485.524	8.21
485.725	8.25
485.926	8.27
486.127	8.28
486.329	8.29
486.53	8.26
486.731	8.26
486.932	8.27
487.134	8.27
487.335	8.25
487.536	8.22
487.737	8.22
487.938	8.22
488.139	8.22
488.341	8.25
488.542	8.25
488.743	8.28
488.944	8.31
489.145	8.36
489.346	8.47
489.547	8.49
489.748	8.52
489.949	8.6
490.15	8.59
490.351	8.57
490.552	8.58
490.753	8.57
490.954	8.53
491.155	8.56
491.356	8.57
491.557	8.49
491.758	8.53
491.959	8.52
492.159	8.5
492.36	8.54
492.561	8.61
492.762	8.67
492.963	8.72
493.164	8.76
493.364	8.76
493.565	8.8
493.766	8.82
493.967	8.82
494.167	8.95
494.368	8.99
494.569	9.05
494.769	9.03
494.97	9.02
495.171	9.13
495.371	9.25
495.572	9.26
495.773	9.24
495.973	9.31
496.174	9.3
496.375	9.29
496.575	9.28
496.776	9.36
496.976	9.41
497.177	9.38
497.377	9.29
497.578	9.29
497.778	9.42
497.979	9.45
498.179	9.45
498.38	9.5
498.58	9.57
498.78	9.56
498.981	9.52
499.181	9.49
499.382	9.57
499.582	9.69
499.782	9.65
499.983	9.61
500.183	9.7
500.383	9.75
500.584	9.77
500.784	9.68
500.984	9.77
501.184	9.8
501.385	9.92
501.585	9.86
501.785	9.82
501.985	9.92
502.185	9.93
502.386	9.88
502.586	9.9
502.786	9.99
502.986	10.1
503.186	10.09
503.386	10.09
503.586	10.04
503.786	10.14
503.987	10.2
504.187	10.11
504.387	10.1
504.587	10.12
504.787	10.11
504.987	10.1
505.187	10.07
505.387	10.09
505.587	10.16
505.786	10.14
505.986	10.07
506.186	10.05
506.386	10.2
506.586	10.29
506.786	10.25
506.986	10.36
507.186	10.34
507.386	10.37
507.585	10.46
507.785	10.42
507.985	10.48
508.185	10.53
508.384	10.54
508.584	10.55
508.784	10.53
508.984	10.65
509.183	10.64
509.383	10.66
509.583	10.72
509.782	10.63
509.982	10.7
510.182	10.69
510.381	10.82
510.581	10.9
510.781	10.92
510.98	10.91
511.18	10.87
511.379	10.93
511.579	11.02
511.778	11.07
511.978	11.16
512.177	11.26
512.377	11.31
512.576	11.26
512.776	11.22
512.975	11.31
513.175	11.44
513.374	11.48
513.573	11.5
513.773	11.59
513.972	11.62
514.172	11.71
514.371	11.73
514.57	11.76
514.77	11.79
514.969	11.83
515.168	11.89
515.367	11.88
515.567	11.91
515.766	11.94
515.965	11.88
516.164	11.82
516.364	11.8
516.563	11.73
516.762	11.74
516.961	11.66
517.16	11.67
517.359	11.58
517.559	11.61
517.758	11.59
517.957	11.58
518.156	11.6
518.355	11.63
518.554	11.58
518.753	11.6
518.952	11.59
519.151	11.69
519.35	11.77
519.549	11.78
519.748	11.76
519.947	11.82
520.146	11.88
520.345	11.89
520.544	11.96
520.743	12.02
520.942	12.04
521.141	12.12
521.339	12.13
521.538	12.1
521.737	12.15
521.936	12.23
522.135	12.25
522.333	12.25
522.532	12.27
522.731	12.26
522.93	12.28
523.129	12.35
523.327	12.36
523.526	12.47
523.725	12.48
523.923	12.46
524.122	12.45
524.321	12.46
524.519	12.54
524.718	12.49
524.917	12.49
525.115	12.48
525.314	12.43
525.512	12.51
525.711	12.45
525.909	12.46
526.108	12.49
526.306	12.46
526.505	12.49
526.703	12.42
526.902	12.43
527.1	12.42
527.299	12.42
527.497	12.42
527.696	12.38
527.894	12.4
528.092	12.4
528.291	12.39
528.489	12.42
528.688	12.4
528.886	12.44
529.084	12.48
529.283	12.51
529.481	12.54
529.679	12.6
529.877	12.65
530.076	12.66
530.274	12.71
530.472	12.78
530.67	12.84
530.869	12.92
531.067	12.94
531.265	13.02
531.463	13.07
531.661	13.12
531.859	13.15
532.057	13.17
532.255	13.18
532.454	13.23
532.652	13.18
532.85	13.17
533.048	13.18
533.246	13.21
533.444	13.2
533.642	13.22
533.84	13.24
534.038	13.27
534.236	13.36
534.434	13.48
534.632	13.52
534.83	13.66
535.027	13.71
535.225	13.74
535.423	13.83
535.621	13.94
535.819	13.94
536.017	14.04
536.215	14.08
536.412	14.08
536.61	14.09
536.808	14.12
537.006	14.15
537.203	14.22
537.401	14.37
537.599	14.38
537.797	14.4
537.994	14.48
538.192	14.51
538.39	14.58
538.587	14.68
538.785	14.69
538.983	14.74
539.18	14.78
539.378	14.87
539.575	14.86
539.773	14.94
539.97	14.96
540.168	15.02
540.366	15.04
540.563	15.04
540.761	15.03
540.958	15.05
541.155	15.07
541.353	15.09
541.55	15.11
541.748	15.13
541.945	15.12
542.143	15.21
542.34	15.29
542.537	15.38
542.735	15.51
542.932	15.61
543.129	15.77
543.327	15.93
543.524	16.11
543.721	16.27
543.919	16.49
544.116	16.75
544.313	16.92
544.51	17.05
544.708	17.22
544.905	17.41
545.102	17.6
545.299	17.72
545.496	17.82
545.693	17.91
545.891	18.03
546.088	18.1
546.285	18.07
546.482	18.11
546.679	18.13
546.876	18.14
547.073	18.06
547.27	18.01
547.467	18
547.664	18.06
547.861	18.09
548.058	18.09
548.255	18.1
548.452	18.14
548.649	18.14
548.846	18.16
549.043	18.17
549.24	18.24
549.437	18.32
549.633	18.44
549.83	18.3
550.027	18.26
550.224	18.23
550.421	18.12
550.618	18.06
550.814	18.02
551.011	18.03
551.208	18.17
551.405	18.19
551.601	18.24
551.798	18.22
551.995	18.26
552.191	18.27
552.388	18.37
552.585	18.47
552.781	18.51
552.978	18.62
553.175	18.63
553.371	18.59
553.568	18.53
553.764	18.54
553.961	18.63
554.157	18.81
554.354	18.91
554.55	18.92
554.747	18.99
554.943	19.11
555.14	19.12
555.336	19.22
555.533	19.24
555.729	19.41
555.926	19.35
556.122	19.45
556.318	19.54
556.515	19.61
556.711	19.58
556.907	19.56
557.104	19.74
557.3	19.85
557.496	19.92
557.693	20.01
557.889	20.12
558.085	20.32
558.281	20.24
558.478	20.25
558.674	20.28
558.87	20.38
559.066	20.55
559.262	20.55
559.459	20.58
559.655	20.64
559.851	20.82
560.047	20.79
560.243	20.85
560.439	20.91
560.635	21.06
560.831	21.13
561.027	21.21
561.223	21.11
561.419	21.12
561.615	21.01
561.811	21.16
562.007	21.06
562.203	21.26
562.399	21.25
562.595	21.29
562.791	21.3
562.987	21.28
563.183	21.28
563.379	21.41
563.575	21.42
563.771	21.7
563.966	21.51
564.162	21.58
564.358	21.44
564.554	21.55
564.75	21.59
564.945	21.57
565.141	21.71
565.337	21.82
565.533	21.76
565.728	21.71
565.924	21.66
566.12	21.78
566.315	21.74
566.511	21.78
566.707	21.72
566.902	21.73
567.098	21.8
567.293	21.72
567.489	21.7
567.684	21.78
567.88	21.87
568.076	21.99
568.271	21.97
568.467	22.17
568.662	22.18
568.858	22.33
569.053	22.46
569.248	22.56
569.444	22.65
569.639	22.65
569.835	22.75
570.03	22.9
570.225	22.84
570.421	22.95
570.616	22.9
570.812	23.04
571.007	22.97
571.202	22.92
571.397	22.98
571.593	22.95
571.788	23.01
571.983	23.03
572.178	22.99
572.374	23.08
572.569	23.19
572.764	23.25
572.959	23.28
573.154	23.4
573.35	23.51
573.545	23.45
573.74	23.59
573.935	23.69
574.13	23.73
574.325	23.82
574.52	23.85
574.715	23.87
574.91	23.95
575.105	24.05
575.3	24.16
575.495	24.25
575.69	24.32
575.885	24.51
576.08	24.61
576.275	24.83
576.47	24.92
576.665	25.08
576.86	25.12
577.055	25.2
577.25	25.32
577.444	25.4
577.639	25.56
577.834	25.59
578.029	25.58
578.224	25.64
578.418	25.67
578.613	25.91
578.808	26.03
579.003	26.13
579.197	26.25
579.392	26.13
579.587	26.16
579.781	26.19
579.976	26.41
580.171	26.47
580.365	26.57
580.56	26.56
580.755	26.46
580.949	26.46
581.144	26.54
581.338	26.46
581.533	26.71
581.727	26.84
581.922	26.86
582.116	26.96
582.311	27.08
582.505	27.1
582.7	27.16
582.894	27.23
583.089	27.34
583.283	27.38
583.478	27.5
583.672	27.52
583.866	27.64
584.061	27.64
584.255	27.47
584.449	27.54
584.644	27.7
584.838	27.75
585.032	27.82
585.226	27.77
585.421	27.88
585.615	28.16
585.809	28.22
586.003	28.1
586.198	28.35
586.392	28.45
586.586	28.34
586.78	28.39
586.974	28.47
587.168	28.4
587.363	28.49
587.557	28.49
587.751	28.26
587.945	28.14
588.139	28.09
588.333	27.91
588.527	27.93
588.721	28.02
588.915	27.92
589.109	27.8
589.303	27.84
589.497	27.78
589.691	27.72
589.885	27.85
590.079	27.94
590.273	28.02
590.466	28.12
590.66	28.2
590.854	28.31
591.048	28.35
591.242	28.47
591.436	28.7
591.629	28.9
591.823	29.08
592.017	29.16
592.211	29.12
592.404	29.14
592.598	29.17
592.792	29.11
592.986	29.02
593.179	28.96
593.373	29.05
593.567	28.91
593.76	28.65
593.954	28.54
594.147	28.43
594.341	28.52
594.535	28.55
594.728	28.48
594.922	28.4
595.115	28.3
595.309	28.17
595.502	28.02
595.696	27.91
595.889	27.95
596.083	27.93
596.276	27.88
596.47	27.95
596.663	28.05
596.856	28.12
597.05	28.15
597.243	28.28
597.437	28.48
597.63	28.55
597.823	28.73
598.017	28.81
598.21	29.02
598.403	29.19
598.596	29.32
598.79	29.33
598.983	29.33
599.176	29.53
599.369	29.54
599.563	29.62
599.756	29.71
599.949	29.72
600.142	29.77
600.335	29.76
600.528	29.71
600.722	29.67
600.915	29.61
601.108	29.59
601.301	29.56
601.494	29.56
601.687	29.47
601.88	29.53
602.073	29.5
602.266	29.52
602.459	29.41
602.652	29.32
602.845	29.18
603.038	29.21
603.231	29.21
603.424	29.23
603.617	29.27
603.809	29.21
604.002	29.13
604.195	29.1
604.388	29.02
604.581	29.01
604.774	29.09
604.966	29.09
605.159	29.15
605.352	29.28
605.545	29.28
605.737	29.38
605.93	29.42
606.123	29.58
606.316	29.76
606.508	29.99
606.701	30.09
606.894	30.4
607.086	30.61
607.279	30.78
607.471	30.81
607.664	31.05
607.857	31.2
608.049	31.66
608.242	31.98
608.434	32.55
608.627	33.24
608.819	34.06
609.012	34.9
609.204	35.99
609.397	37.18
609.589	38.52
609.782	39.8
609.974	41.32
610.166	42.62
610.359	43.95
610.551	45.21
610.743	46.21
610.936	47.1
611.128	47.75
611.32	48.25
611.513	48.47
611.705	48.54
611.897	48.37
612.09	48
612.282	47.49
612.474	46.93
612.666	46.23
612.858	45.56
613.051	44.98
613.243	44.12
613.435	43.44
613.627	42.85
613.819	42.32
614.011	41.96
614.203	41.28
614.395	40.88
614.588	40.29
614.78	39.69
614.972	39.09
615.164	38.59
615.356	38.34
615.548	37.84
615.74	37.51
615.932	36.97
616.124	36.61
616.315	36.38
616.507	36.07
616.699	35.81
616.891	35.5
617.083	35.33
617.275	35.07
617.467	34.78
617.659	34.59
617.85	34.29
618.042	34.15
618.234	33.77
618.426	33.41
618.618	33.22
618.809	33.3
619.001	33.05
619.193	33.1
619.384	33.13
619.576	33.3
619.768	33.45
619.959	33.4
620.151	33.34
620.343	33.31
620.534	33.5
620.726	33.51
620.917	33.41
621.109	33.72
621.301	33.68
621.492	33.67
621.684	33.52
621.875	33.37
622.067	33.37
622.258	33.61
622.45	33.84
622.641	33.67
622.832	33.66
623.024	33.7
623.215	33.58
623.407	33.56
623.598	33.46
623.789	33.49
623.981	33.5
624.172	33.41
624.363	33.25
624.555	33.14
624.746	33.12
624.937	33.25
625.129	33.29
625.32	33.06
625.511	32.94
625.702	32.93
625.893	32.97
626.085	32.89
626.276	32.83
626.467	32.8
626.658	32.74
626.849	32.84
627.04	32.72
627.231	32.6
627.422	32.87
627.614	32.89
627.805	32.85
627.996	32.82
628.187	33.1
628.378	33.25
628.569	33.5
628.76	33.86
628.951	33.96
629.142	34.23
629.332	34.53
629.523	34.77
629.714	35.03
629.905	35.45
630.096	35.63
630.287	35.63
630.478	35.62
630.669	35.47
630.859	35.32
631.05	35.37
631.241	35.12
631.432	34.84
631.623	34.44
631.813	34.1
632.004	33.66
632.195	33.4
632.385	33.05
632.576	32.98
632.767	32.91
632.957	32.71
633.148	32.27
633.339	32.18
633.529	31.81
633.72	31.74
633.91	31.57
634.101	31.55
634.292	31.51
634.482	31.48
634.673	31.36
634.863	31.3
635.054	31.29
635.244	31.35
635.435	31.23
635.625	31.41
635.815	31.55
636.006	31.72
636.196	31.54
636.387	31.37
636.577	31.36
636.767	31.61
636.958	31.71
637.148	31.68
637.338	31.93
637.529	32.06
637.719	32.08
637.909	32.04
638.099	32.09
638.29	32.33
638.48	32.75
638.67	32.97
638.86	32.79
639.05	32.72
639.241	32.72
639.431	32.64
639.621	32.72
639.811	32.83
640.001	32.84
640.191	32.83
640.381	33.01
640.571	32.77
640.761	32.74
640.951	32.7
641.141	32.76
641.331	32.9
641.521	32.79
641.711	32.87
641.901	32.84
642.091	32.88
642.281	32.85
642.471	32.8
642.661	32.81
642.851	32.68
643.041	32.97
643.231	32.9
643.42	32.68
643.61	32.77
643.8	32.59
643.99	32.58
644.18	32.67
644.369	32.81
644.559	32.87
644.749	33.1
644.939	33.25
645.128	33.11
645.318	33.17
645.508	33.3
645.697	33.28
645.887	33.39
646.076	33.39
646.266	33.36
646.456	33.44
646.645	33.2
646.835	33.04
647.024	32.85
647.214	32.76
647.403	32.7
647.593	32.58
647.782	32.81
647.972	32.87
648.161	33.13
648.351	33.18
648.54	33.09
648.73	33.17
648.919	33.28
649.108	33.36
649.298	33.53
649.487	33.34
649.677	33.55
649.866	33.37
650.055	33.42
650.244	33.19
650.434	33.29
650.623	33.28
650.812	33.27
651.002	33.35
651.191	33.58
651.38	33.52
651.569	33.97
651.758	33.94
651.947	34.02
652.137	34.07
652.326	34.21
652.515	33.99
652.704	33.77
652.893	33.9
653.082	33.7
653.271	33.62
653.46	33.74
653.649	33.6
653.838	33.57
654.027	33.62
654.216	33.36
654.405	33.34
654.594	33.38
654.783	33.59
654.972	33.52
655.161	33.52
655.35	33.33
655.539	33.18
655.728	33.19
655.916	33.25
656.105	33.02
656.294	33.31
656.483	33.3
656.672	33.4
656.86	33.27
657.049	33.33
657.238	33.25
657.427	33.51
657.615	33.49
657.804	33.42
657.993	33.24
658.181	33.41
658.37	33.06
658.559	33.03
658.747	32.89
658.936	32.97
659.125	32.71
659.313	32.8
659.502	32.49
659.69	32.52
659.879	32.48
660.067	32.69
660.256	32.66
660.444	32.83
660.633	32.74
660.821	32.84
661.01	32.92
661.198	33.13
661.387	33.18
661.575	33.44
661.763	33.43
661.952	33.5
662.14	33.68
662.328	33.66
662.517	33.78
662.705	33.99
662.893	34.18
663.082	34.24
663.27	34.38
663.458	34.37
663.646	34.54
663.834	34.65
664.023	34.58
664.211	34.38
664.399	34.6
664.587	34.61
664.775	34.64
664.963	34.48
665.152	34.22
665.34	33.99
665.528	34.01
665.716	33.85
665.904	33.72
666.092	33.98
666.28	33.93
666.468	34
666.656	34.16
666.844	34.14
667.032	34.12
667.22	34.4
667.408	34.62
667.596	34.85
667.784	34.76
667.971	34.61
668.159	34.5
668.347	34.55
668.535	34.44
668.723	34.3
668.911	34.31
669.098	34.43
669.286	34.58
669.474	34.43
669.662	34.31
669.849	34.46
670.037	34.76
670.225	34.7
670.413	34.71
670.6	34.79
670.788	34.63
670.976	34.44
671.163	34.42
671.351	34.38
671.538	34.84
671.726	34.76
671.913	34.71
672.101	34.67
672.289	34.8
672.476	35.02
672.664	34.9
672.851	34.82
673.039	34.83
673.226	34.88
673.413	34.74
673.601	34.46
673.788	34.84
673.976	35.09
674.163	35.16
674.35	35.06
674.538	34.95
674.725	35.17
674.912	35.5
675.1	35.67
675.287	35.48
675.474	35.51
675.662	35.54
675.849	35.49
676.036	35.48
676.223	35.35
676.411	35.42
676.598	35.46
676.785	35.19
676.972	35.02
677.159	34.95
677.346	35.02
677.533	34.9
677.721	34.84
677.908	34.5
678.095	34.28
678.282	34.33
678.469	34.12
678.656	33.91
678.843	34.05
679.03	34.24
679.217	34.34
679.404	34.22
679.591	34.25
679.778	34.13
679.964	34.3
680.151	34.26
680.338	34.27
680.525	34.42
680.712	34.28
680.899	34.35
681.086	34.4
681.272	34.36
681.459	34.28
681.646	34.46
681.833	34.69
682.02	34.75
682.206	34.95
682.393	35.02
682.58	34.92
682.766	35.31
682.953	35.18
683.14	34.77
683.326	35.11
683.513	35.69
683.7	35.5
683.886	35.29
684.073	35.01
684.259	34.93
684.446	34.89
684.632	35.11
684.819	34.66
685.005	34.9
685.192	35.39
685.378	35.19
685.565	34.75
685.751	34.67
685.938	34.77
686.124	34.88
686.31	35.03
686.497	35
686.683	34.78
686.87	35.31
687.056	35.03
687.242	34.72
687.429	34.73
687.615	35.03
687.801	35.32
687.987	35.54
688.174	35.82
688.36	35.76
688.546	35.68
688.732	35.89
688.918	35.73
689.105	35.65
689.291	35.69
689.477	35.64
689.663	35.55
689.849	35.53
690.035	35.38
690.221	35.41
690.407	35.21
690.593	35.25
690.779	35.51
690.965	35.45
691.151	35.62
691.337	35.84
691.523	36.19
691.709	36.25
691.895	36.47
692.081	36.79
692.267	36.81
692.453	37.43
692.639	37.66
692.825	37.56
693.011	37.78
693.196	37.62
693.382	37.66
693.568	37.36
693.754	37.53
693.94	37.28
694.125	37
694.311	36.76
694.497	36.29
694.682	36.1
694.868	36.1
695.054	36.04
695.239	36.35
695.425	36.22
695.611	36.17
695.796	36.01
695.982	36.05
696.168	36.07
696.353	36.03
696.539	35.94
696.724	35.75
696.91	35.65
697.095	35.25
697.281	35.14
697.466	35.05
697.652	34.97
697.837	34.82
698.023	34.68
698.208	34.43
698.393	34.36
698.579	34.29
698.764	34.36
698.949	34.22
699.135	34.42
699.32	34.27
699.505	33.98
699.691	34.03
699.876	34.09
700.061	34.14
700.246	34.38
700.432	34.36
700.617	34.38
700.802	34.57
700.987	34.56
701.172	34.68
701.358	34.97
701.543	35.53
701.728	35.6
701.913	35.49
702.098	35.63
702.283	35.81
702.468	35.95
702.653	36.68
702.838	37.05
703.023	37.25
703.208	37.34
703.393	37.58
703.578	37.63
703.763	38.02
703.948	38.52
704.133	38.57
704.318	38.79
704.503	39.24
704.688	39.27
704.873	39.3
705.057	40.2
705.242	40.74
705.427	40.85
705.612	41.34
705.797	41.38
705.981	41.47
706.166	41.9
706.351	42.23
706.536	42.14
706.72	42.24
706.905	42.53
707.09	42.42
707.274	42.39
707.459	42.5
707.644	42.58
707.828	42.6
708.013	42.91
708.197	42.84
708.382	42.52
708.567	42.94
708.751	42.76
708.936	42.45
709.12	42.23
709.305	42.2
709.489	41.89
709.673	41.7
709.858	41.74
710.042	41.7
710.227	41.76
710.411	41.74
710.596	41.56
710.78	41.42
710.964	41.78
711.149	41.81
711.333	41.71
711.517	41.99
711.702	41.77
711.886	41.35
712.07	40.89
712.254	40.9
712.438	40.8
712.623	40.64
712.807	40.46
712.991	40.16
713.175	39.97
713.359	39.72
713.544	39.44
713.728	39.15
713.912	38.94
714.096	38.59
714.28	37.92
714.464	37.47
714.648	36.86
714.832	36.9
715.016	36.46
715.2	36.29
715.384	35.95
715.568	35.75
715.752	35.64
715.936	36
716.12	35.92
716.304	36.02
716.488	36.29
716.671	36.51
716.855	36.29
717.039	36.17
717.223	36.02
717.407	35.99
717.59	35.93
717.774	36.06
717.958	35.85
718.142	36.07
718.325	36.06
718.509	35.87
718.693	35.7
718.877	35.85
719.06	36.1
719.244	36.24
719.428	36.46
719.611	36.5
719.795	36.36
719.978	36.54
720.162	36.94
720.345	37.29
720.529	37.88
720.713	38.11
720.896	37.89
721.08	37.98
721.263	37.9
721.446	38.06
721.63	38.07
721.813	38.61
721.997	38.75
722.18	38.67
722.364	38.89
722.547	38.7
722.73	38.78
722.914	38.84
723.097	38.92
723.28	39.22
723.464	39.1
723.647	39.54
723.83	39.2
724.013	39.05
724.197	39.11
724.38	38.49
724.563	37.96
724.746	38.05
724.929	38.1
725.112	37.95
725.296	37.58
725.479	37.66
725.662	38.04
725.845	38.3
726.028	38.1
726.211	38.04
726.394	37.83
726.577	38.19
726.76	38.2
726.943	37.97
727.126	37.5
727.309	37.61
727.492	37.34
727.675	36.54
727.858	36.07
728.041	35.87
728.224	35.66
728.407	36.06
728.589	35.6
728.772	35.45
728.955	35.76
729.138	36.22
729.321	36.16
729.503	36.59
729.686	36.44
729.869	36.56
730.052	36.63
730.234	36.87
730.417	37.01
730.6	37.16
730.782	37.36
730.965	37.5
731.148	37.48
731.33	37.73
731.513	37.64
731.695	37.91
731.878	37.93
732.061	38.27
732.243	38.1
732.426	38.01
732.608	38.37
732.791	38.14
732.973	38.1
733.156	37.93
733.338	37.46
733.52	37.33
733.703	37.22
733.885	37.43
734.068	37.34
734.25	37.67
734.432	37.95
734.615	38.23
734.797	37.97
734.979	37.92
735.162	38.24
735.344	38.44
735.526	38.88
735.708	39.4
735.891	39.36
736.073	39.45
736.255	39.15
736.437	38.97
736.619	38.99
736.802	39.72
736.984	39.48
737.166	39.83
737.348	40.32
737.53	40.21
737.712	39.99
737.894	40.1
738.076	40.21
738.258	40.01
738.44	40
738.622	40.11
738.804	40.16
738.986	40.56
739.168	40.23
739.35	39.95
739.532	40.04
739.714	39.97
739.896	40.32
740.078	40.19
740.259	40.35
740.441	40.64
740.623	40.63
740.805	40.26
740.987	40.11
741.168	40.05
741.35	40.05
741.532	40.06
741.714	40.38
741.895	40.49
742.077	40.87
742.259	41.46
742.44	41.62
742.622	41.38
742.804	41.66
742.985	41.87
743.167	42.43
743.348	42.52
743.53	42.51
743.711	42.35
743.893	42.1
744.075	41.75
744.256	41.89
744.438	40.98
744.619	41.16
744.8	41.52
744.982	41.86
745.163	42.06
745.345	42.16
745.526	41.89
745.707	42.23
745.889	42.33
746.07	42.95
746.252	42.54
746.433	43.03
746.614	42.74
746.795	41.87
746.977	41.23
747.158	40.81
747.339	40.8
747.52	41.41
747.702	41.62
747.883	41.33
748.064	41.07
748.245	41.07
748.426	40.91
748.607	40.87
748.788	41.19
748.97	42.17
749.151	42.47
749.332	43.02
749.513	42.52
749.694	42.31
749.875	42.59
750.056	42.35
750.237	42.65
750.418	42.72
750.599	42.67
750.78	43.13
750.96	42.78
751.141	42.52
751.322	42.18
751.503	41.77
751.684	41.54
751.865	41.53
752.046	41.92
752.226	41.64
752.407	41.99
752.588	41.93
752.769	41.69
752.949	41.05
753.13	40.85
753.311	41.28
753.492	41.72
753.672	41.61
753.853	41.37
754.034	41.38
754.214	41.39
754.395	41.15
754.575	41.56
754.756	41.45
754.937	41.64
755.117	41.79
755.298	41.51
755.478	41.78
755.659	41.24
755.839	41.5
756.02	41.56
756.2	41.46
756.381	41.16
756.561	40.82
756.741	41.33
756.922	41.36
757.102	41.61
757.283	40.74
757.463	40.49
757.643	41.4
757.823	41.08
758.004	40.65
758.184	41.08
758.364	41.25
758.545	40.93
758.725	40.3
758.905	39.87
759.085	39.24
759.265	39.57
759.446	39.14
759.626	38.64
759.806	38.48
759.986	38.05
760.166	37.55
760.346	37.29
760.526	37.66
760.706	37.24
760.886	37.55
761.066	37.89
761.246	37.79
761.426	37.59
761.606	37.4
761.786	37.23
761.966	37.07
762.146	36.55
762.326	36.46
762.506	36.05
762.686	35.92
762.866	35.98
763.046	35.7
763.225	35.51
763.405	35.33
763.585	35.46
763.765	35.66
763.945	35.61
764.124	35.78
764.304	35.56
764.484	35.96
764.664	36.57
764.843	36.31
765.023	36.62
765.203	37.1
765.382	37.6
765.562	37.9
765.741	38.02
765.921	38.81
766.101	39.13
766.28	40.06
766.46	40.26
766.639	40.41
766.819	40.96
766.998	40.89
767.178	40.66
767.357	41.33
767.537	41.16
767.716	41.98
767.896	41.94
768.075	42.28
768.254	42.22
768.434	42.08
768.613	42.02
768.792	42.3
768.972	42.82
769.151	42.99
769.33	42.42
769.51	42.06
769.689	41.05
769.868	41.12
770.047	41.33
770.226	40.84
770.406	40.47
770.585	41.03
770.764	41.1
770.943	40.81
771.122	41.27
771.301	41.84
771.48	42.88
771.66	42.91
771.839	42.92
772.018	42.54
772.197	42.63
772.376	42.86
772.555	43.08
772.734	42.52
772.913	42.46
773.092	42.22
773.271	41.98
773.449	41.63
773.628	42.35
773.807	42.79
773.986	43.61
774.165	44.16
774.344	44.52
774.523	44.29
774.701	45.09
774.88	45.25
775.059	45.78
775.238	46.51
775.417	46.81
775.595	47.25
775.774	47.26
775.953	46.48
776.131	46.65
776.31	47.23
776.489	47.85
776.667	47.95
776.846	47.83
777.025	47.24
777.203	47.06
777.382	46.86
777.56	45.49
777.739	45
777.917	44.93
778.096	44.9
778.274	44.47
778.453	43.12
778.631	42.37
778.81	42.72
778.988	42.66
779.166	42.1
779.345	42.62
779.523	43.86
779.702	44.11
779.88	43.93
780.058	44.77
780.237	44.91
780.415	45.91
780.593	46.05
780.771	46.67
780.95	46.41
781.128	46.38
781.306	46.3
781.484	46.47
781.662	46.31
781.841	47.16
782.019	46.14
782.197	45.38
782.375	44.77
782.553	44.81
782.731	44.1
782.909	44.85
783.087	44.88
783.265	44.48
783.443	44.18
783.621	44.37
783.799	44.15
783.977	43.83
784.155	44.45
784.333	44.96
784.511	45.45
784.689	45.45
784.867	44.75
785.045	45.75
785.223	45.24
785.4	45.48
785.578	45.79
785.756	46.71
785.934	47.54
786.112	47.91
786.289	47.34
786.467	46.44
786.645	45.62
786.823	45.45
787	43.99
787.178	44.22
787.356	42.94
787.533	42.04
787.711	40.53
787.889	39.9
788.066	39.28
788.244	38.79
788.421	38.78
788.599	38.81
788.776	39.68
788.954	40.62
789.131	39.79
789.309	39.8
789.486	39.93
789.664	40.69
789.841	40.52
790.019	40.77
790.196	41.77
790.373	42.13
790.551	43.16
790.728	42.38
790.906	42.16
791.083	44.91
791.26	45.82
791.437	46.39
791.615	46.07
791.792	46.46
791.969	47.05
792.146	47.52
792.324	47.48
792.501	47.96
792.678	48.97
792.855	48.6
793.032	46.86
793.209	46.57
793.387	46.64
793.564	47.15
793.741	47.79
793.918	47.07
794.095	45.81
794.272	45.89
794.449	44.96
794.626	44.58
794.803	44.9
794.98	45.36
795.157	45.7
795.334	45.52
795.511	45.21
795.688	44.21
795.864	44
796.041	44.22
796.218	44.42
796.395	44.27
796.572	43.39
796.749	42.98
796.925	42.24
797.102	41.95
797.279	42.6
797.456	42.58
797.632	43.28
797.809	43.24
797.986	43.02
798.162	43.29
798.339	42.88
798.516	43.84
798.692	43.83
798.869	44.73
799.046	44.6
799.222	43.91
799.399	42.81
799.575	42.74
799.752	43.43
799.928	44.57
800.105	44.88
800.281	45.5
800.458	45.85
800.634	46.81
800.811	46.62
800.987	47.38
801.163	47.51
801.34	48.49
801.516	48.22
801.692	48.61
801.869	48.23
802.045	48.7
802.221	48.79
802.398	48.71
802.574	47.65
802.75	48.06
802.926	47.6
803.103	47.4
803.279	47.29
803.455	47.14
803.631	46.97
803.807	47.71
803.983	46.98
804.16	47.65
804.336	47.09
804.512	47.78
804.688	47.19
804.864	46.28
805.04	46.07
805.216	46.81
805.392	47.73
805.568	47.42
805.744	46.96
805.92	46.62
806.096	45.67
806.272	46.34
806.448	46.21
806.623	45.96
806.799	46.28
806.975	46.44
807.151	46.03
807.327	46.46
807.503	46.58
807.678	45.79
807.854	45.97
808.03	47.08
808.206	46.48
808.381	45.78
808.557	45.77
808.733	46.21
808.908	45.74
809.084	44.64
809.26	43.35
809.435	44.41
809.611	45.56
809.787	46.41
809.962	45.67
810.138	47.21
810.313	47.99
810.489	47.5
810.664	47.92
810.84	48.85
811.015	51.2
811.191	51.93
811.366	51.04
811.542	50.61
811.717	49.05
811.892	49.6
812.068	47.97
812.243	46.78
812.419	46.94
812.594	46.82
812.769	47.25
812.944	45.97
813.12	45.6
813.295	44.66
813.47	44.34
813.645	44.76
813.821	43.75
813.996	43.79
814.171	45
814.346	45.43
814.521	45.07
814.697	43.55
814.872	43.54
815.047	44.51
815.222	44.69
815.397	43.77
815.572	43.67
815.747	43.79
815.922	43.81
816.097	44.41
816.272	44.23
816.447	44.75
816.622	45.52
816.797	45.49
816.972	43.55
817.147	43.57
817.322	44.27
817.496	43.6
817.671	43.66
817.846	44.26
818.021	43.26
818.196	42.48
818.371	42.33
818.545	42.24
818.72	42.96
818.895	43.75
819.069	42.57
819.244	41.71
819.419	41.45
819.594	40.67
819.768	39.89
819.943	39.24
820.117	38.74
820.292	37.94
820.467	36.53
820.641	35
820.816	33.91
820.99	33.84
821.165	32.92
821.339	32.41
821.514	31.86
821.688	31.39
821.863	30.81
822.037	30.51
822.212	29.8
822.386	29.82
822.56	29.61
822.735	29.59
822.909	29.55
823.084	29.57
823.258	29.42
823.432	29.25
823.606	29.21
823.781	29.5
823.955	29.51
824.129	29.82
824.303	30.05
824.478	30.07
824.652	30.19
824.826	29.99
825	30.07
825.174	30.57
825.348	31.33
825.523	31.6
825.697	31.73
825.871	32.08
826.045	32.39
826.219	32.24
826.393	32.74
826.567	32.94
826.741	33.54
826.915	33.98
827.089	33.81
827.263	33.56
827.437	33.78
827.611	33.71
827.784	33.68
827.958	34.19
828.132	34.3
828.306	34.72
828.48	34.83
828.654	35.12
828.827	35.47
829.001	35.79
829.175	36.48
829.349	37
829.522	38.1
829.696	38.91
829.87	39.38
830.044	40.41
830.217	39.93
830.391	40.34
830.565	40.13
830.738	40.57
830.912	41.54
831.085	41.92
831.259	41.37
831.432	40.61
831.606	41.09
831.779	39.38
831.953	38.88
832.126	38.67
832.3	38.3
832.473	37.62
832.647	37.01
832.82	36.28
832.994	35.7
833.167	35.93
833.34	36.17
833.514	35.09
833.687	35.53
833.86	34.6
834.034	34.68
834.207	34.61
834.38	34.69
834.553	35.2
834.727	35.64
834.9	35.47
835.073	35.13
835.246	34.81
835.419	36.02
835.593	36.35
835.766	37.48
835.939	37.91
836.112	38.49
836.285	39.96
836.458	39.85
836.631	40.35
836.804	42.09
836.977	43.49
837.15	44.34
837.323	44.49
837.496	45.88
837.669	45.73
837.842	47.21
838.015	49.17
838.188	49.38
838.361	50.61
838.533	49.68
838.706	48.65
838.879	48.5
839.052	49.4
839.225	50.71
839.398	49.72
839.57	50.79
839.743	50.49
839.916	49.01
840.088	49.67
840.261	50.69
840.434	52.48
840.607	53.89
840.779	53.53
840.952	53.6
841.124	52.75
841.297	53.11
841.47	53.21
841.642	52.63
841.815	53.01
841.987	52.8
842.16	51.11
842.332	51.08
842.505	51.05
842.677	52.14
842.85	51.89
843.022	51.51
843.194	53.19
843.367	54.99
843.539	55.41
843.712	55.94
843.884	54.27
844.056	54.97
844.229	53.84
844.401	53.18
844.573	54.29
844.745	54.91
844.918	56.42
845.09	54.38
845.262	53.4
845.434	55.8
845.606	57.6
845.779	60.02
845.951	60.06
846.123	59.72
846.295	59.62
846.467	58.42
846.639	59.29
846.811	58.51
846.983	58.49
847.155	58.59
847.327	58.93
847.499	56.81
847.671	58.21
847.843	59.84
848.015	61.03
848.187	61.48
848.359	62.29
848.531	62.71
848.703	62.63
848.875	64.19
849.047	64.96
849.218	65.42
849.39	66.21
849.562	63.35
849.734	61.04
849.905	63.06
850.077	63.52
850.249	63.57
850.421	62.39
850.592	63.37
850.764	63.77
850.936	63.16
851.107	62.78
851.279	63.9
851.451	65.43
851.622	67.59
851.794	65.84
851.965	67.42
852.137	67.92
852.308	67.29
852.48	65.97
852.651	65.51
852.823	64.24
852.994	63.32
853.166	60.89
853.337	61.31
853.509	57.59
853.68	56.52
853.851	53.81
854.023	53.27
854.194	53.86
854.365	54.45
854.537	54.13
854.708	55.08
854.879	55.73
855.05	58.88
855.222	57.87
855.393	60.5
855.564	64.02
855.735	65.23
855.906	65.87
856.078	66.5
856.249	66.54
856.42	67.35
856.591	67.18
856.762	66.27
856.933	64.48
857.104	63.45
857.275	63.97
857.446	61.05
857.617	59.26
857.788	58.67
857.959	60.09
858.13	60.5
858.301	60.99
858.472	62.39
858.643	62.34
858.814	62.62
858.985	62.65
859.155	62.85
859.326	63.55
859.497	64.92
859.668	64.97
859.839	61.63
860.009	61.35
860.18	60.32
860.351	58.25
860.522	58.15
860.692	58.39
860.863	58.47
861.034	58.87
861.204	60.17
861.375	63.18
861.546	65.27
861.716	67.71
861.887	68.12
862.057	68.79
862.228	70.44
862.398	69.64
862.569	68.19
862.739	68.49
862.91	68.85
863.08	66.33
863.251	64.31
863.421	61.8
863.592	61.22
863.762	58.17
863.932	55.7
864.103	55.21
864.273	56.13
864.443	56.85
864.614	55.58
864.784	54.54
864.954	55.26
865.125	57.08
865.295	57.77
865.465	57.76
865.635	57.81
865.805	60.55
865.976	60.87
866.146	61.69
866.316	62.16
866.486	64.76
866.656	64.37
866.826	63.6
866.996	60.69
867.166	59.13
867.336	59.55
867.506	61.43
867.676	63.39
867.846	62.74
868.016	60.16
868.186	58.68
868.356	58.69
868.526	58.69
868.696	58.46
868.866	59.92
869.036	60.9
869.206	59.49
869.376	59.55
869.545	56.21
869.715	57.99
869.885	58.28
870.055	60.86
870.224	57.53
870.394	56.48
870.564	58.44
870.734	57.59
870.903	57.8
871.073	59.83
871.243	60.52
871.412	62.1
871.582	61.97
871.751	62.43
871.921	61.09
872.091	63.41
872.26	64.1
872.43	64.71
872.599	65.75
872.769	67.26
872.938	64.89
873.108	65.19
873.277	63.26
873.446	60.65
873.616	64.2
873.785	64.87
873.955	64.61
874.124	65.03
874.293	62.06
874.463	61.37
874.632	59.13
874.801	59.57
874.971	58.85
875.14	58.62
875.309	60.47
875.478	55.84
875.647	54.43
875.817	55.75
875.986	55.41
876.155	57.12
876.324	55.7
876.493	56.93
876.662	56.83
876.831	55.04
877	57.14
877.17	54.58
877.339	55.7
877.508	56.82
877.677	54.06
877.846	53.34
878.015	53.81
878.184	54.55
878.352	53.62
878.521	54.1
878.69	54.62
878.859	51.02
879.028	51.77
879.197	51.54
879.366	49.21
879.534	50.49
879.703	50.03
879.872	49.34
880.041	47.58
880.21	46.2
880.378	43.6
880.547	41.99
880.716	42.03
880.884	40.41
881.053	39.79
881.222	38.85
881.39	36.05
881.559	34.33
881.727	32.01
881.896	31.79
882.065	31.82
882.233	31.96
882.402	31.35
882.57	31.32
882.739	31.59
882.907	30.89
883.076	31.47
883.244	32.66
883.412	33.51
883.581	34.84
883.749	35.05
883.918	34.36
884.086	34.67
884.254	35.81
884.423	34.95
884.591	35.41
884.759	36.28
884.927	36.15
885.096	36.87
885.264	37.2
885.432	38.17
885.6	39.05
885.769	41.18
885.937	42.23
886.105	43.23
886.273	46.31
886.441	47.23
886.609	47.36
886.777	48.02
886.945	46.96
887.113	47.27
887.281	46.14
887.449	47.75
887.617	48.98
887.785	49.35
887.953	50.39
888.121	52.11
888.289	51.31
888.457	52.46
888.625	54.24
888.793	55.45
888.961	58.11
889.129	61.88
889.296	60.74
889.464	60.38
889.632	61.12
889.8	60.79
889.967	60
890.135	62.52
