Data from 2938753__Reflection_03.txt Node
Date: Sat Mar 14 14:26:00 EDT 2015
User: robert
Spectrometer: USB4E03002
Autoset integration time: false
Trigger mode: 4
Integration Time (sec): 1.000000E-1
Scans to average: 10
Electric dark correction enabled: false
Nonlinearity correction enabled: false
Boxcar width: 5
Stray light correction enabled: false
XAxis mode: Wavelengths
Stop averaging: false
Number of Pixels in Spectrum: 3648
>>>>>Begin Spectral Data<<<<<
177.575	271.23
177.794	352.35
178.014	327.9
178.233	367.07
178.452	434.95
178.672	516.31
178.891	769.38
179.11	955.74
179.33	1616.18
179.549	490.7
179.768	572.05
179.987	471.58
180.207	785.16
180.426	5103.85
180.645	2853.06
180.864	3048.89
181.084	839.88
181.303	675.22
181.522	1793.59
181.741	2085.71
181.96	-865.25
182.179	-806.88
182.398	-492.34
182.618	-640.24
182.837	1796.83
183.056	602.62
183.275	914.15
183.494	2132.5
183.713	606.56
183.932	346.31
184.151	377.39
184.37	222.31
184.589	165.64
184.808	195.45
185.027	144.14
185.246	132.76
185.465	223.96
185.684	198.48
185.903	390.36
186.122	2592.5
186.341	-2908.33
186.56	-834.71
186.779	-684.83
186.998	-803.15
187.216	-6662.5
187.435	-1107.22
187.654	-8093.75
187.873	1593.59
188.092	-570.7
188.311	1045.22
188.53	565.32
188.748	943.67
188.967	1002.82
189.186	1332.04
189.405	886.39
189.623	1117.74
189.842	821.05
190.061	6317.39
190.28	-9223.53
190.498	747.06
190.717	1978.65
190.936	-56500
191.154	634.33
191.373	507.33
191.592	482.86
191.81	499.74
192.029	440.12
192.248	375.05
192.466	382.12
192.685	289.02
192.904	221.89
193.122	225.37
193.341	219.94
193.559	229.07
193.778	218.64
193.996	212.42
194.215	226.45
194.433	266.33
194.652	340.23
194.87	316.34
195.089	325.11
195.307	275.77
195.526	262.48
195.744	268.37
195.963	228.49
196.181	233.51
196.399	255.19
196.618	249.32
196.836	227.06
197.055	226.73
197.273	245.34
197.491	331.47
197.71	733.77
197.928	430.08
198.146	300.81
198.365	406.73
198.583	613.13
198.801	828.26
199.019	722.84
199.238	4578.26
199.456	1040
199.674	1405.63
199.892	523.61
200.111	1043.97
200.329	-917.95
200.547	-1716.13
200.765	-437.39
200.983	-1112.9
201.202	-1068.87
201.42	-1046.3
201.638	-15775
201.856	4657.14
202.074	699.45
202.292	1059.5
202.51	1320.43
202.728	941.98
202.946	583.41
203.165	490.72
203.383	468.8
203.601	310.13
203.819	234.47
204.037	246.19
204.255	269.01
204.473	281.15
204.691	277.75
204.909	304.39
205.127	320.68
205.345	515.35
205.562	369.54
205.78	313.82
205.998	568.18
206.216	878.99
206.434	1051.65
206.652	1420.55
206.87	6040
207.088	1004.9
207.306	386.73
207.523	218.03
207.741	251.71
207.959	209
208.177	343.46
208.395	344.13
208.612	312.21
208.83	374.03
209.048	329.45
209.266	283.72
209.483	244.33
209.701	222.36
209.919	304.33
210.136	225.4
210.354	234.78
210.572	184.36
210.79	160.89
211.007	174.19
211.225	171.45
211.442	211.11
211.66	202.77
211.878	170
212.095	266.57
212.313	268.54
212.53	368.55
212.748	494.02
212.966	768.36
213.183	898.84
213.401	1504.21
213.618	479.71
213.836	324.28
214.053	347.91
214.271	419.11
214.488	286.54
214.705	220.79
214.923	174.69
215.14	152.43
215.358	147.84
215.575	129.12
215.793	121.18
216.01	123.06
216.227	128.14
216.445	128.1
216.662	119.52
216.879	128.14
217.097	129.25
217.314	148.03
217.531	150.88
217.749	164.75
217.966	190.52
218.183	163.82
218.4	142.22
218.618	129.55
218.835	118.53
219.052	126.02
219.269	114.43
219.487	115.38
219.704	112.82
219.921	112.72
220.138	98.81
220.355	91.33
220.572	83.44
220.79	73.93
221.007	80.71
221.224	90.37
221.441	90.47
221.658	89.79
221.875	88.53
222.092	84.8
222.309	73.87
222.526	68.62
222.743	65.14
222.96	76.5
223.177	81.69
223.394	83.21
223.611	78.76
223.828	69.14
224.045	65.78
224.262	59.43
224.479	52.29
224.696	52.92
224.913	50.93
225.13	52.25
225.347	49.23
225.564	49.7
225.781	41.96
225.997	36.8
226.214	36.99
226.431	33.11
226.648	30.06
226.865	25.91
227.082	24.72
227.298	22.65
227.515	18.28
227.732	15.41
227.949	14.98
228.165	13.59
228.382	12.18
228.599	10.09
228.816	8.92
229.032	7.16
229.249	7.6
229.466	7.28
229.682	6.83
229.899	6.98
230.116	7.55
230.332	7.38
230.549	7.98
230.765	5.79
230.982	7.18
231.199	7.94
231.415	10.22
231.632	11.93
231.848	11.53
232.065	11.65
232.281	11.71
232.498	11.37
232.714	12
232.931	11.83
233.147	13.88
233.364	13.04
233.58	12.71
233.797	13.88
234.013	12.23
234.23	12
234.446	13.25
234.662	13.22
234.879	14.49
235.095	12.76
235.312	14.24
235.528	16.92
235.744	18.54
235.961	20.32
236.177	18.88
236.393	19.42
236.61	18.67
236.826	18.85
237.042	19.24
237.258	18.91
237.475	19.74
237.691	18.69
237.907	17.49
238.123	18.12
238.339	16.48
238.556	16.2
238.772	14.82
238.988	15.99
239.204	15.77
239.42	15.15
239.636	14.05
239.853	13.74
240.069	12.56
240.285	11.66
240.501	10.1
240.717	9.04
240.933	8.43
241.149	8.3
241.365	7.59
241.581	6.67
241.797	6.54
242.013	6.5
242.229	5.72
242.445	5.97
242.661	5.37
242.877	5.44
243.093	5.82
243.309	6.45
243.525	6.83
243.741	7.68
243.957	7.93
244.173	8.11
244.388	8.44
244.604	9.62
244.82	9.71
245.036	10.57
245.252	9.73
245.468	9.29
245.683	8.39
245.899	7.73
246.115	6.19
246.331	6.4
246.547	5.98
246.762	6.1
246.978	5.77
247.194	5.81
247.409	5.5
247.625	5.27
247.841	5.54
248.057	5.56
248.272	5.54
248.488	6.55
248.703	6.27
248.919	6.55
249.135	5.87
249.35	6.22
249.566	5.65
249.782	6.17
249.997	6.57
250.213	6.62
250.428	7.54
250.644	7.65
250.859	6.65
251.075	7.24
251.29	7.22
251.506	8.06
251.721	7.93
251.937	8.03
252.152	7.67
252.368	8.69
252.583	8.79
252.798	8.14
253.014	8.2
253.229	8.59
253.445	8.4
253.66	8.51
253.875	8.42
254.091	7.87
254.306	8.17
254.521	9.67
254.737	8.7
254.952	7.7
255.167	7.54
255.383	8.32
255.598	7.97
255.813	7.82
256.028	8.47
256.244	8.97
256.459	10.42
256.674	10.26
256.889	8.11
257.104	6.8
257.32	7.56
257.535	7.28
257.75	5.96
257.965	6.21
258.18	5.92
258.395	5.65
258.61	5.35
258.826	4.66
259.041	4.54
259.256	4.47
259.471	4.69
259.686	4.46
259.901	4.35
260.116	4.63
260.331	4.49
260.546	4.63
260.761	4.07
260.976	3.63
261.191	3.53
261.406	3.78
261.621	4.23
261.836	4.04
262.05	3.75
262.265	3.82
262.48	3.34
262.695	2.62
262.91	2.87
263.125	3.6
263.34	4.25
263.555	3.75
263.769	3.37
263.984	2.55
264.199	2.93
264.414	2.81
264.629	3.46
264.843	4.35
265.058	5.69
265.273	4.42
265.488	4.48
265.702	4.23
265.917	4.51
266.132	4.69
266.346	5.04
266.561	5.07
266.776	5.41
266.99	5.17
267.205	5.15
267.42	4.88
267.634	5.37
267.849	5.35
268.063	5.75
268.278	5.64
268.492	5.75
268.707	5.77
268.922	5.84
269.136	5.69
269.351	5.91
269.565	5.73
269.78	5.36
269.994	5.55
270.209	5.42
270.423	4.79
270.637	5.18
270.852	4.82
271.066	4.87
271.281	4.83
271.495	4.8
271.709	4.17
271.924	3.73
272.138	3.56
272.353	3.48
272.567	3.43
272.781	3.68
272.996	3.46
273.21	3.85
273.424	3.71
273.638	4.12
273.853	3.82
274.067	4.38
274.281	4.35
274.495	4.24
274.71	4.2
274.924	3.78
275.138	3.74
275.352	3.69
275.566	2.9
275.781	2.94
275.995	2.05
276.209	2.91
276.423	2.82
276.637	3.04
276.851	3.4
277.065	3.46
277.279	4.14
277.493	3.86
277.707	4.62
277.921	5.14
278.135	5.04
278.349	5.31
278.563	4.95
278.777	4.85
278.991	4.93
279.205	5.36
279.419	4.68
279.633	4.61
279.847	5
280.061	4.69
280.275	4.25
280.489	4.01
280.703	4.39
280.917	4.18
281.131	3.8
281.344	4.04
281.558	3.4
281.772	3.87
281.986	3.6
282.2	3.51
282.414	3.14
282.627	3.02
282.841	3.27
283.055	3.12
283.269	3.17
283.482	3.4
283.696	3.16
283.91	3.67
284.123	3.34
284.337	3.6
284.551	3.28
284.764	3.35
284.978	3.53
285.192	3.58
285.405	3.58
285.619	3.26
285.833	3.29
286.046	3.13
286.26	2.92
286.473	3.17
286.687	2.94
286.9	3.1
287.114	3.04
287.327	3.11
287.541	2.82
287.754	2.58
287.968	2.66
288.181	2.84
288.395	2.8
288.608	2.54
288.822	2.43
289.035	2.42
289.248	2.37
289.462	2.77
289.675	2.56
289.889	2.66
290.102	2.87
290.315	2.99
290.529	2.73
290.742	2.95
290.955	3.18
291.169	3.22
291.382	3.42
291.595	3.45
291.808	3.4
292.022	3.76
292.235	4.09
292.448	4.24
292.661	4.6
292.875	4.89
293.088	4.82
293.301	5.09
293.514	4.98
293.727	5.04
293.94	5.51
294.153	5.41
294.367	5.26
294.58	4.74
294.793	4.22
295.006	3.85
295.219	3.85
295.432	3.76
295.645	3.66
295.858	3.66
296.071	3.43
296.284	3.2
296.497	2.89
296.71	2.75
296.923	3.08
297.136	3.12
297.349	3.37
297.562	3.25
297.775	3.56
297.988	3.42
298.201	3.52
298.414	3.41
298.626	3.4
298.839	3.65
299.052	3.71
299.265	3.71
299.478	4.21
299.691	4.16
299.903	4.23
300.116	3.87
300.329	4.18
300.542	4.41
300.755	4.67
300.967	4.82
301.18	4.61
301.393	4.51
301.605	4.32
301.818	4.03
302.031	4.03
302.243	3.91
302.456	4.11
302.669	3.82
302.881	3.76
303.094	3.76
303.307	3.35
303.519	3.48
303.732	3.82
303.944	3.7
304.157	4.01
304.37	3.93
304.582	4.18
304.795	4.02
305.007	4.41
305.22	4.63
305.432	4.66
305.645	5.25
305.857	5.39
306.069	5.12
306.282	5.3
306.494	5.02
306.707	5.17
306.919	5.09
307.132	5.05
307.344	5.3
307.556	4.87
307.769	4.75
307.981	4.66
308.193	4.89
308.406	5.12
308.618	5.27
308.83	5.24
309.043	5.32
309.255	5.21
309.467	5.31
309.679	4.98
309.892	5.06
310.104	5.04
310.316	4.9
310.528	4.85
310.74	4.77
310.953	4.68
311.165	4.61
311.377	4.62
311.589	4.64
311.801	4.89
312.013	4.68
312.225	4.51
312.437	4.92
312.649	5.2
312.862	5.35
313.074	5.64
313.286	5.94
313.498	6.26
313.71	6.52
313.922	6.61
314.134	6.36
314.346	7.01
314.558	7.31
314.77	7.27
314.982	7.17
315.193	6.99
315.405	7.08
315.617	6.85
315.829	6.65
316.041	6.18
316.253	6.44
316.465	6.89
316.677	6.35
316.888	6.42
317.1	6.19
317.312	6.25
317.524	6.65
317.736	6.91
317.947	7.32
318.159	7.67
318.371	8.38
318.583	8.34
318.794	8.25
319.006	8.09
319.218	8.03
319.43	8.19
319.641	8.02
319.853	7.49
320.064	7.48
320.276	6.98
320.488	7.15
320.699	7.38
320.911	7.23
321.123	7.37
321.334	7.73
321.546	8.04
321.757	8.68
321.969	8.83
322.18	8.71
322.392	8.58
322.603	8.91
322.815	8.97
323.026	8.65
323.238	9.34
323.449	9.33
323.661	9.7
323.872	9.89
324.083	9.41
324.295	9.69
324.506	10.31
324.718	10.8
324.929	11.01
325.14	10.88
325.352	11.03
325.563	11.08
325.774	11.26
325.986	11.45
326.197	11.61
326.408	11.99
326.62	12.53
326.831	12.56
327.042	11.95
327.253	12.33
327.464	12.73
327.676	12.79
327.887	12.78
328.098	12.96
328.309	13.25
328.52	13.38
328.732	13.94
328.943	13.34
329.154	13.67
329.365	14.61
329.576	14.74
329.787	15.52
329.998	15.99
330.209	16.27
330.42	16.98
330.631	17.26
330.842	17.75
331.053	17.66
331.264	18.15
331.475	18.21
331.686	18.04
331.897	18.01
332.108	18
332.319	18.3
332.53	18.6
332.741	18.37
332.952	18.53
333.163	18.36
333.374	18.9
333.585	19.11
333.795	19.65
334.006	19.97
334.217	20.47
334.428	20.52
334.639	20.82
334.849	20.96
335.06	20.92
335.271	20.99
335.482	21.26
335.692	21.35
335.903	21.9
336.114	21.44
336.325	21.72
336.535	22.03
336.746	22.38
336.957	22.06
337.167	22.28
337.378	22.39
337.589	22.41
337.799	22.42
338.01	22.23
338.22	21.78
338.431	22.09
338.642	22.23
338.852	21.82
339.063	21.65
339.273	21.84
339.484	22.23
339.694	22.32
339.905	22.37
340.115	21.93
340.326	22.21
340.536	22.42
340.746	22.77
340.957	22.61
341.167	22.55
341.378	22.33
341.588	22.23
341.799	21.55
342.009	21.83
342.219	21.88
342.43	22.25
342.64	22.07
342.85	21.99
343.061	21.8
343.271	21.52
343.481	21.82
343.691	21.72
343.902	21.72
344.112	21.71
344.322	21.61
344.532	21.34
344.743	21.31
344.953	21.47
345.163	21.69
345.373	21.19
345.583	21.36
345.793	21.37
346.004	21.59
346.214	21.7
346.424	21.69
346.634	21.49
346.844	21.75
347.054	21.84
347.264	21.65
347.474	21.63
347.684	22.14
347.894	22.07
348.104	22.11
348.314	21.61
348.524	21.67
348.734	21.66
348.944	21.9
349.154	21.91
349.364	21.74
349.574	21.49
349.784	21.34
349.994	21.58
350.204	21.59
350.413	21.25
350.623	21.61
350.833	21.37
351.043	21.68
351.253	21.69
351.463	21.34
351.672	21.24
351.882	21.33
352.092	21.14
352.302	20.78
352.511	20.64
352.721	20.5
352.931	20.45
353.141	20.39
353.35	20.17
353.56	20.08
353.77	20.09
353.979	20.41
354.189	20.33
354.399	20.57
354.608	20.76
354.818	21.02
355.027	21.05
355.237	21
355.447	21.11
355.656	21.01
355.866	20.77
356.075	20.9
356.285	20.7
356.494	20.71
356.704	20.49
356.913	20.08
357.123	19.71
357.332	19.85
357.542	19.74
357.751	19.54
357.96	19.38
358.17	19.41
358.379	19.4
358.589	19.34
358.798	19.32
359.007	19.51
359.217	19.65
359.426	19.83
359.635	19.92
359.845	20.14
360.054	20.05
360.263	20.06
360.472	19.81
360.682	19.89
360.891	19.86
361.1	19.81
361.309	19.66
361.519	19.45
361.728	19.33
361.937	19.28
362.146	19.16
362.355	19.28
362.564	19.25
362.774	19.38
362.983	19.2
363.192	19.32
363.401	19.28
363.61	19.03
363.819	19.29
364.028	19.26
364.237	19
364.446	19.03
364.655	18.96
364.864	19
365.073	19.17
365.282	19.4
365.491	19.29
365.7	19.45
365.909	19.73
366.118	19.63
366.327	19.63
366.536	19.69
366.745	19.53
366.954	19.54
367.162	19.6
367.371	19.51
367.58	19.18
367.789	19.12
367.998	19.23
368.207	19.24
368.415	19.19
368.624	19.2
368.833	19.29
369.042	19.2
369.25	19.21
369.459	19.22
369.668	19.22
369.877	19.28
370.085	19.54
370.294	19.41
370.503	19.04
370.711	18.96
370.92	18.81
371.129	18.87
371.337	19.17
371.546	18.93
371.754	18.86
371.963	18.69
372.171	18.81
372.38	18.63
372.589	18.47
372.797	18.71
373.006	18.64
373.214	18.84
373.423	18.89
373.631	18.8
373.84	18.9
374.048	18.79
374.256	18.93
374.465	19.09
374.673	18.96
374.882	18.92
375.09	19.03
375.298	19.13
375.507	19.06
375.715	19.03
375.923	18.9
376.132	19.16
376.34	19.18
376.548	19.28
376.757	19.11
376.965	19.43
377.173	19.45
377.381	19.27
377.59	19.34
377.798	19.31
378.006	19.19
378.214	18.89
378.423	18.61
378.631	18.71
378.839	18.43
379.047	18.3
379.255	17.98
379.463	18.04
379.671	18.3
379.879	18.24
380.088	18.35
380.296	18.27
380.504	18.57
380.712	18.7
380.92	18.72
381.128	19.07
381.336	19.01
381.544	18.94
381.752	18.78
381.96	18.54
382.168	18.33
382.376	18.46
382.584	18.2
382.791	18.22
382.999	18.16
383.207	17.99
383.415	17.65
383.623	17.67
383.831	17.71
384.039	17.91
384.247	17.8
384.454	17.93
384.662	17.68
384.87	17.9
385.078	18.02
385.285	18.18
385.493	18.36
385.701	18.55
385.909	18.38
386.116	18.46
386.324	18.43
386.532	18.76
386.739	18.93
386.947	19.13
387.155	19.2
387.362	19.01
387.57	18.79
387.778	18.91
387.985	18.81
388.193	19.01
388.4	19.05
388.608	19.02
388.816	18.75
389.023	18.76
389.231	18.78
389.438	18.72
389.646	18.77
389.853	18.89
390.061	18.47
390.268	18.71
390.475	18.67
390.683	18.59
390.89	18.52
391.098	18.56
391.305	18.56
391.512	18.52
391.72	18.62
391.927	18.68
392.135	18.6
392.342	18.8
392.549	18.69
392.756	18.83
392.964	18.99
393.171	19.07
393.378	19.04
393.586	19.02
393.793	19
394	18.97
394.207	18.86
394.414	18.95
394.622	18.85
394.829	18.86
395.036	18.62
395.243	18.38
395.45	18.24
395.657	18.28
395.864	18.28
396.072	18.22
396.279	18.32
396.486	18.58
396.693	18.52
396.9	18.66
397.107	18.55
397.314	18.54
397.521	18.62
397.728	18.8
397.935	18.95
398.142	18.86
398.349	18.86
398.556	18.59
398.763	18.35
398.97	18.46
399.177	18.63
399.383	18.75
399.59	18.85
399.797	18.86
400.004	18.93
400.211	18.77
400.418	18.86
400.625	18.82
400.831	19
401.038	19.13
401.245	19.17
401.452	19.07
401.658	18.98
401.865	18.82
402.072	18.9
402.279	18.76
402.485	18.75
402.692	18.64
402.899	18.76
403.105	18.7
403.312	18.78
403.519	18.67
403.725	18.65
403.932	18.65
404.138	18.86
404.345	18.71
404.552	18.83
404.758	19.08
404.965	19.15
405.171	19.16
405.378	19.22
405.584	18.9
405.791	18.93
405.997	18.9
406.204	18.95
406.41	18.89
406.617	19.06
406.823	18.77
407.029	18.65
407.236	18.56
407.442	18.33
407.649	18.46
407.855	18.82
408.061	18.8
408.268	18.9
408.474	18.91
408.68	18.95
408.887	18.91
409.093	19.2
409.299	19.12
409.505	19.21
409.712	19.42
409.918	19.23
410.124	19.18
410.33	19.23
410.537	19.15
410.743	19.16
410.949	19.18
411.155	19.29
411.361	19.04
411.567	18.88
411.773	18.85
411.98	18.88
412.186	19.07
412.392	18.93
412.598	18.88
412.804	18.86
413.01	18.79
413.216	18.94
413.422	18.93
413.628	19.11
413.834	19.4
414.04	19.51
414.246	19.44
414.452	19.32
414.658	19.55
414.864	19.5
415.07	19.45
415.275	19.52
415.481	19.42
415.687	19.31
415.893	19.31
416.099	19.15
416.305	19.04
416.511	19.08
416.716	19.12
416.922	18.96
417.128	19.03
417.334	19.09
417.539	19.16
417.745	19.25
417.951	19.23
418.157	19.16
418.362	19.3
418.568	19.38
418.774	19.29
418.979	19.31
419.185	19.46
419.391	19.43
419.596	19.44
419.802	19.36
420.008	19.33
420.213	18.73
420.419	18.84
420.624	18.8
420.83	18.69
421.035	18.76
421.241	18.81
421.446	18.77
421.652	18.92
421.857	18.88
422.063	18.83
422.268	18.84
422.474	19.39
422.679	19.4
422.885	19.39
423.09	19.47
423.295	19.51
423.501	19.41
423.706	19.37
423.911	19.24
424.117	19.22
424.322	19.32
424.527	19.23
424.733	19.29
424.938	19.23
425.143	19.21
425.349	19.15
425.554	19.08
425.759	19.15
425.964	19.2
426.169	19.21
426.375	19.23
426.58	19.22
426.785	19.27
426.99	19.27
427.195	19.3
427.4	19.38
427.605	19.5
427.811	19.5
428.016	19.51
428.221	19.51
428.426	19.61
428.631	19.84
428.836	19.88
429.041	19.95
429.246	19.95
429.451	20.03
429.656	20.1
429.861	20.11
430.066	20.28
430.271	20.27
430.476	20.25
430.681	20.25
430.886	20.12
431.09	20.16
431.295	20.12
431.5	20.17
431.705	20.08
431.91	20.02
432.115	20.03
432.32	19.9
432.524	19.94
432.729	19.99
432.934	19.97
433.139	20
433.343	20
433.548	20.1
433.753	20.01
433.958	20.13
434.162	20.19
434.367	20.24
434.572	20.38
434.776	20.38
434.981	20.45
435.186	20.63
435.39	20.66
435.595	20.7
435.799	20.7
436.004	20.84
436.209	20.86
436.413	20.77
436.618	20.71
436.822	20.58
437.027	20.61
437.231	20.55
437.436	20.41
437.64	20.45
437.845	20.36
438.049	20.34
438.253	20.28
438.458	20.13
438.662	20.18
438.867	20.17
439.071	20.23
439.275	20.15
439.48	20.19
439.684	20.12
439.888	20.06
440.093	20.03
440.297	20.06
440.501	20.04
440.706	20.14
440.91	20.18
441.114	20.21
441.318	20.15
441.523	20.14
441.727	20.12
441.931	20.14
442.135	20.12
442.339	20.13
442.543	20.08
442.748	20.15
442.952	20.11
443.156	20.05
443.36	20.04
443.564	20.12
443.768	20.24
443.972	20.23
444.176	20.24
444.38	20.27
444.584	20.34
444.788	20.3
444.992	20.24
445.196	20.27
445.4	20.33
445.604	20.3
445.808	20.34
446.012	20.3
446.216	20.26
446.42	20.3
446.624	20.28
446.828	20.19
447.032	20.25
447.235	20.33
447.439	20.31
447.643	20.22
447.847	20.35
448.051	20.29
448.254	20.27
448.458	20.3
448.662	20.35
448.866	20.38
449.069	20.37
449.273	20.33
449.477	20.29
449.681	20.24
449.884	20.34
450.088	20.23
450.292	20.37
450.495	20.41
450.699	20.4
450.902	20.2
451.106	20.25
451.31	20.4
451.513	20.61
451.717	20.56
451.92	20.63
452.124	20.58
452.327	20.54
452.531	20.46
452.734	20.5
452.938	20.49
453.141	20.59
453.345	20.65
453.548	20.77
453.752	20.58
453.955	20.64
454.158	20.6
454.362	20.63
454.565	20.71
454.769	20.62
454.972	20.48
455.175	20.46
455.379	20.44
455.582	20.44
455.785	20.3
455.988	20.28
456.192	20.11
456.395	20.05
456.598	20.09
456.801	20.05
457.005	20.09
457.208	20.22
457.411	20.34
457.614	20.34
457.817	20.18
458.021	20.17
458.224	20.26
458.427	20.44
458.63	20.51
458.833	20.51
459.036	20.55
459.239	20.57
459.442	20.54
459.645	20.5
459.848	20.51
460.051	20.6
460.254	20.59
460.457	20.55
460.66	20.54
460.863	20.55
461.066	20.51
461.269	20.42
461.472	20.37
461.675	20.37
461.878	20.37
462.081	20.41
462.284	20.32
462.486	20.33
462.689	20.44
462.892	20.38
463.095	20.43
463.298	20.52
463.5	20.62
463.703	20.73
463.906	20.8
464.109	20.86
464.311	20.96
464.514	21.07
464.717	21.11
464.92	21
465.122	21.05
465.325	21.16
465.528	21.13
465.73	21.21
465.933	21.06
466.135	20.96
466.338	20.98
466.541	20.98
466.743	20.93
466.946	20.86
467.148	20.86
467.351	20.8
467.553	20.57
467.756	20.54
467.958	20.41
468.161	20.53
468.363	20.45
468.566	20.34
468.768	20.3
468.971	20.27
469.173	20.2
469.375	20.27
469.578	20.26
469.78	20.29
469.983	20.34
470.185	20.42
470.387	20.51
470.59	20.65
470.792	20.68
470.994	20.56
471.196	20.59
471.399	20.67
471.601	20.65
471.803	20.68
472.005	20.65
472.208	20.67
472.41	20.7
472.612	20.58
472.814	20.59
473.016	20.7
473.218	20.83
473.421	20.86
473.623	20.86
473.825	21.02
474.027	21.05
474.229	21.22
474.431	21.17
474.633	21.06
474.835	21.06
475.037	21.07
475.239	20.94
475.441	20.94
475.643	20.94
475.845	20.85
476.047	20.72
476.249	20.69
476.451	20.53
476.653	20.59
476.855	20.58
477.057	20.65
477.258	20.63
477.46	20.66
477.662	20.67
477.864	20.68
478.066	20.78
478.268	20.66
478.469	20.73
478.671	20.76
478.873	20.65
479.075	20.73
479.276	20.64
479.478	20.63
479.68	20.58
479.882	20.43
480.083	20.4
480.285	20.35
480.487	20.43
480.688	20.35
480.89	20.42
481.091	20.49
481.293	20.51
481.495	20.53
481.696	20.47
481.898	20.51
482.099	20.53
482.301	20.5
482.502	20.53
482.704	20.51
482.905	20.47
483.107	20.43
483.308	20.39
483.51	20.35
483.711	20.32
483.913	20.34
484.114	20.3
484.315	20.33
484.517	20.31
484.718	20.29
484.92	20.28
485.121	20.26
485.322	20.26
485.524	20.28
485.725	20.3
485.926	20.33
486.127	20.36
486.329	20.42
486.53	20.4
486.731	20.45
486.932	20.41
487.134	20.39
487.335	20.45
487.536	20.42
487.737	20.37
487.938	20.32
488.139	20.34
488.341	20.33
488.542	20.32
488.743	20.32
488.944	20.31
489.145	20.37
489.346	20.46
489.547	20.43
489.748	20.51
489.949	20.52
490.15	20.62
490.351	20.56
490.552	20.59
490.753	20.59
490.954	20.64
491.155	20.64
491.356	20.66
491.557	20.68
491.758	20.73
491.959	20.68
492.159	20.75
492.36	20.73
492.561	20.76
492.762	20.75
492.963	20.75
493.164	20.69
493.364	20.71
493.565	20.72
493.766	20.74
493.967	20.73
494.167	20.85
494.368	20.85
494.569	20.88
494.769	20.89
494.97	20.88
495.171	20.9
495.371	20.91
495.572	20.95
495.773	20.8
495.973	20.78
496.174	20.79
496.375	20.78
496.575	20.85
496.776	20.94
496.976	21.03
497.177	21.06
497.377	21.13
497.578	21.18
497.778	21.19
497.979	21.29
498.179	21.24
498.38	21.32
498.58	21.28
498.78	21.34
498.981	21.25
499.181	21.28
499.382	21.26
499.582	21.25
499.782	21.24
499.983	21.22
500.183	21.22
500.383	21.33
500.584	21.23
500.784	21.22
500.984	21.19
501.184	21.21
501.385	21.24
501.585	21.3
501.785	21.31
501.985	21.34
502.185	21.38
502.386	21.55
502.586	21.56
502.786	21.69
502.986	21.82
503.186	21.84
503.386	21.9
503.586	21.89
503.786	21.94
503.987	21.92
504.187	21.98
504.387	21.9
504.587	21.83
504.787	21.78
504.987	21.68
505.187	21.63
505.387	21.68
505.587	21.65
505.786	21.71
505.986	21.71
506.186	21.72
506.386	21.68
506.586	21.86
506.786	21.86
506.986	21.9
507.186	22
507.386	22
507.585	22.01
507.785	21.97
507.985	21.95
508.185	22
508.384	22.06
508.584	22.07
508.784	22.05
508.984	22.07
509.183	22.13
509.383	22.07
509.583	22.09
509.782	22.12
509.982	22.22
510.182	22.25
510.381	22.21
510.581	22.25
510.781	22.32
510.98	22.35
511.18	22.33
511.379	22.3
511.579	22.35
511.778	22.38
511.978	22.42
512.177	22.44
512.377	22.37
512.576	22.36
512.776	22.4
512.975	22.39
513.175	22.48
513.374	22.6
513.573	22.73
513.773	22.79
513.972	22.8
514.172	22.67
514.371	22.65
514.57	22.78
514.77	22.82
514.969	22.9
515.168	22.89
515.367	22.75
515.567	22.72
515.766	22.64
515.965	22.65
516.164	22.8
516.364	22.89
516.563	22.96
516.762	23.03
516.961	22.98
517.16	22.87
517.359	22.97
517.559	23.04
517.758	23.04
517.957	23.08
518.156	23.11
518.355	23.1
518.554	23.09
518.753	23.06
518.952	23.03
519.151	23.12
519.35	23.28
519.549	23.32
519.748	23.34
519.947	23.42
520.146	23.5
520.345	23.48
520.544	23.46
520.743	23.58
520.942	23.67
521.141	23.72
521.339	23.78
521.538	23.71
521.737	23.82
521.936	23.85
522.135	23.91
522.333	23.91
522.532	24.01
522.731	24.06
522.93	24.1
523.129	24.16
523.327	24.18
523.526	24.18
523.725	24.23
523.923	24.09
524.122	24.06
524.321	24.04
524.519	24.03
524.718	24.07
524.917	24.05
525.115	24
525.314	23.97
525.512	23.96
525.711	23.97
525.909	23.97
526.108	24.02
526.306	24.01
526.505	23.99
526.703	23.97
526.902	23.93
527.1	23.95
527.299	23.99
527.497	24.01
527.696	24.03
527.894	24.02
528.092	23.98
528.291	23.99
528.489	24.06
528.688	24.06
528.886	24.13
529.084	24.17
529.283	24.2
529.481	24.21
529.679	24.23
529.877	24.27
530.076	24.34
530.274	24.38
530.472	24.45
530.67	24.45
530.869	24.47
531.067	24.48
531.265	24.53
531.463	24.56
531.661	24.57
531.859	24.55
532.057	24.58
532.255	24.62
532.454	24.71
532.652	24.7
532.85	24.71
533.048	24.76
533.246	24.83
533.444	24.83
533.642	24.82
533.84	24.85
534.038	24.94
534.236	24.93
534.434	24.92
534.632	24.93
534.83	24.94
535.027	24.96
535.225	25.01
535.423	25.03
535.621	25.13
535.819	25.18
536.017	25.22
536.215	25.18
536.412	25.22
536.61	25.3
536.808	25.29
537.006	25.33
537.203	25.45
537.401	25.49
537.599	25.44
537.797	25.44
537.994	25.52
538.192	25.72
538.39	25.83
538.587	25.96
538.785	26.04
538.983	26.22
539.18	26.36
539.378	26.42
539.575	26.5
539.773	26.58
539.97	26.61
540.168	26.63
540.366	26.59
540.563	26.6
540.761	26.63
540.958	26.64
541.155	26.63
541.353	26.69
541.55	26.7
541.748	26.76
541.945	26.77
542.143	26.79
542.34	26.87
542.537	26.96
542.735	27.05
542.932	27.07
543.129	27.22
543.327	27.38
543.524	27.47
543.721	27.67
543.919	27.85
544.116	28.12
544.313	28.44
544.51	28.71
544.708	28.92
544.905	29.18
545.102	29.46
545.299	29.63
545.496	29.78
545.693	29.9
545.891	29.92
546.088	29.92
546.285	29.91
546.482	29.83
546.679	29.67
546.876	29.57
547.073	29.44
547.27	29.29
547.467	29.18
547.664	29.03
547.861	28.96
548.058	28.91
548.255	28.83
548.452	28.71
548.649	28.54
548.846	28.44
549.043	28.37
549.24	28.32
549.437	28.32
549.633	28.19
549.83	28.2
550.027	27.99
550.224	27.97
550.421	27.98
550.618	27.96
550.814	27.97
551.011	28.06
551.208	28.1
551.405	28.05
551.601	28.02
551.798	28
551.995	27.9
552.191	27.93
552.388	27.83
552.585	27.67
552.781	27.6
552.978	27.62
553.175	27.61
553.371	27.5
553.568	27.47
553.764	27.38
553.961	27.37
554.157	27.37
554.354	27.4
554.55	27.47
554.747	27.6
554.943	27.7
555.14	27.72
555.336	27.68
555.533	27.73
555.729	27.84
555.926	27.85
556.122	27.88
556.318	27.8
556.515	27.7
556.711	27.76
556.907	27.62
557.104	27.46
557.3	27.39
557.496	27.37
557.693	27.29
557.889	27.38
558.085	27.34
558.281	27.33
558.478	27.46
558.674	27.43
558.87	27.42
559.066	27.51
559.262	27.56
559.459	27.63
559.655	27.75
559.851	27.79
560.047	27.68
560.243	27.87
560.439	27.92
560.635	27.88
560.831	28.05
561.027	27.98
561.223	27.98
561.419	27.97
561.615	27.95
561.811	27.81
562.007	27.9
562.203	27.8
562.399	27.79
562.595	27.73
562.791	27.76
562.987	27.79
563.183	27.85
563.379	27.9
563.575	27.95
563.771	27.98
563.966	27.95
564.162	27.84
564.358	27.94
564.554	27.77
564.75	27.74
564.945	27.69
565.141	27.6
565.337	27.5
565.533	27.44
565.728	27.47
565.924	27.41
566.12	27.5
566.315	27.57
566.511	27.53
566.707	27.64
566.902	27.73
567.098	27.72
567.293	27.71
567.489	27.75
567.684	27.78
567.88	27.78
568.076	27.88
568.271	27.86
568.467	27.86
568.662	27.96
568.858	28.03
569.053	27.95
569.248	27.96
569.444	28.06
569.639	28.05
569.835	28.07
570.03	28.13
570.225	28.05
570.421	27.99
570.616	28.05
570.812	27.95
571.007	27.87
571.202	27.99
571.397	28
571.593	27.97
571.788	28.01
571.983	27.99
572.178	27.98
572.374	27.98
572.569	28.04
572.764	27.94
572.959	27.97
573.154	27.98
573.35	27.96
573.545	27.98
573.74	27.94
573.935	28.05
574.13	28.15
574.325	28.09
574.52	28.25
574.715	28.38
574.91	28.46
575.105	28.55
575.3	28.73
575.495	28.87
575.69	29.02
575.885	29.2
576.08	29.26
576.275	29.31
576.47	29.46
576.665	29.4
576.86	29.54
577.055	29.73
577.25	29.77
577.444	29.8
577.639	29.78
577.834	29.85
578.029	29.98
578.224	30.01
578.418	30.09
578.613	30.34
578.808	30.48
579.003	30.52
579.197	30.48
579.392	30.44
579.587	30.56
579.781	30.65
579.976	30.68
580.171	30.69
580.365	30.84
580.56	30.75
580.755	30.62
580.949	30.61
581.144	30.47
581.338	30.57
581.533	30.74
581.727	30.67
581.922	30.7
582.116	30.61
582.311	30.53
582.505	30.46
582.7	30.47
582.894	30.47
583.089	30.64
583.283	30.86
583.478	30.89
583.672	30.88
583.866	30.9
584.061	30.95
584.255	31.14
584.449	31.1
584.644	31.21
584.838	31.31
585.032	31.44
585.226	31.45
585.421	31.27
585.615	31.25
585.809	31.32
586.003	31.36
586.198	31.42
586.392	31.36
586.586	31.54
586.78	31.38
586.974	31.44
587.168	31.38
587.363	31.3
587.557	31.37
587.751	31.36
587.945	31.15
588.139	31.25
588.333	31.2
588.527	31.25
588.721	31.22
588.915	31.25
589.109	31.14
589.303	31.06
589.497	31.02
589.691	30.96
589.885	30.96
590.079	31.21
590.273	31.16
590.466	31.25
590.66	31.22
590.854	31.21
591.048	31.33
591.242	31.51
591.436	31.62
591.629	31.78
591.823	31.95
592.017	32.18
592.211	32.19
592.404	32.15
592.598	32.02
592.792	32.07
592.986	32.02
593.179	31.91
593.373	31.88
593.567	31.9
593.76	31.92
593.954	31.81
594.147	31.57
594.341	31.32
594.535	31.28
594.728	31.33
594.922	31.28
595.115	31.22
595.309	31.18
595.502	31.14
595.696	31.17
595.889	30.98
596.083	30.95
596.276	30.84
596.47	30.84
596.663	30.83
596.856	30.76
597.05	30.81
597.243	30.94
597.437	31.1
597.63	31.21
597.823	31.23
598.017	31.45
598.21	31.45
598.403	31.73
598.596	32.02
598.79	32.18
598.983	32.24
599.176	32.38
599.369	32.24
599.563	32.15
599.756	31.99
599.949	32.17
600.142	31.96
600.335	32.04
600.528	32.03
600.722	31.99
600.915	31.9
601.108	31.79
601.301	31.67
601.494	31.72
601.687	31.85
601.88	31.8
602.073	31.5
602.266	31.61
602.459	31.51
602.652	31.35
602.845	31.16
603.038	31.05
603.231	31.14
603.424	31.04
603.617	31.08
603.809	31.05
604.002	30.99
604.195	31.01
604.388	30.9
604.581	30.95
604.774	30.94
604.966	30.97
605.159	31.15
605.352	31.15
605.545	31.18
605.737	31.2
605.93	31.22
606.123	31.42
606.316	31.73
606.508	31.92
606.701	32.19
606.894	32.36
607.086	32.56
607.279	32.83
607.471	33.01
607.664	33.32
607.857	33.65
608.049	34.05
608.242	34.52
608.434	34.9
608.627	35.79
608.819	36.55
609.012	37.7
609.204	38.93
609.397	40.13
609.589	41.62
609.782	43.2
609.974	44.73
610.166	46.27
610.359	47.95
610.551	49.41
610.743	50.57
610.936	51.74
611.128	52.57
611.32	53.26
611.513	53.55
611.705	53.76
611.897	53.69
612.09	53.45
612.282	52.94
612.474	52.28
612.666	51.77
612.858	51.28
613.051	50.57
613.243	49.93
613.435	49.08
613.627	48.5
613.819	47.81
614.011	47.44
614.203	46.69
614.395	45.87
614.588	45.1
614.78	44.17
614.972	43.13
615.164	42.31
615.356	41.49
615.548	41.04
615.74	40.48
615.932	39.78
616.124	38.91
616.315	38.34
616.507	38.1
616.699	37.64
616.891	37.45
617.083	37.31
617.275	37.09
617.467	36.78
617.659	36.42
617.85	36.09
618.042	36.05
618.234	35.8
618.426	35.74
618.618	35.54
618.809	35.18
619.001	34.91
619.193	34.61
619.384	34.44
619.576	34.49
619.768	34.5
619.959	34.43
620.151	34.34
620.343	34.46
620.534	34.59
620.726	34.54
620.917	34.72
621.109	34.87
621.301	34.99
621.492	35.26
621.684	35.37
621.875	35.43
622.067	35.57
622.258	35.51
622.45	35.68
622.641	35.65
622.832	35.84
623.024	35.98
623.215	36.09
623.407	35.99
623.598	36.18
623.789	36.19
623.981	36.13
624.172	36.14
624.363	36.16
624.555	35.97
624.746	35.89
624.937	35.77
625.129	35.82
625.32	35.71
625.511	35.77
625.702	35.42
625.893	35.45
626.085	35.47
626.276	35.43
626.467	35.52
626.658	35.49
626.849	35.63
627.04	35.63
627.231	35.64
627.422	35.55
627.614	35.42
627.805	35.56
627.996	35.6
628.187	35.74
628.378	35.91
628.569	36.09
628.76	36.32
628.951	36.32
629.142	36.57
629.332	36.81
629.523	37.04
629.714	37.46
629.905	37.7
630.096	37.78
630.287	37.85
630.478	37.79
630.669	37.74
630.859	37.79
631.05	37.77
631.241	37.73
631.432	37.63
631.623	37.59
631.813	37.18
632.004	36.92
632.195	36.79
632.385	36.37
632.576	36.27
632.767	36.12
632.957	35.87
633.148	35.68
633.339	35.35
633.529	34.9
633.72	34.77
633.91	34.82
634.101	34.69
634.292	34.51
634.482	34.51
634.673	34.44
634.863	34.36
635.054	34.22
635.244	34.11
635.435	34.23
635.625	34.28
635.815	34.1
636.006	34.14
636.196	34.24
636.387	34.18
636.577	34.3
636.767	34.2
636.958	34.05
637.148	33.95
637.338	33.98
637.529	33.97
637.719	34.17
637.909	34.3
638.099	34.3
638.29	34.08
638.48	33.99
638.67	33.94
638.86	33.95
639.05	34.05
639.241	34.32
639.431	34.66
639.621	34.51
639.811	34.39
640.001	34.59
640.191	34.65
640.381	34.81
640.571	34.9
640.761	34.86
640.951	34.66
641.141	34.7
641.331	34.54
641.521	34.21
641.711	34.33
641.901	34.47
642.091	34.27
642.281	34.31
642.471	34.14
642.661	34.42
642.851	34.46
643.041	34.75
643.231	34.81
643.42	34.83
643.61	35.21
643.8	35.46
643.99	35.39
644.18	35.47
644.369	35.52
644.559	35.73
644.749	35.75
644.939	35.87
645.128	36
645.318	35.97
645.508	36.26
645.697	35.96
645.887	35.89
646.076	35.82
646.266	35.85
646.456	35.82
646.645	35.75
646.835	35.49
647.024	35.13
647.214	35.11
647.403	35.31
647.593	35.29
647.782	35.46
647.972	35.57
648.161	35.85
648.351	36.23
648.54	36.32
648.73	36.46
648.919	36.64
649.108	37.07
649.298	37.1
649.487	37.22
649.677	37.14
649.866	37.18
650.055	37.08
650.244	36.85
650.434	36.67
650.623	36.6
650.812	36.58
651.002	36.36
651.191	36.69
651.38	36.66
651.569	36.68
651.758	36.51
651.947	36.41
652.137	36.35
652.326	36.64
652.515	36.74
652.704	36.97
652.893	36.87
653.082	36.99
653.271	36.63
653.46	36.7
653.649	36.57
653.838	36.74
654.027	36.91
654.216	36.84
654.405	36.69
654.594	36.53
654.783	36.34
654.972	36.36
655.161	36.6
655.35	36.52
655.539	36.53
655.728	36.59
655.916	36.5
656.105	36.58
656.294	37.22
656.483	37.32
656.672	37.44
656.86	37.37
657.049	37.45
657.238	37.48
657.427	37.37
657.615	37.26
657.804	37.16
657.993	37.27
658.181	36.98
658.37	36.65
658.559	36.54
658.747	36.32
658.936	36.46
659.125	36.26
659.313	36.08
659.502	36.33
659.69	36.44
659.879	36.51
660.067	36.43
660.256	36.78
660.444	36.79
660.633	36.85
660.821	37.08
661.01	36.97
661.198	37.34
661.387	37.67
661.575	37.77
661.763	37.83
661.952	37.91
662.14	38.25
662.328	38.22
662.517	38.15
662.705	38.29
662.893	38.29
663.082	38.57
663.27	38.47
663.458	38.47
663.646	38.56
663.834	38.79
664.023	38.6
664.211	38.36
664.399	38.14
664.587	38.2
664.775	38.25
664.963	38.1
665.152	37.99
665.34	37.87
665.528	38.04
665.716	37.77
665.904	37.51
666.092	37.69
666.28	37.87
666.468	37.94
666.656	38.09
666.844	38.16
667.032	38.19
667.22	38.13
667.408	38.29
667.596	37.96
667.784	38.09
667.971	38.16
668.159	38.11
668.347	37.8
668.535	38.1
668.723	38
668.911	37.92
669.098	38.26
669.286	38.51
669.474	38.33
669.662	38.42
669.849	38.3
670.037	38.3
670.225	38.14
670.413	38.3
670.6	37.9
670.788	37.85
670.976	38.04
671.163	38.02
671.351	37.87
671.538	38.17
671.726	38.19
671.913	38.42
672.101	38.49
672.289	38.85
672.476	38.94
672.664	39.31
672.851	39.51
673.039	39.2
673.226	39.15
673.413	39.15
673.601	39.35
673.788	39.65
673.976	39.67
674.163	40.05
674.35	39.87
674.538	40.06
674.725	39.94
674.912	39.97
675.1	40.05
675.287	40.26
675.474	40.42
675.662	40.36
675.849	40.03
676.036	39.96
676.223	40
676.411	40.2
676.598	39.96
676.785	39.87
676.972	39.78
677.159	39.93
677.346	39.77
677.533	39.67
677.721	39.5
677.908	39.69
678.095	39.57
678.282	39.49
678.469	39.22
678.656	39.24
678.843	39.32
679.03	39.22
679.217	39.25
679.404	39.14
679.591	39.3
679.778	39.42
679.964	39.31
680.151	39.22
680.338	39.1
680.525	39.17
680.712	39.29
680.899	39.42
681.086	39.64
681.272	39.61
681.459	39.93
681.646	39.7
681.833	39.81
682.02	40.04
682.206	40.09
682.393	40.04
682.58	40.38
682.766	40.49
682.953	40.5
683.14	40.71
683.326	40.91
683.513	40.72
683.7	40.79
683.886	40.71
684.073	40.33
684.259	40.7
684.446	40.96
684.632	40.95
684.819	40.66
685.005	40.66
685.192	40.78
685.378	40.78
685.565	40.8
685.751	41.17
685.938	41.28
686.124	41.56
686.31	41.88
686.497	41.82
686.683	41.82
686.87	41.9
687.056	41.96
687.242	41.72
687.429	41.59
687.615	41.59
687.801	41.45
687.987	41.32
688.174	41.71
688.36	41.54
688.546	41.5
688.732	41.52
688.918	41.77
689.105	41.65
689.291	41.91
689.477	41.82
689.663	41.78
689.849	41.81
690.035	41.88
690.221	41.56
690.407	41.51
690.593	41.45
690.779	41.27
690.965	41.28
691.151	41.6
691.337	41.46
691.523	41.74
691.709	41.84
691.895	42.17
692.081	42.3
692.267	42.44
692.453	42.46
692.639	42.8
692.825	43.2
693.011	43.14
693.196	43.15
693.382	43.15
693.568	43.4
693.754	43.36
693.94	42.76
694.125	43.03
694.311	43.12
694.497	42.93
694.682	42.65
694.868	42.59
695.054	42.87
695.239	43.09
695.425	42.88
695.611	42.68
695.796	42.85
695.982	43.18
696.168	42.72
696.353	42.32
696.539	42.11
696.724	41.98
696.91	42.18
697.095	41.94
697.281	41.46
697.466	41.6
697.652	41.6
697.837	41.68
698.023	41.45
698.208	41.42
698.393	41.74
698.579	41.96
698.764	42.03
698.949	41.6
699.135	41.56
699.32	41.86
699.505	41.76
699.691	41.67
699.876	41.53
700.061	41.71
700.246	41.85
700.432	41.79
700.617	41.98
700.802	41.96
700.987	42.4
701.172	42.13
701.358	42.26
701.543	42.69
701.728	42.7
701.913	42.65
702.098	42.79
702.283	43.26
702.468	43.39
702.653	43.35
702.838	44.14
703.023	44.11
703.208	45.18
703.393	44.87
703.578	44.73
703.763	45.12
703.948	45.72
704.133	46.21
704.318	46.25
704.503	46.54
704.688	47.02
704.873	47
705.057	47.48
705.242	47.8
705.427	48.34
705.612	48.73
705.797	49.03
705.981	49.1
706.166	49.47
706.351	49.93
706.536	50.24
706.72	50.12
706.905	50.64
707.09	50.89
707.274	50.68
707.459	50.97
707.644	51.16
707.828	51.3
708.013	51.28
708.197	50.92
708.382	50.66
708.567	50.5
708.751	50.52
708.936	49.82
709.12	49.48
709.305	49.31
709.489	49.28
709.673	48.99
709.858	48.82
710.042	49.02
710.227	49.01
710.411	48.96
710.596	48.7
710.78	48.82
710.964	49.03
711.149	49.12
711.333	49.28
711.517	49.19
711.702	49.1
711.886	49.45
712.07	49.35
712.254	49.09
712.438	48.89
712.623	49.29
712.807	49.09
712.991	48.8
713.175	48.58
713.359	48.32
713.544	47.81
713.728	47.58
713.912	46.58
714.096	45.99
714.28	45.94
714.464	45.63
714.648	44.88
714.832	44.49
715.016	44.08
715.2	43.62
715.384	43.63
715.568	43.83
715.752	44
715.936	44.4
716.12	44.87
716.304	44.84
716.488	45.06
716.671	44.95
716.855	45.33
717.039	45.58
717.223	45.53
717.407	45.53
717.59	45.03
717.774	44.9
717.958	44.71
718.142	44.18
718.325	44.01
718.509	43.91
718.693	43.99
718.877	43.71
719.06	43.77
719.244	43.86
719.428	43.99
719.611	44.54
719.795	44.75
719.978	45.12
720.162	45.49
720.345	45.83
720.529	45.6
720.713	45.76
720.896	46.06
721.08	45.79
721.263	46.26
721.446	46.26
721.63	46.12
721.813	45.92
721.997	45.73
722.18	45.45
722.364	45.28
722.547	45.47
722.73	45.35
722.914	45.52
723.097	46.23
723.28	46.14
723.464	46.12
723.647	46.82
723.83	47.23
724.013	46.87
724.197	47.24
724.38	47.16
724.563	47.58
724.746	48.05
724.929	47.46
725.112	46.95
725.296	47.52
725.479	46.97
725.662	46.39
725.845	45.72
726.028	46.17
726.211	45.91
726.394	45.57
726.577	45.01
726.76	44.77
726.943	45
727.126	45.17
727.309	44.3
727.492	44.71
727.675	44.74
727.858	44.84
728.041	44.46
728.224	44.82
728.407	45.37
728.589	46
728.772	46.32
728.955	46.41
729.138	46.01
729.321	46.46
729.503	46.67
729.686	46.86
729.869	46.93
730.052	46.58
730.234	46.58
730.417	46.58
730.6	46.06
730.782	46.23
730.965	46.17
731.148	46.57
731.33	46.89
731.513	46.99
731.695	47.12
731.878	47.53
732.061	48.28
732.243	48.26
732.426	48.6
732.608	48.67
732.791	48.2
732.973	48.11
733.156	48.04
733.338	47.88
733.52	47.95
733.703	47.91
733.885	47.56
734.068	47.73
734.25	47.85
734.432	47.52
734.615	47.54
734.797	48.03
734.979	48.51
735.162	48.43
735.344	48.5
735.526	48.8
735.708	48.99
735.891	49.8
736.073	49.72
736.255	49.3
736.437	49.22
736.619	49.96
736.802	49.87
736.984	49.64
737.166	49.92
737.348	49.78
737.53	49.27
737.712	48.96
737.894	47.72
738.076	47.34
738.258	47.16
738.44	47.16
738.622	46.55
738.804	46.73
738.986	46.61
739.168	46.72
739.35	46.92
739.532	46.92
739.714	47.22
739.896	48.61
740.078	49.54
740.259	50.17
740.441	50.6
740.623	50.97
740.805	50.51
740.987	50.77
741.168	51.32
741.35	51.43
741.532	51.53
741.714	51.38
741.895	51.08
742.077	50.91
742.259	50.95
742.44	51.43
742.622	51.38
742.804	51.52
742.985	51.19
743.167	51.16
743.348	51.26
743.53	50.9
743.711	51.44
743.893	51.39
744.075	50.64
744.256	50.91
744.438	50.34
744.619	49.84
744.8	49.8
744.982	50.4
745.163	50.62
745.345	50.63
745.526	51.21
745.707	50.22
745.889	50.17
746.07	50.35
746.252	50.43
746.433	50.84
746.614	51.93
746.795	52
746.977	52.03
747.158	51.4
747.339	51.48
747.52	51.66
747.702	52.32
747.883	52.56
748.064	52.65
748.245	51.98
748.426	51
748.607	50.37
748.788	51.12
748.97	50.97
749.151	50.73
749.332	50.14
749.513	50.3
749.694	50.24
749.875	49.64
750.056	50
750.237	50.68
750.418	51.97
750.599	52.6
750.78	51.8
750.96	52.33
751.141	52.39
751.322	53.26
751.503	52.57
751.684	52.23
751.865	52.53
752.046	53.38
752.226	53.98
752.407	53.55
752.588	53.79
752.769	54.94
752.949	53.93
753.13	54.64
753.311	54.44
753.492	53.76
753.672	54.66
753.853	54.21
754.034	53.06
754.214	52.16
754.395	51.86
754.575	51.35
754.756	50.32
754.937	50.89
755.117	50.75
755.298	50.24
755.478	50.83
755.659	50.17
755.839	49.97
756.02	50.44
756.2	50.71
756.381	50.93
756.561	50.98
756.741	51.2
756.922	51.29
757.102	50.75
757.283	51.06
757.463	50.78
757.643	50.92
757.823	51.12
758.004	50.38
758.184	50.03
758.364	49.42
758.545	49.02
758.725	49.35
758.905	48.98
759.085	49.14
759.265	48.9
759.446	49.07
759.626	48.7
759.806	48.64
759.986	49.11
760.166	48.89
760.346	49.34
760.526	49.44
760.706	48.99
760.886	48.52
761.066	48.43
761.246	48.75
761.426	49
761.606	48.4
761.786	48.41
761.966	47.98
762.146	47.88
762.326	47.7
762.506	47.53
762.686	47.49
762.866	47.63
763.046	47.61
763.225	47.15
763.405	46.96
763.585	47.04
763.765	47.06
763.945	47.2
764.124	47.25
764.304	46.78
764.484	46.97
764.664	47
764.843	47.27
765.023	47.08
765.203	47.29
765.382	47.63
765.562	48.34
765.741	47.95
765.921	48.19
766.101	48.68
766.28	49.26
766.46	49.52
766.639	49.69
766.819	49.75
766.998	50.39
767.178	50.29
767.357	50.16
767.537	49.78
767.716	50.54
767.896	50.4
768.075	50.2
768.254	51.26
768.434	51.74
768.613	51.49
768.792	51.79
768.972	52.44
769.151	52.35
769.33	52.72
769.51	53.03
769.689	53.21
769.868	53.05
770.047	53.28
770.226	52.88
770.406	52.75
770.585	52.41
770.764	52.76
770.943	51.94
771.122	52.18
771.301	52.42
771.48	52.93
771.66	53.68
771.839	54.32
772.018	54.35
772.197	53.98
772.376	54.08
772.555	55.35
772.734	55.44
772.913	56.01
773.092	56.06
773.271	55.89
773.449	55.41
773.628	54.89
773.807	55.43
773.986	54.55
774.165	55.2
774.344	55.49
774.523	55.51
774.701	54.9
774.88	55.25
775.059	56
775.238	55.82
775.417	55.67
775.595	56.21
775.774	55.59
775.953	57.3
776.131	56.78
776.31	55.87
776.489	55.94
776.667	56.21
776.846	55.71
777.025	54.7
777.203	54.06
777.382	55.43
777.56	54.48
777.739	54.82
777.917	53.89
778.096	54.1
778.274	54.12
778.453	54.18
778.631	54.54
778.81	55.13
778.988	55.47
779.166	57.17
779.345	56.89
779.523	56.94
779.702	56.98
779.88	57.2
780.058	56.66
780.237	57.48
780.415	57.95
780.593	57.68
780.771	56.86
780.95	58.03
781.128	57.86
781.306	56.6
781.484	57.47
781.662	57.76
781.841	57.91
782.019	57.71
782.197	57.16
782.375	56.26
782.553	55.76
782.731	56.28
782.909	55.52
783.087	55.19
783.265	55.28
783.443	55.89
783.621	55.37
783.799	55
783.977	55.56
784.155	55.5
784.333	55.92
784.511	56.49
784.689	55.87
784.867	56.74
785.045	55.95
785.223	55.53
785.4	53.82
785.578	53.62
785.756	53.86
785.934	54.67
786.112	54.14
786.289	53.57
786.467	53.21
786.645	53.37
786.823	52.74
787	52.79
787.178	53.38
787.356	52.76
787.533	53.09
787.711	54.22
787.889	52.8
788.066	53.32
788.244	53.34
788.421	53.22
788.599	53.41
788.776	53.01
788.954	53.2
789.131	53.83
789.309	55.11
789.486	55.49
789.664	53.89
789.841	54.95
790.019	54.8
790.196	54.61
790.373	54.35
790.551	54.73
790.728	55.03
790.906	54.66
791.083	54.08
791.26	54.22
791.437	53.83
791.615	53.75
791.792	53.88
791.969	53.91
792.146	54.6
792.324	55.56
792.501	55.72
792.678	56.47
792.855	57.08
793.032	57.36
793.209	57.7
793.387	59.02
793.564	60.26
793.741	60.65
793.918	60.04
794.095	59.41
794.272	60.07
794.449	59.68
794.626	58.01
794.803	58.25
794.98	58.5
795.157	59.01
795.334	57.37
795.511	56.82
795.688	55.52
795.864	55.79
796.041	56.39
796.218	55.81
796.395	55.44
796.572	55.59
796.749	55
796.925	54.3
797.102	53.73
797.279	54.31
797.456	53.7
797.632	54.19
797.809	53.76
797.986	54.22
798.162	53.57
798.339	53.17
798.516	53.93
798.692	54.07
798.869	53.58
799.046	53.38
799.222	52.78
799.399	54
799.575	53.74
799.752	55.55
799.928	54.37
800.105	54.65
800.281	54.66
800.458	55.64
800.634	55.99
800.811	56.5
800.987	55.81
801.163	56.57
801.34	56.23
801.516	56.43
801.692	55.86
801.869	55.9
802.045	56.3
802.221	58.01
802.398	56.66
802.574	56.83
802.75	56.51
802.926	56.42
803.103	55.78
803.279	55.93
803.455	56.64
803.631	56.05
803.807	58.17
803.983	57.15
804.16	55.47
804.336	54.85
804.512	54.45
804.688	54.52
804.864	55.65
805.04	55.68
805.216	54.46
805.392	52.59
805.568	53.35
805.744	50.89
805.92	50.66
806.096	50.54
806.272	50.59
806.448	51.68
806.623	51.83
806.799	51.22
806.975	51.5
807.151	53.02
807.327	53.31
807.503	53.53
807.678	55.22
807.854	56.04
808.03	57.18
808.206	57.93
808.381	56.4
808.557	57.6
808.733	56.82
808.908	56.87
809.084	57.09
809.26	58.76
809.435	58.98
809.611	58.55
809.787	58.05
809.962	57.55
810.138	59.71
810.313	60.53
810.489	60.35
810.664	61.54
810.84	60.44
811.015	58.89
811.191	57.78
811.366	57.56
811.542	59.38
811.717	60.94
811.892	62.63
812.068	60.14
812.243	59.14
812.419	58.95
812.594	58.19
812.769	59.38
812.944	59.64
813.12	59.53
813.295	59.53
813.47	56.63
813.645	56.5
813.821	53.59
813.996	54.34
814.171	53.83
814.346	54.31
814.521	55.89
814.697	53.81
814.872	54.55
815.047	54.68
815.222	55.29
815.397	55.28
815.572	55.59
815.747	54.14
815.922	53.5
816.097	54.74
816.272	53.19
816.447	52.8
816.622	53.69
816.797	52.74
816.972	52.86
817.147	52.28
817.322	52.81
817.496	51.95
817.671	54.69
817.846	53.8
818.021	52.43
818.196	53.09
818.371	51.42
818.545	52.6
818.72	53.18
818.895	54.36
819.069	53.45
819.244	53
819.419	52.5
819.594	52.16
819.768	52.29
819.943	51.66
820.117	50.94
820.292	50.62
820.467	48.76
820.641	48.18
820.816	46.49
820.99	45.95
821.165	45.31
821.339	44.67
821.514	43.76
821.688	43.4
821.863	43.34
822.037	43.07
822.212	42.81
822.386	42.48
822.56	42.01
822.735	41.95
822.909	41.73
823.084	41.55
823.258	41.59
823.432	41.65
823.606	41.54
823.781	41.38
823.955	41.2
824.129	41.05
824.303	41.25
824.478	41.32
824.652	41.45
824.826	41.87
825	41.96
825.174	42.27
825.348	42.49
825.523	42.79
825.697	42.82
825.871	42.92
826.045	43.83
826.219	44.42
826.393	44.42
826.567	44.83
826.741	44.32
826.915	44.41
827.089	43.28
827.263	43.45
827.437	43.77
827.611	44.04
827.784	44.65
827.958	43.9
828.132	43.26
828.306	43.61
828.48	43.36
828.654	43.56
828.827	43.6
829.001	45.07
829.175	44.57
829.349	44.21
829.522	44.73
829.696	44.94
829.87	46.48
830.044	48.05
830.217	47.85
830.391	47.37
830.565	46.74
830.738	47.73
830.912	46.75
831.085	47.57
831.259	47.86
831.432	47.87
831.606	45.73
831.779	44.8
831.953	43.83
832.126	45.2
832.3	45.44
832.473	45.74
832.647	45.04
832.82	44.5
832.994	44.41
833.167	44.18
833.34	44.53
833.514	45.51
833.687	45.6
833.86	45.12
834.034	44.6
834.207	44.31
834.38	44.5
834.553	44.44
834.727	44.58
834.9	44.53
835.073	44.12
835.246	43.28
835.419	43.04
835.593	42.26
835.766	42.98
835.939	44.32
836.112	44.95
836.285	45
836.458	45.79
836.631	46.64
836.804	47.23
836.977	48.65
837.15	50.21
837.323	51.1
837.496	53.09
837.669	53.86
837.842	52.51
838.015	54.52
838.188	54.31
838.361	53.36
838.533	54.12
838.706	54.54
838.879	55.07
839.052	55.44
839.225	56.18
839.398	53.79
839.57	53.55
839.743	53.3
839.916	52.18
840.088	52.67
840.261	52.83
840.434	53.29
840.607	54.35
840.779	53.43
840.952	51.98
841.124	51.32
841.297	52.9
841.47	52.46
841.642	52.8
841.815	54.15
841.987	56.2
842.16	58.98
842.332	58.65
842.505	59.08
842.677	58.89
842.85	60.34
843.022	62.2
843.194	65.98
843.367	68.15
843.539	68.7
843.712	69.69
843.884	65.89
844.056	65.43
844.229	65.37
844.401	64
844.573	67.87
844.745	67.83
844.918	65.64
845.09	61.75
845.262	62.22
845.434	65.19
845.606	63.44
845.779	65.82
845.951	65.38
846.123	66.27
846.295	66.36
846.467	67.49
846.639	69.61
846.811	76.03
846.983	76.87
847.155	78.7
847.327	75.67
847.499	74.87
847.671	80.53
847.843	79.15
848.015	77.82
848.187	77.22
848.359	72.96
848.531	71.37
848.703	68.31
848.875	67.12
849.047	64.6
849.218	63.95
849.39	67.12
849.562	64.62
849.734	63.99
849.905	66.63
850.077	66.62
850.249	70.22
850.421	72.02
850.592	70.9
850.764	70.7
850.936	72.06
851.107	72.11
851.279	69.85
851.451	69.35
851.622	73.94
851.794	76.18
851.965	77.74
852.137	76.95
852.308	75.63
852.48	75.42
852.651	77.66
852.823	74.26
852.994	76.39
853.166	80.91
853.337	81.3
853.509	79.53
853.68	79.07
853.851	78.77
854.023	80.94
854.194	80.95
854.365	81.73
854.537	80.27
854.708	79.88
854.879	79.83
855.05	74.24
855.222	73.31
855.393	70.15
855.564	70.25
855.735	68.65
855.906	63.07
856.078	63.2
856.249	63.02
856.42	65.13
856.591	67.52
856.762	66.55
856.933	68.86
857.104	63.44
857.275	69.16
857.446	65.23
857.617	66.46
857.788	70.42
857.959	71.64
858.13	69.75
858.301	75.82
858.472	77.17
858.643	77.97
858.814	79.87
858.985	88.3
859.155	84.65
859.326	82.55
859.497	80.31
859.668	76.4
859.839	70.46
860.009	74.71
860.18	71.25
860.351	64.39
860.522	63.01
860.692	60.74
860.863	60.21
861.034	60.46
861.204	62.93
861.375	64.72
861.546	71.73
861.716	75.92
861.887	72.44
862.057	66.37
862.228	71.11
862.398	76.25
862.569	76.17
862.739	69.48
862.91	66.09
863.08	65.92
863.251	64.8
863.421	60.74
863.592	62.65
863.762	58.21
863.932	60.5
864.103	62.59
864.273	63.01
864.443	62.61
864.614	65.97
864.784	69.32
864.954	71.46
865.125	78.47
865.295	76.21
865.465	72.45
865.635	75.4
865.805	75.09
865.976	73.27
866.146	71.67
866.316	77.77
866.486	79.46
866.656	84.11
866.826	83.68
866.996	79.12
867.166	79.79
867.336	81.34
867.506	83.17
867.676	82.79
867.846	87.22
868.016	89.11
868.186	80.59
868.356	80.35
868.526	69.11
868.696	67.28
868.866	69.1
869.036	69.69
869.206	65.8
869.376	66.58
869.545	67.42
869.715	69.16
869.885	62.24
870.055	66.41
870.224	67.28
870.394	73.89
870.564	75.23
870.734	73.54
870.903	75.13
871.073	83.74
871.243	87.83
871.412	91.52
871.582	87.41
871.751	96.91
871.921	93.88
872.091	79.93
872.26	79.28
872.43	76.62
872.599	79.52
872.769	78.11
872.938	76.15
873.108	74.09
873.277	66.77
873.446	66.71
873.616	60.72
873.785	60.88
873.955	66.4
874.124	68.75
874.293	74.28
874.463	71.61
874.632	73.74
874.801	72.01
874.971	69.53
875.14	73.02
875.309	67.27
875.478	71.05
875.647	71.3
875.817	74.73
875.986	75.67
876.155	72.23
876.324	73.62
876.493	72.38
876.662	73.56
876.831	78.69
877	76.41
877.17	82.63
877.339	79.48
877.508	78.5
877.677	72.13
877.846	66.6
878.015	65
878.184	67.7
878.352	69.56
878.521	69.24
878.69	62.59
878.859	57.93
879.028	48.9
879.197	49.68
879.366	47.89
879.534	50.12
879.703	52.38
879.872	51.63
880.041	44.66
880.21	40.6
880.378	40.35
880.547	39.59
880.716	40.59
880.884	41.5
881.053	41.39
881.222	40.29
881.39	38.85
881.559	36.98
881.727	36.75
881.896	36.5
882.065	35.93
882.233	34.78
882.402	34.27
882.57	34.18
882.739	33.29
882.907	32.8
883.076	33.61
883.244	34.03
883.412	34.61
883.581	34.63
883.749	34.8
883.918	35.47
884.086	35.79
884.254	35.89
884.423	36
884.591	36.92
884.759	37.82
884.927	37.52
885.096	37.22
885.264	38.16
885.432	36.5
885.6	38.31
885.769	39.12
885.937	44.5
886.105	48.24
886.273	50.7
886.441	51.51
886.609	51.41
886.777	53.65
886.945	55.47
887.113	55.7
887.281	57.89
887.449	57.82
887.617	57.16
887.785	53.7
887.953	54.15
888.121	55.97
888.289	54.99
888.457	59.29
888.625	61.07
888.793	61.61
888.961	60.68
889.129	64
889.296	66.9
889.464	69.95
889.632	68.91
889.8	66.22
889.967	63.1
890.135	70.84
