Data from 2938768__Reflection_01.txt Node
Date: Fri Mar 13 15:38:59 EDT 2015
User: robert
Spectrometer: USB4E03002
Autoset integration time: false
Trigger mode: 4
Integration Time (sec): 1.000000E-1
Scans to average: 10
Electric dark correction enabled: false
Nonlinearity correction enabled: false
Boxcar width: 5
Stray light correction enabled: false
XAxis mode: Wavelengths
Stop averaging: false
Number of Pixels in Spectrum: 3648
>>>>>Begin Spectral Data<<<<<
177.575	-24.44
177.794	95.24
178.014	384.62
178.233	482.61
178.452	4450
178.672	196.62
178.891	325.81
179.11	496.08
179.33	-700
179.549	-1980
179.768	142.37
179.987	67.12
180.207	19.15
180.426	22.59
180.645	33.89
180.864	10.53
181.084	22.19
181.303	2.81
181.522	-5.08
181.741	37.41
181.96	46.25
182.179	31.04
182.398	74.52
182.618	45
182.837	27.13
183.056	-11.86
183.275	59.24
183.494	18.03
183.713	56.82
183.932	58.14
184.151	44.87
184.37	29.67
184.589	44.09
184.808	29.29
185.027	37.16
185.246	43.8
185.465	40.35
185.684	24.68
185.903	20.11
186.122	16.71
186.341	15.99
186.56	15.21
186.779	18.77
186.998	-2.78
187.216	-2.45
187.435	0.35
187.654	-31.73
187.873	-0.76
188.092	18.88
188.311	10.02
188.53	28.2
188.748	29.95
188.967	24.3
189.186	-50.32
189.405	97.47
189.623	10.15
189.842	0.37
190.061	4.78
190.28	-61.97
190.498	-161.45
190.717	-61.72
190.936	-190.07
191.154	-142.66
191.373	-64.18
191.592	11.06
191.81	-3.92
192.029	26.32
192.248	23.74
192.466	15.28
192.685	22.26
192.904	44.75
193.122	8.87
193.341	7.51
193.559	3.85
193.778	-22.72
193.996	-50.15
194.215	-38.69
194.433	-85.77
194.652	-164.48
194.87	-228.9
195.089	-430.08
195.307	-319.67
195.526	-79.44
195.744	-60.5
195.963	-75.63
196.181	-74.43
196.399	-44.02
196.618	-68.39
196.836	-99.08
197.055	-120.66
197.273	-29.04
197.491	-22.08
197.71	-15.95
197.928	-27.82
198.146	-23.57
198.365	17.15
198.583	39.47
198.801	53.07
199.019	52.74
199.238	45.5
199.456	41.37
199.674	49.46
199.892	34.1
200.111	31.96
200.329	28.4
200.547	45.39
200.765	13.45
200.983	10.12
201.202	-10.35
201.42	-37.06
201.638	-21.55
201.856	-1.66
202.074	-17.97
202.292	3.64
202.51	-25.55
202.728	3.95
202.946	4.54
203.165	15.14
203.383	20.21
203.601	10.8
203.819	17.56
204.037	2.16
204.255	15.9
204.473	51.45
204.691	41.81
204.909	75.83
205.127	82.37
205.345	91.46
205.562	45.34
205.78	25.93
205.998	48.45
206.216	49.85
206.434	46.47
206.652	23.03
206.87	3.85
207.088	0.12
207.306	-22.01
207.523	-38.41
207.741	-39.24
207.959	-19.38
208.177	-34.47
208.395	-60.28
208.612	-62.26
208.83	-93.79
209.048	-243.24
209.266	-398.82
209.483	-108.67
209.701	-62.25
209.919	-93.53
210.136	-57.99
210.354	-115.26
210.572	-55.7
210.79	-29.43
211.007	-60.96
211.225	-20.54
211.442	13.35
211.66	14.04
211.878	11.11
212.095	9.65
212.313	35.14
212.53	36.55
212.748	35.06
212.966	37.32
213.183	32.99
213.401	41.3
213.618	38.71
213.836	31.67
214.053	28.46
214.271	24.97
214.488	19.96
214.705	15.51
214.923	22.41
215.14	27.75
215.358	38.08
215.575	44.42
215.793	52.71
216.01	43.31
216.227	50.89
216.445	49.14
216.662	39.32
216.879	42.06
217.097	41.57
217.314	35.25
217.531	43.12
217.749	26.35
217.966	13.39
218.183	4.4
218.4	1.73
218.618	-21.71
218.835	-16.63
219.052	-14.18
219.269	-13.14
219.487	-21.75
219.704	-21.52
219.921	-34.89
220.138	-23.07
220.355	-23.37
220.572	-22.69
220.79	-19.24
221.007	-17.5
221.224	-18.39
221.441	-6.03
221.658	-4.6
221.875	-4.24
222.092	-3
222.309	1.3
222.526	-7.66
222.743	-5.04
222.96	-11.22
223.177	-14.39
223.394	-8.6
223.611	-4.42
223.828	-7.27
224.045	-11.15
224.262	-10.07
224.479	-7.98
224.696	-11.14
224.913	-10.87
225.13	-12.82
225.347	-7.08
225.564	-4.57
225.781	-6.95
225.997	-10.78
226.214	-7.4
226.431	-5.01
226.648	-4.41
226.865	-4.41
227.082	-2.9
227.298	-1.28
227.515	-0.95
227.732	-0.26
227.949	-0.57
228.165	0.36
228.382	1.03
228.599	1.26
228.816	1.48
229.032	0.62
229.249	1.13
229.466	1.72
229.682	1.87
229.899	2.08
230.116	2.12
230.332	2.81
230.549	2.69
230.765	3.02
230.982	3.22
231.199	2.4
231.415	4.42
231.632	2.63
231.848	1.02
232.065	0.43
232.281	0.85
232.498	0.04
232.714	-1.37
232.931	-1.07
233.147	-2.6
233.364	-3.68
233.58	-2.99
233.797	-3.79
234.013	-1.19
234.23	-0.71
234.446	-1.32
234.662	-1.48
234.879	-0.55
235.095	-0.47
235.312	-1.87
235.528	-1.18
235.744	-1.66
235.961	-1.01
236.177	-1.35
236.393	-1.67
236.61	-1.49
236.826	-0.36
237.042	-0.93
237.258	-3.67
237.475	-2.5
237.691	-0.51
237.907	0.37
238.123	3.77
238.339	3.71
238.556	3.12
238.772	3.61
238.988	2.64
239.204	2.66
239.42	2.71
239.636	4.95
239.853	3.94
240.069	3.51
240.285	3.27
240.501	0.17
240.717	-0.02
240.933	0.03
241.149	-0.7
241.365	-0.17
241.581	-0.61
241.797	-0.35
242.013	-0.58
242.229	-0.33
242.445	-0.54
242.661	-0.38
242.877	0.37
243.093	0.25
243.309	0.78
243.525	1.01
243.741	1.15
243.957	1.79
244.173	2.07
244.388	2.03
244.604	2.5
244.82	3.27
245.036	2.86
245.252	2.58
245.468	2.71
245.683	2.7
245.899	2.52
246.115	2.21
246.331	1.99
246.547	1.97
246.762	1.87
246.978	1.87
247.194	1.85
247.409	2.23
247.625	2.28
247.841	2.53
248.057	2.11
248.272	2.13
248.488	2.31
248.703	2.19
248.919	2.32
249.135	2.45
249.35	2.32
249.566	1.84
249.782	1.47
249.997	1.57
250.213	1.26
250.428	2.08
250.644	1.89
250.859	1.6
251.075	2.04
251.29	2.01
251.506	1.69
251.721	1.84
251.937	1.78
252.152	1.6
252.368	1.61
252.583	1.48
252.798	1.19
253.014	1.6
253.229	1.58
253.445	1.5
253.66	1.48
253.875	2.11
254.091	1.59
254.306	1.88
254.521	1.38
254.737	0.37
254.952	0.26
255.167	0.72
255.383	0.55
255.598	0.84
255.813	-0.47
256.028	-1.27
256.244	-1.99
256.459	-1.32
256.674	-1.67
256.889	-0.93
257.104	-0.32
257.32	-0.07
257.535	-0.78
257.75	-0.48
257.965	-0.4
258.18	0.48
258.395	0.78
258.61	1.33
258.826	1.33
259.041	1.43
259.256	1.21
259.471	1.19
259.686	1.21
259.901	1.39
260.116	1.15
260.331	1.45
260.546	1.5
260.761	1.54
260.976	1.32
261.191	1.63
261.406	1.68
261.621	1.7
261.836	2.03
262.05	1.78
262.265	1.71
262.48	2.23
262.695	1.57
262.91	1.42
263.125	1.19
263.34	0.74
263.555	-0.3
263.769	-0.33
263.984	-0.19
264.199	-0.17
264.414	-0.26
264.629	-0.43
264.843	-0.82
265.058	-0.69
265.273	-0.55
265.488	-0.43
265.702	0.01
265.917	0.15
266.132	0.27
266.346	0.19
266.561	0.15
266.776	0.58
266.99	0.6
267.205	0.6
267.42	1.04
267.634	0.77
267.849	0.36
268.063	0.18
268.278	0.02
268.492	-0.12
268.707	-0.33
268.922	-0.77
269.136	-1.25
269.351	-1.05
269.565	-0.75
269.78	-0.71
269.994	-0.73
270.209	-0.07
270.423	0.33
270.637	0.74
270.852	0.66
271.066	0.9
271.281	1.06
271.495	1.62
271.709	1.62
271.924	1.29
272.138	0.82
272.353	0.7
272.567	0.77
272.781	0.7
272.996	0.69
273.21	0.56
273.424	0.38
273.638	0.48
273.853	0.19
274.067	0.47
274.281	0.75
274.495	0.85
274.71	1.15
274.924	0.52
275.138	0.43
275.352	0.28
275.566	1.14
275.781	1.37
275.995	1.27
276.209	1.25
276.423	0.84
276.637	0.7
276.851	0.79
277.065	1.17
277.279	1.23
277.493	1.35
277.707	1.31
277.921	1.04
278.135	1.14
278.349	0.76
278.563	0.71
278.777	0.81
278.991	1.1
279.205	0.94
279.419	0.74
279.633	0.87
279.847	0.88
280.061	1.08
280.275	0.82
280.489	0.69
280.703	1.11
280.917	1.47
281.131	1.48
281.344	1.03
281.558	1.23
281.772	0.9
281.986	1.03
282.2	1.21
282.414	1.19
282.627	1.25
282.841	1.37
283.055	1.38
283.269	1.12
283.482	1.31
283.696	1.37
283.91	1.33
284.123	1.56
284.337	1.64
284.551	1.54
284.764	1.47
284.978	1.5
285.192	1.37
285.405	1.52
285.619	1.47
285.833	1.22
286.046	1.47
286.26	1.55
286.473	1.51
286.687	1.21
286.9	1.09
287.114	0.81
287.327	0.66
287.541	0.58
287.754	0.51
287.968	0.45
288.181	0.6
288.395	0.59
288.608	0.51
288.822	0.24
289.035	0.59
289.248	0.35
289.462	0.94
289.675	1.12
289.889	0.96
290.102	0.75
290.315	0.73
290.529	0.62
290.742	0.44
290.955	0.47
291.169	0.76
291.382	0.71
291.595	0.79
291.808	0.32
292.022	0.2
292.235	0.44
292.448	0.38
292.661	0.46
292.875	0.48
293.088	0.66
293.301	0.64
293.514	0.8
293.727	0.66
293.94	0.62
294.153	1.03
294.367	1.27
294.58	1.43
294.793	1.34
295.006	1.48
295.219	1.41
295.432	1.09
295.645	0.93
295.858	0.72
296.071	0.9
296.284	1.14
296.497	1.02
296.71	0.8
296.923	0.73
297.136	1.1
297.349	0.87
297.562	0.95
297.775	1.28
297.988	1.56
298.201	1.6
298.414	1.41
298.626	1.26
298.839	1.16
299.052	1.13
299.265	1.25
299.478	1.02
299.691	1.35
299.903	1.38
300.116	1.16
300.329	1.05
300.542	0.98
300.755	1.2
300.967	1.21
301.18	1.19
301.393	1.3
301.605	1.16
301.818	0.84
302.031	0.62
302.243	0.51
302.456	0.57
302.669	0.45
302.881	0.58
303.094	0.77
303.307	0.9
303.519	1.03
303.732	1.04
303.944	0.76
304.157	1.1
304.37	0.99
304.582	1.03
304.795	1
305.007	1.19
305.22	0.94
305.432	0.87
305.645	0.89
305.857	0.76
306.069	0.78
306.282	1.22
306.494	1.08
306.707	1.07
306.919	0.74
307.132	0.49
307.344	0.19
307.556	0.42
307.769	0.31
307.981	0.26
308.193	0.33
308.406	0.37
308.618	0.43
308.83	0.44
309.043	0.77
309.255	0.93
309.467	0.87
309.679	0.9
309.892	1.1
310.104	1.12
310.316	1.45
310.528	1.35
310.74	1.46
310.953	1.41
311.165	1.75
311.377	1.51
311.589	1.61
311.801	1.86
312.013	2.11
312.225	2.04
312.437	2.02
312.649	1.93
312.862	2.14
313.074	2.02
313.286	1.86
313.498	1.68
313.71	1.66
313.922	1.61
314.134	1.72
314.346	1.63
314.558	1.18
314.77	1.09
314.982	1.07
315.193	0.9
315.405	0.71
315.617	0.89
315.829	0.94
316.041	1.15
316.253	1.53
316.465	1.16
316.677	1.08
316.888	1.44
317.1	1.58
317.312	1.69
317.524	1.9
317.736	2.17
317.947	1.82
318.159	2.05
318.371	2.49
318.583	2.35
318.794	2.58
319.006	3.02
319.218	3.14
319.43	3.02
319.641	2.91
319.853	3.15
320.064	3.44
320.276	3.85
320.488	3.89
320.699	3.92
320.911	4.11
321.123	4.4
321.334	4.01
321.546	4.42
321.757	4.96
321.969	5.27
322.18	5.18
322.392	5.06
322.603	5.24
322.815	5.13
323.026	5.21
323.238	5.62
323.449	5.76
323.661	5.92
323.872	5.73
324.083	5.83
324.295	5.54
324.506	5.6
324.718	6
324.929	6.17
325.14	6.37
325.352	6.2
325.563	6.04
325.774	6.28
325.986	6.83
326.197	7.28
326.408	7.61
326.62	8.15
326.831	8.67
327.042	8.77
327.253	9.56
327.464	9.86
327.676	10.45
327.887	10.75
328.098	10.78
328.309	11.17
328.52	11.61
328.732	11.85
328.943	12.34
329.154	12.46
329.365	12.97
329.576	13.15
329.787	13.73
329.998	14.23
330.209	14.92
330.42	15.51
330.631	15.7
330.842	16.41
331.053	16.92
331.264	17.2
331.475	17.7
331.686	18.18
331.897	18.56
332.108	18.8
332.319	19.2
332.53	19.33
332.741	19.66
332.952	19.89
333.163	19.76
333.374	19.8
333.585	20.2
333.795	20.3
334.006	20.28
334.217	20.39
334.428	20.94
334.639	20.95
334.849	21.21
335.06	21.55
335.271	21.54
335.482	22.1
335.692	22.28
335.903	22.14
336.114	22.49
336.325	22.88
336.535	22.88
336.746	22.47
336.957	22.41
337.167	22.42
337.378	22.44
337.589	22.86
337.799	22.4
338.01	22.63
338.22	22.88
338.431	22.85
338.642	22.7
338.852	22.79
339.063	22.94
339.273	23.26
339.484	23.45
339.694	23.32
339.905	23.01
340.115	23.18
340.326	22.82
340.536	22.87
340.746	22.99
340.957	22.95
341.167	22.86
341.378	23.02
341.588	22.81
341.799	22.43
342.009	22.73
342.219	22.86
342.43	22.81
342.64	23.28
342.85	23.03
343.061	23.03
343.271	23.18
343.481	23.11
343.691	23.3
343.902	23.48
344.112	23.71
344.322	23.51
344.532	23.72
344.743	23.61
344.953	23.5
345.163	23.74
345.373	23.65
345.583	23.72
345.793	23.62
346.004	23.55
346.214	23.46
346.424	23.6
346.634	23.55
346.844	23.27
347.054	23.3
347.264	23.26
347.474	23.08
347.684	23.24
347.894	22.93
348.104	23.08
348.314	22.85
348.524	23.01
348.734	23.02
348.944	22.91
349.154	23.01
349.364	23.06
349.574	23.23
349.784	23.25
349.994	22.99
350.204	22.93
350.413	22.73
350.623	22.77
350.833	22.24
351.043	21.95
351.253	22.05
351.463	21.87
351.672	21.88
351.882	21.72
352.092	21.91
352.302	21.96
352.511	22.2
352.721	22.35
352.931	22.22
353.141	22.57
353.35	22.73
353.56	22.66
353.77	22.76
353.979	22.79
354.189	22.67
354.399	22.7
354.608	22.64
354.818	22.52
355.027	22.63
355.237	22.66
355.447	22.62
355.656	22.55
355.866	22.64
356.075	22.64
356.285	22.55
356.494	22.55
356.704	22.32
356.913	22.41
357.123	22.3
357.332	22.07
357.542	22.1
357.751	22.23
357.96	22.2
358.17	22.21
358.379	22.31
358.589	22.25
358.798	22.3
359.007	22.25
359.217	22.18
359.426	22.11
359.635	22.13
359.845	22.32
360.054	22.08
360.263	22
360.472	21.82
360.682	21.57
360.891	21.61
361.1	21.49
361.309	21.45
361.519	21.5
361.728	21.62
361.937	21.62
362.146	21.4
362.355	21.39
362.564	21.51
362.774	21.44
362.983	21.51
363.192	21.41
363.401	21.48
363.61	21.45
363.819	21.42
364.028	21.33
364.237	21.51
364.446	21.38
364.655	21.37
364.864	21.33
365.073	21.45
365.282	21.42
365.491	21.35
365.7	21.24
365.909	21.38
366.118	21.25
366.327	21.28
366.536	21.2
366.745	21.22
366.954	21.27
367.162	21.33
367.371	21.17
367.58	21.17
367.789	21.07
367.998	21.04
368.207	20.88
368.415	20.76
368.624	20.56
368.833	20.45
369.042	20.51
369.25	20.55
369.459	20.35
369.668	20.57
369.877	20.62
370.085	20.77
370.294	20.97
370.503	21.05
370.711	21.15
370.92	21.07
371.129	20.99
371.337	20.98
371.546	20.79
371.754	20.9
371.963	20.76
372.171	20.7
372.38	20.58
372.589	20.41
372.797	20.35
373.006	20.24
373.214	20.46
373.423	20.37
373.631	20.22
373.84	20.09
374.048	19.8
374.256	19.78
374.465	19.5
374.673	19.47
374.882	19.69
375.09	19.63
375.298	19.85
375.507	19.72
375.715	19.91
375.923	19.89
376.132	20.06
376.34	20.09
376.548	20
376.757	20.12
376.965	20.3
377.173	20.01
377.381	19.95
377.59	19.82
377.798	20.01
378.006	19.78
378.214	19.88
378.423	19.99
378.631	20.01
378.839	20.14
379.047	20.36
379.255	20.4
379.463	20.6
379.671	20.46
379.879	20.48
380.088	20.13
380.296	20.24
380.504	20.13
380.712	20.15
380.92	20.09
381.128	19.86
381.336	19.77
381.544	19.59
381.752	19.64
381.96	19.92
382.168	19.96
382.376	20.11
382.584	20.01
382.791	20.41
382.999	20.23
383.207	20.57
383.415	20.94
383.623	20.93
383.831	21.22
384.039	21.05
384.247	21.11
384.454	21.04
384.662	20.89
384.87	21.03
385.078	20.83
385.285	20.9
385.493	20.63
385.701	20.34
385.909	20.21
386.116	19.87
386.324	19.67
386.532	19.63
386.739	19.63
386.947	20.08
387.155	20.02
387.362	19.98
387.57	20.1
387.778	20.05
387.985	20.28
388.193	20.29
388.4	20.41
388.608	20.64
388.816	20.58
389.023	20.76
389.231	20.46
389.438	20.71
389.646	20.73
389.853	20.45
390.061	20.58
390.268	20.56
390.475	20.73
390.683	20.79
390.89	20.76
391.098	20.73
391.305	20.47
391.512	20.52
391.72	20.31
391.927	20.28
392.135	20.28
392.342	20.3
392.549	20.26
392.756	20.2
392.964	20.14
393.171	20.26
393.378	20.16
393.586	20.3
393.793	20.3
394	20.3
394.207	20.35
394.414	20.41
394.622	20.31
394.829	20.48
395.036	20.43
395.243	20.47
395.45	20.32
395.657	20.49
395.864	20.44
396.072	20.33
396.279	20.25
396.486	20.26
396.693	20.46
396.9	20.58
397.107	20.55
397.314	20.62
397.521	20.57
397.728	20.6
397.935	20.82
398.142	20.88
398.349	21.09
398.556	21.18
398.763	21.2
398.97	21.08
399.177	21.06
399.383	20.95
399.59	20.94
399.797	21.03
400.004	21.12
400.211	20.8
400.418	20.72
400.625	20.61
400.831	20.44
401.038	20.5
401.245	20.4
401.452	20.43
401.658	20.34
401.865	20.4
402.072	20.34
402.279	20.26
402.485	20.48
402.692	20.69
402.899	20.56
403.105	20.89
403.312	20.81
403.519	20.84
403.725	20.75
403.932	20.88
404.138	20.85
404.345	20.89
404.552	20.93
404.758	20.78
404.965	20.6
405.171	20.82
405.378	20.69
405.584	20.61
405.791	20.65
405.997	20.75
406.204	20.73
406.41	20.75
406.617	20.75
406.823	20.64
407.029	20.62
407.236	20.68
407.442	20.7
407.649	20.74
407.855	20.88
408.061	20.81
408.268	20.79
408.474	20.85
408.68	20.86
408.887	20.85
409.093	20.96
409.299	20.95
409.505	20.95
409.712	21
409.918	20.88
410.124	21.05
410.33	21.21
410.537	21.07
410.743	21.07
410.949	21.03
411.155	20.93
411.361	20.9
411.567	21.03
411.773	21.07
411.98	20.98
412.186	21.09
412.392	20.82
412.598	20.96
412.804	21.07
413.01	20.98
413.216	21.12
413.422	21.4
413.628	21.3
413.834	21.37
414.04	21.36
414.246	21.28
414.452	21.35
414.658	21.36
414.864	21.09
415.07	21.13
415.275	21.18
415.481	21.25
415.687	21.13
415.893	21.22
416.099	21.14
416.305	21.19
416.511	21.17
416.716	21.04
416.922	21.13
417.128	21.26
417.334	21.32
417.539	21.31
417.745	21.25
417.951	21.32
418.157	21.29
418.362	21.27
418.568	21.34
418.774	21.5
418.979	21.46
419.185	21.44
419.391	21.42
419.596	21.41
419.802	21.44
420.008	21.39
420.213	21.39
420.419	21.44
420.624	21.54
420.83	21.49
421.035	21.43
421.241	21.51
421.446	21.55
421.652	21.57
421.857	21.56
422.063	21.48
422.268	21.53
422.474	21.47
422.679	21.45
422.885	21.36
423.09	21.39
423.295	21.41
423.501	21.38
423.706	21.34
423.911	21.33
424.117	21.35
424.322	21.45
424.527	21.41
424.733	21.37
424.938	21.33
425.143	21.38
425.349	21.36
425.554	21.38
425.759	21.38
425.964	21.38
426.169	21.4
426.375	21.34
426.58	21.29
426.785	21.23
426.99	21.32
427.195	21.36
427.4	21.33
427.605	21.31
427.811	21.32
428.016	21.45
428.221	21.43
428.426	21.4
428.631	21.41
428.836	21.35
429.041	21.51
429.246	21.44
429.451	21.44
429.656	21.38
429.861	21.42
430.066	21.3
430.271	21.3
430.476	21.4
430.681	21.47
430.886	21.49
431.09	21.46
431.295	21.46
431.5	21.61
431.705	21.61
431.91	21.71
432.115	21.63
432.32	21.64
432.524	21.66
432.729	21.74
432.934	21.81
433.139	21.82
433.343	21.98
433.548	22.02
433.753	21.99
433.958	21.97
434.162	22.05
434.367	22.21
434.572	22.43
434.776	22.44
434.981	22.38
435.186	22.47
435.39	22.5
435.595	22.54
435.799	22.51
436.004	22.48
436.209	22.59
436.413	22.5
436.618	22.36
436.822	22.19
437.027	22.12
437.231	22.17
437.436	21.93
437.64	21.97
437.845	21.93
438.049	21.94
438.253	21.98
438.458	22.03
438.662	22.09
438.867	22.16
439.071	22.21
439.275	22.25
439.48	22.14
439.684	22.32
439.888	22.27
440.093	22.19
440.297	22.15
440.501	22.16
440.706	22.04
440.91	22.05
441.114	22.03
441.318	22.01
441.523	22
441.727	21.98
441.931	21.86
442.135	21.87
442.339	21.88
442.543	21.92
442.748	21.94
442.952	22.05
443.156	22.05
443.36	22.07
443.564	22.06
443.768	22.04
443.972	22.12
444.176	22.16
444.38	22.19
444.584	22.24
444.788	22.16
444.992	22.09
445.196	22.11
445.4	22.1
445.604	22.17
445.808	22.21
446.012	22.13
446.216	22.12
446.42	22.03
446.624	22.04
446.828	21.99
447.032	22
447.235	21.95
447.439	21.89
447.643	21.88
447.847	21.84
448.051	21.8
448.254	21.92
448.458	21.94
448.662	22.01
448.866	21.98
449.069	22.07
449.273	22.11
449.477	22.24
449.681	22.32
449.884	22.35
450.088	22.22
450.292	22.19
450.495	22.23
450.699	22.11
450.902	22.08
451.106	22.18
451.31	22.13
451.513	22.13
451.717	22.06
451.92	22.03
452.124	22.01
452.327	22.23
452.531	22.35
452.734	22.29
452.938	22.38
453.141	22.42
453.345	22.44
453.548	22.47
453.752	22.5
453.955	22.56
454.158	22.56
454.362	22.54
454.565	22.45
454.769	22.39
454.972	22.32
455.175	22.25
455.379	22.28
455.582	22.23
455.785	22.17
455.988	22.19
456.192	22.17
456.395	22.05
456.598	21.99
456.801	22.04
457.005	22.07
457.208	22.11
457.411	22.16
457.614	22.18
457.817	22.09
458.021	22.07
458.224	22.05
458.427	22.03
458.63	22.11
458.833	22.18
459.036	22.14
459.239	22.05
459.442	22.03
459.645	22.07
459.848	22.03
460.051	22.08
460.254	22.09
460.457	22.1
460.66	22.11
460.863	22.1
461.066	22.07
461.269	22.07
461.472	22.13
461.675	22.21
461.878	22.21
462.081	22.28
462.284	22.28
462.486	22.34
462.689	22.34
462.892	22.33
463.095	22.4
463.298	22.57
463.5	22.47
463.703	22.55
463.906	22.45
464.109	22.47
464.311	22.43
464.514	22.43
464.717	22.44
464.92	22.44
465.122	22.49
465.325	22.49
465.528	22.31
465.73	22.34
465.933	22.26
466.135	22.27
466.338	22.22
466.541	22.2
466.743	22.2
466.946	22.17
467.148	22.23
467.351	22.25
467.553	22.21
467.756	22.31
467.958	22.32
468.161	22.32
468.363	22.46
468.566	22.41
468.768	22.32
468.971	22.38
469.173	22.3
469.375	22.29
469.578	22.25
469.78	22.18
469.983	21.98
470.185	22
470.387	22.03
470.59	21.92
470.792	21.96
470.994	22.14
471.196	22.1
471.399	22.21
471.601	22.13
471.803	22.21
472.005	22.34
472.208	22.53
472.41	22.54
472.612	22.56
472.814	22.56
473.016	22.53
473.218	22.51
473.421	22.55
473.623	22.58
473.825	22.64
474.027	22.53
474.229	22.5
474.431	22.59
474.633	22.53
474.835	22.49
475.037	22.44
475.239	22.47
475.441	22.49
475.643	22.42
475.845	22.43
476.047	22.49
476.249	22.52
476.451	22.52
476.653	22.38
476.855	22.46
477.057	22.57
477.258	22.66
477.46	22.66
477.662	22.69
477.864	22.74
478.066	22.67
478.268	22.58
478.469	22.58
478.671	22.51
478.873	22.51
479.075	22.51
479.276	22.36
479.478	22.36
479.68	22.41
479.882	22.44
480.083	22.4
480.285	22.55
480.487	22.58
480.688	22.66
480.89	22.73
481.091	22.8
481.293	22.83
481.495	22.88
481.696	22.89
481.898	22.86
482.099	22.83
482.301	22.82
482.502	22.74
482.704	22.76
482.905	22.74
483.107	22.7
483.308	22.66
483.51	22.62
483.711	22.59
483.913	22.56
484.114	22.54
484.315	22.48
484.517	22.46
484.718	22.44
484.92	22.37
485.121	22.36
485.322	22.37
485.524	22.37
485.725	22.42
485.926	22.42
486.127	22.44
486.329	22.45
486.53	22.55
486.731	22.58
486.932	22.62
487.134	22.66
487.335	22.67
487.536	22.65
487.737	22.67
487.938	22.63
488.139	22.65
488.341	22.65
488.542	22.67
488.743	22.56
488.944	22.52
489.145	22.51
489.346	22.53
489.547	22.49
489.748	22.56
489.949	22.55
490.15	22.57
490.351	22.59
490.552	22.59
490.753	22.61
490.954	22.68
491.155	22.7
491.356	22.7
491.557	22.69
491.758	22.74
491.959	22.7
492.159	22.66
492.36	22.65
492.561	22.62
492.762	22.62
492.963	22.63
493.164	22.62
493.364	22.62
493.565	22.63
493.766	22.67
493.967	22.63
494.167	22.63
494.368	22.69
494.569	22.74
494.769	22.8
494.97	22.89
495.171	22.85
495.371	22.88
495.572	22.9
495.773	22.95
495.973	22.98
496.174	23.08
496.375	23.12
496.575	23.1
496.776	23.06
496.976	23.05
497.177	23.04
497.377	23.06
497.578	23.08
497.778	23.2
497.979	23.17
498.179	23.1
498.38	23.13
498.58	23.12
498.78	23.16
498.981	23.15
499.181	23.22
499.382	23.2
499.582	23.17
499.782	23.23
499.983	23.17
500.183	23.2
500.383	23.29
500.584	23.16
500.784	23.23
500.984	23.23
501.184	23.24
501.385	23.27
501.585	23.23
501.785	23.34
501.985	23.23
502.185	23.24
502.386	23.22
502.586	23.16
502.786	23.22
502.986	23.16
503.186	23.17
503.386	23.26
503.586	23.22
503.786	23.27
503.987	23.24
504.187	23.28
504.387	23.3
504.587	23.38
504.787	23.44
504.987	23.41
505.187	23.37
505.387	23.49
505.587	23.54
505.786	23.61
505.986	23.55
506.186	23.53
506.386	23.54
506.586	23.56
506.786	23.56
506.986	23.49
507.186	23.59
507.386	23.65
507.585	23.6
507.785	23.53
507.985	23.5
508.185	23.58
508.384	23.61
508.584	23.69
508.784	23.74
508.984	23.71
509.183	23.79
509.383	23.77
509.583	23.78
509.782	23.87
509.982	23.89
510.182	23.82
510.381	23.84
510.581	23.9
510.781	23.85
510.98	23.88
511.18	23.87
511.379	23.82
511.579	23.84
511.778	23.88
511.978	23.76
512.177	23.77
512.377	23.92
512.576	23.89
512.776	23.86
512.975	23.91
513.175	23.89
513.374	23.91
513.573	23.93
513.773	23.97
513.972	23.99
514.172	24.12
514.371	24.15
514.57	24.17
514.77	24.23
514.969	24.31
515.168	24.34
515.367	24.35
515.567	24.45
515.766	24.57
515.965	24.65
516.164	24.68
516.364	24.72
516.563	24.74
516.762	24.68
516.961	24.77
517.16	24.73
517.359	24.72
517.559	24.69
517.758	24.7
517.957	24.62
518.156	24.56
518.355	24.52
518.554	24.51
518.753	24.6
518.952	24.67
519.151	24.65
519.35	24.69
519.549	24.7
519.748	24.77
519.947	24.72
520.146	24.79
520.345	24.82
520.544	24.86
520.743	24.9
520.942	24.82
521.141	24.85
521.339	24.88
521.538	24.89
521.737	24.88
521.936	24.9
522.135	25.01
522.333	25.13
522.532	25.18
522.731	25.24
522.93	25.3
523.129	25.35
523.327	25.37
523.526	25.46
523.725	25.49
523.923	25.67
524.122	25.79
524.321	25.83
524.519	25.84
524.718	25.89
524.917	25.85
525.115	25.86
525.314	25.94
525.512	25.95
525.711	25.93
525.909	25.93
526.108	25.92
526.306	25.84
526.505	25.89
526.703	25.92
526.902	25.99
527.1	26.05
527.299	26.04
527.497	26.04
527.696	26.03
527.894	26.02
528.092	26.05
528.291	26.03
528.489	26.03
528.688	26.03
528.886	26.01
529.084	25.94
529.283	25.92
529.481	25.93
529.679	25.95
529.877	25.97
530.076	25.96
530.274	25.97
530.472	25.99
530.67	26.03
530.869	26
531.067	26.07
531.265	26.2
531.463	26.26
531.661	26.37
531.859	26.36
532.057	26.41
532.255	26.47
532.454	26.53
532.652	26.61
532.85	26.62
533.048	26.66
533.246	26.69
533.444	26.66
533.642	26.63
533.84	26.61
534.038	26.64
534.236	26.66
534.434	26.69
534.632	26.68
534.83	26.64
535.027	26.71
535.225	26.72
535.423	26.76
535.621	26.82
535.819	26.9
536.017	26.93
536.215	27.01
536.412	27.03
536.61	27.09
536.808	27.16
537.006	27.21
537.203	27.23
537.401	27.32
537.599	27.28
537.797	27.34
537.994	27.53
538.192	27.64
538.39	27.73
538.587	27.89
538.785	27.97
538.983	28.15
539.18	28.31
539.378	28.53
539.575	28.61
539.773	28.77
539.97	28.82
540.168	28.83
540.366	28.85
540.563	28.91
540.761	28.93
540.958	28.96
541.155	29.02
541.353	29.04
541.55	29.07
541.748	29.11
541.945	29.15
542.143	29.21
542.34	29.23
542.537	29.3
542.735	29.34
542.932	29.37
543.129	29.47
543.327	29.56
543.524	29.76
543.721	29.88
543.919	30.07
544.116	30.24
544.313	30.49
544.51	30.77
544.708	30.98
544.905	31.24
545.102	31.51
545.299	31.79
545.496	31.9
545.693	32
545.891	31.97
546.088	31.92
546.285	31.86
546.482	31.61
546.679	31.41
546.876	31.27
547.073	31.09
547.27	30.92
547.467	30.67
547.664	30.5
547.861	30.25
548.058	30.21
548.255	30
548.452	29.98
548.649	30.01
548.846	29.98
549.043	29.91
549.24	29.94
549.437	29.78
549.633	29.64
549.83	29.5
550.027	29.46
550.224	29.24
550.421	29.27
550.618	29.02
550.814	28.99
551.011	28.95
551.208	28.77
551.405	28.69
551.601	28.69
551.798	28.76
551.995	28.69
552.191	28.59
552.388	28.61
552.585	28.52
552.781	28.53
552.978	28.47
553.175	28.49
553.371	28.48
553.568	28.34
553.764	28.35
553.961	28.22
554.157	28.19
554.354	28.11
554.55	28.02
554.747	28.13
554.943	28.06
555.14	28.04
555.336	27.98
555.533	28.03
555.729	28.08
555.926	28
556.122	28.04
556.318	28.03
556.515	28.12
556.711	28.11
556.907	27.92
557.104	28.02
557.3	27.92
557.496	27.85
557.693	27.84
557.889	27.79
558.085	27.85
558.281	27.79
558.478	27.88
558.674	27.87
558.87	27.93
559.066	28.02
559.262	28.07
559.459	28.14
559.655	28.17
559.851	28.24
560.047	28.36
560.243	28.33
560.439	28.36
560.635	28.37
560.831	28.28
561.027	28.3
561.223	28.3
561.419	28.2
561.615	28.16
561.811	28.16
562.007	28.13
562.203	28.02
562.399	28.08
562.595	27.99
562.791	27.87
562.987	27.88
563.183	27.73
563.379	27.78
563.575	27.82
563.771	27.92
563.966	27.96
564.162	27.89
564.358	27.92
564.554	27.86
564.75	28.01
564.945	28.16
565.141	28.19
565.337	28.27
565.533	28.36
565.728	28.34
565.924	28.32
566.12	28.21
566.315	28.4
566.511	28.31
566.707	28.29
566.902	28.24
567.098	28.11
567.293	28.24
567.489	28.2
567.684	28
567.88	28.07
568.076	28.11
568.271	28.25
568.467	28.13
568.662	28.16
568.858	28.22
569.053	28.16
569.248	28.17
569.444	28.01
569.639	28.04
569.835	28.15
570.03	28.01
570.225	28.04
570.421	28.12
570.616	28.07
570.812	28.13
571.007	28.13
571.202	28.21
571.397	28.29
571.593	28.36
571.788	28.43
571.983	28.46
572.178	28.55
572.374	28.46
572.569	28.31
572.764	28.33
572.959	28.31
573.154	28.37
573.35	28.33
573.545	28.29
573.74	28.28
573.935	28.21
574.13	28.23
574.325	28.21
574.52	28.39
574.715	28.53
574.91	28.73
575.105	28.78
575.3	28.79
575.495	28.84
575.69	29.04
575.885	29.17
576.08	29.33
576.275	29.5
576.47	29.66
576.665	29.66
576.86	29.74
577.055	29.75
577.25	29.83
577.444	29.92
577.639	30.09
577.834	30.18
578.029	30.23
578.224	30.26
578.418	30.13
578.613	30.2
578.808	30.25
579.003	30.18
579.197	30.09
579.392	30.14
579.587	30.26
579.781	30.06
579.976	29.92
580.171	29.84
580.365	29.94
580.56	29.96
580.755	29.87
580.949	29.8
581.144	29.83
581.338	29.85
581.533	29.89
581.727	29.75
581.922	29.97
582.116	30.18
582.311	30.3
582.505	30.18
582.7	30.2
582.894	30.24
583.089	30.32
583.283	30.42
583.478	30.45
583.672	30.51
583.866	30.66
584.061	30.53
584.255	30.35
584.449	30.34
584.644	30.49
584.838	30.67
585.032	30.69
585.226	30.87
585.421	30.95
585.615	30.94
585.809	31.08
586.003	31.08
586.198	31.17
586.392	31.13
586.586	31.12
586.78	31.12
586.974	31.04
587.168	31.12
587.363	31.04
587.557	31.04
587.751	31.07
587.945	30.85
588.139	30.87
588.333	30.88
588.527	30.96
588.721	30.95
588.915	30.78
589.109	30.7
589.303	30.66
589.497	30.57
589.691	30.37
589.885	30.45
590.079	30.45
590.273	30.48
590.466	30.54
590.66	30.67
590.854	30.69
591.048	30.81
591.242	30.95
591.436	31.09
591.629	31.15
591.823	31.28
592.017	31.32
592.211	31.47
592.404	31.39
592.598	31.34
592.792	31.22
592.986	31.2
593.179	31.29
593.373	31.16
593.567	31.09
593.76	31.03
593.954	30.97
594.147	30.83
594.341	30.69
594.535	30.6
594.728	30.65
594.922	30.55
595.115	30.43
595.309	30.18
595.502	30.26
595.696	30.21
595.889	30.17
596.083	30.22
596.276	30.28
596.47	30.25
596.663	30.37
596.856	30.43
597.05	30.51
597.243	30.7
597.437	30.81
597.63	30.81
597.823	30.79
598.017	30.89
598.21	30.96
598.403	31.02
598.596	31.19
598.79	31.22
598.983	31.11
599.176	31.25
599.369	31.17
599.563	31.19
599.756	31.29
599.949	31.29
600.142	31.26
600.335	31.13
600.528	31.11
600.722	31.03
600.915	30.91
601.108	30.86
601.301	30.68
601.494	30.67
601.687	30.81
601.88	30.64
602.073	30.68
602.266	30.62
602.459	30.57
602.652	30.5
602.845	30.49
603.038	30.41
603.231	30.41
603.424	30.43
603.617	30.53
603.809	30.38
604.002	30.42
604.195	30.44
604.388	30.46
604.581	30.56
604.774	30.67
604.966	30.69
605.159	30.82
605.352	30.84
605.545	30.9
605.737	30.88
605.93	31.04
606.123	31.21
606.316	31.18
606.508	31.42
606.701	31.48
606.894	31.53
607.086	31.66
607.279	31.93
607.471	32.19
607.664	32.46
607.857	32.77
608.049	33.15
608.242	33.62
608.434	34.45
608.627	35.13
608.819	36.17
609.012	37.29
609.204	38.62
609.397	40.01
609.589	41.47
609.782	43.04
609.974	44.72
610.166	46.43
610.359	47.86
610.551	49.3
610.743	50.62
610.936	51.59
611.128	52.43
611.32	53
611.513	53.08
611.705	53.29
611.897	52.98
612.09	52.24
612.282	51.48
612.474	50.91
612.666	49.9
612.858	49.07
613.051	48.14
613.243	47.32
613.435	46.37
613.627	45.72
613.819	44.68
614.011	44.06
614.203	43.69
614.395	42.98
614.588	42.09
614.78	41.47
614.972	40.57
615.164	40.07
615.356	39.25
615.548	38.6
615.74	37.98
615.932	37.73
616.124	37.06
616.315	36.36
616.507	35.92
616.699	35.6
616.891	35.16
617.083	34.99
617.275	34.53
617.467	34.37
617.659	34.2
617.85	34.08
618.042	33.68
618.234	33.53
618.426	33.68
618.618	33.56
618.809	33.43
619.001	33.36
619.193	33.28
619.384	33.32
619.576	33.35
619.768	33.3
619.959	33.25
620.151	33.35
620.343	33.51
620.534	33.14
620.726	33.09
620.917	33.12
621.109	33.17
621.301	33.24
621.492	33.37
621.684	33.44
621.875	33.47
622.067	33.37
622.258	33.39
622.45	33.53
622.641	33.92
622.832	34.09
623.024	34.09
623.215	34.11
623.407	34.06
623.598	34
623.789	33.93
623.981	33.97
624.172	34.16
624.363	34.17
624.555	34.07
624.746	33.94
624.937	33.88
625.129	34.04
625.32	34.11
625.511	34.19
625.702	34.23
625.893	34.23
626.085	34.19
626.276	34.11
626.467	34.01
626.658	33.99
626.849	34.04
627.04	34.03
627.231	33.83
627.422	33.7
627.614	33.58
627.805	33.67
627.996	33.69
628.187	33.74
628.378	33.82
628.569	33.99
628.76	34.03
628.951	34.15
629.142	34.47
629.332	34.69
629.523	35.11
629.714	35.55
629.905	35.62
630.096	35.7
630.287	35.89
630.478	36.03
630.669	36.06
630.859	36.08
631.05	35.9
631.241	35.64
631.432	35.52
631.623	35.17
631.813	34.68
632.004	34.33
632.195	34.16
632.385	33.95
632.576	33.68
632.767	33.5
632.957	33.37
633.148	33.18
633.339	32.82
633.529	32.66
633.72	32.57
633.91	32.46
634.101	32.45
634.292	32.24
634.482	31.93
634.673	31.85
634.863	31.65
635.054	31.6
635.244	31.72
635.435	31.81
635.625	31.94
635.815	31.97
636.006	31.96
636.196	31.92
636.387	32.07
636.577	32.13
636.767	32.3
636.958	32.24
637.148	32.14
637.338	31.93
637.529	32.16
637.719	32.16
637.909	32.24
638.099	32.18
638.29	32.22
638.48	32.16
638.67	32.25
638.86	32.01
639.05	32.22
639.241	32.43
639.431	32.45
639.621	32.38
639.811	32.15
640.001	32.13
640.191	32.23
640.381	32.26
640.571	32.23
640.761	32.19
640.951	32.48
641.141	32.35
641.331	32.34
641.521	32.35
641.711	32.31
641.901	32.37
642.091	32.4
642.281	32.31
642.471	32.21
642.661	32.23
642.851	32.4
643.041	32.03
643.231	32.12
643.42	32.25
643.61	32.28
643.8	32.28
643.99	32.28
644.18	32.27
644.369	32.26
644.559	32.33
644.749	32.43
644.939	32.43
645.128	32.72
645.318	32.67
645.508	32.4
645.697	32.4
645.887	32.4
646.076	32.53
646.266	32.48
646.456	32.95
646.645	33.03
646.835	33.17
647.024	33.19
647.214	32.91
647.403	32.99
647.593	33.03
647.782	33.24
647.972	33.34
648.161	33.38
648.351	33.3
648.54	33.22
648.73	33.09
648.919	33.14
649.108	33.22
649.298	33.56
649.487	33.72
649.677	33.89
649.866	34.18
650.055	34.14
650.244	34.39
650.434	34.41
650.623	34.16
650.812	34.3
651.002	34.26
651.191	34.2
651.38	34.15
651.569	34.09
651.758	34.32
651.947	34.2
652.137	34.21
652.326	33.99
652.515	34.16
652.704	34.32
652.893	34.39
653.082	34.36
653.271	34.35
653.46	34.38
653.649	34.45
653.838	34.12
654.027	33.75
654.216	33.72
654.405	33.84
654.594	33.62
654.783	33.66
654.972	33.65
655.161	33.61
655.35	33.58
655.539	33.61
655.728	33.49
655.916	33.48
656.105	33.81
656.294	33.75
656.483	33.63
656.672	33.85
656.86	34.07
657.049	34.05
657.238	34.08
657.427	34.14
657.615	34.23
657.804	34.18
657.993	34.04
658.181	33.92
658.37	33.76
658.559	33.66
658.747	33.76
658.936	33.48
659.125	33.07
659.313	32.98
659.502	32.9
659.69	32.71
659.879	32.84
660.067	33
660.256	32.8
660.444	33.22
660.633	33.51
660.821	33.54
661.01	33.82
661.198	34.4
661.387	34.66
661.575	34.79
661.763	34.97
661.952	34.97
662.14	34.95
662.328	35.28
662.517	35.14
662.705	34.99
662.893	34.84
663.082	34.72
663.27	34.49
663.458	34.43
663.646	34.61
663.834	34.6
664.023	34.63
664.211	34.66
664.399	34.74
664.587	34.77
664.775	34.7
664.963	34.69
665.152	34.53
665.34	34.81
665.528	35
665.716	34.8
665.904	34.68
666.092	34.68
666.28	34.87
666.468	34.71
666.656	34.75
666.844	34.81
667.032	35.04
667.22	35.41
667.408	35.21
667.596	35.03
667.784	35.33
667.971	35.29
668.159	35.38
668.347	35.45
668.535	35.64
668.723	35.62
668.911	35.66
669.098	35.49
669.286	35.3
669.474	35.68
669.662	35.78
669.849	35.56
670.037	35.78
670.225	35.82
670.413	35.56
670.6	35.62
670.788	35.5
670.976	35.31
671.163	35.3
671.351	35.37
671.538	34.79
671.726	34.67
671.913	34.64
672.101	34.78
672.289	34.88
672.476	34.82
672.664	34.67
672.851	34.77
673.039	35.05
673.226	34.81
673.413	34.88
673.601	35.14
673.788	35.12
673.976	35.11
674.163	35
674.35	34.74
674.538	34.93
674.725	34.91
674.912	35.06
675.1	35.22
675.287	35.6
675.474	35.28
675.662	35.57
675.849	35.64
676.036	35.73
676.223	35.45
676.411	35.4
676.598	35.5
676.785	35.6
676.972	35.54
677.159	35.28
677.346	35.25
677.533	35.59
677.721	35.38
677.908	35.53
678.095	35.39
678.282	35.6
678.469	35.72
678.656	35.71
678.843	35.68
679.03	35.76
679.217	35.82
679.404	35.89
679.591	35.79
679.778	35.85
679.964	35.76
680.151	36.11
680.338	36.14
680.525	36.04
680.712	35.98
680.899	35.9
681.086	35.7
681.272	35.82
681.459	35.53
681.646	35.62
681.833	35.83
682.02	36
682.206	35.94
682.393	35.89
682.58	36.03
682.766	36.31
682.953	36.43
683.14	36.66
683.326	36.62
683.513	36.76
683.7	36.68
683.886	36.51
684.073	36.42
684.259	36.25
684.446	36.45
684.632	36.76
684.819	36.63
685.005	36.93
685.192	37.02
685.378	37.26
685.565	37.61
685.751	37.73
685.938	37.91
686.124	37.97
686.31	37.94
686.497	38.1
686.683	37.84
686.87	37.9
687.056	37.82
687.242	37.69
687.429	37.42
687.615	37.35
687.801	37.39
687.987	37.41
688.174	37.2
688.36	37.64
688.546	37.57
688.732	37.7
688.918	37.53
689.105	37.27
689.291	37.26
689.477	37.73
689.663	37.87
689.849	37.92
690.035	37.72
690.221	38.11
690.407	37.9
690.593	37.93
690.779	37.65
690.965	38.05
691.151	38.17
691.337	38.18
691.523	37.79
691.709	37.72
691.895	37.45
692.081	37.58
692.267	37.45
692.453	37.54
692.639	37.44
692.825	37.85
693.011	37.56
693.196	37.86
693.382	37.88
693.568	37.93
693.754	38
693.94	38.33
694.125	38.04
694.311	37.8
694.497	37.69
694.682	37.6
694.868	37.28
695.054	37.6
695.239	37.43
695.425	37.68
695.611	37.69
695.796	37.36
695.982	37.45
696.168	37.71
696.353	37.78
696.539	37.57
696.724	37.56
696.91	37.74
697.095	37.39
697.281	37.26
697.466	37.37
697.652	37.25
697.837	37.49
698.023	37.53
698.208	37.43
698.393	37.2
698.579	37.36
698.764	37.29
698.949	37.24
699.135	37.23
699.32	37.11
699.505	36.9
699.691	37.17
699.876	36.89
700.061	36.54
700.246	36.43
700.432	36.77
700.617	36.66
700.802	36.79
700.987	36.96
701.172	36.72
701.358	36.85
701.543	37.05
701.728	37.05
701.913	37.26
702.098	37.72
702.283	38.09
702.468	38.1
702.653	38.19
702.838	38.67
703.023	38.69
703.208	39.03
703.393	39.54
703.578	39.47
703.763	39.83
703.948	39.95
704.133	40.03
704.318	40.21
704.503	40.6
704.688	40.89
704.873	40.68
705.057	41.63
705.242	42.24
705.427	42.25
705.612	42.69
705.797	42.59
705.981	43.17
706.166	43.62
706.351	43.89
706.536	43.88
706.72	44.1
706.905	44.67
707.09	44.22
707.274	44.29
707.459	44.74
707.644	45.18
707.828	45.37
708.013	45.31
708.197	45.47
708.382	45.5
708.567	45.88
708.751	45.95
708.936	45.92
709.12	45.39
709.305	45.4
709.489	45.13
709.673	44.57
709.858	44.36
710.042	44.18
710.227	43.76
710.411	43.71
710.596	43.17
710.78	43.16
710.964	42.96
711.149	43.2
711.333	43.4
711.517	43.23
711.702	43.5
711.886	43.34
712.07	43.01
712.254	43.09
712.438	42.62
712.623	42.88
712.807	42.8
712.991	42.55
713.175	42.31
713.359	41.61
713.544	40.82
713.728	40.26
713.912	39.79
714.096	39.95
714.28	39.63
714.464	39.52
714.648	39.43
714.832	38.55
715.016	38.6
715.2	38.11
715.384	38.22
715.568	38.74
715.752	38.38
715.936	38.49
716.12	38.31
716.304	38.13
716.488	38.17
716.671	37.71
716.855	38.29
717.039	38.1
717.223	38.49
717.407	38.19
717.59	38.32
717.774	38.77
717.958	38.97
718.142	38.74
718.325	38.69
718.509	38.73
718.693	38.77
718.877	38.39
719.06	38.39
719.244	38.29
719.428	38.33
719.611	37.9
719.795	37.99
719.978	37.96
720.162	38.61
720.345	38.58
720.529	38.68
720.713	38.85
720.896	39.13
721.08	39.03
721.263	39.9
721.446	39.85
721.63	40.18
721.813	39.89
721.997	39.59
722.18	39.06
722.364	39.21
722.547	39.1
722.73	39.04
722.914	39.15
723.097	39.24
723.28	38.52
723.464	38.71
723.647	38.26
723.83	38.57
724.013	39.06
724.197	39.03
724.38	39.2
724.563	39.74
724.746	39.83
724.929	39.96
725.112	39.89
725.296	39.69
725.479	40.18
725.662	40.54
725.845	40.05
726.028	39.75
726.211	40.16
726.394	40.13
726.577	39.78
726.76	39.86
726.943	40.12
727.126	40.09
727.309	40.32
727.492	39.83
727.675	39.74
727.858	40.11
728.041	40.61
728.224	40.8
728.407	41.04
728.589	40.83
728.772	41.14
728.955	40.34
729.138	40.32
729.321	40.58
729.503	40.71
729.686	40.37
729.869	40.44
730.052	40.41
730.234	40.03
730.417	39.57
730.6	40.02
730.782	39.51
730.965	40.22
731.148	40.05
731.33	39.99
731.513	40.17
731.695	40.35
731.878	40.04
732.061	40.05
732.243	40.31
732.426	40.81
732.608	40.83
732.791	40.87
732.973	40.53
733.156	40.86
733.338	40.54
733.52	40.44
733.703	40.69
733.885	41.13
734.068	40.79
734.25	40.24
734.432	39.89
734.615	39.44
734.797	39.57
734.979	39.95
735.162	40.1
735.344	40.11
735.526	40.09
735.708	40.63
735.891	40.39
736.073	40.99
736.255	41.58
736.437	41.45
736.619	41.87
736.802	42.17
736.984	42
737.166	42.02
737.348	42.35
737.53	42.62
737.712	41.83
737.894	41.9
738.076	41.86
738.258	41.56
738.44	41.69
738.622	41.06
738.804	40.54
738.986	40.41
739.168	40.26
739.35	40.25
739.532	40.11
739.714	40.48
739.896	40.68
740.078	40.3
740.259	40.47
740.441	40.28
740.623	40.92
740.805	40.86
740.987	40.7
741.168	41.05
741.35	40.84
741.532	40.7
741.714	40.8
741.895	41.12
742.077	41.15
742.259	41.26
742.44	41.52
742.622	41.63
742.804	41.93
742.985	41.8
743.167	41.83
743.348	41.57
743.53	41.38
743.711	41.33
743.893	40.73
744.075	40.59
744.256	40.39
744.438	40.53
744.619	40.75
744.8	40.68
744.982	41.36
745.163	41.38
745.345	41.81
745.526	42.59
745.707	42.81
745.889	43.36
746.07	43.41
746.252	43.73
746.433	43.38
746.614	43.01
746.795	43.31
746.977	42.71
747.158	42.66
747.339	42.41
747.52	42.06
747.702	42.31
747.883	41.19
748.064	41.43
748.245	41.03
748.426	41.3
748.607	41.03
748.788	41.56
748.97	42.38
749.151	41.63
749.332	42
749.513	42.12
749.694	41.42
749.875	41.68
750.056	41.76
750.237	42.64
750.418	42.87
750.599	42.74
750.78	42.36
750.96	41.8
751.141	42
751.322	42.12
751.503	41.9
751.684	42.43
751.865	42.84
752.046	42.31
752.226	41.58
752.407	41.46
752.588	42.37
752.769	42.21
752.949	41.79
753.13	41.95
753.311	41.86
753.492	41.91
753.672	41.56
753.853	41.68
754.034	41.52
754.214	42.16
754.395	42.37
754.575	41.69
754.756	41.86
754.937	42.31
755.117	42.49
755.298	42.52
755.478	42.41
755.659	42.54
755.839	42.46
756.02	42.92
756.2	42.92
756.381	42.42
756.561	42.59
756.741	42.46
756.922	42.43
757.102	42.5
757.283	42.03
757.463	41.85
757.643	41.44
757.823	41.86
758.004	41.96
758.184	40.47
758.364	41.02
758.545	40.49
758.725	40.2
758.905	40.39
759.085	39.75
759.265	39.35
759.446	39.33
759.626	39.42
759.806	39.43
759.986	38.81
760.166	39.55
760.346	39.02
760.526	39.26
760.706	39.72
760.886	39.72
761.066	40.34
761.246	40.65
761.426	41.07
761.606	41.65
761.786	41.34
761.966	42.17
762.146	42.41
762.326	42.51
762.506	42.52
762.686	42.46
762.866	42.06
763.046	42.2
763.225	42.62
763.405	42.18
763.585	42.02
763.765	42
763.945	41.5
764.124	41.43
764.304	41.75
764.484	41.7
764.664	41.56
764.843	41.59
765.023	41.41
765.203	41.05
765.382	41.29
765.562	40.9
765.741	41.19
765.921	41.31
766.101	41.07
766.28	40.92
766.46	40.88
766.639	40.81
766.819	41.03
766.998	41.16
767.178	41.47
767.357	41.71
767.537	41.72
767.716	41.67
767.896	41.56
768.075	41.98
768.254	41.55
768.434	42.14
768.613	41.9
768.792	41.33
768.972	41.38
769.151	41.28
769.33	40.71
769.51	40.88
769.689	40.87
769.868	40.77
770.047	40.2
770.226	40.69
770.406	41.23
770.585	41.87
770.764	42.91
770.943	42.54
771.122	42.59
771.301	42.9
771.48	43.19
771.66	42.55
771.839	43.47
772.018	43.51
772.197	43.85
772.376	42.54
772.555	42.35
772.734	42.11
772.913	42.63
773.092	42.65
773.271	42.96
773.449	43.14
773.628	43.08
773.807	42.63
773.986	42.81
774.165	42.39
774.344	43.35
774.523	43.5
774.701	43.63
774.88	42.97
775.059	43.78
775.238	43.3
775.417	43.39
775.595	43.43
775.774	43.82
775.953	44.09
776.131	43.77
776.31	43.13
776.489	43.25
776.667	42.39
776.846	42.89
777.025	42.55
777.203	42.88
777.382	42.78
777.56	43.97
777.739	44.28
777.917	43.03
778.096	43.58
778.274	43.13
778.453	42.55
778.631	43.2
778.81	42.8
778.988	42.67
779.166	42.65
779.345	42.27
779.523	41.55
779.702	42.18
779.88	43.29
780.058	42.46
780.237	43.55
780.415	43.72
780.593	43.73
780.771	43.89
780.95	43.41
781.128	43.7
781.306	44.3
781.484	44.59
781.662	43.32
781.841	43.61
782.019	44.33
782.197	43.22
782.375	43.54
782.553	43.05
782.731	43.41
782.909	43.49
783.087	43.39
783.265	43.25
783.443	42.96
783.621	43.38
783.799	42.42
783.977	41.77
784.155	41.63
784.333	41.33
784.511	42.65
784.689	42.8
784.867	42.71
785.045	42.24
785.223	42.36
785.4	42.2
785.578	42.69
785.756	43.23
785.934	43.6
786.112	44.3
786.289	44.79
786.467	43.64
786.645	42.48
786.823	42.65
787	42.89
787.178	42.38
787.356	42.49
787.533	41.57
787.711	41.35
787.889	41.09
788.066	41.34
788.244	40.92
788.421	40.93
788.599	40.46
788.776	40.46
788.954	40.38
789.131	40.61
789.309	41.01
789.486	40.24
789.664	40.35
789.841	41.01
790.019	40.86
790.196	40.92
790.373	42.38
790.551	44.13
790.728	44.01
790.906	44.65
791.083	45.15
791.26	44.56
791.437	45.5
791.615	45.85
791.792	45.36
791.969	45.5
792.146	45.14
792.324	44.08
792.501	43.23
792.678	43.64
792.855	43.42
793.032	43.33
793.209	42.91
793.387	42.44
793.564	42.43
793.741	42.88
793.918	42.08
794.095	41.95
794.272	41.58
794.449	40.84
794.626	40.7
794.803	40.63
794.98	39.88
795.157	40.67
795.334	41.13
795.511	41.11
795.688	39.39
795.864	39.44
796.041	39.54
796.218	39.63
796.395	40
796.572	39.38
796.749	39.17
796.925	38.63
797.102	38.7
797.279	38.91
797.456	39.34
797.632	40.01
797.809	41.1
797.986	41.37
798.162	41.95
798.339	42.48
798.516	43.07
798.692	42.73
798.869	43
799.046	43.31
799.222	43.28
799.399	42.98
799.575	42.91
799.752	42.02
799.928	41.69
800.105	41.91
800.281	41.53
800.458	40.78
800.634	41.23
800.811	41.44
800.987	40.51
801.163	39.96
801.34	39.84
801.516	40.57
801.692	40.32
801.869	40.88
802.045	40.02
802.221	40.23
802.398	41.08
802.574	40.17
802.75	41.12
802.926	42.26
803.103	41.94
803.279	41.49
803.455	42.7
803.631	43.56
803.807	43.09
803.983	42.27
804.16	42.73
804.336	42.16
804.512	43.26
804.688	42.18
804.864	42.42
805.04	44.02
805.216	45.36
805.392	44.58
805.568	42.51
805.744	43.84
805.92	44.21
806.096	44.5
806.272	44.94
806.448	44.52
806.623	44.1
806.799	43.12
806.975	41.62
807.151	39.8
807.327	39.83
807.503	41.34
807.678	39.65
807.854	40.73
808.03	40.5
808.206	40.9
808.381	41.43
808.557	41.31
808.733	40.86
808.908	41.83
809.084	43.04
809.26	41.63
809.435	40.1
809.611	39.22
809.787	36.97
809.962	35.84
810.138	35.27
810.313	35
810.489	36.13
810.664	37.02
810.84	36.18
811.015	36.66
811.191	37.61
811.366	38.7
811.542	40.43
811.717	42.93
811.892	42.94
812.068	44.02
812.243	43.93
812.419	43.74
812.594	41.9
812.769	41.54
812.944	40.17
813.12	38.9
813.295	39.31
813.47	37.63
813.645	36.02
813.821	36.96
813.996	35.44
814.171	35.58
814.346	36.07
814.521	36.22
814.697	35.96
814.872	36.67
815.047	37.34
815.222	38.37
815.397	38.67
815.572	39.34
815.747	38.24
815.922	37.6
816.097	37.8
816.272	37.95
816.447	37.16
816.622	38.14
816.797	37.04
816.972	37.7
817.147	36.26
817.322	36.71
817.496	37.26
817.671	38.03
817.846	39.46
818.021	38.49
818.196	38.28
818.371	39.35
818.545	39.6
818.72	39.85
818.895	40
819.069	38.87
819.244	39.52
819.419	38.92
819.594	37.8
819.768	36.7
819.943	36.59
820.117	35.33
820.292	35.45
820.467	35.23
820.641	35.23
820.816	35.28
820.99	35.94
821.165	36.06
821.339	36.1
821.514	36.63
821.688	36.94
821.863	36.71
822.037	36.99
822.212	36.69
822.386	36.63
822.56	36.67
822.735	36.57
822.909	36.43
823.084	36.29
823.258	36.35
823.432	36.19
823.606	35.94
823.781	36.08
823.955	35.99
824.129	36.15
824.303	36.21
824.478	35.78
824.652	35.59
824.826	36.02
825	35.9
825.174	35.4
825.348	35.28
825.523	35.16
825.697	34.64
825.871	34.9
826.045	35.53
826.219	35.24
826.393	35.58
826.567	35.32
826.741	34.72
826.915	34.98
827.089	35.35
827.263	35.27
827.437	35.43
827.611	35.86
827.784	35.85
827.958	35.29
828.132	35.12
828.306	35.36
828.48	35.88
828.654	36.56
828.827	36.44
829.001	36.34
829.175	36.27
829.349	35.99
829.522	35.86
829.696	35.14
829.87	34.4
830.044	34.58
830.217	34.02
830.391	34.2
830.565	33.21
830.738	32.75
830.912	32.63
831.085	32.18
831.259	32.87
831.432	33.49
831.606	35.88
831.779	37.44
831.953	37.6
832.126	37.71
832.3	36.76
832.473	35.78
832.647	36.88
832.82	36.74
832.994	37.01
833.167	36.62
833.34	36.57
833.514	35.97
833.687	34.79
833.86	35.03
834.034	34.97
834.207	35.12
834.38	35.67
834.553	35.06
834.727	34.47
834.9	34.74
835.073	34.53
835.246	34.61
835.419	33.75
835.593	34.53
835.766	34.01
835.939	33.55
836.112	33.06
836.285	32.09
836.458	32.44
836.631	33.02
836.804	31.98
836.977	32.55
837.15	31.69
837.323	32.45
837.496	31.96
837.669	31.87
837.842	32.49
838.015	33.72
838.188	34.53
838.361	34.35
838.533	35
838.706	35.02
838.879	34.16
839.052	35.43
839.225	35.56
839.398	34.29
839.57	34.13
839.743	33.36
839.916	33.45
840.088	34.4
840.261	34.38
840.434	34.57
840.607	34.48
840.779	35.35
840.952	33.71
841.124	32.06
841.297	32.22
841.47	33.44
841.642	35.17
841.815	35.89
841.987	33.2
842.16	32.35
842.332	31.71
842.505	33.2
842.677	31.69
842.85	31.36
843.022	31.86
843.194	34.18
843.367	30.86
843.539	27.83
843.712	25.29
843.884	27.36
844.056	29.88
844.229	29.14
844.401	31.88
844.573	32.57
844.745	32.78
844.918	34.31
845.09	35.68
845.262	41.04
845.434	43.95
845.606	45.91
845.779	46.89
845.951	44.58
846.123	42.33
846.295	39.34
846.467	39.55
846.639	44.03
846.811	46.36
846.983	43.2
847.155	38.72
847.327	36.18
847.499	32.04
847.671	30.96
847.843	32.38
848.015	37.51
848.187	36.88
848.359	38.58
848.531	37.44
848.703	33.6
848.875	30.07
849.047	31.08
849.218	34.45
849.39	37.83
849.562	38.51
849.734	36.46
849.905	37.54
850.077	38.49
850.249	39.04
850.421	34.72
850.592	33.67
850.764	37.42
850.936	34.23
851.107	29.21
851.279	25.19
851.451	21.72
851.622	25.47
851.794	18.73
851.965	15.98
852.137	15.52
852.308	16.2
852.48	20.05
852.651	19.71
852.823	25.08
852.994	26.25
853.166	33.46
853.337	33.17
853.509	30.28
853.68	33.73
853.851	37.88
854.023	33.06
854.194	36.78
854.365	37.21
854.537	41.68
854.708	38.8
854.879	39.23
855.05	35.53
855.222	34.6
855.393	35.44
855.564	34.2
855.735	30.28
855.906	34.24
856.078	29.42
856.249	23.99
856.42	21.01
856.591	24.08
856.762	24.68
856.933	24.05
857.104	24.76
857.275	25.75
857.446	27.52
857.617	31.27
857.788	31.4
857.959	34.89
858.13	33.7
858.301	30.14
858.472	28.39
858.643	24
858.814	19.97
858.985	22.5
859.155	18.72
859.326	21.7
859.497	21.1
859.668	17.51
859.839	18.6
860.009	22.17
860.18	25.82
860.351	25.26
860.522	27.03
860.692	28.78
860.863	27.35
861.034	25.13
861.204	21.91
861.375	21.02
861.546	25.23
861.716	27.21
861.887	28.17
862.057	28.39
862.228	29.49
862.398	32.62
862.569	31.83
862.739	36.66
862.91	43.09
863.08	43.19
863.251	44.96
863.421	39.91
863.592	33.87
863.762	34.66
863.932	31.37
864.103	29.56
864.273	27.19
864.443	26.4
864.614	25.88
864.784	24.3
864.954	25.28
865.125	24.39
865.295	26.22
865.465	34.1
865.635	28.6
865.805	31.63
865.976	31.23
866.146	31.51
866.316	33.12
866.486	29.53
866.656	28.01
866.826	28.17
866.996	28.38
867.166	28.82
867.336	26.15
867.506	28.82
867.676	24.14
867.846	27.27
868.016	29.45
868.186	31.22
868.356	31.94
868.526	30.91
868.696	32.94
868.866	33.43
869.036	35.1
869.206	34.24
869.376	32.65
869.545	31.63
869.715	27.95
869.885	27.02
870.055	27.73
870.224	25.15
870.394	27.03
870.564	22.45
870.734	19.95
870.903	17.12
871.073	18.37
871.243	19.97
871.412	27.4
871.582	25.63
871.751	25.76
871.921	23.52
872.091	26.51
872.26	26.32
872.43	30.47
872.599	28.76
872.769	31.04
872.938	32.55
873.108	35.62
873.277	30.17
873.446	32.87
873.616	33.13
873.785	34.83
873.955	33.7
874.124	36.35
874.293	30.21
874.463	30.67
874.632	23.82
874.801	24.06
874.971	18.46
875.14	16.99
875.309	16.62
875.478	11.56
875.647	9.4
875.817	10.85
875.986	9.08
876.155	11.93
876.324	14.68
876.493	18.52
876.662	17.76
876.831	22.92
877	26.59
877.17	26.52
877.339	27.17
877.508	29.18
877.677	27.22
877.846	22.79
878.015	23.29
878.184	20.82
878.352	24.4
878.521	26.3
878.69	25.75
878.859	28.57
879.028	30.56
879.197	34.3
879.366	34.81
879.534	35.48
879.703	34.52
879.872	32.52
880.041	33.36
880.21	33.44
880.378	31.71
880.547	29.97
880.716	29.3
880.884	27.33
881.053	26.5
881.222	26.16
881.39	25.47
881.559	27.1
881.727	27.55
881.896	27.47
882.065	26.98
882.233	26.7
882.402	27.29
882.57	27
882.739	28.12
882.907	28.05
883.076	28.12
883.244	28.36
883.412	27.71
883.581	27.38
883.749	27.4
883.918	27.17
884.086	27.37
884.254	27.06
884.423	26.57
884.591	25.67
884.759	26.14
884.927	26.29
885.096	26.51
885.264	26.52
885.432	27.56
885.6	27.83
885.769	27.64
885.937	27.89
886.105	27.1
886.273	28.46
886.441	30.55
886.609	30.21
886.777	29.06
886.945	30.17
887.113	29.63
887.281	29.63
887.449	31.19
887.617	30.27
887.785	28.31
887.953	28.04
888.121	27.5
888.289	24.27
888.457	26.99
888.625	29.2
888.793	30.7
888.961	33.77
889.129	31.12
889.296	28.75
889.464	31.06
889.632	33.06
889.8	35.9
889.967	36.71
890.135	40.23
