Data from 2938753__Reflection_02.txt Node
Date: Sat Mar 14 14:25:41 EDT 2015
User: robert
Spectrometer: USB4E03002
Autoset integration time: false
Trigger mode: 4
Integration Time (sec): 1.000000E-1
Scans to average: 10
Electric dark correction enabled: false
Nonlinearity correction enabled: false
Boxcar width: 5
Stray light correction enabled: false
XAxis mode: Wavelengths
Stop averaging: false
Number of Pixels in Spectrum: 3648
>>>>>Begin Spectral Data<<<<<
177.575	189.86
177.794	303.69
178.014	264.64
178.233	287.61
178.452	339.81
178.672	401.77
178.891	771.25
179.11	1050
179.33	2027.94
179.549	596.12
179.768	711.79
179.987	598.95
180.207	900.55
180.426	6684.62
180.645	3551.02
180.864	3640
181.084	1080.95
181.303	766.96
181.522	2161.54
181.741	2595.24
181.96	-1104.96
182.179	-936.88
182.398	-613.51
182.618	-813.41
182.837	2234.92
183.056	802.09
183.275	1374.53
183.494	3320
183.713	1068.85
183.932	638.42
184.151	675.38
184.37	357.64
184.589	294.68
184.808	299.38
185.027	224.62
185.246	216.38
185.465	364.5
185.684	324.24
185.903	606.02
186.122	3802.5
186.341	-4186.11
186.56	-1133.06
186.779	-915.17
186.998	-1182.68
187.216	-9943.75
187.435	-1612.37
187.654	-11987.5
187.873	2485.9
188.092	-873.95
188.311	1636.52
188.53	839.19
188.748	1158.23
188.967	1250
189.186	1729.13
189.405	962.72
189.623	1286.29
189.842	996.49
190.061	6417.39
190.28	-8964.71
190.498	682.35
190.717	1660.67
190.936	-50366.67
191.154	674.63
191.373	509.95
191.592	467.77
191.81	460.41
192.029	370.78
192.248	310.61
192.466	327.5
192.685	252.07
192.904	194.47
193.122	216.28
193.341	207.75
193.559	202.94
193.778	215.36
193.996	231.71
194.215	276.72
194.433	355.27
194.652	435.59
194.87	419.54
195.089	470.46
195.307	409.79
195.526	378.47
195.744	433.14
195.963	447.48
196.181	407.73
196.399	420.19
196.618	379.62
196.836	329.36
197.055	309.75
197.273	358.24
197.491	512.69
197.71	1241.56
197.928	772.46
198.146	461.89
198.365	531.09
198.583	847.98
198.801	1194.93
199.019	998.77
199.238	6508.7
199.456	1573.68
199.674	2018.31
199.892	663.43
200.111	1255.17
200.329	-1098.29
200.547	-2011.29
200.765	-540
200.983	-1287.1
201.202	-1166.98
201.42	-1232.41
201.638	-17850
201.856	5196.43
202.074	736.61
202.292	1095.04
202.51	1315.05
202.728	1019.85
202.946	716.16
203.165	638.82
203.383	617.29
203.601	427.27
203.819	364.16
204.037	365.6
204.255	422.25
204.473	402.73
204.691	399.45
204.909	458.11
205.127	356.48
205.345	481.68
205.562	317.54
205.78	252.3
205.998	453.41
206.216	621.85
206.434	905.49
206.652	1343.84
206.87	6620
207.088	1095.1
207.306	405.1
207.523	289.18
207.741	345.14
207.959	331
208.177	562.45
208.395	508.54
208.612	395.93
208.83	490.7
209.048	408.73
209.266	363.66
209.483	291.49
209.701	266.03
209.919	358.17
210.136	253.31
210.354	252.01
210.572	200
210.79	187.62
211.007	232.3
211.225	228.69
211.442	288.03
211.66	283.02
211.878	254.86
212.095	361.12
212.313	366.41
212.53	564.13
212.748	704.65
212.966	1172.32
213.183	1246.82
213.401	2169.47
213.618	637.71
213.836	458.64
214.053	446.03
214.271	534.24
214.488	428.85
214.705	319.91
214.923	229.16
215.14	195.82
215.358	179.79
215.575	166.48
215.793	144.47
216.01	143.3
216.227	134.01
216.445	137.24
216.662	126.86
216.879	122.18
217.097	116.43
217.314	116.3
217.531	120.89
217.749	129.76
217.966	142.93
218.183	143
218.4	141.25
218.618	137.94
218.835	142.58
219.052	140.05
219.269	145.5
219.487	154.74
219.704	141.68
219.921	151.05
220.138	135.38
220.355	123.21
220.572	111
220.79	101.71
221.007	104.15
221.224	105.6
221.441	95.12
221.658	82.54
221.875	77.58
222.092	96.71
222.309	90.44
222.526	75.25
222.743	70.45
222.96	78.44
223.177	91.09
223.394	83.08
223.611	70.6
223.828	66.89
224.045	73.22
224.262	64.31
224.479	52.06
224.696	47.49
224.913	55.44
225.13	55.01
225.347	49.88
225.564	48.25
225.781	45.05
225.997	43.54
226.214	44.7
226.431	37.4
226.648	31.83
226.865	31.46
227.082	28.91
227.298	24.1
227.515	20
227.732	17.27
227.949	16.41
228.165	14.56
228.382	13.59
228.599	12.18
228.816	11.52
229.032	10.53
229.249	9.24
229.466	7.64
229.682	7.49
229.899	6.9
230.116	8
230.332	6.92
230.549	8.23
230.765	6.87
230.982	6.1
231.199	7.13
231.415	10.06
231.632	11.55
231.848	13.06
232.065	13.25
232.281	16.07
232.498	16.2
232.714	16.74
232.931	15.44
233.147	18.27
233.364	19.45
233.58	19.59
233.797	18.88
234.013	17.65
234.23	16.99
234.446	18
234.662	16.56
234.879	16.75
235.095	17.65
235.312	19.31
235.528	19.67
235.744	20.02
235.961	18.47
236.177	17.37
236.393	18.35
236.61	18
236.826	18.72
237.042	19.08
237.258	19.78
237.475	19.63
237.691	19.25
237.907	16.55
238.123	17.18
238.339	16.32
238.556	16.1
238.772	14.41
238.988	13.93
239.204	13.18
239.42	12.45
239.636	9.27
239.853	8.27
240.069	8.15
240.285	8.89
240.501	7.59
240.717	7.53
240.933	6.11
241.149	6.55
241.365	6.88
241.581	6.04
241.797	5.73
242.013	6.54
242.229	5.47
242.445	4.87
242.661	4.74
242.877	4.66
243.093	5.28
243.309	6.26
243.525	6.85
243.741	7.32
243.957	7.53
244.173	7.37
244.388	7.43
244.604	9.13
244.82	8.35
245.036	8.72
245.252	8.93
245.468	8.13
245.683	7.68
245.899	6.3
246.115	5.02
246.331	4.96
246.547	4.81
246.762	4.51
246.978	4.08
247.194	4.73
247.409	4.42
247.625	4.16
247.841	4.18
248.057	3.87
248.272	4.09
248.488	5.37
248.703	5.55
248.919	5.92
249.135	6.09
249.35	6.36
249.566	5.92
249.782	6.44
249.997	6.82
250.213	7.14
250.428	8.41
250.644	8.15
250.859	6.27
251.075	5.7
251.29	4.9
251.506	5.16
251.721	6.01
251.937	6.55
252.152	5.73
252.368	5.81
252.583	5.89
252.798	5.54
253.014	5.27
253.229	5.94
253.445	5.99
253.66	6.95
253.875	6.85
254.091	6.06
254.306	5.76
254.521	6.96
254.737	8.07
254.952	8.15
255.167	8.77
255.383	10
255.598	9.53
255.813	9.92
256.028	10.57
256.244	11.12
256.459	11.37
256.674	11.96
256.889	9.94
257.104	7.95
257.32	8.21
257.535	7.39
257.75	6.39
257.965	6.31
258.18	5.87
258.395	5.84
258.61	5.11
258.826	4.44
259.041	3.89
259.256	4.17
259.471	4.67
259.686	4.44
259.901	4.29
260.116	4.53
260.331	4.59
260.546	4.44
260.761	4.02
260.976	4.02
261.191	4.12
261.406	4.29
261.621	4.7
261.836	4.51
262.05	4.28
262.265	4.59
262.48	4.28
262.695	4.44
262.91	5.27
263.125	5.5
263.34	6.03
263.555	5.97
263.769	5.99
263.984	5.79
264.199	5.33
264.414	5.09
264.629	5.36
264.843	7.01
265.058	6.82
265.273	5.97
265.488	5.73
265.702	4.85
265.917	5.22
266.132	5.67
266.346	5.03
266.561	5.09
266.776	5.54
266.99	5.29
267.205	4.15
267.42	4.07
267.634	4.26
267.849	4.74
268.063	5.58
268.278	5.52
268.492	5.45
268.707	5.35
268.922	5.79
269.136	5.61
269.351	5.47
269.565	5.49
269.78	5.31
269.994	5.3
270.209	4.87
270.423	4.33
270.637	4.45
270.852	4.41
271.066	4.85
271.281	4.74
271.495	4.57
271.709	4.6
271.924	4.44
272.138	4.06
272.353	4
272.567	3.64
272.781	3.91
272.996	3.95
273.21	4.2
273.424	4.13
273.638	4.26
273.853	3.92
274.067	4.49
274.281	4.78
274.495	4.88
274.71	4.78
274.924	5.07
275.138	4.88
275.352	4.74
275.566	4.33
275.781	4.13
275.995	4.15
276.209	4.98
276.423	4.68
276.637	4.35
276.851	4.82
277.065	5.27
277.279	5.43
277.493	5.56
277.707	6.08
277.921	6.08
278.135	6.44
278.349	5.97
278.563	6.03
278.777	5.55
278.991	5.66
279.205	5.77
279.419	5.23
279.633	5.34
279.847	5.37
280.061	4.68
280.275	4.9
280.489	4.57
280.703	4.83
280.917	4.66
281.131	4.83
281.344	5.14
281.558	4.95
281.772	5.2
281.986	5.23
282.2	5.09
282.414	5.07
282.627	4.59
282.841	4.87
283.055	4.53
283.269	4.58
283.482	4.3
283.696	3.99
283.91	3.85
284.123	3.84
284.337	3.7
284.551	3.66
284.764	3.56
284.978	3.76
285.192	3.46
285.405	3.82
285.619	3.4
285.833	3.73
286.046	3.48
286.26	3.74
286.473	3.61
286.687	3.51
286.9	3.39
287.114	3.42
287.327	3.46
287.541	3.86
287.754	3.5
287.968	3.4
288.181	3.28
288.395	3.61
288.608	3.3
288.822	3.26
289.035	3.07
289.248	3.21
289.462	3.56
289.675	2.95
289.889	2.59
290.102	2.6
290.315	2.94
290.529	2.61
290.742	2.56
290.955	2.57
291.169	2.86
291.382	3.26
291.595	3.07
291.808	2.93
292.022	3.92
292.235	4.15
292.448	4.79
292.661	4.82
292.875	5.18
293.088	4.95
293.301	5.18
293.514	4.8
293.727	4.8
293.94	5.11
294.153	5.05
294.367	4.61
294.58	4.37
294.793	3.83
295.006	3.81
295.219	3.55
295.432	3.72
295.645	3.5
295.858	3.37
296.071	2.83
296.284	2.98
296.497	2.87
296.71	2.61
296.923	2.84
297.136	2.76
297.349	2.89
297.562	3.02
297.775	3.13
297.988	3.26
298.201	3.58
298.414	3.78
298.626	3.39
298.839	3.62
299.052	3.83
299.265	3.85
299.478	4.09
299.691	4
299.903	4
300.116	3.86
300.329	3.9
300.542	3.79
300.755	4.02
300.967	4.25
301.18	4.11
301.393	4.09
301.605	3.95
301.818	3.8
302.031	3.62
302.243	4
302.456	4.26
302.669	4.1
302.881	4.47
303.094	4.42
303.307	4.35
303.519	4.27
303.732	4.44
303.944	4.48
304.157	5.1
304.37	5.21
304.582	4.75
304.795	4.51
305.007	4.84
305.22	4.98
305.432	5.28
305.645	5.9
305.857	5.96
306.069	5.93
306.282	5.8
306.494	5.34
306.707	5.53
306.919	6.11
307.132	6.29
307.344	6.21
307.556	5.68
307.769	5.17
307.981	4.91
308.193	4.71
308.406	4.79
308.618	5.3
308.83	5.4
309.043	5.27
309.255	4.66
309.467	4.67
309.679	4.72
309.892	4.73
310.104	5
310.316	5.01
310.528	5.24
310.74	5.22
310.953	4.87
311.165	4.9
311.377	4.84
311.589	5.15
311.801	5.06
312.013	4.96
312.225	4.77
312.437	4.84
312.649	4.64
312.862	4.55
313.074	4.55
313.286	4.92
313.498	4.91
313.71	5.07
313.922	5.21
314.134	4.97
314.346	5.04
314.558	5.32
314.77	5.37
314.982	5.12
315.193	5.37
315.405	5.58
315.617	4.74
315.829	4.6
316.041	4.35
316.253	4.39
316.465	4.96
316.677	4.66
316.888	4.69
317.1	4.53
317.312	5.11
317.524	4.58
317.736	4.98
317.947	5.73
318.159	5.99
318.371	6.31
318.583	5.79
318.794	5.8
319.006	6.29
319.218	6.02
319.43	6.48
319.641	6.16
319.853	6.68
320.064	6.53
320.276	6.83
320.488	7.15
320.699	7.72
320.911	8.05
321.123	8.25
321.334	7.96
321.546	8.82
321.757	8.86
321.969	8.7
322.18	8.21
322.392	8.3
322.603	7.81
322.815	7.69
323.026	7.42
323.238	7.93
323.449	7.93
323.661	8.31
323.872	8.05
324.083	7.92
324.295	8.58
324.506	8.97
324.718	8.86
324.929	9.13
325.14	8.7
325.352	8.93
325.563	9
325.774	8.73
325.986	8.91
326.197	9.25
326.408	9.52
326.62	9.88
326.831	10.39
327.042	10.17
327.253	10.59
327.464	11.24
327.676	11.26
327.887	11.3
328.098	12.14
328.309	12.52
328.52	12.85
328.732	13.29
328.943	12.84
329.154	13.13
329.365	14.25
329.576	14.68
329.787	15.43
329.998	16.36
330.209	16.58
330.42	16.68
330.631	16.87
330.842	17.02
331.053	17.24
331.264	18
331.475	17.97
331.686	17.64
331.897	17.47
332.108	17.39
332.319	16.88
332.53	17.41
332.741	17.89
332.952	17.8
333.163	17.76
333.374	18.06
333.585	17.88
333.795	18.14
334.006	18.12
334.217	18.39
334.428	18.78
334.639	19.18
334.849	19.05
335.06	18.94
335.271	19.19
335.482	19.31
335.692	19.32
335.903	20.14
336.114	20.37
336.325	20.78
336.535	20.99
336.746	21.24
336.957	21.47
337.167	21.76
337.378	21.98
337.589	22.16
337.799	22.38
338.01	22.42
338.22	22.06
338.431	21.78
338.642	22.15
338.852	21.87
339.063	21.29
339.273	21.22
339.484	21.4
339.694	21.38
339.905	21.24
340.115	20.94
340.326	21.07
340.536	21.02
340.746	21.1
340.957	20.83
341.167	20.94
341.378	21.38
341.588	21.56
341.799	21.24
342.009	21.01
342.219	20.96
342.43	20.98
342.64	21.23
342.85	21.37
343.061	21.56
343.271	21.62
343.481	21.72
343.691	20.99
343.902	20.55
344.112	20.52
344.322	20.74
344.532	20.97
344.743	21.13
344.953	20.89
345.163	21.07
345.373	20.9
345.583	20.61
345.793	20.71
346.004	21.48
346.214	21.69
346.424	21.96
346.634	21.78
346.844	21.75
347.054	21.89
347.264	21.87
347.474	21.84
347.684	21.73
347.894	21.73
348.104	21.95
348.314	21.54
348.524	21.22
348.734	20.96
348.944	21.25
349.154	21.12
349.364	20.93
349.574	20.65
349.784	20.2
349.994	20.33
350.204	20.7
350.413	20.39
350.623	20.39
350.833	20.48
351.043	20.69
351.253	20.38
351.463	20.25
351.672	20.18
351.882	20.37
352.092	20.56
352.302	20.46
352.511	19.96
352.721	19.83
352.931	19.76
353.141	19.94
353.35	19.51
353.56	19.42
353.77	19.24
353.979	19.31
354.189	19.43
354.399	19.33
354.608	19.59
354.818	19.83
355.027	20.1
355.237	20.16
355.447	20.06
355.656	20.34
355.866	20.2
356.075	20.52
356.285	20.17
356.494	19.98
356.704	20
356.913	19.74
357.123	19.68
357.332	19.38
357.542	19.25
357.751	19.13
357.96	18.76
358.17	18.82
358.379	18.69
358.589	18.62
358.798	18.5
359.007	18.52
359.217	18.71
359.426	18.86
359.635	18.88
359.845	19.03
360.054	19.02
360.263	19.25
360.472	19.17
360.682	19.32
360.891	19.4
361.1	19.4
361.309	19.36
361.519	19.15
361.728	18.86
361.937	18.95
362.146	18.93
362.355	18.96
362.564	18.79
362.774	18.96
362.983	18.71
363.192	18.88
363.401	18.87
363.61	18.87
363.819	18.77
364.028	19.01
364.237	18.94
364.446	18.92
364.655	18.88
364.864	18.98
365.073	19.15
365.282	19.31
365.491	19.31
365.7	19.5
365.909	19.54
366.118	19.81
366.327	19.59
366.536	19.66
366.745	19.61
366.954	19.92
367.162	19.75
367.371	19.63
367.58	19.62
367.789	19.7
367.998	19.67
368.207	19.42
368.415	19.45
368.624	19.63
368.833	19.58
369.042	19.32
369.25	19.1
369.459	19.43
369.668	19.17
369.877	18.89
370.085	19.07
370.294	18.98
370.503	18.76
370.711	18.46
370.92	18.26
371.129	18.08
371.337	18.25
371.546	18.17
371.754	17.93
371.963	18.02
372.171	18.2
372.38	17.9
372.589	17.72
372.797	17.92
373.006	18.15
373.214	18.12
373.423	18.42
373.631	18.3
373.84	18.47
374.048	18.2
374.256	18.2
374.465	18.39
374.673	18.41
374.882	18.64
375.09	18.75
375.298	18.57
375.507	18.77
375.715	18.53
375.923	18.53
376.132	18.37
376.34	18.58
376.548	18.71
376.757	18.46
376.965	18.4
377.173	18.36
377.381	18.23
377.59	18.39
377.798	18.25
378.006	18.24
378.214	18.28
378.423	18.13
378.631	18.19
378.839	18.08
379.047	18.12
379.255	18.16
379.463	18.18
379.671	18.5
379.879	18.42
380.088	18.51
380.296	18.47
380.504	18.25
380.712	18.53
380.92	18.52
381.128	18.55
381.336	18.45
381.544	18.64
381.752	18.5
381.96	18.46
382.168	18.52
382.376	18.59
382.584	18.45
382.791	18.61
382.999	18.55
383.207	18.53
383.415	18.5
383.623	18.48
383.831	18.28
384.039	18.26
384.247	18.07
384.454	17.84
384.662	17.85
384.87	17.99
385.078	17.82
385.285	17.84
385.493	18
385.701	18.15
385.909	18.18
386.116	18.18
386.324	18.09
386.532	18.14
386.739	18.43
386.947	18.36
387.155	18.4
387.362	18.58
387.57	18.53
387.778	18.51
387.985	18.33
388.193	18.34
388.4	18.43
388.608	18.59
388.816	18.53
389.023	18.66
389.231	18.55
389.438	18.48
389.646	18.41
389.853	18.39
390.061	18.26
390.268	18.46
390.475	18.6
390.683	18.57
390.89	18.55
391.098	18.47
391.305	18.28
391.512	18.58
391.72	18.73
391.927	18.78
392.135	18.71
392.342	18.78
392.549	18.56
392.756	18.49
392.964	18.72
393.171	18.67
393.378	18.82
393.586	18.92
393.793	18.73
394	18.72
394.207	18.75
394.414	18.94
394.622	18.94
394.829	19.04
395.036	19.14
395.243	18.88
395.45	18.98
395.657	18.87
395.864	18.87
396.072	18.77
396.279	18.69
396.486	18.96
396.693	18.71
396.9	18.58
397.107	18.69
397.314	18.31
397.521	18.35
397.728	18.27
397.935	18.29
398.142	18.25
398.349	18.32
398.556	18.46
398.763	18.18
398.97	18.42
399.177	18.54
399.383	18.49
399.59	18.72
399.797	18.53
400.004	18.62
400.211	18.75
400.418	18.72
400.625	18.75
400.831	18.6
401.038	18.71
401.245	18.67
401.452	18.69
401.658	18.69
401.865	18.69
402.072	18.94
402.279	19.02
402.485	18.97
402.692	19
402.899	19.09
403.105	19.26
403.312	19.38
403.519	19.38
403.725	19.4
403.932	19.4
404.138	19.36
404.345	19.19
404.552	19.23
404.758	19.28
404.965	19.28
405.171	19.34
405.378	19.3
405.584	19.19
405.791	19.07
405.997	19.12
406.204	18.97
406.41	18.97
406.617	19.05
406.823	18.7
407.029	18.65
407.236	18.68
407.442	18.49
407.649	18.52
407.855	18.44
408.061	18.53
408.268	18.46
408.474	18.53
408.68	18.8
408.887	18.91
409.093	19.11
409.299	19.03
409.505	18.95
409.712	18.89
409.918	18.79
410.124	18.89
410.33	18.95
410.537	18.9
410.743	18.92
410.949	18.78
411.155	18.84
411.361	18.9
411.567	18.76
411.773	18.79
411.98	18.79
412.186	18.79
412.392	18.81
412.598	18.79
412.804	18.79
413.01	18.71
413.216	18.74
413.422	18.72
413.628	18.84
413.834	19.13
414.04	18.96
414.246	19
414.452	18.96
414.658	18.84
414.864	18.8
415.07	19
415.275	19.17
415.481	19.09
415.687	18.86
415.893	18.77
416.099	18.68
416.305	18.75
416.511	18.72
416.716	18.72
416.922	18.8
417.128	18.77
417.334	18.69
417.539	18.56
417.745	18.48
417.951	18.52
418.157	18.43
418.362	18.55
418.568	18.56
418.774	18.61
418.979	18.59
419.185	18.57
419.391	18.52
419.596	18.51
419.802	18.53
420.008	18.55
420.213	18.64
420.419	18.69
420.624	18.57
420.83	18.55
421.035	18.53
421.241	18.54
421.446	18.53
421.652	18.58
421.857	18.52
422.063	18.52
422.268	18.54
422.474	18.51
422.679	18.46
422.885	18.44
423.09	18.43
423.295	18.47
423.501	18.44
423.706	18.41
423.911	18.35
424.117	18.36
424.322	18.32
424.527	18.26
424.733	18.24
424.938	18.15
425.143	18.23
425.349	18.21
425.554	18.23
425.759	18.33
425.964	18.41
426.169	18.46
426.375	18.52
426.58	18.59
426.785	18.71
426.99	18.78
427.195	19.03
427.4	19
427.605	19.17
427.811	19.23
428.016	19.16
428.221	19.09
428.426	19.19
428.631	19.21
428.836	19.26
429.041	19.3
429.246	19.29
429.451	19.2
429.656	19.32
429.861	19.3
430.066	19.22
430.271	19.38
430.476	19.38
430.681	19.37
430.886	19.34
431.09	19.39
431.295	19.32
431.5	19.31
431.705	19.33
431.91	19.27
432.115	19.2
432.32	19.19
432.524	19.14
432.729	19.19
432.934	19.18
433.139	19.32
433.343	19.41
433.548	19.65
433.753	19.87
433.958	20.21
434.162	20.51
434.367	20.85
434.572	21.29
434.776	21.61
434.981	22
435.186	22.37
435.39	22.7
435.595	22.85
435.799	23
436.004	23.04
436.209	22.84
436.413	22.73
436.618	22.52
436.822	22.16
437.027	21.92
437.231	21.61
437.436	21.22
437.64	20.87
437.845	20.63
438.049	20.27
438.253	20.03
438.458	19.86
438.662	19.58
438.867	19.47
439.071	19.44
439.275	19.32
439.48	19.31
439.684	19.3
439.888	19.15
440.093	19.07
440.297	19.03
440.501	18.99
440.706	19.06
440.91	19.06
441.114	19.1
441.318	19.04
441.523	19.08
441.727	19.07
441.931	19.09
442.135	19.19
442.339	19.26
442.543	19.32
442.748	19.36
442.952	19.28
443.156	19.32
443.36	19.28
443.564	19.33
443.768	19.35
443.972	19.33
444.176	19.33
444.38	19.37
444.584	19.38
444.788	19.43
444.992	19.46
445.196	19.43
445.4	19.56
445.604	19.55
445.808	19.6
446.012	19.54
446.216	19.43
446.42	19.46
446.624	19.43
446.828	19.33
447.032	19.28
447.235	19.31
447.439	19.42
447.643	19.26
447.847	19.25
448.051	19.22
448.254	19.32
448.458	19.4
448.662	19.41
448.866	19.39
449.069	19.46
449.273	19.48
449.477	19.5
449.681	19.35
449.884	19.5
450.088	19.53
450.292	19.63
450.495	19.54
450.699	19.61
450.902	19.6
451.106	19.74
451.31	19.86
451.513	19.95
451.717	19.91
451.92	20.1
452.124	20.13
452.327	20.17
452.531	20.14
452.734	20.21
452.938	20.2
453.141	20.24
453.345	20.21
453.548	20.1
453.752	20.02
453.955	20.1
454.158	20.02
454.362	19.92
454.565	19.93
454.769	19.79
454.972	19.77
455.175	19.75
455.379	19.73
455.582	19.78
455.785	19.76
455.988	19.84
456.192	19.74
456.395	19.76
456.598	19.82
456.801	19.69
457.005	19.83
457.208	19.83
457.411	19.85
457.614	19.82
457.817	19.7
458.021	19.71
458.224	19.74
458.427	19.71
458.63	19.78
458.833	19.75
459.036	19.8
459.239	19.69
459.442	19.67
459.645	19.55
459.848	19.57
460.051	19.55
460.254	19.55
460.457	19.47
460.66	19.52
460.863	19.47
461.066	19.5
461.269	19.5
461.472	19.62
461.675	19.68
461.878	19.83
462.081	19.88
462.284	20
462.486	20.09
462.689	20.29
462.892	20.3
463.095	20.38
463.298	20.41
463.5	20.49
463.703	20.47
463.906	20.41
464.109	20.43
464.311	20.5
464.514	20.52
464.717	20.57
464.92	20.33
465.122	20.37
465.325	20.4
465.528	20.41
465.73	20.48
465.933	20.45
466.135	20.48
466.338	20.46
466.541	20.42
466.743	20.46
466.946	20.38
467.148	20.57
467.351	20.57
467.553	20.48
467.756	20.5
467.958	20.4
468.161	20.51
468.363	20.43
468.566	20.32
468.768	20.27
468.971	20.17
469.173	20.2
469.375	20.14
469.578	20.07
469.78	20.05
469.983	20.09
470.185	20.16
470.387	20.2
470.59	20.32
470.792	20.37
470.994	20.3
471.196	20.36
471.399	20.38
471.601	20.41
471.803	20.4
472.005	20.33
472.208	20.29
472.41	20.38
472.612	20.33
472.814	20.35
473.016	20.56
473.218	20.67
473.421	20.52
473.623	20.47
473.825	20.44
474.027	20.6
474.229	20.68
474.431	20.68
474.633	20.54
474.835	20.42
475.037	20.45
475.239	20.28
475.441	20.18
475.643	20.29
475.845	20.31
476.047	20.38
476.249	20.32
476.451	20.27
476.653	20.26
476.855	20.31
477.057	20.32
477.258	20.27
477.46	20.33
477.662	20.43
477.864	20.43
478.066	20.4
478.268	20.34
478.469	20.2
478.671	20.17
478.873	20.18
479.075	20.1
479.276	20.09
479.478	20.05
479.68	19.99
479.882	19.9
480.083	19.85
480.285	19.85
480.487	19.85
480.688	19.92
480.89	19.95
481.091	19.95
481.293	19.91
481.495	19.87
481.696	19.86
481.898	19.81
482.099	19.82
482.301	19.78
482.502	19.78
482.704	19.71
482.905	19.61
483.107	19.56
483.308	19.51
483.51	19.49
483.711	19.5
483.913	19.48
484.114	19.45
484.315	19.45
484.517	19.44
484.718	19.43
484.92	19.46
485.121	19.53
485.322	19.55
485.524	19.57
485.725	19.62
485.926	19.63
486.127	19.71
486.329	19.81
486.53	19.81
486.731	19.87
486.932	19.84
487.134	19.83
487.335	19.82
487.536	19.88
487.737	19.86
487.938	19.82
488.139	19.84
488.341	19.79
488.542	19.79
488.743	19.77
488.944	19.76
489.145	19.84
489.346	19.92
489.547	19.94
489.748	19.99
489.949	20.05
490.15	20.11
490.351	20.14
490.552	20.19
490.753	20.15
490.954	20.17
491.155	20.19
491.356	20.14
491.557	20.11
491.758	20.13
491.959	20.12
492.159	20.1
492.36	20.17
492.561	20.17
492.762	20.19
492.963	20.25
493.164	20.33
493.364	20.39
493.565	20.52
493.766	20.54
493.967	20.6
494.167	20.59
494.368	20.7
494.569	20.74
494.769	20.83
494.97	20.89
495.171	20.94
495.371	20.88
495.572	20.86
495.773	20.78
495.973	20.78
496.174	20.76
496.375	20.79
496.575	20.75
496.776	20.73
496.976	20.71
497.177	20.63
497.377	20.57
497.578	20.6
497.778	20.57
497.979	20.59
498.179	20.61
498.38	20.61
498.58	20.64
498.78	20.7
498.981	20.62
499.181	20.65
499.382	20.8
499.582	20.85
499.782	20.81
499.983	20.96
500.183	20.99
500.383	21.02
500.584	21
500.784	20.97
500.984	20.96
501.184	21.04
501.385	21.1
501.585	21.05
501.785	21.12
501.985	21.23
502.185	21.11
502.386	21.16
502.586	21.18
502.786	21.29
502.986	21.35
503.186	21.32
503.386	21.25
503.586	21.28
503.786	21.24
503.987	21.21
504.187	21.14
504.387	21.14
504.587	21.1
504.787	21.11
504.987	21.14
505.187	21.17
505.387	21.27
505.587	21.35
505.786	21.31
505.986	21.43
506.186	21.47
506.386	21.5
506.586	21.58
506.786	21.66
506.986	21.67
507.186	21.54
507.386	21.46
507.585	21.34
507.785	21.18
507.985	21.14
508.185	21.07
508.384	21
508.584	20.98
508.784	20.93
508.984	20.85
509.183	20.86
509.383	20.92
509.583	20.92
509.782	20.99
509.982	21.08
510.182	21.06
510.381	21.14
510.581	21.28
510.781	21.35
510.98	21.32
511.18	21.41
511.379	21.47
511.579	21.43
511.778	21.57
511.978	21.52
512.177	21.61
512.377	21.61
512.576	21.47
512.776	21.39
512.975	21.39
513.175	21.44
513.374	21.46
513.573	21.46
513.773	21.44
513.972	21.38
514.172	21.39
514.371	21.43
514.57	21.48
514.77	21.68
514.969	21.84
515.168	21.9
515.367	21.99
515.567	21.95
515.766	21.94
515.965	22.05
516.164	22.15
516.364	22.25
516.563	22.16
516.762	22.24
516.961	22.08
517.16	21.9
517.359	21.92
517.559	21.89
517.758	21.88
517.957	21.86
518.156	21.84
518.355	21.82
518.554	21.69
518.753	21.7
518.952	21.69
519.151	21.69
519.35	21.79
519.549	21.81
519.748	21.81
519.947	21.91
520.146	21.94
520.345	21.93
520.544	21.84
520.743	21.98
520.942	22.02
521.141	21.98
521.339	22.09
521.538	22.12
521.737	22.17
521.936	22.21
522.135	22.21
522.333	22.19
522.532	22.32
522.731	22.37
522.93	22.44
523.129	22.51
523.327	22.59
523.526	22.55
523.725	22.55
523.923	22.48
524.122	22.48
524.321	22.32
524.519	22.33
524.718	22.29
524.917	22.37
525.115	22.2
525.314	22.17
525.512	22.13
525.711	22.12
525.909	22.05
526.108	22.02
526.306	21.99
526.505	22.04
526.703	22.03
526.902	21.94
527.1	21.82
527.299	21.83
527.497	21.73
527.696	21.69
527.894	21.65
528.092	21.63
528.291	21.61
528.489	21.58
528.688	21.56
528.886	21.55
529.084	21.57
529.283	21.6
529.481	21.59
529.679	21.63
529.877	21.68
530.076	21.76
530.274	21.84
530.472	21.88
530.67	21.95
530.869	22.01
531.067	22.09
531.265	22.18
531.463	22.23
531.661	22.3
531.859	22.3
532.057	22.34
532.255	22.35
532.454	22.34
532.652	22.33
532.85	22.35
533.048	22.39
533.246	22.38
533.444	22.35
533.642	22.38
533.84	22.42
534.038	22.53
534.236	22.51
534.434	22.52
534.632	22.53
534.83	22.66
535.027	22.66
535.225	22.76
535.423	22.84
535.621	22.94
535.819	23.03
536.017	23.21
536.215	23.25
536.412	23.37
536.61	23.52
536.808	23.66
537.006	23.74
537.203	24.01
537.401	24.13
537.599	24.29
537.797	24.47
537.994	24.64
538.192	24.86
538.39	25.12
538.587	25.42
538.785	25.81
538.983	26.18
539.18	26.54
539.378	26.72
539.575	26.9
539.773	27.11
539.97	27.39
540.168	27.6
540.366	27.71
540.563	27.91
540.761	28.04
540.958	28
541.155	28.04
541.353	28.13
541.55	28.22
541.748	28.39
541.945	28.53
542.143	28.58
542.34	28.71
542.537	28.91
542.735	29.11
542.932	29.32
543.129	29.68
543.327	30.16
543.524	30.62
543.721	31.35
543.919	32.04
544.116	32.91
544.313	33.94
544.51	34.96
544.708	35.82
544.905	36.68
545.102	37.57
545.299	38.36
545.496	38.83
545.693	39.28
545.891	39.33
546.088	39.24
546.285	38.91
546.482	38.36
546.679	37.81
546.876	37.29
547.073	36.77
547.27	36.12
547.467	35.52
547.664	34.99
547.861	34.44
548.058	33.98
548.255	33.61
548.452	33.2
548.649	32.99
548.846	32.68
549.043	32.35
549.24	32.01
549.437	31.81
549.633	31.56
549.83	31.31
550.027	30.95
550.224	30.68
550.421	30.39
550.618	30.2
550.814	29.86
551.011	29.59
551.208	29.37
551.405	29.12
551.601	28.88
551.798	28.48
551.995	28.15
552.191	27.93
552.388	27.66
552.585	27.4
552.781	27.23
552.978	27.15
553.175	27.06
553.371	27
553.568	26.98
553.764	26.85
553.961	26.89
554.157	26.77
554.354	26.69
554.55	26.75
554.747	26.78
554.943	26.9
555.14	26.86
555.336	26.8
555.533	26.74
555.729	26.66
555.926	26.66
556.122	26.64
556.318	26.71
556.515	26.7
556.711	26.67
556.907	26.61
557.104	26.3
557.3	26.3
557.496	26.24
557.693	26.1
557.889	26.23
558.085	26.18
558.281	26.23
558.478	26.17
558.674	26.13
558.87	26.21
559.066	26.27
559.262	26.39
559.459	26.39
559.655	26.35
559.851	26.4
560.047	26.26
560.243	26.27
560.439	26.21
560.635	26.18
560.831	26.25
561.027	26.15
561.223	26.09
561.419	26.1
561.615	25.97
561.811	26.03
562.007	26.18
562.203	26.09
562.399	26.19
562.595	26.15
562.791	26.14
562.987	26.06
563.183	25.96
563.379	26.08
563.575	26.02
563.771	26.08
563.966	26.1
564.162	25.98
564.358	26.03
564.554	25.9
564.75	25.89
564.945	25.9
565.141	25.78
565.337	25.75
565.533	25.63
565.728	25.51
565.924	25.49
566.12	25.45
566.315	25.48
566.511	25.37
566.707	25.32
566.902	25.26
567.098	25.27
567.293	25.36
567.489	25.38
567.684	25.44
567.88	25.43
568.076	25.51
568.271	25.42
568.467	25.39
568.662	25.57
568.858	25.6
569.053	25.69
569.248	25.73
569.444	25.8
569.639	25.89
569.835	25.85
570.03	25.91
570.225	25.86
570.421	25.8
570.616	25.77
570.812	25.66
571.007	25.52
571.202	25.53
571.397	25.39
571.593	25.28
571.788	25.2
571.983	25.22
572.178	25.23
572.374	25.3
572.569	25.33
572.764	25.2
572.959	25.23
573.154	25.37
573.35	25.29
573.545	25.46
573.74	25.5
573.935	25.47
574.13	25.56
574.325	25.68
574.52	25.79
574.715	26.1
574.91	26.42
575.105	26.7
575.3	27.04
575.495	27.38
575.69	27.58
575.885	27.95
576.08	28.5
576.275	28.94
576.47	29.37
576.665	29.66
576.86	30.03
577.055	30.29
577.25	30.47
577.444	30.8
577.639	31.03
577.834	31.38
578.029	31.75
578.224	31.9
578.418	31.99
578.613	32.08
578.808	32.23
579.003	32.29
579.197	32.43
579.392	32.54
579.587	32.43
579.781	32.44
579.976	32.53
580.171	32.44
580.365	32.46
580.56	32.42
580.755	32.4
580.949	32.36
581.144	32.12
581.338	32.27
581.533	32.42
581.727	32.34
581.922	32.52
582.116	32.39
582.311	32.34
582.505	32.39
582.7	32.34
582.894	32.4
583.089	32.61
583.283	33.01
583.478	32.99
583.672	32.91
583.866	33.02
584.061	33.1
584.255	33.27
584.449	33.47
584.644	33.52
584.838	33.79
585.032	33.92
585.226	34.05
585.421	34.02
585.615	34.22
585.809	34.42
586.003	34.77
586.198	34.83
586.392	34.89
586.586	35.07
586.78	35.05
586.974	35.08
587.168	35.13
587.363	35.03
587.557	34.79
587.751	34.57
587.945	34.29
588.139	34.12
588.333	33.72
588.527	33.5
588.721	33.18
588.915	32.85
589.109	32.43
589.303	32.11
589.497	31.82
589.691	31.75
589.885	31.66
590.079	31.72
590.273	31.56
590.466	31.79
590.66	31.83
590.854	31.96
591.048	32.29
591.242	32.72
591.436	32.96
591.629	33.34
591.823	33.71
592.017	34.07
592.211	34.33
592.404	34.69
592.598	34.69
592.792	34.84
592.986	34.73
593.179	34.65
593.373	34.49
593.567	34.3
593.76	34.11
593.954	33.9
594.147	33.56
594.341	33.32
594.535	32.79
594.728	32.58
594.922	32.21
595.115	32
595.309	31.65
595.502	31.35
595.696	31.16
595.889	30.84
596.083	30.58
596.276	30.36
596.47	30
596.663	29.98
596.856	29.88
597.05	29.98
597.243	30.05
597.437	30.3
597.63	30.48
597.823	30.8
598.017	31.12
598.21	31.36
598.403	31.67
598.596	32.19
598.79	32.59
598.983	32.93
599.176	33.22
599.369	33.32
599.563	33.36
599.756	33.28
599.949	33.2
600.142	33.07
600.335	33.02
600.528	32.9
600.722	32.75
600.915	32.53
601.108	32.31
601.301	31.98
601.494	31.79
601.687	31.54
601.88	31.26
602.073	30.96
602.266	30.89
602.459	30.67
602.652	30.38
602.845	30.26
603.038	30.06
603.231	29.9
603.424	29.64
603.617	29.57
603.809	29.56
604.002	29.57
604.195	29.54
604.388	29.52
604.581	29.55
604.774	29.77
604.966	29.78
605.159	29.92
605.352	30.14
605.545	30.46
605.737	30.75
605.93	31.02
606.123	31.45
606.316	32.01
606.508	32.36
606.701	32.84
606.894	33.24
607.086	33.78
607.279	34.32
607.471	35.01
607.664	35.74
607.857	36.51
608.049	37.53
608.242	38.96
608.434	40.51
608.627	42.8
608.819	45.51
609.012	48.73
609.204	52.28
609.397	56.08
609.589	60.2
609.782	64.62
609.974	69.07
610.166	73.63
610.359	78.16
610.551	82.62
610.743	86.35
610.936	89.33
611.128	91.97
611.32	93.76
611.513	94.83
611.705	95.29
611.897	95.07
612.09	94.28
612.282	93.06
612.474	91.42
612.666	89.48
612.858	87.29
613.051	85.03
613.243	82.35
613.435	80.03
613.627	78.22
613.819	76.04
614.011	74.12
614.203	71.82
614.395	69.55
614.588	67.28
614.78	64.65
614.972	62.37
615.164	60.31
615.356	58.49
615.548	56.76
615.74	54.7
615.932	52.7
616.124	50.86
616.315	49.66
616.507	48.15
616.699	46.56
616.891	45.56
617.083	44.71
617.275	43.74
617.467	42.75
617.659	41.9
617.85	41.18
618.042	40.83
618.234	40.21
618.426	39.81
618.618	39.45
618.809	39.06
619.001	38.9
619.193	38.74
619.384	38.71
619.576	38.69
619.768	38.45
619.959	38.36
620.151	38.37
620.343	38.51
620.534	38.5
620.726	38.56
620.917	38.88
621.109	38.91
621.301	38.97
621.492	39.03
621.684	38.98
621.875	39.19
622.067	39.34
622.258	39.39
622.45	39.47
622.641	39.57
622.832	39.9
623.024	39.99
623.215	40.26
623.407	40.06
623.598	40.31
623.789	40.51
623.981	40.47
624.172	40.39
624.363	40.3
624.555	40.27
624.746	40.1
624.937	39.88
625.129	39.67
625.32	39.4
625.511	39.34
625.702	38.97
625.893	38.78
626.085	38.61
626.276	38.64
626.467	38.62
626.658	38.49
626.849	38.54
627.04	38.49
627.231	38.62
627.422	38.47
627.614	38.37
627.805	38.44
627.996	38.63
628.187	38.97
628.378	39.25
628.569	39.69
628.76	40.11
628.951	40.38
629.142	41.09
629.332	41.59
629.523	42.43
629.714	43.17
629.905	43.77
630.096	44.32
630.287	44.61
630.478	44.86
630.669	44.8
630.859	44.8
631.05	44.59
631.241	44.11
631.432	43.65
631.623	42.91
631.813	42.14
632.004	41.41
632.195	40.42
632.385	39.51
632.576	38.63
632.767	37.85
632.957	37.31
633.148	36.71
633.339	35.95
633.529	35.41
633.72	34.89
633.91	34.55
634.101	34.17
634.292	33.96
634.482	33.86
634.673	33.73
634.863	33.67
635.054	33.33
635.244	33.39
635.435	33.62
635.625	33.52
635.815	33.59
636.006	33.54
636.196	33.65
636.387	33.76
636.577	33.63
636.767	33.73
636.958	33.66
637.148	33.74
637.338	33.49
637.529	33.47
637.719	33.53
637.909	33.47
638.099	33.55
638.29	33.56
638.48	33.37
638.67	33.45
638.86	33.13
639.05	33.21
639.241	33.18
639.431	33.68
639.621	33.5
639.811	33.49
640.001	33.81
640.191	33.87
640.381	33.98
640.571	33.95
640.761	33.93
640.951	34.22
641.141	34.4
641.331	34.36
641.521	34.03
641.711	34.15
641.901	34.12
642.091	33.96
642.281	33.92
642.471	33.73
642.661	34.02
642.851	34.37
643.041	34.34
643.231	34.34
643.42	34.48
643.61	34.71
643.8	34.82
643.99	35.1
644.18	34.99
644.369	35.29
644.559	35.47
644.749	35.33
644.939	34.9
645.128	35.09
645.318	34.99
645.508	35.07
645.697	35.05
645.887	34.9
646.076	34.52
646.266	34.51
646.456	34.51
646.645	34.34
646.835	34.34
647.024	34.6
647.214	34.34
647.403	34.4
647.593	34.51
647.782	34.45
647.972	34.65
648.161	34.9
648.351	35.2
648.54	35.28
648.73	35.58
648.919	35.87
649.108	36.11
649.298	36.56
649.487	37.07
649.677	37.09
649.866	37.38
650.055	37.63
650.244	37.64
650.434	37.7
650.623	37.74
650.812	37.65
651.002	37.47
651.191	37.4
651.38	37.28
651.569	36.98
651.758	37
651.947	36.63
652.137	36.4
652.326	36.64
652.515	36.72
652.704	36.65
652.893	36.41
653.082	36.24
653.271	35.96
653.46	35.87
653.649	35.91
653.838	35.74
654.027	35.79
654.216	35.67
654.405	35.52
654.594	35.2
654.783	35.01
654.972	35.21
655.161	35.3
655.35	35.27
655.539	35.21
655.728	35.02
655.916	34.97
656.105	35.18
656.294	35.46
656.483	35.28
656.672	35.33
656.86	35.17
657.049	35.18
657.238	35.31
657.427	35.39
657.615	35.15
657.804	35.08
657.993	35
658.181	34.63
658.37	34.33
658.559	34.25
658.747	34.09
658.936	34.1
659.125	33.65
659.313	33.49
659.502	33.6
659.69	33.75
659.879	33.66
660.067	33.69
660.256	34.01
660.444	34.39
660.633	34.63
660.821	34.94
661.01	34.98
661.198	35.62
661.387	35.88
661.575	35.86
661.763	36.16
661.952	36.39
662.14	36.67
662.328	36.74
662.517	36.63
662.705	36.7
662.893	36.59
663.082	37.11
663.27	36.9
663.458	37.21
663.646	37.55
663.834	37.51
664.023	37.52
664.211	37.36
664.399	37.23
664.587	37.04
664.775	37.17
664.963	37.4
665.152	37.24
665.34	37.23
665.528	36.92
665.716	36.73
665.904	36.72
666.092	36.76
666.28	36.61
666.468	36.74
666.656	36.93
666.844	36.94
667.032	36.83
667.22	36.84
667.408	37.17
667.596	37.35
667.784	36.98
667.971	36.81
668.159	36.87
668.347	37.16
668.535	37.21
668.723	37.05
668.911	36.76
669.098	37.08
669.286	37.25
669.474	37.01
669.662	36.93
669.849	37.33
670.037	37.56
670.225	37.58
670.413	37.43
670.6	37.07
670.788	37.23
670.976	37.54
671.163	37.13
671.351	36.71
671.538	36.74
671.726	36.82
671.913	36.73
672.101	36.46
672.289	36.41
672.476	36.48
672.664	36.73
672.851	36.68
673.039	36.53
673.226	36.88
673.413	37.06
673.601	36.92
673.788	37
673.976	37.05
674.163	37.57
674.35	37.46
674.538	37.42
674.725	37.67
674.912	37.87
675.1	37.93
675.287	37.67
675.474	37.86
675.662	38.29
675.849	38.09
676.036	38.04
676.223	37.7
676.411	37.93
676.598	38.2
676.785	38.09
676.972	37.8
677.159	37.92
677.346	38.08
677.533	37.94
677.721	37.63
677.908	37.49
678.095	37.68
678.282	37.73
678.469	37.48
678.656	37.47
678.843	37.64
679.03	37.62
679.217	37.33
679.404	37.14
679.591	37.1
679.778	37.17
679.964	37.27
680.151	36.99
680.338	36.82
680.525	36.93
680.712	36.86
680.899	36.75
681.086	37.01
681.272	37.06
681.459	37.24
681.646	36.98
681.833	37.02
682.02	37.21
682.206	37.49
682.393	37.72
682.58	37.77
682.766	37.62
682.953	37.5
683.14	37.71
683.326	37.93
683.513	37.97
683.7	38.29
683.886	38.63
684.073	38.37
684.259	38.35
684.446	38.48
684.632	38.85
684.819	38.95
685.005	39.32
685.192	39.04
685.378	39.47
685.565	39.71
685.751	40.01
685.938	40.19
686.124	40.71
686.31	41.06
686.497	41.05
686.683	41.12
686.87	41.33
687.056	41.01
687.242	41.08
687.429	40.85
687.615	40.99
687.801	40.85
687.987	40.36
688.174	40.26
688.36	40.07
688.546	40
688.732	39.98
688.918	39.89
689.105	40.16
689.291	40.41
689.477	40.09
689.663	39.83
689.849	39.92
690.035	40.29
690.221	40.59
690.407	40.44
690.593	40.32
690.779	40.15
690.965	40.4
691.151	40.41
691.337	40.32
691.523	40.79
691.709	40.61
691.895	40.96
692.081	41.19
692.267	41.08
692.453	41.27
692.639	41.69
692.825	41.79
693.011	41.78
693.196	41.76
693.382	42.1
693.568	42.06
693.754	42.35
693.94	41.94
694.125	41.51
694.311	41.16
694.497	41.02
694.682	40.98
694.868	41.12
695.054	41.2
695.239	41.27
695.425	40.78
695.611	40.46
695.796	40.5
695.982	40.42
696.168	40.43
696.353	40.32
696.539	39.96
696.724	39.64
696.91	38.96
697.095	38.88
697.281	38.52
697.466	38.38
697.652	38.34
697.837	38.01
698.023	37.82
698.208	37.58
698.393	37.5
698.579	37.39
698.764	37.26
698.949	37.36
699.135	37.06
699.32	36.93
699.505	36.64
699.691	36.73
699.876	36.68
700.061	36.92
700.246	37.03
700.432	37.33
700.617	37.72
700.802	38
700.987	38.63
701.172	39.04
701.358	39.69
701.543	40.29
701.728	40.89
701.913	41.31
702.098	41.37
702.283	41.83
702.468	42.18
702.653	42.75
702.838	43.43
703.023	43.5
703.208	44.05
703.393	44.24
703.578	45.25
703.763	45.08
703.948	45.78
704.133	46.78
704.318	47.5
704.503	47.84
704.688	48.54
704.873	49.28
705.057	50.12
705.242	50.73
705.427	51.7
705.612	51.89
705.797	52.96
705.981	53.96
706.166	54.83
706.351	55.35
706.536	56.03
706.72	56.45
706.905	56.65
707.09	57.31
707.274	57.5
707.459	57.58
707.644	58.14
707.828	58.31
708.013	58.06
708.197	57.61
708.382	57.61
708.567	57.17
708.751	56.39
708.936	56.21
709.12	55.73
709.305	55.19
709.489	55
709.673	54
709.858	53.34
710.042	52.86
710.227	52.8
710.411	52.58
710.596	52.83
710.78	53.17
710.964	53.08
711.149	52.57
711.333	52.95
711.517	52.92
711.702	53.19
711.886	53.32
712.07	53.28
712.254	52.3
712.438	51.77
712.623	50.96
712.807	50.53
712.991	49.75
713.175	49.43
713.359	48.21
713.544	47.3
713.728	46.33
713.912	45.24
714.096	44.25
714.28	43.86
714.464	43.09
714.648	42.77
714.832	41.99
715.016	41.77
715.2	41.42
715.384	41.67
715.568	41.59
715.752	41.65
715.936	41.8
716.12	42.16
716.304	42.43
716.488	42.49
716.671	42.3
716.855	42.63
717.039	42.76
717.223	42.54
717.407	42.35
717.59	42.19
717.774	42.2
717.958	42.17
718.142	41.92
718.325	41.81
718.509	42.08
718.693	42.3
718.877	42.4
719.06	42.11
719.244	42.13
719.428	42.45
719.611	43.1
719.795	43.17
719.978	43.18
720.162	43.85
720.345	44.29
720.529	43.93
720.713	43.92
720.896	43.86
721.08	43.82
721.263	43.93
721.446	43.87
721.63	43.21
721.813	43.23
721.997	43.58
722.18	43.16
722.364	43.04
722.547	43.4
722.73	43.27
722.914	42.95
723.097	43.63
723.28	44.07
723.464	43.98
723.647	44.54
723.83	44.86
724.013	44.88
724.197	44.77
724.38	44.42
724.563	44.53
724.746	44.79
724.929	44.97
725.112	44.61
725.296	44.29
725.479	44.36
725.662	44.11
725.845	43.97
726.028	44.1
726.211	43.89
726.394	43.47
726.577	43.4
726.76	43.55
726.943	43.85
727.126	43.59
727.309	43.58
727.492	43.56
727.675	43.58
727.858	43.39
728.041	42.9
728.224	43.31
728.407	43.95
728.589	44.01
728.772	44.19
728.955	44
729.138	43.59
729.321	43.85
729.503	43.7
729.686	43.66
729.869	43.6
730.052	43.59
730.234	43.44
730.417	43.17
730.6	43.38
730.782	43.4
730.965	43.45
731.148	44.16
731.33	44.29
731.513	44.34
731.695	44.52
731.878	44.52
732.061	44.75
732.243	44.98
732.426	45.43
732.608	45.35
732.791	45.2
732.973	45.23
733.156	45.35
733.338	45.4
733.52	45.43
733.703	45.88
733.885	46.59
734.068	46.89
734.25	46.7
734.432	46.99
734.615	47.15
734.797	47.33
734.979	48.07
735.162	47.83
735.344	47.4
735.526	48.23
735.708	47.78
735.891	47.84
736.073	47.57
736.255	47.9
736.437	47.27
736.619	46.72
736.802	46.46
736.984	45.88
737.166	45.89
737.348	46.04
737.53	45.55
737.712	45.32
737.894	44.14
738.076	43.82
738.258	43.86
738.44	43.57
738.622	44.19
738.804	44.59
738.986	44.5
739.168	44.48
739.35	44.75
739.532	44.45
739.714	45.01
739.896	46.12
740.078	47.11
740.259	46.9
740.441	47.58
740.623	47.77
740.805	47.41
740.987	47.53
741.168	48.4
741.35	49.1
741.532	49.89
741.714	49.59
741.895	49.47
742.077	49.06
742.259	49.54
742.44	49.69
742.622	49.37
742.804	49.6
742.985	50.13
743.167	50.05
743.348	49.47
743.53	48.69
743.711	49.36
743.893	49.17
744.075	49.14
744.256	49.9
744.438	49.7
744.619	50.08
744.8	50.79
744.982	50.93
745.163	51.34
745.345	51.77
745.526	52.33
745.707	51.53
745.889	52.2
746.07	52.9
746.252	52.2
746.433	52.79
746.614	52.32
746.795	51.57
746.977	50.92
747.158	50.39
747.339	50.24
747.52	50.53
747.702	51.53
747.883	51.55
748.064	51.44
748.245	51.02
748.426	51.03
748.607	51.17
748.788	50.92
748.97	51.34
749.151	51.07
749.332	50.84
749.513	50.56
749.694	50.12
749.875	49.8
750.056	50.44
750.237	50.48
750.418	50.76
750.599	51.62
750.78	52.29
750.96	52.42
751.141	52.26
751.322	52.25
751.503	51.79
751.684	51.81
751.865	51.61
752.046	50.78
752.226	50.56
752.407	49.9
752.588	49.88
752.769	50.06
752.949	49.24
753.13	49.73
753.311	49.59
753.492	49.54
753.672	49.79
753.853	49.78
754.034	49.25
754.214	49.92
754.395	49.83
754.575	49.53
754.756	49.75
754.937	50.66
755.117	50.52
755.298	51.24
755.478	51.44
755.659	51.79
755.839	52.31
756.02	52.35
756.2	52.15
756.381	52.84
756.561	52.8
756.741	51.97
756.922	51.5
757.102	51.66
757.283	51.53
757.463	51.83
757.643	51.21
757.823	50.6
758.004	50.49
758.184	50.67
758.364	49.76
758.545	49.19
758.725	49.22
758.905	48.66
759.085	48.12
759.265	47.32
759.446	47.1
759.626	45.96
759.806	45.56
759.986	45.55
760.166	43.95
760.346	43.69
760.526	43.89
760.706	43.3
760.886	42.66
761.066	42.36
761.246	42.76
761.426	42.75
761.606	42.74
761.786	43.08
761.966	43.23
762.146	43.85
762.326	43.69
762.506	43.47
762.686	43.68
762.866	43.55
763.046	43.42
763.225	42.75
763.405	42.39
763.585	42.4
763.765	42
763.945	41.65
764.124	41.79
764.304	41.9
764.484	41.98
764.664	42.28
764.843	42.6
765.023	43.28
765.203	44.02
765.382	44.24
765.562	44.77
765.741	45.51
765.921	46.69
766.101	47.47
766.28	47.71
766.46	47.82
766.639	47.89
766.819	48.62
766.998	49.11
767.178	48.9
767.357	49.01
767.537	49.8
767.716	49.88
767.896	49.52
768.075	49.34
768.254	49.49
768.434	50.55
768.613	51.06
768.792	51.56
768.972	51.85
769.151	52.94
769.33	53.69
769.51	53.84
769.689	54.04
769.868	53.76
770.047	54.41
770.226	56.23
770.406	55.85
770.585	55.57
770.764	55.63
770.943	54.99
771.122	54.61
771.301	55.87
771.48	55.91
771.66	56.99
771.839	57.88
772.018	57.11
772.197	56.55
772.376	57
772.555	57.12
772.734	57.53
772.913	57.61
773.092	56.91
773.271	56.25
773.449	56.01
773.628	55.15
773.807	55.56
773.986	55.79
774.165	56.02
774.344	56.57
774.523	56.84
774.701	56.45
774.88	57.11
775.059	58.14
775.238	57.93
775.417	58.41
775.595	59.27
775.774	58.85
775.953	59.27
776.131	58.69
776.31	58.06
776.489	58.34
776.667	58.09
776.846	58.01
777.025	56.07
777.203	55.56
777.382	56.59
777.56	56.01
777.739	56.62
777.917	56.26
778.096	56.55
778.274	56.57
778.453	56.22
778.631	56.13
778.81	55.1
778.988	56.77
779.166	57.81
779.345	56.67
779.523	56.59
779.702	55.82
779.88	55.51
780.058	54.88
780.237	55.07
780.415	56.42
780.593	56.82
780.771	57.85
780.95	57.83
781.128	57.92
781.306	56.82
781.484	56.6
781.662	57.58
781.841	58.64
782.019	58.93
782.197	57.86
782.375	56.33
782.553	56.29
782.731	56.47
782.909	56.55
783.087	56.62
783.265	57.26
783.443	57.6
783.621	57.1
783.799	57.19
783.977	58.5
784.155	58.74
784.333	58.69
784.511	59.18
784.689	58.99
784.867	59.05
785.045	58.9
785.223	59.35
785.4	59.07
785.578	58.25
785.756	57.96
785.934	57.68
786.112	58.13
786.289	59.04
786.467	58.37
786.645	58.31
786.823	57.84
787	56.98
787.178	55.77
787.356	55.31
787.533	55.01
787.711	55.21
787.889	53.29
788.066	53.27
788.244	51.57
788.421	51.17
788.599	51.16
788.776	51.91
788.954	52.44
789.131	53.56
789.309	54.48
789.486	55.49
789.664	54.72
789.841	54.89
790.019	54.16
790.196	54.79
790.373	55.73
790.551	56.39
790.728	56.35
790.906	55.95
791.083	56.22
791.26	56.28
791.437	55
791.615	55.15
791.792	56.2
791.969	58.32
792.146	58.54
792.324	58.9
792.501	57.69
792.678	57.83
792.855	57.77
793.032	57.43
793.209	56.6
793.387	58.19
793.564	58.8
793.741	59.19
793.918	57.2
794.095	57.65
794.272	57.3
794.449	58.25
794.626	58.45
794.803	58.31
794.98	59
795.157	60.22
795.334	59.18
795.511	58.48
795.688	58.01
795.864	58.51
796.041	58.84
796.218	57.93
796.395	57.55
796.572	56.99
796.749	56.18
796.925	55.65
797.102	54.65
797.279	54.53
797.456	55.05
797.632	54.67
797.809	54.8
797.986	54.41
798.162	55.22
798.339	54.2
798.516	53.35
798.692	53.81
798.869	53.54
799.046	53.51
799.222	53.74
799.399	52.61
799.575	53.1
799.752	54.13
799.928	54.51
800.105	53.16
800.281	54.57
800.458	55.82
800.634	56.53
800.811	56.34
800.987	55.65
801.163	56.11
801.34	57.08
801.516	56.27
801.692	55.68
801.869	56.18
802.045	57.53
802.221	57.5
802.398	57.33
802.574	57.6
802.75	58.86
802.926	59.98
803.103	59.6
803.279	59.69
803.455	60.74
803.631	60.88
803.807	60.6
803.983	61.66
804.16	61.08
804.336	61.22
804.512	61
804.688	59.84
804.864	59.11
805.04	59.32
805.216	58.85
805.392	57.96
805.568	56.42
805.744	55.99
805.92	55.37
806.096	55.63
806.272	55.9
806.448	55.45
806.623	56.28
806.799	56.55
806.975	56.66
807.151	58.06
807.327	58.46
807.503	59.42
807.678	59.89
807.854	59.3
808.03	58.89
808.206	58.26
808.381	58.48
808.557	58.06
808.733	58.48
808.908	58.23
809.084	58.28
809.26	58.55
809.435	59.07
809.611	58.63
809.787	58.28
809.962	57.13
810.138	58.57
810.313	58.61
810.489	58.04
810.664	58.82
810.84	57.83
811.015	58.05
811.191	58.78
811.366	59.26
811.542	60.41
811.717	61.51
811.892	64.78
812.068	64.79
812.243	65.24
812.419	66.16
812.594	63.78
812.769	64.08
812.944	62.3
813.12	60.68
813.295	58.49
813.47	57.18
813.645	56.94
813.821	53.9
813.996	52.9
814.171	50.6
814.346	49.65
814.521	54.08
814.697	53.21
814.872	53.41
815.047	53
815.222	53.88
815.397	53.67
815.572	53.6
815.747	54.22
815.922	54.4
816.097	54.88
816.272	54.66
816.447	53.19
816.622	55.11
816.797	54.02
816.972	54.09
817.147	54.02
817.322	53.52
817.496	52.42
817.671	53.11
817.846	51.29
818.021	51.58
818.196	51.57
818.371	50.38
818.545	50.53
818.72	51.99
818.895	52.4
819.069	52.62
819.244	51.44
819.419	50.29
819.594	49.55
819.768	49.02
819.943	48.02
820.117	47.18
820.292	44.7
820.467	43.51
820.641	42
820.816	40.52
820.99	38.94
821.165	38.86
821.339	38.28
821.514	37.4
821.688	36.9
821.863	36.31
822.037	35.99
822.212	35.93
822.386	35.3
822.56	35.04
822.735	35.06
822.909	34.91
823.084	34.83
823.258	34.84
823.432	34.97
823.606	34.94
823.781	35.11
823.955	34.98
824.129	35.14
824.303	35.43
824.478	35.56
824.652	35.65
824.826	36.28
825	35.84
825.174	36.58
825.348	36.65
825.523	37.3
825.697	37.61
825.871	37.92
826.045	38.51
826.219	39.02
826.393	38.2
826.567	38.1
826.741	37.85
826.915	38.05
827.089	36.78
827.263	36.67
827.437	36.42
827.611	36.68
827.784	37.3
827.958	36.66
828.132	36.4
828.306	37.45
828.48	38.11
828.654	38.26
828.827	39.01
829.001	40.6
829.175	41.42
829.349	42.12
829.522	42.29
829.696	42.67
829.87	44.56
830.044	45.56
830.217	45.94
830.391	45.55
830.565	46.19
830.738	47.52
830.912	47.37
831.085	47.11
831.259	46.29
831.432	45.95
831.606	43.79
831.779	42.38
831.953	42.11
832.126	43.44
832.3	43.56
832.473	42.96
832.647	41.19
832.82	40.82
832.994	39.93
833.167	39.89
833.34	40.42
833.514	40.89
833.687	41.33
833.86	40.89
834.034	40.05
834.207	39.58
834.38	39.7
834.553	40
834.727	39.81
834.9	40.78
835.073	41.37
835.246	41.4
835.419	41.66
835.593	41.07
835.766	41.64
835.939	41.29
836.112	42.57
836.285	43.85
836.458	45.54
836.631	46.89
836.804	48.55
836.977	49.16
837.15	50.32
837.323	51.15
837.496	52.99
837.669	53.51
837.842	56.08
838.015	57.63
838.188	56.69
838.361	55.63
838.533	55.57
838.706	55.17
838.879	56.84
839.052	57.06
839.225	58.27
839.398	56.93
839.57	58.28
839.743	58.98
839.916	60.09
840.088	60.92
840.261	60.37
840.434	60.78
840.607	60.22
840.779	58.52
840.952	58.55
841.124	58.57
841.297	60.41
841.47	60.74
841.642	60.79
841.815	60.14
841.987	59.37
842.16	62.32
842.332	61.69
842.505	63.89
842.677	64.85
842.85	64.16
843.022	64.54
843.194	67.68
843.367	66.48
843.539	66.18
843.712	66.87
843.884	66.83
844.056	68.21
844.229	70.45
844.401	69.23
844.573	71.2
844.745	74.02
844.918	72.4
845.09	67.97
845.262	69.75
845.434	68.11
845.606	68.4
845.779	69.74
845.951	65.41
846.123	64.4
846.295	62.81
846.467	64.28
846.639	64.47
846.811	73.81
846.983	76.79
847.155	74.02
847.327	80.17
847.499	78.43
847.671	85.28
847.843	86.19
848.015	84.74
848.187	87.14
848.359	82.48
848.531	82.63
848.703	75.84
848.875	75.4
849.047	80.76
849.218	77
849.39	79.87
849.562	77.23
849.734	75.49
849.905	82.76
850.077	80.89
850.249	87.29
850.421	82.58
850.592	81.95
850.764	82.07
850.936	80.21
851.107	81.39
851.279	77.58
851.451	77.32
851.622	79.88
851.794	75.44
851.965	76.72
852.137	74.07
852.308	76.28
852.48	79.19
852.651	80.26
852.823	79.9
852.994	78.07
853.166	84.04
853.337	84.87
853.509	84.69
853.68	86.28
853.851	84.72
854.023	83.42
854.194	84.94
854.365	82.26
854.537	77.1
854.708	76.51
854.879	80.63
855.05	79.67
855.222	76.05
855.393	74.16
855.564	75.25
855.735	75.52
855.906	76.86
856.078	78.11
856.249	80.4
856.42	84.3
856.591	85.67
856.762	80.98
856.933	78.27
857.104	78.13
857.275	83.79
857.446	79.87
857.617	80.97
857.788	84.56
857.959	81.77
858.13	81.31
858.301	84.38
858.472	83.81
858.643	88.4
858.814	87.71
858.985	91.22
859.155	86.01
859.326	86.84
859.497	85.64
859.668	79.49
859.839	81.62
860.009	80.42
860.18	78.14
860.351	78.22
860.522	80.46
860.692	84.84
860.863	87.64
861.034	89.97
861.204	90.96
861.375	91.58
861.546	93.86
861.716	92.93
861.887	90.85
862.057	89.75
862.228	91.14
862.398	87.78
862.569	84.18
862.739	79.98
862.91	76.48
863.08	74.07
863.251	74.91
863.421	74.01
863.592	74.61
863.762	72.86
863.932	70.26
864.103	70.75
864.273	72.71
864.443	69.16
864.614	67.08
864.784	69.61
864.954	73.04
865.125	74.56
865.295	73.14
865.465	74.37
865.635	79.73
865.805	78.52
865.976	73.95
866.146	75.99
866.316	84.99
866.486	92.02
866.656	91.28
866.826	92.87
866.996	90.01
867.166	90.98
867.336	89.55
867.506	89.08
867.676	94.51
867.846	100.03
868.016	100.7
868.186	96.84
868.356	93.08
868.526	91.38
868.696	87.78
868.866	89.58
869.036	91.23
869.206	87.7
869.376	84.44
869.545	83.85
869.715	84.14
869.885	80.92
870.055	82.04
870.224	85.03
870.394	83.77
870.564	86.06
870.734	82.77
870.903	84.32
871.073	88.46
871.243	98.23
871.412	101.81
871.582	97.97
871.751	98.39
871.921	100.28
872.091	90.25
872.26	92.87
872.43	92.22
872.599	95.05
872.769	91.24
872.938	91.6
873.108	86.48
873.277	84.31
873.446	82.76
873.616	78.62
873.785	74.37
873.955	82.91
874.124	84.95
874.293	88.52
874.463	84.86
874.632	85.57
874.801	79.72
874.971	76.32
875.14	74.6
875.309	73.65
875.478	75.21
875.647	78.98
875.817	75.8
875.986	72.62
876.155	71.52
876.324	74.2
876.493	69.73
876.662	72.29
876.831	74.51
877	73.87
877.17	72.54
877.339	74.47
877.508	70.28
877.677	72.07
877.846	71.89
878.015	67
878.184	64.28
878.352	70.17
878.521	69.81
878.69	70.15
878.859	66.99
879.028	65.13
879.197	60.48
879.366	60.84
879.534	53.67
879.703	53.92
879.872	50.35
880.041	49.25
880.21	46.01
880.378	42.51
880.547	38.4
880.716	37.12
880.884	37.43
881.053	36.87
881.222	34.14
881.39	33.63
881.559	32.4
881.727	31.88
881.896	30.99
882.065	30.13
882.233	30.12
882.402	30.71
882.57	30.54
882.739	29.66
882.907	30.1
883.076	30.76
883.244	30.89
883.412	31.04
883.581	31.93
883.749	32.54
883.918	33.46
884.086	33.55
884.254	33.92
884.423	34.93
884.591	36.23
884.759	36.28
884.927	36.97
885.096	38.29
885.264	38.55
885.432	38.72
885.6	38.35
885.769	38.56
885.937	40.7
886.105	41.1
886.273	42.88
886.441	45.27
886.609	45.62
886.777	45.01
886.945	47.78
887.113	51.17
887.281	52.11
887.449	54.22
887.617	55.32
887.785	57.95
887.953	59.82
888.121	62.03
888.289	57.14
888.457	61.73
888.625	67.48
888.793	67.66
888.961	63.19
889.129	67.96
889.296	72.07
889.464	75.68
889.632	74.07
889.8	74.16
889.967	70.54
890.135	79.27
