Data from 2938733__Reflection_03.txt Node
Date: Sun Mar 15 18:36:16 EDT 2015
User: robert
Spectrometer: USB4E03002
Autoset integration time: false
Trigger mode: 4
Integration Time (sec): 1.000000E-1
Scans to average: 10
Electric dark correction enabled: false
Nonlinearity correction enabled: false
Boxcar width: 5
Stray light correction enabled: false
XAxis mode: Wavelengths
Stop averaging: false
Number of Pixels in Spectrum: 3648
>>>>>Begin Spectral Data<<<<<
177.575	-1.11
177.794	-16.79
178.014	29.13
178.233	52.25
178.452	70.64
178.672	33.11
178.891	55.77
179.11	56.2
179.33	69.16
179.549	57.6
179.768	41.48
179.987	122.84
180.207	117.49
180.426	103.02
180.645	-56.76
180.864	-50.91
181.084	13.93
181.303	364.71
181.522	-25.3
181.741	-119.44
181.96	-194.44
182.179	-93.9
182.398	-120
182.618	-163.16
182.837	-57.88
183.056	-77.31
183.275	-132.95
183.494	-320.63
183.713	-236.51
183.932	76.26
184.151	60.74
184.37	70.13
184.589	31.25
184.808	-96.87
185.027	-64.23
185.246	-115.83
185.465	-157.95
185.684	-338.82
185.903	-587.3
186.122	-643.18
186.341	138.58
186.56	200.58
186.779	177.88
186.998	580
187.216	491.4
187.435	366.67
187.654	318.18
187.873	168.05
188.092	124.11
188.311	140.07
188.53	135.08
188.748	209.13
188.967	163.13
189.186	269.13
189.405	154.98
189.623	125.93
189.842	89.22
190.061	69.1
190.28	83.23
190.498	132.56
190.717	122.3
190.936	118.25
191.154	167.1
191.373	41.53
191.592	6.56
191.81	25.44
192.029	43.39
192.248	67.65
192.466	88.19
192.685	40.86
192.904	2.5
193.122	32.84
193.341	-15.36
193.559	-25.99
193.778	22.22
193.996	85.92
194.215	91.85
194.433	62.87
194.652	36.01
194.87	19.53
195.089	24.73
195.307	23.32
195.526	-23.87
195.744	29.67
195.963	72.25
196.181	49.04
196.399	22.56
196.618	-26.07
196.836	33.93
197.055	4.79
197.273	59.34
197.491	37.3
197.71	37.67
197.928	70.69
198.146	52.89
198.365	32.25
198.583	42.2
198.801	34.91
199.019	38.38
199.238	8.96
199.456	52.5
199.674	-3
199.892	11.08
200.111	31.61
200.329	1.81
200.547	-12.89
200.765	6.96
200.983	27.85
201.202	65.64
201.42	57.18
201.638	50.56
201.856	31.77
202.074	57.65
202.292	81
202.51	6.6
202.728	46.41
202.946	45.16
203.165	-3.16
203.383	-65.91
203.601	11.46
203.819	0.98
204.037	60.78
204.255	38.55
204.473	-63.93
204.691	-32.17
204.909	18.63
205.127	-1.91
205.345	6.01
205.562	54.78
205.78	27.9
205.998	-45.32
206.216	-71.78
206.434	-191.28
206.652	-104.49
206.87	-120.8
207.088	-40.1
207.306	-125.7
207.523	-111.8
207.741	-19.7
207.959	-18.43
208.177	2.16
208.395	-6.87
208.612	-12.1
208.83	6.2
209.048	-4.45
209.266	6.55
209.483	-18.4
209.701	-54.15
209.919	-37.8
210.136	-78.45
210.354	-90.25
210.572	-221.79
210.79	-124.55
211.007	-92.77
211.225	-80.28
211.442	-13.66
211.66	-7.38
211.878	-13.24
212.095	35.95
212.313	29.67
212.53	44.91
212.748	38.57
212.966	41.94
213.183	43.5
213.401	52.35
213.618	55.82
213.836	44.32
214.053	47.91
214.271	56.62
214.488	31.92
214.705	44.07
214.923	25.85
215.14	16.26
215.358	23.94
215.575	23.58
215.793	15.68
216.01	-3.69
216.227	-11.09
216.445	-30.52
216.662	-11.65
216.879	-11.59
217.097	-18.43
217.314	-11.92
217.531	1.92
217.749	-5.78
217.966	-11.87
218.183	-25.23
218.4	-5
218.618	-14.41
218.835	7.54
219.052	15.78
219.269	4.95
219.487	1.48
219.704	11.04
219.921	14.97
220.138	14.29
220.355	-5.19
220.572	-8.48
220.79	-4.03
221.007	-25.68
221.224	-20.05
221.441	-33.02
221.658	-2.11
221.875	-8.24
222.092	-8.67
222.309	-9.32
222.526	-2.74
222.743	-1.63
222.96	-4.16
223.177	-18.75
223.394	-3.32
223.611	-7.77
223.828	-3.04
224.045	-8.67
224.262	-5.15
224.479	-11.06
224.696	-14.89
224.913	-13.83
225.13	-10.34
225.347	-4.82
225.564	2.77
225.781	-2.97
225.997	-1.79
226.214	-2.65
226.431	-1.68
226.648	-2.37
226.865	0.06
227.082	3.15
227.298	3.64
227.515	2.32
227.732	1.68
227.949	3.07
228.165	3.01
228.382	4.27
228.599	4.08
228.816	5.07
229.032	5.15
229.249	5.38
229.466	4.5
229.682	3.79
229.899	4.23
230.116	4.91
230.332	4.01
230.549	4.88
230.765	2.83
230.982	2.01
231.199	0.73
231.415	0.78
231.632	1.39
231.848	1.53
232.065	1.15
232.281	3.66
232.498	4.22
232.714	4.25
232.931	5.29
233.147	8.19
233.364	8.28
233.58	8.86
233.797	8.95
234.013	8.87
234.23	9.89
234.446	10.21
234.662	8.5
234.879	6.95
235.095	6.49
235.312	4.66
235.528	4.54
235.744	4.63
235.961	3.91
236.177	2.74
236.393	1.11
236.61	-0.09
236.826	-0.4
237.042	0.51
237.258	1.06
237.475	3.98
237.691	6.53
237.907	4.39
238.123	5.23
238.339	6.22
238.556	7.28
238.772	9.41
238.988	8.86
239.204	10.01
239.42	9.48
239.636	8.27
239.853	7.22
240.069	5.86
240.285	7.61
240.501	5.97
240.717	3.9
240.933	3.65
241.149	3.17
241.365	3.89
241.581	2.88
241.797	3.08
242.013	3.33
242.229	3.04
242.445	3.31
242.661	2.59
242.877	2.94
243.093	3.54
243.309	3.55
243.525	3.6
243.741	3.17
243.957	4.04
244.173	3.11
244.388	3.42
244.604	3.33
244.82	2.7
245.036	2.66
245.252	2.97
245.468	3.32
245.683	3.4
245.899	3.47
246.115	3.57
246.331	3.07
246.547	3.43
246.762	3.81
246.978	3.73
247.194	4.17
247.409	4.24
247.625	4.45
247.841	4.38
248.057	4.52
248.272	4.72
248.488	4.76
248.703	5.21
248.919	5.15
249.135	4.85
249.35	5.28
249.566	4.71
249.782	4.77
249.997	4.54
250.213	4.71
250.428	4.09
250.644	2.42
250.859	2.82
251.075	2.37
251.29	2.73
251.506	2.76
251.721	2.91
251.937	2.95
252.152	3.37
252.368	3.35
252.583	3.44
252.798	3.38
253.014	4.59
253.229	4.41
253.445	4.41
253.66	3.83
253.875	3.83
254.091	4.02
254.306	3.74
254.521	4.85
254.737	4.15
254.952	3.86
255.167	5.49
255.383	5.14
255.598	6.04
255.813	6.69
256.028	7
256.244	6.55
256.459	5.3
256.674	5.82
256.889	3.93
257.104	4.18
257.32	4
257.535	3.27
257.75	2.67
257.965	1.9
258.18	1.86
258.395	2.43
258.61	2.31
258.826	2.79
259.041	2.71
259.256	3.52
259.471	3.44
259.686	3.37
259.901	3.61
260.116	3.8
260.331	3.98
260.546	3.91
260.761	3.82
260.976	4.06
261.191	3.82
261.406	4.04
261.621	3.36
261.836	3.49
262.05	3.91
262.265	3.93
262.48	4.07
262.695	3.68
262.91	3.75
263.125	3.21
263.34	3.05
263.555	3.23
263.769	3.1
263.984	3.1
264.199	2.84
264.414	1.6
264.629	0.84
264.843	0.73
265.058	0.25
265.273	0.79
265.488	1.34
265.702	1.7
265.917	1.18
266.132	0.44
266.346	1.1
266.561	1.54
266.776	1.72
266.99	1.59
267.205	2.28
267.42	2.72
267.634	2.71
267.849	2.68
268.063	2.42
268.278	2.53
268.492	3.51
268.707	3.05
268.922	2.71
269.136	3.16
269.351	3.69
269.565	3.58
269.78	3.4
269.994	3.05
270.209	3.29
270.423	2.55
270.637	2.7
270.852	2.38
271.066	2.67
271.281	3
271.495	3.21
271.709	2.84
271.924	2.47
272.138	3.11
272.353	3.22
272.567	2.75
272.781	3.13
272.996	3.13
273.21	3.07
273.424	3.02
273.638	2.77
273.853	2.96
274.067	3.25
274.281	2.71
274.495	2.39
274.71	2
274.924	2.1
275.138	2.07
275.352	2.08
275.566	2.1
275.781	2.22
275.995	2.5
276.209	1.87
276.423	2.06
276.637	2.81
276.851	2.47
277.065	2.11
277.279	2.09
277.493	2.71
277.707	3.14
277.921	2.43
278.135	2.57
278.349	2.03
278.563	1.56
278.777	0.52
278.991	0.38
279.205	-0.14
279.419	0.43
279.633	0.75
279.847	-0.23
280.061	-0.51
280.275	-0.01
280.489	-0.84
280.703	-0.94
280.917	-0.03
281.131	0.63
281.344	0.84
281.558	1.04
281.772	1.2
281.986	1.19
282.2	1.89
282.414	1.7
282.627	1.85
282.841	2.28
283.055	2.65
283.269	2.67
283.482	2.43
283.696	2.3
283.91	2.25
284.123	1.9
284.337	1.52
284.551	1.44
284.764	1.62
284.978	1.61
285.192	1.47
285.405	1.57
285.619	1.49
285.833	1.77
286.046	1.74
286.26	1.92
286.473	2.17
286.687	2.65
286.9	2.56
287.114	2.65
287.327	2.71
287.541	2.91
287.754	2.87
287.968	2.94
288.181	3.38
288.395	3.03
288.608	2.93
288.822	3.1
289.035	2.73
289.248	2.99
289.462	2.88
289.675	2.99
289.889	3.07
290.102	2.74
290.315	2.65
290.529	2.37
290.742	2.22
290.955	2.39
291.169	2.04
291.382	2.06
291.595	2.03
291.808	1.91
292.022	1.35
292.235	1.47
292.448	2.19
292.661	1.95
292.875	1.98
293.088	2.03
293.301	1.95
293.514	2.49
293.727	2.86
293.94	3.26
294.153	3.41
294.367	4.02
294.58	3.97
294.793	3.81
295.006	4.23
295.219	4.27
295.432	4.82
295.645	4.96
295.858	4.88
296.071	4.55
296.284	4.32
296.497	4.2
296.71	4.12
296.923	4.19
297.136	3.89
297.349	3.63
297.562	3.59
297.775	3.56
297.988	3.33
298.201	3.21
298.414	3.43
298.626	3.25
298.839	3.42
299.052	3.61
299.265	3.42
299.478	3.44
299.691	3.5
299.903	3.19
300.116	2.35
300.329	3.06
300.542	2.96
300.755	2.56
300.967	2.42
301.18	2.33
301.393	2.2
301.605	2.06
301.818	2.42
302.031	2.53
302.243	2.87
302.456	3.16
302.669	2.4
302.881	2.01
303.094	2.27
303.307	2.55
303.519	2.79
303.732	2.55
303.944	2.9
304.157	3.08
304.37	2.89
304.582	2.74
304.795	3.32
305.007	3.62
305.22	3.97
305.432	3.87
305.645	3.68
305.857	3.83
306.069	3.55
306.282	3.44
306.494	3.33
306.707	3.5
306.919	3.82
307.132	3.41
307.344	3.48
307.556	3.53
307.769	3.73
307.981	4.06
308.193	3.48
308.406	3.86
308.618	3.58
308.83	3.3
309.043	3.33
309.255	3.3
309.467	3.25
309.679	3.34
309.892	3.3
310.104	3.35
310.316	3.2
310.528	3.57
310.74	3.44
310.953	3.92
311.165	4.07
311.377	4.24
311.589	3.88
311.801	4.05
312.013	3.75
312.225	3.96
312.437	3.83
312.649	3.71
312.862	2.92
313.074	3.2
313.286	2.64
313.498	2.17
313.71	1.8
313.922	1.81
314.134	1.52
314.346	1.9
314.558	1.49
314.77	1.5
314.982	1.87
315.193	2.95
315.405	3.28
315.617	3.3
315.829	3.97
316.041	4.28
316.253	4.68
316.465	4.69
316.677	4.46
316.888	4.71
317.1	4.94
317.312	5.01
317.524	5.31
317.736	4.87
317.947	5.13
318.159	5.23
318.371	5.41
318.583	5.64
318.794	6.23
319.006	6.69
319.218	6.92
319.43	7.01
319.641	7.02
319.853	6.35
320.064	6.29
320.276	6.29
320.488	6.33
320.699	6.6
320.911	6.49
321.123	6.78
321.334	6.19
321.546	5.99
321.757	5.95
321.969	5.81
322.18	5.98
322.392	6.44
322.603	7.19
322.815	7.21
323.026	6.97
323.238	7.32
323.449	7.11
323.661	7.69
323.872	8.21
324.083	8.65
324.295	8.73
324.506	8.94
324.718	8.66
324.929	8.62
325.14	8.91
325.352	9.19
325.563	8.52
325.774	8.73
325.986	8.58
326.197	8.79
326.408	8.36
326.62	8.49
326.831	8.19
327.042	8.52
327.253	8.18
327.464	7.65
327.676	6.93
327.887	7.64
328.098	7.71
328.309	7.94
328.52	7.93
328.732	8.4
328.943	8.34
329.154	8.95
329.365	8.82
329.576	8.93
329.787	9.53
329.998	10.12
330.209	10.05
330.42	9.93
330.631	10.5
330.842	10.5
331.053	10.89
331.264	11.05
331.475	10.8
331.686	11.33
331.897	11.43
332.108	11.28
332.319	11.35
332.53	11.41
332.741	11.44
332.952	10.96
333.163	10.8
333.374	10.54
333.585	10.51
333.795	10.85
334.006	10.02
334.217	10.52
334.428	10.61
334.639	10.88
334.849	10.98
335.06	11.26
335.271	10.85
335.482	10.68
335.692	10.89
335.903	10.99
336.114	10.44
336.325	10.89
336.535	10.25
336.746	10.07
336.957	10.35
337.167	10.48
337.378	10.45
337.589	11.07
337.799	10.98
338.01	10.44
338.22	10.69
338.431	10.49
338.642	10.47
338.852	10.66
339.063	10.81
339.273	10.08
339.484	10
339.694	9.75
339.905	9.23
340.115	9.28
340.326	9.35
340.536	9.17
340.746	9.4
340.957	9.22
341.167	9.39
341.378	9.56
341.588	9.44
341.799	9.22
342.009	9.32
342.219	9.41
342.43	9.78
342.64	10.17
342.85	10.26
343.061	10.5
343.271	10.44
343.481	9.85
343.691	9.41
343.902	9.72
344.112	9.92
344.322	9.65
344.532	9.75
344.743	9.48
344.953	9.02
345.163	8.87
345.373	8.79
345.583	8.83
345.793	9.66
346.004	10.23
346.214	10.07
346.424	9.81
346.634	10.12
346.844	10.31
347.054	10.46
347.264	10.53
347.474	10.65
347.684	10.79
347.894	11.23
348.104	10.98
348.314	10.46
348.524	10.69
348.734	10.59
348.944	10.69
349.154	10.79
349.364	10.68
349.574	10.65
349.784	10.54
349.994	10.41
350.204	10.36
350.413	9.83
350.623	9.96
350.833	9.76
351.043	9.77
351.253	9.72
351.463	9.28
351.672	8.9
351.882	9.12
352.092	9.13
352.302	9.17
352.511	9.01
352.721	9.33
352.931	9.33
353.141	9.55
353.35	9.62
353.56	9.32
353.77	9.68
353.979	9.92
354.189	10.17
354.399	10.14
354.608	10.22
354.818	9.97
355.027	10.15
355.237	9.8
355.447	9.65
355.656	9.6
355.866	9.67
356.075	9.47
356.285	9.54
356.494	9.24
356.704	9.33
356.913	9.55
357.123	9.76
357.332	9.44
357.542	9.68
357.751	9.74
357.96	9.9
358.17	10.01
358.379	10.04
358.589	10
358.798	9.94
359.007	9.46
359.217	9.19
359.426	9.22
359.635	9.49
359.845	9.61
360.054	9.76
360.263	9.58
360.472	9.63
360.682	9.56
360.891	9.59
361.1	9.73
361.309	9.9
361.519	9.92
361.728	9.88
361.937	9.7
362.146	9.81
362.355	9.6
362.564	9.5
362.774	9.45
362.983	9.44
363.192	9.3
363.401	9.02
363.61	8.95
363.819	8.79
364.028	8.57
364.237	8.62
364.446	8.43
364.655	8.38
364.864	8.4
365.073	8.27
365.282	8.61
365.491	8.9
365.7	9.28
365.909	9.25
366.118	9.2
366.327	9.32
366.536	9.45
366.745	9.21
366.954	9.34
367.162	9.45
367.371	9.53
367.58	9.3
367.789	9.1
367.998	8.65
368.207	9.11
368.415	9.09
368.624	9.04
368.833	8.76
369.042	8.94
369.25	8.57
369.459	8.76
369.668	8.63
369.877	8.39
370.085	8.35
370.294	8.71
370.503	8.56
370.711	8.73
370.92	8.89
371.129	8.73
371.337	8.69
371.546	9.01
371.754	8.65
371.963	8.72
372.171	8.98
372.38	8.9
372.589	8.74
372.797	8.48
373.006	8.27
373.214	8.21
373.423	8.35
373.631	7.93
373.84	8.04
374.048	8.25
374.256	8.2
374.465	7.61
374.673	7.94
374.882	7.85
375.09	7.86
375.298	8.07
375.507	8.15
375.715	8.02
375.923	8.31
376.132	8.19
376.34	8.01
376.548	7.94
376.757	8.36
376.965	7.78
377.173	7.83
377.381	7.92
377.59	7.62
377.798	7.39
378.006	7.35
378.214	7.19
378.423	7.08
378.631	7.35
378.839	7.29
379.047	7.24
379.255	7.66
379.463	7.52
379.671	7.47
379.879	7.83
380.088	8.17
380.296	8.28
380.504	8.62
380.712	8.54
380.92	8.24
381.128	8.31
381.336	8.28
381.544	8.28
381.752	8.47
381.96	8.23
382.168	8.01
382.376	7.49
382.584	7.39
382.791	7.3
382.999	7.15
383.207	7.16
383.415	7.08
383.623	7.03
383.831	6.94
384.039	6.92
384.247	7.11
384.454	7.03
384.662	7.27
384.87	7.26
385.078	7.27
385.285	7.37
385.493	7.13
385.701	7.12
385.909	7.26
386.116	6.99
386.324	6.86
386.532	6.76
386.739	7.01
386.947	6.9
387.155	7.18
387.362	7
387.57	7.13
387.778	7.39
387.985	7.39
388.193	7.27
388.4	7.46
388.608	7.82
388.816	7.92
389.023	7.51
389.231	7.46
389.438	7.53
389.646	7.45
389.853	7.38
390.061	7.31
390.268	7.35
390.475	7.25
390.683	7.25
390.89	6.63
391.098	6.54
391.305	6.82
391.512	6.77
391.72	6.61
391.927	6.69
392.135	6.5
392.342	6.47
392.549	6.3
392.756	6.35
392.964	6.24
393.171	6.47
393.378	6.59
393.586	6.25
393.793	6.39
394	6.29
394.207	6.18
394.414	6.19
394.622	6.32
394.829	6.32
395.036	6.29
395.243	6.47
395.45	6.38
395.657	6.29
395.864	6.52
396.072	6.52
396.279	6.69
396.486	6.69
396.693	6.7
396.9	6.65
397.107	6.55
397.314	6.59
397.521	6.5
397.728	6.34
397.935	6.35
398.142	6.3
398.349	6.16
398.556	5.99
398.763	5.97
398.97	6.09
399.177	5.93
399.383	6.12
399.59	5.91
399.797	6.13
400.004	6.35
400.211	6.31
400.418	6.24
400.625	6.35
400.831	6.2
401.038	6.3
401.245	6.49
401.452	6.47
401.658	6.23
401.865	6.33
402.072	6.05
402.279	6.01
402.485	5.75
402.692	5.76
402.899	5.52
403.105	5.73
403.312	5.66
403.519	5.28
403.725	5.21
403.932	5.46
404.138	5.37
404.345	5.43
404.552	5.37
404.758	5.68
404.965	5.81
405.171	5.86
405.378	5.96
405.584	5.87
405.791	6.01
405.997	6.05
406.204	6.1
406.41	6.21
406.617	6.15
406.823	6.19
407.029	6.23
407.236	6.02
407.442	6.28
407.649	6.06
407.855	6.27
408.061	6.43
408.268	6.47
408.474	6.62
408.68	6.71
408.887	6.69
409.093	6.77
409.299	6.42
409.505	6.46
409.712	6.25
409.918	6.19
410.124	6.17
410.33	5.93
410.537	6
410.743	5.85
410.949	5.68
411.155	5.75
411.361	5.75
411.567	5.89
411.773	6.17
411.98	6.1
412.186	6.38
412.392	6.33
412.598	6.28
412.804	6.23
413.01	6.02
413.216	6.12
413.422	6.17
413.628	5.94
413.834	5.97
414.04	5.69
414.246	5.81
414.452	5.6
414.658	5.73
414.864	5.77
415.07	5.84
415.275	5.92
415.481	5.91
415.687	5.77
415.893	6
416.099	5.91
416.305	5.81
416.511	5.87
416.716	6.1
416.922	5.99
417.128	6.01
417.334	5.89
417.539	5.99
417.745	5.96
417.951	5.92
418.157	5.93
418.362	5.93
418.568	6.1
418.774	6.08
418.979	5.88
419.185	5.88
419.391	5.95
419.596	5.97
419.802	5.95
420.008	5.95
420.213	6.68
420.419	6.61
420.624	6.63
420.83	6.72
421.035	6.65
421.241	6.76
421.446	6.79
421.652	6.75
421.857	6.74
422.063	6.76
422.268	6.81
422.474	6.18
422.679	6.17
422.885	6.25
423.09	6.13
423.295	6.13
423.501	5.98
423.706	6.01
423.911	6.04
424.117	6.17
424.322	6.15
424.527	6.13
424.733	6.06
424.938	6.08
425.143	6.05
425.349	6.04
425.554	6.07
425.759	6.21
425.964	6.16
426.169	6.13
426.375	6
426.58	6.03
426.785	5.97
426.99	6.1
427.195	6.15
427.4	6.22
427.605	6.29
427.811	6.15
428.016	6.03
428.221	6.06
428.426	5.99
428.631	6.17
428.836	6.12
429.041	6.1
429.246	6.14
429.451	5.99
429.656	5.86
429.861	5.81
430.066	6.07
430.271	6.18
430.476	6.17
430.681	6.33
430.886	6.21
431.09	6.34
431.295	6.44
431.5	6.28
431.705	6.37
431.91	6.49
432.115	6.45
432.32	6.31
432.524	6.16
432.729	6.18
432.934	6.06
433.139	6.09
433.343	6
433.548	6.03
433.753	6.21
433.958	6.18
434.162	6.08
434.367	6.12
434.572	6.12
434.776	6.25
434.981	6.18
435.186	6.25
435.39	6.2
435.595	6.27
435.799	6.22
436.004	6.11
436.209	6.09
436.413	6.07
436.618	6.12
436.822	6.11
437.027	6.04
437.231	6.11
437.436	6.1
437.64	6.15
437.845	6.16
438.049	6.11
438.253	6.28
438.458	6.4
438.662	6.4
438.867	6.39
439.071	6.52
439.275	6.63
439.48	6.67
439.684	6.77
439.888	6.77
440.093	6.7
440.297	6.8
440.501	6.73
440.706	6.58
440.91	6.52
441.114	6.44
441.318	6.48
441.523	6.45
441.727	6.37
441.931	6.31
442.135	6.24
442.339	6.26
442.543	6.17
442.748	6.19
442.952	6.36
443.156	6.55
443.36	6.59
443.564	6.56
443.768	6.54
443.972	6.64
444.176	6.58
444.38	6.59
444.584	6.6
444.788	6.6
444.992	6.52
445.196	6.47
445.4	6.46
445.604	6.51
445.808	6.5
446.012	6.53
446.216	6.46
446.42	6.51
446.624	6.46
446.828	6.41
447.032	6.45
447.235	6.5
447.439	6.49
447.643	6.43
447.847	6.38
448.051	6.3
448.254	6.25
448.458	6.23
448.662	6.17
448.866	6.25
449.069	6.34
449.273	6.3
449.477	6.22
449.681	6.13
449.884	6.14
450.088	6.05
450.292	6.08
450.495	6.1
450.699	6.11
450.902	6.04
451.106	5.99
451.31	5.93
451.513	5.98
451.717	5.95
451.92	6.02
452.124	6.04
452.327	6.17
452.531	6.12
452.734	6.11
452.938	6.11
453.141	6.19
453.345	6.31
453.548	6.23
453.752	6.16
453.955	6.22
454.158	6.12
454.362	6.21
454.565	6.2
454.769	6.15
454.972	6.18
455.175	6.23
455.379	6.17
455.582	6.23
455.785	6.26
455.988	6.26
456.192	6.31
456.395	6.41
456.598	6.29
456.801	6.23
457.005	6.33
457.208	6.34
457.411	6.4
457.614	6.41
457.817	6.16
458.021	6.17
458.224	6.26
458.427	6.29
458.63	6.28
458.833	6.28
459.036	6.33
459.239	6.32
459.442	6.28
459.645	6.18
459.848	6.28
460.051	6.35
460.254	6.4
460.457	6.33
460.66	6.31
460.863	6.28
461.066	6.41
461.269	6.36
461.472	6.48
461.675	6.5
461.878	6.63
462.081	6.46
462.284	6.56
462.486	6.57
462.689	6.73
462.892	6.72
463.095	6.85
463.298	6.74
463.5	6.95
463.703	6.92
463.906	6.82
464.109	6.72
464.311	6.88
464.514	6.89
464.717	6.97
464.92	6.91
465.122	6.82
465.325	6.79
465.528	6.72
465.73	6.63
465.933	6.51
466.135	6.58
466.338	6.76
466.541	6.8
466.743	6.76
466.946	6.63
467.148	6.51
467.351	6.57
467.553	6.57
467.756	6.65
467.958	6.64
468.161	6.72
468.363	6.72
468.566	6.62
468.768	6.39
468.971	6.3
469.173	6.37
469.375	6.38
469.578	6.28
469.78	6.25
469.983	6.2
470.185	6.2
470.387	6.2
470.59	6.22
470.792	6.17
470.994	6.33
471.196	6.29
471.399	6.28
471.601	6.39
471.803	6.53
472.005	6.57
472.208	6.6
472.41	6.57
472.612	6.56
472.814	6.68
473.016	6.83
473.218	6.8
473.421	6.92
473.623	6.85
473.825	6.74
474.027	6.62
474.229	6.5
474.431	6.44
474.633	6.47
474.835	6.49
475.037	6.43
475.239	6.43
475.441	6.49
475.643	6.43
475.845	6.4
476.047	6.43
476.249	6.46
476.451	6.57
476.653	6.72
476.855	6.79
477.057	6.77
477.258	6.69
477.46	6.6
477.662	6.55
477.864	6.57
478.066	6.67
478.268	6.76
478.469	6.89
478.671	6.93
478.873	6.75
479.075	6.67
479.276	6.64
479.478	6.72
479.68	6.73
479.882	6.74
480.083	6.81
480.285	6.71
480.487	6.58
480.688	6.56
480.89	6.55
481.091	6.61
481.293	6.6
481.495	6.56
481.696	6.62
481.898	6.65
482.099	6.63
482.301	6.62
482.502	6.68
482.704	6.74
482.905	6.72
483.107	6.68
483.308	6.7
483.51	6.69
483.711	6.71
483.913	6.66
484.114	6.66
484.315	6.68
484.517	6.64
484.718	6.63
484.92	6.57
485.121	6.53
485.322	6.54
485.524	6.5
485.725	6.51
485.926	6.5
486.127	6.51
486.329	6.47
486.53	6.45
486.731	6.47
486.932	6.46
487.134	6.46
487.335	6.49
487.536	6.53
487.737	6.6
487.938	6.64
488.139	6.65
488.341	6.62
488.542	6.63
488.743	6.66
488.944	6.67
489.145	6.71
489.346	6.72
489.547	6.76
489.748	6.75
489.949	6.7
490.15	6.65
490.351	6.65
490.552	6.7
490.753	6.7
490.954	6.69
491.155	6.74
491.356	6.7
491.557	6.77
491.758	6.79
491.959	6.77
492.159	6.71
492.36	6.72
492.561	6.72
492.762	6.7
492.963	6.67
493.164	6.64
493.364	6.65
493.565	6.72
493.766	6.69
493.967	6.66
494.167	6.71
494.368	6.8
494.569	6.86
494.769	6.85
494.97	6.85
495.171	6.95
495.371	7.04
495.572	6.99
495.773	7
495.973	6.98
496.174	7.04
496.375	7.03
496.575	7.06
496.776	7.04
496.976	7.04
497.177	7.16
497.377	7.21
497.578	7.2
497.778	7.18
497.979	7.24
498.179	7.33
498.38	7.3
498.58	7.28
498.78	7.27
498.981	7.3
499.181	7.33
499.382	7.27
499.582	7.13
499.782	7.09
499.983	7.17
500.183	7.06
500.383	7.03
500.584	7.01
500.784	7.02
500.984	7
501.184	6.93
501.385	6.95
501.585	6.95
501.785	7.08
501.985	7.16
502.185	7.24
502.386	7.34
502.586	7.36
502.786	7.32
502.986	7.39
503.186	7.55
503.386	7.69
503.586	7.74
503.786	7.9
503.987	7.83
504.187	7.87
504.387	7.96
504.587	7.9
504.787	8
504.987	8.04
505.187	8.01
505.387	7.92
505.587	7.86
505.786	7.87
505.986	7.74
506.186	7.79
506.386	7.82
506.586	7.66
506.786	7.77
506.986	7.78
507.186	7.88
507.386	7.99
507.585	8.09
507.785	8.15
507.985	8.19
508.185	8.31
508.384	8.43
508.584	8.42
508.784	8.59
508.984	8.61
509.183	8.5
509.383	8.59
509.583	8.74
509.782	8.87
509.982	8.98
510.182	8.98
510.381	8.99
510.581	9.04
510.781	9.19
510.98	9.1
511.18	9.14
511.379	9.31
511.579	9.3
511.778	9.2
511.978	9.1
512.177	9.12
512.377	9.25
512.576	9.35
512.776	9.32
512.975	9.33
513.175	9.49
513.374	9.54
513.573	9.62
513.773	9.68
513.972	9.73
514.172	9.91
514.371	9.77
514.57	9.87
514.77	9.93
514.969	10.04
515.168	9.99
515.367	10.03
515.567	10.05
515.766	10.14
515.965	10.14
516.164	10.26
516.364	10.25
516.563	10.53
516.762	10.48
516.961	10.5
517.16	10.52
517.359	10.73
517.559	10.77
517.758	10.92
517.957	10.95
518.156	11.1
518.355	11.12
518.554	11.28
518.753	11.26
518.952	11.3
519.151	11.41
519.35	11.48
519.549	11.51
519.748	11.52
519.947	11.57
520.146	11.62
520.345	11.67
520.544	11.68
520.743	11.62
520.942	11.69
521.141	11.89
521.339	11.9
521.538	12.03
521.737	12.09
521.936	12.26
522.135	12.19
522.333	12.22
522.532	12.25
522.731	12.5
522.93	12.6
523.129	12.64
523.327	12.65
523.526	12.85
523.725	12.89
523.923	13.04
524.122	13.15
524.321	13.33
524.519	13.48
524.718	13.6
524.917	13.65
525.115	13.8
525.314	13.92
525.512	14.03
525.711	14.09
525.909	14.16
526.108	14.24
526.306	14.29
526.505	14.37
526.703	14.49
526.902	14.61
527.1	14.72
527.299	14.77
527.497	14.79
527.696	14.8
527.894	14.83
528.092	14.88
528.291	14.87
528.489	14.9
528.688	14.94
528.886	14.98
529.084	15
529.283	14.98
529.481	15.01
529.679	15.11
529.877	15.16
530.076	15.25
530.274	15.35
530.472	15.43
530.67	15.52
530.869	15.63
531.067	15.64
531.265	15.76
531.463	15.9
531.661	16
531.859	16.12
532.057	16.27
532.255	16.3
532.454	16.35
532.652	16.47
532.85	16.52
533.048	16.56
533.246	16.67
533.444	16.65
533.642	16.69
533.84	16.77
534.038	16.78
534.236	16.83
534.434	16.8
534.632	16.94
534.83	16.99
535.027	17.15
535.225	17.23
535.423	17.28
535.621	17.43
535.819	17.54
536.017	17.63
536.215	17.74
536.412	17.73
536.61	17.86
536.808	17.85
537.006	17.93
537.203	17.93
537.401	18.03
537.599	18.16
537.797	18.25
537.994	18.28
538.192	18.32
538.39	18.43
538.587	18.55
538.785	18.67
538.983	18.78
539.18	18.91
539.378	18.97
539.575	19.06
539.773	19.11
539.97	19.15
540.168	19.24
540.366	19.34
540.563	19.39
540.761	19.52
540.958	19.6
541.155	19.65
541.353	19.68
541.55	19.72
541.748	19.76
541.945	19.81
542.143	19.91
542.34	19.95
542.537	19.99
542.735	20.06
542.932	20.02
543.129	20.11
543.327	20.21
543.524	20.29
543.721	20.44
543.919	20.59
544.116	20.65
544.313	20.71
544.51	20.79
544.708	20.94
544.905	21.08
545.102	21.28
545.299	21.36
545.496	21.45
545.693	21.52
545.891	21.52
546.088	21.58
546.285	21.61
546.482	21.68
546.679	21.71
546.876	21.77
547.073	21.76
547.27	21.77
547.467	21.89
547.664	21.81
547.861	21.83
548.058	21.85
548.255	21.77
548.452	21.8
548.649	21.72
548.846	21.67
549.043	21.58
549.24	21.55
549.437	21.57
549.633	21.48
549.83	21.55
550.027	21.56
550.224	21.61
550.421	21.71
550.618	21.72
550.814	21.72
551.011	21.98
551.208	21.87
551.405	21.96
551.601	22.09
551.798	22.2
551.995	22.28
552.191	22.35
552.388	22.52
552.585	22.58
552.781	22.7
552.978	22.83
553.175	22.81
553.371	23.03
553.568	23.02
553.764	22.99
553.961	22.92
554.157	22.92
554.354	22.93
554.55	22.84
554.747	22.82
554.943	22.84
555.14	22.84
555.336	22.71
555.533	22.71
555.729	22.89
555.926	22.95
556.122	22.94
556.318	23.01
556.515	23.09
556.711	23.28
556.907	23.39
557.104	23.47
557.3	23.35
557.496	23.47
557.693	23.51
557.889	23.35
558.085	23.38
558.281	23.53
558.478	23.62
558.674	23.65
558.87	23.6
559.066	23.5
559.262	23.46
559.459	23.57
559.655	23.66
559.851	23.86
560.047	23.97
560.243	24.15
560.439	24.08
560.635	24.07
560.831	24.07
561.027	24.11
561.223	24.22
561.419	24.2
561.615	24.3
561.811	24.38
562.007	24.28
562.203	24.19
562.399	24.18
562.595	24.28
562.791	24.36
562.987	24.43
563.183	24.4
563.379	24.45
563.575	24.64
563.771	24.8
563.966	24.84
564.162	24.75
564.358	24.91
564.554	24.85
564.75	24.97
564.945	24.98
565.141	25.05
565.337	25.11
565.533	25.17
565.728	25.16
565.924	25.15
566.12	25.1
566.315	25.12
566.511	25.12
566.707	25.06
566.902	25.11
567.098	25.04
567.293	25.12
567.489	25.21
567.684	25.17
567.88	25.19
568.076	25.07
568.271	25.17
568.467	25.34
568.662	25.33
568.858	25.57
569.053	25.48
569.248	25.69
569.444	25.63
569.639	25.66
569.835	25.71
570.03	25.77
570.225	26.03
570.421	25.98
570.616	26.03
570.812	26.14
571.007	26.03
571.202	26.1
571.397	26.12
571.593	26.13
571.788	26.08
571.983	26.11
572.178	26.22
572.374	26.11
572.569	26.21
572.764	26.23
572.959	26.13
573.154	26.09
573.35	26.11
573.545	26.03
573.74	26.04
573.935	26.09
574.13	26.15
574.325	26.16
574.52	26.26
574.715	26.38
574.91	26.41
575.105	26.66
575.3	26.81
575.495	26.75
575.69	26.69
575.885	26.85
576.08	26.81
576.275	26.81
576.47	26.82
576.665	26.91
576.86	26.9
577.055	26.89
577.25	26.81
577.444	26.81
577.639	26.95
577.834	27.2
578.029	27.23
578.224	27.37
578.418	27.57
578.613	27.54
578.808	27.57
579.003	27.5
579.197	27.65
579.392	27.66
579.587	27.69
579.781	27.65
579.976	27.66
580.171	27.67
580.365	27.72
580.56	27.6
580.755	27.78
580.949	27.83
581.144	27.86
581.338	27.72
581.533	27.79
581.727	27.96
581.922	27.95
582.116	28.08
582.311	28.1
582.505	28.14
582.7	28.18
582.894	28.24
583.089	28.08
583.283	28.22
583.478	28.24
583.672	28.2
583.866	28.25
584.061	28.4
584.255	28.24
584.449	28.12
584.644	28.15
584.838	28.24
585.032	28.18
585.226	28.34
585.421	28.16
585.615	28.29
585.809	28.3
586.003	28.35
586.198	28.23
586.392	28.4
586.586	28.67
586.78	28.6
586.974	28.56
587.168	28.65
587.363	28.62
587.557	28.7
587.751	28.69
587.945	28.71
588.139	28.5
588.333	28.59
588.527	28.53
588.721	28.45
588.915	28.42
589.109	28.54
589.303	28.37
589.497	28.49
589.691	28.62
589.885	28.69
590.079	28.68
590.273	28.8
590.466	28.96
590.66	28.98
590.854	28.9
591.048	29.19
591.242	29.21
591.436	29.43
591.629	29.23
591.823	29.32
592.017	29.29
592.211	29.34
592.404	29.26
592.598	29.12
592.792	29.1
592.986	29.12
593.179	29.04
593.373	28.98
593.567	28.8
593.76	28.88
593.954	28.78
594.147	28.75
594.341	28.76
594.535	28.89
594.728	28.94
594.922	28.87
595.115	28.95
595.309	28.81
595.502	28.9
595.696	29.04
595.889	28.92
596.083	28.97
596.276	28.99
596.47	29.06
596.663	29.15
596.856	29.19
597.05	29.23
597.243	29.3
597.437	29.3
597.63	29.32
597.823	29.27
598.017	29.4
598.21	29.36
598.403	29.51
598.596	29.47
598.79	29.39
598.983	29.43
599.176	29.5
599.369	29.36
599.563	29.42
599.756	29.35
599.949	29.56
600.142	29.77
600.335	29.76
600.528	29.77
600.722	29.92
600.915	29.98
601.108	29.83
601.301	29.95
601.494	30.08
601.687	30.23
601.88	30.15
602.073	29.78
602.266	29.57
602.459	29.62
602.652	29.5
602.845	29.51
603.038	29.33
603.231	29.38
603.424	29.34
603.617	29.25
603.809	29.27
604.002	29.27
604.195	29.42
604.388	29.64
604.581	29.62
604.774	29.66
604.966	29.66
605.159	29.7
605.352	29.69
605.545	29.66
605.737	29.68
605.93	29.55
606.123	29.64
606.316	29.79
606.508	29.74
606.701	29.92
606.894	29.86
607.086	29.78
607.279	30
607.471	30.12
607.664	30.27
607.857	30.4
608.049	30.8
608.242	31.05
608.434	30.97
608.627	31.26
608.819	31.45
609.012	31.94
609.204	32.48
609.397	33.08
609.589	33.76
609.782	34.23
609.974	34.82
610.166	35.21
610.359	35.91
610.551	36.7
610.743	37.02
610.936	37.51
611.128	37.91
611.32	38.14
611.513	38.12
611.705	38.01
611.897	38
612.09	37.91
612.282	37.49
612.474	36.97
612.666	36.58
612.858	36.24
613.051	35.83
613.243	35.39
613.435	35.16
613.627	34.69
613.819	34.43
614.011	34.14
614.203	33.85
614.395	33.91
614.588	33.77
614.78	33.64
614.972	33.79
615.164	33.54
615.356	33.41
615.548	33.16
615.74	33.16
615.932	33.01
616.124	32.86
616.315	32.52
616.507	32.36
616.699	32.17
616.891	31.96
617.083	31.63
617.275	31.57
617.467	31.24
617.659	30.99
617.85	30.69
618.042	30.67
618.234	30.59
618.426	30.82
618.618	30.8
618.809	30.65
619.001	30.7
619.193	30.78
619.384	30.85
619.576	31.23
619.768	31.34
619.959	31.39
620.151	31.39
620.343	31.39
620.534	31.27
620.726	31.29
620.917	31.32
621.109	31.12
621.301	31.22
621.492	31.37
621.684	31.25
621.875	31.27
622.067	31.35
622.258	31.36
622.45	31.4
622.641	31.39
622.832	31.25
623.024	31.29
623.215	31.4
623.407	31.08
623.598	30.99
623.789	30.77
623.981	30.72
624.172	30.79
624.363	30.78
624.555	30.87
624.746	30.81
624.937	30.68
625.129	30.69
625.32	30.67
625.511	30.91
625.702	30.67
625.893	30.88
626.085	30.95
626.276	30.91
626.467	30.82
626.658	30.83
626.849	30.98
627.04	31.24
627.231	31.44
627.422	31.63
627.614	31.39
627.805	31.74
627.996	31.62
628.187	31.53
628.378	31.42
628.569	31.44
628.76	31.29
628.951	31.34
629.142	31.31
629.332	31.1
629.523	31.09
629.714	31.42
629.905	31.12
630.096	31.37
630.287	31.67
630.478	31.9
630.669	31.87
630.859	32.06
631.05	31.92
631.241	31.94
631.432	32
631.623	31.82
631.813	31.78
632.004	31.89
632.195	31.75
632.385	31.74
632.576	31.66
632.767	31.81
632.957	31.95
633.148	31.84
633.339	31.93
633.529	32.03
633.72	31.92
633.91	31.71
634.101	31.52
634.292	31.48
634.482	31.19
634.673	31.42
634.863	31.36
635.054	31.38
635.244	31.51
635.435	31.34
635.625	31.32
635.815	31.39
636.006	31.33
636.196	31.53
636.387	31.51
636.577	31.38
636.767	31.11
636.958	31.01
637.148	30.94
637.338	30.69
637.529	30.69
637.719	30.56
637.909	30.5
638.099	30.73
638.29	30.74
638.48	30.71
638.67	30.83
638.86	30.99
639.05	30.93
639.241	30.82
639.431	31
639.621	31.04
639.811	31.23
640.001	31.4
640.191	31.32
640.381	31.6
640.571	31.73
640.761	31.85
640.951	31.61
641.141	31.63
641.331	31.69
641.521	31.85
641.711	31.46
641.901	31.08
642.091	31.24
642.281	31.25
642.471	31.02
642.661	30.94
642.851	30.78
643.041	30.9
643.231	31.01
643.42	30.88
643.61	30.65
643.8	30.87
643.99	31.21
644.18	31.19
644.369	31.37
644.559	31.52
644.749	31.48
644.939	31.71
645.128	31.77
645.318	31.84
645.508	31.98
645.697	32.19
645.887	32.27
646.076	32.33
646.266	32.19
646.456	31.98
646.645	31.91
646.835	31.84
647.024	31.88
647.214	31.81
647.403	31.84
647.593	31.9
647.782	32.07
647.972	32.31
648.161	32.26
648.351	32.4
648.54	32.61
648.73	32.83
648.919	33.21
649.108	33.3
649.298	33.9
649.487	33.87
649.677	33.75
649.866	33.51
650.055	33.24
650.244	33.29
650.434	33.24
650.623	33.04
650.812	32.65
651.002	32.56
651.191	32.43
651.38	32.15
651.569	32.16
651.758	32.29
651.947	32.43
652.137	32.66
652.326	32.36
652.515	32.21
652.704	32.2
652.893	32.44
653.082	32.32
653.271	32.27
653.46	32.13
653.649	32.24
653.838	32.2
654.027	32.18
654.216	32.23
654.405	32.4
654.594	32.59
654.783	32.55
654.972	32.61
655.161	32.46
655.35	32.44
655.539	32.54
655.728	32.27
655.916	32.25
656.105	31.92
656.294	31.79
656.483	32.12
656.672	31.99
656.86	32.38
657.049	32.31
657.238	32.55
657.427	32.47
657.615	32.3
657.804	32.2
657.993	32.07
658.181	32.09
658.37	32.09
658.559	32.02
658.747	32.26
658.936	32.01
659.125	31.69
659.313	31.58
659.502	31.82
659.69	31.87
659.879	32.1
660.067	32.21
660.256	32.43
660.444	32.56
660.633	32.5
660.821	32.3
661.01	32.37
661.198	32.89
661.387	32.94
661.575	33.05
661.763	33.12
661.952	33.2
662.14	33.41
662.328	33.29
662.517	33.34
662.705	33.26
662.893	33.44
663.082	33.36
663.27	32.95
663.458	33.09
663.646	32.99
663.834	32.58
664.023	32.33
664.211	32.03
664.399	32.18
664.587	31.94
664.775	32.3
664.963	32.21
665.152	32.25
665.34	32.45
665.528	32.31
665.716	32.26
665.904	32.59
666.092	32.89
666.28	33.12
666.468	33.32
666.656	33.43
666.844	33.15
667.032	33.12
667.22	33.29
667.408	33.41
667.596	33.54
667.784	33.34
667.971	33.36
668.159	33.27
668.347	32.93
668.535	32.58
668.723	32.53
668.911	32.57
669.098	32.45
669.286	32.09
669.474	32.02
669.662	31.81
669.849	31.72
670.037	31.74
670.225	31.68
670.413	32.06
670.6	32.09
670.788	32.23
670.976	32.29
671.163	32.38
671.351	32.64
671.538	32.33
671.726	32.51
671.913	32.7
672.101	32.83
672.289	33.1
672.476	32.87
672.664	33.15
672.851	32.98
673.039	32.91
673.226	32.79
673.413	32.82
673.601	33.25
673.788	33.07
673.976	33.06
674.163	33.12
674.35	33.01
674.538	33.1
674.725	33.1
674.912	32.95
675.1	33.18
675.287	33.21
675.474	33.44
675.662	33.15
675.849	33.4
676.036	33.45
676.223	33.34
676.411	33.33
676.598	33.28
676.785	33.4
676.972	33.72
677.159	33.27
677.346	33.36
677.533	33.24
677.721	33.34
677.908	33.37
678.095	33.41
678.282	33.27
678.469	33.48
678.656	33.71
678.843	33.48
679.03	33.39
679.217	33.78
679.404	34.04
679.591	34.02
679.778	34.11
679.964	34.01
680.151	34.17
680.338	34.19
680.525	33.82
680.712	33.57
680.899	33.77
681.086	33.76
681.272	33.35
681.459	33.11
681.646	33.3
681.833	33.25
682.02	33.34
682.206	32.95
682.393	33.05
682.58	33.18
682.766	33.44
682.953	33.43
683.14	33.47
683.326	33.92
683.513	33.99
683.7	33.9
683.886	34.03
684.073	33.96
684.259	34.18
684.446	34.21
684.632	34.43
684.819	34.22
685.005	34.13
685.192	34.08
685.378	33.94
685.565	34.05
685.751	34.1
685.938	33.95
686.124	34.08
686.31	34.25
686.497	34.06
686.683	34.14
686.87	34.14
687.056	34.22
687.242	34.25
687.429	34.28
687.615	34.19
687.801	33.83
687.987	33.96
688.174	33.7
688.36	33.68
688.546	33.89
688.732	33.4
688.918	33.36
689.105	33.35
689.291	33.49
689.477	33.41
689.663	33.51
689.849	33.74
690.035	33.54
690.221	33.94
690.407	33.69
690.593	33.49
690.779	33.55
690.965	33.89
691.151	33.46
691.337	33.23
691.523	33.38
691.709	33.52
691.895	33.52
692.081	33.8
692.267	33.74
692.453	34.23
692.639	34.49
692.825	34.58
693.011	34.34
693.196	34.77
693.382	34.91
693.568	34.86
693.754	34.83
693.94	35.04
694.125	35.13
694.311	34.74
694.497	34.35
694.682	34.33
694.868	34.42
695.054	34.57
695.239	34.32
695.425	34.24
695.611	33.99
695.796	33.78
695.982	33.51
696.168	33.46
696.353	33.6
696.539	33.86
696.724	33.74
696.91	33.84
697.095	33.7
697.281	33.8
697.466	34.05
697.652	34.1
697.837	33.91
698.023	34.03
698.208	33.86
698.393	33.77
698.579	33.66
698.764	33.78
698.949	33.68
699.135	33.83
699.32	33.87
699.505	33.82
699.691	33.8
699.876	33.78
700.061	33.71
700.246	33.81
700.432	33.91
700.617	33.91
700.802	34.08
700.987	33.97
701.172	33.82
701.358	34
701.543	34.01
701.728	34.21
701.913	34.17
702.098	33.89
702.283	34.03
702.468	34.06
702.653	33.89
702.838	33.65
703.023	34.12
703.208	34.21
703.393	33.85
703.578	34.03
703.763	33.87
703.948	34.55
704.133	34.92
704.318	34.93
704.503	35.27
704.688	35.89
704.873	36.28
705.057	36.25
705.242	36.2
705.427	36.54
705.612	36.22
705.797	36.72
705.981	36.31
706.166	36.74
706.351	36.92
706.536	36.9
706.72	36.51
706.905	36.29
707.09	36.36
707.274	36.76
707.459	36.7
707.644	37.06
707.828	36.87
708.013	37.06
708.197	36.54
708.382	36.58
708.567	36.57
708.751	36.3
708.936	36.14
709.12	35.84
709.305	35.52
709.489	35.57
709.673	35.62
709.858	35.36
710.042	35.26
710.227	35.87
710.411	35.73
710.596	35.35
710.78	36.2
710.964	36.46
711.149	36.8
711.333	36.81
711.517	36.54
711.702	36.18
711.886	36.12
712.07	36.05
712.254	35.59
712.438	35.17
712.623	35.27
712.807	34.67
712.991	34.38
713.175	34.33
713.359	34.27
713.544	34.21
713.728	34.26
713.912	34.84
714.096	34.93
714.28	35.03
714.464	35.16
714.648	35.1
714.832	34.85
715.016	34.92
715.2	34.7
715.384	34.82
715.568	35.04
715.752	34.7
715.936	34.22
716.12	34.05
716.304	33.44
716.488	33.63
716.671	33.47
716.855	33.53
717.039	33.52
717.223	33.42
717.407	33.41
717.59	33.27
717.774	33.42
717.958	33.13
718.142	33.41
718.325	33.86
718.509	33.47
718.693	33.39
718.877	33.01
719.06	32.94
719.244	33.21
719.428	32.89
719.611	33.34
719.795	33.63
719.978	34
720.162	33.76
720.345	33.34
720.529	33.6
720.713	33.68
720.896	34.02
721.08	34.11
721.263	34.08
721.446	34.24
721.63	33.73
721.813	33.11
721.997	33.11
722.18	33.04
722.364	33.62
722.547	33.31
722.73	34
722.914	34.45
723.097	34
723.28	34.32
723.464	34.3
723.647	34
723.83	34.37
724.013	34.16
724.197	34.17
724.38	33.77
724.563	34.39
724.746	33.98
724.929	33.47
725.112	33.86
725.296	33.1
725.479	32.45
725.662	33.1
725.845	32.79
726.028	32.99
726.211	33.02
726.394	32.76
726.577	32.28
726.76	32.29
726.943	32.5
727.126	32.41
727.309	32.92
727.492	33.31
727.675	32.55
727.858	33.07
728.041	33.31
728.224	33.15
728.407	33.85
728.589	34.42
728.772	34.46
728.955	34.64
729.138	34.66
729.321	34.18
729.503	34.5
729.686	34.94
729.869	34.67
730.052	34.28
730.234	34.57
730.417	34.26
730.6	33.95
730.782	34.13
730.965	33.63
731.148	33.26
731.33	33.67
731.513	33.97
731.695	33.93
731.878	34.23
732.061	34.67
732.243	34.43
732.426	34.85
732.608	34.93
732.791	34.71
732.973	34.82
733.156	35.21
733.338	35.47
733.52	35.1
733.703	35.01
733.885	35.09
734.068	34.88
734.25	35.3
734.432	35.05
734.615	35.11
734.797	35.24
734.979	35.44
735.162	35.16
735.344	34.52
735.526	34.61
735.708	34.62
735.891	34.36
736.073	33.96
736.255	34.41
736.437	34.7
736.619	34.6
736.802	34.57
736.984	35.04
737.166	35.7
737.348	35.87
737.53	36.11
737.712	35.97
737.894	36.13
738.076	37.09
738.258	36.29
738.44	35.48
738.622	35.05
738.804	34.6
738.986	33.69
739.168	33.53
739.35	33.08
739.532	32.78
739.714	33.3
739.896	33.46
740.078	32.45
740.259	32.56
740.441	33.51
740.623	33.64
740.805	33.71
740.987	33.81
741.168	33.32
741.35	34.37
741.532	34.39
741.714	34.4
741.895	33.87
742.077	33.89
742.259	33.56
742.44	32.48
742.622	32.88
742.804	33.14
742.985	33.42
743.167	33.51
743.348	33.18
743.53	32.88
743.711	32.37
743.893	32.45
744.075	33.35
744.256	33.4
744.438	33.73
744.619	33.5
744.8	33.64
744.982	33.57
745.163	33.82
745.345	33.37
745.526	33.52
745.707	33.91
745.889	33.42
746.07	33.3
746.252	33.38
746.433	33.44
746.614	33.7
746.795	33.74
746.977	33.73
747.158	33.07
747.339	33.06
747.52	32.95
747.702	32.94
747.883	33.53
748.064	33.23
748.245	33.78
748.426	33.7
748.607	33.04
748.788	33.48
748.97	34.54
749.151	35.47
749.332	35.65
749.513	35.37
749.694	35.44
749.875	35.39
750.056	35.71
750.237	35.05
750.418	35.66
750.599	35.8
750.78	35.44
750.96	34.98
751.141	34.57
751.322	35.03
751.503	35.3
751.684	35.22
751.865	35.38
752.046	34.63
752.226	34.97
752.407	34.44
752.588	34.4
752.769	34.65
752.949	33.77
753.13	34.56
753.311	33.97
753.492	33.69
753.672	34.01
753.853	33.47
754.034	33.16
754.214	33.1
754.395	33.4
754.575	33.81
754.756	34.14
754.937	34.1
755.117	33.26
755.298	33.02
755.478	34.43
755.659	34.17
755.839	34.41
756.02	35.24
756.2	35.07
756.381	35.44
756.561	35
756.741	34.21
756.922	34.86
757.102	35.19
757.283	35.81
757.463	34.99
757.643	35.11
757.823	35.39
758.004	35.73
758.184	35.82
758.364	34.99
758.545	35.54
758.725	36.25
758.905	36.45
759.085	36.13
759.265	35.37
759.446	35.72
759.626	35.03
759.806	34.46
759.986	33.63
760.166	33.75
760.346	33.73
760.526	33.53
760.706	32.94
760.886	32.32
761.066	32.43
761.246	33.33
761.426	33.52
761.606	33.45
761.786	33.7
761.966	34.18
762.146	34.56
762.326	34.23
762.506	33.89
762.686	33.32
762.866	33.56
763.046	33.57
763.225	33.15
763.405	32.78
763.585	32.96
763.765	32.82
763.945	32.77
764.124	32.18
764.304	32.69
764.484	32.75
764.664	32.9
764.843	32.94
765.023	32.55
765.203	32.03
765.382	32.16
765.562	32.2
765.741	32.2
765.921	31.65
766.101	32.29
766.28	32.47
766.46	33.22
766.639	33.68
766.819	33.56
766.998	33.81
767.178	34.93
767.357	35.06
767.537	34.78
767.716	35.74
767.896	37.04
768.075	36.35
768.254	36.44
768.434	35.59
768.613	35.89
768.792	36.75
768.972	36.98
769.151	36.48
769.33	35.38
769.51	35.35
769.689	34.91
769.868	33.3
770.047	34.66
770.226	33.62
770.406	33.4
770.585	33.46
770.764	33.22
770.943	34.16
771.122	33.44
771.301	34.62
771.48	34.93
771.66	34.27
771.839	34.7
772.018	33.48
772.197	34.02
772.376	34.77
772.555	34.87
772.734	34.94
772.913	33.78
773.092	34.27
773.271	34.31
773.449	34.36
773.628	34.56
773.807	34.53
773.986	34.47
774.165	34.37
774.344	32.89
774.523	32.03
774.701	30.93
774.88	32.71
775.059	33.66
775.238	33.58
775.417	33.86
775.595	33.81
775.774	34.51
775.953	34.98
776.131	34.32
776.31	35.22
776.489	34.32
776.667	35.25
776.846	34.47
777.025	33.43
777.203	33.61
777.382	33.96
777.56	34.65
777.739	34.99
777.917	34.34
778.096	35.59
778.274	36.83
778.453	37.02
778.631	36.02
778.81	35.67
778.988	37.08
779.166	37.47
779.345	36.64
779.523	36.73
779.702	35.93
779.88	36.63
780.058	36.09
780.237	34.75
780.415	35.56
780.593	36.9
780.771	36.79
780.95	36.42
781.128	35.81
781.306	36.41
781.484	36.12
781.662	35.94
781.841	34.49
782.019	34.38
782.197	35.35
782.375	35.27
782.553	34.17
782.731	33.55
782.909	33.23
783.087	33.12
783.265	32.03
783.443	30.66
783.621	30.9
783.799	31.03
783.977	31.08
784.155	31
784.333	31.14
784.511	31.73
784.689	33.4
784.867	34.12
785.045	34.13
785.223	34.21
785.4	35.39
785.578	35.65
785.756	36.73
785.934	36.78
786.112	35.16
786.289	36.01
786.467	36.22
786.645	36.13
786.823	36.24
787	36.62
787.178	37.91
787.356	37.26
787.533	37
787.711	36.09
787.889	35.57
788.066	36.94
788.244	35.9
788.421	35.58
788.599	34.41
788.776	33.82
788.954	33.77
789.131	33.35
789.309	33.99
789.486	33.94
789.664	33.64
789.841	34.52
790.019	33.34
790.196	34.13
790.373	34.06
790.551	35.05
790.728	35.14
790.906	34.59
791.083	35.43
791.26	35.63
791.437	35.43
791.615	36.77
791.792	36.09
791.969	35.47
792.146	34.17
792.324	33.44
792.501	32.51
792.678	32.07
792.855	31.4
793.032	30.66
793.209	30.2
793.387	31.59
793.564	31.76
793.741	31.04
793.918	32.25
794.095	32.74
794.272	32.48
794.449	32.55
794.626	32.69
794.803	32.9
794.98	33.61
795.157	34.05
795.334	32.58
795.511	32.81
795.688	34.47
795.864	33.68
796.041	33.31
796.218	34.68
796.395	33.97
796.572	33.71
796.749	34.46
796.925	34.43
797.102	34.41
797.279	34.48
797.456	34.11
797.632	33.95
797.809	34.85
797.986	35.47
798.162	35.47
798.339	35.91
798.516	35.95
798.692	36.06
798.869	34.54
799.046	33.3
799.222	33.4
799.399	33.74
799.575	34.37
799.752	34.49
799.928	33.74
800.105	33.26
800.281	34.08
800.458	34.55
800.634	35.07
800.811	35.25
800.987	36.06
801.163	36.96
801.34	36.81
801.516	37.31
801.692	36.45
801.869	37.05
802.045	36.48
802.221	36.29
802.398	35.96
802.574	33.41
802.75	31.56
802.926	30.77
803.103	29.87
803.279	29.94
803.455	27.23
803.631	27.61
803.807	27.6
803.983	28.21
804.16	28.11
804.336	27.42
804.512	30.17
804.688	32.21
804.864	33.26
805.04	33.39
805.216	31.96
805.392	33.25
805.568	33.89
805.744	32.46
805.92	33.24
806.096	33.97
806.272	34.75
806.448	33.48
806.623	34.06
806.799	32.59
806.975	32.92
807.151	33.82
807.327	32.81
807.503	32.82
807.678	34.61
807.854	32.78
808.03	32.53
808.206	32.32
808.381	31.41
808.557	32.14
808.733	32.92
808.908	32.12
809.084	33.42
809.26	33.15
809.435	33.99
809.611	33.74
809.787	34.51
809.962	33.36
810.138	33.35
810.313	34.71
810.489	33.81
810.664	34.76
810.84	36.07
811.015	34.35
811.191	33.58
811.366	32.71
811.542	32.22
811.717	33.51
811.892	32.84
812.068	32.95
812.243	31.39
812.419	29.95
812.594	28.64
812.769	27.25
812.944	29.72
813.12	31.09
813.295	30.58
813.47	30.88
813.645	30.8
813.821	32.07
813.996	32.33
814.171	32.54
814.346	33.29
814.521	35.72
814.697	36.2
814.872	34.29
815.047	33.8
815.222	33.03
815.397	33.11
815.572	31
815.747	30.66
815.922	29.1
816.097	29.45
816.272	30.25
816.447	27.3
816.622	26.01
816.797	25.84
816.972	26.1
817.147	27.92
817.322	26.73
817.496	27.79
817.671	27.85
817.846	27.92
818.021	26.95
818.196	27.29
818.371	27.59
818.545	29.51
818.72	29.28
818.895	29.63
819.069	28.96
819.244	30.56
819.419	30.06
819.594	30.15
819.768	30.38
819.943	31.03
820.117	31.95
820.292	32.75
820.467	32.97
820.641	32.01
820.816	31.7
820.99	31.45
821.165	30.78
821.339	31.37
821.514	31.6
821.688	32.26
821.863	32.2
822.037	31.89
822.212	31.73
822.386	31.41
822.56	31.59
822.735	31.63
822.909	31.67
823.084	32.15
823.258	32.01
823.432	31.53
823.606	31.17
823.781	31.28
823.955	31.1
824.129	31.14
824.303	30.83
824.478	30.91
824.652	31.03
824.826	31.02
825	30.29
825.174	30.2
825.348	30.64
825.523	30.5
825.697	30.37
825.871	30.24
826.045	30.49
826.219	30.71
826.393	30.34
826.567	30.32
826.741	29.81
826.915	30.44
827.089	30.84
827.263	31.14
827.437	30.96
827.611	30.81
827.784	31.05
827.958	30.08
828.132	30.14
828.306	30.1
828.48	29.37
828.654	30.54
828.827	29.96
829.001	29.74
829.175	29.19
829.349	29.01
829.522	29.18
829.696	28.97
829.87	30.97
830.044	31.65
830.217	32.32
830.391	33.03
830.565	33.08
830.738	33.43
830.912	33.38
831.085	32.75
831.259	32.89
831.432	32.91
831.606	32.2
831.779	29.86
831.953	28.17
832.126	29.27
832.3	29.58
832.473	29.43
832.647	29.47
832.82	28.63
832.994	29.88
833.167	30.57
833.34	30.54
833.514	29.9
833.687	30.03
833.86	30.54
834.034	30.01
834.207	29.79
834.38	29.62
834.553	29.25
834.727	29.83
834.9	29.89
835.073	30.19
835.246	29.96
835.419	31.29
835.593	31.3
835.766	30.89
835.939	30.9
836.112	31.83
836.285	31.62
836.458	32.1
836.631	29.91
836.804	28.29
836.977	27.36
837.15	26.57
837.323	25.39
837.496	24.55
837.669	25.78
837.842	26.87
838.015	24.77
838.188	23.26
838.361	23.67
838.533	28.19
838.706	30.13
838.879	30.56
839.052	32.54
839.225	33.66
839.398	34.23
839.57	34.71
839.743	35.72
839.916	37.63
840.088	39.06
840.261	40.82
840.434	39.17
840.607	38.48
840.779	37.48
840.952	38.04
841.124	36.77
841.297	37.66
841.47	36.89
841.642	35.23
841.815	35.77
841.987	36.3
842.16	33.15
842.332	33.54
842.505	34.99
842.677	35.52
842.85	30.56
843.022	30.44
843.194	29.6
843.367	29.39
843.539	28.13
843.712	24.3
843.884	22.12
844.056	23.08
844.229	22.16
844.401	21.17
844.573	18.11
844.745	26.28
844.918	28.88
845.09	31
845.262	34.04
845.434	33.52
845.606	35.86
845.779	37.37
845.951	36.37
846.123	33.54
846.295	30.52
846.467	33.28
846.639	28.82
846.811	27.42
846.983	23.79
847.155	20.85
847.327	23.86
847.499	22.57
847.671	24.46
847.843	23.19
848.015	27.36
848.187	26.95
848.359	28.51
848.531	31.27
848.703	29.01
848.875	31.09
849.047	33.56
849.218	31.51
849.39	31.51
849.562	28.92
849.734	31.1
849.905	31.73
850.077	38.74
850.249	36.45
850.421	36.66
850.592	37
850.764	37.34
850.936	27.03
851.107	28.01
851.279	32.31
851.451	34.8
851.622	29.13
851.794	27.78
851.965	16.35
852.137	22.88
852.308	21.25
852.48	23.46
852.651	24.09
852.823	31.39
852.994	28.93
853.166	25.95
853.337	21.28
853.509	25.81
853.68	24.63
853.851	31.24
854.023	23.79
854.194	20.19
854.365	18.62
854.537	18.25
854.708	19.34
854.879	22.41
855.05	21.72
855.222	26.74
855.393	26.38
855.564	25.46
855.735	25.27
855.906	33.25
856.078	38.75
856.249	39.97
856.42	38.17
856.591	36.14
856.762	34.54
856.933	35.06
857.104	38.09
857.275	35.5
857.446	37.4
857.617	36.25
857.788	33.63
857.959	30.18
858.13	34.93
858.301	36.23
858.472	41.63
858.643	43.32
858.814	41.04
858.985	38.56
859.155	39.87
859.326	38.16
859.497	37.04
859.668	36.56
859.839	39.4
860.009	39
860.18	41.68
860.351	35.3
860.522	34.76
860.692	39.04
860.863	35.74
861.034	38.98
861.204	36.62
861.375	42.94
861.546	40.23
861.716	39.7
861.887	38.27
862.057	37.11
862.228	37.1
862.398	34.6
862.569	32.35
862.739	28.42
862.91	27.9
863.08	32.94
863.251	26.53
863.421	28.41
863.592	26.68
863.762	21.39
863.932	18.46
864.103	21.81
864.273	23.69
864.443	24.45
864.614	29.37
864.784	27.57
864.954	22.45
865.125	17.38
865.295	20.53
865.465	21.26
865.635	21.53
865.805	25.24
865.976	22.29
866.146	22.28
866.316	16.53
866.486	17.46
866.656	15.79
866.826	20.01
866.996	25.99
867.166	15.96
867.336	14.95
867.506	15.9
867.676	13.53
867.846	12.1
868.016	13.07
868.186	18.23
868.356	19.44
868.526	14.91
868.696	15.01
868.866	11.35
869.036	15.66
869.206	19.47
869.376	21.87
869.545	22.34
869.715	24.79
869.885	25.61
870.055	22.63
870.224	24.05
870.394	32.14
870.564	32.88
870.734	38.63
870.903	34.3
871.073	32.24
871.243	29.29
871.412	29.06
871.582	30.69
871.751	30.3
871.921	35.55
872.091	31.85
872.26	32.3
872.43	29.24
872.599	24.37
872.769	30.63
872.938	29.81
873.108	33.99
873.277	30.73
873.446	22.53
873.616	19.01
873.785	23.18
873.955	26.13
874.124	19.36
874.293	24.06
874.463	25.31
874.632	22.81
874.801	26.12
874.971	24.06
875.14	32.84
875.309	38.7
875.478	39.51
875.647	34.45
875.817	34.44
875.986	37.32
876.155	35.06
876.324	35.95
876.493	40.24
876.662	41.29
876.831	41.49
877	31.19
877.17	27.44
877.339	29.11
877.508	25.48
877.677	27.56
877.846	18.19
878.015	21.21
878.184	21.7
878.352	16.71
878.521	13.39
878.69	12.55
878.859	18.44
879.028	20.23
879.197	20.26
879.366	20.41
879.534	18.54
879.703	25.07
879.872	23.88
880.041	24.9
880.21	27.65
880.378	27.42
880.547	26.06
880.716	26.35
880.884	27.01
881.053	26.66
881.222	26.8
881.39	26.75
881.559	27.44
881.727	27.61
881.896	27.72
882.065	27.52
882.233	28.73
882.402	29.08
882.57	28.98
882.739	29.03
882.907	29.09
883.076	29.66
883.244	29.68
883.412	29.56
883.581	29.89
883.749	29.12
883.918	29.37
884.086	28.15
884.254	28.73
884.423	28.57
884.591	28.37
884.759	29.24
884.927	28.93
885.096	29.52
885.264	28.79
885.432	29.28
885.6	31.01
885.769	29.63
885.937	29.53
886.105	29.47
886.273	29.41
886.441	32.53
886.609	30.77
886.777	27.61
886.945	27.15
887.113	28.27
887.281	25.02
887.449	26.64
887.617	28.24
887.785	32.22
887.953	31.04
888.121	27.65
888.289	23.56
888.457	25.11
888.625	28.13
888.793	27.46
888.961	26.29
889.129	32.6
889.296	28.63
889.464	26.83
889.632	21.22
889.8	22.55
889.967	30.67
890.135	31.49
