Data from 2938723__Reflection_04.txt Node
Date: Sun Mar 15 20:33:13 EDT 2015
User: robert
Spectrometer: USB4E03002
Autoset integration time: false
Trigger mode: 4
Integration Time (sec): 1.000000E-1
Scans to average: 10
Electric dark correction enabled: false
Nonlinearity correction enabled: false
Boxcar width: 5
Stray light correction enabled: false
XAxis mode: Wavelengths
Stop averaging: false
Number of Pixels in Spectrum: 3648
>>>>>Begin Spectral Data<<<<<
177.575	60
177.794	97.08
178.014	114.39
178.233	121.61
178.452	130.42
178.672	478.33
178.891	518.64
179.11	431.82
179.33	3337.5
179.549	-222.33
179.768	-172.22
179.987	-7.38
180.207	-341.18
180.426	-71.43
180.645	-7.39
180.864	-5.99
181.084	7.87
181.303	30.39
181.522	5.8
181.741	22.49
181.96	19.97
182.179	-3.32
182.398	-15.22
182.618	17.51
182.837	-1.93
183.056	-19.39
183.275	-37.92
183.494	-388.89
183.713	2923.08
183.932	-244.83
184.151	-336.29
184.37	-718.33
184.589	-141.9
184.808	-190.08
185.027	-130.22
185.246	-245.45
185.465	3400
185.684	-1885.71
185.903	403.85
186.122	1443.59
186.341	553.57
186.56	616.28
186.779	504.21
186.998	212.05
187.216	272.73
187.435	270.69
187.654	393.01
187.873	743.01
188.092	16825
188.311	-976.92
188.53	576.42
188.748	1048.57
188.967	689.62
189.186	525.17
189.405	13140
189.623	2039.39
189.842	450
190.061	523.31
190.28	-1197.67
190.498	8620
190.717	-808.33
190.936	-103.32
191.154	-50.3
191.373	-39.49
191.592	-26.05
191.81	-21.1
192.029	16.21
192.248	-7.89
192.466	8.67
192.685	2.21
192.904	-15.3
193.122	-41.06
193.341	16.12
193.559	-42.22
193.778	-53.7
193.996	-58.73
194.215	-106.72
194.433	-82.77
194.652	-86.43
194.87	-306.12
195.089	-357.14
195.307	-345.52
195.526	-273.66
195.744	-239.69
195.963	-500
196.181	-361.54
196.399	959.18
196.618	-470.73
196.836	-1126.83
197.055	1380
197.273	-597.06
197.491	-236.3
197.71	-169.2
197.928	-400
198.146	345.53
198.365	307.84
198.583	286.17
198.801	357.55
199.019	210.27
199.238	223.62
199.456	420.39
199.674	199.01
199.892	275.36
200.111	115.09
200.329	656.82
200.547	317.27
200.765	473.2
200.983	1004.17
201.202	-565.71
201.42	-332.17
201.638	-1176.74
201.856	-292.54
202.074	-275.58
202.292	-2785.71
202.51	-336.07
202.728	-1051.85
202.946	-346.87
203.165	-110.9
203.383	-1823.08
203.601	1494.74
203.819	1167.65
204.037	141.03
204.255	168.83
204.473	206.08
204.691	490.12
204.909	194.63
205.127	-295.77
205.345	-302.06
205.562	-257.99
205.78	-329.5
205.998	-229.94
206.216	-244.09
206.434	-63.9
206.652	-36.8
206.87	-47.58
207.088	-284.76
207.306	-540.22
207.523	3466.67
207.741	-537.5
207.959	-878.05
208.177	-114.46
208.395	-638.78
208.612	-548.81
208.83	-330.95
209.048	-203.03
209.266	-133.68
209.483	-133.85
209.701	-33.14
209.919	4.7
210.136	-66.51
210.354	-48.24
210.572	-53.33
210.79	-38.44
211.007	-73.15
211.225	-117.4
211.442	-74.55
211.66	-87.76
211.878	-70.28
212.095	-123.54
212.313	-170.03
212.53	-217.82
212.748	-168.19
212.966	-258.97
213.183	-180.9
213.401	-123.27
213.618	-113.65
213.836	-157.28
214.053	-238.72
214.271	-278.07
214.488	-291.86
214.705	-565.66
214.923	-179.15
215.14	-425.41
215.358	-106.02
215.575	-137.31
215.793	-131.76
216.01	-34.37
216.227	-27.03
216.445	-31.4
216.662	-25.03
216.879	-20.19
217.097	-13.29
217.314	-15.82
217.531	-23.91
217.749	-32.01
217.966	-53.25
218.183	-50.92
218.4	-128.89
218.618	-175.28
218.835	-137.84
219.052	-120.46
219.269	-82.29
219.487	-57.53
219.704	-76.64
219.921	-55.81
220.138	-46.51
220.355	-37.65
220.572	-45
220.79	-14.21
221.007	-21.19
221.224	-19.63
221.441	-12.45
221.658	-12.38
221.875	-18.98
222.092	-16.25
222.309	-9.04
222.526	-9.41
222.743	4.9
222.96	3.84
223.177	-5.5
223.394	-6.91
223.611	-10.63
223.828	-18.63
224.045	-19.67
224.262	-15.26
224.479	-15.71
224.696	-19.87
224.913	-22.95
225.13	-31.58
225.347	-30.53
225.564	-19.79
225.781	-22.82
225.997	-15.99
226.214	-14.79
226.431	-15.12
226.648	-5.45
226.865	-4.43
227.082	-2.5
227.298	-2.82
227.515	-0.71
227.732	2.45
227.949	1.34
228.165	2.28
228.382	1.83
228.599	2.44
228.816	3.27
229.032	0.81
229.249	1.46
229.466	1.14
229.682	1.16
229.899	1.63
230.116	0.12
230.332	-0.1
230.549	0.85
230.765	0.87
230.982	-0.88
231.199	-0.92
231.415	-0.36
231.632	-0.36
231.848	0.17
232.065	0.41
232.281	-3.47
232.498	-0.63
232.714	-0.72
232.931	-1.07
233.147	-0.51
233.364	1.03
233.58	-1.57
233.797	-0.51
234.013	-0.71
234.23	-1.16
234.446	-1.99
234.662	0.12
234.879	-2.2
235.095	-1.64
235.312	-3.64
235.528	-3.49
235.744	-2.89
235.961	-0.25
236.177	-2.26
236.393	-1.8
236.61	-1.22
236.826	1.98
237.042	2.3
237.258	1.81
237.475	0.48
237.691	1.65
237.907	-0.44
238.123	1.64
238.339	3.05
238.556	3.4
238.772	3.78
238.988	0.63
239.204	-3.29
239.42	-5.05
239.636	-3.8
239.853	-0.93
240.069	-0.61
240.285	-0.24
240.501	-0.86
240.717	-2.08
240.933	-1.61
241.149	-0.17
241.365	0.71
241.581	1.89
241.797	2.15
242.013	2.44
242.229	2.13
242.445	2.62
242.661	2.67
242.877	2.22
243.093	2.28
243.309	1.95
243.525	0.9
243.741	1.38
243.957	1.15
244.173	1.35
244.388	1.32
244.604	0.76
244.82	0.35
245.036	1.55
245.252	1.82
245.468	1.98
245.683	2.45
245.899	2.72
246.115	2.62
246.331	2.52
246.547	2.52
246.762	2.49
246.978	2.05
247.194	2.5
247.409	1.98
247.625	2.03
247.841	2.15
248.057	2.04
248.272	1.66
248.488	1.77
248.703	2.13
248.919	2.33
249.135	2.25
249.35	2.78
249.566	2.09
249.782	2.51
249.997	3.19
250.213	3.09
250.428	3.39
250.644	3.91
250.859	2.91
251.075	2.67
251.29	2.43
251.506	2.57
251.721	3.39
251.937	3.44
252.152	2.99
252.368	2.9
252.583	3
252.798	3.48
253.014	3.22
253.229	3.37
253.445	4.12
253.66	4.44
253.875	3.99
254.091	3.34
254.306	3.87
254.521	4.58
254.737	3.6
254.952	2.59
255.167	2.25
255.383	1.73
255.598	2.52
255.813	1.19
256.028	0.37
256.244	0.85
256.459	1.2
256.674	1.6
256.889	1.7
257.104	1.94
257.32	2.32
257.535	2.72
257.75	2.53
257.965	2.55
258.18	2.35
258.395	2.42
258.61	2.03
258.826	1.93
259.041	1.53
259.256	1.23
259.471	1.2
259.686	1.14
259.901	0.81
260.116	0.71
260.331	0.62
260.546	1
260.761	1.28
260.976	1.62
261.191	1.28
261.406	1.29
261.621	1.68
261.836	1.99
262.05	2.51
262.265	2.7
262.48	2.99
262.695	3.44
262.91	2.68
263.125	1.73
263.34	1.48
263.555	1.65
263.769	1.73
263.984	1.42
264.199	0.57
264.414	-0.25
264.629	0.06
264.843	0.74
265.058	0.08
265.273	0.51
265.488	1.1
265.702	0.52
265.917	0.29
266.132	0.77
266.346	0.76
266.561	0.78
266.776	0.91
266.99	0.77
267.205	0.6
267.42	0.94
267.634	0.84
267.849	0.78
268.063	2.09
268.278	2.69
268.492	2.42
268.707	2.86
268.922	3.35
269.136	3.6
269.351	4.1
269.565	4.32
269.78	3.65
269.994	3.23
270.209	2.67
270.423	1.62
270.637	1.04
270.852	1
271.066	0.62
271.281	0.64
271.495	0.48
271.709	-0.22
271.924	-0.36
272.138	-0.22
272.353	0.36
272.567	0.67
272.781	1.03
272.996	1.39
273.21	1.3
273.424	1.25
273.638	0.78
273.853	0.74
274.067	0.63
274.281	0.27
274.495	0.68
274.71	0.22
274.924	0.42
275.138	0.13
275.352	0.11
275.566	0.53
275.781	0.43
275.995	0.45
276.209	0.62
276.423	0.67
276.637	1.18
276.851	0.83
277.065	0.99
277.279	0.87
277.493	1.14
277.707	0.42
277.921	0.56
278.135	0.47
278.349	0.27
278.563	0.11
278.777	0.33
278.991	0.08
279.205	0.7
279.419	0.44
279.633	-0.05
279.847	-0.22
280.061	0
280.275	-0.51
280.489	0.14
280.703	0.58
280.917	0.81
281.131	0.78
281.344	0.88
281.558	0.32
281.772	0.21
281.986	0.14
282.2	0.06
282.414	0.28
282.627	0.25
282.841	-0.1
283.055	-0.17
283.269	-0.64
283.482	-0.62
283.696	-0.46
283.91	0.08
284.123	0.4
284.337	0.96
284.551	1.42
284.764	1.5
284.978	1.47
285.192	1.29
285.405	1.47
285.619	2.06
285.833	2.16
286.046	2.1
286.26	2.06
286.473	1.81
286.687	1.64
286.9	1.32
287.114	1.66
287.327	1.98
287.541	2.58
287.754	2.67
287.968	2.72
288.181	2.62
288.395	2.32
288.608	1.55
288.822	1.89
289.035	1.91
289.248	1.91
289.462	1.28
289.675	1.01
289.889	0.59
290.102	0.75
290.315	0.48
290.529	0.72
290.742	0.85
290.955	1.26
291.169	1.25
291.382	1.26
291.595	1
291.808	1.25
292.022	1.42
292.235	1.57
292.448	1.08
292.661	0.86
292.875	0.29
293.088	0.62
293.301	0.37
293.514	0.45
293.727	0.86
293.94	1.27
294.153	1.34
294.367	1.35
294.58	1.44
294.793	1.67
295.006	1.95
295.219	2.32
295.432	1.88
295.645	2.13
295.858	1.92
296.071	1.29
296.284	1.24
296.497	1.16
296.71	0.97
296.923	0.91
297.136	0.75
297.349	0.91
297.562	0.78
297.775	1.28
297.988	1.24
298.201	1.33
298.414	1.81
298.626	1.94
298.839	2.04
299.052	2.21
299.265	2.41
299.478	2.77
299.691	2.31
299.903	2.27
300.116	1.85
300.329	1.86
300.542	2.12
300.755	1.77
300.967	1.66
301.18	1.61
301.393	1.92
301.605	1.38
301.818	1.32
302.031	1.78
302.243	1.89
302.456	1.85
302.669	1.87
302.881	1.55
303.094	1.59
303.307	1.99
303.519	2.56
303.732	2.29
303.944	2.75
304.157	2.41
304.37	2.16
304.582	2.22
304.795	2.42
305.007	2.62
305.22	2.55
305.432	3.02
305.645	2.43
305.857	1.78
306.069	1.68
306.282	1.61
306.494	2.26
306.707	2.25
306.919	2.38
307.132	2.13
307.344	2.41
307.556	2.99
307.769	2.58
307.981	2.88
308.193	2.93
308.406	2.76
308.618	2.58
308.83	2.47
309.043	2.56
309.255	2.76
309.467	2.9
309.679	2.5
309.892	1.94
310.104	1.99
310.316	2.05
310.528	2.18
310.74	2.72
310.953	2.39
311.165	2.5
311.377	2.46
311.589	2.31
311.801	2.26
312.013	2.49
312.225	2.63
312.437	2.52
312.649	2.24
312.862	2.4
313.074	1.95
313.286	2.59
313.498	2.09
313.71	2.2
313.922	2.15
314.134	2.15
314.346	2.34
314.558	2.24
314.77	2.8
314.982	2.86
315.193	2.49
315.405	2.96
315.617	2.71
315.829	3.07
316.041	2.99
316.253	2.79
316.465	2.96
316.677	2.68
316.888	3.19
317.1	3.15
317.312	3.17
317.524	3.27
317.736	3.12
317.947	3.09
318.159	3.11
318.371	3.25
318.583	3.74
318.794	4.13
319.006	4.06
319.218	3.78
319.43	3.77
319.641	4.64
319.853	4.44
320.064	4.22
320.276	4.65
320.488	4.41
320.699	4.41
320.911	4.36
321.123	3.83
321.334	3.99
321.546	3.44
321.757	3.58
321.969	3.46
322.18	4.35
322.392	4.76
322.603	4.61
322.815	5.18
323.026	5.53
323.238	5.42
323.449	6.17
323.661	6.24
323.872	7.03
324.083	7.23
324.295	7.08
324.506	7.12
324.718	7.26
324.929	7.74
325.14	7.15
325.352	7.44
325.563	7.49
325.774	7.35
325.986	7.99
326.197	8.26
326.408	8.38
326.62	8.89
326.831	8.9
327.042	9.62
327.253	9.84
327.464	10.84
327.676	10.89
327.887	11.68
328.098	12.26
328.309	12.28
328.52	12.41
328.732	12.34
328.943	12.35
329.154	13.12
329.365	13.06
329.576	13.38
329.787	14
329.998	14.55
330.209	15.08
330.42	15.07
330.631	15.57
330.842	16.64
331.053	17.54
331.264	17.47
331.475	17.96
331.686	18.23
331.897	18.7
332.108	19.23
332.319	19.67
332.53	19.77
332.741	19.99
332.952	20.25
333.163	20.37
333.374	20.57
333.585	21.3
333.795	21.38
334.006	21.3
334.217	21.56
334.428	21.39
334.639	21.19
334.849	21.36
335.06	22.02
335.271	22.44
335.482	22.52
335.692	22.74
335.903	23.09
336.114	23.33
336.325	23.67
336.535	23.63
336.746	23.71
336.957	24.12
337.167	24.34
337.378	24.19
337.589	24.09
337.799	24
338.01	23.95
338.22	23.72
338.431	23.76
338.642	24.24
338.852	24.41
339.063	24.61
339.273	24.74
339.484	24.66
339.694	24.99
339.905	25.06
340.115	25.09
340.326	25.06
340.536	25.68
340.746	25.35
340.957	25.25
341.167	25.48
341.378	25.11
341.588	24.85
341.799	25.28
342.009	25.03
342.219	25.2
342.43	25.31
342.64	25.51
342.85	25.14
343.061	25.36
343.271	25.71
343.481	25.57
343.691	25.92
343.902	26.12
344.112	25.8
344.322	26.06
344.532	25.91
344.743	25.69
344.953	25.76
345.163	25.93
345.373	26.14
345.583	25.94
345.793	26.23
346.004	26.05
346.214	25.97
346.424	26.26
346.634	26.13
346.844	25.94
347.054	26.5
347.264	26.42
347.474	26.08
347.684	25.71
347.894	25.43
348.104	25.31
348.314	25.37
348.524	25.55
348.734	24.87
348.944	24.89
349.154	25.34
349.364	25.13
349.574	24.93
349.784	24.97
349.994	25.14
350.204	25.36
350.413	25.28
350.623	25.4
350.833	25.41
351.043	25.84
351.253	25.87
351.463	25.83
351.672	25.82
351.882	26.03
352.092	26.33
352.302	26.07
352.511	26.09
352.721	26.05
352.931	25.9
353.141	25.56
353.35	25.56
353.56	25.25
353.77	25.18
353.979	25.44
354.189	25.29
354.399	25.04
354.608	25.2
354.818	24.97
355.027	24.94
355.237	24.99
355.447	25.26
355.656	24.99
355.866	25.25
356.075	25.06
356.285	24.75
356.494	24.72
356.704	24.86
356.913	24.98
357.123	24.89
357.332	24.72
357.542	24.83
357.751	24.66
357.96	25.1
358.17	24.92
358.379	24.79
358.589	24.58
358.798	24.44
359.007	24.33
359.217	24.31
359.426	24.47
359.635	24.34
359.845	24.16
360.054	24.25
360.263	23.98
360.472	24.05
360.682	24.05
360.891	24.19
361.1	24.27
361.309	24.17
361.519	24.07
361.728	23.97
361.937	24.19
362.146	24.11
362.355	24.1
362.564	24.15
362.774	24.17
362.983	24.3
363.192	24.43
363.401	24.57
363.61	24.67
363.819	24.61
364.028	24.82
364.237	24.33
364.446	24.44
364.655	24.49
364.864	24.45
365.073	24.27
365.282	24.08
365.491	23.73
365.7	23.62
365.909	23.39
366.118	23.32
366.327	22.86
366.536	23.22
366.745	23.14
366.954	22.77
367.162	22.5
367.371	22.69
367.58	22.51
367.789	22.63
367.998	22.54
368.207	22.79
368.415	22.89
368.624	23.25
368.833	23.21
369.042	23.17
369.25	23.22
369.459	23.11
369.668	23.08
369.877	23.4
370.085	23.38
370.294	23.66
370.503	23.47
370.711	23.51
370.92	23.51
371.129	23.21
371.337	23.28
371.546	23.6
371.754	23.65
371.963	23.54
372.171	23.58
372.38	23.38
372.589	23.14
372.797	23.26
373.006	22.92
373.214	22.42
373.423	23.07
373.631	23.13
373.84	22.9
374.048	22.8
374.256	22.79
374.465	22.45
374.673	22.54
374.882	22.45
375.09	22.75
375.298	22.95
375.507	23.1
375.715	22.8
375.923	22.69
376.132	22.81
376.34	22.97
376.548	23.21
376.757	23.28
376.965	23.42
377.173	23.73
377.381	23.26
377.59	23.36
377.798	23.46
378.006	23.51
378.214	23.38
378.423	23.14
378.631	23.19
378.839	23.09
379.047	23.13
379.255	22.81
379.463	22.4
379.671	22.56
379.879	22.43
380.088	22.56
380.296	22.5
380.504	22.51
380.712	22.47
380.92	22.64
381.128	22.3
381.336	22.5
381.544	22.6
381.752	22.67
381.96	22.66
382.168	22.47
382.376	22.35
382.584	22.35
382.791	22.72
382.999	22.95
383.207	22.77
383.415	23.12
383.623	23.09
383.831	22.85
384.039	22.87
384.247	22.59
384.454	22.75
384.662	22.55
384.87	22.31
385.078	22.3
385.285	22.12
385.493	22.01
385.701	21.86
385.909	21.98
386.116	22.36
386.324	22.25
386.532	22.69
386.739	22.65
386.947	22.9
387.155	23.13
387.362	22.98
387.57	23.16
387.778	23.24
387.985	23.23
388.193	22.84
388.4	22.66
388.608	22.66
388.816	22.42
389.023	22.44
389.231	22.31
389.438	22.22
389.646	22.13
389.853	22.09
390.061	22.08
390.268	21.89
390.475	22.05
390.683	22.22
390.89	22.45
391.098	22.36
391.305	22.39
391.512	22.38
391.72	22.41
391.927	22.29
392.135	22.2
392.342	22.2
392.549	22.32
392.756	22.31
392.964	22.13
393.171	22.01
393.378	22.13
393.586	22.07
393.793	22.11
394	22.07
394.207	22.18
394.414	22.15
394.622	22.3
394.829	22.19
395.036	22.28
395.243	22.43
395.45	22.53
395.657	22.52
395.864	22.79
396.072	22.73
396.279	22.77
396.486	22.68
396.693	22.64
396.9	22.46
397.107	22.68
397.314	22.44
397.521	22.46
397.728	22.35
397.935	22.38
398.142	22.24
398.349	22.27
398.556	22.33
398.763	22.61
398.97	22.76
399.177	22.75
399.383	22.75
399.59	22.98
399.797	22.87
400.004	23.04
400.211	23.01
400.418	23.11
400.625	23.06
400.831	23.05
401.038	22.89
401.245	22.85
401.452	22.79
401.658	22.73
401.865	22.66
402.072	22.73
402.279	22.55
402.485	22.46
402.692	22.45
402.899	22.46
403.105	22.29
403.312	22.36
403.519	22.36
403.725	22.55
403.932	22.71
404.138	22.61
404.345	22.64
404.552	22.67
404.758	22.77
404.965	22.79
405.171	22.91
405.378	22.96
405.584	22.86
405.791	22.78
405.997	22.9
406.204	22.71
406.41	22.95
406.617	23.02
406.823	23.02
407.029	23.01
407.236	22.79
407.442	22.78
407.649	22.99
407.855	23.01
408.061	23.16
408.268	23.23
408.474	23.36
408.68	23.32
408.887	23.2
409.093	23.33
409.299	23.25
409.505	23.43
409.712	23.5
409.918	23.35
410.124	23.56
410.33	23.57
410.537	23.51
410.743	23.37
410.949	23.2
411.155	23.43
411.361	23.33
411.567	23.31
411.773	23.22
411.98	23.17
412.186	23.3
412.392	23.2
412.598	23.35
412.804	23.28
413.01	23.48
413.216	23.59
413.422	23.45
413.628	23.47
413.834	23.58
414.04	23.71
414.246	23.84
414.452	23.63
414.658	23.68
414.864	23.68
415.07	23.71
415.275	23.82
415.481	23.8
415.687	23.99
415.893	24.07
416.099	24.19
416.305	24.22
416.511	24.18
416.716	24.41
416.922	24.53
417.128	24.5
417.334	24.42
417.539	24.27
417.745	24.3
417.951	24.19
418.157	24.22
418.362	24.17
418.568	24.08
418.774	24.06
418.979	24.01
419.185	24.02
419.391	24
419.596	24.05
419.802	24.15
420.008	24.14
420.213	24.15
420.419	24.06
420.624	24.07
420.83	24.06
421.035	24.1
421.241	24.06
421.446	24.02
421.652	23.99
421.857	23.99
422.063	23.96
422.268	24
422.474	23.9
422.679	23.98
422.885	24.18
423.09	24.25
423.295	24.21
423.501	24.31
423.706	24.17
423.911	24.2
424.117	24.15
424.322	24.16
424.527	24.15
424.733	24.21
424.938	24.23
425.143	24.11
425.349	24.11
425.554	24.13
425.759	24.07
425.964	24.29
426.169	24.33
426.375	24.45
426.58	24.42
426.785	24.47
426.99	24.47
427.195	24.56
427.4	24.5
427.605	24.51
427.811	24.49
428.016	24.48
428.221	24.45
428.426	24.35
428.631	24.23
428.836	24.27
429.041	24.27
429.246	24.31
429.451	24.2
429.656	24.25
429.861	24.3
430.066	24.41
430.271	24.4
430.476	24.34
430.681	24.4
430.886	24.65
431.09	24.48
431.295	24.48
431.5	24.49
431.705	24.57
431.91	24.55
432.115	24.4
432.32	24.38
432.524	24.41
432.729	24.44
432.934	24.49
433.139	24.4
433.343	24.54
433.548	24.57
433.753	24.5
433.958	24.43
434.162	24.38
434.367	24.47
434.572	24.37
434.776	24.32
434.981	24.35
435.186	24.33
435.39	24.37
435.595	24.46
435.799	24.53
436.004	24.55
436.209	24.65
436.413	24.71
436.618	24.75
436.822	24.87
437.027	24.96
437.231	24.97
437.436	24.96
437.64	24.96
437.845	24.82
438.049	24.77
438.253	24.91
438.458	24.84
438.662	24.93
438.867	24.93
439.071	24.98
439.275	24.96
439.48	25
439.684	25.1
439.888	25.07
440.093	25.16
440.297	25.28
440.501	25.28
440.706	25.31
440.91	25.28
441.114	25.34
441.318	25.38
441.523	25.38
441.727	25.3
441.931	25.19
442.135	25.14
442.339	25.16
442.543	25.07
442.748	25.09
442.952	25.17
443.156	25.24
443.36	25.31
443.564	25.33
443.768	25.34
443.972	25.44
444.176	25.66
444.38	25.74
444.584	25.63
444.788	25.62
444.992	25.61
445.196	25.54
445.4	25.48
445.604	25.33
445.808	25.29
446.012	25.31
446.216	25.23
446.42	25.15
446.624	25.09
446.828	25.14
447.032	25.12
447.235	25.14
447.439	25.09
447.643	25.13
447.847	25.17
448.051	25.1
448.254	25.16
448.458	25.25
448.662	25.21
448.866	25.3
449.069	25.34
449.273	25.41
449.477	25.29
449.681	25.46
449.884	25.44
450.088	25.46
450.292	25.47
450.495	25.38
450.699	25.3
450.902	25.31
451.106	25.33
451.31	25.37
451.513	25.38
451.717	25.52
451.92	25.42
452.124	25.38
452.327	25.31
452.531	25.35
452.734	25.32
452.938	25.3
453.141	25.42
453.345	25.34
453.548	25.22
453.752	25.2
453.955	25.14
454.158	25.26
454.362	25.23
454.565	25.35
454.769	25.45
454.972	25.53
455.175	25.54
455.379	25.46
455.582	25.48
455.785	25.55
455.988	25.51
456.192	25.51
456.395	25.26
456.598	25.27
456.801	25.25
457.005	25.27
457.208	25.25
457.411	25.29
457.614	25.26
457.817	25.3
458.021	25.34
458.224	25.38
458.427	25.29
458.63	25.43
458.833	25.47
459.036	25.52
459.239	25.4
459.442	25.39
459.645	25.44
459.848	25.43
460.051	25.49
460.254	25.51
460.457	25.54
460.66	25.56
460.863	25.55
461.066	25.54
461.269	25.51
461.472	25.55
461.675	25.67
461.878	25.62
462.081	25.69
462.284	25.64
462.486	25.59
462.689	25.56
462.892	25.67
463.095	25.68
463.298	25.6
463.5	25.72
463.703	25.76
463.906	25.56
464.109	25.56
464.311	25.52
464.514	25.38
464.717	25.32
464.92	25.29
465.122	25.11
465.325	25.21
465.528	25.33
465.73	25.32
465.933	25.38
466.135	25.46
466.338	25.23
466.541	25.11
466.743	25.2
466.946	25.33
467.148	25.34
467.351	25.53
467.553	25.52
467.756	25.54
467.958	25.45
468.161	25.47
468.363	25.45
468.566	25.66
468.768	25.71
468.971	25.7
469.173	25.62
469.375	25.65
469.578	25.55
469.78	25.54
469.983	25.45
470.185	25.37
470.387	25.23
470.59	25.36
470.792	25.36
470.994	25.45
471.196	25.49
471.399	25.48
471.601	25.54
471.803	25.61
472.005	25.57
472.208	25.58
472.41	25.71
472.612	25.79
472.814	25.69
473.016	25.76
473.218	25.72
473.421	25.77
473.623	25.8
473.825	25.66
474.027	25.77
474.229	25.86
474.431	25.83
474.633	25.67
474.835	25.7
475.037	25.77
475.239	25.64
475.441	25.67
475.643	25.62
475.845	25.53
476.047	25.58
476.249	25.53
476.451	25.43
476.653	25.54
476.855	25.66
477.057	25.58
477.258	25.53
477.46	25.64
477.662	25.54
477.864	25.54
478.066	25.63
478.268	25.75
478.469	25.68
478.671	25.8
478.873	25.75
479.075	25.76
479.276	25.73
479.478	25.65
479.68	25.67
479.882	25.71
480.083	25.68
480.285	25.74
480.487	25.68
480.688	25.65
480.89	25.62
481.091	25.68
481.293	25.68
481.495	25.79
481.696	25.87
481.898	25.86
482.099	25.84
482.301	25.84
482.502	25.74
482.704	25.75
482.905	25.75
483.107	25.71
483.308	25.71
483.51	25.7
483.711	25.63
483.913	25.6
484.114	25.56
484.315	25.59
484.517	25.54
484.718	25.58
484.92	25.54
485.121	25.57
485.322	25.55
485.524	25.5
485.725	25.46
485.926	25.54
486.127	25.57
486.329	25.62
486.53	25.62
486.731	25.7
486.932	25.7
487.134	25.75
487.335	25.73
487.536	25.79
487.737	25.83
487.938	25.79
488.139	25.75
488.341	25.77
488.542	25.72
488.743	25.74
488.944	25.72
489.145	25.73
489.346	25.69
489.547	25.7
489.748	25.72
489.949	25.74
490.15	25.85
490.351	25.91
490.552	25.81
490.753	25.88
490.954	25.88
491.155	25.89
491.356	25.91
491.557	25.89
491.758	25.85
491.959	25.84
492.159	25.84
492.36	25.86
492.561	25.83
492.762	25.89
492.963	25.88
493.164	25.88
493.364	25.86
493.565	25.82
493.766	25.84
493.967	25.89
494.167	25.92
494.368	25.93
494.569	25.91
494.769	25.91
494.97	25.89
495.171	25.88
495.371	25.81
495.572	25.84
495.773	25.81
495.973	25.85
496.174	25.9
496.375	25.82
496.575	25.76
496.776	25.73
496.976	25.73
497.177	25.77
497.377	25.83
497.578	25.88
497.778	25.92
497.979	26.01
498.179	26.03
498.38	26
498.58	26.06
498.78	26.11
498.981	26.1
499.181	26.07
499.382	26.11
499.582	26.09
499.782	26.09
499.983	26.17
500.183	26.15
500.383	26.11
500.584	26.16
500.784	26.18
500.984	26.23
501.184	26.34
501.385	26.36
501.585	26.39
501.785	26.42
501.985	26.41
502.185	26.23
502.386	26.24
502.586	26.22
502.786	26.23
502.986	26.19
503.186	26.24
503.386	26.2
503.586	26.32
503.786	26.23
503.987	26.25
504.187	26.26
504.387	26.37
504.587	26.39
504.787	26.51
504.987	26.52
505.187	26.52
505.387	26.51
505.587	26.55
505.786	26.53
505.986	26.63
506.186	26.77
506.386	26.85
506.586	26.9
506.786	26.91
506.986	26.86
507.186	26.82
507.386	26.9
507.585	26.96
507.785	27.02
507.985	27.09
508.185	27.05
508.384	26.91
508.584	26.9
508.784	26.94
508.984	26.89
509.183	26.96
509.383	26.98
509.583	26.94
509.782	26.98
509.982	26.86
510.182	26.81
510.381	26.84
510.581	26.88
510.781	26.91
510.98	26.99
511.18	27.12
511.379	27.11
511.579	27.13
511.778	27.23
511.978	27.16
512.177	27.29
512.377	27.28
512.576	27.32
512.776	27.42
512.975	27.42
513.175	27.3
513.374	27.19
513.573	27.19
513.773	27.19
513.972	27.17
514.172	27.22
514.371	27.2
514.57	27.22
514.77	27.23
514.969	27.2
515.168	27.23
515.367	27.28
515.567	27.38
515.766	27.41
515.965	27.58
516.164	27.59
516.364	27.59
516.563	27.61
516.762	27.61
516.961	27.67
517.16	27.77
517.359	27.83
517.559	27.89
517.758	27.84
517.957	27.88
518.156	27.73
518.355	27.84
518.554	27.87
518.753	27.9
518.952	27.96
519.151	28
519.35	27.94
519.549	27.95
519.748	27.9
519.947	27.97
520.146	28.04
520.345	28.18
520.544	28.15
520.743	28.15
520.942	28.15
521.141	28.19
521.339	28.18
521.538	28.27
521.737	28.22
521.936	28.24
522.135	28.3
522.333	28.24
522.532	28.24
522.731	28.25
522.93	28.31
523.129	28.31
523.327	28.37
523.526	28.34
523.725	28.41
523.923	28.55
524.122	28.64
524.321	28.64
524.519	28.69
524.718	28.71
524.917	28.69
525.115	28.67
525.314	28.75
525.512	28.7
525.711	28.74
525.909	28.68
526.108	28.62
526.306	28.65
526.505	28.67
526.703	28.7
526.902	28.73
527.1	28.78
527.299	28.81
527.497	28.84
527.696	28.88
527.894	28.9
528.092	28.9
528.291	28.96
528.489	28.92
528.688	28.92
528.886	28.91
529.084	28.88
529.283	28.91
529.481	28.91
529.679	28.9
529.877	28.93
530.076	28.96
530.274	29
530.472	28.98
530.67	29.06
530.869	29.07
531.067	29.09
531.265	29.11
531.463	29.09
531.661	29.1
531.859	29.17
532.057	29.13
532.255	29.07
532.454	29.11
532.652	29.14
532.85	29.17
533.048	29.21
533.246	29.25
533.444	29.31
533.642	29.35
533.84	29.34
534.038	29.33
534.236	29.37
534.434	29.43
534.632	29.41
534.83	29.45
535.027	29.45
535.225	29.47
535.423	29.46
535.621	29.47
535.819	29.48
536.017	29.55
536.215	29.49
536.412	29.51
536.61	29.58
536.808	29.67
537.006	29.71
537.203	29.69
537.401	29.71
537.599	29.8
537.797	29.89
537.994	29.91
538.192	29.99
538.39	30.04
538.587	30.17
538.785	30.17
538.983	30.22
539.18	30.2
539.378	30.25
539.575	30.31
539.773	30.3
539.97	30.24
540.168	30.29
540.366	30.33
540.563	30.38
540.761	30.39
540.958	30.4
541.155	30.37
541.353	30.38
541.55	30.37
541.748	30.37
541.945	30.38
542.143	30.46
542.34	30.54
542.537	30.57
542.735	30.64
542.932	30.63
543.129	30.73
543.327	30.72
543.524	30.79
543.721	30.88
543.919	30.92
544.116	31
544.313	31.02
544.51	31
544.708	31.02
544.905	31.1
545.102	31.22
545.299	31.21
545.496	31.37
545.693	31.49
545.891	31.57
546.088	31.7
546.285	31.63
546.482	31.62
546.679	31.55
546.876	31.45
547.073	31.4
547.27	31.37
547.467	31.33
547.664	31.26
547.861	31.21
548.058	31.06
548.255	31
548.452	31
548.649	30.93
548.846	30.97
549.043	31
549.24	30.91
549.437	30.73
549.633	30.78
549.83	30.66
550.027	30.67
550.224	30.73
550.421	30.78
550.618	30.69
550.814	30.83
551.011	30.87
551.208	30.95
551.405	30.95
551.601	30.9
551.798	30.84
551.995	30.99
552.191	30.88
552.388	30.86
552.585	30.7
552.781	30.84
552.978	30.76
553.175	30.68
553.371	30.62
553.568	30.86
553.764	30.9
553.961	30.94
554.157	30.82
554.354	30.61
554.55	30.64
554.747	30.64
554.943	30.63
555.14	30.63
555.336	30.64
555.533	30.6
555.729	30.4
555.926	30.5
556.122	30.45
556.318	30.37
556.515	30.53
556.711	30.56
556.907	30.68
557.104	30.7
557.3	30.68
557.496	30.7
557.693	30.71
557.889	30.66
558.085	30.72
558.281	30.71
558.478	30.81
558.674	30.91
558.87	30.9
559.066	30.84
559.262	30.84
559.459	30.82
559.655	30.87
559.851	31.01
560.047	30.99
560.243	30.95
560.439	31
560.635	31.03
560.831	31.06
561.027	31.12
561.223	31.27
561.419	31.3
561.615	31.51
561.811	31.41
562.007	31.39
562.203	31.47
562.399	31.48
562.595	31.59
562.791	31.67
562.987	31.74
563.183	31.71
563.379	31.72
563.575	31.69
563.771	31.52
563.966	31.65
564.162	31.61
564.358	31.63
564.554	31.73
564.75	31.68
564.945	31.73
565.141	31.63
565.337	31.6
565.533	31.52
565.728	31.5
565.924	31.49
566.12	31.39
566.315	31.42
566.511	31.46
566.707	31.54
566.902	31.48
567.098	31.34
567.293	31.39
567.489	31.35
567.684	31.39
567.88	31.4
568.076	31.59
568.271	31.78
568.467	31.76
568.662	31.75
568.858	31.56
569.053	31.68
569.248	31.79
569.444	31.73
569.639	31.87
569.835	31.93
570.03	31.94
570.225	31.91
570.421	31.81
570.616	31.77
570.812	31.71
571.007	31.75
571.202	31.8
571.397	31.8
571.593	31.86
571.788	31.88
571.983	31.81
572.178	31.91
572.374	31.86
572.569	31.91
572.764	32.07
572.959	32.16
573.154	32.08
573.35	31.98
573.545	32
573.74	32.1
573.935	32.14
574.13	32.1
574.325	32.16
574.52	32.22
574.715	32.21
574.91	32.14
575.105	32.09
575.3	32.18
575.495	32.23
575.69	32.31
575.885	32.33
576.08	32.37
576.275	32.46
576.47	32.37
576.665	32.23
576.86	32.22
577.055	32.29
577.25	32.37
577.444	32.45
577.639	32.38
577.834	32.37
578.029	32.4
578.224	32.25
578.418	32.35
578.613	32.31
578.808	32.36
579.003	32.45
579.197	32.43
579.392	32.4
579.587	32.5
579.781	32.66
579.976	32.61
580.171	32.6
580.365	32.71
580.56	32.74
580.755	32.77
580.949	32.99
581.144	33.1
581.338	33.26
581.533	33.32
581.727	33.28
581.922	33.22
582.116	33.49
582.311	33.35
582.505	33.42
582.7	33.49
582.894	33.4
583.089	33.34
583.283	33.08
583.478	32.9
583.672	32.87
583.866	32.75
584.061	32.75
584.255	32.47
584.449	32.52
584.644	32.4
584.838	32.24
585.032	32.47
585.226	32.45
585.421	32.73
585.615	32.9
585.809	33.05
586.003	33.12
586.198	33.24
586.392	33.23
586.586	33.29
586.78	33.25
586.974	33.24
587.168	33.21
587.363	33.29
587.557	33.16
587.751	33.02
587.945	32.81
588.139	32.89
588.333	32.73
588.527	32.94
588.721	33
588.915	33.11
589.109	33.06
589.303	33.03
589.497	32.89
589.691	33
589.885	32.97
590.079	33.06
590.273	33.03
590.466	33.18
590.66	33.1
590.854	33.17
591.048	33.16
591.242	33.35
591.436	33.54
591.629	33.86
591.823	33.84
592.017	33.87
592.211	33.97
592.404	33.92
592.598	34.06
592.792	34.11
592.986	34.05
593.179	33.97
593.373	33.88
593.567	33.69
593.76	33.57
593.954	33.51
594.147	33.62
594.341	33.55
594.535	33.51
594.728	33.33
594.922	33.34
595.115	33.35
595.309	33.53
595.502	33.71
595.696	33.86
595.889	33.78
596.083	33.92
596.276	33.9
596.47	34.01
596.663	34.04
596.856	34.14
597.05	34
597.243	34.05
597.437	33.95
597.63	33.89
597.823	33.79
598.017	33.82
598.21	33.78
598.403	33.79
598.596	33.75
598.79	33.91
598.983	33.78
599.176	33.99
599.369	34.05
599.563	34.19
599.756	34.12
599.949	34.22
600.142	34.34
600.335	34.3
600.528	34.29
600.722	34.21
600.915	34.07
601.108	34.17
601.301	34.11
601.494	34.05
601.687	34.07
601.88	34.08
602.073	34.04
602.266	33.98
602.459	34.03
602.652	34.06
602.845	34.27
603.038	34.37
603.231	34.4
603.424	34.41
603.617	34.37
603.809	34.33
604.002	34.27
604.195	34.39
604.388	34.42
604.581	34.32
604.774	34.4
604.966	34.25
605.159	34.31
605.352	34.22
605.545	34.3
605.737	34.39
605.93	34.41
606.123	34.58
606.316	34.64
606.508	34.6
606.701	34.8
606.894	34.76
607.086	34.84
607.279	34.68
607.471	34.96
607.664	35.04
607.857	35.3
608.049	35.45
608.242	35.6
608.434	35.85
608.627	36.34
608.819	36.76
609.012	37.12
609.204	37.65
609.397	38.37
609.589	38.92
609.782	39.65
609.974	40.34
610.166	41.04
610.359	41.84
610.551	42.48
610.743	43.05
610.936	43.62
611.128	44.18
611.32	44.64
611.513	44.85
611.705	44.9
611.897	44.77
612.09	44.43
612.282	44.31
612.474	44.12
612.666	43.71
612.858	43.35
613.051	42.79
613.243	42.47
613.435	41.97
613.627	41.73
613.819	41.26
614.011	40.98
614.203	40.7
614.395	40.16
614.588	39.56
614.78	39.11
614.972	38.85
615.164	38.65
615.356	38.23
615.548	37.99
615.74	37.58
615.932	37.54
616.124	37.33
616.315	36.96
616.507	36.97
616.699	36.9
616.891	37.02
617.083	36.63
617.275	36.49
617.467	36.43
617.659	36.29
617.85	36.01
618.042	35.95
618.234	35.88
618.426	35.99
618.618	35.86
618.809	35.69
619.001	35.54
619.193	35.7
619.384	35.62
619.576	35.53
619.768	35.58
619.959	35.93
620.151	35.98
620.343	36.04
620.534	35.92
620.726	35.96
620.917	36.05
621.109	36.08
621.301	36
621.492	35.96
621.684	36.32
621.875	36.35
622.067	35.97
622.258	35.75
622.45	35.78
622.641	35.95
622.832	35.8
623.024	35.9
623.215	35.76
623.407	35.91
623.598	35.97
623.789	35.82
623.981	35.91
624.172	36.35
624.363	36.47
624.555	36.35
624.746	36.42
624.937	36.42
625.129	36.42
625.32	36.67
625.511	36.51
625.702	36.46
625.893	36.33
626.085	36.28
626.276	36.12
626.467	36.12
626.658	35.98
626.849	36
627.04	36.08
627.231	36.03
627.422	35.98
627.614	36.11
627.805	36.17
627.996	36.14
628.187	36.08
628.378	36.32
628.569	36.52
628.76	36.78
628.951	36.78
629.142	36.77
629.332	36.98
629.523	36.99
629.714	36.84
629.905	37.05
630.096	37.17
630.287	37.37
630.478	37.33
630.669	37.2
630.859	37.26
631.05	37.2
631.241	37.42
631.432	37.19
631.623	37.12
631.813	37.21
632.004	36.87
632.195	36.84
632.385	36.71
632.576	36.38
632.767	36.2
632.957	36.13
633.148	36.02
633.339	35.84
633.529	35.91
633.72	35.84
633.91	35.97
634.101	36.07
634.292	36.01
634.482	35.83
634.673	35.93
634.863	36.12
635.054	36.07
635.244	36.12
635.435	36.2
635.625	36.09
635.815	36.21
636.006	35.94
636.196	35.96
636.387	36.07
636.577	36.16
636.767	36.3
636.958	36.12
637.148	36.04
637.338	36.14
637.529	35.97
637.719	36.08
637.909	35.88
638.099	36.03
638.29	36
638.48	35.79
638.67	35.73
638.86	35.34
639.05	35.36
639.241	35.13
639.431	34.97
639.621	34.9
639.811	34.75
640.001	35.13
640.191	34.97
640.381	34.88
640.571	35.19
640.761	35.21
640.951	35.53
641.141	35.65
641.331	36.03
641.521	36.19
641.711	36.24
641.901	36.42
642.091	36.11
642.281	36.28
642.471	36.57
642.661	36.54
642.851	36.64
643.041	36.57
643.231	36.33
643.42	36.07
643.61	35.9
643.8	35.98
643.99	35.99
644.18	36.06
644.369	35.91
644.559	35.74
644.749	35.69
644.939	35.6
645.128	35.51
645.318	35.67
645.508	35.94
645.697	36.09
645.887	36.2
646.076	35.92
646.266	36
646.456	36.04
646.645	36.04
646.835	35.92
647.024	35.77
647.214	35.94
647.403	36.08
647.593	36.1
647.782	36.16
647.972	36.04
648.161	36.48
648.351	36.5
648.54	36.68
648.73	36.47
648.919	36.44
649.108	36.83
649.298	36.87
649.487	37.01
649.677	36.99
649.866	37
650.055	37.25
650.244	37.1
650.434	37
650.623	37
650.812	37.46
651.002	37.49
651.191	37.2
651.38	37.32
651.569	37.28
651.758	37.3
651.947	37.18
652.137	37.03
652.326	37.07
652.515	37
652.704	37.05
652.893	36.78
653.082	36.89
653.271	37.05
653.46	36.87
653.649	36.63
653.838	36.74
654.027	36.77
654.216	36.9
654.405	36.88
654.594	36.96
654.783	36.78
654.972	36.7
655.161	36.59
655.35	36.61
655.539	36.69
655.728	36.63
655.916	36.45
656.105	36.44
656.294	36.5
656.483	36.62
656.672	36.96
656.86	37.23
657.049	37.28
657.238	37.13
657.427	37.19
657.615	37.36
657.804	37.53
657.993	37.56
658.181	37.36
658.37	37.21
658.559	37.13
658.747	37.02
658.936	36.84
659.125	37.35
659.313	37.46
659.502	37.24
659.69	37.29
659.879	37.28
660.067	37.36
660.256	37.42
660.444	37.6
660.633	37.7
660.821	37.57
661.01	37.53
661.198	37.16
661.387	37.12
661.575	37.57
661.763	37.54
661.952	37.48
662.14	37.34
662.328	37.38
662.517	37.2
662.705	37.05
662.893	37.07
663.082	37.25
663.27	37.17
663.458	37.41
663.646	37.01
663.834	36.82
664.023	36.87
664.211	37.06
664.399	37.07
664.587	37.27
664.775	37.25
664.963	37.31
665.152	37.05
665.34	37.32
665.528	37.14
665.716	37.35
665.904	37.43
666.092	37.66
666.28	37.46
666.468	37.41
666.656	37.28
666.844	37.22
667.032	37.34
667.22	37.58
667.408	37.22
667.596	37.32
667.784	37.27
667.971	37.08
668.159	37.05
668.347	37.24
668.535	37.48
668.723	37.27
668.911	37.58
669.098	37.58
669.286	37.58
669.474	37.61
669.662	37.85
669.849	37.92
670.037	38.1
670.225	37.73
670.413	37.69
670.6	37.61
670.788	37.88
670.976	37.64
671.163	37.26
671.351	37.18
671.538	37.29
671.726	37.05
671.913	37.2
672.101	37.13
672.289	37.24
672.476	37.12
672.664	37.28
672.851	37.04
673.039	36.94
673.226	36.87
673.413	36.94
673.601	36.8
673.788	36.72
673.976	36.58
674.163	36.55
674.35	36.75
674.538	36.83
674.725	36.64
674.912	36.62
675.1	36.54
675.287	37
675.474	36.61
675.662	36.47
675.849	36.43
676.036	36.38
676.223	36.1
676.411	35.95
676.598	35.75
676.785	35.73
676.972	35.92
677.159	35.93
677.346	35.8
677.533	36.04
677.721	36.1
677.908	36.13
678.095	36.2
678.282	36.65
678.469	36.67
678.656	36.79
678.843	36.68
679.03	36.91
679.217	36.92
679.404	36.74
679.591	36.92
679.778	37.31
679.964	37.42
680.151	37.43
680.338	37.4
680.525	37.62
680.712	37.75
680.899	37.88
681.086	37.81
681.272	37.73
681.459	38.13
681.646	38
681.833	37.79
682.02	37.92
682.206	37.95
682.393	37.7
682.58	37.31
682.766	37.29
682.953	37.5
683.14	37.16
683.326	37.53
683.513	37.36
683.7	37.51
683.886	37.73
684.073	37.65
684.259	37.64
684.446	38.06
684.632	38.34
684.819	38.28
685.005	38.28
685.192	38.77
685.378	38.85
685.565	38.98
685.751	39.21
685.938	38.95
686.124	39.02
686.31	38.72
686.497	38.38
686.683	38.26
686.87	38.22
687.056	38.16
687.242	37.58
687.429	37.92
687.615	38.03
687.801	37.76
687.987	37.91
688.174	37.76
688.36	38.18
688.546	38.12
688.732	38.17
688.918	38.18
689.105	38.08
689.291	38.47
689.477	38.02
689.663	37.34
689.849	37.41
690.035	37.42
690.221	37.47
690.407	37.36
690.593	37.79
690.779	37.88
690.965	37.92
691.151	37.89
691.337	37.88
691.523	37.98
691.709	39.13
691.895	39.2
692.081	39.1
692.267	39.2
692.453	39.26
692.639	39.18
692.825	39.09
693.011	39.3
693.196	39.63
693.382	39.55
693.568	39.24
693.754	38.55
693.94	38.23
694.125	37.92
694.311	37.99
694.497	37.69
694.682	37.86
694.868	38.04
695.054	38.13
695.239	37.95
695.425	38.06
695.611	38.27
695.796	38.37
695.982	38.64
696.168	38.89
696.353	38.86
696.539	38.81
696.724	38.56
696.91	38.28
697.095	38.06
697.281	38.25
697.466	38.01
697.652	38.11
697.837	38.34
698.023	38.28
698.208	38.11
698.393	38.09
698.579	38.36
698.764	38.47
698.949	38.61
699.135	38.72
699.32	38.6
699.505	38.78
699.691	38.62
699.876	38.29
700.061	38.32
700.246	38.49
700.432	38.54
700.617	38.5
700.802	38.33
700.987	38.44
701.172	38.33
701.358	38.4
701.543	38.29
701.728	38.21
701.913	37.59
702.098	37.29
702.283	37.53
702.468	37.18
702.653	37.08
702.838	37.05
703.023	36.61
703.208	36.75
703.393	36.17
703.578	36.43
703.763	36.35
703.948	37.15
704.133	37.45
704.318	37.39
704.503	37.58
704.688	37.83
704.873	37.93
705.057	38.56
705.242	38.39
705.427	39.03
705.612	39.22
705.797	40.07
705.981	40.28
706.166	40.86
706.351	40.92
706.536	41.07
706.72	41.22
706.905	41.67
707.09	41.77
707.274	41.9
707.459	41.92
707.644	42.11
707.828	41.92
708.013	41.93
708.197	41.32
708.382	41.21
708.567	41.27
708.751	41.37
708.936	41.37
709.12	41.07
709.305	41.2
709.489	40.99
709.673	40.8
709.858	40.55
710.042	40.02
710.227	39.9
710.411	39.7
710.596	39.59
710.78	38.99
710.964	39.11
711.149	39.26
711.333	38.87
711.517	39.17
711.702	39.05
711.886	38.86
712.07	39.51
712.254	40.15
712.438	40.09
712.623	40.27
712.807	40.22
712.991	39.46
713.175	39.23
713.359	39.43
713.544	39.28
713.728	39.11
713.912	39.62
714.096	39.49
714.28	38.67
714.464	38.86
714.648	38.77
714.832	38.96
715.016	39.33
715.2	39.51
715.384	39.44
715.568	39.54
715.752	39.85
715.936	38.94
716.12	38.66
716.304	39.38
716.488	39.55
716.671	39.28
716.855	39.36
717.039	39.16
717.223	39.04
717.407	39.18
717.59	38.78
717.774	38.88
717.958	39.75
718.142	39.38
718.325	38.75
718.509	38.58
718.693	38.31
718.877	37.5
719.06	37.2
719.244	36.71
719.428	36.75
719.611	36.48
719.795	36.18
719.978	36.24
720.162	36.71
720.345	37.01
720.529	36.43
720.713	36.61
720.896	37.29
721.08	37.33
721.263	37.9
721.446	37.73
721.63	37.99
721.813	37.73
721.997	37.26
722.18	37
722.364	36.91
722.547	37.53
722.73	37.94
722.914	38.1
723.097	38.15
723.28	38.36
723.464	38.28
723.647	38.73
723.83	38.88
724.013	39.36
724.197	39.71
724.38	39.42
724.563	39.52
724.746	39.11
724.929	38.91
725.112	39.18
725.296	38.88
725.479	38.71
725.662	38.45
725.845	38.16
726.028	37.5
726.211	37.11
726.394	37.3
726.577	36.83
726.76	37.1
726.943	36.72
727.126	36.44
727.309	35.9
727.492	36.2
727.675	36.36
727.858	36.6
728.041	36.74
728.224	37.06
728.407	37.18
728.589	37.25
728.772	36.95
728.955	37.42
729.138	37.65
729.321	37.84
729.503	37.63
729.686	37.45
729.869	37.32
730.052	37.82
730.234	37.72
730.417	38.04
730.6	37.85
730.782	37.91
730.965	38.11
731.148	38.08
731.33	38.64
731.513	39.05
731.695	39.13
731.878	39.04
732.061	38.38
732.243	38.48
732.426	38.42
732.608	38.63
732.791	38.93
732.973	38.74
733.156	38.5
733.338	38.2
733.52	37.8
733.703	37.78
733.885	38.12
734.068	38.2
734.25	38.22
734.432	37.64
734.615	37.55
734.797	37.23
734.979	37.11
735.162	37.65
735.344	37.51
735.526	37.65
735.708	37.79
735.891	37.5
736.073	38.05
736.255	38.38
736.437	38.37
736.619	38.91
736.802	39.4
736.984	39.32
737.166	39.27
737.348	38.99
737.53	38.61
737.712	38.41
737.894	38.95
738.076	38.75
738.258	37.84
738.44	38.36
738.622	37.68
738.804	37.02
738.986	37.33
739.168	37.61
739.35	37.73
739.532	38.15
739.714	38
739.896	37.21
740.078	36.65
740.259	37.13
740.441	36.85
740.623	36.5
740.805	36.63
740.987	36.29
741.168	35.71
741.35	35.81
741.532	35.82
741.714	36.16
741.895	36.24
742.077	36.43
742.259	35.96
742.44	36.24
742.622	36.82
742.804	36.85
742.985	36.99
743.167	37.07
743.348	37.49
743.53	36.89
743.711	36.46
743.893	36.91
744.075	36.82
744.256	37.43
744.438	37.11
744.619	37.28
744.8	38.42
744.982	38.05
745.163	37.78
745.345	37.93
745.526	38.17
745.707	38.39
745.889	38.48
746.07	38.24
746.252	38.14
746.433	37.95
746.614	38.27
746.795	37.48
746.977	37.95
747.158	38.76
747.339	37.79
747.52	38.13
747.702	38.01
747.883	38.13
748.064	38.45
748.245	38.24
748.426	38.35
748.607	37.92
748.788	37.63
748.97	37.83
749.151	37.22
749.332	37.85
749.513	38
749.694	38.05
749.875	37.48
750.056	37.3
750.237	37.23
750.418	36.9
750.599	37.19
750.78	36.93
750.96	36.51
751.141	36.3
751.322	36.32
751.503	36.59
751.684	36.42
751.865	35.84
752.046	36.18
752.226	35.98
752.407	36.01
752.588	35.63
752.769	36.72
752.949	36.81
753.13	36.7
753.311	36.29
753.492	35.35
753.672	35.37
753.853	36.04
754.034	35.62
754.214	35.46
754.395	35.67
754.575	35.81
754.756	34.97
754.937	35.05
755.117	35.76
755.298	36.04
755.478	36.92
755.659	36.31
755.839	36.68
756.02	37.29
756.2	38.28
756.381	38.42
756.561	38.8
756.741	39.71
756.922	39.64
757.102	39.54
757.283	39
757.463	38.65
757.643	39.22
757.823	39.05
758.004	38.41
758.184	38.25
758.364	38.43
758.545	37.32
758.725	37.19
758.905	36.91
759.085	36.13
759.265	37.11
759.446	37.08
759.626	36.72
759.806	37.17
759.986	37.43
760.166	37.55
760.346	37.8
760.526	38.86
760.706	38.02
760.886	38.82
761.066	39.5
761.246	39.05
761.426	38.7
761.606	39.17
761.786	38.85
761.966	39.63
762.146	38.95
762.326	38.8
762.506	38.46
762.686	38.85
762.866	38.87
763.046	38.39
763.225	38.63
763.405	39.25
763.585	39.58
763.765	39.46
763.945	39.03
764.124	39.05
764.304	38.7
764.484	38.62
764.664	38.38
764.843	37.84
765.023	38
765.203	37.63
765.382	37.07
765.562	36.41
765.741	36.4
765.921	36.61
766.101	37.21
766.28	37.19
766.46	36.96
766.639	37.77
766.819	37.65
766.998	37.28
767.178	37.89
767.357	38.05
767.537	38.17
767.716	38.52
767.896	38.56
768.075	38.38
768.254	38.9
768.434	39.02
768.613	38.79
768.792	38.17
768.972	38.6
769.151	39.14
769.33	38.41
769.51	38.24
769.689	37.77
769.868	37.65
770.047	37.54
770.226	37.1
770.406	36.93
770.585	35.98
770.764	37.01
770.943	37.26
771.122	36.26
771.301	37.41
771.48	37.24
771.66	37.67
771.839	37.68
772.018	37.65
772.197	37.34
772.376	36.7
772.555	36.18
772.734	36.39
772.913	36.53
773.092	36.32
773.271	36.55
773.449	36.44
773.628	35.37
773.807	35.6
773.986	35.62
774.165	36.63
774.344	37.01
774.523	38.17
774.701	38.03
774.88	37.93
775.059	38.34
775.238	37.44
775.417	37.92
775.595	38.3
775.774	37.57
775.953	37.28
776.131	37.25
776.31	37.8
776.489	38.22
776.667	38.31
776.846	38.66
777.025	38.49
777.203	38.41
777.382	38.4
777.56	38.08
777.739	38.55
777.917	37.93
778.096	37.69
778.274	37.82
778.453	36.67
778.631	36.2
778.81	36.28
778.988	36.63
779.166	37.16
779.345	38.49
779.523	39.11
779.702	38.05
779.88	39.21
780.058	38.42
780.237	38.58
780.415	38.95
780.593	40.28
780.771	39.37
780.95	38.3
781.128	38.49
781.306	37.49
781.484	37.45
781.662	37.61
781.841	37.47
782.019	37.59
782.197	37.51
782.375	37.05
782.553	35.69
782.731	34.89
782.909	36.36
783.087	36.15
783.265	36.44
783.443	36.06
783.621	36.48
783.799	35.6
783.977	36.15
784.155	35.69
784.333	35.57
784.511	35.73
784.689	37.38
784.867	36.89
785.045	37.01
785.223	36.43
785.4	35.12
785.578	35.05
785.756	36.21
785.934	35.86
786.112	36.77
786.289	37.69
786.467	38.5
786.645	37.23
786.823	37.3
787	36.86
787.178	36.87
787.356	38.8
787.533	38.53
787.711	38.42
787.889	38.12
788.066	37.18
788.244	36.98
788.421	36.24
788.599	36.81
788.776	36.39
788.954	34.72
789.131	35.05
789.309	34.54
789.486	35.03
789.664	35.06
789.841	35.63
790.019	36.78
790.196	36.76
790.373	36.96
790.551	36.47
790.728	36.1
790.906	38.63
791.083	39.62
791.26	40.05
791.437	40.63
791.615	41.33
791.792	41.4
791.969	39.86
792.146	39.94
792.324	40.33
792.501	41.2
792.678	41.5
792.855	41.24
793.032	39.95
793.209	39.08
793.387	39.26
793.564	38.05
793.741	37.08
793.918	39.04
794.095	39.68
794.272	38.26
794.449	39.46
794.626	40.26
794.803	40.64
794.98	40.95
795.157	40.61
795.334	40.11
795.511	39.8
795.688	40.84
795.864	39.98
796.041	39.42
796.218	40
796.395	38.36
796.572	37.2
796.749	37
796.925	36.47
797.102	37.05
797.279	36.47
797.456	36.85
797.632	36.22
797.809	36.54
797.986	35.62
798.162	35.66
798.339	36.8
798.516	36.03
798.692	36.18
798.869	36.26
799.046	36.6
799.222	37.39
799.399	37.94
799.575	37.5
799.752	36.73
799.928	36.78
800.105	36.95
800.281	36.64
800.458	36.86
800.634	35.79
800.811	35.61
800.987	35.71
801.163	34.77
801.34	32.62
801.516	33.22
801.692	34.18
801.869	34.02
802.045	33.81
802.221	33.09
802.398	33.29
802.574	33.01
802.75	33.57
802.926	32.68
803.103	33.2
803.279	34.98
803.455	35.61
803.631	35.09
803.807	36.39
803.983	36.29
804.16	37.88
804.336	37.87
804.512	39.82
804.688	38.46
804.864	38.83
805.04	38.74
805.216	39.15
805.392	40.09
805.568	39.26
805.744	39.57
805.92	39.86
806.096	36.57
806.272	37.06
806.448	34.56
806.623	34.83
806.799	33.44
806.975	33.11
807.151	34.05
807.327	32.37
807.503	33.81
807.678	34.53
807.854	34.39
808.03	36.47
808.206	35.5
808.381	35.83
808.557	36.16
808.733	35.87
808.908	35.01
809.084	34.25
809.26	33.03
809.435	32.11
809.611	29.55
809.787	28.93
809.962	27.75
810.138	29.33
810.313	30.37
810.489	29.71
810.664	31.11
810.84	33.6
811.015	32.39
811.191	33.37
811.366	34.25
811.542	35.37
811.717	36.42
811.892	36.43
812.068	35.73
812.243	34.47
812.419	34.43
812.594	36.3
812.769	34.47
812.944	33.66
813.12	33.67
813.295	32.99
813.47	33.09
813.645	33.11
813.821	34.22
813.996	35.2
814.171	35.34
814.346	35.7
814.521	34.36
814.697	34.94
814.872	36.7
815.047	38.25
815.222	37.41
815.397	38.51
815.572	38.16
815.747	37.49
815.922	36.52
816.097	36.23
816.272	36.65
816.447	35.39
816.622	35.26
816.797	34.84
816.972	34.63
817.147	34.62
817.322	32.66
817.496	31.05
817.671	30.57
817.846	30.65
818.021	31
818.196	31.53
818.371	33.14
818.545	34.13
818.72	33.29
818.895	32.71
819.069	33.5
819.244	33.39
819.419	34.01
819.594	34.94
819.768	34.66
819.943	36.25
820.117	37.38
820.292	36.45
820.467	35.98
820.641	36.18
820.816	36.18
820.99	36.05
821.165	36.68
821.339	36.35
821.514	36.42
821.688	36.44
821.863	35.78
822.037	35.11
822.212	35.31
822.386	35
822.56	35.18
822.735	35.15
822.909	35.04
823.084	34.59
823.258	34.59
823.432	34.56
823.606	34.79
823.781	35.12
823.955	35.38
824.129	35.26
824.303	35.36
824.478	35.43
824.652	35.56
824.826	35.37
825	36
825.174	36.35
825.348	36.32
825.523	35.77
825.697	35.04
825.871	34.94
826.045	35.12
826.219	36.15
826.393	35.8
826.567	35.38
826.741	36.06
826.915	35.54
827.089	35.54
827.263	35.73
827.437	36
827.611	36.67
827.784	36.51
827.958	36.4
828.132	35.44
828.306	35.36
828.48	35.64
828.654	35
828.827	35.43
829.001	35.52
829.175	35.39
829.349	35.18
829.522	34.39
829.696	33.48
829.87	32.75
830.044	33.09
830.217	33.06
830.391	32.51
830.565	32.75
830.738	32.24
830.912	31.76
831.085	30.59
831.259	29.03
831.432	29.14
831.606	30.38
831.779	29.89
831.953	30.48
832.126	28.94
832.3	28.9
832.473	29.09
832.647	30.51
832.82	30.92
832.994	31.36
833.167	32.57
833.34	31.74
833.514	32.07
833.687	33.65
833.86	33.19
834.034	34.55
834.207	34.58
834.38	34.46
834.553	33.7
834.727	33.74
834.9	34.12
835.073	34.57
835.246	35.31
835.419	35.87
835.593	34.74
835.766	35.26
835.939	34.92
836.112	35.74
836.285	37
836.458	37.61
836.631	38.29
836.804	37.1
836.977	37.1
837.15	37.05
837.323	34.36
837.496	34.83
837.669	34.07
837.842	34.33
838.015	36.58
838.188	34.97
838.361	35.96
838.533	34.21
838.706	34.61
838.879	33.57
839.052	33.24
839.225	35.37
839.398	34.51
839.57	34.63
839.743	35.52
839.916	33.19
840.088	34.94
840.261	33.55
840.434	34.78
840.607	34.34
840.779	33.26
840.952	34.49
841.124	33.3
841.297	34.82
841.47	35.49
841.642	35.02
841.815	34.59
841.987	34.13
842.16	34.3
842.332	32.09
842.505	33.17
842.677	34.59
842.85	32.54
843.022	35.09
843.194	33.71
843.367	33.38
843.539	31.06
843.712	29.97
843.884	27.46
844.056	24.18
844.229	25.63
844.401	30.01
844.573	30.36
844.745	31.83
844.918	29.67
845.09	28.3
845.262	28.11
845.434	27.44
845.606	26.74
845.779	22.37
845.951	26.01
846.123	26.19
846.295	19.21
846.467	19.07
846.639	18.08
846.811	19.46
846.983	20.77
847.155	21.59
847.327	22.62
847.499	26.55
847.671	28.89
847.843	30.05
848.015	31.92
848.187	29.99
848.359	29.54
848.531	32.49
848.703	32.09
848.875	33.15
849.047	29.52
849.218	27.74
849.39	26.26
849.562	30.75
849.734	30.54
849.905	30.72
850.077	32.8
850.249	34.62
850.421	32.29
850.592	32.09
850.764	30.67
850.936	33.52
851.107	35.03
851.279	38.17
851.451	34.31
851.622	35.1
851.794	35.63
851.965	37.27
852.137	36.51
852.308	35.23
852.48	35.96
852.651	39.83
852.823	38.74
852.994	38.4
853.166	31.4
853.337	34.15
853.509	32.49
853.68	28.21
853.851	28.8
854.023	27.15
854.194	29.96
854.365	27.28
854.537	28.15
854.708	26.5
854.879	25.27
855.05	25.07
855.222	24.39
855.393	21.19
855.564	22.72
855.735	26.32
855.906	27.44
856.078	25.02
856.249	27.13
856.42	22.76
856.591	22.15
856.762	28.46
856.933	28.64
857.104	26.68
857.275	29.36
857.446	29.87
857.617	25.94
857.788	22.5
857.959	24.57
858.13	23.94
858.301	23.28
858.472	25.34
858.643	25.11
858.814	25.07
858.985	25.81
859.155	22.26
859.326	25.32
859.497	23.21
859.668	29.14
859.839	25.76
860.009	24.37
860.18	28.21
860.351	27.31
860.522	28.58
860.692	29.9
860.863	27.61
861.034	32.15
861.204	26.09
861.375	21.94
861.546	17.6
861.716	20.82
861.887	22.97
862.057	20.02
862.228	18.46
862.398	12.1
862.569	15.59
862.739	20.03
862.91	19.19
863.08	16.9
863.251	24.17
863.421	24.41
863.592	25.42
863.762	21.86
863.932	21.39
864.103	23.55
864.273	25.54
864.443	23.82
864.614	24.08
864.784	22.85
864.954	22.97
865.125	24.33
865.295	20.9
865.465	15.75
865.635	19.15
865.805	18.68
865.976	16.57
866.146	16.39
866.316	16.74
866.486	17.02
866.656	19.09
866.826	25.04
866.996	23.78
867.166	26.95
867.336	27.71
867.506	23.27
867.676	27.56
867.846	29.54
868.016	26.32
868.186	24.38
868.356	22.53
868.526	21.83
868.696	20.84
868.866	17.79
869.036	17.12
869.206	19.62
869.376	21.15
869.545	17.74
869.715	16.75
869.885	18.59
870.055	16.87
870.224	20.01
870.394	18.28
870.564	17.77
870.734	19.27
870.903	18.35
871.073	16.97
871.243	19.16
871.412	19.1
871.582	22.74
871.751	21.98
871.921	26.9
872.091	24.49
872.26	21.76
872.43	23.15
872.599	23.24
872.769	24.01
872.938	27.67
873.108	26.43
873.277	26.91
873.446	23.07
873.616	23.52
873.785	25.08
873.955	25.43
874.124	24.13
874.293	23.04
874.463	24.61
874.632	26.47
874.801	23.76
874.971	25.36
875.14	20.18
875.309	20.5
875.478	20.22
875.647	18.44
875.817	19.84
875.986	21.98
876.155	19.47
876.324	17.5
876.493	14.92
876.662	14.21
876.831	11.89
877	14.23
877.17	16.67
877.339	18.68
877.508	19.02
877.677	16.79
877.846	16.52
878.015	18.94
878.184	19.92
878.352	18.72
878.521	21.6
878.69	25.48
878.859	26.92
879.028	26.1
879.197	22.79
879.366	21.51
879.534	23.1
879.703	25.55
879.872	28.37
880.041	28.03
880.21	33.14
880.378	32.21
880.547	32.39
880.716	32.35
880.884	32.1
881.053	33.53
881.222	32.81
881.39	31.87
881.559	32.31
881.727	32.51
881.896	32.39
882.065	31.88
882.233	31.54
882.402	30.83
882.57	31.65
882.739	31.84
882.907	31.88
883.076	32.22
883.244	32.15
883.412	31.33
883.581	30.26
883.749	30.72
883.918	29.94
884.086	29.46
884.254	29.96
884.423	28.98
884.591	28.73
884.759	27.04
884.927	26.86
885.096	28.09
885.264	28.21
885.432	27.45
885.6	24.78
885.769	25.64
885.937	27.58
886.105	24.96
886.273	23.53
886.441	23.17
886.609	22.55
886.777	21.54
886.945	20.01
887.113	17.55
887.281	20.87
887.449	22.16
887.617	18.88
887.785	14.32
887.953	17.56
888.121	21.85
888.289	20.01
888.457	21.3
888.625	23.56
888.793	24.06
888.961	26.93
889.129	24.82
889.296	25.06
889.464	27.68
889.632	31.92
889.8	30.53
889.967	22.81
890.135	24.86
