Data from 2938777__Reflection_03.txt Node
Date: Fri Mar 13 13:42:42 EDT 2015
User: robert
Spectrometer: USB4E03002
Autoset integration time: false
Trigger mode: 4
Integration Time (sec): 1.000000E-1
Scans to average: 10
Electric dark correction enabled: false
Nonlinearity correction enabled: false
Boxcar width: 5
Stray light correction enabled: false
XAxis mode: Wavelengths
Stop averaging: false
Number of Pixels in Spectrum: 3648
>>>>>Begin Spectral Data<<<<<
177.575	-163.89
177.794	-313.7
178.014	-1125.93
178.233	652.24
178.452	1254.05
178.672	293.75
178.891	251.22
179.11	1308.7
179.33	-394.03
179.549	-130.95
179.768	-376.67
179.987	161.19
180.207	633.33
180.426	264.62
180.645	-197.14
180.864	-253.23
181.084	-38.98
181.303	-96.73
181.522	-680.85
181.741	2306.67
181.96	145.71
182.179	150.93
182.398	109.55
182.618	109.26
182.837	136.53
183.056	124.14
183.275	70.41
183.494	48.55
183.713	10.98
183.932	-13
184.151	-5.63
184.37	-29.5
184.589	-88.76
184.808	-6.67
185.027	95.79
185.246	99.73
185.465	61.62
185.684	60.23
185.903	81.29
186.122	79.78
186.341	81.19
186.56	83.58
186.779	85.37
186.998	84.24
187.216	85.14
187.435	-23.73
187.654	-29
187.873	-9.84
188.092	-13.42
188.311	-73.41
188.53	6.25
188.748	-6.25
188.967	391.67
189.186	123.91
189.405	187.05
189.623	93.84
189.842	84.3
190.061	114.42
190.28	190.55
190.498	140.11
190.717	119
190.936	134.79
191.154	120.56
191.373	138.46
191.592	123.98
191.81	80.63
192.029	99.13
192.248	109.04
192.466	102.06
192.685	91.87
192.904	109.84
193.122	110.93
193.341	84.59
193.559	113.13
193.778	41.22
193.996	28.86
194.215	572
194.433	-0.93
194.652	-15.54
194.87	-3.19
195.089	-800
195.307	-26.92
195.526	109.35
195.744	176.6
195.963	79.23
196.181	54.96
196.399	72.8
196.618	65.27
196.836	66.22
197.055	106.49
197.273	190.11
197.491	564.71
197.71	244.44
197.928	154.19
198.146	185.59
198.365	160
198.583	319.7
198.801	17.03
199.019	52.07
199.238	18.11
199.456	55.85
199.674	102.32
199.892	104.88
200.111	130.77
200.329	157.83
200.547	194.01
200.765	214.69
200.983	168.31
201.202	329.91
201.42	456.25
201.638	-695.65
201.856	-52.58
202.074	-104.88
202.292	18.42
202.51	3.88
202.728	80.43
202.946	170.47
203.165	214.29
203.383	3400
203.601	4.23
203.819	-175.25
204.037	-165.78
204.255	-160.83
204.473	-65.28
204.691	-221.55
204.909	-39.45
205.127	-118.41
205.345	-83.43
205.562	-118.39
205.78	-56.08
205.998	-65.55
206.216	-12.59
206.434	13.17
206.652	49.48
206.87	59.91
207.088	69.32
207.306	51.25
207.523	43.75
207.741	36
207.959	42.22
208.177	32.01
208.395	29.63
208.612	27.36
208.83	20.43
209.048	-53.09
209.266	-860
209.483	1720.59
209.701	2168
209.919	-810.94
210.136	-9340
210.354	1361.11
210.572	267.21
210.79	-240.19
211.007	-76.6
211.225	-296.61
211.442	-17.42
211.66	27.34
211.878	54.14
212.095	215.34
212.313	253.55
212.53	226.42
212.748	202.84
212.966	154.33
213.183	181.82
213.401	152.17
213.618	108.5
213.836	84.91
214.053	96.73
214.271	113.52
214.488	0
214.705	-4.7
214.923	2.75
215.14	9.58
215.358	5.54
215.575	-1.65
215.793	19.86
216.01	31.51
216.227	46.53
216.445	39.93
216.662	32.86
216.879	20.68
217.097	24.91
217.314	38.31
217.531	42.97
217.749	39.29
217.966	52.21
218.183	23.71
218.4	-9
218.618	-14.75
218.835	-19.67
219.052	-24.54
219.269	-16.72
219.487	-21.05
219.704	-25.2
219.921	-34.6
220.138	-30.02
220.355	-25.56
220.572	-14.36
220.79	-6.6
221.007	-11.87
221.224	-13.56
221.441	-6.86
221.658	5.41
221.875	7.29
222.092	12.75
222.309	15.82
222.526	11.82
222.743	14.04
222.96	14.62
223.177	15.77
223.394	15.53
223.611	19.71
223.828	24.89
224.045	20.77
224.262	25.2
224.479	23.5
224.696	19.79
224.913	23.61
225.13	23.87
225.347	26.26
225.564	26.36
225.781	27.54
225.997	20.52
226.214	17.29
226.431	15.6
226.648	9.46
226.865	8.72
227.082	8.38
227.298	6.45
227.515	4.82
227.732	4.12
227.949	3.3
228.165	3.26
228.382	4.15
228.599	3.48
228.816	3.56
229.032	3.52
229.249	3.93
229.466	4.57
229.682	4.67
229.899	3.85
230.116	2.62
230.332	2.11
230.549	2.18
230.765	2.49
230.982	2.89
231.199	2.31
231.415	3.49
231.632	2.15
231.848	2.91
232.065	1.33
232.281	3.81
232.498	4.92
232.714	6.41
232.931	7.48
233.147	6.9
233.364	6.14
233.58	4.93
233.797	5.7
234.013	6.42
234.23	5.08
234.446	6.53
234.662	4.9
234.879	4.44
235.095	4.6
235.312	4.34
235.528	2.51
235.744	2.95
235.961	6.11
236.177	4.62
236.393	3.43
236.61	2.73
236.826	1.24
237.042	2.31
237.258	1.89
237.475	0.98
237.691	-0.48
237.907	-0.19
238.123	0.02
238.339	-1.43
238.556	-0.59
238.772	-0.03
238.988	0.24
239.204	1.09
239.42	3.12
239.636	4.36
239.853	4.58
240.069	5.29
240.285	6.16
240.501	6.8
240.717	6.63
240.933	6.15
241.149	5.81
241.365	5.38
241.581	5.46
241.797	4.13
242.013	4.25
242.229	4.21
242.445	4.08
242.661	4.23
242.877	4.27
243.093	4.21
243.309	4
243.525	4.23
243.741	4.38
243.957	4.65
244.173	4.99
244.388	5.15
244.604	4.7
244.82	4.5
245.036	4.06
245.252	3.11
245.468	3.26
245.683	3.54
245.899	2.97
246.115	3.06
246.331	2.96
246.547	3.19
246.762	2.89
246.978	3.26
247.194	3.3
247.409	3.55
247.625	3.6
247.841	3.53
248.057	3.12
248.272	3.24
248.488	3.28
248.703	3.32
248.919	2.82
249.135	2.94
249.35	3.11
249.566	2.94
249.782	2.72
249.997	2.63
250.213	2.79
250.428	3.7
250.644	3.61
250.859	3.43
251.075	3.3
251.29	3.56
251.506	3.9
251.721	3.37
251.937	3.45
252.152	2.95
252.368	2.97
252.583	2.66
252.798	2.45
253.014	2.49
253.229	2.87
253.445	2.19
253.66	2.11
253.875	1.88
254.091	1.04
254.306	0.41
254.521	0.24
254.737	0.45
254.952	0.77
255.167	-0.33
255.383	-0.32
255.598	-1.36
255.813	-0.23
256.028	0.33
256.244	-0.99
256.459	0.37
256.674	-0.1
256.889	0.37
257.104	-0.49
257.32	0.04
257.535	0.39
257.75	0.87
257.965	1.11
258.18	0.93
258.395	0.96
258.61	1.67
258.826	1.76
259.041	2.09
259.256	2.13
259.471	2.18
259.686	1.81
259.901	2
260.116	2.02
260.331	2.03
260.546	1.99
260.761	1.83
260.976	1.61
261.191	1.19
261.406	1.03
261.621	0.87
261.836	0.93
262.05	0.7
262.265	0.53
262.48	0.16
262.695	0.19
262.91	-0.24
263.125	-0.79
263.34	-1.07
263.555	-0.7
263.769	-0.68
263.984	-0.96
264.199	-2.15
264.414	-1.58
264.629	-1.23
264.843	-1.2
265.058	-1.12
265.273	-0.43
265.488	0.51
265.702	1.13
265.917	0.95
266.132	1.01
266.346	1.26
266.561	2.52
266.776	2.25
266.99	2.08
267.205	2
267.42	2.23
267.634	2.16
267.849	2.22
268.063	2.33
268.278	2.69
268.492	2.89
268.707	2.89
268.922	2.52
269.136	3.24
269.351	2.8
269.565	3.07
269.78	2.66
269.994	2.61
270.209	2.25
270.423	2.05
270.637	1.63
270.852	1.59
271.066	1.9
271.281	2.17
271.495	1.72
271.709	2.02
271.924	2.15
272.138	2.09
272.353	2.16
272.567	2.13
272.781	2.1
272.996	2.36
273.21	2.63
273.424	2.66
273.638	2.19
273.853	2.09
274.067	2.15
274.281	2.03
274.495	1.85
274.71	2.1
274.924	2.21
275.138	1.84
275.352	1.49
275.566	1.3
275.781	0.81
275.995	1.04
276.209	1.06
276.423	0.93
276.637	0.66
276.851	1.34
277.065	1.33
277.279	1.66
277.493	1.97
277.707	2.65
277.921	2.61
278.135	2.74
278.349	2.65
278.563	2.79
278.777	2.82
278.991	2.83
279.205	2.55
279.419	1.95
279.633	1.51
279.847	1.58
280.061	0.7
280.275	0.32
280.489	0.69
280.703	0.93
280.917	0.73
281.131	0.75
281.344	0.46
281.558	0.03
281.772	0.52
281.986	0.56
282.2	0.32
282.414	0.76
282.627	1.07
282.841	0.83
283.055	0.66
283.269	0.51
283.482	0.17
283.696	0.32
283.91	0.83
284.123	0.47
284.337	0.73
284.551	0.89
284.764	1.04
284.978	0.98
285.192	0.96
285.405	1.12
285.619	1.23
285.833	1.64
286.046	1.47
286.26	1.31
286.473	1.82
286.687	1.71
286.9	1.68
287.114	1.3
287.327	1.03
287.541	0.83
287.754	0.73
287.968	0.69
288.181	0.57
288.395	0.92
288.608	1.05
288.822	0.47
289.035	0.29
289.248	0.02
289.462	0.24
289.675	0.51
289.889	0.79
290.102	0.81
290.315	0.95
290.529	1.04
290.742	1.03
290.955	0.92
291.169	1.38
291.382	1.59
291.595	1.86
291.808	1.83
292.022	1.76
292.235	1.39
292.448	1.29
292.661	1.27
292.875	1.02
293.088	1.16
293.301	1.36
293.514	1.26
293.727	1.55
293.94	1.61
294.153	1.85
294.367	1.81
294.58	2.21
294.793	2.22
295.006	2.14
295.219	2.23
295.432	1.95
295.645	2.22
295.858	1.95
296.071	1.87
296.284	1.88
296.497	1.76
296.71	1.98
296.923	2.03
297.136	1.93
297.349	2.06
297.562	2.04
297.775	2.16
297.988	2
298.201	2.21
298.414	2.09
298.626	2.13
298.839	2.02
299.052	1.87
299.265	1.53
299.478	1.92
299.691	1.93
299.903	1.95
300.116	1.91
300.329	1.62
300.542	1.73
300.755	1.45
300.967	1.26
301.18	1.51
301.393	1.6
301.605	1.95
301.818	1.85
302.031	1.85
302.243	1.83
302.456	1.92
302.669	2.2
302.881	1.84
303.094	2.09
303.307	2.26
303.519	1.95
303.732	2
303.944	1.46
304.157	1.44
304.37	1.4
304.582	1.24
304.795	1.22
305.007	1.05
305.22	1.17
305.432	1.23
305.645	1.11
305.857	1.54
306.069	1.35
306.282	1.68
306.494	1.5
306.707	1.28
306.919	1.3
307.132	1.33
307.344	1.57
307.556	1.87
307.769	1.8
307.981	1.88
308.193	1.57
308.406	1.59
308.618	1.78
308.83	1.86
309.043	1.95
309.255	2.28
309.467	2.29
309.679	1.95
309.892	1.5
310.104	1.67
310.316	1.43
310.528	1.47
310.74	1.68
310.953	1.57
311.165	1.71
311.377	1.66
311.589	1.65
311.801	1.56
312.013	1.59
312.225	1.67
312.437	1.55
312.649	1.92
312.862	2.02
313.074	1.7
313.286	1.74
313.498	1.28
313.71	1.8
313.922	1.44
314.134	1.59
314.346	1.83
314.558	2.07
314.77	1.93
314.982	1.91
315.193	2.24
315.405	2.59
315.617	2.43
315.829	2.85
316.041	2.5
316.253	2.58
316.465	3.02
316.677	2.77
316.888	2.91
317.1	2.84
317.312	2.76
317.524	2.53
317.736	2.3
317.947	2.54
318.159	3.09
318.371	3.38
318.583	3.64
318.794	3.45
319.006	3.52
319.218	3.02
319.43	3.19
319.641	3.66
319.853	3.93
320.064	4.21
320.276	4.29
320.488	3.69
320.699	3.26
320.911	3.34
321.123	3.07
321.334	3.15
321.546	3.6
321.757	3.53
321.969	3.08
322.18	3.23
322.392	3.42
322.603	3.15
322.815	3.31
323.026	3.96
323.238	3.85
323.449	3.93
323.661	3.89
323.872	3.88
324.083	4.25
324.295	4.72
324.506	4.67
324.718	4.46
324.929	4.56
325.14	4.78
325.352	4.83
325.563	5.03
325.774	5.03
325.986	5.26
326.197	5.33
326.408	5.46
326.62	5.44
326.831	5.4
327.042	5.73
327.253	5.99
327.464	5.98
327.676	6.17
327.887	6.64
328.098	7.14
328.309	7.47
328.52	8.03
328.732	8.49
328.943	8.92
329.154	8.98
329.365	9.01
329.576	8.99
329.787	9.4
329.998	9.36
330.209	9.21
330.42	9.55
330.631	9.95
330.842	9.92
331.053	9.82
331.264	9.46
331.475	9.74
331.686	9.85
331.897	10.47
332.108	10.89
332.319	11.38
332.53	11.58
332.741	11.77
332.952	11.59
333.163	11.46
333.374	11.29
333.585	11.49
333.795	11.88
334.006	11.96
334.217	11.91
334.428	11.74
334.639	11.62
334.849	11.33
335.06	10.94
335.271	11.44
335.482	11.7
335.692	12.09
335.903	12.17
336.114	11.97
336.325	11.85
336.535	12.26
336.746	12.21
336.957	12
337.167	12.24
337.378	12.29
337.589	12.02
337.799	12.17
338.01	12.27
338.22	12.51
338.431	12.52
338.642	12.59
338.852	12.14
339.063	12.3
339.273	12.65
339.484	12.83
339.694	13.01
339.905	13.02
340.115	13.21
340.326	12.97
340.536	12.79
340.746	12.64
340.957	13.07
341.167	13.14
341.378	12.82
341.588	12.65
341.799	12.31
342.009	12
342.219	12.03
342.43	11.57
342.64	11.84
342.85	11.93
343.061	12.12
343.271	11.93
343.481	11.81
343.691	11.97
343.902	12.23
344.112	12.46
344.322	12.51
344.532	12.57
344.743	12.99
344.953	12.99
345.163	13
345.373	13.01
345.583	13.17
345.793	13.3
346.004	13.39
346.214	13.11
346.424	13.04
346.634	13.13
346.844	12.82
347.054	12.44
347.264	12.24
347.474	12.12
347.684	12.11
347.894	12.02
348.104	11.97
348.314	11.82
348.524	11.7
348.734	11.47
348.944	11.52
349.154	11.96
349.364	11.96
349.574	12
349.784	12.25
349.994	12.24
350.204	12.21
350.413	12.28
350.623	12.38
350.833	12.35
351.043	12.52
351.253	12.64
351.463	12.42
351.672	12.47
351.882	12.57
352.092	12.12
352.302	12.17
352.511	12.15
352.721	12.1
352.931	12.25
353.141	12.02
353.35	12.2
353.56	11.94
353.77	11.93
353.979	11.84
354.189	11.68
354.399	11.84
354.608	11.77
354.818	11.85
355.027	12.02
355.237	12.03
355.447	12.33
355.656	12.08
355.866	12.09
356.075	12.08
356.285	12.09
356.494	11.9
356.704	11.91
356.913	11.89
357.123	11.94
357.332	11.79
357.542	11.64
357.751	11.83
357.96	11.89
358.17	12.07
358.379	11.88
358.589	11.73
358.798	12.18
359.007	12.15
359.217	12.44
359.426	12.53
359.635	12.86
359.845	12.81
360.054	12.53
360.263	12.57
360.472	12.49
360.682	12.6
360.891	12.74
361.1	12.49
361.309	12.45
361.519	12.05
361.728	12.05
361.937	11.87
362.146	11.8
362.355	11.8
362.564	11.87
362.774	11.78
362.983	11.75
363.192	11.69
363.401	11.64
363.61	11.74
363.819	11.78
364.028	11.46
364.237	11.34
364.446	11.36
364.655	11.43
364.864	11.38
365.073	11.22
365.282	11.15
365.491	11
365.7	11.14
365.909	11.16
366.118	11.28
366.327	11.16
366.536	11.05
366.745	11.17
366.954	10.97
367.162	10.72
367.371	11.05
367.58	11.53
367.789	11.57
367.998	11.33
368.207	11.23
368.415	11.09
368.624	11.23
368.833	11.41
369.042	11.29
369.25	11.53
369.459	11.73
369.668	11.59
369.877	11.1
370.085	11.33
370.294	11.59
370.503	11.82
370.711	11.81
370.92	11.92
371.129	11.66
371.337	11.41
371.546	11.39
371.754	11.47
371.963	11.37
372.171	11.51
372.38	11.51
372.589	11.44
372.797	11.02
373.006	10.86
373.214	10.77
373.423	10.85
373.631	11.15
373.84	11.08
374.048	10.89
374.256	10.99
374.465	11.03
374.673	10.9
374.882	10.56
375.09	10.62
375.298	11.17
375.507	11.11
375.715	10.77
375.923	10.69
376.132	10.72
376.34	10.61
376.548	10.72
376.757	10.65
376.965	10.65
377.173	10.85
377.381	11.04
377.59	10.67
377.798	10.67
378.006	10.8
378.214	10.94
378.423	10.82
378.631	10.91
378.839	10.82
379.047	10.82
379.255	10.77
379.463	10.72
379.671	10.51
379.879	10.75
380.088	10.84
380.296	10.95
380.504	10.56
380.712	10.61
380.92	10.78
381.128	10.79
381.336	10.56
381.544	10.43
381.752	10.37
381.96	10.44
382.168	10.5
382.376	10.53
382.584	10.69
382.791	10.71
382.999	10.75
383.207	10.81
383.415	10.72
383.623	10.81
383.831	10.88
384.039	10.95
384.247	10.99
384.454	10.87
384.662	10.89
384.87	10.64
385.078	10.67
385.285	10.6
385.493	10.35
385.701	10.32
385.909	10.3
386.116	10.36
386.324	10.25
386.532	10.17
386.739	9.97
386.947	9.84
387.155	10.03
387.362	10.15
387.57	10.08
387.778	10.23
387.985	10.41
388.193	10.49
388.4	10.24
388.608	10.48
388.816	10.54
389.023	10.65
389.231	10.71
389.438	10.68
389.646	10.8
389.853	10.86
390.061	10.83
390.268	10.55
390.475	10.52
390.683	10.46
390.89	10.3
391.098	10.16
391.305	10.19
391.512	10.03
391.72	9.89
391.927	9.75
392.135	9.77
392.342	9.7
392.549	9.71
392.756	9.54
392.964	9.69
393.171	9.58
393.378	9.54
393.586	9.37
393.793	9.38
394	9.47
394.207	9.5
394.414	9.33
394.622	9.24
394.829	9.33
395.036	9.45
395.243	9.46
395.45	9.51
395.657	9.6
395.864	9.55
396.072	9.54
396.279	9.71
396.486	9.43
396.693	9.58
396.9	9.79
397.107	9.72
397.314	9.71
397.521	9.75
397.728	9.87
397.935	9.97
398.142	10.2
398.349	10.17
398.556	9.96
398.763	10.09
398.97	9.95
399.177	9.7
399.383	9.63
399.59	9.76
399.797	9.7
400.004	9.57
400.211	9.36
400.418	9.26
400.625	9.32
400.831	9.23
401.038	9.32
401.245	9.47
401.452	9.62
401.658	9.68
401.865	9.58
402.072	9.7
402.279	9.68
402.485	9.84
402.692	9.67
402.899	9.63
403.105	9.8
403.312	9.69
403.519	9.62
403.725	9.64
403.932	9.66
404.138	9.68
404.345	9.57
404.552	9.63
404.758	9.57
404.965	9.61
405.171	9.61
405.378	9.38
405.584	9.47
405.791	9.47
405.997	9.41
406.204	9.49
406.41	9.52
406.617	9.67
406.823	9.77
407.029	9.73
407.236	9.69
407.442	9.74
407.649	9.85
407.855	9.78
408.061	9.72
408.268	9.7
408.474	9.74
408.68	9.6
408.887	9.49
409.093	9.41
409.299	9.35
409.505	9.46
409.712	9.51
409.918	9.44
410.124	9.48
410.33	9.66
410.537	9.65
410.743	9.45
410.949	9.47
411.155	9.48
411.361	9.46
411.567	9.52
411.773	9.53
411.98	9.47
412.186	9.42
412.392	9.56
412.598	9.3
412.804	9.39
413.01	9.35
413.216	9.49
413.422	9.36
413.628	9.36
413.834	9.32
414.04	9.48
414.246	9.45
414.452	9.61
414.658	9.51
414.864	9.6
415.07	9.62
415.275	9.6
415.481	9.42
415.687	9.57
415.893	9.48
416.099	9.37
416.305	9.2
416.511	9.11
416.716	9.1
416.922	9.12
417.128	9.11
417.334	9.01
417.539	8.99
417.745	9.02
417.951	8.83
418.157	8.87
418.362	8.88
418.568	8.91
418.774	8.93
418.979	8.87
419.185	8.86
419.391	8.76
419.596	8.77
419.802	8.8
420.008	8.77
420.213	8.89
420.419	8.83
420.624	8.74
420.83	8.75
421.035	8.76
421.241	8.78
421.446	8.72
421.652	8.75
421.857	8.8
422.063	8.76
422.268	8.84
422.474	8.88
422.679	8.91
422.885	9.03
423.09	8.96
423.295	8.95
423.501	8.96
423.706	8.98
423.911	9.01
424.117	8.96
424.322	8.96
424.527	8.87
424.733	8.82
424.938	8.8
425.143	8.83
425.349	8.85
425.554	8.93
425.759	8.87
425.964	8.82
426.169	8.89
426.375	8.89
426.58	8.98
426.785	8.99
426.99	8.93
427.195	9.02
427.4	8.98
427.605	9.05
427.811	9.02
428.016	9.1
428.221	9.21
428.426	9.13
428.631	9.17
428.836	9.13
429.041	9.2
429.246	9.13
429.451	9.02
429.656	9.01
429.861	8.99
430.066	8.94
430.271	8.88
430.476	8.83
430.681	8.87
430.886	8.77
431.09	8.84
431.295	8.98
431.5	9.15
431.705	9.26
431.91	9.25
432.115	9.2
432.32	9.27
432.524	9.24
432.729	9.33
432.934	9.3
433.139	9.32
433.343	9.34
433.548	9.26
433.753	9.27
433.958	9.19
434.162	9.24
434.367	9.26
434.572	9.22
434.776	9.27
434.981	9.28
435.186	9.38
435.39	9.49
435.595	9.43
435.799	9.47
436.004	9.47
436.209	9.53
436.413	9.59
436.618	9.58
436.822	9.56
437.027	9.6
437.231	9.43
437.436	9.35
437.64	9.25
437.845	9.22
438.049	9.14
438.253	9.02
438.458	9.01
438.662	8.86
438.867	8.89
439.071	8.86
439.275	8.82
439.48	8.86
439.684	8.83
439.888	8.83
440.093	8.8
440.297	8.8
440.501	8.85
440.706	8.86
440.91	8.9
441.114	8.92
441.318	8.97
441.523	8.95
441.727	9.01
441.931	9.01
442.135	9.01
442.339	9.07
442.543	9.09
442.748	9.12
442.952	9.06
443.156	9.14
443.36	9.18
443.564	9.12
443.768	9.1
443.972	8.95
444.176	8.99
444.38	9
444.584	9.07
444.788	9.04
444.992	8.97
445.196	8.98
445.4	8.97
445.604	8.92
445.808	8.91
446.012	8.86
446.216	8.98
446.42	8.96
446.624	8.86
446.828	8.79
447.032	8.76
447.235	8.77
447.439	8.71
447.643	8.7
447.847	8.71
448.051	8.74
448.254	8.88
448.458	8.86
448.662	8.84
448.866	8.98
449.069	8.99
449.273	9.03
449.477	9.08
449.681	9.17
449.884	9.14
450.088	9.16
450.292	9.18
450.495	9.2
450.699	9.21
450.902	9.31
451.106	9.24
451.31	9.32
451.513	9.41
451.717	9.4
451.92	9.36
452.124	9.37
452.327	9.35
452.531	9.37
452.734	9.29
452.938	9.29
453.141	9.14
453.345	9.13
453.548	9.08
453.752	8.94
453.955	8.95
454.158	8.93
454.362	8.96
454.565	9.04
454.769	8.94
454.972	9.01
455.175	9.1
455.379	9.27
455.582	9.41
455.785	9.37
455.988	9.37
456.192	9.37
456.395	9.48
456.598	9.58
456.801	9.49
457.005	9.53
457.208	9.43
457.411	9.35
457.614	9.25
457.817	9.04
458.021	8.99
458.224	9.07
458.427	9.08
458.63	8.96
458.833	8.85
459.036	8.76
459.239	8.79
459.442	8.75
459.645	8.69
459.848	8.63
460.051	8.75
460.254	8.76
460.457	8.69
460.66	8.64
460.863	8.69
461.066	8.7
461.269	8.81
461.472	8.82
461.675	8.95
461.878	8.94
462.081	9.05
462.284	9.05
462.486	9.11
462.689	9.21
462.892	9.29
463.095	9.33
463.298	9.31
463.5	9.26
463.703	9.29
463.906	9.28
464.109	9.38
464.311	9.36
464.514	9.34
464.717	9.34
464.92	9.37
465.122	9.35
465.325	9.36
465.528	9.38
465.73	9.38
465.933	9.45
466.135	9.36
466.338	9.36
466.541	9.44
466.743	9.33
466.946	9.36
467.148	9.3
467.351	9.33
467.553	9.46
467.756	9.48
467.958	9.43
468.161	9.4
468.363	9.45
468.566	9.43
468.768	9.39
468.971	9.49
469.173	9.44
469.375	9.56
469.578	9.57
469.78	9.5
469.983	9.46
470.185	9.52
470.387	9.47
470.59	9.5
470.792	9.65
470.994	9.62
471.196	9.69
471.399	9.79
471.601	9.73
471.803	9.74
472.005	9.74
472.208	9.86
472.41	9.94
472.612	9.99
472.814	9.96
473.016	9.78
473.218	9.84
473.421	9.71
473.623	9.67
473.825	9.53
474.027	9.59
474.229	9.65
474.431	9.53
474.633	9.52
474.835	9.46
475.037	9.54
475.239	9.63
475.441	9.67
475.643	9.78
475.845	9.71
476.047	9.73
476.249	9.65
476.451	9.55
476.653	9.64
476.855	9.52
477.057	9.62
477.258	9.63
477.46	9.54
477.662	9.53
477.864	9.47
478.066	9.49
478.268	9.61
478.469	9.65
478.671	9.61
478.873	9.62
479.075	9.56
479.276	9.56
479.478	9.46
479.68	9.57
479.882	9.51
480.083	9.58
480.285	9.6
480.487	9.58
480.688	9.54
480.89	9.68
481.091	9.61
481.293	9.67
481.495	9.5
481.696	9.46
481.898	9.33
482.099	9.27
482.301	9.18
482.502	9.14
482.704	9.03
482.905	9
483.107	8.92
483.308	8.89
483.51	8.86
483.711	8.88
483.913	8.87
484.114	8.87
484.315	8.88
484.517	8.89
484.718	8.9
484.92	8.95
485.121	8.94
485.322	8.97
485.524	9.02
485.725	9
485.926	9.01
486.127	9
486.329	9.02
486.53	9.02
486.731	9.03
486.932	9
487.134	9
487.335	9.04
487.536	9.01
487.737	8.98
487.938	9.01
488.139	9.04
488.341	9.09
488.542	9.1
488.743	9.1
488.944	9.12
489.145	9.19
489.346	9.21
489.547	9.23
489.748	9.27
489.949	9.3
490.15	9.3
490.351	9.24
490.552	9.23
490.753	9.24
490.954	9.23
491.155	9.22
491.356	9.17
491.557	9.2
491.758	9.17
491.959	9.18
492.159	9.22
492.36	9.27
492.561	9.36
492.762	9.42
492.963	9.51
493.164	9.61
493.364	9.68
493.565	9.76
493.766	9.76
493.967	9.83
494.167	9.8
494.368	9.81
494.569	9.89
494.769	9.92
494.97	9.94
495.171	9.88
495.371	9.87
495.572	9.91
495.773	9.92
495.973	9.92
496.174	9.91
496.375	9.95
496.575	9.98
496.776	9.98
496.976	9.99
497.177	9.93
497.377	9.94
497.578	10.01
497.778	10.13
497.979	10.09
498.179	10.12
498.38	10.15
498.58	10.21
498.78	10.2
498.981	10.25
499.181	10.17
499.382	10.26
499.582	10.23
499.782	10.19
499.983	10.03
500.183	10.12
500.383	10.06
500.584	10.09
500.784	10.05
500.984	10.1
501.184	10.14
501.385	10.24
501.585	10.26
501.785	10.36
501.985	10.38
502.185	10.5
502.386	10.61
502.586	10.68
502.786	10.63
502.986	10.71
503.186	10.72
503.386	10.66
503.586	10.64
503.786	10.69
503.987	10.72
504.187	10.7
504.387	10.67
504.587	10.65
504.787	10.77
504.987	10.85
505.187	10.94
505.387	10.95
505.587	11.06
505.786	11.15
505.986	11.11
506.186	11.06
506.386	11.12
506.586	11.21
506.786	11.28
506.986	11.31
507.186	11.3
507.386	11.27
507.585	11.22
507.785	11.16
507.985	11.12
508.185	11.2
508.384	11.19
508.584	11.13
508.784	11.03
508.984	10.97
509.183	10.9
509.383	11.05
509.583	11.08
509.782	11.13
509.982	11.15
510.182	11.22
510.381	11.25
510.581	11.33
510.781	11.43
510.98	11.49
511.18	11.52
511.379	11.61
511.579	11.55
511.778	11.56
511.978	11.58
512.177	11.62
512.377	11.71
512.576	11.71
512.776	11.75
512.975	11.81
513.175	11.93
513.374	11.93
513.573	11.96
513.773	12.06
513.972	12.09
514.172	12.2
514.371	12.38
514.57	12.28
514.77	12.32
514.969	12.41
515.168	12.47
515.367	12.49
515.567	12.6
515.766	12.54
515.965	12.5
516.164	12.51
516.364	12.44
516.563	12.33
516.762	12.41
516.961	12.45
517.16	12.39
517.359	12.4
517.559	12.41
517.758	12.43
517.957	12.49
518.156	12.51
518.355	12.51
518.554	12.61
518.753	12.7
518.952	12.78
519.151	12.82
519.35	12.92
519.549	12.98
519.748	13.01
519.947	13.03
520.146	13.16
520.345	13.27
520.544	13.36
520.743	13.39
520.942	13.45
521.141	13.52
521.339	13.57
521.538	13.62
521.737	13.7
521.936	13.72
522.135	13.85
522.333	13.96
522.532	13.88
522.731	13.94
522.93	13.98
523.129	13.97
523.327	13.93
523.526	13.88
523.725	13.88
523.923	13.9
524.122	13.92
524.321	13.91
524.519	13.83
524.718	13.95
524.917	13.97
525.115	14
525.314	14.08
525.512	14.07
525.711	14.17
525.909	14.2
526.108	14.2
526.306	14.26
526.505	14.25
526.703	14.27
526.902	14.23
527.1	14.21
527.299	14.23
527.497	14.18
527.696	14.19
527.894	14.14
528.092	14.15
528.291	14.14
528.489	14.14
528.688	14.15
528.886	14.2
529.084	14.27
529.283	14.33
529.481	14.38
529.679	14.46
529.877	14.55
530.076	14.65
530.274	14.75
530.472	14.85
530.67	14.95
530.869	15.09
531.067	15.14
531.265	15.23
531.463	15.28
531.661	15.37
531.859	15.4
532.057	15.39
532.255	15.44
532.454	15.41
532.652	15.39
532.85	15.41
533.048	15.44
533.246	15.42
533.444	15.47
533.642	15.54
533.84	15.54
534.038	15.61
534.236	15.71
534.434	15.76
534.632	15.89
534.83	15.94
535.027	16.02
535.225	16.09
535.423	16.25
535.621	16.26
535.819	16.31
536.017	16.35
536.215	16.36
536.412	16.44
536.61	16.51
536.808	16.6
537.006	16.8
537.203	16.83
537.401	16.9
537.599	16.96
537.797	17.1
537.994	17.21
538.192	17.44
538.39	17.62
538.587	17.71
538.785	17.84
538.983	17.96
539.18	17.96
539.378	18.06
539.575	18.1
539.773	18.14
539.97	18.18
540.168	18.2
540.366	18.17
540.563	18.16
540.761	18.2
540.958	18.27
541.155	18.24
541.353	18.32
541.55	18.36
541.748	18.45
541.945	18.53
542.143	18.63
542.34	18.73
542.537	18.83
542.735	18.98
542.932	19.09
543.129	19.16
543.327	19.36
543.524	19.51
543.721	19.82
543.919	20.1
544.116	20.4
544.313	20.72
544.51	21.01
544.708	21.35
544.905	21.6
545.102	21.94
545.299	22.2
545.496	22.47
545.693	22.64
545.891	22.66
546.088	22.61
546.285	22.56
546.482	22.53
546.679	22.46
546.876	22.33
547.073	22.29
547.27	22.11
547.467	22.07
547.664	21.95
547.861	21.85
548.058	21.86
548.255	21.89
548.452	21.88
548.649	21.79
548.846	21.77
549.043	21.76
549.24	21.69
549.437	21.72
549.633	21.67
549.83	21.58
550.027	21.64
550.224	21.65
550.421	21.63
550.618	21.55
550.814	21.56
551.011	21.57
551.208	21.55
551.405	21.46
551.601	21.45
551.798	21.37
551.995	21.38
552.191	21.4
552.388	21.25
552.585	21.23
552.781	21.2
552.978	21.14
553.175	21.14
553.371	21.09
553.568	21.21
553.764	21.23
553.961	21.38
554.157	21.39
554.354	21.33
554.55	21.37
554.747	21.39
554.943	21.51
555.14	21.48
555.336	21.54
555.533	21.67
555.729	21.83
555.926	21.86
556.122	21.87
556.318	22
556.515	22.06
556.711	22.06
556.907	21.98
557.104	21.88
557.3	22.04
557.496	21.95
557.693	21.95
557.889	21.87
558.085	21.85
558.281	21.71
558.478	21.7
558.674	21.68
558.87	21.78
559.066	21.98
559.262	22.05
559.459	22.06
559.655	22.08
559.851	22.13
560.047	22.18
560.243	22.24
560.439	22.29
560.635	22.27
560.831	22.37
561.027	22.36
561.223	22.31
561.419	22.36
561.615	22.42
561.811	22.53
562.007	22.42
562.203	22.54
562.399	22.63
562.595	22.81
562.791	22.9
562.987	22.94
563.183	23.03
563.379	23.16
563.575	23.2
563.771	23.12
563.966	23.14
564.162	23.29
564.358	23.12
564.554	23.03
564.75	22.89
564.945	22.91
565.141	22.73
565.337	22.66
565.533	22.62
565.728	22.64
565.924	22.66
566.12	22.57
566.315	22.62
566.511	22.72
566.707	22.75
566.902	22.9
567.098	22.87
567.293	23.07
567.489	23.17
567.684	23.14
567.88	23.2
568.076	23.21
568.271	23.31
568.467	23.2
568.662	23.26
568.858	23.25
569.053	23.15
569.248	23.22
569.444	23.2
569.639	23.13
569.835	23.1
570.03	23.15
570.225	23.16
570.421	23.15
570.616	23.19
570.812	23.16
571.007	23.24
571.202	23.35
571.397	23.3
571.593	23.26
571.788	23.38
571.983	23.44
572.178	23.45
572.374	23.58
572.569	23.62
572.764	23.7
572.959	23.77
573.154	23.79
573.35	23.87
573.545	23.93
573.74	24.01
573.935	23.97
574.13	23.99
574.325	23.97
574.52	24.02
574.715	24.1
574.91	24.14
575.105	24.15
575.3	24.26
575.495	24.34
575.69	24.52
575.885	24.7
576.08	24.92
576.275	25.23
576.47	25.49
576.665	25.67
576.86	25.86
577.055	26
577.25	26.23
577.444	26.55
577.639	26.73
577.834	26.79
578.029	26.99
578.224	27.19
578.418	27.2
578.613	27.34
578.808	27.3
579.003	27.48
579.197	27.62
579.392	27.65
579.587	27.65
579.781	27.74
579.976	27.76
580.171	27.8
580.365	27.79
580.56	27.94
580.755	27.8
580.949	27.92
581.144	27.97
581.338	28.16
581.533	28.32
581.727	28.34
581.922	28.37
582.116	28.55
582.311	28.63
582.505	28.78
582.7	28.76
582.894	28.93
583.089	28.97
583.283	28.99
583.478	28.96
583.672	28.94
583.866	28.86
584.061	28.93
584.255	29
584.449	28.94
584.644	28.94
584.838	29.07
585.032	29.26
585.226	29.55
585.421	29.64
585.615	29.71
585.809	29.79
586.003	30.09
586.198	30.1
586.392	30.23
586.586	30.31
586.78	30.27
586.974	30.15
587.168	30
587.363	29.8
587.557	29.67
587.751	29.51
587.945	29.42
588.139	29.18
588.333	29.13
588.527	28.88
588.721	28.68
588.915	28.58
589.109	28.42
589.303	28.32
589.497	28.25
589.691	28.24
589.885	28.18
590.079	28.25
590.273	28.14
590.466	28.14
590.66	28.27
590.854	28.38
591.048	28.48
591.242	28.82
591.436	29
591.629	29.05
591.823	29.08
592.017	29.34
592.211	29.43
592.404	29.66
592.598	29.64
592.792	29.69
592.986	29.8
593.179	29.76
593.373	29.64
593.567	29.69
593.76	29.64
593.954	29.6
594.147	29.54
594.341	29.35
594.535	29.32
594.728	29.27
594.922	29.12
595.115	28.82
595.309	28.65
595.502	28.41
595.696	28.09
595.889	28.03
596.083	28.04
596.276	27.84
596.47	27.93
596.663	27.78
596.856	27.67
597.05	27.65
597.243	27.87
597.437	28.08
597.63	28.27
597.823	28.61
598.017	28.79
598.21	28.95
598.403	29.15
598.596	29.12
598.79	29.38
598.983	29.78
599.176	29.95
599.369	30.06
599.563	30.21
599.756	30.32
599.949	30.18
600.142	30.17
600.335	30.1
600.528	30.33
600.722	30.47
600.915	30.32
601.108	30.15
601.301	30.07
601.494	29.89
601.687	29.79
601.88	29.76
602.073	29.72
602.266	29.77
602.459	29.65
602.652	29.2
602.845	29.01
603.038	28.96
603.231	28.89
603.424	28.84
603.617	28.89
603.809	28.81
604.002	28.72
604.195	28.6
604.388	28.49
604.581	28.42
604.774	28.65
604.966	28.64
605.159	28.68
605.352	28.78
605.545	28.93
605.737	29.04
605.93	29.21
606.123	29.41
606.316	29.78
606.508	29.98
606.701	30.29
606.894	30.57
607.086	30.96
607.279	31.29
607.471	31.61
607.664	31.96
607.857	32.27
608.049	32.77
608.242	33.46
608.434	34.25
608.627	35.34
608.819	36.64
609.012	38.06
609.204	39.72
609.397	41.6
609.589	43.53
609.782	45.68
609.974	47.86
610.166	49.94
610.359	52.23
610.551	54.1
610.743	55.96
610.936	57.49
611.128	58.62
611.32	59.38
611.513	59.84
611.705	60.04
611.897	59.78
612.09	59.23
612.282	58.71
612.474	57.67
612.666	56.69
612.858	55.61
613.051	54.51
613.243	53.41
613.435	52.49
613.627	51.4
613.819	50.46
614.011	49.55
614.203	48.86
614.395	48.05
614.588	46.99
614.78	46.14
614.972	45.11
615.164	44.1
615.356	43.28
615.548	42.37
615.74	41.67
615.932	40.9
616.124	40.27
616.315	39.47
616.507	38.64
616.699	38.03
616.891	37.58
617.083	37.06
617.275	36.75
617.467	36.5
617.659	36.32
617.85	35.96
618.042	35.78
618.234	35.54
618.426	35.63
618.618	35.69
618.809	35.79
619.001	35.76
619.193	35.78
619.384	35.86
619.576	35.57
619.768	35.48
619.959	35.47
620.151	35.32
620.343	35.29
620.534	34.92
620.726	34.93
620.917	35
621.109	35.08
621.301	35.24
621.492	35.12
621.684	35.27
621.875	35.28
622.067	35.37
622.258	35.57
622.45	35.65
622.641	35.78
622.832	35.92
623.024	35.72
623.215	35.78
623.407	35.63
623.598	35.64
623.789	35.65
623.981	35.68
624.172	35.64
624.363	35.63
624.555	35.54
624.746	35.58
624.937	35.31
625.129	35.15
625.32	35.04
625.511	35.02
625.702	34.98
625.893	34.9
626.085	34.76
626.276	34.67
626.467	34.48
626.658	34.37
626.849	34.28
627.04	34.15
627.231	34.3
627.422	34.28
627.614	34.42
627.805	34.72
627.996	34.86
628.187	35.08
628.378	35.41
628.569	35.84
628.76	36.15
628.951	36.39
629.142	36.88
629.332	37.27
629.523	37.57
629.714	37.91
629.905	37.98
630.096	38.39
630.287	38.54
630.478	38.54
630.669	38.61
630.859	38.59
631.05	38.67
631.241	38.65
631.432	38.42
631.623	38.1
631.813	37.72
632.004	37.39
632.195	36.99
632.385	36.68
632.576	36.45
632.767	35.74
632.957	35.26
633.148	34.9
633.339	34.46
633.529	34.21
633.72	34.28
633.91	33.95
634.101	33.74
634.292	33.34
634.482	33.18
634.673	33.03
634.863	33.18
635.054	33.47
635.244	33.31
635.435	33.2
635.625	33.27
635.815	32.97
636.006	33.27
636.196	33.31
636.387	33.54
636.577	33.57
636.767	33.39
636.958	33.55
637.148	33.39
637.338	33.64
637.529	33.7
637.719	33.64
637.909	33.74
638.099	33.65
638.29	33.78
638.48	33.69
638.67	33.92
638.86	34.12
639.05	34.11
639.241	34.22
639.431	34.44
639.621	34.55
639.811	34.63
640.001	34.76
640.191	34.66
640.381	34.71
640.571	34.8
640.761	34.57
640.951	34.57
641.141	34.66
641.331	34.81
641.521	34.64
641.711	34.91
641.901	34.8
642.091	34.79
642.281	34.86
642.471	34.8
642.661	34.65
642.851	34.76
643.041	34.91
643.231	34.69
643.42	34.7
643.61	34.55
643.8	34.5
643.99	34.72
644.18	34.73
644.369	34.85
644.559	34.73
644.749	34.94
644.939	34.94
645.128	34.73
645.318	34.96
645.508	34.83
645.697	35.18
645.887	34.96
646.076	34.86
646.266	34.77
646.456	34.64
646.645	34.77
646.835	34.74
647.024	34.51
647.214	34.72
647.403	34.66
647.593	34.76
647.782	34.46
647.972	34.65
648.161	34.79
648.351	35.02
648.54	35.28
648.73	35.32
648.919	35.58
649.108	35.87
649.298	35.95
649.487	36.16
649.677	36.11
649.866	36.22
650.055	36.1
650.244	36.12
650.434	36.04
650.623	36.02
650.812	35.98
651.002	35.67
651.191	35.89
651.38	35.86
651.569	35.81
651.758	35.81
651.947	36.03
652.137	35.98
652.326	36.04
652.515	36.05
652.704	36.05
652.893	36.28
653.082	36.46
653.271	36.21
653.46	36.01
653.649	35.9
653.838	36.05
654.027	36.07
654.216	35.87
654.405	35.63
654.594	35.5
654.783	35.41
654.972	35.03
655.161	35.03
655.35	34.93
655.539	35.15
655.728	34.8
655.916	34.74
656.105	34.31
656.294	34.54
656.483	34.58
656.672	34.53
656.86	34.43
657.049	34.47
657.238	34.38
657.427	34.27
657.615	34.13
657.804	34.39
657.993	34.06
658.181	33.95
658.37	33.82
658.559	33.73
658.747	33.7
658.936	33.74
659.125	33.9
659.313	33.91
659.502	33.95
659.69	34.05
659.879	33.99
660.067	34.31
660.256	34.69
660.444	34.72
660.633	34.96
660.821	35.08
661.01	35.11
661.198	35.05
661.387	35.25
661.575	35.41
661.763	35.42
661.952	35.78
662.14	35.96
662.328	36.04
662.517	36.49
662.705	36.35
662.893	36.53
663.082	36.67
663.27	36.84
663.458	37.07
663.646	37.39
663.834	37.35
664.023	37.29
664.211	37.21
664.399	37.15
664.587	36.82
664.775	37.15
664.963	37.09
665.152	37.11
665.34	37.13
665.528	36.96
665.716	37.07
665.904	37.38
666.092	37.27
666.28	37.21
666.468	37.13
666.656	37.52
666.844	37.47
667.032	37.5
667.22	37.34
667.408	37.43
667.596	37.33
667.784	37.01
667.971	36.79
668.159	36.75
668.347	36.82
668.535	36.87
668.723	36.54
668.911	36.54
669.098	36.49
669.286	36.46
669.474	36.26
669.662	36.23
669.849	36.37
670.037	36.52
670.225	36.59
670.413	36.52
670.6	36.74
670.788	36.75
670.976	36.55
671.163	36.82
671.351	37
671.538	37.17
671.726	37.11
671.913	37.19
672.101	37.22
672.289	37.14
672.476	37.01
672.664	36.75
672.851	36.85
673.039	37.14
673.226	36.97
673.413	37.1
673.601	36.92
673.788	37.1
673.976	36.94
674.163	36.96
674.35	37.25
674.538	37.51
674.725	37.61
674.912	37.88
675.1	37.53
675.287	37.63
675.474	37.7
675.662	37.82
675.849	37.79
676.036	38.09
676.223	38.13
676.411	38.08
676.598	37.9
676.785	37.84
676.972	37.59
677.159	37.8
677.346	37.97
677.533	37.88
677.721	37.75
677.908	37.69
678.095	37.33
678.282	37
678.469	36.35
678.656	36.39
678.843	36.48
679.03	36.73
679.217	36.5
679.404	36.13
679.591	36.03
679.778	36.04
679.964	35.88
680.151	35.99
680.338	35.89
680.525	36.16
680.712	36.25
680.899	36.29
681.086	36.05
681.272	36.15
681.459	36.4
681.646	36.28
681.833	36.44
682.02	36.55
682.206	36.37
682.393	36.64
682.58	36.94
682.766	36.76
682.953	36.76
683.14	36.87
683.326	37.1
683.513	37.24
683.7	37.45
683.886	37.38
684.073	37.8
684.259	38
684.446	38.07
684.632	38.28
684.819	38.59
685.005	38.53
685.192	38.58
685.378	38.68
685.565	39.07
685.751	39.17
685.938	39.27
686.124	39.19
686.31	39.05
686.497	39
686.683	38.87
686.87	38.86
687.056	39.03
687.242	38.92
687.429	38.76
687.615	37.95
687.801	37.96
687.987	38.01
688.174	38.06
688.36	38.18
688.546	38.04
688.732	38.08
688.918	37.77
689.105	37.73
689.291	37.87
689.477	37.9
689.663	38.29
689.849	38.29
690.035	38.15
690.221	38.26
690.407	38.28
690.593	38.77
690.779	38.8
690.965	38.91
691.151	38.96
691.337	39
691.523	39.06
691.709	39.2
691.895	39.14
692.081	39.47
692.267	39.35
692.453	39.76
692.639	39.54
692.825	39.57
693.011	39.64
693.196	39.88
693.382	39.98
693.568	40.24
693.754	40.3
693.94	40.58
694.125	40.54
694.311	40.19
694.497	39.76
694.682	39.38
694.868	39.13
695.054	39.56
695.239	39.28
695.425	39.21
695.611	39
695.796	38.51
695.982	38.06
696.168	37.71
696.353	37.89
696.539	37.67
696.724	37.97
696.91	37.63
697.095	37.02
697.281	36.76
697.466	36.82
697.652	36.25
697.837	36.12
698.023	35.91
698.208	35.57
698.393	35.19
698.579	35.12
698.764	35.05
698.949	35
699.135	35.13
699.32	35.13
699.505	34.75
699.691	35.09
699.876	35.16
700.061	35.38
700.246	35.57
700.432	35.88
700.617	36.11
700.802	36.26
700.987	36.86
701.172	37.04
701.358	37.37
701.543	37.64
701.728	38.02
701.913	38.61
702.098	39.01
702.283	39.76
702.468	39.98
702.653	40.41
702.838	40.75
703.023	40.91
703.208	41.28
703.393	41.57
703.578	42.12
703.763	42.43
703.948	43.14
704.133	43.69
704.318	43.99
704.503	44.84
704.688	45.05
704.873	45.19
705.057	45.82
705.242	46.49
705.427	47.13
705.612	47.45
705.797	47.85
705.981	47.57
706.166	47.65
706.351	47.93
706.536	48.23
706.72	48.75
706.905	49.26
707.09	49.23
707.274	49.3
707.459	49.26
707.644	49.51
707.828	49.75
708.013	50.05
708.197	50.24
708.382	50.06
708.567	49.6
708.751	49.41
708.936	49.3
709.12	49.4
709.305	49.16
709.489	48.72
709.673	48.27
709.858	47.66
710.042	47.16
710.227	46.87
710.411	46.78
710.596	46.51
710.78	46.76
710.964	46.49
711.149	46.54
711.333	46.27
711.517	46.33
711.702	46.83
711.886	46.94
712.07	47.04
712.254	47.08
712.438	47.21
712.623	46.94
712.807	45.99
712.991	45.44
713.175	44.74
713.359	44.3
713.544	44.39
713.728	43.39
713.912	42.97
714.096	42.7
714.28	41.97
714.464	41.33
714.648	41.01
714.832	40.79
715.016	40.4
715.2	39.75
715.384	39.54
715.568	38.72
715.752	38.61
715.936	38.23
716.12	37.53
716.304	37.6
716.488	37.39
716.671	37.35
716.855	37.53
717.039	37.87
717.223	38.09
717.407	38.03
717.59	38.1
717.774	38.51
717.958	38.39
718.142	38.45
718.325	38.36
718.509	38.55
718.693	38.67
718.877	38.36
719.06	38.36
719.244	38.57
719.428	39.11
719.611	39.61
719.795	39.43
719.978	38.89
720.162	39.19
720.345	39.31
720.529	39.48
720.713	40.01
720.896	40.83
721.08	40.82
721.263	41.33
721.446	40.97
721.63	40.5
721.813	40.86
721.997	41.75
722.18	41.58
722.364	42.04
722.547	41.51
722.73	41.08
722.914	40.51
723.097	40.69
723.28	39.82
723.464	39.45
723.647	39.58
723.83	39.03
724.013	39.02
724.197	39.25
724.38	38.94
724.563	39.67
724.746	39.95
724.929	39.71
725.112	39.49
725.296	39.56
725.479	39.66
725.662	39.51
725.845	39.4
726.028	39.42
726.211	39.62
726.394	38.85
726.577	38.62
726.76	38.59
726.943	38.82
727.126	38.74
727.309	39.35
727.492	39.33
727.675	39.59
727.858	39.58
728.041	39.16
728.224	38.86
728.407	39.3
728.589	39.6
728.772	39.52
728.955	39.66
729.138	39.41
729.321	38.87
729.503	39.62
729.686	39.2
729.869	39.58
730.052	40.11
730.234	40.13
730.417	40.37
730.6	40.04
730.782	39.68
730.965	39.08
731.148	39.57
731.33	39.2
731.513	38.64
731.695	38.99
731.878	38.89
732.061	39
732.243	39.57
732.426	39.49
732.608	39.37
732.791	40.02
732.973	40.62
733.156	40.42
733.338	40.86
733.52	40.92
733.703	40.98
733.885	41.28
734.068	41.11
734.25	41.01
734.432	41.45
734.615	41.78
734.797	41.84
734.979	42.06
735.162	42.28
735.344	42.62
735.526	42.95
735.708	42.95
735.891	43.44
736.073	43.2
736.255	43.05
736.437	42.95
736.619	42.76
736.802	42.85
736.984	42.78
737.166	43.27
737.348	43.63
737.53	43.29
737.712	43.62
737.894	42.93
738.076	43.33
738.258	43.58
738.44	43.29
738.622	43.07
738.804	42.89
738.986	42.75
739.168	42.61
739.35	42.15
739.532	42.62
739.714	42.55
739.896	42.63
740.078	42.92
740.259	42.76
740.441	43.27
740.623	43.97
740.805	43.45
740.987	43.77
741.168	43.54
741.35	43.82
741.532	43.44
741.714	44.48
741.895	44.73
742.077	45.04
742.259	45.27
742.44	45.42
742.622	45.58
742.804	46.25
742.985	46.6
743.167	46.85
743.348	46.62
743.53	47.02
743.711	46.65
743.893	47.41
744.075	47.26
744.256	47.39
744.438	46.96
744.619	46.76
744.8	47.2
744.982	46.69
745.163	46.87
745.345	47.95
745.526	48.05
745.707	47.66
745.889	46.62
746.07	46.54
746.252	46.13
746.433	45.94
746.614	46.18
746.795	46.42
746.977	47.15
747.158	46.67
747.339	46.33
747.52	46.47
747.702	46.61
747.883	47.18
748.064	47.17
748.245	47.31
748.426	47.82
748.607	47.44
748.788	46.82
748.97	46.23
749.151	46.43
749.332	46.24
749.513	46.13
749.694	46.11
749.875	45.61
750.056	44.98
750.237	45.45
750.418	45.52
750.599	45.61
750.78	45.28
750.96	45.24
751.141	45.5
751.322	45.41
751.503	45.76
751.684	45.18
751.865	45.84
752.046	45.79
752.226	45.77
752.407	45.12
752.588	45.08
752.769	44.99
752.949	45.05
753.13	45.51
753.311	45.49
753.492	45.54
753.672	46.25
753.853	45.36
754.034	46.18
754.214	45.84
754.395	46.59
754.575	46.11
754.756	46.71
754.937	46.86
755.117	46.5
755.298	46.72
755.478	46.53
755.659	45.56
755.839	46.29
756.02	46.34
756.2	46.84
756.381	46.37
756.561	46.97
756.741	47.38
756.922	46.88
757.102	45.99
757.283	45.77
757.463	45.28
757.643	46.01
757.823	44.96
758.004	44.11
758.184	42.77
758.364	41.88
758.545	41.32
758.725	39.97
758.905	39.57
759.085	38.88
759.265	37.85
759.446	36.71
759.626	35.57
759.806	35.22
759.986	34.99
760.166	34.77
760.346	34.51
760.526	34.18
760.706	34.21
760.886	34.3
761.066	34.82
761.246	34.77
761.426	35.34
761.606	34.99
761.786	34.73
761.966	34.85
762.146	34.52
762.326	34.57
762.506	34.36
762.686	34.17
762.866	33.75
763.046	33.34
763.225	33.32
763.405	32.78
763.585	33.16
763.765	33.54
763.945	33.66
764.124	33.76
764.304	34.08
764.484	34.75
764.664	34.81
764.843	35.09
765.023	35.75
765.203	36.23
765.382	37.37
765.562	38.3
765.741	38.48
765.921	38.83
766.101	39.86
766.28	40.7
766.46	40.84
766.639	41.83
766.819	42.92
766.998	43.52
767.178	43.92
767.357	44.3
767.537	44.13
767.716	45.49
767.896	46.01
768.075	46.39
768.254	46.53
768.434	47.09
768.613	47.39
768.792	47.87
768.972	48.48
769.151	48.72
769.33	49.03
769.51	49.77
769.689	49.38
769.868	49.58
770.047	49.05
770.226	49.08
770.406	49.03
770.585	48.64
770.764	48.41
770.943	47.86
771.122	48.03
771.301	48.69
771.48	48.73
771.66	49.34
771.839	49.41
772.018	50.26
772.197	50.81
772.376	51.16
772.555	51.39
772.734	52.13
772.913	52.42
773.092	53.5
773.271	52.42
773.449	52.73
773.628	51.83
773.807	52.48
773.986	52.3
774.165	51.96
774.344	52.23
774.523	52.1
774.701	51.23
774.88	51.01
775.059	50.18
775.238	50.66
775.417	49.56
775.595	49.98
775.774	49.44
775.953	48.58
776.131	47.72
776.31	47.66
776.489	48.1
776.667	48.39
776.846	49.51
777.025	49.98
777.203	50.16
777.382	50.59
777.56	50.45
777.739	50.02
777.917	50.74
778.096	52.06
778.274	51.15
778.453	50.88
778.631	50.48
778.81	48.86
778.988	48.29
779.166	47.66
779.345	47.56
779.523	47.76
779.702	47.99
779.88	48.15
780.058	47.26
780.237	47.15
780.415	48.42
780.593	48.46
780.771	48.75
780.95	49.42
781.128	49.46
781.306	49.39
781.484	49.75
781.662	49.78
781.841	49.61
782.019	49.82
782.197	50.11
782.375	48.58
782.553	48.95
782.731	49.36
782.909	48.97
783.087	48.88
783.265	49.37
783.443	48.41
783.621	47.74
783.799	48.56
783.977	48.65
784.155	49.06
784.333	49.94
784.511	49.86
784.689	50.4
784.867	49.96
785.045	50.04
785.223	49.61
785.4	49.55
785.578	51.44
785.756	50.26
785.934	50.13
786.112	49.3
786.289	49.12
786.467	48.97
786.645	48.21
786.823	47.79
787	47.33
787.178	46.68
787.356	47.31
787.533	46.19
787.711	46.33
787.889	46.38
788.066	46.09
788.244	45.14
788.421	44.25
788.599	43.7
788.776	43.67
788.954	44.15
789.131	44.04
789.309	43.76
789.486	43.3
789.664	43.72
789.841	43.56
790.019	43.34
790.196	44
790.373	45.27
790.551	46.35
790.728	46.71
790.906	47.25
791.083	49.34
791.26	49.12
791.437	49.38
791.615	49.73
791.792	49.4
791.969	50.02
792.146	50.06
792.324	50.14
792.501	49.27
792.678	49.56
792.855	48.68
793.032	47.39
793.209	47.26
793.387	47.41
793.564	46.62
793.741	47.97
793.918	47.33
794.095	46.68
794.272	45.18
794.449	44.64
794.626	45
794.803	45.78
794.98	44.73
795.157	45.33
795.334	45.95
795.511	46.01
795.688	44.42
795.864	45.26
796.041	45.44
796.218	45.6
796.395	45.84
796.572	46.1
796.749	45.33
796.925	45.03
797.102	43.79
797.279	42.17
797.456	42.79
797.632	43.5
797.809	42.6
797.986	43.35
798.162	43.17
798.339	43.86
798.516	43.12
798.692	44.39
798.869	44.47
799.046	44.98
799.222	46
799.399	45.73
799.575	45.7
799.752	46.93
799.928	46.76
800.105	46.78
800.281	46.3
800.458	46.51
800.634	45.36
800.811	45.47
800.987	46.86
801.163	45.96
801.34	45.57
801.516	44.69
801.692	44.5
801.869	44.54
802.045	45.21
802.221	46.29
802.398	45.54
802.574	46.11
802.75	46.64
802.926	44.8
803.103	46.69
803.279	46.51
803.455	47.15
803.631	46.73
803.807	47.13
803.983	48.47
804.16	47.71
804.336	48.79
804.512	48.12
804.688	47.22
804.864	48.51
805.04	48.61
805.216	47.3
805.392	47.38
805.568	47.3
805.744	45.65
805.92	42.83
806.096	43.09
806.272	43.08
806.448	42.81
806.623	43.84
806.799	43.52
806.975	41.62
807.151	42.65
807.327	43.11
807.503	43.01
807.678	43.04
807.854	44.14
808.03	44.33
808.206	43.82
808.381	44.52
808.557	43.82
808.733	43.11
808.908	43.07
809.084	43.7
809.26	43.59
809.435	43.84
809.611	44.4
809.787	45.93
809.962	45.69
810.138	46.36
810.313	45.87
810.489	46.06
810.664	45.91
810.84	46.54
811.015	46.41
811.191	45.89
811.366	46.92
811.542	46.44
811.717	45.53
811.892	45.56
812.068	44.42
812.243	44.32
812.419	45.49
812.594	45.77
812.769	46.03
812.944	45.35
813.12	45.56
813.295	44.64
813.47	43.96
813.645	43.22
813.821	41.21
813.996	41.2
814.171	41.11
814.346	39.46
814.521	39.5
814.697	38.47
814.872	39.2
815.047	39.23
815.222	38.38
815.397	39.81
815.572	39.51
815.747	41.29
815.922	41.72
816.097	41.78
816.272	42.17
816.447	42.34
816.622	43.3
816.797	42.77
816.972	42.09
817.147	42.72
817.322	42.15
817.496	40.71
817.671	39.33
817.846	37.12
818.021	36.39
818.196	36.62
818.371	36.74
818.545	36.03
818.72	36.67
818.895	35.16
819.069	33.77
819.244	32.98
819.419	33.68
819.594	33.8
819.768	34.76
819.943	35.32
820.117	34.6
820.292	33.71
820.467	33.49
820.641	31.99
820.816	32.13
820.99	31.54
821.165	30.53
821.339	29.74
821.514	28.92
821.688	28.31
821.863	27.7
822.037	27.43
822.212	27.1
822.386	26.69
822.56	26.34
822.735	26.28
822.909	26.21
823.084	26.38
823.258	26.57
823.432	26.75
823.606	26.71
823.781	26.8
823.955	26.86
824.129	27.11
824.303	27.34
824.478	27.71
824.652	27.87
824.826	27.65
825	27.73
825.174	27.82
825.348	28.43
825.523	28.8
825.697	29.07
825.871	29.06
826.045	29.15
826.219	29.08
826.393	29.39
826.567	29.1
826.741	29.32
826.915	29.55
827.089	29.28
827.263	28.67
827.437	28.49
827.611	28.23
827.784	28.01
827.958	27.46
828.132	27.74
828.306	27.76
828.48	27.78
828.654	28.24
828.827	28.22
829.001	28.85
829.175	28.74
829.349	28.95
829.522	30.05
829.696	31.76
829.87	32.94
830.044	33.88
830.217	33.58
830.391	34.66
830.565	35.6
830.738	35.42
830.912	34.26
831.085	35.15
831.259	37.31
831.432	34.8
831.606	34.23
831.779	33.73
831.953	33.74
832.126	34.06
832.3	33.91
832.473	32.78
832.647	32.97
832.82	33.13
832.994	32.48
833.167	31.25
833.34	32.38
833.514	31.93
833.687	31.31
833.86	30.38
834.034	30.61
834.207	30.05
834.38	30.39
834.553	30.28
834.727	30.39
834.9	30.45
835.073	30.25
835.246	30.01
835.419	30.7
835.593	31.86
835.766	32.69
835.939	33.17
836.112	34.2
836.285	34.34
836.458	35.23
836.631	34.49
836.804	35.62
836.977	36.22
837.15	37.07
837.323	36.37
837.496	37.23
837.669	38.32
837.842	39.17
838.015	37.29
838.188	37.84
838.361	37.07
838.533	40.76
838.706	40.46
838.879	41.59
839.052	40.54
839.225	40.7
839.398	40.83
839.57	38.5
839.743	37.83
839.916	38.94
840.088	38.82
840.261	40.58
840.434	38.4
840.607	39
840.779	39.04
840.952	39.31
841.124	39.06
841.297	37.9
841.47	36.69
841.642	36.99
841.815	37.13
841.987	37.49
842.16	35.51
842.332	36.5
842.505	37.27
842.677	38.43
842.85	37.83
843.022	37.72
843.194	37.67
843.367	40.63
843.539	39.22
843.712	42.08
843.884	44.43
844.056	46.85
844.229	49.52
844.401	47.87
844.573	48.23
844.745	51.78
844.918	54.55
845.09	58.66
845.262	56.2
845.434	56.49
845.606	55.46
845.779	55.01
845.951	55
846.123	52.06
846.295	54.47
846.467	52.59
846.639	53.23
846.811	52.42
846.983	46.18
847.155	47.99
847.327	48.71
847.499	46.63
847.671	46.34
847.843	44.25
848.015	45.27
848.187	45.08
848.359	42.61
848.531	41.74
848.703	39.96
848.875	44.24
849.047	43.4
849.218	43.18
849.39	42.86
849.562	42.43
849.734	39.92
849.905	37.49
850.077	37.48
850.249	39.05
850.421	39
850.592	40.25
850.764	41.21
850.936	41.07
851.107	40.08
851.279	39.81
851.451	41.38
851.622	46.03
851.794	48.63
851.965	44.51
852.137	39.62
852.308	39.27
852.48	42.61
852.651	37.53
852.823	39.81
852.994	42.33
853.166	46.24
853.337	44.82
853.509	44.74
853.68	42.65
853.851	47.87
854.023	53.55
854.194	50.32
854.365	44.05
854.537	45.57
854.708	45.83
854.879	47.91
855.05	47.86
855.222	47.37
855.393	42.89
855.564	49.39
855.735	46.04
855.906	44.73
856.078	47.29
856.249	51.97
856.42	51.49
856.591	52.43
856.762	52.49
856.933	48.6
857.104	48.35
857.275	51.53
857.446	51.92
857.617	50.71
857.788	51.33
857.959	53.83
858.13	54.74
858.301	59.07
858.472	54.17
858.643	50.62
858.814	52.63
858.985	51.53
859.155	49.56
859.326	49.9
859.497	51.25
859.668	50.7
859.839	50.01
860.009	46.48
860.18	44.12
860.351	46.46
860.522	49.84
860.692	48.06
860.863	49.13
861.034	49.35
861.204	47.69
861.375	53.82
861.546	53.6
861.716	47.53
861.887	47.33
862.057	51.3
862.228	59.02
862.398	55.62
862.569	55.75
862.739	59.3
862.91	59.01
863.08	56.99
863.251	54.52
863.421	56.74
863.592	57.79
863.762	59.52
863.932	57.76
864.103	52.93
864.273	48.75
864.443	49.38
864.614	49.87
864.784	52.14
864.954	51.15
865.125	48.47
865.295	48.88
865.465	49.14
865.635	50.45
865.805	47.01
865.976	45.39
866.146	49.56
866.316	52.51
866.486	48.29
866.656	49.52
866.826	45.6
866.996	43.65
867.166	41.61
867.336	46.16
867.506	42.45
867.676	42.67
867.846	44.9
868.016	45.31
868.186	41.31
868.356	37.81
868.526	34.49
868.696	39.76
868.866	38.62
869.036	37.78
869.206	33.78
869.376	34.7
869.545	35.25
869.715	37.86
869.885	36.76
870.055	39.88
870.224	42.51
870.394	45.7
870.564	48.19
870.734	54.73
870.903	54.63
871.073	59.67
871.243	61.59
871.412	59.34
871.582	58.26
871.751	55.08
871.921	53.21
872.091	51.89
872.26	49.38
872.43	46.22
872.599	39.33
872.769	39.71
872.938	38.1
873.108	37.18
873.277	38.92
873.446	37.66
873.616	36.11
873.785	35.6
873.955	35.72
874.124	36.86
874.293	32.35
874.463	32.57
874.632	34.9
874.801	31.65
874.971	28.54
875.14	24.53
875.309	19.92
875.478	25.47
875.647	26.51
875.817	27.42
875.986	30.18
876.155	33.47
876.324	32.19
876.493	33.67
876.662	36.75
876.831	38.51
877	41.03
877.17	45.47
877.339	42.69
877.508	45.01
877.677	48.5
877.846	45.57
878.015	41.85
878.184	44.97
878.352	42.54
878.521	38.18
878.69	38.91
878.859	38.31
879.028	40.57
879.197	41.92
879.366	38.71
879.534	35.56
879.703	32.68
879.872	32.8
880.041	33.46
880.21	32.4
880.378	33.3
880.547	32.12
880.716	30.58
880.884	28.43
881.053	27.48
881.222	26.93
881.39	26.73
881.559	26.59
881.727	26.21
881.896	24.88
882.065	24.21
882.233	23.61
882.402	23.85
882.57	23.53
882.739	23.66
882.907	24.12
883.076	24.28
883.244	24.3
883.412	24.27
883.581	24.57
883.749	24.55
883.918	25.04
884.086	24.97
884.254	25.21
884.423	25.63
884.591	25.41
884.759	24.59
884.927	24.95
885.096	25.64
885.264	26.09
885.432	25.16
885.6	25.48
885.769	25.22
885.937	25.69
886.105	24.98
886.273	25.87
886.441	27.27
886.609	29.06
886.777	30.93
886.945	30.81
887.113	31.62
887.281	34.58
887.449	36.36
887.617	36.07
887.785	35.65
887.953	34.76
888.121	38.56
888.289	35.58
888.457	34.68
888.625	32.84
888.793	33.68
888.961	31.1
889.129	30.85
889.296	31.93
889.464	33.76
889.632	36.37
889.8	40.43
889.967	32.97
890.135	38.19
