Data from 2938835__Reflection_01.txt Node
Date: Thu Mar 12 11:28:56 EDT 2015
User: robert
Spectrometer: USB4E03002
Autoset integration time: false
Trigger mode: 4
Integration Time (sec): 1.000000E-1
Scans to average: 10
Electric dark correction enabled: false
Nonlinearity correction enabled: false
Boxcar width: 5
Stray light correction enabled: false
XAxis mode: Wavelengths
Stop averaging: false
Number of Pixels in Spectrum: 3648
>>>>>Begin Spectral Data<<<<<
177.575	826.19
177.794	1334.01
178.014	1290.68
178.233	1414.91
178.452	1294.67
178.672	1372.82
178.891	1637.96
179.11	1559.13
179.33	1400
179.549	1171.24
179.768	1148.95
179.987	2399.25
180.207	2185.76
180.426	2442.8
180.645	1699.74
180.864	1208.81
181.084	1462.19
181.303	1266.07
181.522	1366.95
181.741	2007.14
181.96	4137.34
182.179	4319.87
182.398	2394.53
182.618	1665.23
182.837	1523.11
183.056	1898.48
183.275	7798.72
183.494	4028.66
183.713	5911.11
183.932	-23196.3
184.151	19674.19
184.37	2376.65
184.589	4473.13
184.808	4375.35
185.027	4683.58
185.246	13819.57
185.465	-5742.86
185.684	6606.06
185.903	662500
186.122	2101.87
186.341	1305.06
186.56	978.24
186.779	988.55
186.998	1041.81
187.216	985.04
187.435	914.31
187.654	815.14
187.873	663.15
188.092	850.87
188.311	757.39
188.53	848.59
188.748	856.93
188.967	1075.04
189.186	1404.39
189.405	1154.34
189.623	1033.75
189.842	1032.33
190.061	976.6
190.28	944.28
190.498	997.19
190.717	823.21
190.936	879.78
191.154	1077.43
191.373	974.23
191.592	931.7
191.81	948.65
192.029	1324.08
192.248	1230.16
192.466	1330.72
192.685	1427
192.904	945.85
193.122	971.32
193.341	1224.8
193.559	941.42
193.778	924.22
193.996	876.18
194.215	977
194.433	836.11
194.652	943.13
194.87	1378.76
195.089	1676.57
195.307	2337.6
195.526	4964.71
195.744	7386.25
195.963	-100916.67
196.181	-5420.72
196.399	-3259.56
196.618	-2637.89
196.836	-1472.07
197.055	-1759
197.273	-9088.06
197.491	32868.42
197.71	158600
197.928	6738.54
198.146	5646.15
198.365	9288.24
198.583	5693.64
198.801	2691.06
199.019	1787.02
199.238	1136.89
199.456	1254.2
199.674	1263.33
199.892	1146.47
200.111	1014.59
200.329	974.92
200.547	842.24
200.765	792.4
200.983	775.7
201.202	950.55
201.42	897.5
201.638	849.38
201.856	947.14
202.074	1093.87
202.292	1585.68
202.51	2423.69
202.728	2007.69
202.946	2431.64
203.165	1475.18
203.383	1437.58
203.601	1060.71
203.819	1361.26
204.037	1541.05
204.255	1146.38
204.473	922.91
204.691	817.25
204.909	779.1
205.127	816.82
205.345	706.78
205.562	740.57
205.78	782.95
205.998	956.15
206.216	752.27
206.434	683.96
206.652	823.28
206.87	938.59
207.088	933.19
207.306	782.3
207.523	705.64
207.741	767.09
207.959	756.45
208.177	655.21
208.395	569.39
208.612	604.89
208.83	609.76
209.048	530.19
209.266	548.72
209.483	482.11
209.701	554.92
209.919	570.7
210.136	615.28
210.354	746.34
210.572	915.49
210.79	1009.1
211.007	1482.41
211.225	2066.56
211.442	2355.76
211.66	1808.96
211.878	3672.78
212.095	1895.32
212.313	1612.57
212.53	1528.38
212.748	1191.33
212.966	964.82
213.183	779.55
213.401	609.65
213.618	579.52
213.836	582.24
214.053	622.2
214.271	525.61
214.488	632.7
214.705	749.25
214.923	637.75
215.14	605.58
215.358	607.07
215.575	669.87
215.793	611.71
216.01	668.32
216.227	644.72
216.445	599.81
216.662	702.51
216.879	626.35
217.097	597.31
217.314	562.49
217.531	640.58
217.749	627.96
217.966	588.6
218.183	566.7
218.4	470.32
218.618	481.15
218.835	489.41
219.052	447.42
219.269	463.28
219.487	418.49
219.704	443.55
219.921	375.1
220.138	347.97
220.355	377.04
220.572	385.88
220.79	394.42
221.007	401.28
221.224	385.32
221.441	384.47
221.658	334.64
221.875	330.55
222.092	317.01
222.309	328.68
222.526	374.71
222.743	338.03
222.96	306.72
223.177	295.93
223.394	275.93
223.611	260.29
223.828	246.19
224.045	255.29
224.262	249.2
224.479	236.84
224.696	231.65
224.913	206.5
225.13	190.01
225.347	183.11
225.564	177.31
225.781	166.65
225.997	156.22
226.214	152.31
226.431	131.37
226.648	114.19
226.865	99.19
227.082	88.91
227.298	78.16
227.515	66.69
227.732	59.34
227.949	53.81
228.165	49.01
228.382	44.42
228.599	40.57
228.816	37.23
229.032	36.54
229.249	36.62
229.466	35.35
229.682	35.47
229.899	36.59
230.116	37.62
230.332	38.92
230.549	40.69
230.765	43.42
230.982	45.82
231.199	49.76
231.415	52.87
231.632	55.27
231.848	59.25
232.065	60.63
232.281	65.08
232.498	65.65
232.714	68.07
232.931	69.39
233.147	68.31
233.364	69.24
233.58	70.57
233.797	68.62
234.013	66.78
234.23	65.22
234.446	65.27
234.662	64.06
234.879	66.23
235.095	65.68
235.312	64.62
235.528	67.53
235.744	67.21
235.961	67.12
236.177	66.35
236.393	69.17
236.61	68.58
236.826	68.83
237.042	70.27
237.258	68.98
237.475	68.15
237.691	69.88
237.907	69.4
238.123	71.07
238.339	69.87
238.556	71.68
238.772	68.89
238.988	68.5
239.204	66.02
239.42	62.43
239.636	60.88
239.853	58.55
240.069	55.57
240.285	50.68
240.501	47.26
240.717	43.1
240.933	40.16
241.149	36.89
241.365	34.37
241.581	32.9
241.797	30.78
242.013	28.75
242.229	27.34
242.445	26.1
242.661	25.95
242.877	25.36
243.093	25.58
243.309	25.3
243.525	25.82
243.741	26.67
243.957	27.69
244.173	28.96
244.388	30.78
244.604	31.41
244.82	32.16
245.036	31.64
245.252	30.54
245.468	28.61
245.683	26.81
245.899	24.99
246.115	23.42
246.331	20.95
246.547	19.61
246.762	18.36
246.978	17.41
247.194	16.62
247.409	15.96
247.625	15.23
247.841	15.15
248.057	15.71
248.272	16.04
248.488	16.39
248.703	16.97
248.919	18
249.135	19.42
249.35	20.98
249.566	22.47
249.782	24.73
249.997	27.28
250.213	29.05
250.428	29.61
250.644	30.69
250.859	30.75
251.075	31.92
251.29	31.76
251.506	30.82
251.721	29.82
251.937	28.77
252.152	28.73
252.368	28.15
252.583	28.46
252.798	28.97
253.014	29.31
253.229	31.06
253.445	31.88
253.66	32.91
253.875	33.69
254.091	35.99
254.306	38.36
254.521	39.12
254.737	41.27
254.952	41.15
255.167	42.72
255.383	41.96
255.598	41.48
255.813	40.87
256.028	40.83
256.244	40.58
256.459	39.66
256.674	39.35
256.889	38.08
257.104	35.58
257.32	34.21
257.535	31.41
257.75	30.42
257.965	27.07
258.18	25.21
258.395	22.97
258.61	20.83
258.826	19.37
259.041	17.56
259.256	16.74
259.471	15.75
259.686	15.16
259.901	15.01
260.116	14.49
260.331	14.97
260.546	15.38
260.761	15.26
260.976	15.67
261.191	16.16
261.406	16.97
261.621	17.63
261.836	19.04
262.05	20.27
262.265	21.32
262.48	22.19
262.695	22.69
262.91	23.07
263.125	24.85
263.34	26.17
263.555	26.6
263.769	27.22
263.984	28.78
264.199	29.62
264.414	30.01
264.629	30.5
264.843	30.95
265.058	30.67
265.273	30.09
265.488	29.34
265.702	28.41
265.917	27.46
266.132	26.6
266.346	25.18
266.561	24.47
266.776	23.72
266.99	22.37
267.205	21.82
267.42	21.1
267.634	21.07
267.849	20.33
268.063	20.13
268.278	20.28
268.492	20.52
268.707	20.46
268.922	20.27
269.136	20.45
269.351	20.7
269.565	20.96
269.78	20.79
269.994	20.4
270.209	20.83
270.423	20.82
270.637	20.64
270.852	19.76
271.066	19.28
271.281	18.85
271.495	18.17
271.709	18.15
271.924	17.5
272.138	17.52
272.353	17.37
272.567	17.08
272.781	16.66
272.996	16.45
273.21	17.14
273.424	17.19
273.638	17.39
273.853	17.88
274.067	18.14
274.281	18.95
274.495	19.12
274.71	19.74
274.924	20.01
275.138	20.59
275.352	21.18
275.566	21.38
275.781	21.47
275.995	21.7
276.209	22.17
276.423	22.26
276.637	22.14
276.851	22.69
277.065	21.91
277.279	21.88
277.493	22.07
277.707	22.28
277.921	22.02
278.135	22.12
278.349	21.84
278.563	21.3
278.777	21.11
278.991	20.71
279.205	20.6
279.419	20.82
279.633	20.88
279.847	20.7
280.061	19.83
280.275	19.42
280.489	19.45
280.703	19.31
280.917	19.05
281.131	18.76
281.344	18.6
281.558	18.15
281.772	18.15
281.986	18.12
282.2	17.77
282.414	17.84
282.627	17.56
282.841	17.47
283.055	17.26
283.269	17.21
283.482	16.96
283.696	16.66
283.91	16.47
284.123	15.61
284.337	15.13
284.551	14.97
284.764	14.74
284.978	14.99
285.192	14.46
285.405	14.13
285.619	13.81
285.833	13.68
286.046	13.88
286.26	13.93
286.473	14.22
286.687	14.65
286.9	14.58
287.114	14.64
287.327	14.77
287.541	15.28
287.754	15.85
287.968	16.42
288.181	16.74
288.395	16.64
288.608	16.92
288.822	17.13
289.035	17.04
289.248	16.98
289.462	16.9
289.675	16.52
289.889	16.46
290.102	16.27
290.315	16.13
290.529	15.92
290.742	15.92
290.955	15.94
291.169	16.09
291.382	16.06
291.595	16.74
291.808	17.15
292.022	17.55
292.235	17.6
292.448	17.85
292.661	17.6
292.875	17.9
293.088	18.27
293.301	18.53
293.514	18.16
293.727	17.91
293.94	17.47
294.153	17.28
294.367	17.18
294.58	16.93
294.793	16.89
295.006	16.93
295.219	16.82
295.432	16.55
295.645	15.73
295.858	15.61
296.071	15.33
296.284	15.01
296.497	14.75
296.71	14.36
296.923	14.34
297.136	14.06
297.349	14.22
297.562	14.03
297.775	14.15
297.988	14.57
298.201	15.2
298.414	15.52
298.626	15.88
298.839	16.29
299.052	16.95
299.265	17.15
299.478	17.36
299.691	17.69
299.903	18.16
300.116	18.2
300.329	18.37
300.542	18.23
300.755	18.44
300.967	18.62
301.18	18.58
301.393	18.17
301.605	18.36
301.818	18.94
302.031	19.19
302.243	18.97
302.456	19.26
302.669	19.45
302.881	19.45
303.094	19.13
303.307	19.03
303.519	19.29
303.732	19.57
303.944	19.67
304.157	19.44
304.37	19.13
304.582	19.65
304.795	19.44
305.007	19.78
305.22	19.69
305.432	20.01
305.645	20.22
305.857	20.23
306.069	20.57
306.282	20.87
306.494	21.1
306.707	21.13
306.919	20.83
307.132	20.94
307.344	20.55
307.556	20.65
307.769	20.85
307.981	20.76
308.193	20.67
308.406	20.31
308.618	20.01
308.83	19.71
309.043	19.47
309.255	19.66
309.467	19.98
309.679	19.7
309.892	19.61
310.104	19.19
310.316	18.95
310.528	18.61
310.74	18.36
310.953	18.44
311.165	18.48
311.377	18.45
311.589	18.37
311.801	18.06
312.013	18.3
312.225	18.28
312.437	18.67
312.649	19.28
312.862	19.39
313.074	19.74
313.286	19.9
313.498	20
313.71	20.29
313.922	20.41
314.134	20.89
314.346	21.06
314.558	21.41
314.77	21.73
314.982	21.69
315.193	22.32
315.405	22.63
315.617	22.78
315.829	23.34
316.041	23.73
316.253	23.76
316.465	23.58
316.677	23.36
316.888	23.68
317.1	23.44
317.312	23
317.524	22.73
317.736	23.04
317.947	22.8
318.159	22.8
318.371	22.37
318.583	22.36
318.794	22.25
319.006	22.62
319.218	22.57
319.43	22.99
319.641	23.46
319.853	23.11
320.064	22.91
320.276	23.35
320.488	23.52
320.699	24.07
320.911	25.15
321.123	25.93
321.334	25.92
321.546	26.42
321.757	26.26
321.969	26.47
322.18	27.05
322.392	27.32
322.603	27.32
322.815	27.02
323.026	26.75
323.238	25.75
323.449	25.16
323.661	24.94
323.872	24.21
324.083	23.91
324.295	23.53
324.506	23.09
324.718	22.44
324.929	22.32
325.14	21.77
325.352	21.94
325.563	21.79
325.774	21.86
325.986	22.01
326.197	21.99
326.408	22.27
326.62	22.18
326.831	22.28
327.042	22.47
327.253	22.01
327.464	22.5
327.676	22.58
327.887	23
328.098	23.07
328.309	23.13
328.52	23.49
328.732	23.56
328.943	24.31
329.154	25.07
329.365	25.61
329.576	26.4
329.787	26.76
329.998	27.07
330.209	27.26
330.42	27.42
330.631	27.43
330.842	27.35
331.053	27.1
331.264	26.16
331.475	25.97
331.686	25.81
331.897	25.51
332.108	25.04
332.319	24.63
332.53	24.44
332.741	24.39
332.952	24.55
333.163	24.47
333.374	24.75
333.585	25.37
333.795	25.66
334.006	25.64
334.217	25.5
334.428	25.71
334.639	26.07
334.849	25.87
335.06	25.66
335.271	25.62
335.482	25.71
335.692	25.47
335.903	25.06
336.114	24.14
336.325	24.13
336.535	24.36
336.746	24.27
336.957	24.16
337.167	24.07
337.378	24.48
337.589	24.49
337.799	24.1
338.01	24.56
338.22	24.53
338.431	24.92
338.642	24.94
338.852	24.99
339.063	25.07
339.273	24.64
339.484	24.77
339.694	24.65
339.905	24.41
340.115	24.72
340.326	24.47
340.536	24.72
340.746	24.6
340.957	24.58
341.167	24.28
341.378	23.91
341.588	23.96
341.799	23.93
342.009	23.64
342.219	23.67
342.43	23.39
342.64	23.44
342.85	22.88
343.061	23.03
343.271	22.84
343.481	22.8
343.691	22.95
343.902	22.45
344.112	22.27
344.322	22.23
344.532	22.11
344.743	22.08
344.953	21.54
345.163	21.81
345.373	21.59
345.583	21.52
345.793	21.76
346.004	21.29
346.214	21.62
346.424	21.94
346.634	21.91
346.844	21.81
347.054	22.19
347.264	22.58
347.474	22.54
347.684	22.34
347.894	22.39
348.104	22.32
348.314	22.68
348.524	22.76
348.734	22.7
348.944	22.62
349.154	22.75
349.364	22.6
349.574	22.48
349.784	22.49
349.994	22.73
350.204	22.55
350.413	22.3
350.623	22.44
350.833	21.92
351.043	21.66
351.253	21.89
351.463	22.03
351.672	21.81
351.882	21.91
352.092	21.89
352.302	21.9
352.511	21.89
352.721	21.82
352.931	21.79
353.141	21.91
353.35	21.9
353.56	21.5
353.77	21.08
353.979	21.17
354.189	20.77
354.399	20.63
354.608	20.62
354.818	20.61
355.027	20.49
355.237	20.04
355.447	20.09
355.656	19.95
355.866	19.55
356.075	19.75
356.285	19.47
356.494	19.25
356.704	19.07
356.913	18.87
357.123	18.67
357.332	18.63
357.542	18.61
357.751	18.34
357.96	18.39
358.17	18.69
358.379	18.49
358.589	18.58
358.798	18.75
359.007	18.9
359.217	18.74
359.426	18.43
359.635	18.29
359.845	18.22
360.054	18.16
360.263	17.88
360.472	17.61
360.682	17.41
360.891	17.17
361.1	16.95
361.309	16.8
361.519	16.6
361.728	16.66
361.937	16.72
362.146	16.77
362.355	16.7
362.564	16.93
362.774	16.81
362.983	16.85
363.192	16.95
363.401	17.12
363.61	16.89
363.819	17.27
364.028	17.33
364.237	17.02
364.446	16.93
364.655	17.08
364.864	16.95
365.073	17.19
365.282	17.2
365.491	17.13
365.7	16.96
365.909	17.37
366.118	17.2
366.327	17.45
366.536	17.97
366.745	18.04
366.954	18.08
367.162	18.1
367.371	18.16
367.58	18.36
367.789	18.55
367.998	18.49
368.207	18.61
368.415	18.66
368.624	18.43
368.833	18.2
369.042	18.7
369.25	18.86
369.459	19.01
369.668	18.79
369.877	18.74
370.085	18.35
370.294	18.46
370.503	17.87
370.711	17.79
370.92	17.68
371.129	17.68
371.337	16.96
371.546	16.73
371.754	16.36
371.963	16.26
372.171	16.26
372.38	16.35
372.589	16.4
372.797	16.75
373.006	16.34
373.214	16.43
373.423	16.28
373.631	16.76
373.84	16.54
374.048	16.75
374.256	16.9
374.465	16.83
374.673	16.78
374.882	16.49
375.09	16.35
375.298	16.4
375.507	16.27
375.715	16.26
375.923	16.1
376.132	16.22
376.34	15.71
376.548	15.52
376.757	15.14
376.965	15.16
377.173	15.34
377.381	15.09
377.59	15.41
377.798	15.34
378.006	15.12
378.214	14.95
378.423	15.05
378.631	15.01
378.839	15.25
379.047	15.42
379.255	15.41
379.463	15.28
379.671	15.67
379.879	15.75
380.088	15.86
380.296	15.98
380.504	16.09
380.712	16.09
380.92	16.49
381.128	16.41
381.336	16.41
381.544	16.33
381.752	16.42
381.96	16.21
382.168	15.87
382.376	15.75
382.584	15.85
382.791	15.83
382.999	15.87
383.207	15.76
383.415	15.55
383.623	15.51
383.831	15.42
384.039	15.51
384.247	15.28
384.454	15.5
384.662	15.49
384.87	15.29
385.078	15.12
385.285	14.91
385.493	14.81
385.701	14.73
385.909	14.77
386.116	14.77
386.324	14.4
386.532	14.49
386.739	14.39
386.947	14.49
387.155	14.64
387.362	14.43
387.57	14.45
387.778	14.62
387.985	14.79
388.193	14.59
388.4	14.55
388.608	14.86
388.816	14.83
389.023	14.68
389.231	14.32
389.438	14.02
389.646	13.92
389.853	13.77
390.061	13.26
390.268	13.33
390.475	13.29
390.683	13.31
390.89	12.78
391.098	12.85
391.305	12.92
391.512	12.91
391.72	12.93
391.927	13.1
392.135	13.06
392.342	13.13
392.549	12.83
392.756	12.75
392.964	12.6
393.171	12.93
393.378	12.78
393.586	12.52
393.793	12.57
394	12.48
394.207	12.41
394.414	12.51
394.622	12.62
394.829	12.62
395.036	12.7
395.243	12.87
395.45	12.83
395.657	12.86
395.864	13.13
396.072	13.28
396.279	13.36
396.486	13.4
396.693	13.41
396.9	13.29
397.107	13.43
397.314	13.49
397.521	13.41
397.728	13.5
397.935	13.48
398.142	13.17
398.349	13.02
398.556	13.09
398.763	13.11
398.97	12.96
399.177	13.1
399.383	13.09
399.59	12.82
399.797	12.79
400.004	12.65
400.211	12.64
400.418	12.81
400.625	12.87
400.831	12.84
401.038	12.8
401.245	12.93
401.452	12.95
401.658	12.63
401.865	12.93
402.072	12.9
402.279	13.02
402.485	12.92
402.692	12.92
402.899	12.82
403.105	12.64
403.312	12.7
403.519	12.6
403.725	12.36
403.932	12.4
404.138	12.08
404.345	11.98
404.552	11.79
404.758	11.84
404.965	11.73
405.171	11.65
405.378	11.8
405.584	11.7
405.791	11.6
405.997	11.76
406.204	12
406.41	12.24
406.617	12.27
406.823	12.24
407.029	12.18
407.236	12.07
407.442	12.11
407.649	12.12
407.855	11.94
408.061	12.02
408.268	11.94
408.474	11.89
408.68	11.72
408.887	11.84
409.093	11.76
409.299	12.01
409.505	11.91
409.712	11.75
409.918	11.63
410.124	11.75
410.33	11.71
410.537	11.57
410.743	11.55
410.949	11.6
411.155	11.44
411.361	11.45
411.567	11.32
411.773	11.59
411.98	11.85
412.186	11.94
412.392	12.08
412.598	12.08
412.804	12.23
413.01	12.14
413.216	12.12
413.422	12.18
413.628	12.14
413.834	12.05
414.04	11.91
414.246	11.75
414.452	11.64
414.658	11.44
414.864	11.34
415.07	11.45
415.275	11.49
415.481	11.32
415.687	11.12
415.893	11.1
416.099	10.91
416.305	10.78
416.511	10.6
416.716	10.33
416.922	10.16
417.128	10.15
417.334	9.88
417.539	9.64
417.745	9.57
417.951	9.5
418.157	9.38
418.362	9.32
418.568	9.31
418.774	9.18
418.979	9.29
419.185	9.18
419.391	8.99
419.596	8.87
419.802	8.86
420.008	8.82
420.213	8.8
420.419	8.8
420.624	8.7
420.83	8.58
421.035	8.6
421.241	8.56
421.446	8.51
421.652	8.54
421.857	8.58
422.063	8.56
422.268	8.58
422.474	8.51
422.679	8.41
422.885	8.55
423.09	8.61
423.295	8.67
423.501	8.56
423.706	8.56
423.911	8.45
424.117	8.55
424.322	8.52
424.527	8.43
424.733	8.52
424.938	8.59
425.143	8.5
425.349	8.54
425.554	8.5
425.759	8.66
425.964	8.78
426.169	8.9
426.375	8.87
426.58	9.01
426.785	9.21
426.99	9.22
427.195	9.41
427.4	9.51
427.605	9.61
427.811	9.76
428.016	9.63
428.221	9.62
428.426	9.72
428.631	9.77
428.836	9.75
429.041	9.68
429.246	9.74
429.451	9.6
429.656	9.73
429.861	9.74
430.066	9.89
430.271	9.93
430.476	10.02
430.681	10.09
430.886	10.12
431.09	10.21
431.295	10.22
431.5	10.15
431.705	10.08
431.91	9.9
432.115	9.69
432.32	9.51
432.524	9.47
432.729	9.45
432.934	9.35
433.139	9.3
433.343	9.17
433.548	9.19
433.753	9.2
433.958	9.29
434.162	9.35
434.367	9.42
434.572	9.39
434.776	9.41
434.981	9.47
435.186	9.45
435.39	9.42
435.595	9.55
435.799	9.42
436.004	9.54
436.209	9.47
436.413	9.52
436.618	9.51
436.822	9.56
437.027	9.54
437.231	9.57
437.436	9.57
437.64	9.6
437.845	9.51
438.049	9.55
438.253	9.45
438.458	9.44
438.662	9.39
438.867	9.3
439.071	9.27
439.275	9.19
439.48	9.01
439.684	8.9
439.888	8.84
440.093	8.81
440.297	8.69
440.501	8.69
440.706	8.73
440.91	8.73
441.114	8.81
441.318	8.8
441.523	8.91
441.727	8.9
441.931	9
442.135	9.02
442.339	8.99
442.543	9.16
442.748	9.09
442.952	9.08
443.156	9
443.36	9.12
443.564	9.12
443.768	9.09
443.972	9.13
444.176	9.05
444.38	8.99
444.584	8.95
444.788	8.87
444.992	8.81
445.196	8.7
445.4	8.6
445.604	8.34
445.808	8.26
446.012	8.11
446.216	8.03
446.42	8.08
446.624	8.08
446.828	8.1
447.032	8.1
447.235	8.14
447.439	8.17
447.643	8.21
447.847	8.36
448.051	8.42
448.254	8.6
448.458	8.7
448.662	8.68
448.866	8.67
449.069	8.7
449.273	8.79
449.477	8.86
449.681	8.97
449.884	9.12
450.088	9.15
450.292	9.33
450.495	9.29
450.699	9.41
450.902	9.5
451.106	9.56
451.31	9.75
451.513	9.82
451.717	9.81
451.92	9.8
452.124	9.79
452.327	9.86
452.531	9.74
452.734	9.7
452.938	9.6
453.141	9.67
453.345	9.79
453.548	9.62
453.752	9.53
453.955	9.61
454.158	9.57
454.362	9.61
454.565	9.59
454.769	9.66
454.972	9.82
455.175	9.89
455.379	9.95
455.582	9.98
455.785	9.95
455.988	9.92
456.192	9.84
456.395	9.85
456.598	9.79
456.801	9.66
457.005	9.59
457.208	9.53
457.411	9.46
457.614	9.26
457.817	9.12
458.021	8.97
458.224	9.05
458.427	8.96
458.63	8.84
458.833	8.76
459.036	8.71
459.239	8.61
459.442	8.43
459.645	8.32
459.848	8.33
460.051	8.25
460.254	8.3
460.457	8.17
460.66	8.18
460.863	8.31
461.066	8.32
461.269	8.38
461.472	8.43
461.675	8.62
461.878	8.74
462.081	8.85
462.284	8.95
462.486	9.04
462.689	9.03
462.892	9.25
463.095	9.29
463.298	9.5
463.5	9.58
463.703	9.63
463.906	9.67
464.109	9.69
464.311	9.67
464.514	9.86
464.717	9.91
464.92	10.1
465.122	9.97
465.325	9.99
465.528	9.94
465.73	9.93
465.933	9.85
466.135	9.8
466.338	9.81
466.541	9.83
466.743	9.73
466.946	9.65
467.148	9.63
467.351	9.58
467.553	9.55
467.756	9.51
467.958	9.55
468.161	9.57
468.363	9.58
468.566	9.52
468.768	9.46
468.971	9.43
469.173	9.53
469.375	9.5
469.578	9.56
469.78	9.58
469.983	9.51
470.185	9.59
470.387	9.62
470.59	9.63
470.792	9.8
470.994	9.9
471.196	9.9
471.399	9.88
471.601	9.87
471.803	9.88
472.005	9.82
472.208	9.86
472.41	9.82
472.612	9.81
472.814	9.77
473.016	9.75
473.218	9.73
473.421	9.74
473.623	9.64
473.825	9.62
474.027	9.57
474.229	9.65
474.431	9.68
474.633	9.63
474.835	9.65
475.037	9.61
475.239	9.52
475.441	9.51
475.643	9.55
475.845	9.5
476.047	9.4
476.249	9.41
476.451	9.27
476.653	9.2
476.855	9.06
477.057	9.04
477.258	9.03
477.46	8.91
477.662	8.77
477.864	8.64
478.066	8.7
478.268	8.67
478.469	8.59
478.671	8.62
478.873	8.54
479.075	8.52
479.276	8.43
479.478	8.43
479.68	8.4
479.882	8.4
480.083	8.41
480.285	8.35
480.487	8.41
480.688	8.33
480.89	8.27
481.091	8.18
481.293	8.11
481.495	8.04
481.696	7.87
481.898	7.71
482.099	7.54
482.301	7.39
482.502	7.22
482.704	7.05
482.905	6.95
483.107	6.82
483.308	6.75
483.51	6.68
483.711	6.63
483.913	6.6
484.114	6.59
484.315	6.58
484.517	6.57
484.718	6.6
484.92	6.63
485.121	6.69
485.322	6.72
485.524	6.77
485.725	6.83
485.926	6.84
486.127	6.86
486.329	6.87
486.53	6.86
486.731	6.81
486.932	6.78
487.134	6.77
487.335	6.75
487.536	6.73
487.737	6.71
487.938	6.66
488.139	6.67
488.341	6.68
488.542	6.69
488.743	6.75
488.944	6.87
489.145	6.93
489.346	6.97
489.547	6.99
489.748	7.07
489.949	7.1
490.15	7.12
490.351	7.17
490.552	7.16
490.753	7.14
490.954	7.11
491.155	7.07
491.356	7.05
491.557	7.03
491.758	7.05
491.959	7.03
492.159	7.09
492.36	7.13
492.561	7.15
492.762	7.25
492.963	7.34
493.164	7.42
493.364	7.47
493.565	7.58
493.766	7.71
493.967	7.79
494.167	7.9
494.368	7.95
494.569	8.04
494.769	8.21
494.97	8.21
495.171	8.25
495.371	8.29
495.572	8.47
495.773	8.47
495.973	8.47
496.174	8.47
496.375	8.55
496.575	8.54
496.776	8.52
496.976	8.38
497.177	8.36
497.377	8.35
497.578	8.42
497.778	8.33
497.979	8.37
498.179	8.41
498.38	8.46
498.58	8.46
498.78	8.55
498.981	8.66
499.181	8.74
499.382	8.83
499.582	8.9
499.782	8.91
499.983	9.01
500.183	9.08
500.383	9.14
500.584	9.14
500.784	9.15
500.984	9.17
501.184	9.17
501.385	9.26
501.585	9.31
501.785	9.43
501.985	9.52
502.185	9.45
502.386	9.46
502.586	9.39
502.786	9.47
502.986	9.54
503.186	9.47
503.386	9.38
503.586	9.39
503.786	9.43
503.987	9.36
504.187	9.4
504.387	9.52
504.587	9.53
504.787	9.65
504.987	9.68
505.187	9.72
505.387	9.89
505.587	9.95
505.786	10.1
505.986	10.13
506.186	10.24
506.386	10.16
506.586	10.12
506.786	10.08
506.986	10.04
507.186	10.06
507.386	10.1
507.585	10.05
507.785	10.07
507.985	9.95
508.185	9.92
508.384	9.91
508.584	9.94
508.784	9.93
508.984	10
509.183	10.15
509.383	10.16
509.583	10.16
509.782	10.14
509.982	10.29
510.182	10.28
510.381	10.4
510.581	10.46
510.781	10.53
510.98	10.61
511.18	10.68
511.379	10.63
511.579	10.65
511.778	10.65
511.978	10.71
512.177	10.64
512.377	10.7
512.576	10.7
512.776	10.73
512.975	10.78
513.175	10.81
513.374	10.81
513.573	10.95
513.773	11.06
513.972	11.03
514.172	11.21
514.371	11.4
514.57	11.5
514.77	11.58
514.969	11.58
515.168	11.64
515.367	11.68
515.567	11.72
515.766	11.62
515.965	11.65
516.164	11.8
516.364	11.64
516.563	11.58
516.762	11.65
516.961	11.53
517.16	11.65
517.359	11.64
517.559	11.66
517.758	11.72
517.957	11.75
518.156	11.73
518.355	11.75
518.554	11.86
518.753	11.92
518.952	11.88
519.151	12
519.35	12.03
519.549	12.07
519.748	12.2
519.947	12.27
520.146	12.39
520.345	12.53
520.544	12.67
520.743	12.72
520.942	12.84
521.141	13.01
521.339	13.18
521.538	13.28
521.737	13.42
521.936	13.52
522.135	13.63
522.333	13.75
522.532	13.79
522.731	13.74
522.93	13.92
523.129	13.96
523.327	13.96
523.526	13.89
523.725	13.93
523.923	13.9
524.122	13.82
524.321	13.79
524.519	13.76
524.718	13.79
524.917	13.9
525.115	13.85
525.314	13.76
525.512	13.8
525.711	13.87
525.909	13.89
526.108	13.94
526.306	14.01
526.505	14
526.703	14
526.902	13.92
527.1	13.89
527.299	13.88
527.497	13.89
527.696	13.87
527.894	13.85
528.092	13.83
528.291	13.85
528.489	13.88
528.688	13.9
528.886	13.91
529.084	14
529.283	14.04
529.481	14.14
529.679	14.23
529.877	14.33
530.076	14.48
530.274	14.59
530.472	14.64
530.67	14.73
530.869	14.87
531.067	15.03
531.265	15.13
531.463	15.21
531.661	15.25
531.859	15.3
532.057	15.36
532.255	15.41
532.454	15.43
532.652	15.46
532.85	15.49
533.048	15.49
533.246	15.5
533.444	15.5
533.642	15.55
533.84	15.62
534.038	15.75
534.236	15.81
534.434	15.86
534.632	15.95
534.83	16.1
535.027	16.22
535.225	16.33
535.423	16.41
535.621	16.57
535.819	16.7
536.017	16.77
536.215	16.84
536.412	16.89
536.61	16.91
536.808	16.96
537.006	16.95
537.203	16.99
537.401	17.12
537.599	17.24
537.797	17.28
537.994	17.4
538.192	17.47
538.39	17.6
538.587	17.68
538.785	17.89
538.983	18.08
539.18	18.23
539.378	18.24
539.575	18.24
539.773	18.18
539.97	18.17
540.168	18.15
540.366	18.15
540.563	18.07
540.761	18.09
540.958	18
541.155	17.88
541.353	17.86
541.55	17.95
541.748	17.98
541.945	18.03
542.143	18.06
542.34	18.08
542.537	18.12
542.735	18.19
542.932	18.22
543.129	18.32
543.327	18.52
543.524	18.7
543.721	18.82
543.919	18.96
544.116	19.15
544.313	19.37
544.51	19.51
544.708	19.64
544.905	19.88
545.102	20.05
545.299	20.19
545.496	20.32
545.693	20.33
545.891	20.35
546.088	20.37
546.285	20.42
546.482	20.4
546.679	20.46
546.876	20.51
547.073	20.45
547.27	20.44
547.467	20.53
547.664	20.5
547.861	20.66
548.058	20.72
548.255	20.9
548.452	21.07
548.649	21.31
548.846	21.4
549.043	21.52
549.24	21.72
549.437	21.88
549.633	21.97
549.83	22.19
550.027	22.22
550.224	22.31
550.421	22.28
550.618	22.18
550.814	22.25
551.011	22.34
551.208	22.4
551.405	22.3
551.601	22.33
551.798	22.28
551.995	22.21
552.191	22.16
552.388	22.17
552.585	22.14
552.781	22.18
552.978	21.98
553.175	22.07
553.371	22.01
553.568	22.12
553.764	22.15
553.961	22.26
554.157	22.36
554.354	22.36
554.55	22.49
554.747	22.54
554.943	22.63
555.14	22.97
555.336	22.95
555.533	23.09
555.729	23.19
555.926	23.38
556.122	23.48
556.318	23.55
556.515	23.69
556.711	23.66
556.907	23.77
557.104	23.91
557.3	23.77
557.496	23.86
557.693	24.01
557.889	24.03
558.085	23.98
558.281	23.99
558.478	24.2
558.674	24.31
558.87	24.44
559.066	24.53
559.262	24.63
559.459	24.57
559.655	24.63
559.851	24.6
560.047	24.67
560.243	24.7
560.439	24.81
560.635	24.55
560.831	24.52
561.027	24.45
561.223	24.28
561.419	24.33
561.615	24.48
561.811	24.59
562.007	24.57
562.203	24.6
562.399	24.7
562.595	24.65
562.791	24.75
562.987	24.84
563.183	25.03
563.379	25.19
563.575	25.23
563.771	25.28
563.966	25.23
564.162	25.28
564.358	25.17
564.554	25.03
564.75	24.93
564.945	24.89
565.141	24.85
565.337	24.75
565.533	24.74
565.728	24.5
565.924	24.48
566.12	24.46
566.315	24.42
566.511	24.48
566.707	24.53
566.902	24.61
567.098	24.69
567.293	24.82
567.489	24.86
567.684	24.87
567.88	25.05
568.076	25.1
568.271	25.13
568.467	25.22
568.662	25.33
568.858	25.29
569.053	25.34
569.248	25.4
569.444	25.36
569.639	25.34
569.835	25.42
570.03	25.47
570.225	25.39
570.421	25.46
570.616	25.49
570.812	25.39
571.007	25.38
571.202	25.33
571.397	25.26
571.593	25.1
571.788	25.13
571.983	25.04
572.178	24.99
572.374	25.18
572.569	25.03
572.764	24.99
572.959	25.03
573.154	25.1
573.35	25.19
573.545	25.26
573.74	25.29
573.935	25.35
574.13	25.36
574.325	25.27
574.52	25.25
574.715	25.35
574.91	25.35
575.105	25.37
575.3	25.36
575.495	25.5
575.69	25.46
575.885	25.78
576.08	25.8
576.275	25.88
576.47	26.06
576.665	26.13
576.86	26.33
577.055	26.5
577.25	26.59
577.444	26.85
577.639	26.78
577.834	26.87
578.029	26.86
578.224	26.89
578.418	27.16
578.613	27.27
578.808	27.26
579.003	27.26
579.197	27.35
579.392	27.38
579.587	27.41
579.781	27.5
579.976	27.64
580.171	27.62
580.365	27.83
580.56	27.9
580.755	27.99
580.949	28.12
581.144	28.1
581.338	27.98
581.533	28.22
581.727	28.26
581.922	28.25
582.116	28.27
582.311	28.35
582.505	28.29
582.7	28.1
582.894	28.19
583.089	28.24
583.283	28.47
583.478	28.69
583.672	28.53
583.866	28.56
584.061	28.69
584.255	28.86
584.449	28.9
584.644	28.93
584.838	29.22
585.032	29.21
585.226	29.13
585.421	28.94
585.615	28.79
585.809	28.83
586.003	28.89
586.198	28.85
586.392	28.71
586.586	28.72
586.78	28.75
586.974	28.76
587.168	28.83
587.363	28.85
587.557	28.94
587.751	29
587.945	29.13
588.139	29
588.333	28.96
588.527	29.05
588.721	29.08
588.915	29.04
589.109	28.68
589.303	28.64
589.497	28.63
589.691	28.52
589.885	28.63
590.079	28.57
590.273	28.68
590.466	28.84
590.66	28.69
590.854	28.6
591.048	28.8
591.242	29
591.436	28.9
591.629	28.88
591.823	29.01
592.017	29.01
592.211	29.11
592.404	29.01
592.598	28.81
592.792	28.99
592.986	29.01
593.179	28.87
593.373	28.84
593.567	28.86
593.76	28.87
593.954	28.86
594.147	28.78
594.341	28.67
594.535	28.66
594.728	28.68
594.922	28.61
595.115	28.45
595.309	28.37
595.502	28.49
595.696	28.33
595.889	28.38
596.083	28.2
596.276	28.06
596.47	27.91
596.663	27.8
596.856	27.76
597.05	27.75
597.243	27.85
597.437	27.93
597.63	27.9
597.823	27.98
598.017	27.93
598.21	28.15
598.403	28.38
598.596	28.67
598.79	28.81
598.983	29.1
599.176	29.04
599.369	29.18
599.563	29.19
599.756	29.2
599.949	29.35
600.142	29.37
600.335	29.56
600.528	29.61
600.722	29.57
600.915	29.75
601.108	29.65
601.301	29.71
601.494	29.74
601.687	29.69
601.88	29.63
602.073	29.48
602.266	29.39
602.459	29.15
602.652	28.99
602.845	28.94
603.038	28.72
603.231	28.7
603.424	28.67
603.617	28.44
603.809	28.5
604.002	28.52
604.195	28.64
604.388	28.72
604.581	28.74
604.774	28.79
604.966	28.77
605.159	28.85
605.352	28.77
605.545	28.77
605.737	28.82
605.93	28.91
606.123	28.93
606.316	28.9
606.508	28.91
606.701	29.1
606.894	29.27
607.086	29.43
607.279	29.37
607.471	29.45
607.664	29.58
607.857	29.88
608.049	29.89
608.242	30.1
608.434	30.39
608.627	30.66
608.819	30.74
609.012	30.94
609.204	31.26
609.397	31.72
609.589	32.38
609.782	33
609.974	33.64
610.166	34.37
610.359	34.95
610.551	35.38
610.743	35.85
610.936	36.44
611.128	36.94
611.32	37.25
611.513	37.56
611.705	37.6
611.897	37.72
612.09	37.58
612.282	37.35
612.474	37.19
612.666	37.17
612.858	37.17
613.051	36.98
613.243	36.69
613.435	36.62
613.627	36.32
613.819	36.16
614.011	36.16
614.203	35.96
614.395	35.93
614.588	35.79
614.78	35.53
614.972	35.25
615.164	34.92
615.356	34.86
615.548	34.52
615.74	34.57
615.932	34.34
616.124	33.74
616.315	33.68
616.507	33.48
616.699	33.34
616.891	33.15
617.083	33
617.275	33.12
617.467	32.83
617.659	32.83
617.85	32.77
618.042	32.97
618.234	33.1
618.426	32.89
618.618	32.8
618.809	32.78
619.001	32.84
619.193	32.93
619.384	32.98
619.576	33.19
619.768	33
619.959	33.14
620.151	33.06
620.343	33.01
620.534	33.08
620.726	33.2
620.917	33.29
621.109	33.26
621.301	33.29
621.492	33.29
621.684	33.24
621.875	33.45
622.067	33.19
622.258	33.17
622.45	33.25
622.641	33.22
622.832	33.18
623.024	33.16
623.215	33.18
623.407	33.11
623.598	32.91
623.789	32.82
623.981	32.82
624.172	32.92
624.363	32.96
624.555	32.73
624.746	32.64
624.937	32.41
625.129	32.29
625.32	32.17
625.511	32.22
625.702	32.12
625.893	32.09
626.085	31.9
626.276	31.81
626.467	31.53
626.658	31.46
626.849	31.4
627.04	31.54
627.231	31.47
627.422	31.64
627.614	31.39
627.805	31.49
627.996	31.52
628.187	31.59
628.378	31.57
628.569	31.86
628.76	32.17
628.951	32.37
629.142	32.47
629.332	32.54
629.523	32.57
629.714	33
629.905	33.29
630.096	33.46
630.287	33.66
630.478	33.79
630.669	33.86
630.859	33.81
631.05	33.78
631.241	33.69
631.432	33.78
631.623	33.71
631.813	33.36
632.004	33.12
632.195	32.89
632.385	32.7
632.576	32.65
632.767	32.53
632.957	32.41
633.148	32.57
633.339	32.55
633.529	32.35
633.72	32.23
633.91	32.25
634.101	32.09
634.292	32.08
634.482	32.32
634.673	32.54
634.863	32.52
635.054	32.6
635.244	32.51
635.435	32.54
635.625	32.64
635.815	32.64
636.006	32.72
636.196	32.77
636.387	33.04
636.577	32.85
636.767	32.69
636.958	32.63
637.148	32.55
637.338	32.44
637.529	32.44
637.719	32.59
637.909	32.77
638.099	32.82
638.29	33.04
638.48	32.81
638.67	32.79
638.86	32.84
639.05	33.05
639.241	33.22
639.431	33.47
639.621	33.55
639.811	33.43
640.001	33.55
640.191	33.71
640.381	33.56
640.571	33.67
640.761	34.02
640.951	33.88
641.141	33.9
641.331	33.85
641.521	34.05
641.711	34.1
641.901	34.25
642.091	34.2
642.281	34.07
642.471	34.05
642.661	34.38
642.851	34.29
643.041	34.44
643.231	34.3
643.42	34.29
643.61	33.97
643.8	34.04
643.99	34.13
644.18	33.98
644.369	34.06
644.559	34.45
644.749	34.23
644.939	34.08
645.128	34.23
645.318	34.15
645.508	34.25
645.697	34.54
645.887	34.52
646.076	34.25
646.266	34.44
646.456	34.54
646.645	34.38
646.835	34.35
647.024	34.49
647.214	34.53
647.403	34.59
647.593	34.61
647.782	34.36
647.972	34.49
648.161	34.87
648.351	34.89
648.54	34.79
648.73	34.84
648.919	34.99
649.108	34.88
649.298	34.83
649.487	35.02
649.677	35.03
649.866	35.35
650.055	35.09
650.244	35.02
650.434	35.06
650.623	35.11
650.812	35.11
651.002	35.06
651.191	35.04
651.38	35.16
651.569	35.11
651.758	35.09
651.947	34.87
652.137	35.09
652.326	34.81
652.515	35.09
652.704	35.28
652.893	35.47
653.082	35.55
653.271	35.86
653.46	35.68
653.649	35.87
653.838	35.75
654.027	35.61
654.216	35.48
654.405	35.8
654.594	35.33
654.783	35.31
654.972	35.08
655.161	34.9
655.35	34.47
655.539	34.61
655.728	34.42
655.916	34.65
656.105	34.74
656.294	34.89
656.483	34.78
656.672	34.9
656.86	34.73
657.049	34.55
657.238	34.7
657.427	34.82
657.615	34.54
657.804	34.43
657.993	34.15
658.181	33.93
658.37	33.59
658.559	33.45
658.747	33.28
658.936	33.03
659.125	33.1
659.313	32.91
659.502	32.83
659.69	32.82
659.879	32.82
660.067	32.9
660.256	32.98
660.444	33.24
660.633	33.35
660.821	33.51
661.01	33.8
661.198	33.88
661.387	33.84
661.575	33.92
661.763	34.16
661.952	34.5
662.14	34.71
662.328	35.02
662.517	35.14
662.705	35.14
662.893	35.42
663.082	35.8
663.27	35.8
663.458	36.12
663.646	36.4
663.834	36.59
664.023	36.64
664.211	36.71
664.399	36.88
664.587	37.15
664.775	37.58
664.963	37.46
665.152	37.16
665.34	37.55
665.528	37.52
665.716	37.66
665.904	37.82
666.092	37.73
666.28	37.72
666.468	37.63
666.656	37.48
666.844	37.49
667.032	37.45
667.22	37.7
667.408	37.68
667.596	37.67
667.784	37.26
667.971	37.3
668.159	37.23
668.347	36.96
668.535	36.83
668.723	36.58
668.911	36.3
669.098	36.33
669.286	36.2
669.474	35.94
669.662	36.29
669.849	36.88
670.037	36.64
670.225	36.84
670.413	37.1
670.6	36.97
670.788	37.33
670.976	37.5
671.163	37.39
671.351	37.42
671.538	37.82
671.726	37.53
671.913	37.15
672.101	37.2
672.289	36.84
672.476	37.04
672.664	37.56
672.851	37.47
673.039	37.6
673.226	37.9
673.413	37.94
673.601	37.83
673.788	38.06
673.976	38.11
674.163	38.31
674.35	38.53
674.538	38.59
674.725	38.32
674.912	38.42
675.1	38.43
675.287	38.55
675.474	38.5
675.662	38.42
675.849	38.54
676.036	38.86
676.223	38.72
676.411	38.76
676.598	38.85
676.785	38.95
676.972	38.77
677.159	38.61
677.346	38.52
677.533	38.53
677.721	38.63
677.908	38.51
678.095	38.34
678.282	38.13
678.469	38.09
678.656	37.85
678.843	37.77
679.03	37.71
679.217	37.89
679.404	37.56
679.591	37.37
679.778	37.22
679.964	37.14
680.151	37.02
680.338	37.1
680.525	37.04
680.712	37.17
680.899	37.13
681.086	37.33
681.272	37.01
681.459	37.4
681.646	37.45
681.833	37.52
682.02	37.52
682.206	37.68
682.393	37.66
682.58	37.74
682.766	37.62
682.953	37.81
683.14	37.92
683.326	38.77
683.513	39.09
683.7	39.38
683.886	39.08
684.073	39.32
684.259	39.44
684.446	39.64
684.632	39.85
684.819	40.05
685.005	40.03
685.192	40.11
685.378	39.67
685.565	39.54
685.751	39.6
685.938	39.98
686.124	39.93
686.31	39.67
686.497	39.87
686.683	39.62
686.87	39.58
687.056	39.5
687.242	39.53
687.429	39.26
687.615	39.05
687.801	39.24
687.987	39.24
688.174	38.89
688.36	39.28
688.546	39.4
688.732	39.58
688.918	39.49
689.105	39.7
689.291	39.52
689.477	40.07
689.663	40.26
689.849	40.23
690.035	40.38
690.221	40.82
690.407	40.95
690.593	41.01
690.779	41.32
690.965	41.34
691.151	41.43
691.337	41.6
691.523	41.14
691.709	41.01
691.895	41.34
692.081	41.58
692.267	41.52
692.453	41.49
692.639	41.5
692.825	41.49
693.011	42
693.196	42.36
693.382	42.32
693.568	42.86
693.754	43.15
693.94	42.54
694.125	42.44
694.311	42.54
694.497	42.64
694.682	42.58
694.868	42.72
695.054	42.44
695.239	42.39
695.425	42.15
695.611	41.75
695.796	41.28
695.982	41.27
696.168	41.5
696.353	41.21
696.539	40.6
696.724	40.1
696.91	39.63
697.095	39.26
697.281	38.71
697.466	38.42
697.652	38.17
697.837	38
698.023	37.69
698.208	36.98
698.393	37.11
698.579	37.09
698.764	36.9
698.949	37
699.135	36.87
699.32	36.95
699.505	37.16
699.691	37.26
699.876	37.24
700.061	37.66
700.246	38.16
700.432	38.23
700.617	38.48
700.802	38.92
700.987	39.09
701.172	39.81
701.358	40.07
701.543	40.42
701.728	40.75
701.913	41.21
702.098	41.55
702.283	42.19
702.468	42.51
702.653	43.12
702.838	43.77
703.023	43.87
703.208	44.19
703.393	44.26
703.578	44.86
703.763	45.35
703.948	45.91
704.133	45.83
704.318	45.78
704.503	46
704.688	46.37
704.873	46.67
705.057	47.09
705.242	46.9
705.427	46.98
705.612	46.91
705.797	47.1
705.981	47.26
706.166	47.5
706.351	47.29
706.536	46.88
706.72	46.66
706.905	46.46
707.09	46.57
707.274	46.78
707.459	47.04
707.644	47.2
707.828	47.26
708.013	47.25
708.197	47.28
708.382	47.4
708.567	47.62
708.751	47.39
708.936	47.11
709.12	46.91
709.305	46.99
709.489	46.94
709.673	46.72
709.858	46.32
710.042	45.95
710.227	46
710.411	45.89
710.596	45.93
710.78	45.97
710.964	46.4
711.149	46.32
711.333	46.1
711.517	46.3
711.702	46.01
711.886	45.99
712.07	46
712.254	46.18
712.438	46.36
712.623	46.5
712.807	46.25
712.991	45.72
713.175	45.78
713.359	45.64
713.544	45.13
713.728	45.28
713.912	45.22
714.096	45.09
714.28	44.69
714.464	44.69
714.648	44.45
714.832	44.91
715.016	45.05
715.2	45.07
715.384	45.32
715.568	45.16
715.752	44.68
715.936	44.61
716.12	44.4
716.304	44.43
716.488	44.21
716.671	44.21
716.855	44.17
717.039	44.06
717.223	43.92
717.407	43.72
717.59	44.41
717.774	45.09
717.958	45.27
718.142	45.84
718.325	45.93
718.509	46.1
718.693	46.22
718.877	45.87
719.06	46.3
719.244	46.35
719.428	46.55
719.611	46.7
719.795	46.67
719.978	47.01
720.162	47.24
720.345	47.43
720.529	47.7
720.713	47.82
720.896	48.36
721.08	48.55
721.263	49.18
721.446	49.49
721.63	49.94
721.813	50.14
721.997	50.25
722.18	50.09
722.364	50.52
722.547	50.49
722.73	50.74
722.914	51.16
723.097	50.99
723.28	50.44
723.464	50.39
723.647	50.08
723.83	50.19
724.013	50.01
724.197	50.22
724.38	50.29
724.563	50.08
724.746	50.28
724.929	50.18
725.112	50.64
725.296	50.74
725.479	50.51
725.662	50
725.845	50.23
726.028	49.78
726.211	49.35
726.394	48.65
726.577	48.35
726.76	48.3
726.943	48.08
727.126	47.98
727.309	47.88
727.492	47.8
727.675	47.95
727.858	47.56
728.041	48.22
728.224	48.86
728.407	48.77
728.589	49.39
728.772	49.21
728.955	48.83
729.138	48.32
729.321	48.38
729.503	48.79
729.686	49.37
729.869	49.55
730.052	49.13
730.234	48.87
730.417	48.86
730.6	48.58
730.782	48.39
730.965	48.29
731.148	48.45
731.33	48.65
731.513	48.77
731.695	47.81
731.878	47.59
732.061	47.76
732.243	48.13
732.426	48.28
732.608	48.15
732.791	48.4
732.973	48.6
733.156	48.67
733.338	48.76
733.52	48.86
733.703	49.73
733.885	50.06
734.068	50.35
734.25	50.11
734.432	50.29
734.615	50.62
734.797	50.5
734.979	50.64
735.162	51.24
735.344	51.15
735.526	50.81
735.708	50.65
735.891	50.79
736.073	51.04
736.255	51.52
736.437	51.29
736.619	51.41
736.802	52.14
736.984	52.47
737.166	52.74
737.348	53.13
737.53	53.51
737.712	53.8
737.894	54.04
738.076	54.22
738.258	53.91
738.44	54.3
738.622	54.59
738.804	54.61
738.986	54.61
739.168	54.71
739.35	54.87
739.532	54.91
739.714	54.91
739.896	54.49
740.078	54.57
740.259	54.87
740.441	55.27
740.623	55.47
740.805	55.31
740.987	55.61
741.168	55.51
741.35	55.32
741.532	56.03
741.714	56.51
741.895	56.99
742.077	57.62
742.259	57.95
742.44	58.77
742.622	59
742.804	59.07
742.985	58.74
743.167	58.57
743.348	59.03
743.53	58.7
743.711	58.38
743.893	58.55
744.075	58.35
744.256	58.08
744.438	58.04
744.619	57.83
744.8	58.01
744.982	58.82
745.163	59.11
745.345	59.41
745.526	59.7
745.707	60.08
745.889	60.06
746.07	59.74
746.252	60.78
746.433	59.97
746.614	60.38
746.795	60.85
746.977	60.85
747.158	60.7
747.339	60.33
747.52	60.34
747.702	60.4
747.883	60.3
748.064	60.54
748.245	59.75
748.426	60.37
748.607	60.79
748.788	60.38
748.97	60.28
749.151	60.59
749.332	61.31
749.513	61.08
749.694	61.42
749.875	62.16
750.056	63.34
750.237	63.17
750.418	63.5
750.599	63.29
750.78	63.24
750.96	62.78
751.141	61.94
751.322	61.86
751.503	62.17
751.684	61.58
751.865	61.34
752.046	60
752.226	60.14
752.407	60.27
752.588	59.79
752.769	60.75
752.949	61.02
753.13	62.7
753.311	62.25
753.492	61.24
753.672	61.06
753.853	60.93
754.034	61
754.214	61.22
754.395	60.71
754.575	60.82
754.756	60.57
754.937	60.93
755.117	59.71
755.298	59.9
755.478	60.62
755.659	60.93
755.839	61.03
756.02	61.66
756.2	62.1
756.381	62.07
756.561	62.52
756.741	62.32
756.922	62.65
757.102	63.25
757.283	63.57
757.463	63.87
757.643	63.87
757.823	63.85
758.004	63
758.184	62.52
758.364	61.81
758.545	61.12
758.725	60.43
758.905	59.35
759.085	59.03
759.265	58.28
759.446	57.46
759.626	57.19
759.806	56.64
759.986	56.32
760.166	56.55
760.346	57.33
760.526	57.43
760.706	57.67
760.886	57.87
761.066	57.37
761.246	56.95
761.426	56.72
761.606	55.49
761.786	55.22
761.966	54.8
762.146	53.4
762.326	52.46
762.506	51.79
762.686	50.99
762.866	50.26
763.046	49.95
763.225	49.54
763.405	48.67
763.585	48.36
763.765	47.79
763.945	47.75
764.124	47.89
764.304	48.11
764.484	48.19
764.664	48.51
764.843	49.29
765.023	49.65
765.203	50.21
765.382	51.56
765.562	53.11
765.741	54.12
765.921	55.26
766.101	55.74
766.28	56.26
766.46	56.68
766.639	57.29
766.819	57.52
766.998	58.54
767.178	59.41
767.357	59.3
767.537	59.82
767.716	60.64
767.896	60.3
768.075	60.45
768.254	60.56
768.434	61.23
768.613	62.35
768.792	62.02
768.972	62.23
769.151	61.63
769.33	62.26
769.51	62.81
769.689	63.36
769.868	64.99
770.047	67.04
770.226	67.75
770.406	68.07
770.585	68.33
770.764	69.03
770.943	69.65
771.122	70.71
771.301	71.69
771.48	70.75
771.66	70.98
771.839	70.66
772.018	69.72
772.197	70.24
772.376	70.92
772.555	71
772.734	72.28
772.913	71.12
773.092	71.64
773.271	71.13
773.449	71.94
773.628	71.25
773.807	70.93
773.986	71.26
774.165	70.79
774.344	71.26
774.523	70.76
774.701	69.88
774.88	71.28
775.059	70.53
775.238	70.18
775.417	70.61
775.595	70.93
775.774	71.11
775.953	70.06
776.131	70.01
776.31	69.32
776.489	69.66
776.667	69.99
776.846	69.66
777.025	69.81
777.203	70.96
777.382	70.75
777.56	70.33
777.739	70.23
777.917	71.27
778.096	70.95
778.274	70.61
778.453	70.27
778.631	70.49
778.81	69.47
778.988	69.54
779.166	68.96
779.345	68.8
779.523	69.1
779.702	70.01
779.88	70.45
780.058	71.4
780.237	71.66
780.415	71.73
780.593	72.02
780.771	73.87
780.95	74.8
781.128	75.31
781.306	75.18
781.484	75.36
781.662	75.15
781.841	74.93
782.019	74.17
782.197	74.86
782.375	74.79
782.553	75.16
782.731	74.77
782.909	75.28
783.087	76.06
783.265	77.43
783.443	77.84
783.621	78.11
783.799	78.92
783.977	80.66
784.155	80.41
784.333	81.34
784.511	80.17
784.689	80.14
784.867	79.79
785.045	78.15
785.223	76.74
785.4	76.67
785.578	75.73
785.756	75.24
785.934	73.94
786.112	74.76
786.289	74
786.467	74.85
786.645	74.87
786.823	74.43
787	76.18
787.178	76.33
787.356	75.13
787.533	74.57
787.711	74.48
787.889	74.35
788.066	72.69
788.244	72.13
788.421	71.87
788.599	70.71
788.776	69.75
788.954	68.62
789.131	68.95
789.309	70.34
789.486	70.74
789.664	71.93
789.841	72.47
790.019	73.66
790.196	74.75
790.373	73.04
790.551	74.98
790.728	76.56
790.906	77.28
791.083	77.99
791.26	78.62
791.437	78.95
791.615	77.15
791.792	77.7
791.969	78.02
792.146	79.03
792.324	81.57
792.501	81.01
792.678	81.6
792.855	81.69
793.032	80.91
793.209	80.35
793.387	80.25
793.564	81.39
793.741	81.47
793.918	81.18
794.095	80.78
794.272	79.5
794.449	78.98
794.626	79.69
794.803	79.26
794.98	79.49
795.157	79.04
795.334	78.87
795.511	77.79
795.688	77.43
795.864	76.48
796.041	77.02
796.218	78.25
796.395	77.29
796.572	75.53
796.749	76.66
796.925	76.65
797.102	77.71
797.279	78.14
797.456	77.99
797.632	77.38
797.809	77.81
797.986	76.87
798.162	76.83
798.339	77.77
798.516	78.34
798.692	78.33
798.869	77.71
799.046	75.8
799.222	76.8
799.399	77.3
799.575	77.93
799.752	78.92
799.928	79.18
800.105	78.16
800.281	78.1
800.458	78.53
800.634	77.31
800.811	78.38
800.987	80.38
801.163	79.91
801.34	81.56
801.516	82.3
801.692	83.5
801.869	82.73
802.045	84.85
802.221	85.13
802.398	83.85
802.574	84.63
802.75	86.02
802.926	85.05
803.103	86.46
803.279	85.95
803.455	86.39
803.631	85.15
803.807	87.53
803.983	87.39
804.16	88.3
804.336	88.94
804.512	89.85
804.688	90.16
804.864	91.2
805.04	91.09
805.216	90.69
805.392	90.11
805.568	90.76
805.744	90.13
805.92	90.71
806.096	91.88
806.272	94
806.448	94.86
806.623	94.01
806.799	94.06
806.975	91.67
807.151	93.7
807.327	93.48
807.503	92.7
807.678	92.64
807.854	92.69
808.03	92.12
808.206	91.81
808.381	89.36
808.557	89.86
808.733	89.64
808.908	90.41
809.084	90.57
809.26	89.14
809.435	89.5
809.611	88.52
809.787	86.17
809.962	85.86
810.138	85.48
810.313	85.58
810.489	85.77
810.664	86.69
810.84	86.22
811.015	84.67
811.191	86.52
811.366	87.84
811.542	88.81
811.717	90.2
811.892	91.21
812.068	90.61
812.243	92.63
812.419	92.36
812.594	92.26
812.769	93.05
812.944	92.83
813.12	92.82
813.295	91.7
813.47	91.33
813.645	92.62
813.821	91.84
813.996	92.38
814.171	92.79
814.346	91.84
814.521	92.49
814.697	93.79
814.872	94.05
815.047	94.25
815.222	95.82
815.397	96.27
815.572	96.48
815.747	96.31
815.922	96.09
816.097	94.88
816.272	94.27
816.447	95.51
816.622	95.2
816.797	95.57
816.972	95.78
817.147	92.91
817.322	92.06
817.496	90.87
817.671	91.64
817.846	91.82
818.021	91.34
818.196	92.25
818.371	90.45
818.545	90.21
818.72	88.34
818.895	87.44
819.069	86.21
819.244	86.3
819.419	83.05
819.594	80.08
819.768	76.96
819.943	74.32
820.117	70.21
820.292	66.89
820.467	63.14
820.641	60.66
820.816	57.97
820.99	55.43
821.165	52.31
821.339	49.9
821.514	47.89
821.688	46.3
821.863	44.9
822.037	43.82
822.212	42.94
822.386	42
822.56	41.35
822.735	40.91
822.909	40.57
823.084	40.51
823.258	40.61
823.432	40.77
823.606	41.13
823.781	41.59
823.955	42.03
824.129	42.81
824.303	43.75
824.478	44.69
824.652	45.33
824.826	46.09
825	47.06
825.174	48.08
825.348	48.66
825.523	49.69
825.697	50.55
825.871	51.81
826.045	51.49
826.219	51.96
826.393	52.17
826.567	51.76
826.741	52.34
826.915	52.21
827.089	52.78
827.263	53.27
827.437	52.97
827.611	52.95
827.784	52.79
827.958	53.27
828.132	53.06
828.306	53.48
828.48	54.84
828.654	55.38
828.827	56.24
829.001	57.05
829.175	58.38
829.349	60.27
829.522	62.31
829.696	64.08
829.87	66.58
830.044	70.99
830.217	73.95
830.391	76.72
830.565	79.59
830.738	83.65
830.912	85.88
831.085	86.95
831.259	88.21
831.432	87.21
831.606	89.03
831.779	87.3
831.953	84.52
832.126	82.5
832.3	79.37
832.473	77.16
832.647	73.56
832.82	71.73
832.994	70.56
833.167	69.15
833.34	67.63
833.514	63.98
833.687	63.03
833.86	61.83
834.034	60.82
834.207	60.88
834.38	60.17
834.553	59.92
834.727	59.47
834.9	59
835.073	58.97
835.246	60.83
835.419	63.25
835.593	65
835.766	66.24
835.939	67.57
836.112	68.92
836.285	70.54
836.458	73.07
836.631	76.68
836.804	79.95
836.977	81.85
837.15	84.54
837.323	86.56
837.496	88.17
837.669	92.53
837.842	94.91
838.015	98.11
838.188	99.87
838.361	103.05
838.533	103.25
838.706	102.42
838.879	102.34
839.052	100.14
839.225	102.84
839.398	101.98
839.57	99.85
839.743	100.86
839.916	99.34
840.088	101.33
840.261	100.27
840.434	100.03
840.607	101.71
840.779	103.77
840.952	104.94
841.124	103.24
841.297	104.24
841.47	105.5
841.642	107.08
841.815	109.69
841.987	110.73
842.16	113.55
842.332	115.25
842.505	119.07
842.677	118.3
842.85	121.07
843.022	125.35
843.194	130.9
843.367	134.39
843.539	139.31
843.712	136.51
843.884	139.03
844.056	140.37
844.229	146.31
844.401	149.76
844.573	159.26
844.745	162.38
844.918	158.66
845.09	156.37
845.262	161.87
845.434	157.16
845.606	171.26
845.779	170.46
845.951	173.61
846.123	170.81
846.295	167.94
846.467	164.68
846.639	170.8
846.811	172.39
846.983	170.33
847.155	169.1
847.327	170.56
847.499	164.37
847.671	166.46
847.843	165.98
848.015	166.34
848.187	162.88
848.359	171.88
848.531	165.16
848.703	162.79
848.875	168.7
849.047	167.28
849.218	171.66
849.39	176.95
849.562	183.6
849.734	184.38
849.905	191.97
850.077	202.28
850.249	194.8
850.421	195.94
850.592	195.32
850.764	195.32
850.936	204.39
851.107	202.34
851.279	198.11
851.451	189.77
851.622	194.37
851.794	189.03
851.965	182.97
852.137	180.95
852.308	186.09
852.48	193.59
852.651	195.35
852.823	192.83
852.994	195.38
853.166	197.73
853.337	201.84
853.509	198.62
853.68	200.35
853.851	205.53
854.023	212.39
854.194	212.48
854.365	217.44
854.537	221.22
854.708	222.87
854.879	221.74
855.05	223.97
855.222	225.24
855.393	227.85
855.564	229.37
855.735	230.96
855.906	228.9
856.078	217.5
856.249	207.85
856.42	199.62
856.591	192.69
856.762	189.65
856.933	189.65
857.104	180.59
857.275	177.09
857.446	178.52
857.617	176.35
857.788	176.06
857.959	180.36
858.13	186.27
858.301	192.95
858.472	198.74
858.643	206.79
858.814	208.26
858.985	217.66
859.155	221.2
859.326	211.02
859.497	214.2
859.668	216.92
859.839	216.98
860.009	215.97
860.18	211.27
860.351	207.7
860.522	198.66
860.692	188.11
860.863	190.53
861.034	198.09
861.204	203.82
861.375	198.56
861.546	199.28
861.716	202.78
861.887	206.54
862.057	214.36
862.228	213.77
862.398	225.44
862.569	236.62
862.739	235.37
862.91	224.12
863.08	221.7
863.251	223.52
863.421	219.84
863.592	219.37
863.762	212
863.932	198.55
864.103	200.24
864.273	191.23
864.443	191.91
864.614	195.89
864.784	191.36
864.954	191.29
865.125	198.4
865.295	194.66
865.465	191.97
865.635	192.79
865.805	209.89
865.976	207.67
866.146	206.16
866.316	201.7
866.486	200.51
866.656	206.02
866.826	208.25
866.996	199.79
867.166	212.31
867.336	212.3
867.506	217.85
867.676	202.06
867.846	203.75
868.016	214.19
868.186	213.63
868.356	212.89
868.526	206.73
868.696	201.24
868.866	205.74
869.036	194.42
869.206	194.1
869.376	192.78
869.545	198.93
869.715	202.92
869.885	201.57
870.055	205.27
870.224	201.79
870.394	203.4
870.564	209.56
870.734	209.16
870.903	210.81
871.073	215.44
871.243	208.07
871.412	202.56
871.582	198.1
871.751	196.6
871.921	199.27
872.091	203.08
872.26	205.09
872.43	205.79
872.599	196.37
872.769	197.96
872.938	195.71
873.108	193.89
873.277	189.98
873.446	190.22
873.616	191.04
873.785	188.41
873.955	185.74
874.124	195.11
874.293	193.5
874.463	201
874.632	196.61
874.801	194.52
874.971	206.61
875.14	219.89
875.309	215.79
875.478	211.3
875.647	210.07
875.817	215.35
875.986	206.15
876.155	201.84
876.324	202.06
876.493	201.27
876.662	208.84
876.831	198.88
877	194.85
877.17	196.23
877.339	193.02
877.508	187.44
877.677	178.95
877.846	170.03
878.015	171.32
878.184	167.66
878.352	167.25
878.521	159.4
878.69	157.45
878.859	149.18
879.028	148.42
879.197	146.24
879.366	139.19
879.534	130.76
879.703	127.19
879.872	118.22
880.041	110.67
880.21	105.63
880.378	99.03
880.547	90
880.716	86.53
880.884	78.99
881.053	75.39
881.222	71.8
881.39	68.63
881.559	66.43
881.727	64.08
881.896	61.64
882.065	59.61
882.233	58.48
882.402	58.37
882.57	57.23
882.739	57.18
882.907	56.15
883.076	56.2
883.244	56.72
883.412	57.6
883.581	58.05
883.749	59.54
883.918	60.58
884.086	61.88
884.254	64.58
884.423	67.03
884.591	69.55
884.759	73.03
884.927	76.09
885.096	79.92
885.264	83.83
885.432	90.18
885.6	94.03
885.769	99.12
885.937	104.64
886.105	107.39
886.273	111.83
886.441	117.1
886.609	122.14
886.777	132.15
886.945	139.17
887.113	146.59
887.281	147.76
887.449	153.82
887.617	159.95
887.785	169.57
887.953	179.85
888.121	182.66
888.289	192.38
888.457	196.61
888.625	192.12
888.793	199.92
888.961	195.3
889.129	203.19
889.296	215.46
889.464	219.68
889.632	216.16
889.8	212.1
889.967	225.17
890.135	221.79
