Data from 2938734__Reflection_02.txt Node
Date: Sun Mar 15 18:28:21 EDT 2015
User: robert
Spectrometer: USB4E03002
Autoset integration time: false
Trigger mode: 4
Integration Time (sec): 1.000000E-1
Scans to average: 10
Electric dark correction enabled: false
Nonlinearity correction enabled: false
Boxcar width: 5
Stray light correction enabled: false
XAxis mode: Wavelengths
Stop averaging: false
Number of Pixels in Spectrum: 3648
>>>>>Begin Spectral Data<<<<<
177.575	306.81
177.794	315.63
178.014	277.63
178.233	389.55
178.452	421.17
178.672	262
178.891	325.95
179.11	430.08
179.33	418.55
179.549	-6883.33
179.768	1282.61
179.987	331.16
180.207	177.61
180.426	171.3
180.645	188.18
180.864	263.49
181.084	316.22
181.303	462.2
181.522	-1577.27
181.741	-367.44
181.96	-1929.41
182.179	-1276.92
182.398	-303.97
182.618	-208.02
182.837	-127.3
183.056	-289.87
183.275	-2155.56
183.494	-215.03
183.713	815.38
183.932	201.62
184.151	138.66
184.37	169.66
184.589	143.75
184.808	155.88
185.027	215.16
185.246	97.26
185.465	192.79
185.684	230.5
185.903	181.19
186.122	316
186.341	1392.86
186.56	1041.54
186.779	5428.57
186.998	1303.45
187.216	-4700
187.435	-4928.57
187.654	-244.31
187.873	-1248.65
188.092	468.75
188.311	626.42
188.53	317.97
188.748	186.51
188.967	280
189.186	-2918.18
189.405	1203.57
189.623	256.46
189.842	154.44
190.061	116.92
190.28	138.99
190.498	181.02
190.717	241.03
190.936	241.18
191.154	262.12
191.373	312.44
191.592	230.66
191.81	206.41
192.029	273.68
192.248	294.76
192.466	277.27
192.685	253.33
192.904	230.37
193.122	214.96
193.341	273.67
193.559	258.58
193.778	274.16
193.996	217.7
194.215	261.89
194.433	210.69
194.652	236.67
194.87	297.9
195.089	330.91
195.307	362.15
195.526	382.81
195.744	544.25
195.963	493.44
196.181	630.85
196.399	-1040
196.618	-1330.95
196.836	13220
197.055	-1126.47
197.273	-182.45
197.491	-300
197.71	-246.31
197.928	-217.81
198.146	3972.22
198.365	-511.11
198.583	-141.51
198.801	-391.58
199.019	-636.84
199.238	7425
199.456	201.9
199.674	101.34
199.892	185.91
200.111	207.54
200.329	232.84
200.547	333.66
200.765	310.65
200.983	370.78
201.202	359.76
201.42	560
201.638	367.63
201.856	1632.56
202.074	-624.21
202.292	-2519.05
202.51	-4658.33
202.728	372.44
202.946	275.36
203.165	551.72
203.383	519.42
203.601	345.67
203.819	268.46
204.037	246.3
204.255	186.03
204.473	164.72
204.691	158.62
204.909	135.04
205.127	226.24
205.345	230.38
205.562	142.43
205.78	111.73
205.998	115.46
206.216	139.24
206.434	164.07
206.652	152.96
206.87	159.6
207.088	169.94
207.306	173.22
207.523	128.4
207.741	128.03
207.959	127.84
208.177	132.21
208.395	139.17
208.612	126.29
208.83	120.91
209.048	130.43
209.266	124.27
209.483	127.66
209.701	160.53
209.919	147.02
210.136	158.79
210.354	152.48
210.572	154.5
210.79	131.29
211.007	159.63
211.225	162.33
211.442	130.78
211.66	135.7
211.878	110.26
212.095	-19.7
212.313	-23.12
212.53	-22.43
212.748	-13.09
212.966	-33.42
213.183	-35.9
213.401	-43.1
213.618	-36.72
213.836	-41.29
214.053	-28.88
214.271	-23.7
214.488	93.2
214.705	86.96
214.923	104.23
215.14	90.46
215.358	98.42
215.575	116.41
215.793	94.26
216.01	89.64
216.227	100.92
216.445	127.29
216.662	151.03
216.879	120.23
217.097	116.38
217.314	133.25
217.531	154.58
217.749	126.75
217.966	111.75
218.183	135.37
218.4	111.32
218.618	90.53
218.835	84
219.052	77.09
219.269	69.4
219.487	72.48
219.704	58.99
219.921	57.69
220.138	54.44
220.355	49.64
220.572	35.98
220.79	31.68
221.007	40.36
221.224	40.11
221.441	36.33
221.658	24.39
221.875	30.88
222.092	30.49
222.309	19.16
222.526	27.31
222.743	36.2
222.96	41.6
223.177	43.35
223.394	33
223.611	32.51
223.828	23.1
224.045	25.51
224.262	21.1
224.479	20.53
224.696	27.98
224.913	22.86
225.13	20.67
225.347	20.48
225.564	20.46
225.781	23.64
225.997	23.46
226.214	25.12
226.431	24.42
226.648	24.29
226.865	20.81
227.082	14.62
227.298	13.84
227.515	11.83
227.732	10.31
227.949	9.54
228.165	8.24
228.382	8.19
228.599	7.56
228.816	7.82
229.032	7.39
229.249	7.2
229.466	8.79
229.682	8.64
229.899	8.27
230.116	8.79
230.332	9.14
230.549	9.63
230.765	9.56
230.982	10.62
231.199	9.26
231.415	9.72
231.632	10.53
231.848	8.8
232.065	9.32
232.281	10.08
232.498	8.13
232.714	8.3
232.931	7.41
233.147	8.37
233.364	7.42
233.58	10.03
233.797	8.3
234.013	9.36
234.23	11.55
234.446	11.5
234.662	13.56
234.879	14.4
235.095	12.75
235.312	13.41
235.528	12.84
235.744	12.34
235.961	12.15
236.177	13.78
236.393	13.18
236.61	13.19
236.826	14.26
237.042	11.48
237.258	10.88
237.475	12.84
237.691	12.97
237.907	14.02
238.123	12.9
238.339	12.46
238.556	12.42
238.772	11.93
238.988	9.47
239.204	7.27
239.42	8.32
239.636	9.79
239.853	9.16
240.069	8.8
240.285	8.23
240.501	8.64
240.717	8.22
240.933	6.51
241.149	6.03
241.365	5.75
241.581	5.93
241.797	5.91
242.013	5.42
242.229	4.92
242.445	4.94
242.661	4.54
242.877	4.73
243.093	4.33
243.309	4.84
243.525	5.17
243.741	5.38
243.957	5.94
244.173	5.92
244.388	6.1
244.604	6.14
244.82	5.29
245.036	5.51
245.252	5.17
245.468	5.55
245.683	5.12
245.899	5.12
246.115	5.09
246.331	4.96
246.547	4.41
246.762	3.83
246.978	4.01
247.194	4.22
247.409	3.97
247.625	4.15
247.841	4.36
248.057	4.47
248.272	4.67
248.488	4.83
248.703	4.52
248.919	5.23
249.135	5.88
249.35	5.58
249.566	5.84
249.782	6.71
249.997	7.31
250.213	6.91
250.428	6.52
250.644	5.84
250.859	5.83
251.075	6.29
251.29	5.94
251.506	5.58
251.721	6.1
251.937	5.65
252.152	5.32
252.368	4.9
252.583	5.63
252.798	6.16
253.014	6.53
253.229	6.52
253.445	7.3
253.66	7.2
253.875	7.67
254.091	7.59
254.306	8.06
254.521	8.24
254.737	8.53
254.952	7.76
255.167	7.54
255.383	6.85
255.598	7.59
255.813	6.3
256.028	6.63
256.244	6.23
256.459	6.54
256.674	6.13
256.889	5.34
257.104	4.68
257.32	5.53
257.535	5.24
257.75	5.24
257.965	4.83
258.18	4.39
258.395	3.7
258.61	3.69
258.826	3.34
259.041	3.24
259.256	3.62
259.471	3.44
259.686	2.93
259.901	3.02
260.116	2.92
260.331	2.73
260.546	2.9
260.761	3.11
260.976	3.05
261.191	3.47
261.406	3.57
261.621	3.48
261.836	3.8
262.05	4.27
262.265	4.49
262.48	4.57
262.695	4.95
262.91	4.78
263.125	4.97
263.34	5.16
263.555	5.34
263.769	5.51
263.984	5.07
264.199	4.8
264.414	3.94
264.629	3.56
264.843	4.03
265.058	4.24
265.273	4.24
265.488	4
265.702	3.57
265.917	3.43
266.132	3.55
266.346	3.75
266.561	3.59
266.776	3.02
266.99	3.17
267.205	3.12
267.42	2.73
267.634	2.85
267.849	3.1
268.063	3.47
268.278	3.24
268.492	2.88
268.707	2.81
268.922	3.09
269.136	4.1
269.351	3.79
269.565	3.73
269.78	3.85
269.994	3.62
270.209	2.89
270.423	2.55
270.637	2.33
270.852	2.36
271.066	2.79
271.281	2.6
271.495	2.52
271.709	2.46
271.924	2.49
272.138	2.3
272.353	2.8
272.567	2.67
272.781	2.99
272.996	3.26
273.21	3.44
273.424	2.99
273.638	3.32
273.853	3.44
274.067	3.29
274.281	3.76
274.495	3.94
274.71	3.44
274.924	4.12
275.138	3.75
275.352	3.55
275.566	3.58
275.781	4.19
275.995	3.89
276.209	3.46
276.423	4.04
276.637	3.2
276.851	3.35
277.065	3.48
277.279	3.18
277.493	3.43
277.707	3.63
277.921	3.91
278.135	3.35
278.349	3.22
278.563	3.56
278.777	3.41
278.991	4.06
279.205	3.53
279.419	3.81
279.633	4.33
279.847	4.21
280.061	4.68
280.275	4.37
280.489	4.32
280.703	4.38
280.917	4.74
281.131	4.92
281.344	4.31
281.558	4.63
281.772	4.61
281.986	4.24
282.2	4.4
282.414	4.26
282.627	3.91
282.841	4.13
283.055	4.76
283.269	4.34
283.482	4
283.696	4.11
283.91	4.14
284.123	3.98
284.337	3.94
284.551	3.65
284.764	3.46
284.978	4.04
285.192	4.07
285.405	3.75
285.619	3.79
285.833	4.16
286.046	4.26
286.26	4.34
286.473	3.89
286.687	4.08
286.9	4.29
287.114	4.23
287.327	3.99
287.541	3.83
287.754	3.56
287.968	3.59
288.181	3.13
288.395	3.29
288.608	3.21
288.822	3.92
289.035	3.7
289.248	3.91
289.462	4.12
289.675	4.18
289.889	4.45
290.102	4.36
290.315	4.2
290.529	4.44
290.742	4.48
290.955	4.51
291.169	4.24
291.382	4.38
291.595	4.54
291.808	4.19
292.022	4.21
292.235	4.19
292.448	4.48
292.661	4.62
292.875	4.48
293.088	4.34
293.301	4.42
293.514	4.85
293.727	4.77
293.94	4.45
294.153	4.41
294.367	4.3
294.58	4.05
294.793	4.01
295.006	4.28
295.219	4.09
295.432	3.93
295.645	3.82
295.858	3.68
296.071	3.8
296.284	3.56
296.497	3.7
296.71	3.79
296.923	3.99
297.136	4.1
297.349	3.84
297.562	4.17
297.775	4.48
297.988	4.52
298.201	4.51
298.414	4.34
298.626	4.64
298.839	4.75
299.052	4.98
299.265	4.89
299.478	4.97
299.691	5.06
299.903	4.84
300.116	4.82
300.329	4.7
300.542	5.01
300.755	5.26
300.967	5.13
301.18	5.21
301.393	5.13
301.605	5.05
301.818	5.04
302.031	5.32
302.243	5.18
302.456	4.96
302.669	4.96
302.881	4.58
303.094	4.81
303.307	5.09
303.519	5.11
303.732	5.05
303.944	5.29
304.157	5.28
304.37	4.85
304.582	5.17
304.795	5.29
305.007	5.33
305.22	5.29
305.432	4.75
305.645	5.02
305.857	5.12
306.069	5.28
306.282	4.95
306.494	5.09
306.707	5.58
306.919	5.23
307.132	5.25
307.344	5.84
307.556	5.89
307.769	6.43
307.981	5.9
308.193	5.72
308.406	5.52
308.618	5.89
308.83	5.92
309.043	5.58
309.255	5.79
309.467	5.44
309.679	5.01
309.892	5.1
310.104	4.96
310.316	4.8
310.528	4.83
310.74	4.9
310.953	4.81
311.165	4.78
311.377	5.05
311.589	5.11
311.801	5.48
312.013	5.66
312.225	5.48
312.437	5.42
312.649	6.18
312.862	6.11
313.074	6.13
313.286	6.15
313.498	5.91
313.71	5.8
313.922	5.56
314.134	5.49
314.346	5.44
314.558	5.63
314.77	5.75
314.982	4.61
315.193	4.57
315.405	4.96
315.617	4.54
315.829	4.85
316.041	4.99
316.253	5.43
316.465	5.7
316.677	5.49
316.888	5.59
317.1	5.62
317.312	6.53
317.524	6.42
317.736	6.63
317.947	7.25
318.159	7.18
318.371	7.1
318.583	7.1
318.794	6.88
319.006	7.28
319.218	7.31
319.43	6.82
319.641	6.41
319.853	6.76
320.064	6.47
320.276	6.66
320.488	6.98
320.699	7.73
320.911	8.18
321.123	8.04
321.334	7.5
321.546	7.58
321.757	7.92
321.969	7.84
322.18	7.88
322.392	7.72
322.603	7.08
322.815	6.6
323.026	5.98
323.238	5.59
323.449	6.11
323.661	6.34
323.872	6.24
324.083	6.31
324.295	6.55
324.506	6.25
324.718	6.08
324.929	6.07
325.14	5.98
325.352	6.19
325.563	6.35
325.774	6.04
325.986	6.42
326.197	6.83
326.408	6.8
326.62	6.77
326.831	7
327.042	7.21
327.253	7.81
327.464	8.03
327.676	7.81
327.887	7.78
328.098	7.59
328.309	7.72
328.52	7.66
328.732	8.04
328.943	7.88
329.154	8.29
329.365	8.41
329.576	8.26
329.787	8.4
329.998	8.64
330.209	8.46
330.42	8.81
330.631	8.96
330.842	8.65
331.053	8.37
331.264	8.94
331.475	8.71
331.686	8.66
331.897	8.86
332.108	8.86
332.319	8.56
332.53	8.71
332.741	8.85
332.952	8.73
333.163	8.62
333.374	8.83
333.585	8.53
333.795	8.25
334.006	8.22
334.217	8.01
334.428	8.1
334.639	8.26
334.849	8.44
335.06	8.38
335.271	8.26
335.482	8.83
335.692	8.98
335.903	8.95
336.114	8.89
336.325	9.15
336.535	8.89
336.746	8.65
336.957	8.27
337.167	8.28
337.378	8.08
337.589	8.2
337.799	7.95
338.01	7.54
338.22	7.63
338.431	7.98
338.642	7.67
338.852	7.4
339.063	7.78
339.273	8.3
339.484	8.1
339.694	8.42
339.905	8.1
340.115	7.9
340.326	8.18
340.536	8.46
340.746	8.29
340.957	8.24
341.167	8.67
341.378	8.55
341.588	8.48
341.799	8.3
342.009	8.42
342.219	7.97
342.43	8.07
342.64	8
342.85	7.88
343.061	7.84
343.271	8.03
343.481	8.23
343.691	7.81
343.902	7.81
344.112	8.26
344.322	7.85
344.532	8.4
344.743	8.4
344.953	8.33
345.163	7.97
345.373	8.31
345.583	8.22
345.793	7.96
346.004	8.34
346.214	8.25
346.424	8.1
346.634	7.92
346.844	7.98
347.054	7.79
347.264	7.98
347.474	8.1
347.684	7.85
347.894	7.37
348.104	7.01
348.314	7.15
348.524	7.04
348.734	6.7
348.944	6.69
349.154	6.75
349.364	6.66
349.574	6.19
349.784	6.17
349.994	6.22
350.204	6.86
350.413	7.35
350.623	6.8
350.833	7.05
351.043	7.23
351.253	7.56
351.463	7.35
351.672	7.56
351.882	7.85
352.092	8.01
352.302	7.89
352.511	7.62
352.721	7.44
352.931	7.49
353.141	7.19
353.35	7.17
353.56	7
353.77	6.84
353.979	6.68
354.189	6.38
354.399	6.11
354.608	6.35
354.818	6.29
355.027	6.21
355.237	6.38
355.447	6.67
355.656	6.62
355.866	6.39
356.075	6.3
356.285	6.46
356.494	6.74
356.704	6.73
356.913	6.62
357.123	6.65
357.332	6.7
357.542	6.54
357.751	6.48
357.96	6.53
358.17	6.81
358.379	7.29
358.589	7.16
358.798	7.23
359.007	7.37
359.217	7.26
359.426	7.32
359.635	7.3
359.845	7.49
360.054	7.32
360.263	7.21
360.472	7.1
360.682	6.78
360.891	6.85
361.1	6.76
361.309	6.7
361.519	6.76
361.728	6.48
361.937	6.56
362.146	6.3
362.355	6.27
362.564	6.35
362.774	6.37
362.983	6.47
363.192	6.33
363.401	6.21
363.61	6.24
363.819	6.26
364.028	6.36
364.237	6.22
364.446	6.61
364.655	6.95
364.864	6.89
365.073	6.85
365.282	6.71
365.491	6.91
365.7	6.85
365.909	7.09
366.118	6.83
366.327	7.19
366.536	7.33
366.745	7.31
366.954	6.8
367.162	6.69
367.371	6.6
367.58	6.73
367.789	6.68
367.998	6.54
368.207	6.41
368.415	6.77
368.624	6.52
368.833	6.46
369.042	6.45
369.25	6.35
369.459	6.43
369.668	6.48
369.877	6.43
370.085	6.47
370.294	6.64
370.503	6.4
370.711	6.34
370.92	6.45
371.129	6.59
371.337	6.38
371.546	6.58
371.754	6.57
371.963	6.7
372.171	6.51
372.38	6.67
372.589	6.71
372.797	6.84
373.006	6.66
373.214	6.51
373.423	6.45
373.631	6.47
373.84	6.31
374.048	6.13
374.256	6.12
374.465	6.16
374.673	5.61
374.882	5.96
375.09	5.84
375.298	5.82
375.507	5.89
375.715	5.68
375.923	5.74
376.132	5.69
376.34	5.95
376.548	5.93
376.757	5.93
376.965	6.14
377.173	5.53
377.381	5.46
377.59	5.44
377.798	5.33
378.006	5.15
378.214	4.97
378.423	5.29
378.631	5.07
378.839	5.11
379.047	4.94
379.255	4.97
379.463	5.26
379.671	5.31
379.879	5.36
380.088	5.55
380.296	5.79
380.504	5.75
380.712	5.56
380.92	5.94
381.128	5.72
381.336	6.01
381.544	5.99
381.752	6.03
381.96	5.83
382.168	5.74
382.376	5.58
382.584	5.46
382.791	5.61
382.999	5.6
383.207	5.37
383.415	5.32
383.623	5.15
383.831	5.19
384.039	5.01
384.247	5.37
384.454	5.5
384.662	5.41
384.87	5.48
385.078	5.38
385.285	5.52
385.493	5.27
385.701	5.21
385.909	5.21
386.116	5.13
386.324	5.3
386.532	5.07
386.739	4.92
386.947	4.88
387.155	4.94
387.362	5
387.57	4.76
387.778	4.86
387.985	4.94
388.193	4.63
388.4	4.8
388.608	4.55
388.816	4.47
389.023	4.54
389.231	4.73
389.438	4.39
389.646	4.28
389.853	4.28
390.061	4.31
390.268	4.22
390.475	4.43
390.683	4.11
390.89	4.42
391.098	4.38
391.305	4.23
391.512	4.04
391.72	4.05
391.927	4.1
392.135	4.21
392.342	4.21
392.549	4.22
392.756	4.3
392.964	4.42
393.171	4.28
393.378	4.23
393.586	4.24
393.793	4.19
394	4.41
394.207	4.17
394.414	4.15
394.622	4.07
394.829	4.23
395.036	4.24
395.243	4.12
395.45	4.12
395.657	4.19
395.864	4.18
396.072	4.34
396.279	4.15
396.486	4.26
396.693	4.24
396.9	4.22
397.107	4.12
397.314	4
397.521	4.02
397.728	3.91
397.935	3.92
398.142	3.95
398.349	3.94
398.556	4.05
398.763	4.17
398.97	4.24
399.177	4.06
399.383	4.09
399.59	4.12
399.797	4.33
400.004	4.48
400.211	4.65
400.418	4.63
400.625	4.61
400.831	4.43
401.038	4.35
401.245	4.04
401.452	4.31
401.658	4.28
401.865	4.25
402.072	4.01
402.279	3.98
402.485	3.86
402.692	3.96
402.899	3.83
403.105	3.91
403.312	3.88
403.519	3.97
403.725	3.79
403.932	3.75
404.138	3.7
404.345	3.58
404.552	3.39
404.758	3.3
404.965	3.3
405.171	3.3
405.378	3.39
405.584	3.44
405.791	3.37
405.997	3.44
406.204	3.48
406.41	3.43
406.617	3.57
406.823	3.74
407.029	3.86
407.236	3.94
407.442	4.05
407.649	3.95
407.855	3.84
408.061	3.92
408.268	3.76
408.474	3.46
408.68	3.57
408.887	3.56
409.093	3.43
409.299	3.46
409.505	3.32
409.712	3.28
409.918	3.37
410.124	3.4
410.33	3.45
410.537	3.57
410.743	3.77
410.949	3.95
411.155	4.12
411.361	4.22
411.567	4.12
411.773	4.07
411.98	4
412.186	4.04
412.392	4.26
412.598	4.24
412.804	4.32
413.01	4.32
413.216	4.16
413.422	3.93
413.628	3.85
413.834	3.75
414.04	3.98
414.246	4.01
414.452	3.86
414.658	3.78
414.864	3.73
415.07	3.72
415.275	3.77
415.481	3.61
415.687	3.65
415.893	3.59
416.099	3.69
416.305	3.53
416.511	3.66
416.716	3.75
416.922	3.79
417.128	3.84
417.334	3.73
417.539	3.6
417.745	3.7
417.951	3.67
418.157	3.63
418.362	3.65
418.568	3.59
418.774	3.56
418.979	3.5
419.185	3.38
419.391	3.41
419.596	3.51
419.802	3.59
420.008	3.62
420.213	3.68
420.419	3.79
420.624	3.72
420.83	3.75
421.035	3.68
421.241	3.68
421.446	3.72
421.652	3.6
421.857	3.57
422.063	3.57
422.268	3.48
422.474	3.43
422.679	3.3
422.885	3.33
423.09	3.29
423.295	3.33
423.501	3.39
423.706	3.33
423.911	3.38
424.117	3.3
424.322	3.31
424.527	3.35
424.733	3.34
424.938	3.38
425.143	3.33
425.349	3.31
425.554	3.26
425.759	3.18
425.964	3.17
426.169	3.19
426.375	3.24
426.58	3.2
426.785	3.18
426.99	3.17
427.195	3.2
427.4	3.2
427.605	3.29
427.811	3.36
428.016	3.34
428.221	3.44
428.426	3.42
428.631	3.43
428.836	3.38
429.041	3.44
429.246	3.4
429.451	3.49
429.656	3.51
429.861	3.58
430.066	3.56
430.271	3.55
430.476	3.52
430.681	3.55
430.886	3.56
431.09	3.57
431.295	3.5
431.5	3.6
431.705	3.44
431.91	3.51
432.115	3.37
432.32	3.41
432.524	3.3
432.729	3.32
432.934	3.19
433.139	3.15
433.343	3.27
433.548	3.28
433.753	3.34
433.958	3.42
434.162	3.39
434.367	3.31
434.572	3.15
434.776	3.27
434.981	3.19
435.186	3.4
435.39	3.43
435.595	3.3
435.799	3.18
436.004	3.03
436.209	3.04
436.413	3.04
436.618	3.17
436.822	3.22
437.027	3.3
437.231	3.46
437.436	3.37
437.64	3.37
437.845	3.37
438.049	3.51
438.253	3.58
438.458	3.68
438.662	3.73
438.867	3.69
439.071	3.74
439.275	3.6
439.48	3.58
439.684	3.66
439.888	3.56
440.093	3.61
440.297	3.62
440.501	3.57
440.706	3.45
440.91	3.4
441.114	3.36
441.318	3.37
441.523	3.45
441.727	3.37
441.931	3.29
442.135	3.43
442.339	3.38
442.543	3.41
442.748	3.52
442.952	3.49
443.156	3.5
443.36	3.54
443.564	3.52
443.768	3.55
443.972	3.55
444.176	3.54
444.38	3.4
444.584	3.39
444.788	3.33
444.992	3.26
445.196	3.26
445.4	3.22
445.604	3.21
445.808	3.2
446.012	3.14
446.216	3.1
446.42	3.06
446.624	3.15
446.828	3.18
447.032	3.21
447.235	3.24
447.439	3.24
447.643	3.25
447.847	3.22
448.051	3.21
448.254	3.21
448.458	3.19
448.662	3.23
448.866	3.1
449.069	3.09
449.273	2.98
449.477	2.91
449.681	2.97
449.884	3.06
450.088	3.13
450.292	3.07
450.495	3.1
450.699	3.09
450.902	2.97
451.106	3.17
451.31	3.3
451.513	3.44
451.717	3.39
451.92	3.39
452.124	3.26
452.327	3.23
452.531	3.13
452.734	3.14
452.938	3.27
453.141	3.38
453.345	3.25
453.548	3.08
453.752	3.07
453.955	3.08
454.158	3.06
454.362	3.16
454.565	3.22
454.769	3.36
454.972	3.39
455.175	3.36
455.379	3.33
455.582	3.35
455.785	3.44
455.988	3.34
456.192	3.35
456.395	3.27
456.598	3.29
456.801	3.19
457.005	3.28
457.208	3.26
457.411	3.25
457.614	3.26
457.817	3.26
458.021	3.24
458.224	3.22
458.427	3.23
458.63	3.21
458.833	3.22
459.036	3.26
459.239	3.2
459.442	3.16
459.645	3.12
459.848	3.19
460.051	3.21
460.254	3.23
460.457	3.24
460.66	3.24
460.863	3.35
461.066	3.3
461.269	3.31
461.472	3.38
461.675	3.39
461.878	3.44
462.081	3.42
462.284	3.42
462.486	3.53
462.689	3.5
462.892	3.47
463.095	3.38
463.298	3.46
463.5	3.48
463.703	3.51
463.906	3.55
464.109	3.57
464.311	3.53
464.514	3.54
464.717	3.47
464.92	3.51
465.122	3.55
465.325	3.58
465.528	3.48
465.73	3.46
465.933	3.4
466.135	3.48
466.338	3.39
466.541	3.3
466.743	3.29
466.946	3.25
467.148	3.31
467.351	3.34
467.553	3.38
467.756	3.44
467.958	3.4
468.161	3.46
468.363	3.4
468.566	3.54
468.768	3.44
468.971	3.46
469.173	3.43
469.375	3.46
469.578	3.42
469.78	3.29
469.983	3.26
470.185	3.36
470.387	3.29
470.59	3.28
470.792	3.32
470.994	3.52
471.196	3.46
471.399	3.51
471.601	3.5
471.803	3.54
472.005	3.67
472.208	3.67
472.41	3.61
472.612	3.56
472.814	3.53
473.016	3.41
473.218	3.37
473.421	3.41
473.623	3.37
473.825	3.35
474.027	3.37
474.229	3.27
474.431	3.31
474.633	3.3
474.835	3.31
475.037	3.41
475.239	3.34
475.441	3.31
475.643	3.37
475.845	3.4
476.047	3.4
476.249	3.38
476.451	3.46
476.653	3.42
476.855	3.46
477.057	3.39
477.258	3.36
477.46	3.33
477.662	3.32
477.864	3.32
478.066	3.27
478.268	3.28
478.469	3.28
478.671	3.24
478.873	3.2
479.075	3.26
479.276	3.3
479.478	3.19
479.68	3.29
479.882	3.41
480.083	3.39
480.285	3.32
480.487	3.35
480.688	3.29
480.89	3.25
481.091	3.23
481.293	3.11
481.495	3.1
481.696	3.21
481.898	3.15
482.099	3.02
482.301	3.03
482.502	3.12
482.704	3.11
482.905	3.12
483.107	3.12
483.308	3.11
483.51	3.13
483.711	3.15
483.913	3.1
484.114	3.13
484.315	3.17
484.517	3.15
484.718	3.13
484.92	3.11
485.121	3.1
485.322	3.1
485.524	3.13
485.725	3.15
485.926	3.15
486.127	3.14
486.329	3.09
486.53	3.04
486.731	3.07
486.932	3.02
487.134	3.02
487.335	3.09
487.536	3.07
487.737	3.06
487.938	3.05
488.139	3.03
488.341	3.07
488.542	3.12
488.743	3.14
488.944	3.14
489.145	3.23
489.346	3.22
489.547	3.18
489.748	3.19
489.949	3.21
490.15	3.19
490.351	3.2
490.552	3.19
490.753	3.19
490.954	3.22
491.155	3.19
491.356	3.2
491.557	3.23
491.758	3.23
491.959	3.24
492.159	3.23
492.36	3.23
492.561	3.26
492.762	3.22
492.963	3.19
493.164	3.19
493.364	3.26
493.565	3.24
493.766	3.25
493.967	3.22
494.167	3.21
494.368	3.22
494.569	3.27
494.769	3.23
494.97	3.32
495.171	3.35
495.371	3.35
495.572	3.3
495.773	3.28
495.973	3.33
496.174	3.33
496.375	3.37
496.575	3.38
496.776	3.36
496.976	3.45
497.177	3.49
497.377	3.54
497.578	3.53
497.778	3.57
497.979	3.56
498.179	3.54
498.38	3.66
498.58	3.71
498.78	3.78
498.981	3.83
499.181	3.81
499.382	3.85
499.582	3.87
499.782	3.82
499.983	3.77
500.183	3.84
500.383	3.76
500.584	3.7
500.784	3.7
500.984	3.66
501.184	3.71
501.385	3.67
501.585	3.57
501.785	3.51
501.985	3.56
502.185	3.67
502.386	3.68
502.586	3.78
502.786	3.8
502.986	3.77
503.186	3.8
503.386	3.8
503.586	3.86
503.786	3.88
503.987	3.97
504.187	3.99
504.387	3.94
504.587	3.98
504.787	4.01
504.987	4.06
505.187	4.12
505.387	4.11
505.587	4.2
505.786	4.23
505.986	4.22
506.186	4.21
506.386	4.29
506.586	4.3
506.786	4.25
506.986	4.23
507.186	4.22
507.386	4.27
507.585	4.26
507.785	4.19
507.985	4.16
508.185	4.28
508.384	4.34
508.584	4.28
508.784	4.3
508.984	4.36
509.183	4.34
509.383	4.31
509.583	4.23
509.782	4.24
509.982	4.32
510.182	4.35
510.381	4.35
510.581	4.3
510.781	4.39
510.98	4.41
511.18	4.48
511.379	4.58
511.579	4.68
511.778	4.66
511.978	4.74
512.177	4.7
512.377	4.78
512.576	4.81
512.776	4.94
512.975	4.93
513.175	4.97
513.374	4.95
513.573	4.92
513.773	5.01
513.972	5.23
514.172	5.28
514.371	5.41
514.57	5.46
514.77	5.48
514.969	5.49
515.168	5.57
515.367	5.64
515.567	5.75
515.766	5.81
515.965	5.78
516.164	5.74
516.364	5.76
516.563	5.68
516.762	5.7
516.961	5.8
517.16	5.79
517.359	5.83
517.559	5.92
517.758	6
517.957	6.09
518.156	6.07
518.355	6.14
518.554	6.19
518.753	6.31
518.952	6.36
519.151	6.44
519.35	6.49
519.549	6.58
519.748	6.54
519.947	6.51
520.146	6.49
520.345	6.59
520.544	6.55
520.743	6.59
520.942	6.52
521.141	6.58
521.339	6.51
521.538	6.61
521.737	6.65
521.936	6.7
522.135	6.8
522.333	6.89
522.532	7.03
522.731	7.22
522.93	7.35
523.129	7.51
523.327	7.5
523.526	7.55
523.725	7.57
523.923	7.61
524.122	7.78
524.321	7.89
524.519	7.98
524.718	8.05
524.917	8.09
525.115	8.06
525.314	8.15
525.512	8.28
525.711	8.36
525.909	8.43
526.108	8.5
526.306	8.48
526.505	8.54
526.703	8.64
526.902	8.65
527.1	8.72
527.299	8.83
527.497	8.9
527.696	8.99
527.894	9.11
528.092	9.15
528.291	9.25
528.489	9.34
528.688	9.39
528.886	9.42
529.084	9.52
529.283	9.58
529.481	9.63
529.679	9.68
529.877	9.73
530.076	9.77
530.274	9.88
530.472	9.89
530.67	9.98
530.869	10.08
531.067	10.18
531.265	10.22
531.463	10.35
531.661	10.49
531.859	10.6
532.057	10.67
532.255	10.75
532.454	10.83
532.652	10.96
532.85	11.03
533.048	11.11
533.246	11.18
533.444	11.26
533.642	11.3
533.84	11.33
534.038	11.42
534.236	11.48
534.434	11.61
534.632	11.64
534.83	11.75
535.027	11.83
535.225	11.88
535.423	12.01
535.621	12.07
535.819	12.19
536.017	12.33
536.215	12.43
536.412	12.54
536.61	12.64
536.808	12.72
537.006	12.77
537.203	12.85
537.401	12.95
537.599	13
537.797	13.09
537.994	13.14
538.192	13.19
538.39	13.27
538.587	13.3
538.785	13.35
538.983	13.44
539.18	13.51
539.378	13.65
539.575	13.72
539.773	13.78
539.97	13.93
540.168	14.01
540.366	14.11
540.563	14.17
540.761	14.28
540.958	14.33
541.155	14.4
541.353	14.47
541.55	14.49
541.748	14.57
541.945	14.63
542.143	14.68
542.34	14.73
542.537	14.79
542.735	14.82
542.932	14.85
543.129	14.94
543.327	15.06
543.524	15.22
543.721	15.36
543.919	15.53
544.116	15.65
544.313	15.79
544.51	15.96
544.708	16.09
544.905	16.22
545.102	16.4
545.299	16.5
545.496	16.61
545.693	16.59
545.891	16.6
546.088	16.5
546.285	16.59
546.482	16.63
546.679	16.59
546.876	16.56
547.073	16.61
547.27	16.59
547.467	16.53
547.664	16.48
547.861	16.45
548.058	16.5
548.255	16.59
548.452	16.57
548.649	16.56
548.846	16.59
549.043	16.61
549.24	16.55
549.437	16.48
549.633	16.52
549.83	16.6
550.027	16.63
550.224	16.68
550.421	16.72
550.618	16.75
550.814	16.63
551.011	16.59
551.208	16.54
551.405	16.52
551.601	16.6
551.798	16.64
551.995	16.62
552.191	16.67
552.388	16.66
552.585	16.61
552.781	16.65
552.978	16.78
553.175	16.95
553.371	16.93
553.568	17.11
553.764	17.16
553.961	17.17
554.157	17.13
554.354	17.19
554.55	17.12
554.747	17.15
554.943	17.17
555.14	17.16
555.336	17.05
555.533	17.19
555.729	17.24
555.926	17.35
556.122	17.48
556.318	17.54
556.515	17.52
556.711	17.75
556.907	17.87
557.104	17.99
557.3	17.93
557.496	18.18
557.693	18.21
557.889	18.17
558.085	18.05
558.281	18.08
558.478	18.06
558.674	18.09
558.87	17.92
559.066	17.78
559.262	17.69
559.459	17.77
559.655	17.72
559.851	17.78
560.047	17.8
560.243	17.7
560.439	17.57
560.635	17.76
560.831	17.79
561.027	17.94
561.223	18.04
561.419	18
561.615	18.12
561.811	18.09
562.007	18.1
562.203	18.11
562.399	18.37
562.595	18.58
562.791	18.49
562.987	18.5
563.183	18.53
563.379	18.63
563.575	18.7
563.771	18.65
563.966	18.68
564.162	18.81
564.358	18.73
564.554	18.75
564.75	18.7
564.945	18.74
565.141	18.78
565.337	18.78
565.533	18.73
565.728	18.82
565.924	18.85
566.12	18.87
566.315	18.71
566.511	18.85
566.707	18.93
566.902	18.9
567.098	18.91
567.293	18.96
567.489	18.87
567.684	18.74
567.88	18.71
568.076	18.67
568.271	18.66
568.467	18.63
568.662	18.58
568.858	18.44
569.053	18.54
569.248	18.59
569.444	18.61
569.639	18.8
569.835	18.94
570.03	18.86
570.225	18.88
570.421	18.9
570.616	19.05
570.812	19.02
571.007	19.05
571.202	19.03
571.397	19.01
571.593	19.17
571.788	19.07
571.983	19.12
572.178	19.23
572.374	19.2
572.569	19.16
572.764	19.15
572.959	19.18
573.154	19.22
573.35	19.22
573.545	19.28
573.74	19.1
573.935	19.11
574.13	19.15
574.325	19.15
574.52	19.31
574.715	19.49
574.91	19.54
575.105	19.72
575.3	19.67
575.495	19.73
575.69	19.67
575.885	19.74
576.08	19.87
576.275	19.82
576.47	19.87
576.665	19.79
576.86	19.84
577.055	19.9
577.25	19.68
577.444	19.84
577.639	19.92
577.834	20.06
578.029	20.18
578.224	20.2
578.418	20.29
578.613	20.37
578.808	20.54
579.003	20.34
579.197	20.21
579.392	20.42
579.587	20.35
579.781	20.35
579.976	20.34
580.171	20.32
580.365	20.29
580.56	20.29
580.755	20.13
580.949	20.13
581.144	20.15
581.338	20.37
581.533	20.38
581.727	20.45
581.922	20.36
582.116	20.41
582.311	20.37
582.505	20.4
582.7	20.36
582.894	20.4
583.089	20.26
583.283	20.39
583.478	20.36
583.672	20.37
583.866	20.26
584.061	20.43
584.255	20.34
584.449	20.25
584.644	20.32
584.838	20.25
585.032	20.33
585.226	20.49
585.421	20.52
585.615	20.5
585.809	20.54
586.003	20.58
586.198	20.57
586.392	20.76
586.586	20.88
586.78	20.82
586.974	20.95
587.168	21.03
587.363	21.02
587.557	20.98
587.751	20.91
587.945	20.87
588.139	20.96
588.333	20.91
588.527	20.74
588.721	20.67
588.915	20.7
589.109	20.72
589.303	20.76
589.497	20.62
589.691	20.66
589.885	20.67
590.079	20.76
590.273	20.64
590.466	20.78
590.66	20.83
590.854	20.92
591.048	20.84
591.242	20.88
591.436	20.79
591.629	20.88
591.823	20.93
592.017	21.14
592.211	21.03
592.404	21.16
592.598	20.94
592.792	20.91
592.986	20.87
593.179	20.98
593.373	20.99
593.567	21.08
593.76	21.13
593.954	21.01
594.147	20.85
594.341	20.87
594.535	20.95
594.728	21
594.922	21.07
595.115	21.04
595.309	20.91
595.502	20.8
595.696	20.78
595.889	20.73
596.083	20.7
596.276	20.66
596.47	20.56
596.663	20.53
596.856	20.51
597.05	20.49
597.243	20.46
597.437	20.48
597.63	20.57
597.823	20.46
598.017	20.38
598.21	20.48
598.403	20.52
598.596	20.68
598.79	20.53
598.983	20.62
599.176	20.56
599.369	20.61
599.563	20.63
599.756	20.49
599.949	20.48
600.142	20.65
600.335	20.63
600.528	20.53
600.722	20.49
600.915	20.53
601.108	20.48
601.301	20.63
601.494	20.66
601.687	20.7
601.88	20.96
602.073	21.1
602.266	20.97
602.459	20.91
602.652	21.08
602.845	21.15
603.038	21.19
603.231	21.12
603.424	20.98
603.617	20.96
603.809	20.92
604.002	20.73
604.195	20.65
604.388	20.64
604.581	20.66
604.774	20.71
604.966	20.67
605.159	20.57
605.352	20.61
605.545	20.64
605.737	20.75
605.93	20.84
606.123	20.94
606.316	21.11
606.508	21.25
606.701	21.18
606.894	21.25
607.086	21.4
607.279	21.63
607.471	21.71
607.664	21.91
607.857	22.06
608.049	22.37
608.242	22.49
608.434	22.76
608.627	23.05
608.819	23.63
609.012	23.89
609.204	24.35
609.397	24.9
609.589	25.54
609.782	26.11
609.974	26.57
610.166	26.96
610.359	27.71
610.551	28.23
610.743	28.64
610.936	28.96
611.128	29.19
611.32	29.35
611.513	29.39
611.705	29.46
611.897	29.24
612.09	29.21
612.282	29.04
612.474	28.54
612.666	28.23
612.858	27.84
613.051	27.55
613.243	27.39
613.435	26.96
613.627	26.56
613.819	25.97
614.011	25.89
614.203	25.65
614.395	25.37
614.588	25.18
614.78	24.79
614.972	24.69
615.164	24.47
615.356	24.18
615.548	23.97
615.74	23.77
615.932	23.75
616.124	23.57
616.315	23.47
616.507	23.47
616.699	23.35
616.891	23.26
617.083	22.87
617.275	23
617.467	22.79
617.659	22.87
617.85	22.81
618.042	22.8
618.234	22.75
618.426	22.32
618.618	21.87
618.809	21.94
619.001	21.99
619.193	22.48
619.384	22.03
619.576	22.18
619.768	22.31
619.959	22.49
620.151	22.42
620.343	22.3
620.534	22.59
620.726	23.02
620.917	22.76
621.109	22.47
621.301	22.13
621.492	22.39
621.684	22.53
621.875	22.31
622.067	22.06
622.258	21.98
622.45	22.19
622.641	22.08
622.832	22.14
623.024	22.29
623.215	22.58
623.407	22.78
623.598	22.75
623.789	22.38
623.981	22.3
624.172	22.34
624.363	22.53
624.555	22.41
624.746	22.57
624.937	22.36
625.129	22.25
625.32	22.28
625.511	22.46
625.702	22.48
625.893	22.57
626.085	22.5
626.276	22.56
626.467	22.57
626.658	22.6
626.849	22.53
627.04	22.53
627.231	22.78
627.422	22.77
627.614	22.59
627.805	22.59
627.996	22.66
628.187	22.64
628.378	22.67
628.569	22.67
628.76	22.73
628.951	22.7
629.142	22.85
629.332	22.8
629.523	22.83
629.714	22.81
629.905	22.82
630.096	23.01
630.287	23.37
630.478	23.33
630.669	23.34
630.859	23.32
631.05	23.39
631.241	23.27
631.432	23.17
631.623	23.29
631.813	23.27
632.004	23.15
632.195	23
632.385	22.65
632.576	22.71
632.767	22.68
632.957	22.68
633.148	22.67
633.339	22.6
633.529	22.68
633.72	22.3
633.91	22.2
634.101	22.09
634.292	22.03
634.482	22.18
634.673	22.13
634.863	22.08
635.054	21.76
635.244	21.74
635.435	22.04
635.625	22.02
635.815	22.03
636.006	22.14
636.196	22.34
636.387	22.2
636.577	22.14
636.767	22.01
636.958	22.08
637.148	22.43
637.338	22.29
637.529	21.97
637.719	22
637.909	22.09
638.099	22.08
638.29	22.1
638.48	22.12
638.67	22.13
638.86	22.14
639.05	22.17
639.241	22.15
639.431	22.35
639.621	22.32
639.811	22.09
640.001	22.34
640.191	22.34
640.381	22.23
640.571	22.45
640.761	22.42
640.951	22.53
641.141	22.28
641.331	22.04
641.521	21.84
641.711	21.98
641.901	22.13
642.091	21.75
642.281	21.66
642.471	21.72
642.661	21.83
642.851	21.95
643.041	21.82
643.231	22.17
643.42	22.47
643.61	22.35
643.8	22.19
643.99	22.37
644.18	22.58
644.369	22.48
644.559	22.27
644.749	21.94
644.939	21.77
645.128	21.85
645.318	21.79
645.508	21.63
645.697	21.81
645.887	21.71
646.076	21.48
646.266	21.38
646.456	21.65
646.645	21.78
646.835	21.93
647.024	22.04
647.214	22.08
647.403	21.85
647.593	21.91
647.782	21.96
647.972	22.08
648.161	22.15
648.351	22.07
648.54	22.02
648.73	22.09
648.919	21.98
649.108	21.76
649.298	21.59
649.487	21.73
649.677	21.54
649.866	21.56
650.055	21.61
650.244	21.6
650.434	21.8
650.623	21.87
650.812	21.82
651.002	22.14
651.191	22.24
651.38	22.42
651.569	22.35
651.758	22.41
651.947	22.51
652.137	22.45
652.326	22.49
652.515	22.39
652.704	22.29
652.893	22.34
653.082	22.08
653.271	22.33
653.46	22.41
653.649	22.18
653.838	22.33
654.027	22.16
654.216	22.19
654.405	22.17
654.594	22.24
654.783	22.2
654.972	22.34
655.161	22.37
655.35	22.18
655.539	22.2
655.728	22.25
655.916	22.05
656.105	21.89
656.294	22.01
656.483	22.1
656.672	22.15
656.86	22.51
657.049	22.33
657.238	22.21
657.427	22.11
657.615	21.93
657.804	22.16
657.993	22.08
658.181	22.3
658.37	22.18
658.559	22.04
658.747	21.86
658.936	21.54
659.125	21.6
659.313	21.76
659.502	22.04
659.69	22.09
659.879	22.05
660.067	22.3
660.256	22.39
660.444	22.56
660.633	22.61
660.821	22.57
661.01	22.67
661.198	22.59
661.387	22.54
661.575	22.29
661.763	22.35
661.952	22.31
662.14	22.2
662.328	22.23
662.517	22.15
662.705	21.97
662.893	22.44
663.082	22.51
663.27	22.77
663.458	22.92
663.646	23.08
663.834	23.06
664.023	23.38
664.211	23.63
664.399	23.57
664.587	23.6
664.775	23.72
664.963	23.19
665.152	22.84
665.34	22.52
665.528	22.57
665.716	22.57
665.904	22.4
666.092	22.36
666.28	21.97
666.468	21.97
666.656	22.01
666.844	22.15
667.032	22.34
667.22	22.71
667.408	22.76
667.596	22.66
667.784	22.57
667.971	22.97
668.159	22.67
668.347	23.01
668.535	22.72
668.723	22.62
668.911	22.77
669.098	23.09
669.286	22.77
669.474	22.9
669.662	22.7
669.849	22.7
670.037	22.65
670.225	22.78
670.413	22.53
670.6	22.69
670.788	22.66
670.976	22.58
671.163	22.39
671.351	22.79
671.538	22.69
671.726	23.06
671.913	23.07
672.101	22.82
672.289	22.71
672.476	22.8
672.664	22.79
672.851	22.82
673.039	22.75
673.226	22.89
673.413	22.51
673.601	22.39
673.788	21.98
673.976	22.08
674.163	22.02
674.35	22.16
674.538	22.12
674.725	22.04
674.912	21.97
675.1	22.27
675.287	22.18
675.474	22.66
675.662	22.77
675.849	23.09
676.036	22.95
676.223	23.21
676.411	23.56
676.598	23.32
676.785	23.46
676.972	23.47
677.159	23.12
677.346	23.03
677.533	22.82
677.721	22.63
677.908	22.57
678.095	22.77
678.282	22.68
678.469	22.15
678.656	22.2
678.843	22.28
679.03	22.41
679.217	22.08
679.404	21.98
679.591	21.72
679.778	21.89
679.964	21.98
680.151	21.97
680.338	21.94
680.525	22.1
680.712	22.23
680.899	22.09
681.086	21.89
681.272	21.98
681.459	21.91
681.646	22.36
681.833	22.36
682.02	22.19
682.206	21.85
682.393	21.92
682.58	22.12
682.766	22.16
682.953	22.25
683.14	22.35
683.326	22.43
683.513	22.94
683.7	22.66
683.886	22.66
684.073	22.48
684.259	22.69
684.446	22.45
684.632	22.01
684.819	22.11
685.005	22.05
685.192	22.11
685.378	22.29
685.565	21.87
685.751	21.9
685.938	21.92
686.124	22.15
686.31	22.06
686.497	22.29
686.683	22.6
686.87	22.61
687.056	22.92
687.242	22.64
687.429	22.54
687.615	22.54
687.801	22.81
687.987	23.09
688.174	23.1
688.36	23.26
688.546	23.53
688.732	23.51
688.918	23.52
689.105	23.38
689.291	23.94
689.477	24
689.663	24.41
689.849	24.1
690.035	24.11
690.221	23.86
690.407	24.03
690.593	23.65
690.779	23.73
690.965	23.65
691.151	23.52
691.337	23.37
691.523	23.55
691.709	23.45
691.895	23.32
692.081	23.1
692.267	23.24
692.453	23.12
692.639	23.15
692.825	23.19
693.011	23.41
693.196	23.39
693.382	23.02
693.568	22.85
693.754	22.64
693.94	22.71
694.125	22.56
694.311	22.73
694.497	22.55
694.682	22.63
694.868	22.04
695.054	21.77
695.239	21.9
695.425	22.04
695.611	22.07
695.796	21.92
695.982	22.18
696.168	22.24
696.353	22.21
696.539	22.25
696.724	22.32
696.91	22.77
697.095	23
697.281	22.91
697.466	22.99
697.652	22.9
697.837	22.93
698.023	22.78
698.208	22.62
698.393	22.56
698.579	22.6
698.764	22.43
698.949	22.43
699.135	22.45
699.32	22.54
699.505	22.46
699.691	22.6
699.876	22.42
700.061	22.27
700.246	22.45
700.432	22.57
700.617	22.49
700.802	22.76
700.987	22.6
701.172	22.08
701.358	21.9
701.543	22.02
701.728	22.24
701.913	22.29
702.098	22.76
702.283	23.13
702.468	22.85
702.653	22.69
702.838	22.47
703.023	22.63
703.208	23.58
703.393	23.64
703.578	23.61
703.763	23.42
703.948	23.66
704.133	23.69
704.318	23.04
704.503	23.23
704.688	23.44
704.873	23.98
705.057	24.08
705.242	23.72
705.427	24.06
705.612	23.9
705.797	24.12
705.981	24.42
706.166	24.82
706.351	25.48
706.536	25.86
706.72	25.89
706.905	25.96
707.09	25.85
707.274	26.15
707.459	25.93
707.644	26.87
707.828	26.58
708.013	26.45
708.197	26.37
708.382	26.26
708.567	25.9
708.751	26
708.936	25.31
709.12	25.32
709.305	24.85
709.489	25.09
709.673	24.5
709.858	24.53
710.042	24.55
710.227	24.02
710.411	23.73
710.596	24
710.78	24.28
710.964	24.36
711.149	24.39
711.333	24.6
711.517	24.25
711.702	24.24
711.886	24.32
712.07	24.61
712.254	24.84
712.438	24.69
712.623	24.32
712.807	23.81
712.991	23.84
713.175	23.62
713.359	23.69
713.544	23.64
713.728	23.4
713.912	23.4
714.096	23.08
714.28	22.73
714.464	22.98
714.648	22.61
714.832	22.83
715.016	22.88
715.2	23.17
715.384	23.13
715.568	23.04
715.752	23.28
715.936	23.05
716.12	23.19
716.304	22.93
716.488	22.63
716.671	23.13
716.855	23.17
717.039	23.01
717.223	22.64
717.407	22.21
717.59	22.29
717.774	22.2
717.958	21.65
718.142	21.76
718.325	21.77
718.509	22.1
718.693	22.09
718.877	22.02
719.06	22.39
719.244	22.36
719.428	22.55
719.611	23.2
719.795	23.19
719.978	23.52
720.162	23.47
720.345	24.12
720.529	24.16
720.713	23.93
720.896	24.1
721.08	24.02
721.263	23.89
721.446	23.99
721.63	23.67
721.813	23.98
721.997	24.16
722.18	23.69
722.364	23.39
722.547	23.05
722.73	23.69
722.914	23.65
723.097	23.74
723.28	24.35
723.464	24.54
723.647	24.35
723.83	23.64
724.013	23.99
724.197	24.03
724.38	24.35
724.563	24.62
724.746	24.26
724.929	24.36
725.112	23.92
725.296	23.76
725.479	23.24
725.662	22.89
725.845	23.05
726.028	22.96
726.211	23.27
726.394	22.64
726.577	22.72
726.76	22.88
726.943	22.65
727.126	23.06
727.309	23.27
727.492	23.03
727.675	23.06
727.858	23.22
728.041	22.74
728.224	22.58
728.407	23.32
728.589	22.91
728.772	22.64
728.955	22.43
729.138	22.5
729.321	22.08
729.503	22.57
729.686	22.77
729.869	22.6
730.052	23.03
730.234	22.77
730.417	22.54
730.6	23.24
730.782	23.3
730.965	23.58
731.148	23.11
731.33	23.18
731.513	22.88
731.695	23.13
731.878	23.43
732.061	22.97
732.243	22.96
732.426	22.79
732.608	22.65
732.791	23.08
732.973	22.71
733.156	22.89
733.338	22.92
733.52	23.8
733.703	23.52
733.885	23.45
734.068	23.74
734.25	23.98
734.432	23.96
734.615	23.42
734.797	22.98
734.979	23.67
735.162	24.05
735.344	24.29
735.526	23.63
735.708	23.95
735.891	23.74
736.073	23.76
736.255	23.8
736.437	24.2
736.619	24.55
736.802	24.59
736.984	24.05
737.166	23.77
737.348	23.56
737.53	23.68
737.712	22.99
737.894	22.86
738.076	23.05
738.258	23.14
738.44	23
738.622	22.83
738.804	22.73
738.986	23.1
739.168	23.32
739.35	23.47
739.532	23.45
739.714	24.61
739.896	25.22
740.078	25.39
740.259	25.34
740.441	25.32
740.623	25.51
740.805	25.63
740.987	25.15
741.168	24.75
741.35	24.5
741.532	25.18
741.714	25.08
741.895	25.03
742.077	25.1
742.259	25.11
742.44	25.56
742.622	25.43
742.804	26.56
742.985	26.86
743.167	26.75
743.348	27.59
743.53	26.69
743.711	26.36
743.893	26.64
744.075	27.43
744.256	26.86
744.438	25.7
744.619	26.25
744.8	24.96
744.982	24.64
745.163	24.4
745.345	23.79
745.526	23.84
745.707	23.56
745.889	23.59
746.07	22.55
746.252	22.62
746.433	23.86
746.614	23.3
746.795	24.25
746.977	24.5
747.158	24.75
747.339	24.98
747.52	24.81
747.702	24.39
747.883	23.48
748.064	23.39
748.245	23.91
748.426	23.73
748.607	23.54
748.788	22.56
748.97	22.43
749.151	22.58
749.332	22.55
749.513	22.69
749.694	23.1
749.875	23.26
750.056	23.77
750.237	23.33
750.418	23.1
750.599	23.15
750.78	23.16
750.96	23.47
751.141	23.62
751.322	23.95
751.503	24.25
751.684	24.7
751.865	25.25
752.046	24.91
752.226	25.23
752.407	25.09
752.588	24.72
752.769	25.44
752.949	25.12
753.13	25.35
753.311	24.34
753.492	24.27
753.672	24.23
753.853	23.96
754.034	23.8
754.214	23.88
754.395	23.59
754.575	23.88
754.756	24.01
754.937	23.81
755.117	23.68
755.298	24.31
755.478	24.11
755.659	23.34
755.839	22.76
756.02	22.55
756.2	23
756.381	22.99
756.561	23.85
756.741	23.6
756.922	23.94
757.102	23.59
757.283	23.3
757.463	23.49
757.643	23.21
757.823	23.19
758.004	23.33
758.184	23.11
758.364	23.59
758.545	23.53
758.725	23.19
758.905	22.79
759.085	23.2
759.265	22.69
759.446	23.21
759.626	23.57
759.806	24.03
759.986	24.22
760.166	24.36
760.346	24.3
760.526	23.49
760.706	24.05
760.886	24.39
761.066	24.47
761.246	25.25
761.426	24.35
761.606	24.67
761.786	24.23
761.966	24.36
762.146	24.17
762.326	24.23
762.506	24.29
762.686	24.13
762.866	23.58
763.046	23.77
763.225	23.37
763.405	23.24
763.585	23.24
763.765	23.26
763.945	23.21
764.124	23.32
764.304	23.66
764.484	23.34
764.664	23.3
764.843	24.22
765.023	23.98
765.203	24.34
765.382	24.85
765.562	24.34
765.741	24.55
765.921	24.24
766.101	23.95
766.28	23.05
766.46	23.66
766.639	23.78
766.819	22.76
766.998	22.56
767.178	22.45
767.357	22.18
767.537	23.3
767.716	23.55
767.896	23.29
768.075	23.73
768.254	24.22
768.434	24.16
768.613	23.79
768.792	24.61
768.972	24.43
769.151	24.83
769.33	24.42
769.51	23.73
769.689	23.23
769.868	23.68
770.047	23.55
770.226	23.43
770.406	23.26
770.585	23.62
770.764	23.54
770.943	24.02
771.122	23.76
771.301	25.02
771.48	25.37
771.66	25.45
771.839	26.49
772.018	26.38
772.197	26.49
772.376	26.74
772.555	26.63
772.734	26.43
772.913	26.37
773.092	25.73
773.271	25.66
773.449	25.77
773.628	25.57
773.807	24.12
773.986	25.06
774.165	25.52
774.344	25.68
774.523	24.54
774.701	24.33
774.88	23.88
775.059	23.96
775.238	23.37
775.417	22.41
775.595	22.97
775.774	23.43
775.953	21.94
776.131	21.44
776.31	21.66
776.489	22
776.667	21.96
776.846	22.49
777.025	23.3
777.203	23.19
777.382	24.21
777.56	24.73
777.739	24.36
777.917	25.57
778.096	25.42
778.274	25.8
778.453	27.23
778.631	27.12
778.81	26.46
778.988	25.71
779.166	25.3
779.345	26
779.523	26.28
779.702	26.78
779.88	26.4
780.058	26.98
780.237	27.41
780.415	26.66
780.593	27.95
780.771	28.99
780.95	30.38
781.128	30.87
781.306	29.63
781.484	28.83
781.662	29.99
781.841	28.55
782.019	27.62
782.197	26.84
782.375	26.52
782.553	26.86
782.731	26.86
782.909	26.67
783.087	26.68
783.265	27.15
783.443	27.65
783.621	27.17
783.799	29.06
783.977	29.47
784.155	29.18
784.333	29.58
784.511	28.5
784.689	27.75
784.867	26.9
785.045	27.31
785.223	27.36
785.4	27.56
785.578	26.93
785.756	26.32
785.934	26.62
786.112	26.46
786.289	27.11
786.467	26.11
786.645	26.75
786.823	27.2
787	26.59
787.178	26.23
787.356	25.41
787.533	24.64
787.711	24.86
787.889	24.44
788.066	24.5
788.244	23.69
788.421	24.89
788.599	24.78
788.776	24.3
788.954	24.89
789.131	25.82
789.309	26.25
789.486	26.16
789.664	27.4
789.841	28.45
790.019	28.97
790.196	29.18
790.373	29.04
790.551	28.34
790.728	28.96
790.906	29.28
791.083	26.62
791.26	26.09
791.437	27.93
791.615	26.06
791.792	26.09
791.969	24.72
792.146	24.65
792.324	23.8
792.501	23.68
792.678	23.11
792.855	23.3
793.032	25.66
793.209	26.55
793.387	24.47
793.564	25.65
793.741	24.8
793.918	24.77
794.095	26.18
794.272	26.75
794.449	26.91
794.626	26.53
794.803	25.85
794.98	25.13
795.157	24.39
795.334	24.8
795.511	23.01
795.688	23.64
795.864	24.21
796.041	22.74
796.218	22.34
796.395	22.46
796.572	22.48
796.749	23.3
796.925	22.91
797.102	23.56
797.279	23.9
797.456	25.06
797.632	25.05
797.809	24.7
797.986	25.51
798.162	25.66
798.339	25.56
798.516	26.18
798.692	26.57
798.869	28.73
799.046	28.83
799.222	29.38
799.399	30.66
799.575	30.17
799.752	30.34
799.928	29.86
800.105	30.04
800.281	29.59
800.458	29.87
800.634	28.75
800.811	28.62
800.987	28.23
801.163	28.9
801.34	27.32
801.516	27.76
801.692	28.58
801.869	30.11
802.045	31.42
802.221	32.4
802.398	32.59
802.574	33.27
802.75	32.1
802.926	31.82
803.103	31.43
803.279	30.57
803.455	30.98
803.631	30.57
803.807	29.53
803.983	29.27
804.16	29.94
804.336	28.47
804.512	26.74
804.688	25.96
804.864	25.7
805.04	24.98
805.216	26.86
805.392	25.78
805.568	26.18
805.744	26.47
805.92	24.45
806.096	23.75
806.272	25.29
806.448	25.86
806.623	27.13
806.799	27.47
806.975	27.15
807.151	27.22
807.327	28.32
807.503	26.52
807.678	26.08
807.854	25.6
808.03	25.6
808.206	24.97
808.381	25.19
808.557	25.07
808.733	25.1
808.908	25.13
809.084	24.52
809.26	24.87
809.435	27.19
809.611	26.66
809.787	27.89
809.962	26.85
810.138	27.66
810.313	28.17
810.489	27.99
810.664	27.99
810.84	29.86
811.015	30.03
811.191	29.59
811.366	28.04
811.542	29.1
811.717	29.35
811.892	29.79
812.068	27.67
812.243	27.42
812.419	27.79
812.594	27.36
812.769	25.93
812.944	25.04
813.12	24.06
813.295	25.55
813.47	25.33
813.645	26.59
813.821	27.64
813.996	29.96
814.171	28.74
814.346	25.98
814.521	26.49
814.697	26.18
814.872	28.13
815.047	28.55
815.222	27.45
815.397	28.49
815.572	27.44
815.747	27.24
815.922	26.06
816.097	26.84
816.272	29.24
816.447	30.56
816.622	31.24
816.797	29.64
816.972	29.96
817.147	30.43
817.322	29.22
817.496	30.14
817.671	30.03
817.846	31.31
818.021	32.35
818.196	31.72
818.371	30.91
818.545	31.36
818.72	30.06
818.895	29.73
819.069	28.43
819.244	28.43
819.419	27.37
819.594	28.08
819.768	26.43
819.943	25.78
820.117	26.23
820.292	25.42
820.467	23.78
820.641	23.57
820.816	23.09
820.99	23.38
821.165	23.12
821.339	22.69
821.514	21.85
821.688	22.05
821.863	21.81
822.037	21.6
822.212	21.38
822.386	21.33
822.56	21.36
822.735	21.24
822.909	21.09
823.084	20.74
823.258	20.79
823.432	21.15
823.606	21.14
823.781	21.16
823.955	20.91
824.129	20.97
824.303	21.32
824.478	21.5
824.652	21.72
824.826	21.6
825	22.08
825.174	22.33
825.348	21.94
825.523	21.86
825.697	22.21
825.871	22.16
826.045	22.27
826.219	22.22
826.393	22.41
826.567	21.92
826.741	22.68
826.915	22.5
827.089	22.96
827.263	22.84
827.437	22.77
827.611	22.69
827.784	22.76
827.958	23.32
828.132	22.92
828.306	23.26
828.48	23.12
828.654	22.86
828.827	22.84
829.001	21.82
829.175	21.63
829.349	22.24
829.522	21.98
829.696	22.89
829.87	22.26
830.044	23.11
830.217	23.16
830.391	23.45
830.565	23.11
830.738	24.02
830.912	23.85
831.085	24.8
831.259	24.38
831.432	24.75
831.606	24.81
831.779	24.55
831.953	24.28
832.126	23.92
832.3	25.04
832.473	25.47
832.647	25.38
832.82	25.7
832.994	26.4
833.167	25.54
833.34	25.66
833.514	24.96
833.687	25.16
833.86	25.58
834.034	25.16
834.207	25.4
834.38	24.96
834.553	24.68
834.727	25.21
834.9	24.01
835.073	24.31
835.246	24.67
835.419	25.18
835.593	25.12
835.766	25.24
835.939	25.93
836.112	25.64
836.285	26.13
836.458	26.77
836.631	27.21
836.804	29.31
836.977	30.42
837.15	28.27
837.323	29.03
837.496	28.82
837.669	31.18
837.842	31.59
838.015	33.12
838.188	35.26
838.361	36.53
838.533	35.95
838.706	36.34
838.879	35.23
839.052	39.49
839.225	40.53
839.398	41.1
839.57	37.61
839.743	37.36
839.916	35.38
840.088	35.3
840.261	35.08
840.434	35.2
840.607	34.02
840.779	34.1
840.952	34.01
841.124	31.3
841.297	31.13
841.47	32.59
841.642	34.36
841.815	36.16
841.987	36.12
842.16	37.75
842.332	39.53
842.505	39.22
842.677	42.15
842.85	41.51
843.022	44.67
843.194	44.28
843.367	43.24
843.539	40.44
843.712	41.65
843.884	39.82
844.056	33.95
844.229	33.35
844.401	34.72
844.573	36.65
844.745	33.84
844.918	34.04
845.09	33.76
845.262	37.78
845.434	34.48
845.606	36.1
845.779	36.56
845.951	39.06
846.123	39.38
846.295	37.88
846.467	36.94
846.639	41.84
846.811	38.21
846.983	42.39
847.155	37.95
847.327	40.43
847.499	37.95
847.671	38.77
847.843	41
848.015	41.03
848.187	41.76
848.359	42.9
848.531	44.49
848.703	51.31
848.875	50.34
849.047	50.17
849.218	54.46
849.39	53.7
849.562	60.31
849.734	57.8
849.905	56.11
850.077	61.84
850.249	55.81
850.421	54.2
850.592	49.43
850.764	50.58
850.936	49.69
851.107	43.9
851.279	47.45
851.451	45.79
851.622	47.99
851.794	48.61
851.965	48.15
852.137	48.26
852.308	45.65
852.48	50.93
852.651	48.23
852.823	50.11
852.994	57.11
853.166	57.24
853.337	53.17
853.509	52.93
853.68	57.47
853.851	55.07
854.023	59.57
854.194	59.73
854.365	57.09
854.537	63.29
854.708	63.04
854.879	59.93
855.05	56.82
855.222	59.24
855.393	62.02
855.564	58.99
855.735	61.44
855.906	64.23
856.078	67.38
856.249	68.36
856.42	66.92
856.591	68
856.762	63.19
856.933	65.65
857.104	61.75
857.275	56.44
857.446	56.12
857.617	52.3
857.788	46.44
857.959	47.79
858.13	42.27
858.301	41.72
858.472	43.88
858.643	50.98
858.814	53.11
858.985	58.76
859.155	60.56
859.326	62.23
859.497	61.92
859.668	61.91
859.839	64.02
860.009	66.56
860.18	57.89
860.351	57.54
860.522	58.26
860.692	54.07
860.863	47.58
861.034	50.17
861.204	47.93
861.375	45.26
861.546	45.28
861.716	41.52
861.887	49.63
862.057	57.24
862.228	56.75
862.398	56.76
862.569	59.22
862.739	63.33
862.91	54.84
863.08	57.41
863.251	56.2
863.421	57.87
863.592	57.97
863.762	54.37
863.932	55.77
864.103	53.64
864.273	51.8
864.443	51.59
864.614	50.09
864.784	55.04
864.954	47.07
865.125	50.99
865.295	48.69
865.465	45.88
865.635	44.29
865.805	41.47
865.976	41.01
866.146	35.94
866.316	41.59
866.486	40.51
866.656	36.78
866.826	42.61
866.996	47.46
867.166	41.34
867.336	51.53
867.506	54.12
867.676	54.42
867.846	56.99
868.016	64.22
868.186	56.86
868.356	65.67
868.526	68.1
868.696	62.48
868.866	48.35
869.036	48.69
869.206	45.59
869.376	38.44
869.545	37.07
869.715	38.88
869.885	33.42
870.055	34.26
870.224	26.75
870.394	22.09
870.564	34.91
870.734	44.37
870.903	53.26
871.073	52.24
871.243	56.69
871.412	52.7
871.582	52
871.751	51.02
871.921	50.17
872.091	52.71
872.26	52.31
872.43	51.22
872.599	50.12
872.769	44.1
872.938	37.19
873.108	37.88
873.277	39.3
873.446	34.42
873.616	38.55
873.785	37.86
873.955	40.98
874.124	37.66
874.293	33.83
874.463	35.46
874.632	35.21
874.801	38.32
874.971	36.8
875.14	30.81
875.309	35.9
875.478	39.16
875.647	36.79
875.817	34.14
875.986	38.56
876.155	42.91
876.324	41.67
876.493	41.7
876.662	42.85
876.831	44.06
877	48.78
877.17	43.34
877.339	37.43
877.508	39.67
877.677	40.71
877.846	41.58
878.015	38.92
878.184	38.08
878.352	39.1
878.521	41.81
878.69	40.68
878.859	42.44
879.028	42.17
879.197	39.26
879.366	37.23
879.534	36.53
879.703	33.99
879.872	31.9
880.041	28.86
880.21	28.42
880.378	24.28
880.547	24.05
880.716	22.77
880.884	23.82
881.053	24.76
881.222	25.26
881.39	24.89
881.559	24.64
881.727	24.57
881.896	24.54
882.065	24.55
882.233	25.75
882.402	25.25
882.57	25.42
882.739	24.84
882.907	24.58
883.076	24.34
883.244	24.09
883.412	23.48
883.581	23.94
883.749	24.82
883.918	23.86
884.086	23.3
884.254	23.97
884.423	24.4
884.591	25.33
884.759	25.64
884.927	25.23
885.096	26.08
885.264	28.19
885.432	28.81
885.6	29.22
885.769	30.07
885.937	33.25
886.105	32.71
886.273	32.4
886.441	32.84
886.609	35.13
886.777	36.58
886.945	34.02
887.113	32.23
887.281	29.44
887.449	29.25
887.617	28.2
887.785	18.47
887.953	22.06
888.121	26.49
888.289	26.53
888.457	21.7
888.625	26.32
888.793	33.65
888.961	33.88
889.129	34.71
889.296	30.59
889.464	36.88
889.632	42.42
889.8	39.93
889.967	32.17
890.135	28.87
