Data from 2938799__Reflection_02.txt Node
Date: Thu Mar 12 22:58:56 EDT 2015
User: robert
Spectrometer: USB4E03002
Autoset integration time: false
Trigger mode: 4
Integration Time (sec): 1.000000E-1
Scans to average: 10
Electric dark correction enabled: false
Nonlinearity correction enabled: false
Boxcar width: 5
Stray light correction enabled: false
XAxis mode: Wavelengths
Stop averaging: false
Number of Pixels in Spectrum: 3648
>>>>>Begin Spectral Data<<<<<
177.575	652.34
177.794	2150
178.014	688.46
178.233	786.67
178.452	371.54
178.672	393.7
178.891	447.19
179.11	405.32
179.33	356.22
179.549	392.31
179.768	304.27
179.987	264.36
180.207	251.13
180.426	274.1
180.645	297.82
180.864	302.35
181.084	323.59
181.303	231.86
181.522	216.47
181.741	200
181.96	201.81
182.179	216.25
182.398	219.73
182.618	196.14
182.837	178.84
183.056	189.15
183.275	197.03
183.494	172.64
183.713	174.95
183.932	171.24
184.151	188.21
184.37	172.91
184.589	157.9
184.808	156.77
185.027	159.22
185.246	170.19
185.465	137.61
185.684	142.44
185.903	145.57
186.122	149.24
186.341	166.88
186.56	160.26
186.779	156.34
186.998	174.3
187.216	170.96
187.435	169.26
187.654	160.27
187.873	174.13
188.092	174.96
188.311	192.31
188.53	188.18
188.748	173.7
188.967	175.74
189.186	185.06
189.405	170.09
189.623	165.13
189.842	163.6
190.061	152.78
190.28	155.29
190.498	143.37
190.717	132.21
190.936	134.15
191.154	120.68
191.373	118.03
191.592	111.06
191.81	109.64
192.029	113.44
192.248	107.73
192.466	111.03
192.685	108
192.904	125.7
193.122	132.88
193.341	142.68
193.559	181.07
193.778	184.25
193.996	187.94
194.215	176.96
194.433	186.98
194.652	211.43
194.87	247.1
195.089	286.85
195.307	235.65
195.526	203.47
195.744	215.76
195.963	194.42
196.181	214.13
196.399	218.46
196.618	216.25
196.836	209.12
197.055	200.22
197.273	189.07
197.491	165.52
197.71	171.44
197.928	192.44
198.146	173.43
198.365	153.17
198.583	149.74
198.801	146.16
199.019	166.49
199.238	152.26
199.456	151.94
199.674	168.49
199.892	167.11
200.111	164.61
200.329	166.74
200.547	193.83
200.765	211.56
200.983	185.12
201.202	183.66
201.42	171.84
201.638	180.75
201.856	178.79
202.074	167.58
202.292	172.12
202.51	159.48
202.728	164.73
202.946	139.93
203.165	154.27
203.383	178.37
203.601	178.24
203.819	173.1
204.037	181.39
204.255	197.23
204.473	185.63
204.691	184.31
204.909	181.42
205.127	162.67
205.345	175.97
205.562	141.11
205.78	136.2
205.998	149.34
206.216	137.75
206.434	157.73
206.652	147.19
206.87	144.89
207.088	132.84
207.306	141.66
207.523	138.12
207.741	133.94
207.959	156.79
208.177	155.23
208.395	141.92
208.612	149.38
208.83	129.14
209.048	126.79
209.266	128.98
209.483	142.39
209.701	131.27
209.919	133.41
210.136	135.13
210.354	132.75
210.572	127.63
210.79	134.94
211.007	141.83
211.225	135.64
211.442	130.14
211.66	127.71
211.878	117.7
212.095	120.42
212.313	119.44
212.53	121.73
212.748	120.37
212.966	122.49
213.183	117.69
213.401	117.53
213.618	120.92
213.836	124.58
214.053	123.43
214.271	130.78
214.488	135.85
214.705	139.79
214.923	145.98
215.14	144.82
215.358	147.69
215.575	164.27
215.793	145
216.01	140.25
216.227	131.99
216.445	145.04
216.662	155.14
216.879	140.08
217.097	154.08
217.314	126.65
217.531	116.16
217.749	122.93
217.966	115.48
218.183	123.49
218.4	118.31
218.618	126.78
218.835	122.18
219.052	119.12
219.269	124.9
219.487	107.46
219.704	108.65
219.921	111.76
220.138	100.89
220.355	92.79
220.572	90.77
220.79	90.52
221.007	83.51
221.224	79.34
221.441	74.98
221.658	71.46
221.875	72.16
222.092	70.96
222.309	68.79
222.526	69.78
222.743	72.52
222.96	71.31
223.177	68.92
223.394	71.1
223.611	71.35
223.828	70.92
224.045	67.51
224.262	68.4
224.479	66.88
224.696	65.19
224.913	61.48
225.13	60.09
225.347	55.72
225.564	52.88
225.781	50.93
225.997	47.43
226.214	43.78
226.431	42.76
226.648	35.91
226.865	32.9
227.082	30.05
227.298	26.95
227.515	23.72
227.732	21.95
227.949	20.58
228.165	17.91
228.382	16.85
228.599	16.34
228.816	14.9
229.032	14.81
229.249	14.25
229.466	13.51
229.682	12.81
229.899	12.49
230.116	12.24
230.332	12.58
230.549	13.45
230.765	14.27
230.982	14.79
231.199	14.79
231.415	15.67
231.632	16.74
231.848	17.68
232.065	19.74
232.281	21.68
232.498	22.58
232.714	22.42
232.931	22.93
233.147	22.3
233.364	22.8
233.58	22.98
233.797	22.4
234.013	22.16
234.23	21.94
234.446	23.23
234.662	20.97
234.879	21.9
235.095	23.03
235.312	22.32
235.528	22.15
235.744	22.89
235.961	23.5
236.177	24.65
236.393	25.17
236.61	24.62
236.826	23.49
237.042	24.41
237.258	23.46
237.475	22.19
237.691	21.93
237.907	22.24
238.123	20.18
238.339	19.65
238.556	19.25
238.772	18.51
238.988	18.53
239.204	18.62
239.42	19.04
239.636	19.55
239.853	19.36
240.069	19.24
240.285	18.34
240.501	17.69
240.717	16.77
240.933	14.95
241.149	13.22
241.365	12.13
241.581	11.58
241.797	10.98
242.013	10.54
242.229	10.51
242.445	10.48
242.661	10.14
242.877	10.36
243.093	10.56
243.309	11.61
243.525	12.26
243.741	13
243.957	13.44
244.173	13.18
244.388	13.4
244.604	12.89
244.82	12.6
245.036	12.35
245.252	12.16
245.468	11.41
245.683	10.69
245.899	10.65
246.115	10.12
246.331	9.33
246.547	9.27
246.762	8.83
246.978	8.77
247.194	8.4
247.409	8.52
247.625	8.19
247.841	8.27
248.057	7.95
248.272	7.86
248.488	7.9
248.703	8.27
248.919	8.19
249.135	8.93
249.35	9.12
249.566	10.1
249.782	10.2
249.997	11.03
250.213	11.52
250.428	12.5
250.644	12.47
250.859	12.29
251.075	11.96
251.29	12.41
251.506	11.32
251.721	11.34
251.937	10.88
252.152	11.41
252.368	10.65
252.583	10.16
252.798	10.27
253.014	10.16
253.229	10.89
253.445	11.62
253.66	12.01
253.875	12.59
254.091	12.8
254.306	13.03
254.521	12.42
254.737	13.46
254.952	13.72
255.167	14.05
255.383	14
255.598	13.62
255.813	12.5
256.028	12.27
256.244	12.1
256.459	12.13
256.674	12.23
256.889	12.16
257.104	11.47
257.32	11.27
257.535	10.37
257.75	10.23
257.965	9.89
258.18	9.57
258.395	8.62
258.61	7.83
258.826	7.34
259.041	6.86
259.256	6.4
259.471	6.46
259.686	6.6
259.901	6.51
260.116	6.13
260.331	6.11
260.546	6.26
260.761	6.58
260.976	6.77
261.191	6.88
261.406	6.94
261.621	7.17
261.836	7.45
262.05	7.27
262.265	7.42
262.48	8.02
262.695	8.01
262.91	8.14
263.125	8.34
263.34	9.06
263.555	9.71
263.769	9.82
263.984	10.17
264.199	9.79
264.414	10.66
264.629	11.07
264.843	11.63
265.058	11.34
265.273	10.45
265.488	10.55
265.702	9.72
265.917	9.15
266.132	9.51
266.346	9.47
266.561	9.16
266.776	8.73
266.99	8.37
267.205	8.19
267.42	8.41
267.634	8.93
267.849	8.38
268.063	8.66
268.278	8.63
268.492	8.62
268.707	8.76
268.922	9.37
269.136	9.08
269.351	9.29
269.565	9.13
269.78	8.66
269.994	8.12
270.209	8.24
270.423	8.05
270.637	7.89
270.852	7.34
271.066	6.95
271.281	6.45
271.495	6.38
271.709	6.22
271.924	5.95
272.138	6.01
272.353	6.2
272.567	6.32
272.781	6.33
272.996	6.38
273.21	6.6
273.424	6.65
273.638	6.97
273.853	6.96
274.067	6.89
274.281	7.37
274.495	7.38
274.71	7.46
274.924	7.69
275.138	7.35
275.352	7.44
275.566	7.63
275.781	7.81
275.995	7.74
276.209	8.33
276.423	8.56
276.637	8.86
276.851	9.25
277.065	9.43
277.279	9.28
277.493	9.7
277.707	9.59
277.921	9.7
278.135	9.76
278.349	9.65
278.563	9.63
278.777	9.77
278.991	9.16
279.205	9.33
279.419	8.89
279.633	8.98
279.847	8.99
280.061	9.01
280.275	8.82
280.489	8.78
280.703	8.84
280.917	8.34
281.131	7.89
281.344	7.63
281.558	6.81
281.772	6.79
281.986	6.3
282.2	6.14
282.414	6.02
282.627	5.95
282.841	5.79
283.055	5.62
283.269	5.57
283.482	5.73
283.696	5.88
283.91	6.36
284.123	6.58
284.337	6.96
284.551	6.73
284.764	7.03
284.978	7.01
285.192	6.79
285.405	6.7
285.619	6.63
285.833	6.58
286.046	6.59
286.26	6.68
286.473	6.57
286.687	6.38
286.9	6.71
287.114	6.53
287.327	6.7
287.541	6.65
287.754	6.98
287.968	7.33
288.181	7.19
288.395	7.21
288.608	7.28
288.822	7.43
289.035	7.25
289.248	7.34
289.462	6.93
289.675	6.71
289.889	6.85
290.102	6.51
290.315	6.6
290.529	6.64
290.742	6.47
290.955	6.35
291.169	6.23
291.382	6.69
291.595	6.58
291.808	7.21
292.022	7.24
292.235	7.43
292.448	7.48
292.661	7.1
292.875	7.06
293.088	7.5
293.301	7.55
293.514	7.36
293.727	7.04
293.94	7.11
294.153	6.74
294.367	6.98
294.58	6.83
294.793	7.14
295.006	7.57
295.219	7.71
295.432	7.53
295.645	7.25
295.858	7.2
296.071	7.23
296.284	7.35
296.497	7.34
296.71	7.22
296.923	7.38
297.136	6.98
297.349	6.68
297.562	6.57
297.775	6.68
297.988	6.81
298.201	7.18
298.414	6.99
298.626	6.65
298.839	6.87
299.052	6.76
299.265	6.77
299.478	7.16
299.691	7.28
299.903	7.5
300.116	7.44
300.329	7.63
300.542	7.44
300.755	7.89
300.967	8.58
301.18	8.56
301.393	8.97
301.605	8.91
301.818	9.01
302.031	9.33
302.243	9.58
302.456	10
302.669	9.96
302.881	10.12
303.094	9.85
303.307	9.44
303.519	9.46
303.732	9.46
303.944	9.6
304.157	9.5
304.37	9.43
304.582	9.47
304.795	9.19
305.007	9.55
305.22	9.35
305.432	9.62
305.645	9.72
305.857	9.9
306.069	9.74
306.282	9.74
306.494	9.61
306.707	9.55
306.919	9.43
307.132	9.56
307.344	9.26
307.556	9.26
307.769	9.38
307.981	8.95
308.193	8.62
308.406	8.48
308.618	8.31
308.83	8.44
309.043	8.48
309.255	8.66
309.467	8.59
309.679	8.62
309.892	8.7
310.104	8.32
310.316	8.6
310.528	8.48
310.74	8.19
310.953	8.24
311.165	8.32
311.377	8.26
311.589	7.91
311.801	7.94
312.013	7.82
312.225	7.67
312.437	8.28
312.649	8.36
312.862	8.58
313.074	8.95
313.286	9.34
313.498	9.29
313.71	9.72
313.922	9.87
314.134	9.92
314.346	10.05
314.558	10.45
314.77	10.32
314.982	10
315.193	9.97
315.405	10.17
315.617	9.9
315.829	10.05
316.041	9.91
316.253	9.85
316.465	10.06
316.677	10.15
316.888	10.24
317.1	9.87
317.312	10.78
317.524	10.74
317.736	10.4
317.947	10.54
318.159	10.66
318.371	10.26
318.583	10.82
318.794	10.23
319.006	10.31
319.218	10.42
319.43	10.46
319.641	9.93
319.853	9.99
320.064	10.21
320.276	10.13
320.488	10.15
320.699	10.78
320.911	10.22
321.123	10.62
321.334	10.89
321.546	11.1
321.757	11.31
321.969	11.75
322.18	11.67
322.392	12.28
322.603	12.73
322.815	12.96
323.026	12.43
323.238	12.48
323.449	12.42
323.661	11.56
323.872	11.02
324.083	11.05
324.295	10.58
324.506	10.9
324.718	10.68
324.929	10.49
325.14	10.07
325.352	10.44
325.563	10.81
325.774	11.17
325.986	11.62
326.197	11.86
326.408	11.85
326.62	12.26
326.831	12.48
327.042	12.68
327.253	12.65
327.464	12.96
327.676	12.88
327.887	12.79
328.098	12.59
328.309	12.78
328.52	12.82
328.732	12.89
328.943	12.6
329.154	12.65
329.365	12.82
329.576	13.32
329.787	13.36
329.998	13.84
330.209	14.19
330.42	14.32
330.631	14.6
330.842	14.79
331.053	15.17
331.264	15.29
331.475	15.14
331.686	15.19
331.897	14.84
332.108	15.05
332.319	14.86
332.53	14.94
332.741	14.91
332.952	15.06
333.163	14.74
333.374	14.76
333.585	15.03
333.795	15.26
334.006	15.09
334.217	15.28
334.428	15.09
334.639	15.19
334.849	14.87
335.06	15.04
335.271	14.84
335.482	15.04
335.692	15.03
335.903	15.11
336.114	15.12
336.325	15.11
336.535	15.12
336.746	15.25
336.957	14.89
337.167	15.12
337.378	15.27
337.589	15.12
337.799	15.49
338.01	15.48
338.22	15.33
338.431	15.24
338.642	15.15
338.852	14.96
339.063	14.67
339.273	14.93
339.484	14.65
339.694	14.3
339.905	14.52
340.115	13.99
340.326	13.95
340.536	13.94
340.746	13.78
340.957	13.83
341.167	13.85
341.378	14.06
341.588	13.86
341.799	13.76
342.009	13.59
342.219	13.29
342.43	13.63
342.64	13.42
342.85	13.52
343.061	13.65
343.271	13.83
343.481	13.82
343.691	13.51
343.902	13.63
344.112	13.83
344.322	14.16
344.532	14.13
344.743	14.14
344.953	13.96
345.163	14.03
345.373	14.21
345.583	13.98
345.793	13.89
346.004	14.13
346.214	14.09
346.424	14.15
346.634	14.15
346.844	14.39
347.054	14.09
347.264	14.56
347.474	14.13
347.684	13.85
347.894	13.84
348.104	13.93
348.314	14
348.524	13.69
348.734	13.84
348.944	13.8
349.154	13.44
349.364	13.55
349.574	13.23
349.784	13.25
349.994	13.66
350.204	13.95
350.413	13.75
350.623	13.61
350.833	13.8
351.043	13.72
351.253	13.76
351.463	14.12
351.672	13.99
351.882	13.99
352.092	13.99
352.302	13.87
352.511	13.74
352.721	13.74
352.931	13.89
353.141	13.84
353.35	13.55
353.56	13.45
353.77	13.09
353.979	13.14
354.189	13.13
354.399	13.06
354.608	12.8
354.818	12.78
355.027	12.99
355.237	12.73
355.447	12.6
355.656	12.63
355.866	12.57
356.075	12.72
356.285	12.72
356.494	12.82
356.704	12.89
356.913	12.78
357.123	12.65
357.332	12.49
357.542	12.32
357.751	12.46
357.96	12.48
358.17	12.25
358.379	12.21
358.589	12.18
358.798	12.06
359.007	12.22
359.217	12.14
359.426	11.81
359.635	11.76
359.845	11.91
360.054	11.79
360.263	11.64
360.472	11.79
360.682	11.7
360.891	11.71
361.1	11.64
361.309	11.56
361.519	11.62
361.728	11.75
361.937	11.76
362.146	11.72
362.355	11.73
362.564	11.91
362.774	11.95
362.983	11.97
363.192	11.94
363.401	12
363.61	11.97
363.819	12.07
364.028	12.09
364.237	11.97
364.446	11.97
364.655	11.88
364.864	11.9
365.073	11.82
365.282	11.92
365.491	11.96
365.7	11.92
365.909	11.82
366.118	11.88
366.327	11.9
366.536	11.81
366.745	12.03
366.954	12.14
367.162	12.19
367.371	12.16
367.58	12.19
367.789	12.26
367.998	12.26
368.207	12.47
368.415	12.26
368.624	12.29
368.833	12.56
369.042	12.25
369.25	12.39
369.459	12.26
369.668	12.24
369.877	12.02
370.085	11.88
370.294	11.71
370.503	11.47
370.711	11.51
370.92	11.28
371.129	11.34
371.337	11.44
371.546	11.31
371.754	11.32
371.963	11.23
372.171	11.14
372.38	11.12
372.589	11.48
372.797	11.27
373.006	11.26
373.214	11.43
373.423	11.07
373.631	11.15
373.84	11
374.048	10.93
374.256	10.88
374.465	11.06
374.673	10.96
374.882	10.79
375.09	10.96
375.298	10.79
375.507	10.94
375.715	11.28
375.923	11.2
376.132	11.3
376.34	11.18
376.548	11.17
376.757	11.21
376.965	11.24
377.173	11.06
377.381	10.98
377.59	10.92
377.798	10.82
378.006	10.66
378.214	10.62
378.423	10.26
378.631	10.25
378.839	10.24
379.047	10.15
379.255	10.22
379.463	10.38
379.671	10.57
379.879	10.57
380.088	10.55
380.296	10.27
380.504	10.21
380.712	10.41
380.92	10.39
381.128	10.27
381.336	10.31
381.544	10.05
381.752	9.95
381.96	9.81
382.168	9.75
382.376	9.62
382.584	9.8
382.791	9.85
382.999	9.86
383.207	9.69
383.415	9.81
383.623	9.81
383.831	9.75
384.039	9.74
384.247	9.68
384.454	9.76
384.662	9.61
384.87	9.71
385.078	9.56
385.285	9.4
385.493	9.65
385.701	9.5
385.909	9.4
386.116	9.38
386.324	9.45
386.532	9.43
386.739	9.45
386.947	9.52
387.155	9.41
387.362	9.36
387.57	9.33
387.778	9.16
387.985	9.22
388.193	9.08
388.4	9.08
388.608	9
388.816	9.04
389.023	8.91
389.231	8.87
389.438	8.81
389.646	8.7
389.853	8.6
390.061	8.55
390.268	8.66
390.475	8.58
390.683	8.6
390.89	8.51
391.098	8.34
391.305	8.39
391.512	8.31
391.72	8.18
391.927	8.11
392.135	8.37
392.342	8.23
392.549	8.02
392.756	7.91
392.964	7.78
393.171	7.76
393.378	7.69
393.586	7.59
393.793	7.61
394	7.58
394.207	7.64
394.414	7.62
394.622	7.63
394.829	7.6
395.036	7.84
395.243	8.03
395.45	8.06
395.657	8.13
395.864	8.03
396.072	8.12
396.279	8.1
396.486	8.04
396.693	7.92
396.9	7.84
397.107	7.73
397.314	7.56
397.521	7.28
397.728	7.08
397.935	7.18
398.142	7.18
398.349	6.92
398.556	7.07
398.763	7.2
398.97	7.07
399.177	7.12
399.383	7.2
399.59	7.13
399.797	7.3
400.004	7.32
400.211	7.23
400.418	7.38
400.625	7.54
400.831	7.28
401.038	7.27
401.245	7.13
401.452	7.21
401.658	7.25
401.865	7.48
402.072	7.27
402.279	7.18
402.485	7.07
402.692	6.82
402.899	6.62
403.105	6.65
403.312	6.4
403.519	6.59
403.725	6.39
403.932	6.37
404.138	6.17
404.345	6.26
404.552	6.39
404.758	6.47
404.965	6.54
405.171	6.62
405.378	6.63
405.584	6.65
405.791	6.47
405.997	6.5
406.204	6.42
406.41	6.4
406.617	6.33
406.823	6.28
407.029	6.19
407.236	6.18
407.442	6.09
407.649	6.15
407.855	6.03
408.061	6.12
408.268	6.05
408.474	6.29
408.68	6.25
408.887	6.07
409.093	5.99
409.299	5.91
409.505	5.79
409.712	5.84
409.918	5.78
410.124	5.96
410.33	6.11
410.537	6.07
410.743	5.9
410.949	5.85
411.155	5.98
411.361	5.87
411.567	6.08
411.773	6.08
411.98	6.07
412.186	6.04
412.392	5.97
412.598	5.79
412.804	5.81
413.01	5.69
413.216	5.69
413.422	5.64
413.628	5.86
413.834	5.75
414.04	5.85
414.246	5.73
414.452	5.83
414.658	5.93
414.864	5.84
415.07	5.93
415.275	5.96
415.481	5.94
415.687	5.89
415.893	5.77
416.099	5.74
416.305	5.69
416.511	5.6
416.716	5.4
416.922	5.37
417.128	5.4
417.334	5.33
417.539	5.37
417.745	5.35
417.951	5.41
418.157	5.38
418.362	5.25
418.568	5.17
418.774	5.18
418.979	5.08
419.185	4.95
419.391	4.85
419.596	4.73
419.802	4.59
420.008	4.53
420.213	4.06
420.419	4.05
420.624	4.07
420.83	4.08
421.035	4.07
421.241	4.07
421.446	4.08
421.652	4.05
421.857	4.07
422.063	4.06
422.268	4.09
422.474	4.44
422.679	4.4
422.885	4.36
423.09	4.25
423.295	4.24
423.501	4.32
423.706	4.35
423.911	4.42
424.117	4.48
424.322	4.45
424.527	4.39
424.733	4.34
424.938	4.33
425.143	4.32
425.349	4.36
425.554	4.41
425.759	4.41
425.964	4.37
426.169	4.36
426.375	4.3
426.58	4.34
426.785	4.29
426.99	4.41
427.195	4.35
427.4	4.42
427.605	4.64
427.811	4.68
428.016	4.71
428.221	4.68
428.426	4.7
428.631	4.84
428.836	4.9
429.041	5.09
429.246	5.05
429.451	5.11
429.656	5.04
429.861	4.91
430.066	4.83
430.271	4.71
430.476	4.7
430.681	4.69
430.886	4.55
431.09	4.52
431.295	4.38
431.5	4.44
431.705	4.42
431.91	4.47
432.115	4.4
432.32	4.46
432.524	4.57
432.729	4.68
432.934	4.63
433.139	4.61
433.343	4.58
433.548	4.62
433.753	4.55
433.958	4.61
434.162	4.59
434.367	4.64
434.572	4.54
434.776	4.4
434.981	4.32
435.186	4.37
435.39	4.47
435.595	4.42
435.799	4.37
436.004	4.32
436.209	4.26
436.413	4.23
436.618	4.19
436.822	4.26
437.027	4.25
437.231	4.16
437.436	4.13
437.64	4.12
437.845	4.2
438.049	4.33
438.253	4.39
438.458	4.42
438.662	4.41
438.867	4.43
439.071	4.43
439.275	4.43
439.48	4.48
439.684	4.41
439.888	4.39
440.093	4.32
440.297	4.29
440.501	4.24
440.706	4.17
440.91	4.15
441.114	4.11
441.318	4.1
441.523	4.12
441.727	4.13
441.931	4.14
442.135	4.09
442.339	4.12
442.543	4.04
442.748	4.03
442.952	4
443.156	4.01
443.36	4.05
443.564	4.08
443.768	4.05
443.972	4.08
444.176	4.18
444.38	4.19
444.584	4.17
444.788	4.17
444.992	4.17
445.196	4.19
445.4	4.17
445.604	4.1
445.808	4.04
446.012	4.03
446.216	3.97
446.42	3.9
446.624	3.85
446.828	3.82
447.032	3.78
447.235	3.72
447.439	3.67
447.643	3.73
447.847	3.77
448.051	3.72
448.254	3.68
448.458	3.72
448.662	3.71
448.866	3.71
449.069	3.72
449.273	3.77
449.477	3.87
449.681	3.94
449.884	4.01
450.088	4.01
450.292	4.18
450.495	4.22
450.699	4.17
450.902	4.19
451.106	4.17
451.31	4.2
451.513	4.18
451.717	4.19
451.92	4.14
452.124	4.05
452.327	4.07
452.531	4.02
452.734	4.03
452.938	4.07
453.141	4.06
453.345	4.07
453.548	4.07
453.752	4.08
453.955	4.14
454.158	4.16
454.362	4.06
454.565	4
454.769	3.88
454.972	3.95
455.175	3.99
455.379	3.97
455.582	4.02
455.785	4.01
455.988	3.99
456.192	3.83
456.395	3.89
456.598	4.08
456.801	4.14
457.005	4.21
457.208	4.18
457.411	4.11
457.614	4.01
457.817	3.86
458.021	3.79
458.224	3.79
458.427	3.78
458.63	3.76
458.833	3.65
459.036	3.6
459.239	3.55
459.442	3.52
459.645	3.43
459.848	3.49
460.051	3.54
460.254	3.66
460.457	3.67
460.66	3.72
460.863	3.69
461.066	3.63
461.269	3.62
461.472	3.68
461.675	3.74
461.878	3.82
462.081	3.86
462.284	3.99
462.486	3.91
462.689	3.95
462.892	3.95
463.095	3.96
463.298	4.1
463.5	4.14
463.703	4.2
463.906	4.15
464.109	4.25
464.311	4.23
464.514	4.17
464.717	4.24
464.92	4.15
465.122	4.16
465.325	4.15
465.528	4.13
465.73	4.28
465.933	4.27
466.135	4.2
466.338	4.18
466.541	4.25
466.743	4.22
466.946	4.18
467.148	4.19
467.351	4.18
467.553	4.18
467.756	4.16
467.958	4.1
468.161	4.05
468.363	4.16
468.566	4.15
468.768	4.11
468.971	4.09
469.173	4.04
469.375	4.01
469.578	4.08
469.78	4.05
469.983	4.1
470.185	4.05
470.387	3.98
470.59	3.98
470.792	4.06
470.994	4.09
471.196	4.05
471.399	4.08
471.601	4.13
471.803	4.08
472.005	4.21
472.208	4.22
472.41	4.2
472.612	4.28
472.814	4.24
473.016	4.15
473.218	4.14
473.421	4.17
473.623	4.2
473.825	4.31
474.027	4.31
474.229	4.19
474.431	4.18
474.633	4.22
474.835	4.29
475.037	4.27
475.239	4.35
475.441	4.35
475.643	4.45
475.845	4.4
476.047	4.29
476.249	4.36
476.451	4.41
476.653	4.47
476.855	4.41
477.057	4.32
477.258	4.29
477.46	4.2
477.662	4.2
477.864	4.11
478.066	4.16
478.268	4.18
478.469	4.16
478.671	4.2
478.873	4.18
479.075	4.19
479.276	4.2
479.478	4.25
479.68	4.31
479.882	4.26
480.083	4.29
480.285	4.21
480.487	4.22
480.688	4.13
480.89	4.04
481.091	3.91
481.293	3.91
481.495	3.77
481.696	3.75
481.898	3.63
482.099	3.55
482.301	3.53
482.502	3.52
482.704	3.42
482.905	3.4
483.107	3.34
483.308	3.32
483.51	3.28
483.711	3.28
483.913	3.25
484.114	3.25
484.315	3.27
484.517	3.24
484.718	3.24
484.92	3.28
485.121	3.28
485.322	3.3
485.524	3.32
485.725	3.35
485.926	3.35
486.127	3.35
486.329	3.35
486.53	3.37
486.731	3.39
486.932	3.35
487.134	3.33
487.335	3.34
487.536	3.33
487.737	3.32
487.938	3.3
488.139	3.29
488.341	3.3
488.542	3.33
488.743	3.33
488.944	3.32
489.145	3.35
489.346	3.41
489.547	3.41
489.748	3.44
489.949	3.46
490.15	3.52
490.351	3.55
490.552	3.55
490.753	3.47
490.954	3.46
491.155	3.48
491.356	3.52
491.557	3.48
491.758	3.49
491.959	3.5
492.159	3.5
492.36	3.43
492.561	3.46
492.762	3.52
492.963	3.65
493.164	3.66
493.364	3.7
493.565	3.78
493.766	3.84
493.967	3.78
494.167	3.83
494.368	3.93
494.569	4.09
494.769	4.08
494.97	4.08
495.171	4.1
495.371	4.12
495.572	4.12
495.773	4.05
495.973	4.09
496.174	4.23
496.375	4.25
496.575	4.29
496.776	4.3
496.976	4.36
497.177	4.32
497.377	4.29
497.578	4.31
497.778	4.32
497.979	4.26
498.179	4.3
498.38	4.29
498.58	4.25
498.78	4.23
498.981	4.22
499.181	4.26
499.382	4.31
499.582	4.35
499.782	4.45
499.983	4.46
500.183	4.59
500.383	4.63
500.584	4.72
500.784	4.87
500.984	4.88
501.184	4.99
501.385	4.94
501.585	5.04
501.785	5.04
501.985	4.91
502.185	4.9
502.386	4.86
502.586	4.79
502.786	4.8
502.986	4.79
503.186	4.87
503.386	4.81
503.586	4.9
503.786	4.94
503.987	5.01
504.187	5.16
504.387	5.27
504.587	5.35
504.787	5.38
504.987	5.45
505.187	5.47
505.387	5.52
505.587	5.59
505.786	5.65
505.986	5.58
506.186	5.58
506.386	5.56
506.586	5.54
506.786	5.55
506.986	5.59
507.186	5.6
507.386	5.62
507.585	5.59
507.785	5.64
507.985	5.6
508.185	5.72
508.384	5.77
508.584	5.84
508.784	5.91
508.984	5.9
509.183	5.95
509.383	5.94
509.583	5.92
509.782	5.93
509.982	5.98
510.182	6.1
510.381	6.13
510.581	6.16
510.781	6.25
510.98	6.33
511.18	6.46
511.379	6.57
511.579	6.63
511.778	6.73
511.978	6.84
512.177	6.85
512.377	6.81
512.576	6.88
512.776	6.93
512.975	6.96
513.175	6.97
513.374	6.98
513.573	6.94
513.773	7.06
513.972	7.13
514.172	7.23
514.371	7.33
514.57	7.43
514.77	7.43
514.969	7.49
515.168	7.54
515.367	7.57
515.567	7.62
515.766	7.76
515.965	7.82
516.164	7.82
516.364	7.75
516.563	7.77
516.762	7.8
516.961	7.92
517.16	7.99
517.359	8.05
517.559	8.16
517.758	8.25
517.957	8.27
518.156	8.29
518.355	8.35
518.554	8.46
518.753	8.45
518.952	8.51
519.151	8.47
519.35	8.5
519.549	8.52
519.748	8.56
519.947	8.59
520.146	8.63
520.345	8.64
520.544	8.7
520.743	8.75
520.942	8.84
521.141	8.88
521.339	9.04
521.538	9.17
521.737	9.28
521.936	9.26
522.135	9.26
522.333	9.34
522.532	9.45
522.731	9.49
522.93	9.5
523.129	9.51
523.327	9.56
523.526	9.58
523.725	9.59
523.923	9.63
524.122	9.71
524.321	9.82
524.519	9.83
524.718	9.86
524.917	9.91
525.115	9.98
525.314	10.05
525.512	10.14
525.711	10.15
525.909	10.16
526.108	10.17
526.306	10.23
526.505	10.24
526.703	10.26
526.902	10.29
527.1	10.34
527.299	10.36
527.497	10.4
527.696	10.38
527.894	10.42
528.092	10.42
528.291	10.44
528.489	10.42
528.688	10.44
528.886	10.43
529.084	10.45
529.283	10.43
529.481	10.44
529.679	10.47
529.877	10.53
530.076	10.54
530.274	10.59
530.472	10.57
530.67	10.64
530.869	10.71
531.067	10.79
531.265	10.83
531.463	10.97
531.661	11.09
531.859	11.15
532.057	11.24
532.255	11.29
532.454	11.34
532.652	11.45
532.85	11.54
533.048	11.54
533.246	11.62
533.444	11.68
533.642	11.71
533.84	11.76
534.038	11.79
534.236	11.79
534.434	11.85
534.632	11.93
534.83	12
535.027	12.01
535.225	12.08
535.423	12.11
535.621	12.17
535.819	12.16
536.017	12.2
536.215	12.25
536.412	12.33
536.61	12.33
536.808	12.39
537.006	12.4
537.203	12.47
537.401	12.57
537.599	12.63
537.797	12.63
537.994	12.69
538.192	12.75
538.39	12.86
538.587	12.94
538.785	13.14
538.983	13.28
539.18	13.41
539.378	13.52
539.575	13.68
539.773	13.83
539.97	13.99
540.168	14.08
540.366	14.19
540.563	14.25
540.761	14.28
540.958	14.32
541.155	14.32
541.353	14.29
541.55	14.34
541.748	14.31
541.945	14.31
542.143	14.34
542.34	14.36
542.537	14.36
542.735	14.4
542.932	14.5
543.129	14.53
543.327	14.66
543.524	14.88
543.721	15.03
543.919	15.26
544.116	15.49
544.313	15.69
544.51	15.94
544.708	16.11
544.905	16.24
545.102	16.39
545.299	16.56
545.496	16.7
545.693	16.73
545.891	16.75
546.088	16.74
546.285	16.67
546.482	16.6
546.679	16.55
546.876	16.56
547.073	16.55
547.27	16.5
547.467	16.5
547.664	16.41
547.861	16.35
548.058	16.36
548.255	16.38
548.452	16.37
548.649	16.39
548.846	16.38
549.043	16.4
549.24	16.43
549.437	16.49
549.633	16.42
549.83	16.42
550.027	16.43
550.224	16.39
550.421	16.37
550.618	16.44
550.814	16.55
551.011	16.56
551.208	16.46
551.405	16.45
551.601	16.3
551.798	16.39
551.995	16.37
552.191	16.46
552.388	16.48
552.585	16.5
552.781	16.57
552.978	16.51
553.175	16.61
553.371	16.71
553.568	16.72
553.764	16.86
553.961	16.85
554.157	16.88
554.354	16.8
554.55	16.86
554.747	16.8
554.943	16.83
555.14	16.88
555.336	16.91
555.533	17
555.729	17.17
555.926	17.27
556.122	17.3
556.318	17.43
556.515	17.55
556.711	17.49
556.907	17.64
557.104	17.69
557.3	17.72
557.496	17.71
557.693	17.67
557.889	17.59
558.085	17.61
558.281	17.7
558.478	17.64
558.674	17.72
558.87	17.74
559.066	17.66
559.262	17.61
559.459	17.57
559.655	17.57
559.851	17.67
560.047	17.67
560.243	17.72
560.439	17.59
560.635	17.65
560.831	17.65
561.027	17.84
561.223	17.87
561.419	17.88
561.615	18
561.811	18.06
562.007	18.11
562.203	18.21
562.399	18.21
562.595	18.32
562.791	18.41
562.987	18.53
563.183	18.58
563.379	18.58
563.575	18.75
563.771	18.69
563.966	18.73
564.162	18.7
564.358	18.78
564.554	18.71
564.75	18.69
564.945	18.75
565.141	18.69
565.337	18.65
565.533	18.74
565.728	18.63
565.924	18.68
566.12	18.7
566.315	18.7
566.511	18.63
566.707	18.73
566.902	18.88
567.098	18.87
567.293	18.88
567.489	18.91
567.684	18.95
567.88	18.94
568.076	18.89
568.271	18.93
568.467	18.99
568.662	19.06
568.858	19.07
569.053	19.03
569.248	19.06
569.444	19.15
569.639	19.16
569.835	19.21
570.03	19.32
570.225	19.45
570.421	19.49
570.616	19.58
570.812	19.58
571.007	19.62
571.202	19.61
571.397	19.62
571.593	19.51
571.788	19.51
571.983	19.43
572.178	19.5
572.374	19.51
572.569	19.44
572.764	19.5
572.959	19.51
573.154	19.52
573.35	19.64
573.545	19.69
573.74	19.86
573.935	19.87
574.13	20.01
574.325	20.02
574.52	20.05
574.715	20.08
574.91	20.05
575.105	20.24
575.3	20.24
575.495	20.16
575.69	20.15
575.885	20.17
576.08	20.33
576.275	20.42
576.47	20.47
576.665	20.65
576.86	20.94
577.055	21
577.25	21
577.444	21.11
577.639	21.46
577.834	21.59
578.029	21.8
578.224	21.86
578.418	21.95
578.613	22.03
578.808	21.97
579.003	21.9
579.197	21.97
579.392	22.15
579.587	22.26
579.781	22.04
579.976	22.03
580.171	21.92
580.365	21.97
580.56	21.9
580.755	21.99
580.949	21.97
581.144	22.04
581.338	22.07
581.533	22.02
581.727	21.85
581.922	21.92
582.116	22.01
582.311	22.03
582.505	22.03
582.7	22.18
582.894	22.26
583.089	22.28
583.283	22.25
583.478	22.26
583.672	22.22
583.866	22.29
584.061	22.32
584.255	22.44
584.449	22.52
584.644	22.56
584.838	22.57
585.032	22.51
585.226	22.58
585.421	22.56
585.615	22.43
585.809	22.53
586.003	22.73
586.198	22.89
586.392	22.96
586.586	23.02
586.78	22.86
586.974	22.77
587.168	22.77
587.363	22.83
587.557	22.78
587.751	22.85
587.945	22.71
588.139	22.78
588.333	22.64
588.527	22.51
588.721	22.41
588.915	22.63
589.109	22.46
589.303	22.39
589.497	22.26
589.691	22.24
589.885	22.36
590.079	22.4
590.273	22.24
590.466	22.32
590.66	22.26
590.854	22.39
591.048	22.47
591.242	22.58
591.436	22.6
591.629	22.71
591.823	22.98
592.017	22.94
592.211	22.97
592.404	23.17
592.598	23.05
592.792	23.09
592.986	23.08
593.179	22.88
593.373	22.82
593.567	22.94
593.76	23.04
593.954	22.79
594.147	22.74
594.341	22.74
594.535	22.55
594.728	22.63
594.922	22.6
595.115	22.49
595.309	22.45
595.502	22.57
595.696	22.36
595.889	22.27
596.083	22.31
596.276	22.36
596.47	22.39
596.663	22.42
596.856	22.31
597.05	22.24
597.243	22.2
597.437	22.26
597.63	22.22
597.823	22.42
598.017	22.45
598.21	22.55
598.403	22.6
598.596	22.6
598.79	22.69
598.983	22.83
599.176	22.96
599.369	23.17
599.563	23.26
599.756	23.34
599.949	23.26
600.142	23.19
600.335	23.26
600.528	23.2
600.722	23.27
600.915	23.2
601.108	23.18
601.301	23.25
601.494	23.24
601.687	23.12
601.88	23.07
602.073	23.08
602.266	22.94
602.459	22.94
602.652	23.01
602.845	22.92
603.038	22.84
603.231	22.89
603.424	22.73
603.617	22.58
603.809	22.59
604.002	22.61
604.195	22.53
604.388	22.67
604.581	22.68
604.774	22.57
604.966	22.55
605.159	22.52
605.352	22.46
605.545	22.69
605.737	22.83
605.93	22.92
606.123	22.95
606.316	23.18
606.508	23.31
606.701	23.37
606.894	23.6
607.086	23.84
607.279	24.16
607.471	24.28
607.664	24.36
607.857	24.46
608.049	24.8
608.242	25.18
608.434	25.52
608.627	25.93
608.819	26.39
609.012	27.01
609.204	27.63
609.397	28.36
609.589	29.36
609.782	30.4
609.974	31.67
610.166	32.58
610.359	33.51
610.551	34.35
610.743	35.04
610.936	35.77
611.128	36.23
611.32	36.67
611.513	36.95
611.705	36.9
611.897	36.67
612.09	36.18
612.282	35.78
612.474	35.28
612.666	34.83
612.858	34.18
613.051	33.72
613.243	33.18
613.435	32.59
613.627	31.89
613.819	31.39
614.011	30.93
614.203	30.41
614.395	30.1
614.588	29.65
614.78	29.3
614.972	29.15
615.164	28.82
615.356	28.33
615.548	27.99
615.74	27.93
615.932	27.68
616.124	27.41
616.315	27.27
616.507	26.84
616.699	26.69
616.891	26.33
617.083	26.23
617.275	26.05
617.467	26.01
617.659	26
617.85	25.88
618.042	25.82
618.234	25.73
618.426	25.6
618.618	25.73
618.809	25.66
619.001	25.67
619.193	25.69
619.384	25.57
619.576	25.58
619.768	25.4
619.959	25.29
620.151	25.28
620.343	25.3
620.534	25.32
620.726	24.97
620.917	24.89
621.109	24.89
621.301	24.9
621.492	24.91
621.684	25
621.875	25.16
622.067	25.3
622.258	25.12
622.45	25.03
622.641	25.08
622.832	25.4
623.024	25.53
623.215	25.57
623.407	25.44
623.598	25.53
623.789	25.55
623.981	25.58
624.172	25.58
624.363	25.73
624.555	25.91
624.746	25.74
624.937	25.79
625.129	25.66
625.32	25.69
625.511	25.73
625.702	25.7
625.893	25.63
626.085	25.46
626.276	25.34
626.467	25.39
626.658	25.18
626.849	25.14
627.04	25.07
627.231	25.1
627.422	25.07
627.614	24.98
627.805	24.87
627.996	24.89
628.187	25.15
628.378	25.37
628.569	25.42
628.76	25.58
628.951	25.83
629.142	25.98
629.332	26.22
629.523	26.37
629.714	26.66
629.905	26.97
630.096	27.14
630.287	27.06
630.478	27.02
630.669	27.08
630.859	27.08
631.05	27.01
631.241	26.9
631.432	26.82
631.623	26.66
631.813	26.42
632.004	25.99
632.195	25.74
632.385	25.71
632.576	25.52
632.767	25.38
632.957	25.16
633.148	25.17
633.339	25.07
633.529	24.88
633.72	24.77
633.91	24.67
634.101	24.69
634.292	24.82
634.482	24.64
634.673	24.64
634.863	24.59
635.054	24.66
635.244	24.63
635.435	24.58
635.625	24.64
635.815	24.62
636.006	24.66
636.196	24.76
636.387	24.68
636.577	24.62
636.767	24.53
636.958	24.29
637.148	24.28
637.338	24.38
637.529	24.45
637.719	24.37
637.909	24.5
638.099	24.37
638.29	24.29
638.48	24.26
638.67	24.37
638.86	24.52
639.05	24.74
639.241	24.82
639.431	24.61
639.621	24.42
639.811	24.43
640.001	24.16
640.191	24.19
640.381	24.26
640.571	24.21
640.761	24.18
640.951	23.97
641.141	23.87
641.331	23.94
641.521	23.94
641.711	24
641.901	24.1
642.091	24.29
642.281	24.39
642.471	24.43
642.661	24.42
642.851	24.72
643.041	24.94
643.231	25.16
643.42	25.13
643.61	25.06
643.8	25.24
643.99	25.12
644.18	25.08
644.369	25.07
644.559	25.23
644.749	25.29
644.939	25.14
645.128	25.02
645.318	25.03
645.508	25.11
645.697	25.17
645.887	25.11
646.076	25.09
646.266	25.07
646.456	25.22
646.645	25.14
646.835	25.07
647.024	25.11
647.214	25.2
647.403	25.05
647.593	25.01
647.782	25.08
647.972	25
648.161	25.23
648.351	25.35
648.54	25.11
648.73	25.11
648.919	25.39
649.108	25.29
649.298	25.36
649.487	25.43
649.677	25.46
649.866	25.45
650.055	25.7
650.244	25.41
650.434	25.44
650.623	25.47
650.812	25.28
651.002	25.07
651.191	24.95
651.38	25.03
651.569	25.22
651.758	25.13
651.947	25.19
652.137	24.85
652.326	24.79
652.515	24.83
652.704	24.97
652.893	25.22
653.082	25.22
653.271	25.6
653.46	25.35
653.649	25.11
653.838	25.19
654.027	25.27
654.216	25.39
654.405	25.68
654.594	25.42
654.783	25.56
654.972	25.5
655.161	25.75
655.35	25.56
655.539	25.63
655.728	25.84
655.916	25.92
656.105	25.92
656.294	26.11
656.483	25.92
656.672	25.99
656.86	25.96
657.049	25.9
657.238	25.47
657.427	25.21
657.615	25.21
657.804	25.06
657.993	24.76
658.181	24.5
658.37	24.46
658.559	24.49
658.747	24.6
658.936	24.49
659.125	24.23
659.313	24.41
659.502	24.43
659.69	24.36
659.879	24.34
660.067	24.56
660.256	24.73
660.444	24.65
660.633	24.83
660.821	24.9
661.01	24.99
661.198	25.16
661.387	25.16
661.575	25.47
661.763	25.71
661.952	25.67
662.14	25.49
662.328	25.61
662.517	25.71
662.705	25.73
662.893	25.65
663.082	25.9
663.27	26.05
663.458	26.08
663.646	26.08
663.834	26.04
664.023	26.02
664.211	26.08
664.399	25.79
664.587	25.78
664.775	25.82
664.963	25.92
665.152	25.64
665.34	25.7
665.528	25.82
665.716	25.85
665.904	25.73
666.092	25.86
666.28	25.92
666.468	25.94
666.656	26.23
666.844	26.18
667.032	25.91
667.22	25.94
667.408	25.92
667.596	25.84
667.784	25.7
667.971	25.79
668.159	25.85
668.347	26.11
668.535	26.36
668.723	25.94
668.911	26.08
669.098	26.47
669.286	26.48
669.474	26.3
669.662	26.43
669.849	26.63
670.037	26.74
670.225	26.66
670.413	26.53
670.6	26.52
670.788	26.79
670.976	26.64
671.163	26.47
671.351	26.5
671.538	26.71
671.726	26.59
671.913	26.33
672.101	26.08
672.289	25.95
672.476	25.82
672.664	25.87
672.851	25.82
673.039	25.76
673.226	25.67
673.413	25.5
673.601	25.15
673.788	25.23
673.976	25.4
674.163	25.43
674.35	25.69
674.538	25.69
674.725	25.75
674.912	25.61
675.1	25.55
675.287	25.54
675.474	25.44
675.662	25.92
675.849	25.78
676.036	25.85
676.223	26.03
676.411	25.86
676.598	25.72
676.785	25.47
676.972	25.58
677.159	25.53
677.346	25.49
677.533	25.79
677.721	25.63
677.908	25.44
678.095	25.2
678.282	25.07
678.469	25.28
678.656	25.4
678.843	25.61
679.03	25.63
679.217	25.81
679.404	25.9
679.591	25.92
679.778	25.86
679.964	25.93
680.151	25.94
680.338	25.97
680.525	25.87
680.712	25.95
680.899	25.78
681.086	25.68
681.272	25.58
681.459	25.62
681.646	25.4
681.833	25.56
682.02	25.67
682.206	25.9
682.393	26.24
682.58	26.28
682.766	26.2
682.953	26.28
683.14	26.07
683.326	26.49
683.513	26.46
683.7	26.71
683.886	26.56
684.073	26.59
684.259	26.37
684.446	26.13
684.632	26.35
684.819	26.09
685.005	26.23
685.192	26.52
685.378	26.08
685.565	26.19
685.751	26.06
685.938	26.12
686.124	26.17
686.31	26.44
686.497	26.29
686.683	26.33
686.87	26.66
687.056	26.58
687.242	26.54
687.429	26.69
687.615	26.43
687.801	26.28
687.987	26.33
688.174	26.34
688.36	26.49
688.546	26.58
688.732	26.06
688.918	26.3
689.105	26.38
689.291	26.39
689.477	26.21
689.663	26.41
689.849	26.53
690.035	26.45
690.221	26.26
690.407	26
690.593	26.2
690.779	26.76
690.965	26.36
691.151	26.46
691.337	26.7
691.523	26.96
691.709	26.98
691.895	26.98
692.081	27.45
692.267	27.5
692.453	27.47
692.639	27.4
692.825	27.12
693.011	27.13
693.196	26.98
693.382	26.77
693.568	26.7
693.754	26.82
693.94	26.72
694.125	26.58
694.311	26.85
694.497	27.11
694.682	26.92
694.868	27.21
695.054	27.5
695.239	27.49
695.425	27.43
695.611	27.25
695.796	26.99
695.982	27.2
696.168	26.98
696.353	26.86
696.539	26.61
696.724	26.6
696.91	26.36
697.095	25.87
697.281	25.73
697.466	25.78
697.652	25.77
697.837	25.79
698.023	25.62
698.208	25.7
698.393	25.44
698.579	25.3
698.764	25.22
698.949	24.93
699.135	25.03
699.32	25.01
699.505	25.01
699.691	25.04
699.876	25
700.061	25.15
700.246	24.96
700.432	24.94
700.617	25.17
700.802	25.54
700.987	25.82
701.172	26.12
701.358	26.25
701.543	26.18
701.728	26.39
701.913	26.4
702.098	26.39
702.283	26.34
702.468	26.64
702.653	26.49
702.838	26.24
703.023	26.25
703.208	26.25
703.393	26.35
703.578	26.7
703.763	26.84
703.948	27.18
704.133	27.67
704.318	28.37
704.503	28.9
704.688	29.01
704.873	29.43
705.057	29.8
705.242	30.1
705.427	30.35
705.612	30.38
705.797	30.55
705.981	31.02
706.166	31.04
706.351	31
706.536	30.98
706.72	31.37
706.905	31.32
707.09	31.61
707.274	31.65
707.459	31.47
707.644	31.79
707.828	31.83
708.013	31.49
708.197	31.39
708.382	31.34
708.567	31.46
708.751	31.1
708.936	30.76
709.12	30.38
709.305	30.24
709.489	30.33
709.673	30.15
709.858	29.94
710.042	29.87
710.227	29.76
710.411	29.7
710.596	29.54
710.78	29.43
710.964	29.65
711.149	29.85
711.333	30.12
711.517	30.03
711.702	29.81
711.886	29.88
712.07	29.75
712.254	29.56
712.438	29.36
712.623	28.85
712.807	28.84
712.991	28.38
713.175	28.2
713.359	27.8
713.544	27.46
713.728	27.19
713.912	27.05
714.096	27.18
714.28	27.08
714.464	27.07
714.648	27.47
714.832	27.41
715.016	27.74
715.2	27.48
715.384	27.23
715.568	27.47
715.752	27.67
715.936	27.31
716.12	27.27
716.304	27.66
716.488	27.64
716.671	27.05
716.855	27.24
717.039	26.91
717.223	26.93
717.407	26.87
717.59	26.92
717.774	26.81
717.958	27.36
718.142	27.05
718.325	26.39
718.509	26.7
718.693	27.22
718.877	26.8
719.06	26.83
719.244	26.85
719.428	26.75
719.611	26.65
719.795	26.93
719.978	26.79
720.162	27.23
720.345	27.93
720.529	28.17
720.713	28.28
720.896	28.65
721.08	28.73
721.263	29.12
721.446	29.87
721.63	30.07
721.813	29.95
721.997	29.98
722.18	29.72
722.364	29.27
722.547	28.67
722.73	28.68
722.914	28.72
723.097	28.87
723.28	28.74
723.464	28.24
723.647	28.06
723.83	27.91
724.013	27.63
724.197	27.9
724.38	27.85
724.563	27.66
724.746	27.46
724.929	27.45
725.112	27.42
725.296	27.42
725.479	27.91
725.662	28.05
725.845	27.7
726.028	27.92
726.211	27.71
726.394	28.07
726.577	27.79
726.76	28.25
726.943	28.36
727.126	28.52
727.309	28.76
727.492	28.4
727.675	28.18
727.858	28.66
728.041	28.25
728.224	28.42
728.407	27.88
728.589	28.71
728.772	28.66
728.955	28.69
729.138	28.77
729.321	28.04
729.503	27.94
729.686	28.18
729.869	27.83
730.052	27.91
730.234	27.9
730.417	27.94
730.6	27.46
730.782	27.07
730.965	26.95
731.148	26.69
731.33	27.31
731.513	27.67
731.695	27.91
731.878	28.37
732.061	28.45
732.243	28.74
732.426	28.81
732.608	28.76
732.791	28.71
732.973	28.81
733.156	28.82
733.338	28.65
733.52	28.47
733.703	27.92
733.885	27.8
734.068	27.88
734.25	27.22
734.432	27.5
734.615	27.75
734.797	27.66
734.979	27.61
735.162	27.65
735.344	27.65
735.526	27.9
735.708	28.33
735.891	28.45
736.073	28.48
736.255	29.21
736.437	28.89
736.619	29.2
736.802	29.66
736.984	29.84
737.166	30.52
737.348	30.45
737.53	30.24
737.712	29.7
737.894	29.42
738.076	29.45
738.258	29.1
738.44	28.74
738.622	28.05
738.804	27.81
738.986	27.66
739.168	27.23
739.35	27.4
739.532	27.52
739.714	27.68
739.896	27.79
740.078	27.41
740.259	27.6
740.441	28.44
740.623	28.8
740.805	28.88
740.987	29.29
741.168	28.98
741.35	28.57
741.532	28.35
741.714	28.59
741.895	28.87
742.077	28.92
742.259	28.67
742.44	28.61
742.622	28.75
742.804	28.54
742.985	28.12
743.167	28.15
743.348	28.83
743.53	28.65
743.711	28.38
743.893	27.69
744.075	28.19
744.256	27.83
744.438	27.66
744.619	27.79
744.8	28.06
744.982	28.08
745.163	28.5
745.345	28.38
745.526	29.09
745.707	29.06
745.889	28.94
746.07	29.22
746.252	29.63
746.433	29.33
746.614	29.48
746.795	29.15
746.977	29.27
747.158	29.17
747.339	29.02
747.52	28.83
747.702	29.1
747.883	30.02
748.064	29.54
748.245	29.35
748.426	29.23
748.607	28.66
748.788	29.36
748.97	28.81
749.151	28.85
749.332	28.87
749.513	29.09
749.694	29.41
749.875	29.73
750.056	29.68
750.237	30.55
750.418	31.21
750.599	31.73
750.78	31.32
750.96	31.84
751.141	31.74
751.322	31.94
751.503	31.42
751.684	31.69
751.865	30.91
752.046	31.29
752.226	30.42
752.407	30.17
752.588	29.93
752.769	30.31
752.949	30.13
753.13	29.85
753.311	28.86
753.492	29.35
753.672	29.12
753.853	29.33
754.034	29.2
754.214	29.46
754.395	29.55
754.575	29.71
754.756	29.92
754.937	29.61
755.117	29.78
755.298	30.42
755.478	30.11
755.659	30.19
755.839	29.65
756.02	29.02
756.2	29.01
756.381	29.15
756.561	28.92
756.741	28.59
756.922	29.36
757.102	29.49
757.283	29.88
757.463	30.2
757.643	30.41
757.823	30.95
758.004	31.26
758.184	31.43
758.364	31.45
758.545	31.92
758.725	31.74
758.905	31.14
759.085	31.18
759.265	30.35
759.446	30.15
759.626	29.52
759.806	29.64
759.986	30.18
760.166	29.78
760.346	29.51
760.526	29.68
760.706	29.51
760.886	29.71
761.066	29.56
761.246	30.02
761.426	29.45
761.606	29.19
761.786	29.41
761.966	28.6
762.146	28.6
762.326	28.64
762.506	28.06
762.686	28.13
762.866	28.29
763.046	28.2
763.225	28.15
763.405	28.32
763.585	28.41
763.765	27.73
763.945	28.11
764.124	28.13
764.304	27.79
764.484	27.72
764.664	28.02
764.843	27.95
765.023	27.9
765.203	28.02
765.382	27.85
765.562	27.92
765.741	28.44
765.921	28.99
766.101	28.89
766.28	29.7
766.46	29.85
766.639	29.95
766.819	30.15
766.998	29.86
767.178	30.06
767.357	30.54
767.537	30.45
767.716	30.5
767.896	29.61
768.075	29.91
768.254	29.03
768.434	29.45
768.613	29.4
768.792	29.18
768.972	29.59
769.151	29.45
769.33	29.62
769.51	30.36
769.689	30.58
769.868	30.46
770.047	30.74
770.226	31.76
770.406	31.12
770.585	30.73
770.764	30.94
770.943	30.91
771.122	30.89
771.301	30.65
771.48	29.92
771.66	29.21
771.839	30.54
772.018	30.14
772.197	29.87
772.376	30.75
772.555	31
772.734	30.14
772.913	29.9
773.092	30.34
773.271	30.03
773.449	30.31
773.628	31.37
773.807	30.8
773.986	30.65
774.165	30.61
774.344	29.87
774.523	29.5
774.701	29.96
774.88	30.21
775.059	30.54
775.238	30.65
775.417	30.02
775.595	29.53
775.774	29.35
775.953	29.12
776.131	29.58
776.31	29.92
776.489	29.77
776.667	30.64
776.846	31.52
777.025	30.98
777.203	31.1
777.382	31.79
777.56	32.29
777.739	32.71
777.917	33.41
778.096	33.12
778.274	32.75
778.453	33.95
778.631	33.5
778.81	32.88
778.988	32.68
779.166	33.37
779.345	33.45
779.523	32.82
779.702	32.57
779.88	33.02
780.058	32.62
780.237	33.3
780.415	32.67
780.593	33.03
780.771	34.12
780.95	35.39
781.128	34.95
781.306	35.27
781.484	35.07
781.662	35.07
781.841	35.38
782.019	36.15
782.197	35.31
782.375	35.35
782.553	34.68
782.731	34.46
782.909	33.06
783.087	33.7
783.265	33.96
783.443	34.85
783.621	34.88
783.799	34.13
783.977	33.7
784.155	34.07
784.333	33.96
784.511	34.78
784.689	33.58
784.867	34.87
785.045	33.9
785.223	33.09
785.4	32.98
785.578	33.92
785.756	34.51
785.934	35.21
786.112	35.45
786.289	34.99
786.467	34.38
786.645	35.13
786.823	34.41
787	35.1
787.178	35.52
787.356	35.11
787.533	34.13
787.711	33.67
787.889	33.38
788.066	33.49
788.244	33.55
788.421	34.13
788.599	34.14
788.776	33.94
788.954	33.27
789.131	33.21
789.309	33.15
789.486	32.57
789.664	32.45
789.841	32.81
790.019	32.81
790.196	33.44
790.373	32.71
790.551	32.66
790.728	32.98
790.906	33.49
791.083	33.68
791.26	34.06
791.437	34.73
791.615	34.52
791.792	34.26
791.969	35.05
792.146	34.41
792.324	34.86
792.501	34.71
792.678	34.94
792.855	34.66
793.032	34.75
793.209	35.44
793.387	35.09
793.564	36.17
793.741	36.15
793.918	35.61
794.095	35.81
794.272	36.51
794.449	37.01
794.626	36.09
794.803	35.97
794.98	35.62
795.157	34.59
795.334	35.18
795.511	33.86
795.688	33.48
795.864	33.28
796.041	33.71
796.218	32.73
796.395	31.59
796.572	32.01
796.749	32.05
796.925	31.78
797.102	32.37
797.279	32.39
797.456	32.22
797.632	32.2
797.809	32.44
797.986	32.56
798.162	32.79
798.339	33.76
798.516	33.35
798.692	34.6
798.869	34.74
799.046	35.39
799.222	35.46
799.399	35.52
799.575	35.27
799.752	34.97
799.928	34.29
800.105	34.63
800.281	34.32
800.458	34.14
800.634	32.94
800.811	34.04
800.987	32.89
801.163	32.79
801.34	32.96
801.516	32.69
801.692	32.89
801.869	33.57
802.045	33.9
802.221	34.15
802.398	34.69
802.574	34.92
802.75	34.78
802.926	34.5
803.103	34.98
803.279	35.44
803.455	35.41
803.631	36.08
803.807	36.08
803.983	36.75
804.16	36.4
804.336	36.69
804.512	37.57
804.688	37.59
804.864	38.06
805.04	37.69
805.216	37.32
805.392	38.62
805.568	38.5
805.744	39.68
805.92	38.01
806.096	39.73
806.272	40.06
806.448	39.21
806.623	38.18
806.799	38.82
806.975	40.12
807.151	40.69
807.327	40.13
807.503	39.6
807.678	37.89
807.854	38.26
808.03	37.9
808.206	38.24
808.381	38.31
808.557	39.73
808.733	40.68
808.908	40.6
809.084	40.15
809.26	40.88
809.435	39.41
809.611	39.37
809.787	39.93
809.962	39.59
810.138	38.81
810.313	37.86
810.489	36.75
810.664	36.06
810.84	34.72
811.015	34.45
811.191	34.73
811.366	37.14
811.542	37.17
811.717	37.54
811.892	37.33
812.068	37.77
812.243	39.26
812.419	38.97
812.594	38.4
812.769	38.78
812.944	40.58
813.12	40.23
813.295	39.82
813.47	39.28
813.645	37.8
813.821	36.22
813.996	35.19
814.171	35.09
814.346	36.03
814.521	35.96
814.697	35.69
814.872	34.35
815.047	34.12
815.222	34.41
815.397	35.87
815.572	35.24
815.747	35.86
815.922	35.64
816.097	35.85
816.272	36.04
816.447	36.07
816.622	36.2
816.797	36.66
816.972	36.71
817.147	35.55
817.322	35.44
817.496	36.29
817.671	36.98
817.846	36.99
818.021	36.79
818.196	35.49
818.371	35.55
818.545	35.98
818.72	36.19
818.895	36.45
819.069	35.6
819.244	34.86
819.419	34.63
819.594	34.16
819.768	34.18
819.943	33.26
820.117	32.26
820.292	30.73
820.467	29.8
820.641	28.36
820.816	27.25
820.99	26.97
821.165	26.18
821.339	25.69
821.514	24.89
821.688	24.55
821.863	24.18
822.037	24.06
822.212	23.95
822.386	23.5
822.56	23.42
822.735	23.47
822.909	23.3
823.084	23.48
823.258	23.46
823.432	23.72
823.606	23.85
823.781	24.05
823.955	24.29
824.129	24.59
824.303	24.87
824.478	25.14
824.652	25.21
824.826	25.63
825	26.03
825.174	26.36
825.348	26.57
825.523	26.17
825.697	26.25
825.871	26.46
826.045	26.07
826.219	26.69
826.393	26.38
826.567	25.96
826.741	25.97
826.915	25.42
827.089	25.45
827.263	25.43
827.437	26.32
827.611	26.43
827.784	25.91
827.958	26.85
828.132	26.1
828.306	26.49
828.48	26.66
828.654	26.99
828.827	27.38
829.001	27.52
829.175	27.46
829.349	26.8
829.522	26.07
829.696	27.29
829.87	26.95
830.044	28.39
830.217	29.57
830.391	30.64
830.565	30.74
830.738	31.34
830.912	31.26
831.085	32.51
831.259	32.91
831.432	34.37
831.606	33.88
831.779	32.85
831.953	32.64
832.126	30.99
832.3	30.48
832.473	29.75
832.647	29.68
832.82	29.96
832.994	28.51
833.167	28.84
833.34	29.04
833.514	28.91
833.687	29.11
833.86	29.1
834.034	28.48
834.207	28.87
834.38	28.58
834.553	27.91
834.727	27.84
834.9	28.03
835.073	28.25
835.246	28.32
835.419	28.88
835.593	29.76
835.766	30.26
835.939	31.3
836.112	31.22
836.285	31.98
836.458	32.6
836.631	32.62
836.804	34.26
836.977	33.73
837.15	34.69
837.323	34.45
837.496	35.29
837.669	35.82
837.842	37.39
838.015	37.8
838.188	39.1
838.361	40.87
838.533	42.2
838.706	41.69
838.879	42.18
839.052	40.09
839.225	41.86
839.398	40.02
839.57	40.03
839.743	39.23
839.916	38.98
840.088	36.43
840.261	36.43
840.434	36.52
840.607	37.99
840.779	37.58
840.952	38.72
841.124	38.04
841.297	37.71
841.47	36.34
841.642	37.8
841.815	39.03
841.987	41.09
842.16	43.54
842.332	43.98
842.505	43.44
842.677	45.77
842.85	44.65
843.022	45.18
843.194	48.69
843.367	50.13
843.539	50.03
843.712	49.02
843.884	49.44
844.056	48.71
844.229	50.96
844.401	50.87
844.573	49.46
844.745	53.88
844.918	55.24
845.09	54.5
845.262	53.89
845.434	50.6
845.606	52.64
845.779	54.43
845.951	56.22
846.123	52.99
846.295	55.25
846.467	58.15
846.639	55.39
846.811	52.93
846.983	50.28
847.155	51.44
847.327	56.12
847.499	54.38
847.671	52.65
847.843	50.8
848.015	52.52
848.187	52.02
848.359	54.33
848.531	57.18
848.703	58.11
848.875	63.87
849.047	61.76
849.218	59.57
849.39	62.44
849.562	63.35
849.734	62.76
849.905	62.17
850.077	62.9
850.249	60.7
850.421	58.45
850.592	57.4
850.764	54.19
850.936	55.57
851.107	57.6
851.279	56.07
851.451	57.25
851.622	56.72
851.794	58.72
851.965	58.03
852.137	56.42
852.308	54.85
852.48	57.12
852.651	57.38
852.823	60
852.994	57.8
853.166	58.99
853.337	58.58
853.509	60.67
853.68	60.74
853.851	59.64
854.023	60.21
854.194	59.58
854.365	57.92
854.537	60.21
854.708	58.07
854.879	57.94
855.05	55.45
855.222	53.61
855.393	50.35
855.564	49.68
855.735	49.18
855.906	45.81
856.078	44.85
856.249	47.75
856.42	43.6
856.591	46.52
856.762	49.88
856.933	51.57
857.104	54.82
857.275	56.7
857.446	56.92
857.617	57.99
857.788	61.25
857.959	63.49
858.13	61.14
858.301	64.88
858.472	61.03
858.643	60.52
858.814	60.57
858.985	58.01
859.155	58.06
859.326	58.67
859.497	62.25
859.668	60.48
859.839	61.26
860.009	61.69
860.18	60.87
860.351	63.74
860.522	65.22
860.692	64.11
860.863	64.77
861.034	68.09
861.204	67.47
861.375	69.05
861.546	72.88
861.716	73.83
861.887	74.92
862.057	70.27
862.228	74.67
862.398	73.85
862.569	75.35
862.739	79.28
862.91	76.85
863.08	78.55
863.251	72.91
863.421	68.57
863.592	67.3
863.762	69.9
863.932	72.81
864.103	66.74
864.273	63.6
864.443	63.6
864.614	60.04
864.784	59.39
864.954	55.15
865.125	54.71
865.295	57.91
865.465	60.99
865.635	56.4
865.805	55.17
865.976	58.41
866.146	59.16
866.316	60.43
866.486	60.16
866.656	57.33
866.826	61.16
866.996	60.18
867.166	59.03
867.336	56.38
867.506	58.19
867.676	59.08
867.846	60.58
868.016	62.11
868.186	59.67
868.356	60.87
868.526	60.36
868.696	58.08
868.866	57.98
869.036	59.39
869.206	59.37
869.376	61.32
869.545	61.12
869.715	56.14
869.885	55.45
870.055	57.54
870.224	56.27
870.394	58.38
870.564	61.06
870.734	64.09
870.903	62.92
871.073	62.51
871.243	62.58
871.412	60.92
871.582	62.37
871.751	62.05
871.921	64.65
872.091	66.15
872.26	68.56
872.43	67.45
872.599	69.39
872.769	72.69
872.938	70.09
873.108	69.73
873.277	74.49
873.446	75.58
873.616	75.99
873.785	75.24
873.955	74.77
874.124	71.67
874.293	72.77
874.463	68.78
874.632	67.64
874.801	68.44
874.971	66.26
875.14	61.91
875.309	60.26
875.478	58.1
875.647	58.79
875.817	58.07
875.986	57.28
876.155	55.23
876.324	53.11
876.493	50.11
876.662	52.27
876.831	54.6
877	59.24
877.17	61.91
877.339	64.75
877.508	61.88
877.677	61.87
877.846	63.24
878.015	65.33
878.184	65.93
878.352	65.04
878.521	63.02
878.69	61.9
878.859	60.81
879.028	57.74
879.197	55.01
879.366	54
879.534	50.11
879.703	48.26
879.872	45.84
880.041	44.98
880.21	42.56
880.378	41.84
880.547	39.6
880.716	36.62
880.884	34.8
881.053	34.1
881.222	32.93
881.39	32.73
881.559	31.4
881.727	30.08
881.896	29.54
882.065	29.62
882.233	28.66
882.402	29.18
882.57	29.22
882.739	29.19
882.907	29.12
883.076	28.51
883.244	28.66
883.412	28.94
883.581	30.03
883.749	30.14
883.918	30.58
884.086	32.05
884.254	31.33
884.423	33.07
884.591	33.71
884.759	34.25
884.927	35.08
885.096	36.76
885.264	38.7
885.432	39.04
885.6	41.07
885.769	41.35
885.937	40.32
886.105	43.21
886.273	44.39
886.441	44.78
886.609	46.44
886.777	50.38
886.945	49.95
887.113	49.91
887.281	53.53
887.449	54.21
887.617	56.87
887.785	57.56
887.953	59.86
888.121	58.18
888.289	58.18
888.457	60.38
888.625	60.1
888.793	61.04
888.961	58.87
889.129	58.01
889.296	57.76
889.464	56.61
889.632	58.87
889.8	56.49
889.967	55.39
890.135	60.33
