Data from 2938766__Reflection_05.txt Node
Date: Fri Mar 13 16:14:00 EDT 2015
User: robert
Spectrometer: USB4E03002
Autoset integration time: false
Trigger mode: 4
Integration Time (sec): 1.000000E-1
Scans to average: 10
Electric dark correction enabled: false
Nonlinearity correction enabled: false
Boxcar width: 5
Stray light correction enabled: false
XAxis mode: Wavelengths
Stop averaging: false
Number of Pixels in Spectrum: 3648
>>>>>Begin Spectral Data<<<<<
177.575	485.42
177.794	1269.23
178.014	362.82
178.233	150.65
178.452	110.09
178.672	65.11
178.891	81.23
179.11	69.43
179.33	125.08
179.549	17.33
179.768	-1.7
179.987	26.34
180.207	51.7
180.426	-1.93
180.645	-18.89
180.864	-314.29
181.084	26.97
181.303	32.18
181.522	49.12
181.741	74.66
181.96	24.47
182.179	98.23
182.398	92.56
182.618	87.23
182.837	64.91
183.056	55.71
183.275	14.51
183.494	44.33
183.713	23.61
183.932	14.87
184.151	16.36
184.37	14.23
184.589	8.6
184.808	7.45
185.027	5.75
185.246	-1.86
185.465	-9.83
185.684	0.28
185.903	-18.45
186.122	-14.6
186.341	-60.09
186.56	-378.72
186.779	-84.68
186.998	113.16
187.216	103.03
187.435	62.7
187.654	-546.67
187.873	-71.33
188.092	2016.67
188.311	-37.25
188.53	63.33
188.748	107.84
188.967	109.6
189.186	76.95
189.405	67.41
189.623	61.73
189.842	-2.3
190.061	-41.83
190.28	13.38
190.498	21.69
190.717	8.68
190.936	9.19
191.154	-57.21
191.373	-57.08
191.592	-14.39
191.81	-53.78
192.029	-158
192.248	-105.13
192.466	-24.79
192.685	-16.11
192.904	-27.14
193.122	20.36
193.341	-45.79
193.559	-52.58
193.778	-104.29
193.996	-488.89
194.215	170.73
194.433	113.79
194.652	15.49
194.87	3.8
195.089	-0
195.307	78.57
195.526	323.53
195.744	19.8
195.963	35.41
196.181	38.14
196.399	73.12
196.618	34.45
196.836	40.9
197.055	33.99
197.273	22.13
197.491	52.66
197.71	50.17
197.928	48.92
198.146	39.66
198.365	23.5
198.583	45.3
198.801	14.23
199.019	38.02
199.238	41.18
199.456	47.22
199.674	48.41
199.892	23.98
200.111	9.37
200.329	19.37
200.547	35.95
200.765	24.59
200.983	4.57
201.202	52.59
201.42	55.29
201.638	45.06
201.856	40.34
202.074	57.31
202.292	96.85
202.51	90.97
202.728	89.4
202.946	84.72
203.165	82.51
203.383	83.47
203.601	76.24
203.819	78.54
204.037	66.08
204.255	72.94
204.473	54.1
204.691	13.05
204.909	23.23
205.127	22.42
205.345	-8.99
205.562	6.02
205.78	-2.67
205.998	-18.32
206.216	-9
206.434	7.91
206.652	-27.05
206.87	-51.77
207.088	18.35
207.306	-125.4
207.523	-116.52
207.741	-23.48
207.959	-41.36
208.177	-175.21
208.395	-5
208.612	-2.16
208.83	-12.52
209.048	17.29
209.266	20.49
209.483	7.69
209.701	4.25
209.919	34.14
210.136	19.39
210.354	34.48
210.572	57.12
210.79	51.18
211.007	68.29
211.225	80.28
211.442	88.11
211.66	74.96
211.878	62.98
212.095	64.43
212.313	39.42
212.53	53.98
212.748	42.51
212.966	27.58
213.183	18.39
213.401	-8.52
213.618	-8.68
213.836	-2.77
214.053	-12.94
214.271	-51.64
214.488	-48.97
214.705	-62.53
214.923	-68.19
215.14	-138.7
215.358	-74.68
215.575	-35.05
215.793	15.97
216.01	-5
216.227	-11.23
216.445	-2.59
216.662	5.33
216.879	-2.05
217.097	15.98
217.314	18.67
217.531	27.14
217.749	16.16
217.966	20.19
218.183	7.37
218.4	15.09
218.618	3.05
218.835	14.51
219.052	22.36
219.269	28.36
219.487	21.26
219.704	26.58
219.921	24.36
220.138	29.43
220.355	25.07
220.572	19.39
220.79	21.93
221.007	29.15
221.224	26.17
221.441	17.9
221.658	13.51
221.875	20.72
222.092	14
222.309	16.67
222.526	17.82
222.743	13.3
222.96	15.63
223.177	12.83
223.394	12.99
223.611	14.53
223.828	15.9
224.045	15.47
224.262	6.7
224.479	4.04
224.696	3.42
224.913	3.23
225.13	3.97
225.347	7.43
225.564	6.33
225.781	5.33
225.997	3.12
226.214	3.16
226.431	5.84
226.648	4.14
226.865	6.22
227.082	7.4
227.298	5.34
227.515	4.62
227.732	3.85
227.949	2.96
228.165	2.41
228.382	1.59
228.599	1.86
228.816	2
229.032	2.88
229.249	2.51
229.466	2.16
229.682	2.77
229.899	2.79
230.116	1.77
230.332	2.74
230.549	3
230.765	4.01
230.982	4.53
231.199	4.81
231.415	5.26
231.632	4.95
231.848	4.88
232.065	5.01
232.281	7.27
232.498	8.42
232.714	7.24
232.931	8.56
233.147	8.71
233.364	7.76
233.58	5.56
233.797	4.04
234.013	5.88
234.23	4.7
234.446	4.82
234.662	2.77
234.879	2.57
235.095	1.76
235.312	0.15
235.528	-1.33
235.744	-2.58
235.961	-1.62
236.177	0.19
236.393	-1.07
236.61	-0.94
236.826	-0.41
237.042	1.27
237.258	2.33
237.475	4.73
237.691	5.6
237.907	4.72
238.123	6.41
238.339	6.05
238.556	5.09
238.772	5.22
238.988	5.79
239.204	5.59
239.42	4.19
239.636	2.72
239.853	1.92
240.069	2.11
240.285	3.18
240.501	2.62
240.717	2.99
240.933	3.41
241.149	2.44
241.365	2.63
241.581	2.22
241.797	2.89
242.013	3.71
242.229	3.43
242.445	3.22
242.661	3.36
242.877	3.85
243.093	3.48
243.309	2.92
243.525	3.12
243.741	3.5
243.957	4.11
244.173	3.39
244.388	3.39
244.604	4.1
244.82	4.59
245.036	4.66
245.252	4.22
245.468	4.34
245.683	4.6
245.899	4.73
246.115	4.48
246.331	4.3
246.547	4.35
246.762	4.08
246.978	4.37
247.194	4.03
247.409	4.17
247.625	4.03
247.841	4.22
248.057	4.07
248.272	3.8
248.488	3.4
248.703	3.2
248.919	3.14
249.135	2.84
249.35	2.02
249.566	1.95
249.782	1.05
249.997	0.33
250.213	0.16
250.428	0.94
250.644	2.18
250.859	2.31
251.075	1.96
251.29	1.77
251.506	2.17
251.721	1.78
251.937	1.74
252.152	2.3
252.368	3
252.583	2.78
252.798	2.26
253.014	1.98
253.229	2.99
253.445	3.36
253.66	3.99
253.875	4.32
254.091	4.99
254.306	6.46
254.521	6.78
254.737	7.49
254.952	6.28
255.167	6.3
255.383	6.04
255.598	4.48
255.813	4.04
256.028	4.68
256.244	3.37
256.459	3.89
256.674	2.42
256.889	2.06
257.104	1.5
257.32	2.65
257.535	2.55
257.75	1.95
257.965	1.89
258.18	2.27
258.395	1.8
258.61	2.15
258.826	1.96
259.041	1.9
259.256	1.96
259.471	2.03
259.686	2.06
259.901	2.07
260.116	2.42
260.331	2.48
260.546	2.44
260.761	2.44
260.976	2.3
261.191	2.31
261.406	2.87
261.621	2.92
261.836	2.68
262.05	2.84
262.265	2.66
262.48	2.66
262.695	2.95
262.91	3.05
263.125	3.13
263.34	3.83
263.555	3.53
263.769	3.12
263.984	2.79
264.199	2.55
264.414	2.18
264.629	2.78
264.843	2.38
265.058	2.34
265.273	2.4
265.488	1.78
265.702	1.53
265.917	1.91
266.132	1.84
266.346	2.45
266.561	2.64
266.776	2.67
266.99	2.64
267.205	2.55
267.42	2.1
267.634	2.22
267.849	2.7
268.063	2.79
268.278	2.53
268.492	2.08
268.707	1.63
268.922	2.22
269.136	2.38
269.351	1.98
269.565	1.84
269.78	2.37
269.994	2.46
270.209	2.53
270.423	2.3
270.637	2.56
270.852	2.94
271.066	2.78
271.281	2.49
271.495	2.21
271.709	2.08
271.924	1.99
272.138	1.59
272.353	1.23
272.567	1.23
272.781	1.52
272.996	1.32
273.21	1.32
273.424	1.24
273.638	1.31
273.853	1.55
274.067	1.85
274.281	2.03
274.495	2.16
274.71	1.74
274.924	1.45
275.138	0.85
275.352	0.81
275.566	0.12
275.781	0.01
275.995	-0.18
276.209	-0.07
276.423	0.24
276.637	0.34
276.851	0.35
277.065	0.91
277.279	0.54
277.493	0.93
277.707	1.13
277.921	1.19
278.135	1.57
278.349	1.23
278.563	1.59
278.777	1.19
278.991	1.1
279.205	1.06
279.419	0.47
279.633	1.08
279.847	0.94
280.061	0.79
280.275	1.25
280.489	1.16
280.703	1.7
280.917	1.27
281.131	1.13
281.344	1.23
281.558	1.43
281.772	1.83
281.986	1.32
282.2	1.28
282.414	1.65
282.627	1.81
282.841	1.86
283.055	1.8
283.269	1.77
283.482	1.92
283.696	2.19
283.91	2.18
284.123	1.97
284.337	2.22
284.551	2.5
284.764	2.35
284.978	2.17
285.192	2.17
285.405	2.32
285.619	2.32
285.833	2.35
286.046	2.31
286.26	2.08
286.473	2.54
286.687	2.59
286.9	2.46
287.114	2.45
287.327	2.32
287.541	2.21
287.754	2.39
287.968	2.58
288.181	2.77
288.395	2.24
288.608	2.43
288.822	1.92
289.035	1.69
289.248	1.49
289.462	1.75
289.675	1.91
289.889	2.09
290.102	1.72
290.315	1.44
290.529	1.31
290.742	1.61
290.955	1.44
291.169	1.71
291.382	1.86
291.595	1.69
291.808	1.42
292.022	1.29
292.235	1.2
292.448	1.48
292.661	1.38
292.875	1.68
293.088	1.58
293.301	1.79
293.514	1.64
293.727	1.51
293.94	1.89
294.153	2.16
294.367	2.03
294.58	2.08
294.793	1.94
295.006	2.07
295.219	1.62
295.432	1.67
295.645	1.63
295.858	1.66
296.071	1.7
296.284	1.75
296.497	1.78
296.71	2.01
296.923	2.01
297.136	2.21
297.349	2.37
297.562	2.49
297.775	2.33
297.988	2.37
298.201	2.46
298.414	2.67
298.626	2.84
298.839	2.87
299.052	2.68
299.265	2.82
299.478	2.46
299.691	2.3
299.903	2.36
300.116	2.58
300.329	2.73
300.542	2.51
300.755	2.35
300.967	2.1
301.18	2
301.393	2.32
301.605	2.08
301.818	1.92
302.031	2.2
302.243	2.13
302.456	2.24
302.669	2.15
302.881	2.28
303.094	2.45
303.307	2.41
303.519	1.9
303.732	1.91
303.944	2.27
304.157	2.6
304.37	2.52
304.582	2.64
304.795	2.64
305.007	2.97
305.22	3.23
305.432	2.89
305.645	3.08
305.857	3.5
306.069	3.54
306.282	3.2
306.494	3.22
306.707	3.29
306.919	3.2
307.132	3.15
307.344	2.98
307.556	2.88
307.769	3.44
307.981	3.26
308.193	3.1
308.406	3
308.618	3.41
308.83	3.13
309.043	2.88
309.255	3.12
309.467	3.01
309.679	3.02
309.892	3.19
310.104	3.03
310.316	3.33
310.528	3.38
310.74	3.39
310.953	3.27
311.165	3.59
311.377	3.9
311.589	3.76
311.801	4.01
312.013	3.94
312.225	4
312.437	4.08
312.649	3.87
312.862	3.88
313.074	4.11
313.286	4
313.498	4.16
313.71	3.86
313.922	3.97
314.134	3.55
314.346	3.85
314.558	3.85
314.77	4.09
314.982	3.86
315.193	3.77
315.405	3.31
315.617	3.3
315.829	3.48
316.041	3.83
316.253	3.25
316.465	3.77
316.677	3.56
316.888	3.3
317.1	3.17
317.312	3.63
317.524	3.88
317.736	4.09
317.947	4.26
318.159	4.17
318.371	3.86
318.583	4.79
318.794	4.5
319.006	4.37
319.218	4.34
319.43	4.24
319.641	4.2
319.853	4.4
320.064	4.58
320.276	4.95
320.488	4.3
320.699	4.38
320.911	4
321.123	4.4
321.334	4.54
321.546	4.93
321.757	5.34
321.969	5.23
322.18	5.12
322.392	5.04
322.603	4.71
322.815	5.28
323.026	5.21
323.238	4.86
323.449	4.86
323.661	4.71
323.872	4.63
324.083	4.34
324.295	4.49
324.506	4.55
324.718	4.68
324.929	5.13
325.14	5.07
325.352	5.37
325.563	5.92
325.774	6.15
325.986	6.34
326.197	6.32
326.408	6.32
326.62	6.34
326.831	6.54
327.042	6.85
327.253	6.58
327.464	6.77
327.676	6.86
327.887	7.01
328.098	7.17
328.309	7.52
328.52	7.94
328.732	8.36
328.943	8.72
329.154	8.5
329.365	8.49
329.576	8.91
329.787	8.85
329.998	8.88
330.209	8.81
330.42	8.7
330.631	8.64
330.842	8.29
331.053	8.41
331.264	8.28
331.475	8.65
331.686	9.13
331.897	8.86
332.108	9.14
332.319	9.38
332.53	9.55
332.741	9.45
332.952	9.69
333.163	9.42
333.374	9.33
333.585	9.81
333.795	9.93
334.006	9.59
334.217	9.8
334.428	9.99
334.639	9.91
334.849	9.93
335.06	10.22
335.271	9.83
335.482	10.21
335.692	10.39
335.903	10.13
336.114	10.11
336.325	10.3
336.535	10.19
336.746	10.15
336.957	10.09
337.167	10.08
337.378	10.14
337.589	10.36
337.799	10.53
338.01	10.52
338.22	10.53
338.431	10.51
338.642	10.61
338.852	10.59
339.063	10.23
339.273	10.47
339.484	10.46
339.694	10.09
339.905	10.34
340.115	10.46
340.326	10.17
340.536	10.14
340.746	10.11
340.957	9.87
341.167	9.95
341.378	10.03
341.588	9.77
341.799	9.98
342.009	9.75
342.219	9.67
342.43	9.31
342.64	9.55
342.85	9.35
343.061	9.37
343.271	9.16
343.481	9.08
343.691	9.32
343.902	9.29
344.112	8.86
344.322	9.13
344.532	9.03
344.743	9.43
344.953	9.35
345.163	9.4
345.373	9.36
345.583	9.6
345.793	9.47
346.004	9.22
346.214	9.25
346.424	9.52
346.634	9.6
346.844	9.92
347.054	9.81
347.264	9.59
347.474	9.84
347.684	9.9
347.894	9.82
348.104	10.3
348.314	10.3
348.524	10.16
348.734	9.91
348.944	10.02
349.154	9.69
349.364	9.42
349.574	9.48
349.784	9.42
349.994	9.16
350.204	9.39
350.413	8.71
350.623	8.65
350.833	8.77
351.043	9.05
351.253	8.6
351.463	8.35
351.672	8.51
351.882	8.51
352.092	8.45
352.302	8.67
352.511	8.42
352.721	8.81
352.931	8.83
353.141	9.01
353.35	8.76
353.56	8.86
353.77	9.13
353.979	9.26
354.189	9.32
354.399	9.29
354.608	9.54
354.818	9.44
355.027	9.44
355.237	9.73
355.447	9.58
355.656	9.77
355.866	9.98
356.075	9.84
356.285	9.76
356.494	9.81
356.704	9.77
356.913	9.75
357.123	9.87
357.332	9.68
357.542	9.49
357.751	9.65
357.96	9.67
358.17	9.58
358.379	9.77
358.589	9.63
358.798	9.56
359.007	9.58
359.217	9.5
359.426	9.46
359.635	9.55
359.845	9.69
360.054	9.49
360.263	9.36
360.472	9.24
360.682	9.01
360.891	8.97
361.1	9.09
361.309	9.18
361.519	9.09
361.728	8.96
361.937	8.99
362.146	8.73
362.355	8.88
362.564	8.87
362.774	9.04
362.983	9.06
363.192	9.04
363.401	9
363.61	8.95
363.819	9.04
364.028	9.03
364.237	8.91
364.446	9.14
364.655	8.75
364.864	8.59
365.073	8.49
365.282	8.59
365.491	8.53
365.7	8.38
365.909	8.35
366.118	8.02
366.327	7.98
366.536	8.26
366.745	7.99
366.954	8.09
367.162	8.25
367.371	8.21
367.58	8.37
367.789	8.47
367.998	8.45
368.207	8.34
368.415	8.37
368.624	8.53
368.833	8.19
369.042	8.41
369.25	8.56
369.459	8.45
369.668	8.24
369.877	7.9
370.085	7.73
370.294	7.67
370.503	7.69
370.711	7.81
370.92	7.47
371.129	7.69
371.337	7.54
371.546	7.48
371.754	7.58
371.963	7.8
372.171	7.85
372.38	7.87
372.589	7.98
372.797	8.14
373.006	7.9
373.214	8.21
373.423	8.12
373.631	8.15
373.84	7.92
374.048	7.83
374.256	7.73
374.465	7.48
374.673	7.58
374.882	7.72
375.09	7.48
375.298	7.63
375.507	7.59
375.715	7.54
375.923	7.54
376.132	7.72
376.34	7.59
376.548	7.58
376.757	7.63
376.965	7.65
377.173	7.43
377.381	7.38
377.59	7.53
377.798	7.55
378.006	7.44
378.214	7.21
378.423	7.18
378.631	7.29
378.839	7.29
379.047	7.47
379.255	7.47
379.463	7.39
379.671	7.44
379.879	7.19
380.088	7.06
380.296	7.38
380.504	7.59
380.712	7.69
380.92	7.55
381.128	7.56
381.336	7.38
381.544	7.37
381.752	7.3
381.96	7.4
382.168	7.51
382.376	7.46
382.584	7.15
382.791	7.09
382.999	6.95
383.207	7.12
383.415	7.21
383.623	7.27
383.831	7.14
384.039	7.4
384.247	7.19
384.454	7.23
384.662	7.16
384.87	7.02
385.078	6.82
385.285	6.64
385.493	6.59
385.701	6.33
385.909	6.44
386.116	6.66
386.324	6.51
386.532	6.41
386.739	6.25
386.947	6.36
387.155	6.32
387.362	6.52
387.57	6.58
387.778	6.47
387.985	6.67
388.193	6.36
388.4	6.09
388.608	5.99
388.816	6.14
389.023	6.19
389.231	6.38
389.438	6.51
389.646	6.29
389.853	6.17
390.061	6.21
390.268	6.04
390.475	6.25
390.683	6.45
390.89	6.44
391.098	6.47
391.305	6.29
391.512	6.21
391.72	6.18
391.927	6.34
392.135	6.42
392.342	6.36
392.549	6.4
392.756	6.38
392.964	6.34
393.171	6.38
393.378	6.3
393.586	6.36
393.793	6.23
394	6.33
394.207	6.52
394.414	6.59
394.622	6.55
394.829	6.64
395.036	6.51
395.243	6.26
395.45	6.15
395.657	6.3
395.864	6.31
396.072	6.16
396.279	6.07
396.486	5.99
396.693	5.84
396.9	5.91
397.107	5.92
397.314	5.96
397.521	5.89
397.728	5.93
397.935	5.7
398.142	5.81
398.349	5.97
398.556	5.68
398.763	5.64
398.97	5.62
399.177	5.65
399.383	5.41
399.59	5.49
399.797	5.54
400.004	5.62
400.211	5.65
400.418	5.55
400.625	5.64
400.831	5.91
401.038	5.72
401.245	5.78
401.452	5.81
401.658	5.88
401.865	5.75
402.072	5.98
402.279	5.95
402.485	5.89
402.692	6.1
402.899	6.04
403.105	6.03
403.312	6.13
403.519	6.08
403.725	5.9
403.932	5.93
404.138	6.07
404.345	5.95
404.552	5.93
404.758	6.07
404.965	5.85
405.171	5.81
405.378	5.79
405.584	5.83
405.791	5.8
405.997	6.01
406.204	5.86
406.41	5.71
406.617	5.68
406.823	5.68
407.029	5.64
407.236	5.63
407.442	5.57
407.649	5.72
407.855	5.68
408.061	5.67
408.268	5.61
408.474	5.82
408.68	5.94
408.887	6.06
409.093	6.15
409.299	6.19
409.505	6.12
409.712	6.21
409.918	6.07
410.124	5.99
410.33	6.04
410.537	5.93
410.743	6.04
410.949	5.89
411.155	5.87
411.361	5.88
411.567	5.72
411.773	5.89
411.98	5.85
412.186	6
412.392	6.08
412.598	5.88
412.804	6.07
413.01	5.94
413.216	6.12
413.422	6.13
413.628	6.12
413.834	6.28
414.04	6.23
414.246	6.17
414.452	6.05
414.658	5.96
414.864	6.13
415.07	6.15
415.275	6.24
415.481	6.2
415.687	6.14
415.893	6.06
416.099	6.05
416.305	5.93
416.511	6.02
416.716	5.97
416.922	6.07
417.128	6.06
417.334	5.99
417.539	5.92
417.745	5.98
417.951	6.01
418.157	6
418.362	6
418.568	6.17
418.774	6.16
418.979	6.27
419.185	6.23
419.391	6.28
419.596	6.28
419.802	6.31
420.008	6.28
420.213	6.27
420.419	6.3
420.624	6.32
420.83	6.31
421.035	6.29
421.241	6.19
421.446	6.2
421.652	6.2
421.857	6.22
422.063	6.25
422.268	6.25
422.474	6.3
422.679	6.34
422.885	6.32
423.09	6.26
423.295	6.24
423.501	6.31
423.706	6.31
423.911	6.3
424.117	6.3
424.322	6.24
424.527	6.23
424.733	6.22
424.938	6.17
425.143	6.17
425.349	6.25
425.554	6.28
425.759	6.29
425.964	6.31
426.169	6.34
426.375	6.35
426.58	6.3
426.785	6.37
426.99	6.37
427.195	6.41
427.4	6.43
427.605	6.25
427.811	6.21
428.016	6.33
428.221	6.32
428.426	6.3
428.631	6.3
428.836	6.41
429.041	6.36
429.246	6.46
429.451	6.5
429.656	6.47
429.861	6.55
430.066	6.7
430.271	6.64
430.476	6.63
430.681	6.65
430.886	6.65
431.09	6.66
431.295	6.62
431.5	6.55
431.705	6.5
431.91	6.55
432.115	6.65
432.32	6.58
432.524	6.48
432.729	6.56
432.934	6.63
433.139	6.68
433.343	6.63
433.548	6.66
433.753	6.62
433.958	6.68
434.162	6.74
434.367	6.76
434.572	6.66
434.776	6.8
434.981	6.73
435.186	6.64
435.39	6.75
435.595	6.81
435.799	6.71
436.004	6.8
436.209	6.78
436.413	6.72
436.618	6.67
436.822	6.76
437.027	6.79
437.231	6.85
437.436	6.92
437.64	6.79
437.845	6.85
438.049	6.92
438.253	6.91
438.458	6.9
438.662	6.92
438.867	6.95
439.071	6.96
439.275	6.87
439.48	6.89
439.684	6.94
439.888	6.91
440.093	6.9
440.297	6.92
440.501	6.89
440.706	6.89
440.91	6.86
441.114	6.85
441.318	6.88
441.523	6.93
441.727	6.9
441.931	6.86
442.135	6.89
442.339	6.87
442.543	6.88
442.748	6.86
442.952	6.93
443.156	7.01
443.36	7
443.564	6.98
443.768	6.94
443.972	7.06
444.176	7.11
444.38	7.15
444.584	7.22
444.788	7.2
444.992	7.25
445.196	7.27
445.4	7.21
445.604	7.17
445.808	7.22
446.012	7.21
446.216	7.07
446.42	7.02
446.624	7.07
446.828	7.01
447.032	7.01
447.235	6.95
447.439	6.85
447.643	6.86
447.847	6.89
448.051	6.91
448.254	6.9
448.458	6.9
448.662	6.96
448.866	6.86
449.069	6.88
449.273	6.95
449.477	7.03
449.681	7.12
449.884	7.12
450.088	7.09
450.292	6.96
450.495	6.95
450.699	7.11
450.902	7.08
451.106	7.09
451.31	7.1
451.513	7.1
451.717	7.1
451.92	7.11
452.124	7.1
452.327	7.11
452.531	7.17
452.734	7.17
452.938	7.16
453.141	7.13
453.345	7.1
453.548	7.07
453.752	7.04
453.955	6.99
454.158	6.89
454.362	6.93
454.565	6.99
454.769	7.02
454.972	6.96
455.175	6.97
455.379	6.95
455.582	7.03
455.785	7.06
455.988	7.08
456.192	7.1
456.395	7.13
456.598	7.09
456.801	7.08
457.005	7.09
457.208	7.14
457.411	7.12
457.614	7.14
457.817	7.15
458.021	7.13
458.224	7.11
458.427	7.06
458.63	7.11
458.833	7.15
459.036	7.14
459.239	7.16
459.442	7.06
459.645	7.03
459.848	7.06
460.051	7.04
460.254	7.03
460.457	7.04
460.66	7.07
460.863	7.09
461.066	7.11
461.269	7.11
461.472	7.1
461.675	7.24
461.878	7.24
462.081	7.13
462.284	7.21
462.486	7.19
462.689	7.27
462.892	7.31
463.095	7.28
463.298	7.27
463.5	7.21
463.703	7.22
463.906	7.24
464.109	7.16
464.311	7.35
464.514	7.28
464.717	7.32
464.92	7.24
465.122	7.33
465.325	7.39
465.528	7.41
465.73	7.45
465.933	7.4
466.135	7.44
466.338	7.48
466.541	7.39
466.743	7.42
466.946	7.41
467.148	7.43
467.351	7.32
467.553	7.2
467.756	7.17
467.958	7.29
468.161	7.32
468.363	7.33
468.566	7.38
468.768	7.49
468.971	7.5
469.173	7.61
469.375	7.59
469.578	7.64
469.78	7.68
469.983	7.61
470.185	7.68
470.387	7.66
470.59	7.6
470.792	7.65
470.994	7.69
471.196	7.71
471.399	7.67
471.601	7.68
471.803	7.65
472.005	7.61
472.208	7.72
472.41	7.61
472.612	7.59
472.814	7.65
473.016	7.59
473.218	7.43
473.421	7.33
473.623	7.32
473.825	7.32
474.027	7.33
474.229	7.33
474.431	7.25
474.633	7.22
474.835	7.23
475.037	7.21
475.239	7.17
475.441	7.2
475.643	7.22
475.845	7.15
476.047	7.02
476.249	7.07
476.451	7.2
476.653	7.24
476.855	7.28
477.057	7.34
477.258	7.33
477.46	7.32
477.662	7.36
477.864	7.37
478.066	7.38
478.268	7.48
478.469	7.43
478.671	7.42
478.873	7.36
479.075	7.35
479.276	7.24
479.478	7.21
479.68	7.27
479.882	7.19
480.083	7.19
480.285	7.19
480.487	7.13
480.688	7.15
480.89	7.07
481.091	7.06
481.293	7.02
481.495	7.08
481.696	7.12
481.898	7.08
482.099	7.05
482.301	7.02
482.502	6.95
482.704	6.94
482.905	6.89
483.107	6.85
483.308	6.86
483.51	6.85
483.711	6.83
483.913	6.81
484.114	6.82
484.315	6.84
484.517	6.85
484.718	6.89
484.92	6.91
485.121	6.94
485.322	6.99
485.524	7.01
485.725	7.06
485.926	7.03
486.127	7.05
486.329	7.06
486.53	7
486.731	7
486.932	6.97
487.134	6.96
487.335	6.97
487.536	6.96
487.737	6.95
487.938	6.93
488.139	7.02
488.341	7.02
488.542	6.99
488.743	7.06
488.944	7.06
489.145	7.1
489.346	7.13
489.547	7.12
489.748	7.15
489.949	7.17
490.15	7.15
490.351	7.1
490.552	7.11
490.753	7.14
490.954	7.13
491.155	7.12
491.356	7.16
491.557	7.14
491.758	7.17
491.959	7.19
492.159	7.24
492.36	7.25
492.561	7.33
492.762	7.37
492.963	7.42
493.164	7.46
493.364	7.48
493.565	7.48
493.766	7.56
493.967	7.62
494.167	7.64
494.368	7.65
494.569	7.68
494.769	7.66
494.97	7.6
495.171	7.57
495.371	7.63
495.572	7.68
495.773	7.71
495.973	7.71
496.174	7.76
496.375	7.66
496.575	7.6
496.776	7.61
496.976	7.57
497.177	7.61
497.377	7.67
497.578	7.69
497.778	7.74
497.979	7.68
498.179	7.7
498.38	7.69
498.58	7.79
498.78	7.78
498.981	7.8
499.181	7.89
499.382	7.93
499.582	8
499.782	7.99
499.983	8
500.183	8.07
500.383	8.12
500.584	8.11
500.784	8.11
500.984	8.21
501.184	8.25
501.385	8.16
501.585	8.14
501.785	8.03
501.985	8.08
502.185	8.13
502.386	8.2
502.586	8.23
502.786	8.28
502.986	8.36
503.186	8.49
503.386	8.48
503.586	8.53
503.786	8.55
503.987	8.69
504.187	8.78
504.387	8.78
504.587	8.83
504.787	8.83
504.987	8.9
505.187	8.86
505.387	8.77
505.587	8.81
505.786	8.86
505.986	8.97
506.186	8.97
506.386	8.87
506.586	8.88
506.786	8.88
506.986	8.89
507.186	8.86
507.386	8.99
507.585	9.07
507.785	9.21
507.985	9.17
508.185	9.17
508.384	9.17
508.584	9.27
508.784	9.31
508.984	9.41
509.183	9.48
509.383	9.52
509.583	9.43
509.782	9.42
509.982	9.34
510.182	9.49
510.381	9.55
510.581	9.65
510.781	9.67
510.98	9.73
511.18	9.74
511.379	9.7
511.579	9.77
511.778	9.95
511.978	10.04
512.177	10.09
512.377	10.18
512.576	10.23
512.776	10.24
512.975	10.3
513.175	10.27
513.374	10.37
513.573	10.5
513.773	10.42
513.972	10.42
514.172	10.45
514.371	10.53
514.57	10.5
514.77	10.52
514.969	10.53
515.168	10.58
515.367	10.72
515.567	10.66
515.766	10.7
515.965	10.94
516.164	10.96
516.364	11.02
516.563	11.16
516.762	11.22
516.961	11.29
517.16	11.29
517.359	11.38
517.559	11.41
517.758	11.52
517.957	11.52
518.156	11.54
518.355	11.61
518.554	11.72
518.753	11.73
518.952	11.79
519.151	11.91
519.35	12.06
519.549	12.1
519.748	12.19
519.947	12.22
520.146	12.35
520.345	12.37
520.544	12.44
520.743	12.45
520.942	12.55
521.141	12.62
521.339	12.68
521.538	12.77
521.737	12.86
521.936	12.99
522.135	13.07
522.333	13.16
522.532	13.27
522.731	13.31
522.93	13.41
523.129	13.45
523.327	13.51
523.526	13.53
523.725	13.54
523.923	13.58
524.122	13.6
524.321	13.69
524.519	13.73
524.718	13.82
524.917	13.92
525.115	14.02
525.314	14.12
525.512	14.18
525.711	14.29
525.909	14.32
526.108	14.36
526.306	14.43
526.505	14.57
526.703	14.67
526.902	14.7
527.1	14.7
527.299	14.69
527.497	14.7
527.696	14.74
527.894	14.74
528.092	14.83
528.291	14.87
528.489	14.94
528.688	14.92
528.886	14.97
529.084	15.01
529.283	15.14
529.481	15.23
529.679	15.33
529.877	15.37
530.076	15.49
530.274	15.53
530.472	15.65
530.67	15.73
530.869	15.84
531.067	15.91
531.265	15.99
531.463	16.04
531.661	16.14
531.859	16.22
532.057	16.37
532.255	16.4
532.454	16.47
532.652	16.51
532.85	16.54
533.048	16.61
533.246	16.73
533.444	16.82
533.642	16.87
533.84	16.91
534.038	16.96
534.236	17
534.434	17.09
534.632	17.2
534.83	17.28
535.027	17.36
535.225	17.42
535.423	17.43
535.621	17.47
535.819	17.54
536.017	17.6
536.215	17.66
536.412	17.74
536.61	17.84
536.808	17.92
537.006	18.05
537.203	18.18
537.401	18.32
537.599	18.52
537.797	18.7
537.994	18.83
538.192	18.99
538.39	19.16
538.587	19.29
538.785	19.43
538.983	19.56
539.18	19.73
539.378	19.81
539.575	19.93
539.773	19.92
539.97	20
540.168	20.11
540.366	20.2
540.563	20.28
540.761	20.36
540.958	20.42
541.155	20.5
541.353	20.55
541.55	20.64
541.748	20.67
541.945	20.79
542.143	20.84
542.34	20.95
542.537	21.04
542.735	21.14
542.932	21.32
543.129	21.51
543.327	21.7
543.524	22
543.721	22.26
543.919	22.54
544.116	22.86
544.313	23.27
544.51	23.65
544.708	23.98
544.905	24.44
545.102	24.7
545.299	24.98
545.496	25.22
545.693	25.36
545.891	25.4
546.088	25.44
546.285	25.4
546.482	25.3
546.679	25.12
546.876	25.06
547.073	24.77
547.27	24.61
547.467	24.35
547.664	24.14
547.861	23.93
548.058	23.85
548.255	23.76
548.452	23.72
548.649	23.63
548.846	23.52
549.043	23.26
549.24	23.27
549.437	23.27
549.633	23.28
549.83	23.17
550.027	23.02
550.224	22.9
550.421	22.92
550.618	22.86
550.814	22.82
551.011	22.79
551.208	22.88
551.405	22.83
551.601	22.72
551.798	22.68
551.995	22.81
552.191	22.78
552.388	22.76
552.585	22.64
552.781	22.57
552.978	22.48
553.175	22.52
553.371	22.47
553.568	22.49
553.764	22.5
553.961	22.47
554.157	22.33
554.354	22.4
554.55	22.46
554.747	22.55
554.943	22.42
555.14	22.52
555.336	22.5
555.533	22.55
555.729	22.59
555.926	22.7
556.122	22.72
556.318	22.77
556.515	22.86
556.711	22.74
556.907	22.76
557.104	22.9
557.3	22.9
557.496	22.94
557.693	23.08
557.889	23.02
558.085	22.94
558.281	22.9
558.478	22.97
558.674	22.82
558.87	22.88
559.066	22.8
559.262	22.83
559.459	22.8
559.655	22.83
559.851	22.76
560.047	22.74
560.243	22.76
560.439	22.81
560.635	22.73
560.831	22.79
561.027	22.85
561.223	22.96
561.419	22.94
561.615	23
561.811	23.03
562.007	23.06
562.203	23.23
562.399	23.16
562.595	23.19
562.791	23.4
562.987	23.48
563.183	23.4
563.379	23.46
563.575	23.48
563.771	23.51
563.966	23.54
564.162	23.48
564.358	23.35
564.554	23.49
564.75	23.63
564.945	23.44
565.141	23.39
565.337	23.33
565.533	23.31
565.728	23.28
565.924	23.17
566.12	23.17
566.315	23.24
566.511	23.29
566.707	23.16
566.902	23.01
567.098	23.08
567.293	23.08
567.489	23.22
567.684	23.29
567.88	23.37
568.076	23.39
568.271	23.36
568.467	23.35
568.662	23.32
568.858	23.4
569.053	23.48
569.248	23.52
569.444	23.62
569.639	23.67
569.835	23.54
570.03	23.58
570.225	23.66
570.421	23.68
570.616	23.66
570.812	23.75
571.007	23.8
571.202	23.8
571.397	23.74
571.593	23.65
571.788	23.63
571.983	23.7
572.178	23.71
572.374	23.72
572.569	23.7
572.764	23.76
572.959	23.75
573.154	23.74
573.35	23.82
573.545	23.84
573.74	23.92
573.935	23.85
574.13	23.86
574.325	23.96
574.52	23.96
574.715	24.08
574.91	24.25
575.105	24.45
575.3	24.61
575.495	24.63
575.69	24.73
575.885	24.82
576.08	25
576.275	25.13
576.47	25.28
576.665	25.53
576.86	25.8
577.055	25.87
577.25	25.92
577.444	26.05
577.639	26.3
577.834	26.58
578.029	26.76
578.224	26.92
578.418	27.09
578.613	27.04
578.808	27.01
579.003	26.87
579.197	26.86
579.392	26.88
579.587	26.87
579.781	26.95
579.976	26.89
580.171	26.84
580.365	26.8
580.56	26.7
580.755	26.73
580.949	26.74
581.144	26.94
581.338	26.99
581.533	26.92
581.727	26.87
581.922	26.87
582.116	26.78
582.311	26.95
582.505	27.18
582.7	27.32
582.894	27.5
583.089	27.5
583.283	27.61
583.478	27.65
583.672	27.65
583.866	27.76
584.061	27.69
584.255	27.83
584.449	27.9
584.644	27.85
584.838	27.74
585.032	27.75
585.226	27.9
585.421	27.84
585.615	27.86
585.809	28.16
586.003	28.36
586.198	28.46
586.392	28.47
586.586	28.53
586.78	28.5
586.974	28.59
587.168	28.56
587.363	28.43
587.557	28.39
587.751	28.44
587.945	28.17
588.139	27.95
588.333	27.73
588.527	27.7
588.721	27.53
588.915	27.44
589.109	27.14
589.303	27.13
589.497	27.17
589.691	27.2
589.885	27.06
590.079	27.09
590.273	27.1
590.466	27.23
590.66	27.44
590.854	27.54
591.048	27.71
591.242	28.1
591.436	28.2
591.629	28.39
591.823	28.43
592.017	28.53
592.211	28.64
592.404	28.68
592.598	28.79
592.792	28.74
592.986	28.69
593.179	28.59
593.373	28.41
593.567	28.24
593.76	28.06
593.954	27.89
594.147	27.83
594.341	27.69
594.535	27.63
594.728	27.46
594.922	27.28
595.115	27.21
595.309	27.16
595.502	27.1
595.696	27.04
595.889	27.01
596.083	26.97
596.276	26.79
596.47	26.78
596.663	26.81
596.856	26.8
597.05	26.93
597.243	27.1
597.437	27.06
597.63	27.1
597.823	27.21
598.017	27.2
598.21	27.29
598.403	27.58
598.596	27.77
598.79	27.87
598.983	27.94
599.176	27.9
599.369	27.79
599.563	27.94
599.756	28.03
599.949	28.03
600.142	28.27
600.335	28.3
600.528	28.22
600.722	28.11
600.915	27.95
601.108	27.94
601.301	27.88
601.494	27.85
601.687	27.81
601.88	27.7
602.073	27.68
602.266	27.55
602.459	27.54
602.652	27.44
602.845	27.32
603.038	27.34
603.231	27.29
603.424	27.21
603.617	27.23
603.809	27.11
604.002	27.09
604.195	26.96
604.388	26.9
604.581	26.78
604.774	26.82
604.966	26.91
605.159	26.98
605.352	27.05
605.545	27.1
605.737	27.05
605.93	27.12
606.123	27.3
606.316	27.54
606.508	27.69
606.701	27.99
606.894	28.26
607.086	28.41
607.279	28.61
607.471	28.92
607.664	29.26
607.857	29.69
608.049	30.17
608.242	30.68
608.434	31.49
608.627	32.48
608.819	33.56
609.012	34.84
609.204	36.35
609.397	37.89
609.589	39.51
609.782	41.35
609.974	43.17
610.166	45.15
610.359	47.02
610.551	48.56
610.743	49.86
610.936	51.11
611.128	51.98
611.32	52.59
611.513	53.03
611.705	53.02
611.897	52.84
612.09	52.42
612.282	51.6
612.474	50.81
612.666	49.98
612.858	49.09
613.051	48.07
613.243	47.03
613.435	46.1
613.627	45.34
613.819	44.78
614.011	44.04
614.203	43.27
614.395	42.7
614.588	41.85
614.78	41.02
614.972	40.44
615.164	39.8
615.356	39.05
615.548	38.34
615.74	37.41
615.932	36.62
616.124	35.84
616.315	35.08
616.507	34.29
616.699	33.64
616.891	33.3
617.083	32.66
617.275	32.17
617.467	31.93
617.659	31.55
617.85	31.3
618.042	31.05
618.234	30.93
618.426	30.73
618.618	30.93
618.809	31.14
619.001	30.79
619.193	30.8
619.384	30.78
619.576	30.68
619.768	30.86
619.959	30.85
620.151	30.91
620.343	30.87
620.534	31.23
620.726	30.97
620.917	31.03
621.109	31.32
621.301	31.46
621.492	31.37
621.684	31.61
621.875	31.61
622.067	31.83
622.258	31.86
622.45	31.85
622.641	31.75
622.832	31.96
623.024	31.67
623.215	31.74
623.407	31.63
623.598	31.79
623.789	31.78
623.981	31.56
624.172	31.42
624.363	31.46
624.555	31.43
624.746	31.32
624.937	31.25
625.129	31.4
625.32	31.26
625.511	31.22
625.702	30.92
625.893	30.71
626.085	30.87
626.276	30.79
626.467	30.61
626.658	30.71
626.849	30.75
627.04	30.83
627.231	30.72
627.422	30.57
627.614	30.62
627.805	30.91
627.996	31.09
628.187	31.19
628.378	31.44
628.569	31.71
628.76	31.86
628.951	32.19
629.142	32.33
629.332	32.67
629.523	33.23
629.714	33.62
629.905	33.83
630.096	33.98
630.287	34.09
630.478	34.18
630.669	34.14
630.859	33.96
631.05	33.77
631.241	33.51
631.432	33.3
631.623	32.95
631.813	32.6
632.004	32.21
632.195	31.97
632.385	31.55
632.576	31.23
632.767	31.06
632.957	30.93
633.148	30.67
633.339	30.45
633.529	30.16
633.72	29.95
633.91	29.96
634.101	29.78
634.292	29.72
634.482	29.83
634.673	29.71
634.863	29.58
635.054	29.48
635.244	29.41
635.435	29.52
635.625	29.58
635.815	29.63
636.006	29.3
636.196	29.4
636.387	29.3
636.577	29.45
636.767	29.56
636.958	29.56
637.148	29.88
637.338	30.05
637.529	29.89
637.719	29.92
637.909	30
638.099	30.21
638.29	30.07
638.48	30.15
638.67	29.88
638.86	29.85
639.05	29.95
639.241	29.79
639.431	29.86
639.621	29.89
639.811	30.08
640.001	30.22
640.191	30.21
640.381	30.49
640.571	30.46
640.761	30.65
640.951	30.66
641.141	30.66
641.331	30.4
641.521	30.22
641.711	30.5
641.901	30.36
642.091	30.24
642.281	30.38
642.471	30.23
642.661	30.27
642.851	30.22
643.041	30.3
643.231	30.38
643.42	30.61
643.61	30.54
643.8	30.37
643.99	30.35
644.18	30.23
644.369	30.26
644.559	30.26
644.749	30.29
644.939	30.26
645.128	30.27
645.318	30.2
645.508	30.05
645.697	30.26
645.887	30.08
646.076	29.88
646.266	30
646.456	29.9
646.645	30.01
646.835	30.17
647.024	30.05
647.214	29.81
647.403	29.79
647.593	30.08
647.782	29.95
647.972	30.15
648.161	30.44
648.351	30.59
648.54	30.69
648.73	30.72
648.919	30.72
649.108	30.91
649.298	31.24
649.487	31.25
649.677	31.27
649.866	31.44
650.055	31.59
650.244	31.45
650.434	31.5
650.623	31.34
650.812	31.42
651.002	31.3
651.191	31.41
651.38	31.09
651.569	31.23
651.758	31.08
651.947	30.98
652.137	31.09
652.326	31.27
652.515	31.29
652.704	31.28
652.893	31.14
653.082	31.17
653.271	31.08
653.46	31.24
653.649	31.19
653.838	31.37
654.027	31.29
654.216	31.09
654.405	30.99
654.594	30.79
654.783	30.71
654.972	30.78
655.161	30.54
655.35	30.35
655.539	30.39
655.728	30.39
655.916	30.37
656.105	30.7
656.294	30.6
656.483	30.89
656.672	30.9
656.86	30.95
657.049	30.81
657.238	31.02
657.427	31.11
657.615	31.08
657.804	31.02
657.993	30.81
658.181	30.48
658.37	30.41
658.559	30.13
658.747	30.05
658.936	29.93
659.125	30.16
659.313	30.13
659.502	30.18
659.69	30.13
659.879	30.29
660.067	30.3
660.256	30.38
660.444	30.55
660.633	30.75
660.821	30.92
661.01	31.05
661.198	30.88
661.387	30.89
661.575	30.9
661.763	31.23
661.952	30.87
662.14	31.1
662.328	31.46
662.517	31.47
662.705	31.37
662.893	31.3
663.082	31.49
663.27	31.63
663.458	31.98
663.646	32.15
663.834	32.06
664.023	32.34
664.211	32.64
664.399	32.43
664.587	32.44
664.775	32.55
664.963	32.57
665.152	32.57
665.34	32.54
665.528	32.23
665.716	32.34
665.904	32.05
666.092	31.98
666.28	31.48
666.468	31.27
666.656	31.53
666.844	31.55
667.032	31.51
667.22	31.52
667.408	31.44
667.596	31.32
667.784	31.09
667.971	31.19
668.159	31.14
668.347	31.44
668.535	31.81
668.723	31.54
668.911	31.44
669.098	31.4
669.286	31.25
669.474	31.33
669.662	31.42
669.849	31.28
670.037	31.33
670.225	31.54
670.413	31.13
670.6	30.93
670.788	31.16
670.976	31.1
671.163	31.14
671.351	31.26
671.538	31.07
671.726	30.82
671.913	30.86
672.101	30.98
672.289	31.25
672.476	31.5
672.664	31.63
672.851	31.28
673.039	31.25
673.226	31.32
673.413	31.51
673.601	31.8
673.788	32.32
673.976	32.4
674.163	32.37
674.35	31.99
674.538	32.03
674.725	32.07
674.912	32.46
675.1	32.47
675.287	32.65
675.474	32.41
675.662	32.29
675.849	32.21
676.036	32.16
676.223	31.99
676.411	32.36
676.598	32.16
676.785	32.09
676.972	31.87
677.159	31.91
677.346	31.65
677.533	32.02
677.721	32.13
677.908	32.15
678.095	32.16
678.282	32.21
678.469	31.96
678.656	32.06
678.843	31.79
679.03	31.68
679.217	31.68
679.404	31.61
679.591	31.23
679.778	31.28
679.964	31.08
680.151	31.04
680.338	31.09
680.525	31.13
680.712	31.22
680.899	31.39
681.086	31.62
681.272	31.69
681.459	31.68
681.646	31.98
681.833	32
682.02	32.32
682.206	32.52
682.393	32.5
682.58	32.51
682.766	32.62
682.953	32.49
683.14	32.41
683.326	32.74
683.513	32.96
683.7	32.8
683.886	32.63
684.073	32.44
684.259	32.49
684.446	32.76
684.632	32.82
684.819	32.65
685.005	32.79
685.192	32.89
685.378	32.68
685.565	32.69
685.751	32.62
685.938	32.74
686.124	32.82
686.31	32.87
686.497	32.83
686.683	32.75
686.87	32.79
687.056	32.68
687.242	32.61
687.429	32.61
687.615	32.65
687.801	32.79
687.987	32.65
688.174	32.52
688.36	32.51
688.546	32.49
688.732	32.65
688.918	32.35
689.105	32.44
689.291	32.54
689.477	32.23
689.663	32.23
689.849	32.27
690.035	32.67
690.221	32.5
690.407	32.38
690.593	32.44
690.779	32.4
690.965	32.86
691.151	32.8
691.337	32.58
691.523	32.97
691.709	32.93
691.895	33.02
692.081	32.72
692.267	33.08
692.453	33.26
692.639	32.93
692.825	32.95
693.011	32.77
693.196	33.14
693.382	33.32
693.568	33.12
693.754	32.99
693.94	32.87
694.125	32.58
694.311	32.54
694.497	32.39
694.682	32.54
694.868	32.48
695.054	32.41
695.239	32.07
695.425	32.11
695.611	32.02
695.796	32.35
695.982	32.46
696.168	32.37
696.353	32.12
696.539	32.17
696.724	32.26
696.91	31.91
697.095	31.81
697.281	31.93
697.466	31.4
697.652	31.42
697.837	31.02
698.023	30.62
698.208	30.79
698.393	30.69
698.579	30.4
698.764	30.05
698.949	30.03
699.135	30.16
699.32	29.95
699.505	30.43
699.691	30.3
699.876	30.51
700.061	30.78
700.246	30.83
700.432	30.74
700.617	30.92
700.802	31.06
700.987	31.27
701.172	31.31
701.358	31.73
701.543	31.82
701.728	31.92
701.913	32.29
702.098	32.32
702.283	32.44
702.468	33.49
702.653	33.36
702.838	33.52
703.023	33.49
703.208	33.51
703.393	33.29
703.578	33.23
703.763	33.85
703.948	33.54
704.133	33.99
704.318	34.04
704.503	34.1
704.688	34.93
704.873	35.24
705.057	36.24
705.242	36.81
705.427	37.26
705.612	37.67
705.797	37.9
705.981	38.29
706.166	38.54
706.351	39.46
706.536	39.55
706.72	39.6
706.905	40
707.09	39.85
707.274	39.75
707.459	39.79
707.644	40
707.828	39.99
708.013	40.41
708.197	40.19
708.382	39.64
708.567	39.28
708.751	39.15
708.936	38.96
709.12	38.99
709.305	38.9
709.489	38.88
709.673	38.6
709.858	38.5
710.042	38.16
710.227	38.39
710.411	38.59
710.596	38.83
710.78	38.71
710.964	38.93
711.149	38.39
711.333	38.53
711.517	38.32
711.702	38.23
711.886	38.15
712.07	37.83
712.254	37.58
712.438	36.84
712.623	36.48
712.807	36.23
712.991	35.55
713.175	35.6
713.359	35.11
713.544	35.25
713.728	35.11
713.912	34.78
714.096	34.55
714.28	34.29
714.464	34.2
714.648	33.91
714.832	33.78
715.016	33.75
715.2	33.72
715.384	33.52
715.568	33.07
715.752	32.51
715.936	32.29
716.12	31.93
716.304	32.05
716.488	32.15
716.671	31.99
716.855	31.7
717.039	31.87
717.223	31.73
717.407	31.61
717.59	31.56
717.774	31.73
717.958	31.7
718.142	31.97
718.325	31.73
718.509	31.55
718.693	31.56
718.877	31.81
719.06	31.77
719.244	31.59
719.428	31.78
719.611	32.21
719.795	32.58
719.978	32.47
720.162	32.72
720.345	32.9
720.529	33.38
720.713	33.45
720.896	33.69
721.08	33.47
721.263	33.61
721.446	34.04
721.63	33.52
721.813	33.63
721.997	33.66
722.18	33.35
722.364	33
722.547	33.18
722.73	33.26
722.914	33.42
723.097	33.28
723.28	33.34
723.464	32.68
723.647	32.61
723.83	32.12
724.013	32.66
724.197	32.85
724.38	32.89
724.563	32.94
724.746	33.13
724.929	32.93
725.112	33.21
725.296	33.29
725.479	33.38
725.662	33.77
725.845	33.57
726.028	33.22
726.211	32.98
726.394	33.1
726.577	31.99
726.76	31.85
726.943	31.89
727.126	31.45
727.309	31.56
727.492	31.49
727.675	31.46
727.858	31.87
728.041	31.98
728.224	32.3
728.407	32.1
728.589	32.48
728.772	32.71
728.955	32.66
729.138	33.08
729.321	33.05
729.503	32.98
729.686	32.51
729.869	32.39
730.052	32.06
730.234	32.05
730.417	31.99
730.6	32.21
730.782	31.79
730.965	31.86
731.148	31.99
731.33	31.99
731.513	32.13
731.695	32.59
731.878	32.81
732.061	32.71
732.243	33.22
732.426	33.2
732.608	33.26
732.791	33.66
732.973	33.76
733.156	33.62
733.338	33.77
733.52	33.89
733.703	34.27
733.885	34.15
734.068	35.1
734.25	34.5
734.432	34.81
734.615	35.1
734.797	35.32
734.979	35.49
735.162	35.56
735.344	35.05
735.526	34.84
735.708	34.28
735.891	34.69
736.073	34.4
736.255	34.39
736.437	34.37
736.619	34.22
736.802	33.64
736.984	33.55
737.166	33.53
737.348	33.88
737.53	34.71
737.712	35.18
737.894	34.96
738.076	34.64
738.258	34.44
738.44	34.34
738.622	33.77
738.804	34.23
738.986	34.06
739.168	34.27
739.35	34.54
739.532	34.1
739.714	34.03
739.896	33.84
740.078	34.46
740.259	35.15
740.441	35.47
740.623	36.36
740.805	36.35
740.987	36.08
741.168	35.77
741.35	36.11
741.532	36.33
741.714	36.48
741.895	36.57
742.077	36.2
742.259	35.89
742.44	35.49
742.622	34.95
742.804	34.81
742.985	35.41
743.167	36.19
743.348	35.05
743.53	35.36
743.711	35.16
743.893	35.26
744.075	34.98
744.256	35.21
744.438	35.78
744.619	35.92
744.8	36.14
744.982	36.47
745.163	35.9
745.345	36.3
745.526	35.85
745.707	35.93
745.889	36.13
746.07	36.05
746.252	35.57
746.433	35.39
746.614	35.72
746.795	36.09
746.977	35.96
747.158	36.33
747.339	36.4
747.52	36.35
747.702	35.97
747.883	35.87
748.064	36.45
748.245	36.78
748.426	37.18
748.607	36.96
748.788	36.56
748.97	35.97
749.151	35.54
749.332	36.11
749.513	36.07
749.694	35.93
749.875	35.69
750.056	35.32
750.237	35.62
750.418	35.24
750.599	35.54
750.78	35.33
750.96	36.27
751.141	36.52
751.322	35.94
751.503	36.49
751.684	36.92
751.865	37.23
752.046	36.8
752.226	36.5
752.407	36.68
752.588	36.34
752.769	36.68
752.949	35.41
753.13	35.83
753.311	36.1
753.492	35.79
753.672	36.31
753.853	36.86
754.034	36.77
754.214	37.32
754.395	37.1
754.575	37.09
754.756	37.02
754.937	37.77
755.117	37.68
755.298	37.08
755.478	37.38
755.659	36.83
755.839	36.43
756.02	37.19
756.2	36.72
756.381	36.7
756.561	37.09
756.741	37.01
756.922	36.76
757.102	36.18
757.283	36.51
757.463	35.82
757.643	36.36
757.823	35.66
758.004	34.79
758.184	34.72
758.364	35.27
758.545	34.46
758.725	34.26
758.905	33.52
759.085	33.54
759.265	33.48
759.446	32.63
759.626	32.1
759.806	32.02
759.986	32.72
760.166	32.49
760.346	31.85
760.526	32.69
760.706	31.84
760.886	31.87
761.066	32.36
761.246	32.2
761.426	33.18
761.606	32.69
761.786	32.32
761.966	31.44
762.146	31.26
762.326	30.7
762.506	30.27
762.686	30.93
762.866	31.29
763.046	30.65
763.225	30.5
763.405	30.35
763.585	30.31
763.765	30.7
763.945	31.04
764.124	31.07
764.304	31.32
764.484	31.29
764.664	31.29
764.843	31.52
765.023	31.63
765.203	31.9
765.382	32.07
765.562	32.82
765.741	32.59
765.921	33.15
766.101	33.74
766.28	33.98
766.46	34.39
766.639	34.17
766.819	34.04
766.998	34.27
767.178	35.39
767.357	35.7
767.537	35.36
767.716	35.87
767.896	35.31
768.075	35.15
768.254	35.11
768.434	35.09
768.613	35.71
768.792	36.24
768.972	36.62
769.151	36.29
769.33	36.16
769.51	36.67
769.689	36.66
769.868	37.52
770.047	38.2
770.226	38.57
770.406	39.03
770.585	39.01
770.764	39.28
770.943	39.34
771.122	39.08
771.301	39.23
771.48	38.86
771.66	39.66
771.839	39.32
772.018	38.87
772.197	38.16
772.376	38.46
772.555	38.83
772.734	38.31
772.913	38.28
773.092	38.41
773.271	37.77
773.449	38.68
773.628	38.23
773.807	38.41
773.986	38.29
774.165	39.13
774.344	38.69
774.523	38.37
774.701	38.55
774.88	39.17
775.059	39.63
775.238	40.34
775.417	39.76
775.595	39.98
775.774	40.08
775.953	40.37
776.131	40.71
776.31	40.34
776.489	40.19
776.667	40.67
776.846	39.7
777.025	38.68
777.203	38.5
777.382	37.79
777.56	37.7
777.739	37.52
777.917	36.56
778.096	36.31
778.274	36.97
778.453	37
778.631	36.97
778.81	37.48
778.988	37.78
779.166	38.94
779.345	39.46
779.523	39.68
779.702	39.77
779.88	40.68
780.058	39.54
780.237	39.07
780.415	39.06
780.593	38.29
780.771	39.09
780.95	39.28
781.128	38.76
781.306	38.74
781.484	39.02
781.662	39.15
781.841	39.44
782.019	40.68
782.197	40.42
782.375	40.85
782.553	40.94
782.731	39.91
782.909	39.99
783.087	39.25
783.265	39.77
783.443	39.5
783.621	38.97
783.799	38.35
783.977	36.79
784.155	36.52
784.333	36.91
784.511	37.35
784.689	36.48
784.867	35.93
785.045	36.55
785.223	35.86
785.4	34.75
785.578	35.26
785.756	35.19
785.934	37.21
786.112	38.46
786.289	37.31
786.467	36.36
786.645	37.55
786.823	37.5
787	36.91
787.178	36.89
787.356	37.4
787.533	37.09
787.711	36.39
787.889	35.93
788.066	35.03
788.244	35.27
788.421	35.77
788.599	34.88
788.776	34.82
788.954	35.09
789.131	34.56
789.309	35.07
789.486	33.92
789.664	34.74
789.841	34.71
790.019	34.58
790.196	34.41
790.373	33.81
790.551	34.47
790.728	34.52
790.906	34.43
791.083	34.26
791.26	33.07
791.437	34.24
791.615	34.28
791.792	34.54
791.969	35.36
792.146	35.96
792.324	36.93
792.501	36.53
792.678	37.24
792.855	36.84
793.032	38.41
793.209	39.24
793.387	39.77
793.564	39.93
793.741	39.4
793.918	39.36
794.095	39.23
794.272	38.64
794.449	39.67
794.626	38.22
794.803	37.57
794.98	36.42
795.157	35.31
795.334	35
795.511	34.35
795.688	33.66
795.864	32.49
796.041	32.48
796.218	33.42
796.395	32.5
796.572	33.57
796.749	33.91
796.925	34.25
797.102	36.02
797.279	35.73
797.456	35.97
797.632	37.12
797.809	37.53
797.986	37.58
798.162	36.44
798.339	36.93
798.516	36.37
798.692	37.01
798.869	37.45
799.046	36.54
799.222	37.25
799.399	36.62
799.575	36.66
799.752	37.92
799.928	37.58
800.105	38.1
800.281	38.37
800.458	37.75
800.634	38.22
800.811	37.41
800.987	37.51
801.163	37.18
801.34	38.32
801.516	38.41
801.692	36.99
801.869	37.4
802.045	36.55
802.221	35.95
802.398	35.51
802.574	35.13
802.75	34.76
802.926	33.62
803.103	34.27
803.279	34.54
803.455	35.01
803.631	35.39
803.807	34.55
803.983	34.84
804.16	33.59
804.336	33.58
804.512	32.39
804.688	32.84
804.864	33.63
805.04	32.27
805.216	31.24
805.392	30.58
805.568	31.1
805.744	31.2
805.92	31.45
806.096	32.85
806.272	35.24
806.448	36.3
806.623	36.68
806.799	36.98
806.975	37.51
807.151	36.88
807.327	36.75
807.503	35.97
807.678	36.54
807.854	37.26
808.03	36.26
808.206	35.97
808.381	34.96
808.557	35.59
808.733	35.71
808.908	36.17
809.084	36.08
809.26	36.01
809.435	35.43
809.611	34.13
809.787	33.7
809.962	34.89
810.138	34.15
810.313	33.92
810.489	33.77
810.664	33.85
810.84	34.12
811.015	35.05
811.191	34.25
811.366	35.29
811.542	35.89
811.717	35.48
811.892	34.39
812.068	33.37
812.243	33.07
812.419	32.2
812.594	30.92
812.769	30.4
812.944	29.9
813.12	30.14
813.295	28.8
813.47	28.74
813.645	27.52
813.821	28.27
813.996	29.03
814.171	30.13
814.346	29.59
814.521	29.4
814.697	28.86
814.872	28.51
815.047	29.47
815.222	30.24
815.397	30.95
815.572	32.74
815.747	33.48
815.922	33.58
816.097	34.19
816.272	35.27
816.447	36.01
816.622	34.98
816.797	36.37
816.972	35.81
817.147	35.9
817.322	36.22
817.496	34.95
817.671	33.78
817.846	31.98
818.021	30.94
818.196	29.35
818.371	29.43
818.545	30.04
818.72	29.49
818.895	29.23
819.069	29.17
819.244	28.85
819.419	29.77
819.594	29.83
819.768	31.51
819.943	31.18
820.117	31.61
820.292	31.63
820.467	30.83
820.641	30.13
820.816	29.82
820.99	28.89
821.165	27.73
821.339	27.29
821.514	27.14
821.688	26.94
821.863	26.94
822.037	26.94
822.212	27.01
822.386	27.37
822.56	27.34
822.735	27.14
822.909	27.43
823.084	27.97
823.258	28.14
823.432	28.34
823.606	28.48
823.781	28.33
823.955	28.25
824.129	28.21
824.303	27.85
824.478	28.43
824.652	28.65
824.826	28.25
825	27.87
825.174	27.86
825.348	27.76
825.523	27.67
825.697	28.38
825.871	28.94
826.045	28.81
826.219	28.95
826.393	28.56
826.567	28.83
826.741	29.19
826.915	29.66
827.089	29.57
827.263	29.51
827.437	29.21
827.611	29.14
827.784	29.14
827.958	29.04
828.132	29.2
828.306	29.33
828.48	29.19
828.654	29.66
828.827	28.92
829.001	29.01
829.175	28.75
829.349	28.95
829.522	29.08
829.696	29.28
829.87	29.42
830.044	29.17
830.217	29.03
830.391	30.02
830.565	28.99
830.738	31.07
830.912	30.52
831.085	31.85
831.259	33.07
831.432	32.89
831.606	31.53
831.779	32.24
831.953	32.69
832.126	32.18
832.3	30.74
832.473	29.92
832.647	29.3
832.82	29.81
832.994	29.21
833.167	29.16
833.34	29.17
833.514	29.23
833.687	29.12
833.86	29.63
834.034	29.91
834.207	29.96
834.38	30.93
834.553	30.47
834.727	30.65
834.9	30.75
835.073	30.39
835.246	30.74
835.419	31.43
835.593	31.98
835.766	31.87
835.939	31.62
836.112	31.93
836.285	32.04
836.458	32.45
836.631	32.61
836.804	32.99
836.977	33.66
837.15	32.87
837.323	34.66
837.496	34.62
837.669	34.35
837.842	35.5
838.015	36.7
838.188	38.04
838.361	38.31
838.533	38.92
838.706	38.99
838.879	38.73
839.052	40.98
839.225	39.74
839.398	39.32
839.57	39.05
839.743	37.69
839.916	37.65
840.088	37.24
840.261	37.82
840.434	38.32
840.607	38.64
840.779	36.32
840.952	33.37
841.124	31.27
841.297	30.78
841.47	31.95
841.642	30.94
841.815	31.32
841.987	31.29
842.16	31.95
842.332	30.4
842.505	30.1
842.677	32.52
842.85	35.11
843.022	37.82
843.194	38.75
843.367	38.52
843.539	39.27
843.712	37.13
843.884	37.71
844.056	37.16
844.229	38.57
844.401	40.09
844.573	42.25
844.745	41.85
844.918	40.45
845.09	38.65
845.262	37.11
845.434	39.38
845.606	40.23
845.779	40.2
845.951	40.7
846.123	38.97
846.295	39.69
846.467	37.69
846.639	39.32
846.811	38.38
846.983	39.58
847.155	44.44
847.327	41.27
847.499	42.22
847.671	39.78
847.843	41.72
848.015	43.47
848.187	41.81
848.359	44.17
848.531	43.16
848.703	46.01
848.875	45.01
849.047	43.2
849.218	43.3
849.39	42.37
849.562	40.98
849.734	39.43
849.905	37.76
850.077	35.74
850.249	36.54
850.421	35.43
850.592	33.85
850.764	34.74
850.936	31.81
851.107	32.75
851.279	34.17
851.451	38.78
851.622	36.12
851.794	37.93
851.965	38.49
852.137	34.39
852.308	30.62
852.48	32.13
852.651	35.6
852.823	35.88
852.994	38.08
853.166	34.71
853.337	32.93
853.509	32.42
853.68	32.09
853.851	35.3
854.023	36.86
854.194	41.08
854.365	42.09
854.537	39.2
854.708	39.66
854.879	39.63
855.05	43.41
855.222	43.13
855.393	44.44
855.564	42.98
855.735	41.14
855.906	40.66
856.078	43.94
856.249	42.95
856.42	42.28
856.591	45.76
856.762	43.79
856.933	42.78
857.104	43.11
857.275	42.2
857.446	44.59
857.617	45.71
857.788	46.19
857.959	42.86
858.13	40.47
858.301	40.99
858.472	41.95
858.643	39.27
858.814	42.31
858.985	41.71
859.155	38.66
859.326	39.57
859.497	40.4
859.668	40.29
859.839	43.43
860.009	42.74
860.18	46.05
860.351	42.06
860.522	46.14
860.692	39.86
860.863	42.13
861.034	47.51
861.204	43.84
861.375	43.76
861.546	43.99
861.716	39.55
861.887	40.76
862.057	36.02
862.228	32.51
862.398	34.04
862.569	35.68
862.739	35.57
862.91	31.8
863.08	31.57
863.251	28.53
863.421	27.72
863.592	27.48
863.762	27.45
863.932	28.22
864.103	31.38
864.273	29.17
864.443	32.06
864.614	33.96
864.784	36.98
864.954	39.91
865.125	41.51
865.295	42.47
865.465	41.82
865.635	40.36
865.805	37.01
865.976	37.23
866.146	39.53
866.316	37.38
866.486	32.8
866.656	35.38
866.826	39.72
866.996	41.79
867.166	44.23
867.336	46.39
867.506	49.19
867.676	54.28
867.846	53.62
868.016	51.93
868.186	53.5
868.356	55.09
868.526	51.67
868.696	47.5
868.866	45.26
869.036	41.43
869.206	37.65
869.376	34.58
869.545	32.76
869.715	30.5
869.885	27.95
870.055	28.52
870.224	26.29
870.394	34.9
870.564	31.64
870.734	28.95
870.903	29.15
871.073	29.69
871.243	31.64
871.412	28.3
871.582	26.69
871.751	28.91
871.921	27.31
872.091	27.67
872.26	22.82
872.43	21.46
872.599	20.86
872.769	22.19
872.938	26.17
873.108	22.36
873.277	27.29
873.446	32.23
873.616	34.87
873.785	37.6
873.955	36.73
874.124	36.3
874.293	40.4
874.463	38.33
874.632	36.49
874.801	37.08
874.971	42.11
875.14	43.13
875.309	38.85
875.478	34.72
875.647	31.5
875.817	32.08
875.986	29.22
876.155	30.16
876.324	35.34
876.493	35.65
876.662	32.13
876.831	29.84
877	25.44
877.17	29.54
877.339	34.99
877.508	38.97
877.677	39.95
877.846	41.41
878.015	36.98
878.184	36.89
878.352	39.17
878.521	41.89
878.69	40.58
878.859	39.05
879.028	36.99
879.197	34.04
879.366	31.59
879.534	32.65
879.703	30.28
879.872	29.37
880.041	30.74
880.21	29.14
880.378	28.6
880.547	28.54
880.716	28.4
880.884	29.26
881.053	29.16
881.222	28.56
881.39	27.19
881.559	27.6
881.727	27.52
881.896	26.71
882.065	26.56
882.233	25.74
882.402	25.68
882.57	25.43
882.739	24.92
882.907	25.06
883.076	24.91
883.244	25.48
883.412	25.41
883.581	25.27
883.749	25.28
883.918	24.41
884.086	25.21
884.254	25.07
884.423	25.39
884.591	25.82
884.759	25.16
884.927	25.11
885.096	24.03
885.264	24.67
885.432	26.56
885.6	26.64
885.769	27.38
885.937	26.23
886.105	26.78
886.273	26.72
886.441	25.54
886.609	24.99
886.777	26.3
886.945	29.47
887.113	29.61
887.281	26.26
887.449	28.3
887.617	31.63
887.785	33.88
887.953	34.51
888.121	36.03
888.289	36.6
888.457	39.27
888.625	41.69
888.793	35.79
888.961	32.96
889.129	33.46
889.296	34.3
889.464	33.24
889.632	31.78
889.8	29.56
889.967	28.93
890.135	29.53
