Data from 2938744__Reflection_01.txt Node
Date: Sun Mar 15 11:52:09 EDT 2015
User: robert
Spectrometer: USB4E03002
Autoset integration time: false
Trigger mode: 4
Integration Time (sec): 1.000000E-1
Scans to average: 10
Electric dark correction enabled: false
Nonlinearity correction enabled: false
Boxcar width: 5
Stray light correction enabled: false
XAxis mode: Wavelengths
Stop averaging: false
Number of Pixels in Spectrum: 3648
>>>>>Begin Spectral Data<<<<<
177.575	426.8
177.794	366.4
178.014	674.48
178.233	811.16
178.452	1066.18
178.672	1629.05
178.891	1850.38
179.11	-5693.02
179.33	-1533.73
179.549	-1333.85
179.768	-1959.44
179.987	-3748.05
180.207	-1016.85
180.426	-5390.38
180.645	-4244.78
180.864	-39942.86
181.084	2451.79
181.303	-13219.05
181.522	1510.36
181.741	1303.74
181.96	2198.37
182.179	614.73
182.398	599.38
182.618	413.85
182.837	439.3
183.056	389.9
183.275	426.14
183.494	508.51
183.713	400.98
183.932	379.67
184.151	331.14
184.37	342.71
184.589	529.67
184.808	508.49
185.027	571.96
185.246	608.21
185.465	542.5
185.684	585.42
185.903	502.53
186.122	464.33
186.341	700
186.56	1139.27
186.779	860.97
186.998	756.34
187.216	881.91
187.435	1608.92
187.654	1462.5
187.873	4586
188.092	1464.2
188.311	1077.49
188.53	1543.59
188.748	1384.7
188.967	1075.43
189.186	1167.31
189.405	1009.69
189.623	1431.41
189.842	910.34
190.061	907.59
190.28	912.79
190.498	1696.75
190.717	1347.5
190.936	2160.32
191.154	1494.97
191.373	1291.59
191.592	631.83
191.81	518.64
192.029	418.03
192.248	491.84
192.466	678.14
192.685	586.03
192.904	435.82
193.122	596.8
193.341	655.45
193.559	495.83
193.778	580.39
193.996	1182.84
194.215	1840.91
194.433	-9281.48
194.652	2753.41
194.87	1842.31
195.089	2623.26
195.307	4501.89
195.526	1740.51
195.744	3618.18
195.963	-3018.95
196.181	-6874.42
196.399	-6054
196.618	-2435.2
196.836	-2513.79
197.055	-1165.08
197.273	-1494.66
197.491	-1753.11
197.71	-5805.36
197.928	-2978.57
198.146	-2394.92
198.365	-2607.34
198.583	-4606.9
198.801	7967.65
199.019	1680.86
199.238	910.03
199.456	640.59
199.674	906.21
199.892	1228.51
200.111	1392.23
200.329	1718.71
200.547	643.84
200.765	455.7
200.983	456.46
201.202	444.35
201.42	508.5
201.638	475.34
201.856	555.07
202.074	382.05
202.292	298.54
202.51	358.51
202.728	322.07
202.946	385.09
203.165	499.66
203.383	490.44
203.601	499.82
203.819	459.14
204.037	481.29
204.255	391.47
204.473	339.62
204.691	373.37
204.909	346.53
205.127	345.89
205.345	307.43
205.562	283.91
205.78	385.96
205.998	477.7
206.216	601.09
206.434	590.04
206.652	838.05
206.87	2206.25
207.088	7908.82
207.306	1297.26
207.523	1836.71
207.741	2024.31
207.959	2447.11
208.177	932.93
208.395	660.22
208.612	557.12
208.83	607.16
209.048	646.76
209.266	455.65
209.483	456.91
209.701	537.14
209.919	611.94
210.136	455.06
210.354	379.52
210.572	533.18
210.79	508.94
211.007	388
211.225	344.9
211.442	287.93
211.66	302.56
211.878	345.56
212.095	186.67
212.313	170.35
212.53	182.19
212.748	208.35
212.966	193.03
213.183	177.65
213.401	199.7
213.618	206.25
213.836	196.85
214.053	200.63
214.271	169.25
214.488	330.51
214.705	293.1
214.923	328.52
215.14	286.79
215.358	272.66
215.575	312.94
215.793	249.95
216.01	239.1
216.227	225.46
216.445	229.3
216.662	277.79
216.879	258.36
217.097	255.16
217.314	243.4
217.531	232.04
217.749	228.99
217.966	227.15
218.183	276.71
218.4	281.37
218.618	313.9
218.835	322.45
219.052	243.91
219.269	247.2
219.487	264.29
219.704	257.94
219.921	278.24
220.138	252.08
220.355	198.97
220.572	177.02
220.79	169.28
221.007	159.81
221.224	139.18
221.441	140.47
221.658	134.75
221.875	120.27
222.092	118.37
222.309	109.9
222.526	114.02
222.743	115.92
222.96	115.22
223.177	118.27
223.394	115.38
223.611	119.37
223.828	121.36
224.045	117.67
224.262	120.35
224.479	114.22
224.696	107.09
224.913	107.45
225.13	99.5
225.347	90.41
225.564	77.46
225.781	75.6
225.997	71.04
226.214	65.18
226.431	58.45
226.648	54.41
226.865	47.62
227.082	43.48
227.298	34.72
227.515	32.37
227.732	29.26
227.949	27.87
228.165	24.88
228.382	22.56
228.599	20.84
228.816	18.88
229.032	17.89
229.249	18.08
229.466	17.41
229.682	18.59
229.899	18.65
230.116	19.09
230.332	19.5
230.549	20.52
230.765	21.6
230.982	23.08
231.199	24.83
231.415	24.98
231.632	27.05
231.848	28.87
232.065	28.94
232.281	29.47
232.498	29.45
232.714	31.23
232.931	30.68
233.147	32.15
233.364	31.5
233.58	31.27
233.797	32.09
234.013	31.7
234.23	31.68
234.446	30.49
234.662	29.32
234.879	29.71
235.095	29.13
235.312	30.54
235.528	29.24
235.744	30.07
235.961	30.13
236.177	31.01
236.393	30.32
236.61	31.65
236.826	33.41
237.042	34.79
237.258	35.63
237.475	34.9
237.691	34.07
237.907	35.81
238.123	34.95
238.339	34.62
238.556	34.85
238.772	33.8
238.988	32.92
239.204	33
239.42	31.74
239.636	29.18
239.853	28.11
240.069	27.39
240.285	25.95
240.501	25.2
240.717	23.6
240.933	19.91
241.149	18.16
241.365	16.34
241.581	14.18
241.797	13.09
242.013	12.86
242.229	12.56
242.445	11.82
242.661	11.35
242.877	10.99
243.093	11.64
243.309	12.69
243.525	13.38
243.741	13.7
243.957	15.04
244.173	15.11
244.388	15.79
244.604	15.97
244.82	16.77
245.036	15.87
245.252	15.62
245.468	14.13
245.683	13.07
245.899	11.74
246.115	11.22
246.331	10.34
246.547	10.21
246.762	9.37
246.978	9.17
247.194	8.69
247.409	8.86
247.625	8.49
247.841	8.69
248.057	9.11
248.272	9.52
248.488	9.46
248.703	9.28
248.919	9.28
249.135	9.94
249.35	10.89
249.566	11.66
249.782	11.81
249.997	12.58
250.213	12.25
250.428	12.07
250.644	12.32
250.859	13.11
251.075	13.78
251.29	14.44
251.506	14.15
251.721	13.2
251.937	12.64
252.152	11.93
252.368	11.76
252.583	12.41
252.798	11.72
253.014	11.38
253.229	11.16
253.445	11.76
253.66	12.02
253.875	12.98
254.091	14
254.306	14.75
254.521	15.98
254.737	16.75
254.952	17.5
255.167	19.06
255.383	19.21
255.598	19.32
255.813	18.37
256.028	17.45
256.244	16.92
256.459	16.08
256.674	15.46
256.889	14.44
257.104	14.69
257.32	13.7
257.535	13.09
257.75	12.85
257.965	12.22
258.18	11.3
258.395	10.67
258.61	9.26
258.826	8.55
259.041	7.61
259.256	7.36
259.471	6.61
259.686	6.33
259.901	6.21
260.116	5.83
260.331	5.73
260.546	5.71
260.761	6.15
260.976	6.46
261.191	6.48
261.406	7.38
261.621	7.92
261.836	8.17
262.05	8.73
262.265	9.62
262.48	10.15
262.695	11.18
262.91	12.36
263.125	12.06
263.34	12.72
263.555	13.65
263.769	13.2
263.984	13.8
264.199	14.81
264.414	14.65
264.629	14.31
264.843	14.6
265.058	14.13
265.273	13.39
265.488	12.97
265.702	12.86
265.917	12.31
266.132	12.5
266.346	12.58
266.561	11.81
266.776	12.11
266.99	11.42
267.205	11.19
267.42	11.16
267.634	11.19
267.849	11.06
268.063	11.15
268.278	11.46
268.492	11.14
268.707	10.6
268.922	10.61
269.136	10.33
269.351	10.82
269.565	10.83
269.78	10.13
269.994	10.01
270.209	10.09
270.423	9.7
270.637	9.42
270.852	8.83
271.066	8.42
271.281	8.66
271.495	7.82
271.709	7.62
271.924	7.71
272.138	7.98
272.353	8.07
272.567	8.22
272.781	8.16
272.996	8
273.21	8.56
273.424	9.13
273.638	9.28
273.853	9.96
274.067	10
274.281	9.89
274.495	9.69
274.71	9.99
274.924	9.81
275.138	10.01
275.352	10.33
275.566	10.65
275.781	10.05
275.995	10.18
276.209	10.28
276.423	10.06
276.637	10.19
276.851	10.01
277.065	9.69
277.279	9.57
277.493	9.08
277.707	9.72
277.921	9.17
278.135	9.65
278.349	9.6
278.563	9.8
278.777	9.92
278.991	9.64
279.205	10.18
279.419	10.24
279.633	10.78
279.847	10.96
280.061	9.82
280.275	10.06
280.489	10.01
280.703	9.61
280.917	9.19
281.131	9.09
281.344	9.36
281.558	9.23
281.772	9.29
281.986	8.71
282.2	9.07
282.414	9.43
282.627	9
282.841	8.58
283.055	8.67
283.269	8.57
283.482	8.49
283.696	8.31
283.91	8.29
284.123	7.52
284.337	7.3
284.551	6.81
284.764	6.47
284.978	6.59
285.192	6.69
285.405	6.66
285.619	6.69
285.833	6.44
286.046	6.57
286.26	6.29
286.473	6.9
286.687	7.23
286.9	7.58
287.114	7.33
287.327	7.11
287.541	7.03
287.754	7.09
287.968	7.11
288.181	6.98
288.395	6.81
288.608	7.32
288.822	6.76
289.035	6.99
289.248	6.71
289.462	7.07
289.675	7.38
289.889	7.56
290.102	7.06
290.315	7.25
290.529	7.88
290.742	7.49
290.955	7.31
291.169	7.53
291.382	7.48
291.595	7.66
291.808	7.5
292.022	8.05
292.235	7.81
292.448	7.93
292.661	7.73
292.875	7.43
293.088	7.94
293.301	7.7
293.514	7.63
293.727	7.87
293.94	7.84
294.153	8.09
294.367	7.29
294.58	7.42
294.793	7.34
295.006	7.03
295.219	6.89
295.432	6.82
295.645	7.17
295.858	7.38
296.071	7.02
296.284	6.83
296.497	6.68
296.71	6.89
296.923	6.89
297.136	6.96
297.349	7.27
297.562	7.2
297.775	6.75
297.988	6.32
298.201	6.63
298.414	6.73
298.626	6.86
298.839	7.03
299.052	7.22
299.265	7.36
299.478	7.51
299.691	7.71
299.903	8.2
300.116	8.6
300.329	9.27
300.542	8.5
300.755	8.5
300.967	8.57
301.18	8.5
301.393	8.45
301.605	8.72
301.818	8.76
302.031	8.89
302.243	9.07
302.456	9.56
302.669	9.33
302.881	9.82
303.094	10.04
303.307	10.13
303.519	10.34
303.732	10.01
303.944	9.53
304.157	9.86
304.37	9.49
304.582	9.28
304.795	9.23
305.007	9.04
305.22	9.17
305.432	8.94
305.645	8.49
305.857	8.73
306.069	9.38
306.282	9.28
306.494	8.59
306.707	8.64
306.919	8.73
307.132	8.71
307.344	8.78
307.556	8.38
307.769	8.63
307.981	8.87
308.193	8.61
308.406	8.05
308.618	8.59
308.83	8.73
309.043	8.71
309.255	8.37
309.467	8.16
309.679	8.44
309.892	8.38
310.104	8.22
310.316	8.17
310.528	8.32
310.74	8.52
310.953	8.44
311.165	8.77
311.377	8.97
311.589	9.27
311.801	9.5
312.013	9.28
312.225	9.76
312.437	9.96
312.649	10.09
312.862	10.03
313.074	10.17
313.286	9.95
313.498	9.9
313.71	10.02
313.922	9.85
314.134	10.02
314.346	10.5
314.558	10.36
314.77	9.94
314.982	10.17
315.193	10.49
315.405	10.49
315.617	10.51
315.829	10.79
316.041	10.81
316.253	10.92
316.465	10.95
316.677	11.08
316.888	11.45
317.1	11.93
317.312	12.25
317.524	12.09
317.736	12.7
317.947	13.33
318.159	13.38
318.371	13.23
318.583	13.25
318.794	13.19
319.006	13.24
319.218	13
319.43	12.95
319.641	12.99
319.853	13.56
320.064	13.85
320.276	14.19
320.488	14.4
320.699	15.34
320.911	15.91
321.123	15.92
321.334	15.52
321.546	15.94
321.757	16.53
321.969	16.85
322.18	16.89
322.392	16.43
322.603	16.28
322.815	16.5
323.026	16.01
323.238	15.98
323.449	16.06
323.661	16.23
323.872	16.37
324.083	16.28
324.295	16.38
324.506	16.48
324.718	16.4
324.929	16.47
325.14	16.56
325.352	17.18
325.563	17.58
325.774	17.93
325.986	18.46
326.197	18.49
326.408	19.12
326.62	19.6
326.831	19.88
327.042	20.69
327.253	21.41
327.464	22.08
327.676	22.4
327.887	23.31
328.098	24.43
328.309	25.25
328.52	26.69
328.732	27.64
328.943	28.19
329.154	29.06
329.365	29.69
329.576	30.38
329.787	31.05
329.998	31.61
330.209	32.14
330.42	32.5
330.631	32.91
330.842	32.8
331.053	33.15
331.264	33.55
331.475	34.48
331.686	34.84
331.897	35.34
332.108	35.51
332.319	36.03
332.53	36.16
332.741	36.58
332.952	37.22
333.163	37.76
333.374	37.77
333.585	38.46
333.795	38.31
334.006	38.95
334.217	39.23
334.428	39.44
334.639	39.69
334.849	40.13
335.06	40.34
335.271	40.81
335.482	40.85
335.692	41.29
335.903	41.28
336.114	41.72
336.325	41.47
336.535	41.83
336.746	41.96
336.957	42.18
337.167	42.2
337.378	42.5
337.589	42.34
337.799	42.22
338.01	42.64
338.22	42.88
338.431	42.65
338.642	42.61
338.852	42.28
339.063	42.51
339.273	42.17
339.484	41.98
339.694	42.15
339.905	42.06
340.115	42.6
340.326	42.64
340.536	42.59
340.746	42.25
340.957	43.21
341.167	43.77
341.378	43.67
341.588	44.11
341.799	44.43
342.009	43.97
342.219	43.93
342.43	44.13
342.64	43.75
342.85	43.86
343.061	44.33
343.271	43.86
343.481	44.03
343.691	44.04
343.902	43.92
344.112	43.82
344.322	44.1
344.532	44.35
344.743	44.14
344.953	44.43
345.163	44.43
345.373	44.53
345.583	44.25
345.793	43.82
346.004	43.78
346.214	43.92
346.424	43.84
346.634	43.76
346.844	43.62
347.054	43.49
347.264	43.21
347.474	42.71
347.684	42.63
347.894	42.46
348.104	42.42
348.314	42.38
348.524	42.62
348.734	42.77
348.944	42.99
349.154	43.05
349.364	43.06
349.574	42.74
349.784	43.08
349.994	43.16
350.204	43.57
350.413	43.46
350.623	43.7
350.833	43.52
351.043	43.22
351.253	42.76
351.463	42.59
351.672	42.38
351.882	42.44
352.092	42.34
352.302	42.19
352.511	42.24
352.721	42.27
352.931	42.26
353.141	42
353.35	42.1
353.56	42.4
353.77	42.72
353.979	42.72
354.189	43.01
354.399	43.18
354.608	43.34
354.818	42.94
355.027	43
355.237	42.79
355.447	42.62
355.656	42.44
355.866	42.26
356.075	41.47
356.285	41.41
356.494	41.3
356.704	41.11
356.913	40.73
357.123	40.88
357.332	40.84
357.542	40.73
357.751	40.78
357.96	40.89
358.17	40.78
358.379	41
358.589	41.1
358.798	40.9
359.007	40.82
359.217	40.85
359.426	40.51
359.635	40.37
359.845	40.14
360.054	40.02
360.263	39.83
360.472	39.48
360.682	39.48
360.891	39.15
361.1	39.05
361.309	38.98
361.519	38.93
361.728	39.19
361.937	39.26
362.146	39.51
362.355	39.42
362.564	39.59
362.774	39.71
362.983	39.75
363.192	39.91
363.401	39.94
363.61	39.92
363.819	39.97
364.028	39.78
364.237	39.6
364.446	39.47
364.655	39.59
364.864	39.65
365.073	40.14
365.282	40.4
365.491	40.23
365.7	40.26
365.909	40.35
366.118	40.48
366.327	40.51
366.536	40.56
366.745	40.58
366.954	40.64
367.162	40.53
367.371	40.18
367.58	39.91
367.789	39.94
367.998	39.95
368.207	40.05
368.415	39.98
368.624	39.93
368.833	39.96
369.042	40.01
369.25	40.16
369.459	40.24
369.668	40.35
369.877	40.12
370.085	40.37
370.294	40.09
370.503	39.91
370.711	39.77
370.92	39.84
371.129	39.68
371.337	39.57
371.546	39.27
371.754	39.02
371.963	38.67
372.171	38.7
372.38	38.76
372.589	38.79
372.797	38.78
373.006	38.83
373.214	38.83
373.423	38.98
373.631	39
373.84	39.04
374.048	39.15
374.256	39.49
374.465	39.44
374.673	39.43
374.882	39.92
375.09	39.64
375.298	39.43
375.507	39.59
375.715	39.55
375.923	39.3
376.132	39.26
376.34	39.23
376.548	39.01
376.757	39.02
376.965	38.64
377.173	38.31
377.381	38.62
377.59	38.64
377.798	38.35
378.006	38.09
378.214	38.35
378.423	38.28
378.631	38.25
378.839	38.1
379.047	38.36
379.255	38.47
379.463	38.71
379.671	38.57
379.879	38.67
380.088	38.68
380.296	38.77
380.504	38.59
380.712	38.94
380.92	39.03
381.128	39.38
381.336	39.22
381.544	39.13
381.752	38.91
381.96	38.91
382.168	38.71
382.376	38.75
382.584	38.84
382.791	38.89
382.999	38.79
383.207	38.53
383.415	38.59
383.623	38.4
383.831	38.53
384.039	38.6
384.247	38.62
384.454	38.99
384.662	39.11
384.87	39.12
385.078	38.9
385.285	38.58
385.493	38.54
385.701	38.21
385.909	38.06
386.116	38.01
386.324	38.01
386.532	38
386.739	37.83
386.947	37.61
387.155	37.69
387.362	37.87
387.57	38.06
387.778	38.17
387.985	38.42
388.193	38.71
388.4	38.71
388.608	38.76
388.816	38.73
389.023	38.64
389.231	38.87
389.438	38.81
389.646	38.86
389.853	38.88
390.061	38.98
390.268	38.68
390.475	38.63
390.683	38.78
390.89	38.77
391.098	39.05
391.305	39.16
391.512	39.02
391.72	39.17
391.927	39.18
392.135	38.89
392.342	38.73
392.549	38.77
392.756	38.81
392.964	38.53
393.171	38.46
393.378	38.19
393.586	38.09
393.793	38.02
394	37.85
394.207	37.87
394.414	38.01
394.622	38.15
394.829	38.48
395.036	38.41
395.243	38.57
395.45	38.53
395.657	38.69
395.864	38.76
396.072	38.9
396.279	39.08
396.486	39.05
396.693	39.26
396.9	39.12
397.107	39.02
397.314	39.13
397.521	39.23
397.728	39.04
397.935	38.81
398.142	38.62
398.349	38.42
398.556	38.3
398.763	38.41
398.97	38.33
399.177	38.51
399.383	38.52
399.59	38.39
399.797	38.44
400.004	38.63
400.211	38.66
400.418	39.07
400.625	39.22
400.831	39.37
401.038	39.34
401.245	39.45
401.452	39.5
401.658	39.58
401.865	39.7
402.072	39.66
402.279	39.77
402.485	39.88
402.692	39.58
402.899	39.58
403.105	39.5
403.312	39.56
403.519	39.42
403.725	39.37
403.932	39.3
404.138	39.37
404.345	39.27
404.552	39.27
404.758	39.15
404.965	39.18
405.171	39.25
405.378	39.18
405.584	39.07
405.791	39.11
405.997	38.95
406.204	39.06
406.41	39.01
406.617	39.17
406.823	39.17
407.029	39.29
407.236	39.47
407.442	39.49
407.649	39.74
407.855	39.75
408.061	40.01
408.268	40.17
408.474	40.05
408.68	39.97
408.887	39.99
409.093	40.06
409.299	40.17
409.505	39.99
409.712	40.06
409.918	40.1
410.124	40.18
410.33	40.02
410.537	40.01
410.743	40.09
410.949	40.25
411.155	40.3
411.361	40.11
411.567	40.2
411.773	40.29
411.98	40.08
412.186	39.78
412.392	39.92
412.598	39.86
412.804	39.83
413.01	39.81
413.216	39.7
413.422	39.7
413.628	39.95
413.834	39.93
414.04	39.78
414.246	39.81
414.452	39.96
414.658	39.84
414.864	39.87
415.07	39.93
415.275	39.97
415.481	40.08
415.687	40.04
415.893	39.86
416.099	39.73
416.305	39.77
416.511	39.66
416.716	39.57
416.922	39.55
417.128	39.42
417.334	39.28
417.539	39.23
417.745	39.1
417.951	38.97
418.157	38.99
418.362	38.9
418.568	38.91
418.774	39.16
418.979	39.21
419.185	39.14
419.391	39.1
419.596	39.11
419.802	39.02
420.008	38.99
420.213	39.13
420.419	39.16
420.624	39.14
420.83	39.07
421.035	38.87
421.241	38.8
421.446	38.72
421.652	38.77
421.857	38.73
422.063	38.69
422.268	38.63
422.474	38.48
422.679	38.36
422.885	38.49
423.09	38.59
423.295	38.54
423.501	38.62
423.706	38.77
423.911	38.68
424.117	38.74
424.322	38.83
424.527	38.91
424.733	38.96
424.938	39.03
425.143	39.02
425.349	38.92
425.554	39.08
425.759	38.95
425.964	38.85
426.169	38.93
426.375	38.98
426.58	39.02
426.785	39.16
426.99	39.23
427.195	39.3
427.4	39.29
427.605	39.51
427.811	39.61
428.016	39.68
428.221	39.75
428.426	39.93
428.631	39.97
428.836	39.86
429.041	39.97
429.246	39.95
429.451	40.11
429.656	40.11
429.861	40.02
430.066	40.13
430.271	40.2
430.476	40.28
430.681	40.21
430.886	40.26
431.09	40.37
431.295	40.21
431.5	40.29
431.705	40.2
431.91	40.14
432.115	40.06
432.32	39.81
432.524	39.84
432.729	39.85
432.934	39.87
433.139	39.8
433.343	39.84
433.548	39.9
433.753	39.79
433.958	39.77
434.162	39.87
434.367	40.01
434.572	40.13
434.776	40.11
434.981	40.12
435.186	40.14
435.39	40.25
435.595	40.32
435.799	40.15
436.004	40.26
436.209	40.31
436.413	40.27
436.618	40.25
436.822	40.2
437.027	40.21
437.231	40.22
437.436	40.01
437.64	39.93
437.845	39.92
438.049	39.99
438.253	39.99
438.458	39.89
438.662	39.92
438.867	39.85
439.071	39.81
439.275	39.81
439.48	39.73
439.684	39.99
439.888	39.92
440.093	39.89
440.297	39.91
440.501	39.87
440.706	39.9
440.91	39.89
441.114	39.95
441.318	39.97
441.523	40.03
441.727	40.12
441.931	40.03
442.135	40.08
442.339	40
442.543	40.04
442.748	40.1
442.952	40.13
443.156	40.2
443.36	40.32
443.564	40.31
443.768	40.17
443.972	40.19
444.176	40.24
444.38	40.24
444.584	40.2
444.788	40.14
444.992	40.05
445.196	39.97
445.4	39.96
445.604	39.85
445.808	39.9
446.012	39.94
446.216	39.89
446.42	39.75
446.624	39.79
446.828	39.83
447.032	39.79
447.235	39.83
447.439	39.88
447.643	39.89
447.847	39.9
448.051	39.84
448.254	39.84
448.458	39.87
448.662	39.97
448.866	39.98
449.069	39.96
449.273	40.09
449.477	40.1
449.681	40.1
449.884	39.96
450.088	39.95
450.292	39.99
450.495	40.04
450.699	40
450.902	39.95
451.106	39.92
451.31	39.91
451.513	39.9
451.717	39.98
451.92	39.97
452.124	40.07
452.327	40.02
452.531	39.87
452.734	39.81
452.938	39.8
453.141	39.84
453.345	39.8
453.548	39.98
453.752	39.91
453.955	39.94
454.158	39.97
454.362	39.89
454.565	40.07
454.769	40.24
454.972	40.37
455.175	40.53
455.379	40.52
455.582	40.6
455.785	40.56
455.988	40.51
456.192	40.46
456.395	40.55
456.598	40.62
456.801	40.59
457.005	40.64
457.208	40.68
457.411	40.53
457.614	40.42
457.817	40.39
458.021	40.2
458.224	40.18
458.427	40.03
458.63	39.92
458.833	39.92
459.036	39.88
459.239	39.84
459.442	39.7
459.645	39.74
459.848	39.77
460.051	39.78
460.254	39.86
460.457	39.84
460.66	39.89
460.863	39.86
461.066	39.8
461.269	39.8
461.472	39.88
461.675	39.97
461.878	39.94
462.081	39.99
462.284	39.98
462.486	39.96
462.689	39.95
462.892	40.06
463.095	40.14
463.298	40.23
463.5	40.19
463.703	40.17
463.906	40.18
464.109	40.21
464.311	40.3
464.514	40.3
464.717	40.32
464.92	40.58
465.122	40.52
465.325	40.6
465.528	40.74
465.73	40.85
465.933	40.7
466.135	40.62
466.338	40.65
466.541	40.5
466.743	40.51
466.946	40.6
467.148	40.37
467.351	40.35
467.553	40.29
467.756	40.29
467.958	40.28
468.161	40.39
468.363	40.51
468.566	40.39
468.768	40.49
468.971	40.5
469.173	40.45
469.375	40.52
469.578	40.46
469.78	40.51
469.983	40.41
470.185	40.32
470.387	40.42
470.59	40.42
470.792	40.57
470.994	40.49
471.196	40.46
471.399	40.41
471.601	40.46
471.803	40.59
472.005	40.58
472.208	40.52
472.41	40.56
472.612	40.57
472.814	40.47
473.016	40.39
473.218	40.51
473.421	40.53
473.623	40.52
473.825	40.42
474.027	40.43
474.229	40.48
474.431	40.55
474.633	40.56
474.835	40.48
475.037	40.62
475.239	40.63
475.441	40.69
475.643	40.71
475.845	40.73
476.047	40.81
476.249	40.83
476.451	40.72
476.653	40.73
476.855	40.66
477.057	40.58
477.258	40.54
477.46	40.65
477.662	40.51
477.864	40.49
478.066	40.41
478.268	40.38
478.469	40.32
478.671	40.29
478.873	40.18
479.075	40.19
479.276	40.19
479.478	40.06
479.68	39.93
479.882	39.95
480.083	39.98
480.285	40.02
480.487	39.96
480.688	39.95
480.89	39.99
481.091	40
481.293	39.94
481.495	39.87
481.696	39.83
481.898	39.63
482.099	39.56
482.301	39.46
482.502	39.4
482.704	39.29
482.905	39.2
483.107	39.11
483.308	39.05
483.51	38.99
483.711	38.95
483.913	38.95
484.114	38.98
484.315	38.95
484.517	38.91
484.718	38.86
484.92	38.91
485.121	38.92
485.322	38.87
485.524	38.92
485.725	38.99
485.926	38.99
486.127	39.01
486.329	38.96
486.53	38.99
486.731	39.04
486.932	39.09
487.134	39.1
487.335	39.12
487.536	39.17
487.737	39.08
487.938	39.03
488.139	38.98
488.341	39
488.542	39.07
488.743	39.05
488.944	38.99
489.145	39.01
489.346	38.99
489.547	38.98
489.748	39.05
489.949	39.14
490.15	39.15
490.351	39.23
490.552	39.18
490.753	39.21
490.954	39.22
491.155	39.25
491.356	39.23
491.557	39.3
491.758	39.28
491.959	39.29
492.159	39.23
492.36	39.32
492.561	39.35
492.762	39.35
492.963	39.33
493.164	39.38
493.364	39.4
493.565	39.48
493.766	39.4
493.967	39.53
494.167	39.56
494.368	39.69
494.569	39.67
494.769	39.65
494.97	39.74
495.171	39.84
495.371	39.85
495.572	40.04
495.773	40.14
495.973	40.3
496.174	40.36
496.375	40.25
496.575	40.28
496.776	40.31
496.976	40.38
497.177	40.41
497.377	40.42
497.578	40.46
497.778	40.41
497.979	40.36
498.179	40.26
498.38	40.24
498.58	40.36
498.78	40.32
498.981	40.39
499.181	40.4
499.382	40.43
499.582	40.54
499.782	40.6
499.983	40.6
500.183	40.56
500.383	40.62
500.584	40.58
500.784	40.65
500.984	40.75
501.184	40.69
501.385	40.75
501.585	40.7
501.785	40.66
501.985	40.65
502.185	40.72
502.386	40.82
502.586	40.83
502.786	40.97
502.986	40.77
503.186	40.8
503.386	40.98
503.586	40.91
503.786	40.98
503.987	41.08
504.187	41.08
504.387	41.02
504.587	41.09
504.787	41.15
504.987	41.17
505.187	41.39
505.387	41.31
505.587	41.17
505.786	41.36
505.986	41.49
506.186	41.42
506.386	41.59
506.586	41.69
506.786	41.65
506.986	41.73
507.186	41.65
507.386	41.57
507.585	41.62
507.785	41.66
507.985	41.62
508.185	41.62
508.384	41.61
508.584	41.46
508.784	41.39
508.984	41.37
509.183	41.39
509.383	41.41
509.583	41.43
509.782	41.48
509.982	41.42
510.182	41.51
510.381	41.42
510.581	41.43
510.781	41.48
510.98	41.59
511.18	41.59
511.379	41.48
511.579	41.51
511.778	41.49
511.978	41.44
512.177	41.61
512.377	41.54
512.576	41.63
512.776	41.59
512.975	41.61
513.175	41.53
513.374	41.6
513.573	41.73
513.773	41.71
513.972	41.73
514.172	41.9
514.371	41.88
514.57	41.93
514.77	41.99
514.969	42.16
515.168	42.17
515.367	42.24
515.567	42.19
515.766	42.1
515.965	42.21
516.164	42.21
516.364	42.06
516.563	42.04
516.762	42
516.961	41.84
517.16	41.86
517.359	41.76
517.559	41.83
517.758	41.87
517.957	41.95
518.156	41.83
518.355	41.95
518.554	42.12
518.753	42.16
518.952	42.13
519.151	42.2
519.35	42.08
519.549	42.12
519.748	42.05
519.947	41.93
520.146	41.92
520.345	42
520.544	41.94
520.743	41.89
520.942	41.89
521.141	42.04
521.339	42.14
521.538	42.19
521.737	42.22
521.936	42.32
522.135	42.5
522.333	42.51
522.532	42.55
522.731	42.57
522.93	42.61
523.129	42.61
523.327	42.52
523.526	42.45
523.725	42.49
523.923	42.4
524.122	42.36
524.321	42.34
524.519	42.3
524.718	42.25
524.917	42.26
525.115	42.24
525.314	42.24
525.512	42.29
525.711	42.21
525.909	42.13
526.108	42.25
526.306	42.17
526.505	42.16
526.703	42.12
526.902	42.06
527.1	41.92
527.299	41.8
527.497	41.68
527.696	41.62
527.894	41.58
528.092	41.58
528.291	41.54
528.489	41.53
528.688	41.49
528.886	41.48
529.084	41.52
529.283	41.56
529.481	41.57
529.679	41.63
529.877	41.65
530.076	41.7
530.274	41.71
530.472	41.76
530.67	41.79
530.869	41.81
531.067	41.92
531.265	41.9
531.463	41.96
531.661	41.99
531.859	41.91
532.057	41.86
532.255	41.9
532.454	41.93
532.652	41.93
532.85	41.96
533.048	42.01
533.246	41.97
533.444	41.91
533.642	41.82
533.84	41.85
534.038	41.92
534.236	41.98
534.434	41.99
534.632	41.98
534.83	41.9
535.027	41.93
535.225	41.95
535.423	41.9
535.621	41.98
535.819	42.07
536.017	42.12
536.215	42.05
536.412	42.02
536.61	42
536.808	42
537.006	42.09
537.203	42.11
537.401	42.11
537.599	42.18
537.797	42.31
537.994	42.33
538.192	42.35
538.39	42.49
538.587	42.58
538.785	42.67
538.983	42.75
539.18	42.78
539.378	42.77
539.575	42.85
539.773	42.86
539.97	42.71
540.168	42.77
540.366	42.75
540.563	42.74
540.761	42.64
540.958	42.61
541.155	42.55
541.353	42.55
541.55	42.48
541.748	42.42
541.945	42.41
542.143	42.52
542.34	42.51
542.537	42.52
542.735	42.56
542.932	42.69
543.129	42.76
543.327	42.89
543.524	42.96
543.721	43.12
543.919	43.28
544.116	43.36
544.313	43.45
544.51	43.63
544.708	43.72
544.905	43.83
545.102	43.99
545.299	44.1
545.496	44.18
545.693	44.31
545.891	44.29
546.088	44.28
546.285	44.24
546.482	44.08
546.679	43.98
546.876	44.02
547.073	43.96
547.27	43.83
547.467	43.83
547.664	43.72
547.861	43.62
548.058	43.66
548.255	43.69
548.452	43.85
548.649	43.94
548.846	43.99
549.043	44.03
549.24	44.06
549.437	44.18
549.633	44.1
549.83	44.28
550.027	44.34
550.224	44.32
550.421	44.23
550.618	44.15
550.814	44.16
551.011	44.1
551.208	43.93
551.405	43.86
551.601	43.83
551.798	43.86
551.995	43.75
552.191	43.65
552.388	43.62
552.585	43.62
552.781	43.5
552.978	43.5
553.175	43.48
553.371	43.54
553.568	43.57
553.764	43.55
553.961	43.52
554.157	43.51
554.354	43.57
554.55	43.53
554.747	43.52
554.943	43.61
555.14	43.75
555.336	43.82
555.533	43.83
555.729	43.95
555.926	43.91
556.122	43.94
556.318	44.01
556.515	43.98
556.711	44.03
556.907	44.09
557.104	44.23
557.3	44.14
557.496	44.19
557.693	44.21
557.889	44.26
558.085	44.26
558.281	44.41
558.478	44.29
558.674	44.37
558.87	44.47
559.066	44.47
559.262	44.48
559.459	44.49
559.655	44.38
559.851	44.31
560.047	44.31
560.243	44.43
560.439	44.11
560.635	44.28
560.831	44.33
561.027	44.34
561.223	44.22
561.419	44.16
561.615	44.05
561.811	44.07
562.007	44.19
562.203	44.13
562.399	44.01
562.595	44.15
562.791	44.14
562.987	44.07
563.183	44.08
563.379	44.24
563.575	44.1
563.771	44.18
563.966	44.15
564.162	44.18
564.358	44.07
564.554	43.92
564.75	43.94
564.945	43.7
565.141	43.62
565.337	43.57
565.533	43.46
565.728	43.47
565.924	43.46
566.12	43.51
566.315	43.43
566.511	43.58
566.707	43.72
566.902	43.64
567.098	43.74
567.293	43.73
567.489	43.65
567.684	43.8
567.88	43.93
568.076	43.99
568.271	43.9
568.467	43.86
568.662	43.69
568.858	43.61
569.053	43.73
569.248	43.84
569.444	44
569.639	44.03
569.835	43.94
570.03	44.03
570.225	44.03
570.421	44.1
570.616	44.1
570.812	43.99
571.007	44.07
571.202	44.04
571.397	43.86
571.593	43.72
571.788	43.73
571.983	43.59
572.178	43.54
572.374	43.49
572.569	43.55
572.764	43.57
572.959	43.64
573.154	43.69
573.35	43.7
573.545	43.69
573.74	43.7
573.935	43.71
574.13	43.72
574.325	43.66
574.52	43.68
574.715	43.62
574.91	43.76
575.105	43.85
575.3	43.78
575.495	43.99
575.69	44.14
575.885	44.21
576.08	44.16
576.275	44.38
576.47	44.38
576.665	44.44
576.86	44.57
577.055	44.47
577.25	44.56
577.444	44.66
577.639	44.55
577.834	44.52
578.029	44.6
578.224	44.76
578.418	44.76
578.613	44.88
578.808	45.08
579.003	45.06
579.197	45.09
579.392	45.05
579.587	45.07
579.781	45.02
579.976	45.16
580.171	45.25
580.365	45.3
580.56	45.46
580.755	45.43
580.949	45.34
581.144	45.42
581.338	45.47
581.533	45.63
581.727	45.71
581.922	45.84
582.116	45.95
582.311	45.97
582.505	45.91
582.7	45.81
582.894	45.87
583.089	45.72
583.283	45.86
583.478	46.03
583.672	45.98
583.866	46.09
584.061	46.09
584.255	45.95
584.449	45.84
584.644	46.2
584.838	46.2
585.032	46.21
585.226	46.37
585.421	46.3
585.615	46.3
585.809	46.37
586.003	46.39
586.198	46.42
586.392	46.67
586.586	46.85
586.78	46.49
586.974	46.4
587.168	46.54
587.363	46.4
587.557	46.26
587.751	46.22
587.945	46.1
588.139	45.91
588.333	45.8
588.527	45.63
588.721	45.44
588.915	45.45
589.109	45.64
589.303	45.6
589.497	45.59
589.691	45.69
589.885	45.57
590.079	45.67
590.273	45.58
590.466	45.64
590.66	45.62
590.854	45.77
591.048	45.89
591.242	45.89
591.436	45.91
591.629	46.13
591.823	46.08
592.017	46.09
592.211	46.05
592.404	46.26
592.598	46.41
592.792	46.52
592.986	46.44
593.179	46.37
593.373	46.22
593.567	46.17
593.76	46.16
593.954	46.11
594.147	46.15
594.341	46.26
594.535	46.21
594.728	46.08
594.922	45.84
595.115	45.83
595.309	45.77
595.502	45.86
595.696	45.91
595.889	45.79
596.083	45.69
596.276	45.66
596.47	45.52
596.663	45.48
596.856	45.4
597.05	45.38
597.243	45.68
597.437	45.78
597.63	45.77
597.823	45.71
598.017	45.87
598.21	46.2
598.403	46.4
598.596	46.53
598.79	46.68
598.983	46.99
599.176	47.18
599.369	46.86
599.563	46.84
599.756	47.03
599.949	47.23
600.142	47.34
600.335	47.25
600.528	47.15
600.722	47.35
600.915	47.42
601.108	47.29
601.301	47.37
601.494	47.29
601.687	47.25
601.88	47.11
602.073	46.89
602.266	46.57
602.459	46.34
602.652	46.36
602.845	46.27
603.038	46.18
603.231	46.17
603.424	46.11
603.617	46.1
603.809	46.05
604.002	46.03
604.195	45.99
604.388	45.94
604.581	46.01
604.774	45.92
604.966	45.85
605.159	45.74
605.352	45.65
605.545	45.67
605.737	45.8
605.93	45.99
606.123	45.96
606.316	46.2
606.508	46.53
606.701	46.77
606.894	47
607.086	47.22
607.279	47.44
607.471	47.7
607.664	47.99
607.857	48.15
608.049	48.47
608.242	49.14
608.434	49.62
608.627	50.12
608.819	50.84
609.012	51.54
609.204	52.31
609.397	53.38
609.589	54.44
609.782	55.38
609.974	56.79
610.166	58
610.359	59
610.551	59.86
610.743	60.78
610.936	61.51
611.128	62.2
611.32	62.71
611.513	62.88
611.705	62.91
611.897	63.22
612.09	62.72
612.282	62.14
612.474	61.56
612.666	61.03
612.858	60.44
613.051	60.03
613.243	59.55
613.435	59.13
613.627	58.77
613.819	58.29
614.011	57.76
614.203	57.38
614.395	57.07
614.588	56.61
614.78	56.3
614.972	55.78
615.164	55.2
615.356	54.6
615.548	54.1
615.74	53.54
615.932	53.34
616.124	52.83
616.315	52.42
616.507	52.06
616.699	51.9
616.891	51.66
617.083	51.5
617.275	51.31
617.467	51.25
617.659	51.16
617.85	51.01
618.042	50.62
618.234	50.42
618.426	50.14
618.618	49.99
618.809	49.82
619.001	49.74
619.193	49.83
619.384	49.59
619.576	49.46
619.768	49.42
619.959	49.72
620.151	49.77
620.343	50.04
620.534	50.16
620.726	50.33
620.917	50.32
621.109	50.57
621.301	50.43
621.492	50.8
621.684	50.89
621.875	50.83
622.067	50.64
622.258	50.82
622.45	50.59
622.641	50.69
622.832	50.82
623.024	50.92
623.215	50.69
623.407	50.86
623.598	50.66
623.789	50.74
623.981	50.68
624.172	50.77
624.363	50.8
624.555	50.86
624.746	50.83
624.937	50.5
625.129	50.5
625.32	50.44
625.511	50.27
625.702	50.26
625.893	50.2
626.085	50.28
626.276	49.91
626.467	49.84
626.658	49.68
626.849	49.72
627.04	49.84
627.231	49.81
627.422	49.85
627.614	49.94
627.805	49.97
627.996	49.97
628.187	50.09
628.378	50.56
628.569	50.72
628.76	51.12
628.951	51.06
629.142	51.3
629.332	51.52
629.523	51.68
629.714	51.83
629.905	51.92
630.096	52.09
630.287	52.1
630.478	52.03
630.669	52.03
630.859	51.9
631.05	52.09
631.241	52.04
631.432	51.87
631.623	51.79
631.813	51.64
632.004	51.36
632.195	51.2
632.385	50.91
632.576	50.8
632.767	50.55
632.957	50.24
633.148	50.19
633.339	49.87
633.529	49.68
633.72	49.55
633.91	49.52
634.101	49.51
634.292	49.36
634.482	49.27
634.673	49.01
634.863	49.02
635.054	49.12
635.244	48.84
635.435	48.94
635.625	48.88
635.815	48.8
636.006	48.78
636.196	48.96
636.387	49
636.577	49.1
636.767	49.19
636.958	49.09
637.148	49.13
637.338	49.21
637.529	49.17
637.719	49.28
637.909	49.08
638.099	48.9
638.29	48.83
638.48	48.88
638.67	48.94
638.86	49.1
639.05	49.05
639.241	48.88
639.431	49.29
639.621	49.27
639.811	49.31
640.001	49.49
640.191	49.61
640.381	49.7
640.571	49.7
640.761	49.86
640.951	49.98
641.141	50.02
641.331	50.26
641.521	49.95
641.711	49.99
641.901	49.83
642.091	50.07
642.281	50.24
642.471	50.37
642.661	50.75
642.851	50.72
643.041	50.77
643.231	50.82
643.42	50.74
643.61	50.97
643.8	51.22
643.99	51.59
644.18	51.53
644.369	51.53
644.559	51.46
644.749	51.06
644.939	51.03
645.128	50.95
645.318	51.19
645.508	51.28
645.697	51.17
645.887	50.82
646.076	50.55
646.266	50.4
646.456	50.23
646.645	50.25
646.835	50.46
647.024	50.5
647.214	50.24
647.403	50.11
647.593	50.33
647.782	50.39
647.972	50.57
648.161	50.8
648.351	51
648.54	51.24
648.73	51.34
648.919	51.17
649.108	51.36
649.298	51.61
649.487	51.75
649.677	51.84
649.866	51.92
650.055	51.79
650.244	51.85
650.434	51.83
650.623	51.6
650.812	51.54
651.002	51.61
651.191	51.42
651.38	51.49
651.569	51.37
651.758	51.12
651.947	51.15
652.137	51.24
652.326	51.09
652.515	51.21
652.704	51.41
652.893	51.38
653.082	51.34
653.271	51.67
653.46	51.66
653.649	51.82
653.838	51.64
654.027	51.6
654.216	51.66
654.405	51.74
654.594	51.72
654.783	51.57
654.972	51.38
655.161	51.38
655.35	51.48
655.539	51.59
655.728	51.65
655.916	51.57
656.105	51.47
656.294	51.42
656.483	51.49
656.672	51.52
656.86	51.72
657.049	51.73
657.238	51.83
657.427	51.41
657.615	51.11
657.804	50.69
657.993	50.81
658.181	50.53
658.37	50.38
658.559	50.2
658.747	49.96
658.936	49.71
659.125	49.86
659.313	49.82
659.502	49.93
659.69	49.98
659.879	50.12
660.067	50.26
660.256	50.38
660.444	50.54
660.633	50.64
660.821	50.88
661.01	51.3
661.198	51.35
661.387	51.51
661.575	51.7
661.763	51.84
661.952	52.08
662.14	52.19
662.328	52.53
662.517	52.58
662.705	52.77
662.893	52.61
663.082	52.54
663.27	52.6
663.458	52.58
663.646	52.52
663.834	52.62
664.023	52.91
664.211	52.77
664.399	52.81
664.587	53
664.775	52.69
664.963	53.22
665.152	53.4
665.34	53.51
665.528	53.51
665.716	53.51
665.904	53.46
666.092	53.23
666.28	53.22
666.468	53.04
666.656	53.24
666.844	53.75
667.032	53.76
667.22	53.36
667.408	53.25
667.596	53.31
667.784	53.23
667.971	53.25
668.159	53.12
668.347	53.14
668.535	53.48
668.723	53.09
668.911	52.84
669.098	52.6
669.286	52.77
669.474	52.43
669.662	52.24
669.849	52.47
670.037	52.63
670.225	52.94
670.413	52.91
670.6	52.68
670.788	52.61
670.976	52.65
671.163	52.68
671.351	53.11
671.538	53.6
671.726	53.96
671.913	53.65
672.101	53.58
672.289	53.33
672.476	53.42
672.664	53.49
672.851	53.84
673.039	54.06
673.226	54.32
673.413	53.82
673.601	53.88
673.788	53.61
673.976	53.81
674.163	54.11
674.35	54.17
674.538	54.32
674.725	54.59
674.912	54.78
675.1	54.97
675.287	55.1
675.474	55.27
675.662	55.37
675.849	55.58
676.036	55.49
676.223	55.39
676.411	55.75
676.598	55.75
676.785	55.65
676.972	55.22
677.159	55.15
677.346	54.84
677.533	54.76
677.721	54.39
677.908	54.16
678.095	54.17
678.282	53.86
678.469	53.48
678.656	53.51
678.843	53.15
679.03	53.17
679.217	52.87
679.404	52.78
679.591	52.63
679.778	52.61
679.964	52.49
680.151	52.49
680.338	52.33
680.525	52.35
680.712	52.44
680.899	52.62
681.086	52.94
681.272	53.14
681.459	53.02
681.646	53.37
681.833	53.74
682.02	53.97
682.206	53.94
682.393	54.46
682.58	54.45
682.766	54.46
682.953	54.66
683.14	54.49
683.326	54.58
683.513	54.73
683.7	54.76
683.886	54.55
684.073	54.6
684.259	54.61
684.446	54.36
684.632	54.77
684.819	54.84
685.005	54.75
685.192	55.03
685.378	54.95
685.565	55.21
685.751	55.09
685.938	55.3
686.124	55.34
686.31	55.66
686.497	56.1
686.683	55.99
686.87	55.95
687.056	56.15
687.242	56.01
687.429	56.2
687.615	56.28
687.801	56.38
687.987	56.37
688.174	56.44
688.36	56.12
688.546	55.89
688.732	56.04
688.918	55.96
689.105	55.76
689.291	55.63
689.477	55.54
689.663	55.41
689.849	55.28
690.035	55.19
690.221	55.09
690.407	55.27
690.593	55.45
690.779	55.34
690.965	55.39
691.151	55.9
691.337	56.34
691.523	56.35
691.709	56.74
691.895	56.95
692.081	57.11
692.267	57.77
692.453	58.41
692.639	58.39
692.825	58.49
693.011	58.61
693.196	58.17
693.382	58.07
693.568	57.86
693.754	57.39
693.94	57.59
694.125	57.64
694.311	57.15
694.497	57.09
694.682	57.15
694.868	57.24
695.054	57.26
695.239	57.51
695.425	57.33
695.611	57.54
695.796	57.46
695.982	56.83
696.168	56.75
696.353	56.74
696.539	56.66
696.724	56.42
696.91	56.05
697.095	55.86
697.281	55.4
697.466	55.13
697.652	54.71
697.837	54.73
698.023	55.05
698.208	54.85
698.393	54.84
698.579	54.34
698.764	54.16
698.949	54.22
699.135	53.86
699.32	53.96
699.505	54.05
699.691	54.33
699.876	54.29
700.061	54.26
700.246	54.52
700.432	54.7
700.617	54.9
700.802	55.16
700.987	55.55
701.172	56.41
701.358	56.7
701.543	56.93
701.728	57.12
701.913	57.36
702.098	57.44
702.283	57.98
702.468	58.28
702.653	58.7
702.838	59.19
703.023	59.3
703.208	59.62
703.393	59.75
703.578	60.04
703.763	60.5
703.948	60.86
704.133	61.71
704.318	61.75
704.503	61.8
704.688	62.07
704.873	62.66
705.057	63.28
705.242	63.45
705.427	64.06
705.612	64.89
705.797	65.28
705.981	65.91
706.166	65.94
706.351	66.2
706.536	66.85
706.72	67.01
706.905	66.73
707.09	66.79
707.274	66.79
707.459	66.66
707.644	66.7
707.828	66.62
708.013	66.44
708.197	66.7
708.382	66.21
708.567	65.41
708.751	65.73
708.936	65.84
709.12	65.43
709.305	65.07
709.489	64.76
709.673	64.53
709.858	64.37
710.042	64.25
710.227	63.73
710.411	64.46
710.596	64.69
710.78	64.13
710.964	63.68
711.149	63.56
711.333	63.65
711.517	64.05
711.702	63.81
711.886	64.05
712.07	63.98
712.254	63.92
712.438	63.18
712.623	63.02
712.807	62.72
712.991	62.73
713.175	62.75
713.359	62.81
713.544	62.31
713.728	61.91
713.912	61.54
714.096	61.14
714.28	60.68
714.464	60.53
714.648	60.45
714.832	60.18
715.016	59.8
715.2	59.59
715.384	59.22
715.568	59.24
715.752	59.01
715.936	59.03
716.12	58.94
716.304	59.66
716.488	59.58
716.671	59.2
716.855	59.31
717.039	59.51
717.223	59.09
717.407	59.42
717.59	59.46
717.774	59.93
717.958	59.71
718.142	60.1
718.325	59.38
718.509	59.71
718.693	60.21
718.877	60.43
719.06	60.17
719.244	60.73
719.428	60.83
719.611	60.76
719.795	60.93
719.978	61.12
720.162	61.2
720.345	61.73
720.529	61.84
720.713	62.09
720.896	63.11
721.08	63.47
721.263	63.67
721.446	63.79
721.63	64.51
721.813	64.42
721.997	64.87
722.18	64.75
722.364	64.1
722.547	64.03
722.73	63.64
722.914	62.84
723.097	63.15
723.28	63.58
723.464	63.14
723.647	62.44
723.83	62.37
724.013	62.05
724.197	61.91
724.38	62.62
724.563	62.51
724.746	63.12
724.929	63.51
725.112	63.16
725.296	62.84
725.479	62.8
725.662	62.93
725.845	63.36
726.028	63.07
726.211	63.1
726.394	62.91
726.577	62.41
726.76	61.74
726.943	61.38
727.126	61.7
727.309	61.5
727.492	61.65
727.675	61.58
727.858	61.43
728.041	61.8
728.224	62.28
728.407	62.17
728.589	62.61
728.772	62.87
728.955	62.86
729.138	63.23
729.321	63.47
729.503	63.5
729.686	63.65
729.869	63.38
730.052	63.03
730.234	63.06
730.417	63.49
730.6	63.31
730.782	63.1
730.965	63.29
731.148	62.81
731.33	62.54
731.513	62.41
731.695	62.14
731.878	62.46
732.061	63.14
732.243	62.81
732.426	62.38
732.608	62.55
732.791	62.98
732.973	62.54
733.156	62.87
733.338	63.13
733.52	63.66
733.703	63.9
733.885	64
734.068	63.85
734.25	64.44
734.432	64.71
734.615	65.15
734.797	65.59
734.979	65.71
735.162	65.9
735.344	65.2
735.526	65.32
735.708	65.92
735.891	66.49
736.073	66.57
736.255	66.17
736.437	65.83
736.619	65.71
736.802	65.18
736.984	65.39
737.166	65.25
737.348	65.98
737.53	65.97
737.712	65.48
737.894	64.88
738.076	65.02
738.258	64.87
738.44	64.97
738.622	64.92
738.804	65.03
738.986	65.65
739.168	65.06
739.35	65.74
739.532	65.66
739.714	66.03
739.896	66.45
740.078	66.59
740.259	67.3
740.441	67.89
740.623	67.56
740.805	67.76
740.987	67.94
741.168	69.32
741.35	69.34
741.532	69.74
741.714	70.07
741.895	70.16
742.077	70.22
742.259	70.19
742.44	70.75
742.622	71.28
742.804	71.58
742.985	71.52
743.167	71.28
743.348	70.82
743.53	70.71
743.711	71.03
743.893	70.19
744.075	69.51
744.256	69.73
744.438	69.29
744.619	70.33
744.8	70.53
744.982	70.76
745.163	70.57
745.345	71.24
745.526	71.54
745.707	70.72
745.889	71.72
746.07	72.36
746.252	72.09
746.433	72.61
746.614	71.68
746.795	71.15
746.977	71.24
747.158	71.54
747.339	71.08
747.52	71.29
747.702	71.22
747.883	70.99
748.064	71.36
748.245	71.15
748.426	71.29
748.607	70.85
748.788	70.86
748.97	70.11
749.151	69.4
749.332	69.91
749.513	69.11
749.694	70.05
749.875	70.51
750.056	70.56
750.237	70.28
750.418	69.23
750.599	69.98
750.78	70.49
750.96	71.19
751.141	71.63
751.322	71.1
751.503	71.57
751.684	70.79
751.865	70.15
752.046	69.74
752.226	69.92
752.407	71.22
752.588	71.24
752.769	70.83
752.949	71.25
753.13	71.36
753.311	71.23
753.492	70.68
753.672	70.63
753.853	70.9
754.034	71.22
754.214	71.9
754.395	70.58
754.575	70.68
754.756	70.52
754.937	70.13
755.117	70.3
755.298	70.35
755.478	71.41
755.659	72.19
755.839	71.92
756.02	71.15
756.2	70.86
756.381	71.19
756.561	71.58
756.741	72.27
756.922	72.26
757.102	71.82
757.283	71.71
757.463	71.46
757.643	70.91
757.823	70.27
758.004	70.84
758.184	70.53
758.364	70.77
758.545	70.31
758.725	69.73
758.905	68.12
759.085	67.84
759.265	67.73
759.446	67.33
759.626	67.06
759.806	67
759.986	67.12
760.166	66.95
760.346	66.56
760.526	65.82
760.706	65.78
760.886	66.23
761.066	66.56
761.246	66.19
761.426	65.71
761.606	65.41
761.786	65.93
761.966	65.01
762.146	64.96
762.326	64.42
762.506	63.87
762.686	63.07
762.866	62.92
763.046	62.21
763.225	61.82
763.405	61.43
763.585	61.4
763.765	61.21
763.945	60.9
764.124	60.31
764.304	60.68
764.484	61.18
764.664	61.54
764.843	61.42
765.023	61.73
765.203	62.21
765.382	62.75
765.562	63.08
765.741	63.15
765.921	64.35
766.101	65.87
766.28	66.19
766.46	66.3
766.639	66.88
766.819	68.13
766.998	68.39
767.178	68.82
767.357	69.81
767.537	70.7
767.716	71.54
767.896	71.6
768.075	71.41
768.254	71.56
768.434	72.67
768.613	73.04
768.792	73.3
768.972	73.62
769.151	74.56
769.33	75.23
769.51	75.16
769.689	75.02
769.868	75.66
770.047	76
770.226	76.2
770.406	75.92
770.585	76.49
770.764	76.13
770.943	76.97
771.122	76.84
771.301	75.84
771.48	76.36
771.66	76.54
771.839	76.16
772.018	75.79
772.197	77.28
772.376	77.72
772.555	77.78
772.734	78.74
772.913	78.88
773.092	78.3
773.271	78.05
773.449	78.55
773.628	78.65
773.807	78.48
773.986	79.62
774.165	78.51
774.344	79.21
774.523	79.19
774.701	79.08
774.88	79.18
775.059	79.28
775.238	79.69
775.417	78.72
775.595	78.72
775.774	79.48
775.953	78.06
776.131	78.46
776.31	77.65
776.489	77.72
776.667	77.56
776.846	77.52
777.025	78.17
777.203	78.17
777.382	78.71
777.56	78.77
777.739	79.14
777.917	80.22
778.096	80.27
778.274	80.79
778.453	80.49
778.631	79.51
778.81	79.78
778.988	79.53
779.166	79.41
779.345	80
779.523	79.34
779.702	80.27
779.88	80
780.058	79.87
780.237	80.61
780.415	81.38
780.593	83.56
780.771	83.33
780.95	84.01
781.128	85.49
781.306	84.25
781.484	85.8
781.662	83.99
781.841	84.09
782.019	84.38
782.197	82.32
782.375	80.99
782.553	79.65
782.731	79.19
782.909	80.27
783.087	79.25
783.265	80.54
783.443	79.81
783.621	80.45
783.799	80.74
783.977	80.36
784.155	81.64
784.333	83.05
784.511	82.97
784.689	83.76
784.867	82.44
785.045	81.82
785.223	81.54
785.4	81.75
785.578	82.24
785.756	82.34
785.934	82.97
786.112	83.31
786.289	81.97
786.467	82.46
786.645	81.87
786.823	81.31
787	80.93
787.178	80.15
787.356	79.09
787.533	78.45
787.711	77.41
787.889	76.55
788.066	76.09
788.244	76.58
788.421	75.94
788.599	76.37
788.776	76.83
788.954	78.17
789.131	77.27
789.309	78.06
789.486	78.83
789.664	80.13
789.841	80.89
790.019	81.28
790.196	82.81
790.373	84.3
790.551	85.39
790.728	85.84
790.906	85.24
791.083	85.43
791.26	85.48
791.437	84.53
791.615	83.48
791.792	83.35
791.969	82.67
792.146	81.8
792.324	81.57
792.501	81.02
792.678	79.63
792.855	79.98
793.032	81.34
793.209	81.78
793.387	81.64
793.564	82.25
793.741	82.94
793.918	84.81
794.095	84.06
794.272	83.1
794.449	82.8
794.626	84.23
794.803	84.78
794.98	84
795.157	84.07
795.334	83.64
795.511	83.62
795.688	82.69
795.864	82.09
796.041	81.86
796.218	82.33
796.395	81.53
796.572	80.37
796.749	79.47
796.925	80.36
797.102	79.38
797.279	79.72
797.456	79.51
797.632	79.89
797.809	78.08
797.986	78.86
798.162	79.62
798.339	79.17
798.516	79.69
798.692	79.11
798.869	79.28
799.046	80.6
799.222	80.68
799.399	80.12
799.575	80.48
799.752	82.58
799.928	81.98
800.105	80.91
800.281	81.78
800.458	82.36
800.634	83.97
800.811	84.7
800.987	84.02
801.163	84.95
801.34	85.9
801.516	84.04
801.692	82.67
801.869	82.99
802.045	83.32
802.221	83.63
802.398	83.37
802.574	83.81
802.75	83.81
802.926	84.69
803.103	85.48
803.279	85.89
803.455	86.34
803.631	87.7
803.807	88.34
803.983	89.14
804.16	89.55
804.336	89.85
804.512	90.18
804.688	89.57
804.864	88.67
805.04	86.9
805.216	86.63
805.392	89.39
805.568	89.61
805.744	87.62
805.92	88.61
806.096	89.36
806.272	89.19
806.448	87
806.623	87.74
806.799	88.11
806.975	88.7
807.151	89.03
807.327	87.63
807.503	86.76
807.678	88.43
807.854	88.17
808.03	87.09
808.206	87.07
808.381	87.69
808.557	87.46
808.733	87.91
808.908	88.56
809.084	88.47
809.26	88.09
809.435	88.64
809.611	87.54
809.787	86.46
809.962	86
810.138	86.11
810.313	86.05
810.489	85.69
810.664	85.63
810.84	83.86
811.015	83.88
811.191	82.88
811.366	82.14
811.542	84.02
811.717	84.26
811.892	84.27
812.068	84.69
812.243	83.3
812.419	83.82
812.594	83.55
812.769	84.29
812.944	82.99
813.12	84.74
813.295	85.9
813.47	85.29
813.645	86.1
813.821	87.39
813.996	87.16
814.171	89.08
814.346	88.39
814.521	88.78
814.697	89.49
814.872	89.72
815.047	88.49
815.222	88.22
815.397	88.84
815.572	88.35
815.747	86.76
815.922	87.05
816.097	87.01
816.272	88.45
816.447	87.85
816.622	87.07
816.797	87.65
816.972	88.12
817.147	86.14
817.322	86.5
817.496	85.85
817.671	86.13
817.846	85.81
818.021	84.68
818.196	84.05
818.371	83.51
818.545	83.15
818.72	82.78
818.895	81.49
819.069	80.85
819.244	79.28
819.419	77.75
819.594	77.67
819.768	74.96
819.943	73.17
820.117	71.78
820.292	69.6
820.467	67.65
820.641	65.58
820.816	63.96
820.99	62.68
821.165	60.44
821.339	59.56
821.514	58.92
821.688	58.2
821.863	57.75
822.037	56.83
822.212	56.46
822.386	55.88
822.56	55.67
822.735	55.62
822.909	55.28
823.084	55.51
823.258	55.34
823.432	54.88
823.606	55.02
823.781	55.11
823.955	55.14
824.129	55.56
824.303	56.34
824.478	56.61
824.652	56.74
824.826	56.96
825	57.73
825.174	58.2
825.348	59.28
825.523	59.95
825.697	60.39
825.871	61.59
826.045	61.45
826.219	61.6
826.393	61.79
826.567	61.82
826.741	62.5
826.915	62.36
827.089	62.61
827.263	62.11
827.437	61.83
827.611	62.04
827.784	61.89
827.958	61.9
828.132	61.4
828.306	61.92
828.48	62.24
828.654	62.54
828.827	62.53
829.001	63.02
829.175	63.83
829.349	64.86
829.522	64.97
829.696	66.05
829.87	67.29
830.044	69.05
830.217	70.75
830.391	71.89
830.565	71.87
830.738	73.39
830.912	74.2
831.085	75.32
831.259	77.15
831.432	78.74
831.606	78
831.779	77.24
831.953	76.99
832.126	74.96
832.3	75.66
832.473	75.51
832.647	73.74
832.82	72.62
832.994	71.46
833.167	69.82
833.34	68.51
833.514	68.23
833.687	67.85
833.86	66.95
834.034	66.69
834.207	64.97
834.38	64.98
834.553	65.62
834.727	65.97
834.9	66.43
835.073	66.49
835.246	67.41
835.419	68.09
835.593	68.81
835.766	69.58
835.939	70.55
836.112	73.72
836.285	75.95
836.458	75.96
836.631	77.12
836.804	78.64
836.977	81.3
837.15	83.83
837.323	86.24
837.496	88.33
837.669	90.33
837.842	93.63
838.015	93.42
838.188	94.17
838.361	98.11
838.533	96.48
838.706	99.33
838.879	99.21
839.052	97.46
839.225	96.26
839.398	95.98
839.57	95.53
839.743	94.36
839.916	93.07
840.088	91.97
840.261	90.28
840.434	93.69
840.607	89.83
840.779	89
840.952	90.95
841.124	90.82
841.297	91.5
841.47	93.13
841.642	93.2
841.815	95.41
841.987	96.4
842.16	99.47
842.332	100.09
842.505	101.63
842.677	102.23
842.85	101.69
843.022	101.7
843.194	101.32
843.367	105.67
843.539	105.84
843.712	105.67
843.884	106.24
844.056	110.21
844.229	110.75
844.401	110.1
844.573	113.36
844.745	118.19
844.918	119.34
845.09	125.73
845.262	123.42
845.434	130.19
845.606	136.32
845.779	140.75
845.951	135.72
846.123	133.58
846.295	139.27
846.467	139.3
846.639	134.31
846.811	139.01
846.983	136.07
847.155	135.94
847.327	134.08
847.499	132
847.671	130.38
847.843	132.29
848.015	132.95
848.187	134.81
848.359	132.74
848.531	133.15
848.703	131.7
848.875	136.35
849.047	134.7
849.218	127.11
849.39	128.36
849.562	126.52
849.734	123.21
849.905	127.57
850.077	123.75
850.249	122.21
850.421	121.84
850.592	125.12
850.764	122.79
850.936	126.12
851.107	132.22
851.279	133.19
851.451	138.16
851.622	138.54
851.794	140.97
851.965	143.92
852.137	148.56
852.308	155.29
852.48	150.82
852.651	146.36
852.823	138.69
852.994	135.82
853.166	132.01
853.337	125.09
853.509	125.48
853.68	117.51
853.851	113.58
854.023	112.65
854.194	106.72
854.365	110.05
854.537	111.4
854.708	108.97
854.879	107.92
855.05	110.9
855.222	112.88
855.393	114.49
855.564	117.85
855.735	121.1
855.906	121.02
856.078	121.02
856.249	114.94
856.42	115.54
856.591	120.88
856.762	122.36
856.933	119.6
857.104	120.13
857.275	120.79
857.446	123.65
857.617	125.5
857.788	126.08
857.959	127.59
858.13	130.24
858.301	132.56
858.472	135.34
858.643	139.63
858.814	146.11
858.985	141.13
859.155	141.88
859.326	146.84
859.497	143
859.668	143.75
859.839	153.63
860.009	155.44
860.18	155.29
860.351	148.06
860.522	153.57
860.692	148.63
860.863	158.7
861.034	163.8
861.204	159.29
861.375	164.79
861.546	160.08
861.716	148.86
861.887	153.55
862.057	151.23
862.228	154.46
862.398	154.38
862.569	152.41
862.739	147.16
862.91	134.17
863.08	132.22
863.251	130.09
863.421	130.65
863.592	133.08
863.762	125.32
863.932	129.16
864.103	129.06
864.273	129.13
864.443	129.52
864.614	130.29
864.784	131.01
864.954	132.8
865.125	133.85
865.295	130.85
865.465	131.94
865.635	134.32
865.805	134.1
865.976	136.77
866.146	135.39
866.316	137.71
866.486	145.2
866.656	154.9
866.826	154.73
866.996	152.56
867.166	158.86
867.336	157.46
867.506	157.14
867.676	154.25
867.846	147.03
868.016	146.26
868.186	146.88
868.356	143.41
868.526	148.06
868.696	147.51
868.866	147.91
869.036	144.35
869.206	146.68
869.376	140.3
869.545	141.6
869.715	150.33
869.885	144.47
870.055	140.23
870.224	142.72
870.394	134.35
870.564	132.15
870.734	133.93
870.903	139.47
871.073	136.43
871.243	143.76
871.412	136.36
871.582	135.29
871.751	131.31
871.921	132.68
872.091	122.66
872.26	120.86
872.43	122.29
872.599	119.34
872.769	116.46
872.938	118.65
873.108	117.27
873.277	122.41
873.446	117.13
873.616	123.61
873.785	123
873.955	129.08
874.124	133.01
874.293	131.03
874.463	129.92
874.632	129.11
874.801	124.46
874.971	124.66
875.14	127.17
875.309	129.3
875.478	127.06
875.647	124.42
875.817	118.76
875.986	115.02
876.155	117.07
876.324	123.15
876.493	127.39
876.662	125.48
876.831	121.61
877	121.24
877.17	125.05
877.339	126.61
877.508	126.14
877.677	137.73
877.846	135.67
878.015	133
878.184	120.4
878.352	115.86
878.521	115.36
878.69	112.92
878.859	109.84
879.028	108.07
879.197	101.36
879.366	99.3
879.534	92.35
879.703	90.73
879.872	87.5
880.041	87.61
880.21	84.26
880.378	79.22
880.547	76.9
880.716	73.04
880.884	68.68
881.053	68.25
881.222	66.92
881.39	64.64
881.559	63.43
881.727	62.55
881.896	60.82
882.065	59.59
882.233	59.88
882.402	59.37
882.57	59.56
882.739	59.5
882.907	58.62
883.076	58.64
883.244	58.32
883.412	58.99
883.581	59.09
883.749	60.15
883.918	61.51
884.086	62.95
884.254	63.1
884.423	62.74
884.591	64.73
884.759	67.11
884.927	69.93
885.096	73.41
885.264	75.82
885.432	78.37
885.6	82.1
885.769	85.26
885.937	83.69
886.105	89.09
886.273	91.47
886.441	92.62
886.609	94.58
886.777	95.79
886.945	97.07
887.113	98.19
887.281	106.62
887.449	105.56
887.617	108.35
887.785	116.39
887.953	118.8
888.121	127.59
888.289	131.61
888.457	130.23
888.625	125.71
888.793	126.75
888.961	122.13
889.129	115.5
889.296	117.32
889.464	113.88
889.632	111.1
889.8	109.38
889.967	106.92
890.135	102.37
