Data from 2938771__Reflection_01.txt Node
Date: Fri Mar 13 15:01:58 EDT 2015
User: robert
Spectrometer: USB4E03002
Autoset integration time: false
Trigger mode: 4
Integration Time (sec): 1.000000E-1
Scans to average: 10
Electric dark correction enabled: false
Nonlinearity correction enabled: false
Boxcar width: 5
Stray light correction enabled: false
XAxis mode: Wavelengths
Stop averaging: false
Number of Pixels in Spectrum: 3648
>>>>>Begin Spectral Data<<<<<
177.575	-364.58
177.794	-980.82
178.014	-2951.85
178.233	1501.49
178.452	2935.14
178.672	628.98
178.891	557.93
179.11	3234.78
179.33	-949.25
179.549	-388.1
179.768	-1936.67
179.987	862.69
180.207	1866.67
180.426	956.92
180.645	-1262.86
180.864	-653.23
181.084	-116.54
181.303	-222.43
181.522	-970.21
181.741	3280
181.96	191.43
182.179	183.29
182.398	134.39
182.618	116.5
182.837	144.65
183.056	131.61
183.275	115.56
183.494	131.91
183.713	135.84
183.932	181.73
184.151	128.13
184.37	154.02
184.589	230.9
184.808	441.11
185.027	218.6
185.246	170.77
185.465	169.97
185.684	191.35
185.903	176.02
186.122	143.17
186.341	126.3
186.56	143.55
186.779	237.77
186.998	176.36
187.216	216.04
187.435	589.83
187.654	254.65
187.873	163.56
188.092	128.49
188.311	252.02
188.53	221.15
188.748	618.75
188.967	-1275
189.186	246.38
189.405	329.5
189.623	152.9
189.842	112.32
190.061	147.84
190.28	260.26
190.498	190.02
190.717	148.13
190.936	160.53
191.154	159.58
191.373	170.15
191.592	169.65
191.81	131.81
192.029	156.91
192.248	158.28
192.466	150.59
192.685	155.27
192.904	206.15
193.122	211.62
193.341	308.6
193.559	444.38
193.778	268.46
193.996	324.38
194.215	2428
194.433	571.03
194.652	503.38
194.87	746.81
195.089	10020
195.307	1596.15
195.526	-468.22
195.744	1140.43
195.963	402.73
196.181	371.49
196.399	277.87
196.618	295.21
196.836	331.77
197.055	376.62
197.273	676.92
197.491	1758.82
197.71	1324.07
197.928	384.92
198.146	522.88
198.365	693.33
198.583	746.97
198.801	-173.36
199.019	-121.03
199.238	-65.88
199.456	-81.95
199.674	-104.3
199.892	-82.11
200.111	-10.99
200.329	45.18
200.547	12.57
200.765	-19.43
200.983	2.06
201.202	61.68
201.42	-189.58
201.638	743.48
201.856	178.35
202.074	590.24
202.292	260.53
202.51	466.67
202.728	352.34
202.946	502.68
203.165	1068.25
203.383	57100
203.601	542.96
203.819	436.63
204.037	232.09
204.255	271.89
204.473	125.67
204.691	215.47
204.909	64.57
205.127	70.29
205.345	30.77
205.562	26.76
205.78	48.87
205.998	19.62
206.216	71.35
206.434	69.66
206.652	93.92
206.87	98.22
207.088	88.39
207.306	124.37
207.523	91.25
207.741	93
207.959	96.03
208.177	116.67
208.395	117.59
208.612	151.89
208.83	152.42
209.048	140.74
209.266	880
209.483	-494.12
209.701	-1296
209.919	759.38
210.136	9060
210.354	-977.78
210.572	-151.37
210.79	415.89
211.007	182.64
211.225	738.98
211.442	216.67
211.66	150
211.878	129.68
212.095	252.04
212.313	263.84
212.53	267.65
212.748	233.06
212.966	175.65
213.183	221.65
213.401	221
213.618	166.14
213.836	164.15
214.053	195.42
214.271	212.58
214.488	93.74
214.705	97.72
214.923	84.37
215.14	98.55
215.358	79.55
215.575	69.24
215.793	56.35
216.01	60.72
216.227	49.8
216.445	52.08
216.662	42.38
216.879	39.76
217.097	42.78
217.314	45.3
217.531	32.25
217.749	51.89
217.966	51.98
218.183	49.81
218.4	49.1
218.618	54.2
218.835	40.87
219.052	39.09
219.269	34
219.487	22.21
219.704	14.74
219.921	6.57
220.138	3.12
220.355	9.08
220.572	13.92
220.79	7.44
221.007	4.78
221.224	6.86
221.441	11.23
221.658	16.96
221.875	23.15
222.092	26.83
222.309	32.92
222.526	23.86
222.743	19.24
222.96	17.6
223.177	21.46
223.394	18.07
223.611	12.56
223.828	13.99
224.045	18.64
224.262	22.59
224.479	25.14
224.696	21.65
224.913	28.45
225.13	30.86
225.347	34.55
225.564	35.21
225.781	37.63
225.997	35.1
226.214	31.22
226.431	25.6
226.648	19.27
226.865	17.93
227.082	15.52
227.298	13.38
227.515	11.58
227.732	10.07
227.949	8.27
228.165	7.99
228.382	8.39
228.599	8.49
228.816	8.48
229.032	8.27
229.249	7.81
229.466	8.42
229.682	8.29
229.899	7.79
230.116	7.18
230.332	7.49
230.549	7.12
230.765	7.88
230.982	7.69
231.199	6.76
231.415	7.7
231.632	6.88
231.848	7.86
232.065	6.41
232.281	8.04
232.498	8.77
232.714	10.62
232.931	12.3
233.147	10.11
233.364	10.28
233.58	9.06
233.797	8.46
234.013	9.26
234.23	7.66
234.446	9.12
234.662	7.99
234.879	7.81
235.095	6.45
235.312	5.09
235.528	4.03
235.744	2.5
235.961	5.83
236.177	5.74
236.393	5.53
236.61	5.68
236.826	4.95
237.042	6.04
237.258	6.5
237.475	7.16
237.691	6.61
237.907	8.07
238.123	10.76
238.339	9.04
238.556	9.85
238.772	9.99
238.988	8.02
239.204	8.49
239.42	8.16
239.636	7.64
239.853	7.07
240.069	8.59
240.285	8.41
240.501	7.79
240.717	8.52
240.933	8
241.149	7.11
241.365	7.19
241.581	6.69
241.797	6.42
242.013	6.54
242.229	6.69
242.445	6.11
242.661	6.62
242.877	6.59
243.093	6.33
243.309	6.37
243.525	6.82
243.741	7.22
243.957	7.64
244.173	8
244.388	8.05
244.604	8.18
244.82	8.75
245.036	7.32
245.252	6.37
245.468	6.37
245.683	6.36
245.899	5.76
246.115	5.68
246.331	5.32
246.547	5.13
246.762	5.05
246.978	5.04
247.194	4.6
247.409	5.1
247.625	5.26
247.841	5.36
248.057	5.32
248.272	5.61
248.488	5.84
248.703	6.02
248.919	6.02
249.135	6.2
249.35	6.29
249.566	6.52
249.782	6.35
249.997	6.75
250.213	6.74
250.428	7.2
250.644	6.69
250.859	6.09
251.075	6.28
251.29	6.53
251.506	6.58
251.721	5.95
251.937	5.88
252.152	6.14
252.368	6.59
252.583	6.32
252.798	5.54
253.014	6.27
253.229	6.84
253.445	5.94
253.66	6.11
253.875	5.89
254.091	5.86
254.306	6.21
254.521	5.32
254.737	4.73
254.952	4.9
255.167	5.32
255.383	4.42
255.598	3.34
255.813	4.42
256.028	3.9
256.244	2.99
256.459	3.57
256.674	2.42
256.889	2.93
257.104	2.19
257.32	2.06
257.535	1.54
257.75	1.77
257.965	2.21
258.18	2.4
258.395	2.75
258.61	3.37
258.826	3.25
259.041	3.59
259.256	3.73
259.471	3.92
259.686	4
259.901	4.11
260.116	4.25
260.331	4.36
260.546	4.16
260.761	4.11
260.976	4.1
261.191	4.33
261.406	4.36
261.621	4.15
261.836	4.18
262.05	3.66
262.265	3.81
262.48	3.72
262.695	3.37
262.91	3.54
263.125	3.26
263.34	2.98
263.555	2.02
263.769	2.05
263.984	1.78
264.199	1.17
264.414	2
264.629	2.33
264.843	2.91
265.058	2.83
265.273	3.33
265.488	3.93
265.702	4.4
265.917	4.34
266.132	4.66
266.346	4.66
266.561	5.61
266.776	5.59
266.99	5.47
267.205	4.74
267.42	5.26
267.634	5.06
267.849	4.96
268.063	5.08
268.278	6.08
268.492	5.84
268.707	5.93
268.922	5.45
269.136	5.51
269.351	5.14
269.565	5.7
269.78	5.77
269.994	5.78
270.209	5.09
270.423	4.66
270.637	4.35
270.852	4.33
271.066	4.85
271.281	5.04
271.495	4.84
271.709	4.85
271.924	4.57
272.138	4.29
272.353	4.36
272.567	4.71
272.781	4.58
272.996	4.41
273.21	4.9
273.424	5.05
273.638	4.74
273.853	4.65
274.067	4.78
274.281	4.85
274.495	4.71
274.71	4.5
274.924	4.86
275.138	5.06
275.352	4.9
275.566	3.98
275.781	3.25
275.995	3.37
276.209	3.46
276.423	3
276.637	2.73
276.851	2.69
277.065	2.79
277.279	2.48
277.493	2.79
277.707	3.11
277.921	2.88
278.135	3.18
278.349	3.21
278.563	3.43
278.777	4
278.991	4.38
279.205	5.05
279.419	4.78
279.633	4.93
279.847	4.67
280.061	4.14
280.275	4.42
280.489	3.99
280.703	3.82
280.917	3.81
281.131	3.62
281.344	3.23
281.558	2.58
281.772	3.04
281.986	2.83
282.2	2.67
282.414	2.9
282.627	3.09
282.841	3.36
283.055	3.59
283.269	3.35
283.482	3.28
283.696	3.35
283.91	3.31
284.123	2.81
284.337	3.02
284.551	3.13
284.764	3.1
284.978	3
285.192	2.97
285.405	2.69
285.619	2.85
285.833	2.89
286.046	2.87
286.26	2.99
286.473	3.27
286.687	3.23
286.9	3.26
287.114	3.3
287.327	3.22
287.541	3.05
287.754	3.03
287.968	2.98
288.181	3.03
288.395	3.36
288.608	3.59
288.822	3.55
289.035	3.38
289.248	3.31
289.462	3.48
289.675	3.76
289.889	3.96
290.102	4.04
290.315	3.94
290.529	4.03
290.742	4.07
290.955	3.86
291.169	3.94
291.382	4.25
291.595	4.46
291.808	4.46
292.022	4.58
292.235	4.48
292.448	4.66
292.661	4.58
292.875	4.41
293.088	4.44
293.301	4.29
293.514	4.39
293.727	4.54
293.94	4.63
294.153	4.44
294.367	4.29
294.58	4.29
294.793	4.01
295.006	4.28
295.219	4.13
295.432	3.89
295.645	4.47
295.858	4.2
296.071	3.87
296.284	3.78
296.497	4.11
296.71	4.27
296.923	4.62
297.136	4.89
297.349	4.89
297.562	5.16
297.775	5.23
297.988	4.97
298.201	5.08
298.414	5.32
298.626	5.26
298.839	4.94
299.052	4.94
299.265	4.5
299.478	4.61
299.691	4.72
299.903	4.74
300.116	4.68
300.329	4.65
300.542	4.89
300.755	4.62
300.967	4.88
301.18	5.02
301.393	5.04
301.605	5.01
301.818	4.97
302.031	4.8
302.243	4.49
302.456	4.69
302.669	4.92
302.881	4.61
303.094	4.63
303.307	4.77
303.519	4.68
303.732	4.71
303.944	4.78
304.157	4.27
304.37	4.26
304.582	4.31
304.795	4.39
305.007	4.77
305.22	4.9
305.432	5.02
305.645	4.57
305.857	4.85
306.069	4.77
306.282	5.13
306.494	5.64
306.707	5.42
306.919	5.63
307.132	5.55
307.344	5.23
307.556	5.68
307.769	5.78
307.981	6.07
308.193	5.92
308.406	5.83
308.618	5.8
308.83	5.52
309.043	5.59
309.255	5.72
309.467	5.66
309.679	5.43
309.892	5.13
310.104	5.22
310.316	4.77
310.528	4.64
310.74	4.79
310.953	4.67
311.165	4.94
311.377	5.1
311.589	5.21
311.801	5.27
312.013	5.5
312.225	5.49
312.437	5.51
312.649	5.86
312.862	6.28
313.074	6.02
313.286	6.21
313.498	6.11
313.71	6.09
313.922	5.98
314.134	6.28
314.346	6.3
314.558	6.68
314.77	6.74
314.982	6.85
315.193	6.9
315.405	7.17
315.617	7.11
315.829	7.52
316.041	7.84
316.253	7.66
316.465	7.67
316.677	7.98
316.888	7.78
317.1	7.8
317.312	8.44
317.524	8.31
317.736	8.89
317.947	9.2
318.159	9.48
318.371	9.31
318.583	9.95
318.794	10.06
319.006	9.87
319.218	9.88
319.43	9.81
319.641	9.64
319.853	9.55
320.064	9.11
320.276	9.26
320.488	8.69
320.699	8.85
320.911	8.52
321.123	8.05
321.334	7.63
321.546	7.85
321.757	7.64
321.969	7.38
322.18	7.91
322.392	8.15
322.603	7.58
322.815	8
323.026	8.46
323.238	8.53
323.449	8.86
323.661	9.15
323.872	9.43
324.083	9.88
324.295	10.1
324.506	9.71
324.718	9.57
324.929	9.75
325.14	9.54
325.352	9.31
325.563	9.23
325.774	8.93
325.986	9.29
326.197	9.05
326.408	9.34
326.62	9.71
326.831	10.07
327.042	10.5
327.253	10.69
327.464	10.98
327.676	11.08
327.887	11.65
328.098	12.34
328.309	12.2
328.52	12.82
328.732	12.98
328.943	12.81
329.154	12.55
329.365	12.26
329.576	12.29
329.787	12.61
329.998	12.76
330.209	13.13
330.42	13.22
330.631	13.77
330.842	13.36
331.053	13.55
331.264	13.46
331.475	13.59
331.686	13.94
331.897	14.39
332.108	14.48
332.319	14.9
332.53	14.36
332.741	14.66
332.952	14.4
333.163	14.33
333.374	13.73
333.585	14.05
333.795	14.44
334.006	14.2
334.217	14.01
334.428	13.85
334.639	13.69
334.849	13.5
335.06	13.05
335.271	13.47
335.482	13.68
335.692	13.94
335.903	13.88
336.114	14.22
336.325	14.23
336.535	14.33
336.746	14.66
336.957	14.52
337.167	14.98
337.378	15.21
337.589	14.87
337.799	14.93
338.01	14.97
338.22	15
338.431	14.6
338.642	14.73
338.852	14.95
339.063	14.73
339.273	14.87
339.484	14.59
339.694	14.7
339.905	14.68
340.115	14.68
340.326	14.84
340.536	14.47
340.746	14.6
340.957	15.05
341.167	14.71
341.378	14.54
341.588	14.43
341.799	14.54
342.009	14.3
342.219	14.15
342.43	14.09
342.64	14.01
342.85	14.21
343.061	13.96
343.271	13.46
343.481	13.4
343.691	13.34
343.902	13.39
344.112	13.45
344.322	13.4
344.532	13.31
344.743	13.6
344.953	13.58
345.163	13.6
345.373	13.67
345.583	13.67
345.793	13.87
346.004	13.98
346.214	14.12
346.424	14.04
346.634	14.45
346.844	14.51
347.054	13.95
347.264	13.82
347.474	14.04
347.684	13.9
347.894	13.87
348.104	13.82
348.314	13.88
348.524	13.34
348.734	13.34
348.944	13
349.154	13.38
349.364	14
349.574	13.77
349.784	13.69
349.994	13.87
350.204	13.99
350.413	14.17
350.623	14.25
350.833	14.37
351.043	14.1
351.253	14.22
351.463	14.3
351.672	13.74
351.882	14.43
352.092	14.3
352.302	14.44
352.511	14.44
352.721	14.14
352.931	13.73
353.141	13.58
353.35	13.84
353.56	13.69
353.77	13.5
353.979	13.55
354.189	12.78
354.399	12.68
354.608	12.52
354.818	12.46
355.027	12.62
355.237	12.88
355.447	13.28
355.656	13.09
355.866	13.11
356.075	13.05
356.285	13.03
356.494	13.07
356.704	12.96
356.913	12.91
357.123	12.93
357.332	12.76
357.542	12.69
357.751	12.5
357.96	12.66
358.17	12.39
358.379	12.05
358.589	12.22
358.798	12.62
359.007	12.78
359.217	12.92
359.426	13.03
359.635	12.98
359.845	12.83
360.054	12.63
360.263	12.5
360.472	12.5
360.682	12.77
360.891	12.58
361.1	12.3
361.309	12.12
361.519	11.85
361.728	11.7
361.937	11.72
362.146	11.65
362.355	11.75
362.564	11.73
362.774	11.83
362.983	11.62
363.192	11.64
363.401	11.74
363.61	11.75
363.819	11.8
364.028	11.62
364.237	11.47
364.446	11.41
364.655	11.57
364.864	11.64
365.073	11.51
365.282	11.64
365.491	11.4
365.7	11.44
365.909	11.57
366.118	11.7
366.327	11.82
366.536	11.97
366.745	12.06
366.954	11.79
367.162	11.81
367.371	11.96
367.58	11.95
367.789	12.1
367.998	11.74
368.207	11.55
368.415	11.29
368.624	11.25
368.833	11.1
369.042	11.07
369.25	11.38
369.459	11.23
369.668	11.11
369.877	11.01
370.085	11.13
370.294	11.35
370.503	11.55
370.711	11.66
370.92	11.81
371.129	11.66
371.337	11.82
371.546	11.72
371.754	11.9
371.963	11.98
372.171	12.25
372.38	12.24
372.589	12.32
372.797	12.34
373.006	12.24
373.214	11.88
373.423	12.03
373.631	11.87
373.84	11.62
374.048	11.37
374.256	11.35
374.465	11.47
374.673	11.34
374.882	11.33
375.09	11.04
375.298	11.46
375.507	11.59
375.715	11.54
375.923	11.51
376.132	11.61
376.34	11.61
376.548	11.53
376.757	11.21
376.965	11.19
377.173	10.9
377.381	11.1
377.59	10.91
377.798	11
378.006	10.93
378.214	11.01
378.423	10.92
378.631	10.85
378.839	10.94
379.047	10.92
379.255	10.92
379.463	11.12
379.671	10.87
379.879	10.83
380.088	10.86
380.296	10.91
380.504	10.61
380.712	10.69
380.92	10.85
381.128	10.94
381.336	10.68
381.544	10.66
381.752	10.32
381.96	10.65
382.168	10.68
382.376	10.57
382.584	10.67
382.791	10.55
382.999	10.43
383.207	10.44
383.415	10.3
383.623	10.4
383.831	10.46
384.039	10.84
384.247	10.59
384.454	10.61
384.662	10.56
384.87	10.46
385.078	10.64
385.285	10.64
385.493	10.62
385.701	10.43
385.909	10.51
386.116	10.63
386.324	10.47
386.532	10.37
386.739	10.28
386.947	10.17
387.155	10.15
387.362	10.37
387.57	10.35
387.778	10.36
387.985	10.54
388.193	10.5
388.4	10.3
388.608	10.3
388.816	10.35
389.023	10.31
389.231	10.3
389.438	10.25
389.646	9.99
389.853	10.07
390.061	10.1
390.268	9.98
390.475	9.88
390.683	9.84
390.89	9.69
391.098	9.77
391.305	9.73
391.512	9.67
391.72	9.69
391.927	9.84
392.135	9.73
392.342	9.63
392.549	9.55
392.756	9.5
392.964	9.48
393.171	9.5
393.378	9.33
393.586	9.25
393.793	9.43
394	9.37
394.207	9.44
394.414	9.45
394.622	9.51
394.829	9.53
395.036	9.74
395.243	9.71
395.45	9.97
395.657	10.04
395.864	9.97
396.072	10
396.279	10.12
396.486	9.77
396.693	9.91
396.9	9.76
397.107	9.7
397.314	9.63
397.521	9.48
397.728	9.36
397.935	9.55
398.142	9.73
398.349	9.66
398.556	9.53
398.763	9.39
398.97	9.16
399.177	9.09
399.383	9
399.59	8.96
399.797	9.15
400.004	9.02
400.211	8.78
400.418	8.6
400.625	8.51
400.831	8.58
401.038	8.91
401.245	9.1
401.452	9.19
401.658	9.23
401.865	9.17
402.072	9.21
402.279	9.15
402.485	9.08
402.692	9.12
402.899	9.14
403.105	9.15
403.312	9.01
403.519	8.89
403.725	8.97
403.932	9
404.138	9.1
404.345	9.05
404.552	9.14
404.758	9.18
404.965	9.19
405.171	9.24
405.378	9.18
405.584	9.16
405.791	9.17
405.997	9.05
406.204	9.07
406.41	9.11
406.617	9.16
406.823	9.25
407.029	9.21
407.236	9.18
407.442	9.07
407.649	8.98
407.855	8.99
408.061	9.01
408.268	8.94
408.474	8.93
408.68	8.77
408.887	8.8
409.093	8.69
409.299	8.9
409.505	8.84
409.712	8.78
409.918	8.79
410.124	8.91
410.33	9.07
410.537	9.18
410.743	9.12
410.949	9.11
411.155	9
411.361	9.08
411.567	9.01
411.773	9.13
411.98	9.25
412.186	9.26
412.392	9.14
412.598	8.95
412.804	8.81
413.01	8.83
413.216	8.96
413.422	8.81
413.628	8.75
413.834	8.77
414.04	8.63
414.246	8.69
414.452	8.69
414.658	8.79
414.864	8.85
415.07	9.06
415.275	9.04
415.481	8.91
415.687	9.24
415.893	9.17
416.099	8.94
416.305	8.99
416.511	8.84
416.716	8.89
416.922	8.89
417.128	8.74
417.334	8.62
417.539	8.61
417.745	8.53
417.951	8.34
418.157	8.39
418.362	8.41
418.568	8.43
418.774	8.47
418.979	8.48
419.185	8.49
419.391	8.5
419.596	8.56
419.802	8.56
420.008	8.66
420.213	8.68
420.419	8.68
420.624	8.71
420.83	8.69
421.035	8.67
421.241	8.59
421.446	8.54
421.652	8.6
421.857	8.6
422.063	8.56
422.268	8.57
422.474	8.6
422.679	8.58
422.885	8.6
423.09	8.53
423.295	8.59
423.501	8.66
423.706	8.66
423.911	8.6
424.117	8.59
424.322	8.62
424.527	8.49
424.733	8.43
424.938	8.4
425.143	8.42
425.349	8.45
425.554	8.46
425.759	8.41
425.964	8.37
426.169	8.41
426.375	8.3
426.58	8.28
426.785	8.33
426.99	8.33
427.195	8.36
427.4	8.31
427.605	8.35
427.811	8.24
428.016	8.19
428.221	8.33
428.426	8.33
428.631	8.35
428.836	8.24
429.041	8.3
429.246	8.33
429.451	8.38
429.656	8.39
429.861	8.43
430.066	8.53
430.271	8.48
430.476	8.37
430.681	8.37
430.886	8.35
431.09	8.46
431.295	8.58
431.5	8.57
431.705	8.52
431.91	8.4
432.115	8.37
432.32	8.35
432.524	8.43
432.729	8.57
432.934	8.58
433.139	8.64
433.343	8.74
433.548	8.63
433.753	8.7
433.958	8.69
434.162	8.85
434.367	8.88
434.572	8.81
434.776	8.76
434.981	8.6
435.186	8.6
435.39	8.55
435.595	8.46
435.799	8.36
436.004	8.37
436.209	8.44
436.413	8.44
436.618	8.45
436.822	8.45
437.027	8.46
437.231	8.52
437.436	8.54
437.64	8.57
437.845	8.6
438.049	8.77
438.253	8.67
438.458	8.63
438.662	8.55
438.867	8.58
439.071	8.55
439.275	8.58
439.48	8.53
439.684	8.5
439.888	8.48
440.093	8.47
440.297	8.37
440.501	8.39
440.706	8.39
440.91	8.37
441.114	8.35
441.318	8.39
441.523	8.37
441.727	8.42
441.931	8.39
442.135	8.36
442.339	8.39
442.543	8.41
442.748	8.37
442.952	8.29
443.156	8.34
443.36	8.37
443.564	8.35
443.768	8.47
443.972	8.33
444.176	8.33
444.38	8.38
444.584	8.33
444.788	8.39
444.992	8.43
445.196	8.5
445.4	8.58
445.604	8.55
445.808	8.54
446.012	8.43
446.216	8.61
446.42	8.6
446.624	8.54
446.828	8.55
447.032	8.44
447.235	8.43
447.439	8.41
447.643	8.34
447.847	8.3
448.051	8.26
448.254	8.33
448.458	8.25
448.662	8.3
448.866	8.35
449.069	8.36
449.273	8.45
449.477	8.49
449.681	8.41
449.884	8.27
450.088	8.33
450.292	8.43
450.495	8.44
450.699	8.43
450.902	8.41
451.106	8.35
451.31	8.47
451.513	8.44
451.717	8.37
451.92	8.42
452.124	8.51
452.327	8.43
452.531	8.46
452.734	8.43
452.938	8.48
453.141	8.5
453.345	8.46
453.548	8.26
453.752	8.22
453.955	8.18
454.158	8.19
454.362	8.28
454.565	8.39
454.769	8.33
454.972	8.34
455.175	8.3
455.379	8.21
455.582	8.36
455.785	8.48
455.988	8.54
456.192	8.59
456.395	8.56
456.598	8.56
456.801	8.44
457.005	8.56
457.208	8.49
457.411	8.48
457.614	8.43
457.817	8.36
458.021	8.21
458.224	8.23
458.427	8.18
458.63	8.16
458.833	8.14
459.036	8.14
459.239	8.08
459.442	8.08
459.645	8.1
459.848	8.01
460.051	8
460.254	8.08
460.457	8.04
460.66	8.1
460.863	8.13
461.066	8.12
461.269	8.17
461.472	8.14
461.675	8.17
461.878	8.16
462.081	8.34
462.284	8.39
462.486	8.4
462.689	8.54
462.892	8.52
463.095	8.47
463.298	8.51
463.5	8.44
463.703	8.42
463.906	8.48
464.109	8.44
464.311	8.44
464.514	8.52
464.717	8.47
464.92	8.41
465.122	8.4
465.325	8.45
465.528	8.45
465.73	8.52
465.933	8.61
466.135	8.61
466.338	8.72
466.541	8.76
466.743	8.59
466.946	8.59
467.148	8.57
467.351	8.56
467.553	8.72
467.756	8.64
467.958	8.59
468.161	8.57
468.363	8.52
468.566	8.42
468.768	8.34
468.971	8.35
469.173	8.4
469.375	8.52
469.578	8.57
469.78	8.44
469.983	8.47
470.185	8.49
470.387	8.46
470.59	8.46
470.792	8.57
470.994	8.6
471.196	8.68
471.399	8.79
471.601	8.69
471.803	8.72
472.005	8.76
472.208	8.83
472.41	8.87
472.612	8.98
472.814	8.96
473.016	8.89
473.218	8.9
473.421	8.83
473.623	8.64
473.825	8.62
474.027	8.65
474.229	8.53
474.431	8.52
474.633	8.52
474.835	8.33
475.037	8.41
475.239	8.44
475.441	8.47
475.643	8.52
475.845	8.55
476.047	8.51
476.249	8.48
476.451	8.66
476.653	8.68
476.855	8.58
477.057	8.66
477.258	8.62
477.46	8.55
477.662	8.59
477.864	8.61
478.066	8.58
478.268	8.6
478.469	8.57
478.671	8.38
478.873	8.39
479.075	8.37
479.276	8.43
479.478	8.46
479.68	8.51
479.882	8.44
480.083	8.45
480.285	8.55
480.487	8.62
480.688	8.6
480.89	8.77
481.091	8.64
481.293	8.69
481.495	8.56
481.696	8.52
481.898	8.52
482.099	8.48
482.301	8.46
482.502	8.41
482.704	8.35
482.905	8.31
483.107	8.25
483.308	8.25
483.51	8.24
483.711	8.26
483.913	8.25
484.114	8.19
484.315	8.19
484.517	8.17
484.718	8.14
484.92	8.17
485.121	8.19
485.322	8.24
485.524	8.26
485.725	8.21
485.926	8.23
486.127	8.25
486.329	8.28
486.53	8.3
486.731	8.33
486.932	8.36
487.134	8.34
487.335	8.35
487.536	8.31
487.737	8.27
487.938	8.26
488.139	8.26
488.341	8.26
488.542	8.26
488.743	8.27
488.944	8.26
489.145	8.31
489.346	8.35
489.547	8.37
489.748	8.4
489.949	8.42
490.15	8.51
490.351	8.47
490.552	8.46
490.753	8.52
490.954	8.47
491.155	8.47
491.356	8.39
491.557	8.38
491.758	8.34
491.959	8.3
492.159	8.37
492.36	8.36
492.561	8.39
492.762	8.41
492.963	8.38
493.164	8.45
493.364	8.42
493.565	8.48
493.766	8.43
493.967	8.46
494.167	8.45
494.368	8.44
494.569	8.54
494.769	8.58
494.97	8.62
495.171	8.67
495.371	8.63
495.572	8.72
495.773	8.76
495.973	8.76
496.174	8.77
496.375	8.86
496.575	8.88
496.776	8.81
496.976	8.71
497.177	8.61
497.377	8.65
497.578	8.68
497.778	8.7
497.979	8.68
498.179	8.74
498.38	8.79
498.58	8.85
498.78	8.82
498.981	8.91
499.181	8.99
499.382	9.11
499.582	9.01
499.782	9.03
499.983	9.03
500.183	9.08
500.383	9.02
500.584	9.05
500.784	8.92
500.984	8.95
501.184	8.99
501.385	9.05
501.585	9.05
501.785	9.13
501.985	9.18
502.185	9.23
502.386	9.41
502.586	9.48
502.786	9.44
502.986	9.49
503.186	9.48
503.386	9.42
503.586	9.44
503.786	9.46
503.987	9.5
504.187	9.46
504.387	9.41
504.587	9.24
504.787	9.32
504.987	9.4
505.187	9.5
505.387	9.54
505.587	9.56
505.786	9.54
505.986	9.56
506.186	9.56
506.386	9.61
506.586	9.68
506.786	9.74
506.986	9.85
507.186	9.85
507.386	9.78
507.585	9.76
507.785	9.79
507.985	9.81
508.185	9.9
508.384	9.95
508.584	9.93
508.784	9.93
508.984	9.97
509.183	9.86
509.383	9.93
509.583	10.05
509.782	10.04
509.982	10.09
510.182	10.18
510.381	10.19
510.581	10.17
510.781	10.17
510.98	10.17
511.18	10.16
511.379	10.23
511.579	10.21
511.778	10.21
511.978	10.26
512.177	10.22
512.377	10.24
512.576	10.24
512.776	10.32
512.975	10.43
513.175	10.53
513.374	10.5
513.573	10.53
513.773	10.62
513.972	10.69
514.172	10.73
514.371	10.84
514.57	10.79
514.77	10.74
514.969	10.76
515.168	10.82
515.367	10.8
515.567	10.94
515.766	10.92
515.965	10.87
516.164	10.82
516.364	10.84
516.563	10.83
516.762	10.88
516.961	10.94
517.16	10.91
517.359	10.91
517.559	10.97
517.758	10.98
517.957	11.05
518.156	11.09
518.355	11.12
518.554	11.19
518.753	11.25
518.952	11.3
519.151	11.33
519.35	11.38
519.549	11.47
519.748	11.49
519.947	11.51
520.146	11.53
520.345	11.54
520.544	11.64
520.743	11.67
520.942	11.82
521.141	11.85
521.339	11.93
521.538	11.93
521.737	11.99
521.936	11.99
522.135	12.05
522.333	12.09
522.532	12.11
522.731	12.07
522.93	12.11
523.129	12.02
523.327	12.01
523.526	12
523.725	12.08
523.923	12.04
524.122	12.06
524.321	12.08
524.519	12.1
524.718	12.12
524.917	12.14
525.115	12.12
525.314	12.15
525.512	12.2
525.711	12.26
525.909	12.26
526.108	12.27
526.306	12.24
526.505	12.28
526.703	12.25
526.902	12.22
527.1	12.18
527.299	12.24
527.497	12.21
527.696	12.19
527.894	12.16
528.092	12.15
528.291	12.18
528.489	12.21
528.688	12.22
528.886	12.26
529.084	12.3
529.283	12.36
529.481	12.35
529.679	12.38
529.877	12.42
530.076	12.48
530.274	12.56
530.472	12.59
530.67	12.62
530.869	12.65
531.067	12.68
531.265	12.7
531.463	12.73
531.661	12.77
531.859	12.79
532.057	12.79
532.255	12.76
532.454	12.77
532.652	12.74
532.85	12.72
533.048	12.75
533.246	12.74
533.444	12.75
533.642	12.78
533.84	12.76
534.038	12.79
534.236	12.85
534.434	12.89
534.632	12.89
534.83	12.91
535.027	12.95
535.225	12.95
535.423	13.06
535.621	13.12
535.819	13.18
536.017	13.24
536.215	13.24
536.412	13.29
536.61	13.33
536.808	13.34
537.006	13.43
537.203	13.48
537.401	13.47
537.599	13.45
537.797	13.43
537.994	13.41
538.192	13.46
538.39	13.51
538.587	13.54
538.785	13.59
538.983	13.66
539.18	13.67
539.378	13.69
539.575	13.77
539.773	13.79
539.97	13.86
540.168	13.91
540.366	13.86
540.563	13.88
540.761	13.87
540.958	13.84
541.155	13.84
541.353	13.85
541.55	13.9
541.748	13.92
541.945	13.92
542.143	13.92
542.34	13.9
542.537	13.99
542.735	14.02
542.932	14.02
543.129	14.11
543.327	14.16
543.524	14.17
543.721	14.2
543.919	14.21
544.116	14.28
544.313	14.33
544.51	14.42
544.708	14.47
544.905	14.46
545.102	14.61
545.299	14.55
545.496	14.59
545.693	14.7
545.891	14.69
546.088	14.71
546.285	14.74
546.482	14.75
546.679	14.73
546.876	14.68
547.073	14.69
547.27	14.6
547.467	14.62
547.664	14.63
547.861	14.54
548.058	14.57
548.255	14.65
548.452	14.65
548.649	14.64
548.846	14.63
549.043	14.67
549.24	14.67
549.437	14.74
549.633	14.71
549.83	14.73
550.027	14.8
550.224	14.93
550.421	14.87
550.618	14.78
550.814	14.91
551.011	14.95
551.208	14.97
551.405	14.98
551.601	14.98
551.798	15.03
551.995	15.06
552.191	15.03
552.388	14.95
552.585	15.1
552.781	15.15
552.978	15.19
553.175	15.21
553.371	15.15
553.568	15.15
553.764	15.16
553.961	15.31
554.157	15.27
554.354	15.43
554.55	15.46
554.747	15.42
554.943	15.47
555.14	15.37
555.336	15.37
555.533	15.54
555.729	15.67
555.926	15.64
556.122	15.66
556.318	15.76
556.515	15.63
556.711	15.53
556.907	15.44
557.104	15.45
557.3	15.51
557.496	15.48
557.693	15.46
557.889	15.48
558.085	15.55
558.281	15.44
558.478	15.49
558.674	15.74
558.87	15.89
559.066	16.09
559.262	16.17
559.459	16.17
559.655	16.15
559.851	16.11
560.047	16.12
560.243	16.06
560.439	16.04
560.635	16.05
560.831	15.94
561.027	15.96
561.223	15.8
561.419	15.72
561.615	15.72
561.811	15.83
562.007	15.83
562.203	15.82
562.399	15.91
562.595	16.11
562.791	16.11
562.987	16.1
563.183	16.12
563.379	16.26
563.575	16.34
563.771	16.42
563.966	16.42
564.162	16.5
564.358	16.58
564.554	16.54
564.75	16.35
564.945	16.31
565.141	16.31
565.337	16.25
565.533	16.24
565.728	16.31
565.924	16.32
566.12	16.33
566.315	16.33
566.511	16.43
566.707	16.48
566.902	16.62
567.098	16.62
567.293	16.59
567.489	16.71
567.684	16.69
567.88	16.65
568.076	16.63
568.271	16.67
568.467	16.63
568.662	16.58
568.858	16.49
569.053	16.41
569.248	16.41
569.444	16.42
569.639	16.37
569.835	16.41
570.03	16.5
570.225	16.46
570.421	16.36
570.616	16.35
570.812	16.31
571.007	16.39
571.202	16.53
571.397	16.52
571.593	16.56
571.788	16.57
571.983	16.53
572.178	16.45
572.374	16.57
572.569	16.66
572.764	16.77
572.959	16.72
573.154	16.64
573.35	16.61
573.545	16.62
573.74	16.65
573.935	16.67
574.13	16.65
574.325	16.66
574.52	16.67
574.715	16.62
574.91	16.56
575.105	16.61
575.3	16.73
575.495	16.62
575.69	16.63
575.885	16.65
576.08	16.74
576.275	16.76
576.47	16.77
576.665	16.82
576.86	16.93
577.055	16.92
577.25	16.95
577.444	17.03
577.639	17.21
577.834	17.28
578.029	17.39
578.224	17.36
578.418	17.43
578.613	17.58
578.808	17.33
579.003	17.34
579.197	17.43
579.392	17.55
579.587	17.52
579.781	17.46
579.976	17.45
580.171	17.32
580.365	17.38
580.56	17.47
580.755	17.39
580.949	17.56
581.144	17.65
581.338	17.75
581.533	17.75
581.727	17.84
581.922	17.94
582.116	18
582.311	18.05
582.505	18.04
582.7	17.99
582.894	18.02
583.089	18.05
583.283	18.08
583.478	18.11
583.672	18.03
583.866	17.99
584.061	18.02
584.255	18.03
584.449	18.04
584.644	17.95
584.838	18.05
585.032	18.1
585.226	18.11
585.421	18.05
585.615	17.95
585.809	18.03
586.003	18.04
586.198	17.96
586.392	17.99
586.586	18.05
586.78	18.14
586.974	18.1
587.168	18
587.363	17.87
587.557	17.97
587.751	17.89
587.945	17.82
588.139	17.92
588.333	17.95
588.527	17.93
588.721	17.83
588.915	17.75
589.109	17.72
589.303	17.71
589.497	17.84
589.691	17.75
589.885	17.81
590.079	17.84
590.273	17.74
590.466	17.73
590.66	17.76
590.854	17.68
591.048	17.83
591.242	17.82
591.436	17.98
591.629	18.08
591.823	18.15
592.017	18.23
592.211	18.27
592.404	18.33
592.598	18.3
592.792	18.27
592.986	18.38
593.179	18.36
593.373	18.53
593.567	18.47
593.76	18.46
593.954	18.42
594.147	18.51
594.341	18.53
594.535	18.57
594.728	18.69
594.922	18.83
595.115	18.83
595.309	18.83
595.502	18.59
595.696	18.59
595.889	18.62
596.083	18.62
596.276	18.51
596.47	18.47
596.663	18.37
596.856	18.25
597.05	18.24
597.243	18.31
597.437	18.3
597.63	18.41
597.823	18.44
598.017	18.41
598.21	18.47
598.403	18.55
598.596	18.55
598.79	18.68
598.983	18.86
599.176	18.82
599.369	18.88
599.563	18.82
599.756	18.92
599.949	18.95
600.142	18.81
600.335	18.81
600.528	18.82
600.722	18.97
600.915	18.85
601.108	18.74
601.301	18.71
601.494	18.62
601.687	18.82
601.88	18.89
602.073	18.94
602.266	19.13
602.459	19.05
602.652	18.94
602.845	18.95
603.038	18.98
603.231	19.02
603.424	19.03
603.617	19.04
603.809	19
604.002	18.93
604.195	18.97
604.388	18.94
604.581	18.96
604.774	19.03
604.966	18.95
605.159	19.05
605.352	19.09
605.545	19.18
605.737	19.22
605.93	19.3
606.123	19.29
606.316	19.12
606.508	19.06
606.701	19.07
606.894	19.24
607.086	19.34
607.279	19.41
607.471	19.4
607.664	19.48
607.857	19.58
608.049	19.47
608.242	19.57
608.434	19.87
608.627	20.13
608.819	20.24
609.012	20.39
609.204	20.6
609.397	20.76
609.589	21.04
609.782	21.4
609.974	21.58
610.166	21.97
610.359	22.24
610.551	22.37
610.743	22.45
610.936	22.87
611.128	22.98
611.32	23.14
611.513	23.28
611.705	23.31
611.897	23.16
612.09	23.1
612.282	23.01
612.474	22.83
612.666	22.83
612.858	22.92
613.051	22.59
613.243	22.38
613.435	22.12
613.627	21.9
613.819	21.73
614.011	21.52
614.203	21.43
614.395	21.25
614.588	21.21
614.78	21.18
614.972	21
615.164	21.06
615.356	21.01
615.548	21.04
615.74	21.12
615.932	21.26
616.124	21.15
616.315	21.07
616.507	21.09
616.699	21.11
616.891	20.87
617.083	20.74
617.275	20.73
617.467	20.79
617.659	20.85
617.85	20.66
618.042	20.43
618.234	20.61
618.426	20.8
618.618	20.76
618.809	20.92
619.001	21.08
619.193	21.17
619.384	21.03
619.576	20.73
619.768	20.65
619.959	20.71
620.151	20.59
620.343	20.5
620.534	20.39
620.726	20.27
620.917	20.01
621.109	20.12
621.301	20.22
621.492	20.18
621.684	20.31
621.875	20.15
622.067	20.02
622.258	20.21
622.45	20.18
622.641	20.11
622.832	20.5
623.024	20.64
623.215	20.36
623.407	20.21
623.598	20.31
623.789	20.5
623.981	20.76
624.172	20.85
624.363	20.83
624.555	20.7
624.746	20.66
624.937	20.48
625.129	20.5
625.32	20.59
625.511	20.59
625.702	20.65
625.893	20.68
626.085	20.34
626.276	20.44
626.467	20.36
626.658	20.48
626.849	20.55
627.04	20.4
627.231	20.33
627.422	20.24
627.614	20.28
627.805	20.31
627.996	20.33
628.187	20.67
628.378	20.61
628.569	20.78
628.76	20.81
628.951	20.96
629.142	21.16
629.332	21.33
629.523	21.42
629.714	21.41
629.905	21.29
630.096	21.17
630.287	21.17
630.478	21.06
630.669	20.96
630.859	20.98
631.05	20.88
631.241	20.96
631.432	20.77
631.623	20.76
631.813	20.92
632.004	20.8
632.195	20.81
632.385	20.63
632.576	20.65
632.767	20.61
632.957	20.42
633.148	20.45
633.339	20.22
633.529	20.15
633.72	20.11
633.91	19.9
634.101	19.86
634.292	19.82
634.482	19.85
634.673	19.88
634.863	19.91
635.054	20.06
635.244	19.93
635.435	20.02
635.625	20.12
635.815	20.24
636.006	20.33
636.196	20.54
636.387	20.51
636.577	20.51
636.767	20.52
636.958	20.55
637.148	20.48
637.338	20.65
637.529	20.72
637.719	20.61
637.909	20.64
638.099	20.64
638.29	20.86
638.48	20.89
638.67	20.89
638.86	20.92
639.05	20.84
639.241	20.88
639.431	20.76
639.621	20.76
639.811	20.94
640.001	21.02
640.191	21.17
640.381	21.07
640.571	21.05
640.761	21.08
640.951	20.85
641.141	21
641.331	21.23
641.521	21.41
641.711	21.32
641.901	21.29
642.091	21.39
642.281	21.25
642.471	21.2
642.661	21.18
642.851	21.23
643.041	21.68
643.231	21.74
643.42	21.66
643.61	21.27
643.8	21.19
643.99	21.21
644.18	21.17
644.369	21.11
644.559	21.13
644.749	21.34
644.939	21.32
645.128	21.19
645.318	21.01
645.508	21.01
645.697	21.45
645.887	21.41
646.076	21.45
646.266	21.17
646.456	21.27
646.645	21.4
646.835	21.43
647.024	21.43
647.214	21.33
647.403	21.41
647.593	21.36
647.782	21.38
647.972	21.71
648.161	21.62
648.351	21.73
648.54	21.8
648.73	21.75
648.919	21.74
649.108	21.61
649.298	21.66
649.487	21.71
649.677	21.68
649.866	21.5
650.055	21.44
650.244	21.69
650.434	21.86
650.623	21.71
650.812	21.62
651.002	21.43
651.191	21.63
651.38	21.8
651.569	21.73
651.758	21.86
651.947	21.86
652.137	21.54
652.326	21.32
652.515	21.13
652.704	21.27
652.893	21.35
653.082	21.53
653.271	21.48
653.46	21.25
653.649	21.44
653.838	21.54
654.027	21.49
654.216	21.5
654.405	21.58
654.594	21.67
654.783	21.43
654.972	21.12
655.161	20.99
655.35	21.04
655.539	21.13
655.728	20.92
655.916	20.77
656.105	20.62
656.294	20.93
656.483	20.95
656.672	20.83
656.86	20.94
657.049	20.98
657.238	21.04
657.427	21.07
657.615	21.06
657.804	21.02
657.993	20.86
658.181	20.9
658.37	20.85
658.559	20.67
658.747	20.66
658.936	20.73
659.125	21.01
659.313	21.22
659.502	21.23
659.69	21.19
659.879	21.28
660.067	21.27
660.256	21.39
660.444	21.39
660.633	21.49
660.821	21.66
661.01	21.67
661.198	21.6
661.387	21.58
661.575	21.52
661.763	21.57
661.952	21.67
662.14	21.94
662.328	21.9
662.517	21.97
662.705	22.02
662.893	21.9
663.082	21.78
663.27	21.69
663.458	21.53
663.646	21.66
663.834	21.75
664.023	21.71
664.211	21.56
664.399	21.65
664.587	21.6
664.775	21.76
664.963	21.67
665.152	21.77
665.34	21.98
665.528	21.88
665.716	21.99
665.904	22.13
666.092	22.11
666.28	22.1
666.468	22.11
666.656	22.11
666.844	22.2
667.032	22.38
667.22	22.45
667.408	22.39
667.596	22.39
667.784	22.16
667.971	22.14
668.159	21.97
668.347	22.07
668.535	22.11
668.723	21.99
668.911	21.82
669.098	21.56
669.286	21.54
669.474	21.42
669.662	21.43
669.849	21.66
670.037	21.64
670.225	21.74
670.413	21.67
670.6	21.72
670.788	21.85
670.976	21.6
671.163	21.98
671.351	21.95
671.538	22.01
671.726	22.06
671.913	21.86
672.101	21.85
672.289	21.85
672.476	21.98
672.664	21.97
672.851	21.77
673.039	22.17
673.226	22.06
673.413	22.1
673.601	22.11
673.788	22.09
673.976	22.34
674.163	22.38
674.35	22.61
674.538	22.48
674.725	22.47
674.912	22.73
675.1	22.73
675.287	22.84
675.474	23.13
675.662	22.97
675.849	23
676.036	22.89
676.223	22.85
676.411	22.65
676.598	22.72
676.785	22.87
676.972	22.73
677.159	22.75
677.346	22.58
677.533	22.42
677.721	22.55
677.908	22.64
678.095	22.52
678.282	22.56
678.469	22.34
678.656	22.36
678.843	22.3
679.03	22.57
679.217	22.35
679.404	22.58
679.591	22.5
679.778	22.63
679.964	22.35
680.151	22.36
680.338	22.15
680.525	22.29
680.712	22.28
680.899	22.38
681.086	22.24
681.272	22.31
681.459	22.15
681.646	22.12
681.833	22.02
682.02	22.13
682.206	22.18
682.393	22.42
682.58	22.26
682.766	22.13
682.953	21.93
683.14	21.93
683.326	22.05
683.513	22.21
683.7	22.33
683.886	22.56
684.073	22.92
684.259	22.98
684.446	23.06
684.632	23.48
684.819	23.42
685.005	23.56
685.192	23.5
685.378	23.21
685.565	23.45
685.751	23.47
685.938	23.21
686.124	23.14
686.31	22.69
686.497	22.6
686.683	22.6
686.87	23.02
687.056	23.08
687.242	22.91
687.429	23.2
687.615	22.69
687.801	22.58
687.987	22.63
688.174	22.83
688.36	23.25
688.546	23.19
688.732	23.24
688.918	23.1
689.105	22.96
689.291	23.22
689.477	23.12
689.663	23.24
689.849	23.55
690.035	23.6
690.221	23.55
690.407	23.52
690.593	23.61
690.779	23.4
690.965	23.16
691.151	23.29
691.337	23.43
691.523	23.45
691.709	23.71
691.895	23.54
692.081	23
692.267	22.75
692.453	22.94
692.639	22.71
692.825	22.75
693.011	22.63
693.196	22.63
693.382	22.4
693.568	22.48
693.754	22.35
693.94	22.42
694.125	22.82
694.311	22.79
694.497	22.36
694.682	22.32
694.868	22.38
695.054	22.83
695.239	22.82
695.425	22.95
695.611	22.86
695.796	22.74
695.982	22.64
696.168	22.69
696.353	22.71
696.539	22.82
696.724	22.93
696.91	22.83
697.095	22.53
697.281	22.64
697.466	22.83
697.652	22.82
697.837	22.81
698.023	22.68
698.208	22.64
698.393	22.55
698.579	22.7
698.764	22.85
698.949	22.64
699.135	22.71
699.32	22.5
699.505	22.21
699.691	22.33
699.876	22.26
700.061	22.31
700.246	22.29
700.432	22.4
700.617	22.27
700.802	22.36
700.987	23.05
701.172	22.57
701.358	22.68
701.543	22.71
701.728	22.76
701.913	22.96
702.098	23.05
702.283	23.22
702.468	23.08
702.653	23.05
702.838	23.15
703.023	22.67
703.208	23.01
703.393	22.94
703.578	22.97
703.763	22.79
703.948	22.83
704.133	22.92
704.318	22.89
704.503	23.27
704.688	23.63
704.873	23.52
705.057	23.69
705.242	24.53
705.427	24.98
705.612	25.02
705.797	25.47
705.981	25.43
706.166	25.45
706.351	25.89
706.536	25.89
706.72	25.82
706.905	25.57
707.09	25.4
707.274	24.93
707.459	24.7
707.644	24.92
707.828	24.65
708.013	24.55
708.197	24.34
708.382	24.02
708.567	23.7
708.751	23.49
708.936	23.65
709.12	23.97
709.305	24.1
709.489	23.88
709.673	23.77
709.858	23.54
710.042	23.39
710.227	23.94
710.411	23.97
710.596	24.08
710.78	24.33
710.964	24.44
711.149	24.55
711.333	24.59
711.517	24.68
711.702	24.78
711.886	24.91
712.07	25.42
712.254	25.29
712.438	25.24
712.623	25.29
712.807	25.09
712.991	25.13
713.175	24.84
713.359	25.05
713.544	25.16
713.728	25
713.912	25.01
714.096	24.8
714.28	24.5
714.464	24.53
714.648	24.17
714.832	24.11
715.016	23.62
715.2	23.45
715.384	23.11
715.568	22.94
715.752	22.93
715.936	23.04
716.12	22.89
716.304	22.94
716.488	23
716.671	23.27
716.855	23.24
717.039	23.24
717.223	23.64
717.407	23.79
717.59	23.84
717.774	23.97
717.958	23.57
718.142	23.52
718.325	23.31
718.509	23.12
718.693	22.98
718.877	22.97
719.06	23.29
719.244	23.05
719.428	23.13
719.611	23.27
719.795	23.36
719.978	23.15
720.162	23.37
720.345	23.63
720.529	23.48
720.713	23.56
720.896	23.86
721.08	23.79
721.263	23.72
721.446	23.19
721.63	23.13
721.813	23.26
721.997	23.9
722.18	23.65
722.364	23.67
722.547	23.86
722.73	24.07
722.914	24.39
723.097	24.71
723.28	24.97
723.464	25.08
723.647	25.13
723.83	24.44
724.013	24.73
724.197	24.96
724.38	25.12
724.563	25.3
724.746	25.51
724.929	25
725.112	24.91
725.296	24.64
725.479	24.63
725.662	24.32
725.845	24.47
726.028	23.97
726.211	23.92
726.394	23.48
726.577	23.12
726.76	22.42
726.943	22.63
727.126	22.52
727.309	22.58
727.492	22.84
727.675	23.19
727.858	23.09
728.041	23.39
728.224	23.67
728.407	24.02
728.589	24.46
728.772	24.62
728.955	24.64
729.138	24.13
729.321	23.88
729.503	24.1
729.686	23.95
729.869	24.58
730.052	24.22
730.234	24.16
730.417	23.84
730.6	23.28
730.782	23.09
730.965	22.6
731.148	23.07
731.33	23.31
731.513	23.04
731.695	23.46
731.878	23.26
732.061	23.67
732.243	23.92
732.426	24.09
732.608	24.48
732.791	25.35
732.973	26.15
733.156	25.9
733.338	25.53
733.52	25.85
733.703	25.41
733.885	25.6
734.068	25.53
734.25	25.29
734.432	25.76
734.615	25.78
734.797	25.1
734.979	24.8
735.162	24.93
735.344	25.67
735.526	25.58
735.708	25.66
735.891	25.27
736.073	24.88
736.255	24.91
736.437	24.53
736.619	24.37
736.802	24.95
736.984	24.92
737.166	25.32
737.348	25.26
737.53	25
737.712	25.04
737.894	25.46
738.076	25.89
738.258	25.57
738.44	25.8
738.622	25.86
738.804	26.07
738.986	25.79
739.168	25.45
739.35	25.28
739.532	25.81
739.714	25.83
739.896	25.81
740.078	25.33
740.259	25.18
740.441	24.82
740.623	24.98
740.805	24.33
740.987	24.57
741.168	24.55
741.35	24.53
741.532	23.98
741.714	24.43
741.895	24.26
742.077	25.51
742.259	25.73
742.44	26.02
742.622	25.95
742.804	25.63
742.985	25.83
743.167	26.13
743.348	25.84
743.53	25.96
743.711	26.1
743.893	26.45
744.075	25.95
744.256	26.29
744.438	25.96
744.619	26.02
744.8	26.98
744.982	26.73
745.163	26.52
745.345	27.06
745.526	27.47
745.707	27
745.889	27
746.07	27.21
746.252	27.19
746.433	27.52
746.614	27.94
746.795	27.97
746.977	28.24
747.158	28.33
747.339	28.37
747.52	28.2
747.702	28.16
747.883	28.17
748.064	27.88
748.245	27.91
748.426	27.46
748.607	26.95
748.788	26.3
748.97	25.89
749.151	25.59
749.332	25.51
749.513	25.53
749.694	25.58
749.875	25.12
750.056	24.78
750.237	24.89
750.418	25.61
750.599	25.44
750.78	25.11
750.96	25.2
751.141	26.02
751.322	26.11
751.503	25.82
751.684	25.49
751.865	26.22
752.046	25.95
752.226	25.71
752.407	25.25
752.588	25.62
752.769	26.38
752.949	26.17
753.13	26.13
753.311	25.61
753.492	25.74
753.672	25.7
753.853	24.65
754.034	25.11
754.214	25.94
754.395	26.18
754.575	25.71
754.756	25.45
754.937	25.5
755.117	25.16
755.298	25.6
755.478	26.04
755.659	26.62
755.839	27.51
756.02	27.33
756.2	26.5
756.381	26.12
756.561	26.29
756.741	26.22
756.922	26.29
757.102	26.28
757.283	26.74
757.463	26.26
757.643	25.88
757.823	25.27
758.004	25.16
758.184	24.86
758.364	24.57
758.545	24.82
758.725	24.66
758.905	24.56
759.085	23.7
759.265	22.87
759.446	22.21
759.626	22.54
759.806	22.58
759.986	22.33
760.166	23.06
760.346	23.19
760.526	22.78
760.706	22.66
760.886	23.08
761.066	23.71
761.246	23.66
761.426	23.62
761.606	23.41
761.786	23.09
761.966	23.24
762.146	22.63
762.326	22.91
762.506	22.97
762.686	22.88
762.866	22.93
763.046	22.61
763.225	22.73
763.405	22.85
763.585	22.76
763.765	23.11
763.945	23.12
764.124	23.49
764.304	22.91
764.484	23.22
764.664	23.29
764.843	23.47
765.023	23.97
765.203	24.08
765.382	24.54
765.562	24.69
765.741	24.6
765.921	24.97
766.101	24.56
766.28	24.64
766.46	24.36
766.639	25.22
766.819	24.65
766.998	24.65
767.178	24.69
767.357	24.48
767.537	24.5
767.716	25.06
767.896	25.23
768.075	25.05
768.254	26.02
768.434	26.29
768.613	25.95
768.792	25.68
768.972	25.57
769.151	25.4
769.33	25.62
769.51	26.13
769.689	25.32
769.868	25.15
770.047	25.1
770.226	24.76
770.406	24.41
770.585	23.73
770.764	23.88
770.943	23.33
771.122	23.5
771.301	23.38
771.48	23.49
771.66	23.46
771.839	23.3
772.018	24.24
772.197	24.4
772.376	25.27
772.555	26.2
772.734	26.67
772.913	26.82
773.092	27.52
773.271	26.6
773.449	26.35
773.628	27.28
773.807	27.49
773.986	27.42
774.165	28.24
774.344	28.19
774.523	27.68
774.701	27.33
774.88	27.74
775.059	26.91
775.238	28.69
775.417	28.76
775.595	28.33
775.774	28
775.953	26.87
776.131	25.94
776.31	25.51
776.489	25.49
776.667	26.27
776.846	26.46
777.025	27.37
777.203	26.68
777.382	26.83
777.56	26.36
777.739	26.62
777.917	28.65
778.096	28.84
778.274	28.54
778.453	28.08
778.631	27.59
778.81	26.85
778.988	26.38
779.166	25.91
779.345	26.02
779.523	26.65
779.702	25.9
779.88	25.04
780.058	24.82
780.237	24.65
780.415	25.44
780.593	25.5
780.771	25.57
780.95	25.93
781.128	26.33
781.306	26.79
781.484	26.89
781.662	27.99
781.841	27.15
782.019	27.15
782.197	27.3
782.375	27.54
782.553	27.5
782.731	27.65
782.909	27.45
783.087	27.32
783.265	26.54
783.443	26.18
783.621	25.54
783.799	27.12
783.977	26.85
784.155	26.37
784.333	26.23
784.511	25.56
784.689	26.35
784.867	26.44
785.045	27.05
785.223	26.46
785.4	26.07
785.578	26.92
785.756	25.84
785.934	25.96
786.112	26.09
786.289	26.65
786.467	27.73
786.645	27.42
786.823	27.16
787	26.83
787.178	27.39
787.356	27.52
787.533	26.92
787.711	27.06
787.889	27.25
788.066	26.67
788.244	24.91
788.421	24.76
788.599	25.5
788.776	25.56
788.954	26.06
789.131	25.45
789.309	25.05
789.486	24.84
789.664	24.55
789.841	24.36
790.019	24.54
790.196	25.98
790.373	26.38
790.551	25.97
790.728	26.21
790.906	26.38
791.083	26.34
791.26	26.34
791.437	25.33
791.615	25.78
791.792	26.37
791.969	27.95
792.146	27.33
792.324	26.57
792.501	25.83
792.678	26.14
792.855	24.64
793.032	25.26
793.209	25.79
793.387	26.74
793.564	26.98
793.741	26.61
793.918	25.16
794.095	24.94
794.272	25.44
794.449	24.95
794.626	24.74
794.803	26.4
794.98	27.15
795.157	26.82
795.334	26.55
795.511	25.86
795.688	26.48
795.864	27.58
796.041	28.59
796.218	28.66
796.395	28.82
796.572	28.72
796.749	27.71
796.925	26.92
797.102	27.12
797.279	26.81
797.456	26.67
797.632	25.81
797.809	24.74
797.986	24.3
798.162	23.29
798.339	23.96
798.516	23.03
798.692	23.17
798.869	22.92
799.046	22.16
799.222	23.15
799.399	23.33
799.575	23.43
799.752	24.86
799.928	24.81
800.105	24.78
800.281	25.32
800.458	25.18
800.634	25.68
800.811	25.03
800.987	26.2
801.163	25.83
801.34	25.65
801.516	25.58
801.692	24.45
801.869	25.34
802.045	26.28
802.221	26.04
802.398	26.44
802.574	25.57
802.75	26.96
802.926	26.13
803.103	27.21
803.279	27.39
803.455	26.85
803.631	26.49
803.807	25.95
803.983	26.37
804.16	26.81
804.336	27.14
804.512	28.1
804.688	28.11
804.864	28.82
805.04	27.41
805.216	27.83
805.392	29.65
805.568	30.1
805.744	29.29
805.92	27.74
806.096	26.8
806.272	27.3
806.448	27.52
806.623	28.25
806.799	27.08
806.975	27.8
807.151	27.48
807.327	27.09
807.503	27.81
807.678	28.4
807.854	29.4
808.03	29.93
808.206	29.89
808.381	30.45
808.557	29.24
808.733	30.16
808.908	30.33
809.084	29.47
809.26	29.4
809.435	28.61
809.611	28.24
809.787	29.53
809.962	28.7
810.138	29.15
810.313	27.67
810.489	27.57
810.664	26.5
810.84	26.89
811.015	29.03
811.191	29.2
811.366	29.9
811.542	30.01
811.717	29.09
811.892	30
812.068	30.03
812.243	29.62
812.419	30.45
812.594	30.09
812.769	29.71
812.944	29.15
813.12	29.36
813.295	28.43
813.47	27.04
813.645	26.48
813.821	25.39
813.996	24.56
814.171	24.73
814.346	24.3
814.521	25.47
814.697	24.13
814.872	24.67
815.047	22.45
815.222	21.39
815.397	22.01
815.572	20.86
815.747	21.87
815.922	22.22
816.097	23.05
816.272	23
816.447	23.9
816.622	26.41
816.797	25.01
816.972	27.08
817.147	28.18
817.322	29.67
817.496	29.97
817.671	29.06
817.846	27.56
818.021	27.01
818.196	27.02
818.371	26.86
818.545	25.65
818.72	26.66
818.895	25.92
819.069	24.79
819.244	24.21
819.419	23.8
819.594	22.88
819.768	23.03
819.943	23.81
820.117	23.52
820.292	22.15
820.467	21.85
820.641	21.1
820.816	20.63
820.99	20.88
821.165	20.37
821.339	20.9
821.514	21.17
821.688	20.95
821.863	20.52
822.037	20.43
822.212	20.66
822.386	20.59
822.56	20.51
822.735	20.69
822.909	20.62
823.084	20.76
823.258	20.6
823.432	20.69
823.606	20.91
823.781	21.15
823.955	21.11
824.129	21.02
824.303	20.88
824.478	20.95
824.652	20.87
824.826	21.19
825	21.14
825.174	21.22
825.348	21.62
825.523	21.92
825.697	21.53
825.871	21.36
826.045	21.91
826.219	21.94
826.393	22.02
826.567	22.12
826.741	21.94
826.915	22.07
827.089	21.78
827.263	21.24
827.437	20.72
827.611	21.06
827.784	21.05
827.958	20.78
828.132	21.25
828.306	20.91
828.48	20.86
828.654	20.6
828.827	20.16
829.001	20.54
829.175	20.48
829.349	20.88
829.522	21.15
829.696	21.87
829.87	22.61
830.044	23.24
830.217	24.57
830.391	24.64
830.565	25.8
830.738	27.21
830.912	27.15
831.085	26.41
831.259	27.61
831.432	26.62
831.606	26.5
831.779	24.51
831.953	23.01
832.126	22.56
832.3	22.83
832.473	22.49
832.647	21.57
832.82	21.54
832.994	22.07
833.167	20.98
833.34	21.01
833.514	21.62
833.687	22.06
833.86	22.46
834.034	22.32
834.207	22.18
834.38	22.65
834.553	23.43
834.727	23.4
834.9	23.84
835.073	24.03
835.246	24.2
835.419	23.54
835.593	23.39
835.766	23.59
835.939	24.96
836.112	26.09
836.285	25.85
836.458	24.46
836.631	24.8
836.804	24.66
836.977	26.32
837.15	26.24
837.323	26.55
837.496	28.81
837.669	28.99
837.842	28.11
838.015	26.83
838.188	26.1
838.361	26.16
838.533	26.23
838.706	27.9
838.879	25.62
839.052	25.94
839.225	24.81
839.398	23.49
839.57	23.21
839.743	23.17
839.916	24.01
840.088	23.83
840.261	25.21
840.434	25.47
840.607	24.06
840.779	24.24
840.952	24.52
841.124	26.21
841.297	27.54
841.47	27.2
841.642	25.61
841.815	24.76
841.987	25.07
842.16	24.78
842.332	25.15
842.505	26.54
842.677	29.18
842.85	30.59
843.022	29.73
843.194	26.95
843.367	28.12
843.539	29.32
843.712	30.51
843.884	34.51
844.056	35.86
844.229	38.03
844.401	39.17
844.573	36.62
844.745	35.15
844.918	36.63
845.09	39.81
845.262	38.82
845.434	35.98
845.606	34.56
845.779	31.1
845.951	31.56
846.123	29.55
846.295	29.18
846.467	31.47
846.639	33.25
846.811	35.2
846.983	33.18
847.155	31.57
847.327	34.28
847.499	32.62
847.671	32.94
847.843	31.56
848.015	32.19
848.187	29.63
848.359	25.35
848.531	26.55
848.703	22.16
848.875	25.8
849.047	28.11
849.218	29.46
849.39	31.96
849.562	31.86
849.734	30.45
849.905	30.87
850.077	32.72
850.249	36.34
850.421	35.76
850.592	42.88
850.764	39.35
850.936	39.28
851.107	38.07
851.279	39.21
851.451	36.38
851.622	38.53
851.794	35.63
851.965	32.83
852.137	28.09
852.308	24.57
852.48	22.25
852.651	24.16
852.823	23.69
852.994	25.64
853.166	25.89
853.337	29.2
853.509	30.8
853.68	28.74
853.851	29.64
854.023	33.94
854.194	36.61
854.365	36.45
854.537	36.48
854.708	38.85
854.879	36.66
855.05	35.84
855.222	36.14
855.393	35.58
855.564	41.16
855.735	35.98
855.906	37.03
856.078	36.98
856.249	39.68
856.42	36.85
856.591	36.29
856.762	36.2
856.933	36.56
857.104	35.08
857.275	35.82
857.446	36.98
857.617	42.46
857.788	42.84
857.959	43.73
858.13	43.12
858.301	46.03
858.472	43.27
858.643	42.72
858.814	42.43
858.985	46.85
859.155	42.17
859.326	41.29
859.497	41.14
859.668	38.33
859.839	35.65
860.009	31.22
860.18	34.48
860.351	34.69
860.522	37.9
860.692	38.78
860.863	35.65
861.034	35.37
861.204	33.41
861.375	35.62
861.546	31.68
861.716	31.9
861.887	33.18
862.057	31.05
862.228	32.98
862.398	31.86
862.569	29.62
862.739	31.04
862.91	33.06
863.08	30.92
863.251	32.44
863.421	37.51
863.592	33.81
863.762	32.94
863.932	31.65
864.103	28.38
864.273	27.43
864.443	29.51
864.614	31.14
864.784	26.99
864.954	29.13
865.125	26.8
865.295	29.56
865.465	28.56
865.635	29.66
865.805	32.67
865.976	33.96
866.146	35.07
866.316	39.89
866.486	42.11
866.656	46.2
866.826	45.9
866.996	41.18
867.166	38.94
867.336	46.39
867.506	45.03
867.676	41.74
867.846	39.67
868.016	40.68
868.186	31.48
868.356	28.92
868.526	27
868.696	24
868.866	24.93
869.036	24.72
869.206	23.68
869.376	25.08
869.545	23.99
869.715	28.49
869.885	26.61
870.055	29.18
870.224	25.93
870.394	29.09
870.564	35.43
870.734	38.34
870.903	39.04
871.073	36.25
871.243	36.16
871.412	35.42
871.582	33.03
871.751	32.18
871.921	32.14
872.091	38.35
872.26	37.71
872.43	33.08
872.599	30.02
872.769	27.97
872.938	31.2
873.108	30.6
873.277	29.32
873.446	30.46
873.616	26.49
873.785	27.37
873.955	22.84
874.124	22.38
874.293	22.66
874.463	21.05
874.632	24.5
874.801	24.79
874.971	22.31
875.14	23.25
875.309	25.36
875.478	32.76
875.647	34.89
875.817	37.09
875.986	38.39
876.155	38.38
876.324	38.47
876.493	40.16
876.662	37.45
876.831	37.03
877	39.17
877.17	34.48
877.339	29.35
877.508	28.77
877.677	28.29
877.846	28.12
878.015	28.21
878.184	25.34
878.352	23.8
878.521	21.83
878.69	22.03
878.859	19.31
879.028	21.97
879.197	21.67
879.366	21.7
879.534	19.52
879.703	17.02
879.872	18.68
880.041	21.81
880.21	21.64
880.378	23.3
880.547	23.54
880.716	22.69
880.884	22.02
881.053	20.71
881.222	19.89
881.39	20.91
881.559	21.67
881.727	20.6
881.896	20.21
882.065	18.79
882.233	18.63
882.402	18.75
882.57	18.84
882.739	19.05
882.907	20.12
883.076	19.83
883.244	19.07
883.412	18.83
883.581	19.1
883.749	18.81
883.918	19.35
884.086	19.27
884.254	19.61
884.423	20.82
884.591	20.09
884.759	19.12
884.927	19.77
885.096	19.92
885.264	20.75
885.432	21.24
885.6	22.36
885.769	23.41
885.937	22.24
886.105	23.17
886.273	23.22
886.441	25.95
886.609	28.18
886.777	30.8
886.945	33.43
887.113	35.39
887.281	36.61
887.449	37.68
887.617	38.45
887.785	39.76
887.953	37.37
888.121	38.54
888.289	38.1
888.457	38.24
888.625	37.05
888.793	38.41
888.961	31.81
889.129	30.27
889.296	28.46
889.464	28.55
889.632	30.53
889.8	33.35
889.967	28.76
890.135	27.24
