Data from 2938806__Reflection_01.txt Node
Date: Thu Mar 12 22:09:41 EDT 2015
User: robert
Spectrometer: USB4E03002
Autoset integration time: false
Trigger mode: 4
Integration Time (sec): 1.000000E-1
Scans to average: 10
Electric dark correction enabled: false
Nonlinearity correction enabled: false
Boxcar width: 5
Stray light correction enabled: false
XAxis mode: Wavelengths
Stop averaging: false
Number of Pixels in Spectrum: 3648
>>>>>Begin Spectral Data<<<<<
177.575	262.74
177.794	336.18
178.014	292.86
178.233	423.42
178.452	479.89
178.672	598.36
178.891	880
179.11	1527.21
179.33	1193.62
179.549	2348.96
179.768	34114.29
179.987	-4871.74
180.207	-3664.52
180.426	-696.08
180.645	-680.69
180.864	-1001.23
181.084	-2338.26
181.303	-2467.31
181.522	-5003.92
181.741	-1940.46
181.96	-2256.25
182.179	7448.57
182.398	-12514.29
182.618	14988.24
182.837	3074.39
183.056	1755.56
183.275	3586.57
183.494	4795.92
183.713	4680.77
183.932	-2900
184.151	-1501.31
184.37	-2140.19
184.589	-1009
184.808	-2500
185.027	-1357.32
185.246	-5782.86
185.465	-20930
185.684	100500
185.903	-6193.75
186.122	-1194.37
186.341	-1144.24
186.56	-408.94
186.779	-460.22
186.998	-854.46
187.216	-849.78
187.435	-1493.79
187.654	-1541.22
187.873	-1221.51
188.092	-781.31
188.311	-794.85
188.53	-1307.06
188.748	3085
188.967	803.12
189.186	762.33
189.405	1794.07
189.623	1546.71
189.842	4435.19
190.061	11004.76
190.28	-5330.23
190.498	1560.26
190.717	-4433.96
190.936	-2209.52
191.154	-793.7
191.373	-1267.84
191.592	-611.64
191.81	-731.63
192.029	-635.53
192.248	-665.69
192.466	-472.05
192.685	-542.97
192.904	-358.82
193.122	-523.05
193.341	-536.87
193.559	-530.75
193.778	-414.81
193.996	-507.04
194.215	-620.82
194.433	-742.8
194.652	-1024.1
194.87	-3353.23
195.089	1644.44
195.307	3720.31
195.526	3966.15
195.744	1571.7
195.963	1593.9
196.181	2018.4
196.399	1170.04
196.618	1002.61
196.836	936.81
197.055	1315.35
197.273	1042.46
197.491	3295.89
197.71	954.96
197.928	1051.63
198.146	922.81
198.365	2269.31
198.583	3531.82
198.801	1247.54
199.019	1893.97
199.238	-41560
199.456	2218.68
199.674	6424.24
199.892	1040.38
200.111	1300.57
200.329	962.55
200.547	1075.94
200.765	816.73
200.983	555.76
201.202	1006.57
201.42	1033.77
201.638	755.87
201.856	789.39
202.074	890.84
202.292	1776
202.51	1441.1
202.728	1135.48
202.946	2382.35
203.165	1658.71
203.383	2350.88
203.601	1139.06
203.819	2632.29
204.037	2402.91
204.255	2767.86
204.473	1111.61
204.691	1250.48
204.909	1384.57
205.127	1155.61
205.345	625.32
205.562	570.5
205.78	500.64
205.998	529.93
206.216	312.98
206.434	339.34
206.652	328.44
206.87	269.54
207.088	242.14
207.306	214.23
207.523	211.24
207.741	250.05
207.959	276.87
208.177	350.8
208.395	409.18
208.612	636.34
208.83	420.13
209.048	461.94
209.266	919.86
209.483	869.59
209.701	21372.73
209.919	3505.56
210.136	-6872.97
210.354	-2496.97
210.572	1443.11
210.79	1381.93
211.007	868.12
211.225	-4288.46
211.442	-4405.88
211.66	1627.54
211.878	3265.71
212.095	1656.92
212.313	2423.17
212.53	632.71
212.748	462.26
212.966	501.45
213.183	472.29
213.401	443.59
213.618	286.51
213.836	255.43
214.053	312.35
214.271	338.65
214.488	328.27
214.705	387.44
214.923	393.73
215.14	388.62
215.358	405.77
215.575	347.44
215.793	347.4
216.01	459.57
216.227	694.44
216.445	488.45
216.662	346.35
216.879	267.45
217.097	225.82
217.314	270.02
217.531	270.41
217.749	236.68
217.966	261.22
218.183	283.45
218.4	256.04
218.618	276.45
218.835	214.67
219.052	194.32
219.269	214.43
219.487	202.28
219.704	181.77
219.921	176.08
220.138	175.18
220.355	160.88
220.572	144.25
220.79	128.62
221.007	130.97
221.224	134.85
221.441	127.86
221.658	131.75
221.875	127.17
222.092	122.23
222.309	119.07
222.526	125.96
222.743	118.73
222.96	113.55
223.177	132.15
223.394	116
223.611	116.29
223.828	121.09
224.045	103.89
224.262	101.99
224.479	97.82
224.696	95.2
224.913	83.04
225.13	79.86
225.347	75.4
225.564	65.1
225.781	61.04
225.997	58.64
226.214	50.72
226.431	46.74
226.648	42.56
226.865	37.1
227.082	33.38
227.298	30.98
227.515	28.04
227.732	25.52
227.949	22.23
228.165	20.96
228.382	19.77
228.599	18.64
228.816	18.38
229.032	16.22
229.249	15.7
229.466	15.74
229.682	15.66
229.899	14.44
230.116	14.82
230.332	15.55
230.549	15.43
230.765	14.96
230.982	15.08
231.199	14.82
231.415	17.92
231.632	18.99
231.848	20.71
232.065	21.25
232.281	24.38
232.498	24.08
232.714	24.74
232.931	24.83
233.147	25.4
233.364	25.89
233.58	26.24
233.797	24.4
234.013	25.13
234.23	23.27
234.446	23.19
234.662	22.03
234.879	22.48
235.095	22.65
235.312	22.64
235.528	23.29
235.744	23.48
235.961	23.35
236.177	24.1
236.393	23.41
236.61	22
236.826	22.76
237.042	24.51
237.258	24.04
237.475	24.52
237.691	25.64
237.907	23.78
238.123	23.84
238.339	23.16
238.556	21.94
238.772	21.66
238.988	22.01
239.204	20.18
239.42	18.87
239.636	19.58
239.853	17.71
240.069	16.2
240.285	15.88
240.501	15.28
240.717	14.9
240.933	14.39
241.149	13.83
241.365	12.81
241.581	12.84
241.797	12.03
242.013	11.16
242.229	10.79
242.445	10.87
242.661	11.24
242.877	11.18
243.093	11.38
243.309	11.51
243.525	11.81
243.741	12.55
243.957	12.12
244.173	12.96
244.388	13.45
244.604	13.97
244.82	13.65
245.036	13.18
245.252	12.18
245.468	11.77
245.683	11.38
245.899	10.55
246.115	9.88
246.331	9.52
246.547	8.93
246.762	8.68
246.978	8.32
247.194	8.41
247.409	8.07
247.625	8.3
247.841	8.06
248.057	8.24
248.272	8.64
248.488	8.61
248.703	8.72
248.919	9.11
249.135	9.35
249.35	9.82
249.566	10.07
249.782	11.23
249.997	11.7
250.213	11.79
250.428	11.81
250.644	11.9
250.859	12.37
251.075	12.71
251.29	11.86
251.506	11.35
251.721	10.8
251.937	10.77
252.152	10.43
252.368	10.13
252.583	10.94
252.798	11.44
253.014	11.42
253.229	11.96
253.445	11.7
253.66	12.98
253.875	13.34
254.091	13.95
254.306	14.92
254.521	15.84
254.737	17.05
254.952	16.96
255.167	15.66
255.383	15.68
255.598	15.21
255.813	15.86
256.028	14.43
256.244	14.9
256.459	16.05
256.674	15.22
256.889	13.75
257.104	12.62
257.32	12.22
257.535	12.39
257.75	11.41
257.965	10.71
258.18	9.72
258.395	9.23
258.61	8.43
258.826	7.43
259.041	7
259.256	6.76
259.471	6.58
259.686	6.33
259.901	6.04
260.116	6
260.331	5.65
260.546	5.74
260.761	5.87
260.976	6.24
261.191	6.39
261.406	6.7
261.621	7.09
261.836	7.11
262.05	7.56
262.265	8.13
262.48	8.9
262.695	9.76
262.91	10.33
263.125	10.99
263.34	11.06
263.555	11.86
263.769	11.48
263.984	11.75
264.199	12.13
264.414	12.04
264.629	12.02
264.843	11.08
265.058	11.16
265.273	10.94
265.488	10.42
265.702	10.04
265.917	9.65
266.132	9.79
266.346	9.47
266.561	8.91
266.776	8.85
266.99	9.28
267.205	9.66
267.42	9.07
267.634	9.16
267.849	9.11
268.063	8.65
268.278	8.75
268.492	8.81
268.707	8.64
268.922	9.63
269.136	9.63
269.351	8.78
269.565	8.93
269.78	9.33
269.994	8.95
270.209	9.17
270.423	9.22
270.637	8.55
270.852	8.23
271.066	8.04
271.281	7.59
271.495	7.42
271.709	6.98
271.924	6.63
272.138	6.43
272.353	6.32
272.567	5.83
272.781	5.67
272.996	5.96
273.21	6.04
273.424	6.36
273.638	6.32
273.853	6.22
274.067	6.54
274.281	6.7
274.495	7.02
274.71	7.5
274.924	7.95
275.138	8.35
275.352	8.14
275.566	8.25
275.781	7.76
275.995	7.46
276.209	7.94
276.423	8.38
276.637	8.28
276.851	8.16
277.065	7.79
277.279	7.59
277.493	7.99
277.707	8.22
277.921	8.05
278.135	8.24
278.349	8.86
278.563	8.68
278.777	8.81
278.991	8.97
279.205	9.01
279.419	9.24
279.633	9.85
279.847	9.2
280.061	9.04
280.275	8.72
280.489	8.88
280.703	8.35
280.917	7.96
281.131	7.56
281.344	7.47
281.558	6.98
281.772	6.92
281.986	6.37
282.2	6.59
282.414	6.67
282.627	6.69
282.841	6.41
283.055	6.43
283.269	6.45
283.482	6.4
283.696	6.21
283.91	6.62
284.123	6.47
284.337	6.12
284.551	5.93
284.764	5.92
284.978	6.06
285.192	6.16
285.405	6.05
285.619	6.19
285.833	6.36
286.046	6.07
286.26	5.87
286.473	5.86
286.687	6.24
286.9	6.31
287.114	6.26
287.327	6.39
287.541	6.74
287.754	6.93
287.968	6.95
288.181	7
288.395	7.57
288.608	7.76
288.822	7.92
289.035	8.14
289.248	7.93
289.462	7.84
289.675	7.81
289.889	7.6
290.102	7.52
290.315	7.56
290.529	7.37
290.742	6.87
290.955	6.68
291.169	6.45
291.382	6.33
291.595	6.7
291.808	6.91
292.022	6.99
292.235	6.91
292.448	7.13
292.661	7.08
292.875	7.35
293.088	7.99
293.301	8
293.514	8.23
293.727	7.97
293.94	8.09
294.153	7.64
294.367	7.4
294.58	7.14
294.793	7.29
295.006	7.42
295.219	7.25
295.432	7.1
295.645	7.18
295.858	7.06
296.071	7.33
296.284	7.39
296.497	7.64
296.71	7.74
296.923	7.75
297.136	7.48
297.349	7.44
297.562	7.43
297.775	7.43
297.988	7.49
298.201	7.62
298.414	7.82
298.626	7.72
298.839	7.94
299.052	7.96
299.265	8.08
299.478	8.53
299.691	8.8
299.903	8.88
300.116	9.15
300.329	9.37
300.542	9.64
300.755	9.5
300.967	9.56
301.18	9.8
301.393	10.21
301.605	10.56
301.818	10.44
302.031	10.45
302.243	11.02
302.456	10.93
302.669	10.91
302.881	11.03
303.094	11.04
303.307	11.14
303.519	10.94
303.732	10.79
303.944	10.82
304.157	10.83
304.37	10.7
304.582	10.3
304.795	10.3
305.007	10.71
305.22	10.73
305.432	10.6
305.645	10.64
305.857	10.86
306.069	10.85
306.282	10.75
306.494	11.03
306.707	11.08
306.919	11.42
307.132	11.47
307.344	11.25
307.556	11.19
307.769	11.44
307.981	11.35
308.193	11.06
308.406	11.24
308.618	11.29
308.83	11.16
309.043	11.59
309.255	11.63
309.467	11.69
309.679	11.67
309.892	11.44
310.104	11.48
310.316	11.47
310.528	11.49
310.74	11.49
310.953	11.74
311.165	11.72
311.377	11.66
311.589	11.3
311.801	11.36
312.013	11.35
312.225	11.65
312.437	11.56
312.649	11.72
312.862	11.89
313.074	11.82
313.286	12.03
313.498	12.36
313.71	12.12
313.922	12.47
314.134	12.71
314.346	12.53
314.558	12.83
314.77	12.99
314.982	13.23
315.193	13.29
315.405	13.83
315.617	13.66
315.829	13.57
316.041	13.94
316.253	14.2
316.465	14.51
316.677	15.3
316.888	15.27
317.1	15.91
317.312	16.09
317.524	16.1
317.736	15.77
317.947	15.72
318.159	16.09
318.371	16.17
318.583	15.87
318.794	15.48
319.006	15.31
319.218	15.5
319.43	15.34
319.641	15.15
319.853	15.88
320.064	15.97
320.276	16.05
320.488	15.54
320.699	15.74
320.911	16.49
321.123	16.9
321.334	17.03
321.546	16.97
321.757	16.91
321.969	17.11
322.18	16.73
322.392	17.08
322.603	17.05
322.815	17.51
323.026	17.33
323.238	17.01
323.449	16.96
323.661	16.95
323.872	17.18
324.083	16.87
324.295	16.96
324.506	17.19
324.718	16.97
324.929	17.26
325.14	17.33
325.352	18
325.563	17.93
325.774	17.88
325.986	17.92
326.197	17.74
326.408	18.39
326.62	18.35
326.831	18.68
327.042	18.98
327.253	19.07
327.464	19.3
327.676	19.19
327.887	19.94
328.098	20.48
328.309	20.51
328.52	20.91
328.732	20.93
328.943	21.41
329.154	21.51
329.365	21.74
329.576	22.54
329.787	22.86
329.998	22.8
330.209	22.73
330.42	22.68
330.631	22.85
330.842	23.17
331.053	23.04
331.264	23.52
331.475	23.55
331.686	23.65
331.897	23.33
332.108	23.25
332.319	23.49
332.53	23.79
332.741	24.14
332.952	24.35
333.163	24.53
333.374	24.54
333.585	24.12
333.795	24.26
334.006	24.35
334.217	24.4
334.428	25.02
334.639	25.25
334.849	24.89
335.06	24.95
335.271	25.1
335.482	24.92
335.692	25.31
335.903	25.45
336.114	25.69
336.325	25.97
336.535	26.29
336.746	26.24
336.957	25.94
337.167	25.94
337.378	26.1
337.589	26.3
337.799	26.22
338.01	26.23
338.22	26.59
338.431	26.17
338.642	25.87
338.852	25.62
339.063	25.3
339.273	25.49
339.484	25.88
339.694	25.57
339.905	25.33
340.115	25.55
340.326	25.62
340.536	25.1
340.746	25.16
340.957	25.3
341.167	25.42
341.378	25.65
341.588	25.43
341.799	25.11
342.009	25.05
342.219	25.2
342.43	25.03
342.64	25
342.85	25.19
343.061	25.1
343.271	25.1
343.481	25.04
343.691	24.62
343.902	24.89
344.112	25.02
344.322	25.07
344.532	25.39
344.743	25.34
344.953	25.27
345.163	25.15
345.373	25.01
345.583	24.58
345.793	24.58
346.004	24.81
346.214	24.78
346.424	24.69
346.634	24.79
346.844	24.43
347.054	24.37
347.264	24.32
347.474	24.32
347.684	24.78
347.894	25.04
348.104	25.21
348.314	24.97
348.524	24.92
348.734	25.11
348.944	24.92
349.154	24.98
349.364	25.13
349.574	25.03
349.784	25.19
349.994	25.24
350.204	25.01
350.413	24.57
350.623	24.56
350.833	24.4
351.043	24.17
351.253	24.23
351.463	24.26
351.672	24
351.882	24.04
352.092	24.03
352.302	23.66
352.511	23.79
352.721	24.06
352.931	23.82
353.141	23.77
353.35	23.68
353.56	23.2
353.77	23.03
353.979	23.37
354.189	23.27
354.399	23
354.608	23.25
354.818	23.26
355.027	22.98
355.237	23.11
355.447	23.13
355.656	23.24
355.866	23.56
356.075	23.47
356.285	23.22
356.494	23.08
356.704	23.18
356.913	22.81
357.123	22.84
357.332	22.7
357.542	22.59
357.751	22.41
357.96	22.24
358.17	22.3
358.379	22.2
358.589	22.2
358.798	22.21
359.007	22.06
359.217	21.86
359.426	21.86
359.635	22.03
359.845	22.01
360.054	21.93
360.263	21.86
360.472	21.41
360.682	21.37
360.891	21.39
361.1	21.1
361.309	20.82
361.519	21.02
361.728	20.96
361.937	20.84
362.146	20.82
362.355	20.9
362.564	20.74
362.774	20.81
362.983	20.77
363.192	20.71
363.401	21.07
363.61	21.41
363.819	21.3
364.028	21.25
364.237	21.22
364.446	21.23
364.655	21.12
364.864	21.41
365.073	21.58
365.282	21.58
365.491	21.29
365.7	21.23
365.909	21.31
366.118	21.39
366.327	21.63
366.536	21.77
366.745	21.86
366.954	21.92
367.162	21.66
367.371	21.64
367.58	21.74
367.789	21.99
367.998	21.91
368.207	21.65
368.415	21.64
368.624	21.4
368.833	21.26
369.042	21.25
369.25	21.35
369.459	21.65
369.668	21.59
369.877	21.64
370.085	21.76
370.294	21.59
370.503	21.79
370.711	21.9
370.92	21.97
371.129	22.05
371.337	21.88
371.546	21.84
371.754	21.79
371.963	21.83
372.171	21.88
372.38	21.62
372.589	21.78
372.797	21.67
373.006	21.59
373.214	21.63
373.423	21.52
373.631	21.57
373.84	21.59
374.048	21.48
374.256	21.52
374.465	21.4
374.673	21.54
374.882	21.69
375.09	21.62
375.298	21.67
375.507	21.49
375.715	21.36
375.923	21.17
376.132	21.05
376.34	21.19
376.548	21.22
376.757	21.26
376.965	21.18
377.173	20.82
377.381	20.9
377.59	20.87
377.798	20.79
378.006	20.97
378.214	21.18
378.423	21.21
378.631	21.13
378.839	20.96
379.047	21.16
379.255	20.99
379.463	21.09
379.671	21.28
379.879	21.24
380.088	21.53
380.296	21.35
380.504	21.47
380.712	21.48
380.92	21.27
381.128	21.45
381.336	21.18
381.544	21.37
381.752	21.47
381.96	21.21
382.168	21.19
382.376	21.11
382.584	21.07
382.791	20.83
382.999	20.73
383.207	20.88
383.415	20.75
383.623	20.83
383.831	20.71
384.039	20.68
384.247	20.48
384.454	20.46
384.662	20.34
384.87	20.7
385.078	20.56
385.285	20.75
385.493	20.8
385.701	20.66
385.909	20.49
386.116	20.66
386.324	20.8
386.532	20.97
386.739	21.08
386.947	21.1
387.155	20.89
387.362	21.02
387.57	20.71
387.778	20.66
387.985	20.88
388.193	21.07
388.4	20.97
388.608	20.99
388.816	21.13
389.023	21.08
389.231	21.2
389.438	21.19
389.646	21.11
389.853	21.26
390.061	21.1
390.268	21.05
390.475	20.84
390.683	20.9
390.89	20.72
391.098	20.7
391.305	20.71
391.512	20.51
391.72	20.55
391.927	20.63
392.135	20.7
392.342	20.74
392.549	20.81
392.756	20.87
392.964	20.95
393.171	20.92
393.378	20.92
393.586	20.74
393.793	20.86
394	20.82
394.207	20.85
394.414	20.8
394.622	20.75
394.829	20.6
395.036	20.62
395.243	20.41
395.45	20.55
395.657	20.28
395.864	20.42
396.072	20.22
396.279	20.29
396.486	20.26
396.693	20.21
396.9	20.24
397.107	20.23
397.314	20.43
397.521	20.56
397.728	20.33
397.935	20.56
398.142	20.45
398.349	20.61
398.556	20.61
398.763	20.71
398.97	20.71
399.177	20.8
399.383	20.86
399.59	20.42
399.797	20.48
400.004	20.79
400.211	20.72
400.418	20.91
400.625	20.88
400.831	20.94
401.038	20.94
401.245	20.89
401.452	20.93
401.658	20.92
401.865	21.03
402.072	20.87
402.279	21.01
402.485	20.91
402.692	20.8
402.899	20.91
403.105	20.83
403.312	20.86
403.519	20.84
403.725	20.79
403.932	20.75
404.138	20.83
404.345	20.76
404.552	20.44
404.758	20.54
404.965	20.48
405.171	20.37
405.378	20.4
405.584	20.26
405.791	20.29
405.997	20.28
406.204	20.23
406.41	20.32
406.617	20.39
406.823	20.53
407.029	20.39
407.236	20.46
407.442	20.55
407.649	20.67
407.855	20.79
408.061	20.71
408.268	20.78
408.474	20.96
408.68	20.92
408.887	21.01
409.093	20.87
409.299	21.01
409.505	20.93
409.712	20.89
409.918	20.66
410.124	20.64
410.33	20.84
410.537	20.83
410.743	20.76
410.949	20.72
411.155	20.73
411.361	20.77
411.567	20.63
411.773	20.55
411.98	20.62
412.186	20.59
412.392	20.58
412.598	20.48
412.804	20.48
413.01	20.5
413.216	20.56
413.422	20.5
413.628	20.59
413.834	20.79
414.04	21
414.246	20.85
414.452	20.85
414.658	20.96
414.864	20.84
415.07	20.86
415.275	20.77
415.481	20.65
415.687	20.69
415.893	20.6
416.099	20.41
416.305	20.34
416.511	20.29
416.716	20.27
416.922	20.16
417.128	20.14
417.334	20.17
417.539	20.09
417.745	20.14
417.951	20.06
418.157	19.97
418.362	20.04
418.568	19.95
418.774	19.9
418.979	19.85
419.185	19.83
419.391	19.8
419.596	19.63
419.802	19.71
420.008	19.64
420.213	20.12
420.419	20.09
420.624	20.01
420.83	20.08
421.035	20.06
421.241	20.09
421.446	20.03
421.652	20.07
421.857	20.12
422.063	20.06
422.268	20.12
422.474	19.72
422.679	19.71
422.885	19.76
423.09	19.68
423.295	19.69
423.501	19.69
423.706	19.73
423.911	19.73
424.117	19.67
424.322	19.73
424.527	19.63
424.733	19.55
424.938	19.56
425.143	19.49
425.349	19.49
425.554	19.47
425.759	19.45
425.964	19.4
426.169	19.38
426.375	19.53
426.58	19.41
426.785	19.64
426.99	19.77
427.195	19.85
427.4	20.03
427.605	20.16
427.811	20.26
428.016	20.34
428.221	20.41
428.426	20.4
428.631	20.18
428.836	20.23
429.041	19.9
429.246	19.9
429.451	19.92
429.656	19.75
429.861	19.74
430.066	19.74
430.271	19.65
430.476	19.65
430.681	19.67
430.886	19.9
431.09	20.01
431.295	20.21
431.5	20.14
431.705	20.13
431.91	20.22
432.115	20.14
432.32	20.2
432.524	20.25
432.729	20.31
432.934	20.33
433.139	20.25
433.343	20.09
433.548	19.96
433.753	20.06
433.958	20.01
434.162	20.03
434.367	20.12
434.572	20.04
434.776	20.06
434.981	20.11
435.186	20.14
435.39	20.14
435.595	20.17
435.799	20.21
436.004	20.27
436.209	20.3
436.413	20.27
436.618	20.18
436.822	20.2
437.027	20.15
437.231	20.03
437.436	20
437.64	20.01
437.845	20.16
438.049	20.3
438.253	20.19
438.458	20.16
438.662	20.04
438.867	20.01
439.071	20.04
439.275	20.09
439.48	20.14
439.684	20.17
439.888	20.07
440.093	19.98
440.297	19.86
440.501	19.81
440.706	19.83
440.91	19.92
441.114	20.02
441.318	19.94
441.523	19.87
441.727	19.86
441.931	19.84
442.135	19.92
442.339	19.96
442.543	20
442.748	20.09
442.952	20
443.156	20.1
443.36	20.07
443.564	20.17
443.768	20.24
443.972	20.23
444.176	20.26
444.38	20.27
444.584	20.34
444.788	20.3
444.992	20.25
445.196	20.25
445.4	20.15
445.604	20.07
445.808	20.12
446.012	20.12
446.216	20.05
446.42	20
446.624	20.03
446.828	19.94
447.032	19.98
447.235	19.96
447.439	20.02
447.643	20.03
447.847	20.1
448.051	20.03
448.254	20
448.458	20.12
448.662	20.22
448.866	20.19
449.069	20.2
449.273	20.18
449.477	20.18
449.681	20.2
449.884	20.3
450.088	20.28
450.292	20.4
450.495	20.38
450.699	20.41
450.902	20.32
451.106	20.37
451.31	20.43
451.513	20.51
451.717	20.59
451.92	20.63
452.124	20.55
452.327	20.59
452.531	20.51
452.734	20.59
452.938	20.48
453.141	20.49
453.345	20.51
453.548	20.51
453.752	20.42
453.955	20.33
454.158	20.15
454.362	20.11
454.565	20.11
454.769	20.19
454.972	20.05
455.175	20.16
455.379	20.19
455.582	20.21
455.785	20.24
455.988	20.23
456.192	20.31
456.395	20.47
456.598	20.49
456.801	20.46
457.005	20.42
457.208	20.52
457.411	20.51
457.614	20.55
457.817	20.48
458.021	20.36
458.224	20.43
458.427	20.51
458.63	20.51
458.833	20.5
459.036	20.46
459.239	20.5
459.442	20.41
459.645	20.34
459.848	20.28
460.051	20.24
460.254	20.2
460.457	20.11
460.66	20.03
460.863	20
461.066	20
461.269	20.01
461.472	19.88
461.675	19.93
461.878	19.98
462.081	20.01
462.284	20.01
462.486	20.15
462.689	20.26
462.892	20.31
463.095	20.35
463.298	20.36
463.5	20.41
463.703	20.42
463.906	20.48
464.109	20.41
464.311	20.35
464.514	20.42
464.717	20.47
464.92	20.45
465.122	20.45
465.325	20.29
465.528	20.38
465.73	20.32
465.933	20.38
466.135	20.35
466.338	20.29
466.541	20.36
466.743	20.44
466.946	20.38
467.148	20.29
467.351	20.27
467.553	20.47
467.756	20.44
467.958	20.5
468.161	20.53
468.363	20.52
468.566	20.61
468.768	20.49
468.971	20.4
469.173	20.48
469.375	20.48
469.578	20.45
469.78	20.38
469.983	20.33
470.185	20.28
470.387	20.25
470.59	20.21
470.792	20.33
470.994	20.46
471.196	20.55
471.399	20.44
471.601	20.55
471.803	20.55
472.005	20.45
472.208	20.54
472.41	20.65
472.612	20.65
472.814	20.78
473.016	20.62
473.218	20.56
473.421	20.42
473.623	20.45
473.825	20.39
474.027	20.51
474.229	20.63
474.431	20.57
474.633	20.57
474.835	20.59
475.037	20.55
475.239	20.67
475.441	20.72
475.643	20.85
475.845	20.92
476.047	20.89
476.249	20.84
476.451	20.86
476.653	20.88
476.855	20.81
477.057	20.75
477.258	20.69
477.46	20.68
477.662	20.71
477.864	20.54
478.066	20.48
478.268	20.52
478.469	20.43
478.671	20.38
478.873	20.28
479.075	20.37
479.276	20.4
479.478	20.44
479.68	20.36
479.882	20.32
480.083	20.4
480.285	20.37
480.487	20.37
480.688	20.41
480.89	20.44
481.091	20.49
481.293	20.41
481.495	20.39
481.696	20.32
481.898	20.3
482.099	20.22
482.301	20.19
482.502	20.17
482.704	20.12
482.905	20.03
483.107	19.98
483.308	19.93
483.51	19.86
483.711	19.84
483.913	19.83
484.114	19.87
484.315	19.86
484.517	19.83
484.718	19.81
484.92	19.81
485.121	19.85
485.322	19.88
485.524	19.9
485.725	19.94
485.926	19.95
486.127	19.96
486.329	19.89
486.53	19.9
486.731	19.93
486.932	19.95
487.134	19.98
487.335	19.95
487.536	19.9
487.737	19.92
487.938	19.91
488.139	19.88
488.341	19.89
488.542	19.86
488.743	19.87
488.944	19.9
489.145	19.9
489.346	19.89
489.547	19.91
489.748	19.9
489.949	19.9
490.15	19.97
490.351	20.07
490.552	20.08
490.753	20.18
490.954	20.2
491.155	20.21
491.356	20.24
491.557	20.26
491.758	20.29
491.959	20.36
492.159	20.37
492.36	20.35
492.561	20.28
492.762	20.34
492.963	20.34
493.164	20.39
493.364	20.44
493.565	20.46
493.766	20.51
493.967	20.6
494.167	20.6
494.368	20.65
494.569	20.86
494.769	20.94
494.97	21
495.171	21.03
495.371	21.03
495.572	20.95
495.773	20.92
495.973	20.93
496.174	20.91
496.375	21
496.575	21.02
496.776	20.84
496.976	20.82
497.177	20.81
497.377	20.82
497.578	20.87
497.778	20.94
497.979	20.97
498.179	21.01
498.38	20.97
498.58	20.89
498.78	20.94
498.981	21.01
499.181	21.09
499.382	21.07
499.582	21.11
499.782	21.15
499.983	21.19
500.183	21.23
500.383	21.26
500.584	21.26
500.784	21.38
500.984	21.35
501.184	21.49
501.385	21.5
501.585	21.55
501.785	21.57
501.985	21.64
502.185	21.6
502.386	21.59
502.586	21.58
502.786	21.6
502.986	21.56
503.186	21.67
503.386	21.61
503.586	21.66
503.786	21.63
503.987	21.7
504.187	21.52
504.387	21.44
504.587	21.44
504.787	21.36
504.987	21.39
505.187	21.47
505.387	21.45
505.587	21.48
505.786	21.4
505.986	21.45
506.186	21.35
506.386	21.5
506.586	21.53
506.786	21.58
506.986	21.65
507.186	21.72
507.386	21.7
507.585	21.6
507.785	21.51
507.985	21.59
508.185	21.66
508.384	21.69
508.584	21.62
508.784	21.71
508.984	21.78
509.183	21.79
509.383	21.74
509.583	21.7
509.782	21.69
509.982	21.69
510.182	21.64
510.381	21.52
510.581	21.53
510.781	21.53
510.98	21.55
511.18	21.58
511.379	21.61
511.579	21.64
511.778	21.67
511.978	21.76
512.177	21.83
512.377	21.89
512.576	21.95
512.776	22.01
512.975	22.07
513.175	22.08
513.374	22.04
513.573	22.06
513.773	22.08
513.972	22.14
514.172	22.14
514.371	22.21
514.57	22.21
514.77	22.23
514.969	22.3
515.168	22.37
515.367	22.38
515.567	22.39
515.766	22.45
515.965	22.47
516.164	22.52
516.364	22.51
516.563	22.55
516.762	22.57
516.961	22.58
517.16	22.52
517.359	22.49
517.559	22.5
517.758	22.43
517.957	22.43
518.156	22.38
518.355	22.34
518.554	22.31
518.753	22.26
518.952	22.24
519.151	22.26
519.35	22.28
519.549	22.33
519.748	22.29
519.947	22.36
520.146	22.38
520.345	22.47
520.544	22.46
520.743	22.53
520.942	22.58
521.141	22.59
521.339	22.59
521.538	22.58
521.737	22.54
521.936	22.6
522.135	22.62
522.333	22.65
522.532	22.64
522.731	22.76
522.93	22.8
523.129	22.84
523.327	22.79
523.526	22.76
523.725	22.81
523.923	22.86
524.122	22.78
524.321	22.81
524.519	22.8
524.718	22.78
524.917	22.7
525.115	22.71
525.314	22.67
525.512	22.76
525.711	22.81
525.909	22.75
526.108	22.73
526.306	22.8
526.505	22.79
526.703	22.79
526.902	22.84
527.1	22.87
527.299	22.84
527.497	22.85
527.696	22.83
527.894	22.77
528.092	22.75
528.291	22.72
528.489	22.76
528.688	22.73
528.886	22.7
529.084	22.69
529.283	22.66
529.481	22.7
529.679	22.7
529.877	22.68
530.076	22.73
530.274	22.76
530.472	22.8
530.67	22.78
530.869	22.81
531.067	22.87
531.265	22.89
531.463	22.94
531.661	22.93
531.859	22.97
532.057	22.99
532.255	22.98
532.454	22.99
532.652	23
532.85	23
533.048	22.99
533.246	22.97
533.444	23
533.642	23.01
533.84	23.03
534.038	22.98
534.236	23.03
534.434	23.07
534.632	23.16
534.83	23.24
535.027	23.31
535.225	23.4
535.423	23.47
535.621	23.46
535.819	23.47
536.017	23.43
536.215	23.53
536.412	23.57
536.61	23.64
536.808	23.55
537.006	23.52
537.203	23.44
537.401	23.51
537.599	23.53
537.797	23.53
537.994	23.6
538.192	23.69
538.39	23.68
538.587	23.73
538.785	23.75
538.983	23.91
539.18	24
539.378	24.12
539.575	24.09
539.773	24.05
539.97	24.08
540.168	24.04
540.366	24.03
540.563	24.06
540.761	24.05
540.958	24.03
541.155	23.93
541.353	23.92
541.55	23.88
541.748	23.92
541.945	23.95
542.143	23.94
542.34	23.97
542.537	23.98
542.735	23.95
542.932	23.99
543.129	24.01
543.327	24.11
543.524	24.13
543.721	24.16
543.919	24.14
544.116	24.15
544.313	24.27
544.51	24.31
544.708	24.35
544.905	24.46
545.102	24.54
545.299	24.58
545.496	24.66
545.693	24.7
545.891	24.81
546.088	24.83
546.285	24.84
546.482	24.81
546.679	24.84
546.876	24.91
547.073	24.91
547.27	24.87
547.467	24.93
547.664	24.94
547.861	25.01
548.058	24.96
548.255	25.06
548.452	25.06
548.649	25.15
548.846	25.09
549.043	25.07
549.24	25.08
549.437	25.09
549.633	25.04
549.83	25.04
550.027	25.12
550.224	25.19
550.421	25.22
550.618	25.26
550.814	25.27
551.011	25.35
551.208	25.36
551.405	25.33
551.601	25.3
551.798	25.33
551.995	25.26
552.191	25.24
552.388	25.14
552.585	25.18
552.781	25.18
552.978	25.09
553.175	25.18
553.371	25.17
553.568	25.26
553.764	25.38
553.961	25.35
554.157	25.43
554.354	25.35
554.55	25.35
554.747	25.28
554.943	25.34
555.14	25.36
555.336	25.37
555.533	25.48
555.729	25.49
555.926	25.48
556.122	25.63
556.318	25.63
556.515	25.67
556.711	25.74
556.907	25.88
557.104	25.93
557.3	26.05
557.496	26
557.693	26.05
557.889	26.08
558.085	26.01
558.281	25.89
558.478	25.95
558.674	25.99
558.87	26.05
559.066	26.04
559.262	25.94
559.459	25.91
559.655	25.97
559.851	26.01
560.047	26.06
560.243	26.13
560.439	26.1
560.635	26.11
560.831	26.09
561.027	26.12
561.223	26.05
561.419	26.07
561.615	26
561.811	25.98
562.007	25.9
562.203	25.9
562.399	25.81
562.595	25.87
562.791	25.86
562.987	25.93
563.183	25.98
563.379	26.03
563.575	26.2
563.771	26.25
563.966	26.23
564.162	26.28
564.358	26.19
564.554	26.29
564.75	26.32
564.945	26.23
565.141	26.14
565.337	26.12
565.533	26.09
565.728	26
565.924	26.01
566.12	25.97
566.315	25.86
566.511	25.84
566.707	25.85
566.902	25.91
567.098	25.91
567.293	26
567.489	26
567.684	26
567.88	26.14
568.076	26.18
568.271	26.34
568.467	26.44
568.662	26.49
568.858	26.52
569.053	26.48
569.248	26.63
569.444	26.68
569.639	26.66
569.835	26.6
570.03	26.43
570.225	26.52
570.421	26.5
570.616	26.55
570.812	26.65
571.007	26.6
571.202	26.6
571.397	26.55
571.593	26.41
571.788	26.38
571.983	26.49
572.178	26.51
572.374	26.44
572.569	26.44
572.764	26.45
572.959	26.39
573.154	26.4
573.35	26.42
573.545	26.48
573.74	26.56
573.935	26.63
574.13	26.58
574.325	26.66
574.52	26.75
574.715	26.85
574.91	26.9
575.105	27.01
575.3	27.09
575.495	27.15
575.69	27.1
575.885	27.07
576.08	27.14
576.275	27.16
576.47	27.12
576.665	27.18
576.86	27.16
577.055	27.12
577.25	27.12
577.444	27.1
577.639	27.19
577.834	27.27
578.029	27.44
578.224	27.47
578.418	27.67
578.613	27.78
578.808	27.66
579.003	27.72
579.197	27.77
579.392	27.82
579.587	27.99
579.781	27.98
579.976	28.1
580.171	28.09
580.365	28.11
580.56	28.01
580.755	28.1
580.949	28.27
581.144	28.25
581.338	28.24
581.533	28.12
581.727	28.13
581.922	27.92
582.116	27.89
582.311	27.95
582.505	27.92
582.7	28.08
582.894	28.07
583.089	28.07
583.283	28.01
583.478	28.01
583.672	28.04
583.866	27.96
584.061	28.11
584.255	28.05
584.449	28
584.644	28.15
584.838	28.2
585.032	28.24
585.226	28.17
585.421	28.24
585.615	28.4
585.809	28.53
586.003	28.73
586.198	28.84
586.392	28.86
586.586	28.89
586.78	28.81
586.974	28.72
587.168	28.82
587.363	28.85
587.557	28.87
587.751	28.78
587.945	28.87
588.139	28.68
588.333	28.61
588.527	28.64
588.721	28.75
588.915	28.79
589.109	28.85
589.303	28.65
589.497	28.71
589.691	28.62
589.885	28.63
590.079	28.64
590.273	28.72
590.466	28.9
590.66	28.98
590.854	28.97
591.048	29.11
591.242	29.12
591.436	29.28
591.629	29.31
591.823	29.58
592.017	29.73
592.211	29.84
592.404	29.78
592.598	29.82
592.792	29.95
592.986	30
593.179	29.86
593.373	29.86
593.567	29.84
593.76	29.88
593.954	29.82
594.147	29.65
594.341	29.53
594.535	29.59
594.728	29.52
594.922	29.36
595.115	29.32
595.309	29.39
595.502	29.37
595.696	29.45
595.889	29.4
596.083	29.38
596.276	29.44
596.47	29.46
596.663	29.53
596.856	29.55
597.05	29.56
597.243	29.58
597.437	29.6
597.63	29.61
597.823	29.53
598.017	29.53
598.21	29.66
598.403	29.63
598.596	29.68
598.79	29.67
598.983	29.67
599.176	29.85
599.369	29.85
599.563	29.85
599.756	29.89
599.949	30.11
600.142	30.14
600.335	30.07
600.528	30.38
600.722	30.42
600.915	30.4
601.108	30.38
601.301	30.44
601.494	30.37
601.687	30.4
601.88	30.39
602.073	30.32
602.266	30.44
602.459	30.44
602.652	30.21
602.845	30.26
603.038	30.35
603.231	30.39
603.424	30.27
603.617	30.38
603.809	30.39
604.002	30.45
604.195	30.43
604.388	30.35
604.581	30.33
604.774	30.39
604.966	30.37
605.159	30.34
605.352	30.44
605.545	30.51
605.737	30.58
605.93	30.67
606.123	30.75
606.316	30.83
606.508	31.02
606.701	31.2
606.894	31.22
607.086	31.26
607.279	31.4
607.471	31.39
607.664	31.53
607.857	31.55
608.049	31.63
608.242	31.74
608.434	31.91
608.627	31.94
608.819	31.97
609.012	32.4
609.204	32.65
609.397	32.91
609.589	33.3
609.782	33.54
609.974	33.91
610.166	34.27
610.359	34.55
610.551	34.94
610.743	35.37
610.936	35.64
611.128	35.72
611.32	35.9
611.513	35.96
611.705	36.04
611.897	36.13
612.09	36.12
612.282	36
612.474	35.93
612.666	35.74
612.858	35.61
613.051	35.68
613.243	35.51
613.435	35.35
613.627	35.34
613.819	35.08
614.011	35.04
614.203	35
614.395	35.03
614.588	34.93
614.78	34.87
614.972	34.74
615.164	34.67
615.356	34.65
615.548	34.65
615.74	34.52
615.932	34.52
616.124	34.44
616.315	34.41
616.507	34.27
616.699	34.23
616.891	34.26
617.083	34.23
617.275	34.08
617.467	34.11
617.659	34.07
617.85	34.16
618.042	34.25
618.234	34.21
618.426	34.04
618.618	33.9
618.809	33.9
619.001	33.64
619.193	33.85
619.384	33.91
619.576	33.93
619.768	33.94
619.959	33.99
620.151	33.97
620.343	33.96
620.534	34.07
620.726	34.19
620.917	34.18
621.109	34.33
621.301	34.33
621.492	34.27
621.684	34.34
621.875	34.26
622.067	34.25
622.258	34.31
622.45	34.35
622.641	34.41
622.832	34.45
623.024	34.6
623.215	34.67
623.407	34.56
623.598	34.55
623.789	34.48
623.981	34.68
624.172	34.63
624.363	34.52
624.555	34.64
624.746	34.7
624.937	34.76
625.129	34.65
625.32	34.67
625.511	34.71
625.702	34.76
625.893	34.74
626.085	34.71
626.276	34.78
626.467	34.87
626.658	34.61
626.849	34.56
627.04	34.59
627.231	34.59
627.422	34.62
627.614	34.61
627.805	34.72
627.996	34.95
628.187	34.88
628.378	34.9
628.569	34.81
628.76	35.04
628.951	35.23
629.142	35.27
629.332	35.41
629.523	35.28
629.714	35.31
629.905	35.24
630.096	35.08
630.287	35.15
630.478	35.17
630.669	35.26
630.859	35.31
631.05	35.2
631.241	35.27
631.432	35.07
631.623	35.26
631.813	35.15
632.004	35.36
632.195	35.21
632.385	35.29
632.576	35.3
632.767	35.31
632.957	35.14
633.148	35.1
633.339	34.96
633.529	35.16
633.72	35.01
633.91	35.16
634.101	34.91
634.292	35.11
634.482	35.28
634.673	35.23
634.863	35.2
635.054	35.36
635.244	35.41
635.435	35.53
635.625	35.62
635.815	35.65
636.006	35.67
636.196	35.85
636.387	35.76
636.577	35.69
636.767	35.68
636.958	35.56
637.148	35.49
637.338	35.49
637.529	35.47
637.719	35.38
637.909	35.57
638.099	35.43
638.29	35.34
638.48	35.58
638.67	35.52
638.86	35.64
639.05	35.92
639.241	36.12
639.431	36.28
639.621	36.29
639.811	36.47
640.001	36.42
640.191	36.56
640.381	36.7
640.571	36.73
640.761	36.88
640.951	36.93
641.141	36.88
641.331	36.96
641.521	36.87
641.711	36.78
641.901	36.75
642.091	36.72
642.281	36.72
642.471	36.59
642.661	36.7
642.851	36.79
643.041	36.77
643.231	36.76
643.42	36.83
643.61	36.97
643.8	37.02
643.99	36.84
644.18	37.15
644.369	37.19
644.559	37.42
644.749	37.19
644.939	36.91
645.128	36.93
645.318	37.03
645.508	37.06
645.697	37
645.887	37.04
646.076	37.23
646.266	37.17
646.456	37.35
646.645	37.4
646.835	37.52
647.024	37.59
647.214	37.44
647.403	37.44
647.593	37.44
647.782	37.38
647.972	37.57
648.161	37.7
648.351	37.74
648.54	37.45
648.73	37.4
648.919	37.42
649.108	37.57
649.298	37.69
649.487	37.93
649.677	37.88
649.866	37.91
650.055	38
650.244	38.12
650.434	37.93
650.623	38.25
650.812	38.36
651.002	38.35
651.191	38.64
651.38	38.88
651.569	38.54
651.758	38.45
651.947	38.54
652.137	38.36
652.326	38.24
652.515	38.41
652.704	38.34
652.893	38.47
653.082	38.63
653.271	38.17
653.46	38.08
653.649	38.18
653.838	38.3
654.027	38.52
654.216	38.66
654.405	38.65
654.594	38.92
654.783	38.99
654.972	38.83
655.161	38.88
655.35	39.2
655.539	39.36
655.728	39.75
655.916	39.72
656.105	39.73
656.294	39.79
656.483	39.96
656.672	39.77
656.86	39.97
657.049	39.84
657.238	39.66
657.427	39.51
657.615	39.34
657.804	39.08
657.993	39.07
658.181	38.77
658.37	38.53
658.559	38.54
658.747	38.59
658.936	38.52
659.125	38.72
659.313	38.66
659.502	38.64
659.69	38.79
659.879	38.76
660.067	38.8
660.256	38.97
660.444	39.41
660.633	39.46
660.821	39.36
661.01	39.45
661.198	39.41
661.387	39.48
661.575	39.63
661.763	39.6
661.952	39.83
662.14	40
662.328	40.14
662.517	39.82
662.705	39.74
662.893	39.59
663.082	39.31
663.27	39.53
663.458	39.73
663.646	39.97
663.834	40.26
664.023	40.35
664.211	40.22
664.399	40.34
664.587	40.48
664.775	40.47
664.963	40.87
665.152	41.13
665.34	41.22
665.528	41.28
665.716	41.17
665.904	40.95
666.092	40.88
666.28	40.95
666.468	40.75
666.656	40.91
666.844	40.91
667.032	40.84
667.22	40.71
667.408	40.51
667.596	40.54
667.784	40.2
667.971	40.24
668.159	40.43
668.347	40.53
668.535	40.49
668.723	40.29
668.911	40.43
669.098	40.63
669.286	40.74
669.474	40.74
669.662	40.8
669.849	41.03
670.037	40.98
670.225	40.63
670.413	40.64
670.6	40.65
670.788	40.96
670.976	40.85
671.163	40.66
671.351	40.68
671.538	40.7
671.726	40.8
671.913	40.69
672.101	40.5
672.289	40.74
672.476	40.65
672.664	40.82
672.851	40.52
673.039	40.71
673.226	40.78
673.413	40.93
673.601	40.92
673.788	40.62
673.976	40.81
674.163	41.07
674.35	41.1
674.538	41.15
674.725	41.09
674.912	41.21
675.1	41.15
675.287	41.24
675.474	41.07
675.662	41.07
675.849	41.34
676.036	41.38
676.223	41.38
676.411	41.31
676.598	41.46
676.785	41.59
676.972	41.63
677.159	41.68
677.346	41.72
677.533	41.62
677.721	41.54
677.908	41.45
678.095	41.78
678.282	41.88
678.469	42.1
678.656	42.03
678.843	41.98
679.03	41.9
679.217	41.81
679.404	41.55
679.591	41.66
679.778	41.89
679.964	41.95
680.151	41.81
680.338	41.53
680.525	41.66
680.712	41.71
680.899	41.91
681.086	42.16
681.272	42.07
681.459	42.3
681.646	42.48
681.833	42.43
682.02	42.54
682.206	42.54
682.393	42.9
682.58	42.7
682.766	42.77
682.953	42.68
683.14	42.57
683.326	43.05
683.513	43.15
683.7	43.17
683.886	43.41
684.073	43.17
684.259	42.93
684.446	42.98
684.632	42.99
684.819	42.98
685.005	43.08
685.192	43.08
685.378	42.65
685.565	42.68
685.751	42.61
685.938	42.31
686.124	42.57
686.31	42.66
686.497	42.4
686.683	42.46
686.87	42.47
687.056	42.18
687.242	42.26
687.429	42.63
687.615	42.71
687.801	42.86
687.987	42.83
688.174	42.89
688.36	43.2
688.546	43.57
688.732	43.76
688.918	43.81
689.105	44.14
689.291	44.15
689.477	44.09
689.663	44.07
689.849	43.97
690.035	44.39
690.221	44.48
690.407	44.32
690.593	44.32
690.779	44.33
690.965	44.48
691.151	44.55
691.337	44.56
691.523	44.48
691.709	44.54
691.895	44.64
692.081	44.57
692.267	44.47
692.453	44.66
692.639	44.59
692.825	44.44
693.011	44.43
693.196	44.05
693.382	44.06
693.568	44.14
693.754	44.24
693.94	44.28
694.125	44.09
694.311	44.32
694.497	44.11
694.682	44.15
694.868	44.21
695.054	43.95
695.239	44.17
695.425	44.31
695.611	44.53
695.796	44.21
695.982	44.27
696.168	44.19
696.353	43.89
696.539	44.1
696.724	44.09
696.91	43.86
697.095	43.87
697.281	43.78
697.466	43.37
697.652	43.04
697.837	43.17
698.023	42.96
698.208	42.91
698.393	42.96
698.579	42.71
698.764	42.83
698.949	42.78
699.135	42.92
699.32	42.8
699.505	43.04
699.691	43.02
699.876	42.88
700.061	43.14
700.246	43.16
700.432	43.16
700.617	43.31
700.802	43.17
700.987	43.51
701.172	43.8
701.358	43.93
701.543	44
701.728	44.18
701.913	44.5
702.098	44.48
702.283	44.76
702.468	44.79
702.653	44.74
702.838	44.75
703.023	44.56
703.208	44.29
703.393	45.01
703.578	45.51
703.763	45.64
703.948	45.65
704.133	45.88
704.318	46.03
704.503	46.45
704.688	47.1
704.873	47.09
705.057	47.36
705.242	47.35
705.427	47.26
705.612	47.1
705.797	47.58
705.981	47.61
706.166	47.57
706.351	47.78
706.536	47.59
706.72	47.41
706.905	47.64
707.09	47.94
707.274	47.72
707.459	47.51
707.644	47.41
707.828	47.21
708.013	47.41
708.197	47.42
708.382	47.27
708.567	47.44
708.751	47.32
708.936	47.14
709.12	46.98
709.305	47.15
709.489	47.35
709.673	47.49
709.858	47.57
710.042	47.39
710.227	47.21
710.411	47.29
710.596	47.13
710.78	47.16
710.964	47.37
711.149	47.09
711.333	47.14
711.517	46.78
711.702	46.53
711.886	46.43
712.07	46.31
712.254	46.21
712.438	46.05
712.623	46.04
712.807	45.99
712.991	46.01
713.175	45.96
713.359	45.88
713.544	46.06
713.728	46.02
713.912	45.96
714.096	45.99
714.28	46.22
714.464	46.37
714.648	46.33
714.832	46.24
715.016	45.78
715.2	45.81
715.384	45.95
715.568	45.93
715.752	46.02
715.936	45.78
716.12	45.58
716.304	45.43
716.488	45.42
716.671	45.31
716.855	45.52
717.039	45.71
717.223	45.76
717.407	45.93
717.59	45.91
717.774	45.78
717.958	46.07
718.142	46.4
718.325	46.42
718.509	46
718.693	45.89
718.877	46.13
719.06	45.91
719.244	45.95
719.428	45.88
719.611	46.14
719.795	46.66
719.978	46.59
720.162	46.93
720.345	46.96
720.529	47.34
720.713	47.67
720.896	47.01
721.08	47.36
721.263	47.46
721.446	47.14
721.63	46.72
721.813	46.27
721.997	46.35
722.18	45.92
722.364	46.29
722.547	45.96
722.73	45.71
722.914	46.19
723.097	46.3
723.28	46.03
723.464	46.67
723.647	47.03
723.83	46.89
724.013	46.59
724.197	47.16
724.38	47.04
724.563	47.36
724.746	47.54
724.929	47.32
725.112	47.5
725.296	47.71
725.479	46.98
725.662	46.97
725.845	47.09
726.028	46.98
726.211	46.38
726.394	46.23
726.577	46.03
726.76	45.8
726.943	45.6
727.126	45.64
727.309	45.75
727.492	45.99
727.675	46.05
727.858	46.17
728.041	46.5
728.224	46.56
728.407	46.25
728.589	46.54
728.772	46.52
728.955	47.12
729.138	46.79
729.321	46.92
729.503	46.86
729.686	47.15
729.869	47.31
730.052	47.05
730.234	47.08
730.417	47.5
730.6	47.31
730.782	47.4
730.965	46.75
731.148	46.89
731.33	47.01
731.513	46.93
731.695	46.69
731.878	46.71
732.061	46.82
732.243	46.5
732.426	46.12
732.608	46.12
732.791	46.52
732.973	46.6
733.156	46.34
733.338	46.12
733.52	46.15
733.703	45.78
733.885	45.66
734.068	45.63
734.25	45.68
734.432	45.76
734.615	45.81
734.797	45.71
734.979	45.94
735.162	46.18
735.344	46.18
735.526	45.94
735.708	46.03
735.891	45.75
736.073	46.02
736.255	45.84
736.437	46.22
736.619	46.48
736.802	46.51
736.984	46.39
737.166	46.26
737.348	46.28
737.53	46.45
737.712	46.68
737.894	47.01
738.076	46.97
738.258	47.33
738.44	47.17
738.622	46.56
738.804	46.66
738.986	46.33
739.168	46.79
739.35	46.57
739.532	46.89
739.714	47.06
739.896	46.93
740.078	47.28
740.259	47.97
740.441	48.12
740.623	48.6
740.805	48.48
740.987	49.29
741.168	49.14
741.35	49.08
741.532	49.13
741.714	48.8
741.895	48.92
742.077	48.28
742.259	47.92
742.44	47.76
742.622	47.59
742.804	47.59
742.985	47.82
743.167	48.19
743.348	48.76
743.53	48.74
743.711	49.06
743.893	48.96
744.075	49.21
744.256	48.8
744.438	48.67
744.619	48.62
744.8	48.24
744.982	47.78
745.163	47.3
745.345	47.26
745.526	47.5
745.707	46.98
745.889	47.24
746.07	47.6
746.252	48.48
746.433	49.06
746.614	49.95
746.795	50.39
746.977	49.78
747.158	49.6
747.339	49.78
747.52	49.43
747.702	49.55
747.883	49.5
748.064	49.46
748.245	48.69
748.426	48.5
748.607	48.1
748.788	48.51
748.97	49.26
749.151	49.89
749.332	49.76
749.513	49.9
749.694	49.92
749.875	49.64
750.056	49.25
750.237	49.7
750.418	50.15
750.599	49.99
750.78	49.57
750.96	48.93
751.141	48.81
751.322	48.77
751.503	48.92
751.684	48.89
751.865	49.59
752.046	50.05
752.226	50.29
752.407	49.7
752.588	49.71
752.769	49.03
752.949	49.32
753.13	48.86
753.311	48.13
753.492	47.97
753.672	48.03
753.853	46.55
754.034	46.13
754.214	46.09
754.395	46.24
754.575	46.66
754.756	47.72
754.937	47.89
755.117	48.75
755.298	49.18
755.478	49.01
755.659	48.94
755.839	49.99
756.02	50.12
756.2	49.87
756.381	50.18
756.561	49.61
756.741	49.25
756.922	49.06
757.102	47.95
757.283	48.11
757.463	48.64
757.643	49.12
757.823	48.82
758.004	49.28
758.184	48.89
758.364	48.76
758.545	49.16
758.725	48.49
758.905	48.95
759.085	49.27
759.265	48.77
759.446	47.56
759.626	47.25
759.806	47.09
759.986	46.18
760.166	46.19
760.346	45.27
760.526	44.44
760.706	44.89
760.886	44.17
761.066	43.65
761.246	43.55
761.426	44.19
761.606	43.79
761.786	43.66
761.966	43.44
762.146	43.55
762.326	44.27
762.506	44.26
762.686	43.96
762.866	43.81
763.046	43.8
763.225	43.65
763.405	43.18
763.585	43.04
763.765	43.4
763.945	43.8
764.124	43.62
764.304	43.18
764.484	43.46
764.664	43.59
764.843	43.67
765.023	43.96
765.203	44.55
765.382	45.43
765.562	45.79
765.741	45.84
765.921	46.23
766.101	46.73
766.28	47.06
766.46	47.25
766.639	47.34
766.819	48.06
766.998	47.89
767.178	47.88
767.357	47.67
767.537	47.94
767.716	47.66
767.896	46.9
768.075	46.66
768.254	46.19
768.434	46.59
768.613	46.72
768.792	47.03
768.972	47.78
769.151	47.7
769.33	47.18
769.51	47.18
769.689	47.42
769.868	48.05
770.047	48.34
770.226	49.35
770.406	48.83
770.585	49.05
770.764	48.39
770.943	47.94
771.122	47.97
771.301	49.1
771.48	48.85
771.66	49.58
771.839	49.91
772.018	49.31
772.197	48.92
772.376	49.19
772.555	49.51
772.734	50.08
772.913	50.7
773.092	50.73
773.271	50.15
773.449	49.53
773.628	48.56
773.807	48.03
773.986	48.32
774.165	48.72
774.344	48.45
774.523	48.17
774.701	47.57
774.88	46.79
775.059	47.44
775.238	47.39
775.417	48.84
775.595	49.54
775.774	49.69
775.953	50.06
776.131	49.99
776.31	49.59
776.489	49.09
776.667	49.37
776.846	49.36
777.025	48.55
777.203	47.84
777.382	47.11
777.56	46.8
777.739	47.28
777.917	46.98
778.096	47.41
778.274	47.29
778.453	47.65
778.631	47.21
778.81	47.27
778.988	47.49
779.166	48.47
779.345	49.03
779.523	48.13
779.702	47.09
779.88	47.51
780.058	46.4
780.237	46.96
780.415	46.73
780.593	47.04
780.771	47.22
780.95	46.95
781.128	46.22
781.306	45.15
781.484	45.46
781.662	46.45
781.841	46.39
782.019	46.82
782.197	46.74
782.375	46.57
782.553	46.25
782.731	45.74
782.909	46.36
783.087	47.14
783.265	47.86
783.443	48.16
783.621	48.9
783.799	47.83
783.977	48.32
784.155	47.79
784.333	48.45
784.511	48.18
784.689	49.05
784.867	49.4
785.045	48.93
785.223	49.48
785.4	50.53
785.578	49.82
785.756	50.84
785.934	50.01
786.112	50.58
786.289	49.64
786.467	49.98
786.645	49.18
786.823	47.68
787	48.11
787.178	47.32
787.356	46.21
787.533	45.56
787.711	44.98
787.889	44.94
788.066	45.09
788.244	45.03
788.421	45.98
788.599	45.91
788.776	46.24
788.954	45.51
789.131	45.83
789.309	45.94
789.486	46.14
789.664	46.63
789.841	47.42
790.019	46.94
790.196	47.5
790.373	46.41
790.551	47.41
790.728	48.32
790.906	48.57
791.083	48.72
791.26	48.87
791.437	48.57
791.615	48.56
791.792	48.31
791.969	49.53
792.146	50.63
792.324	51.5
792.501	51.85
792.678	50.77
792.855	51.27
793.032	50.78
793.209	52.01
793.387	52.81
793.564	52.93
793.741	52.52
793.918	50.42
794.095	49.75
794.272	49.51
794.449	48.6
794.626	48.91
794.803	48.4
794.98	47.93
795.157	45.82
795.334	46.31
795.511	46.22
795.688	46.51
795.864	47
796.041	47.76
796.218	47.68
796.395	47.79
796.572	47.89
796.749	48.23
796.925	49.09
797.102	51.03
797.279	49.94
797.456	49.68
797.632	50.31
797.809	50.72
797.986	49.49
798.162	49.4
798.339	49.34
798.516	49.43
798.692	48.95
798.869	49.51
799.046	47.95
799.222	47.7
799.399	47.93
799.575	47.31
799.752	47.87
799.928	49.05
800.105	49.43
800.281	49.18
800.458	50.51
800.634	51.05
800.811	51.01
800.987	52.52
801.163	53.52
801.34	53.37
801.516	53.97
801.692	54.03
801.869	54.23
802.045	54.32
802.221	54.26
802.398	53.45
802.574	54.49
802.75	53.27
802.926	53.01
803.103	52.39
803.279	52.73
803.455	52.34
803.631	51.93
803.807	50.99
803.983	51.59
804.16	53.53
804.336	53.08
804.512	51.25
804.688	52.35
804.864	51.43
805.04	52.6
805.216	53.57
805.392	54.19
805.568	56.32
805.744	56.42
805.92	56.67
806.096	55.27
806.272	55.1
806.448	56.39
806.623	57.04
806.799	56.9
806.975	56.08
807.151	54.84
807.327	54.33
807.503	52.07
807.678	51.12
807.854	51.05
808.03	51.09
808.206	51.36
808.381	50.54
808.557	49.8
808.733	49.51
808.908	50.56
809.084	52.36
809.26	52.87
809.435	53
809.611	53.52
809.787	53.31
809.962	53.09
810.138	53.72
810.313	54.84
810.489	54.85
810.664	55.64
810.84	55.15
811.015	54.22
811.191	53.74
811.366	54.28
811.542	54.44
811.717	54.67
811.892	54.21
812.068	54.78
812.243	55.58
812.419	55.75
812.594	56.16
812.769	56.6
812.944	56.66
813.12	56.76
813.295	57.06
813.47	56.07
813.645	54.75
813.821	54.25
813.996	52.59
814.171	52.63
814.346	52.44
814.521	52.38
814.697	52.63
814.872	51.28
815.047	51.09
815.222	51.58
815.397	54.15
815.572	55.43
815.747	55.8
815.922	55.26
816.097	54.37
816.272	54.54
816.447	54.5
816.622	54.32
816.797	55.31
816.972	55.15
817.147	54.19
817.322	51.36
817.496	49.77
817.671	50.21
817.846	51.47
818.021	51.42
818.196	50.12
818.371	49.32
818.545	48.81
818.72	47.68
818.895	46.82
819.069	47.02
819.244	47.49
819.419	47.07
819.594	44.9
819.768	44.19
819.943	42.67
820.117	42.59
820.292	41.59
820.467	40.37
820.641	39.62
820.816	38.46
820.99	37.25
821.165	36.9
821.339	36.34
821.514	36.46
821.688	35.64
821.863	35.23
822.037	34.74
822.212	34.44
822.386	34.05
822.56	33.82
822.735	33.78
822.909	33.78
823.084	33.38
823.258	33.4
823.432	33.32
823.606	33.38
823.781	33.48
823.955	33.61
824.129	33.92
824.303	34.05
824.478	34.32
824.652	34.86
824.826	35.04
825	35.76
825.174	36.07
825.348	36.35
825.523	36.96
825.697	37.39
825.871	37.69
826.045	37.93
826.219	38.15
826.393	38
826.567	37.99
826.741	38.3
826.915	38.01
827.089	38.21
827.263	37.7
827.437	37.34
827.611	37.54
827.784	37.48
827.958	37.21
828.132	37.78
828.306	38.01
828.48	38.09
828.654	37.82
828.827	38.67
829.001	38.81
829.175	39.91
829.349	40.62
829.522	40.85
829.696	41.79
829.87	43.14
830.044	44.62
830.217	46.4
830.391	46.59
830.565	47.08
830.738	46.75
830.912	46.7
831.085	47.48
831.259	48.07
831.432	47.94
831.606	48.92
831.779	48.71
831.953	47.64
832.126	47.08
832.3	46.76
832.473	46.06
832.647	44.97
832.82	44.85
832.994	43.12
833.167	42.78
833.34	41.81
833.514	40.3
833.687	39.66
833.86	38.41
834.034	37.32
834.207	37.9
834.38	38.21
834.553	39.11
834.727	38.76
834.9	39.33
835.073	38.95
835.246	39.76
835.419	40.75
835.593	40.99
835.766	42.6
835.939	43.97
836.112	44.14
836.285	44.86
836.458	44.93
836.631	46.56
836.804	47.66
836.977	49.01
837.15	51.09
837.323	50.69
837.496	52.69
837.669	53.64
837.842	53.9
838.015	56.64
838.188	59.42
838.361	59.89
838.533	58.81
838.706	61.44
838.879	60.29
839.052	59.07
839.225	60.99
839.398	58.76
839.57	58.27
839.743	58.41
839.916	56.65
840.088	53.27
840.261	52.16
840.434	54.4
840.607	53.2
840.779	55.82
840.952	57.4
841.124	55.45
841.297	57.52
841.47	55.6
841.642	56.9
841.815	57.68
841.987	60.07
842.16	61.47
842.332	59.66
842.505	60.21
842.677	60.74
842.85	59.9
843.022	64.19
843.194	62.1
843.367	64.13
843.539	64.59
843.712	65.66
843.884	66.32
844.056	66.8
844.229	68.51
844.401	71.86
844.573	74.39
844.745	77.21
844.918	71.18
845.09	74.06
845.262	77.68
845.434	74.48
845.606	73.24
845.779	76.8
845.951	76.28
846.123	75.26
846.295	74.8
846.467	72.22
846.639	73.39
846.811	77
846.983	78.48
847.155	75.96
847.327	80.76
847.499	81.98
847.671	81.83
847.843	87.55
848.015	87.23
848.187	84.91
848.359	85.74
848.531	80.12
848.703	86.32
848.875	85.21
849.047	84.97
849.218	84.18
849.39	83.84
849.562	82.94
849.734	85.49
849.905	91.19
850.077	93.19
850.249	93.11
850.421	94.49
850.592	89.24
850.764	87.12
850.936	88.11
851.107	89.47
851.279	90.96
851.451	90.51
851.622	86.53
851.794	85.48
851.965	84.96
852.137	85.45
852.308	85.88
852.48	88.33
852.651	90.32
852.823	93.7
852.994	91.42
853.166	92.2
853.337	90
853.509	92.05
853.68	88.89
853.851	88.19
854.023	86.61
854.194	87.5
854.365	85.92
854.537	92.01
854.708	93.04
854.879	103.64
855.05	99.71
855.222	101.8
855.393	99.95
855.564	101.9
855.735	101.62
855.906	107.51
856.078	104.77
856.249	107.01
856.42	101.92
856.591	99.12
856.762	89.9
856.933	93.4
857.104	94.96
857.275	97.69
857.446	97.72
857.617	100.42
857.788	93.71
857.959	101.34
858.13	104.36
858.301	102.33
858.472	105.74
858.643	105.4
858.814	106.39
858.985	105.13
859.155	102.97
859.326	96.52
859.497	97.73
859.668	101.57
859.839	92.53
860.009	88.06
860.18	91.23
860.351	87.29
860.522	88.85
860.692	89.25
860.863	90.32
861.034	95.07
861.204	100.03
861.375	99.62
861.546	101.82
861.716	100.69
861.887	107.99
862.057	106.42
862.228	109.69
862.398	114.18
862.569	115.65
862.739	113.69
862.91	108.24
863.08	113.3
863.251	106.16
863.421	105.07
863.592	110.9
863.762	102.5
863.932	103.34
864.103	101.68
864.273	104.82
864.443	102.37
864.614	99.66
864.784	97.84
864.954	99.97
865.125	102.12
865.295	100.19
865.465	100.18
865.635	101.82
865.805	98.74
865.976	95.4
866.146	92.48
866.316	95.57
866.486	94.17
866.656	97.29
866.826	94.82
866.996	96.24
867.166	97.08
867.336	99.4
867.506	97.87
867.676	98.15
867.846	108.14
868.016	102.74
868.186	100.47
868.356	102.59
868.526	98.49
868.696	97.39
868.866	97.4
869.036	91.75
869.206	92.39
869.376	91.95
869.545	97.53
869.715	93.48
869.885	93.64
870.055	93.55
870.224	96.92
870.394	99.14
870.564	95.97
870.734	94.45
870.903	98.47
871.073	96.52
871.243	99.71
871.412	96.06
871.582	93.22
871.751	97.72
871.921	97.33
872.091	96.11
872.26	94.88
872.43	92.11
872.599	92.44
872.769	94.78
872.938	89.01
873.108	86.19
873.277	89.96
873.446	94.33
873.616	95.93
873.785	98.08
873.955	101.67
874.124	101.44
874.293	107.45
874.463	106.39
874.632	97.5
874.801	104.12
874.971	106.86
875.14	100.91
875.309	96.76
875.478	91.48
875.647	82.81
875.817	79.1
875.986	83.42
876.155	83.48
876.324	85.49
876.493	86.16
876.662	82.59
876.831	82.6
877	85.46
877.17	89.72
877.339	87.88
877.508	89.34
877.677	83.51
877.846	77.52
878.015	76.22
878.184	77.58
878.352	85.8
878.521	85.48
878.69	85.51
878.859	81.22
879.028	76.98
879.197	75.33
879.366	75.39
879.534	79.66
879.703	80.91
879.872	77.05
880.041	68.79
880.21	60.67
880.378	56.26
880.547	51.23
880.716	47.64
880.884	45.16
881.053	43.64
881.222	43.3
881.39	39.9
881.559	37.24
881.727	36.26
881.896	36.28
882.065	35.92
882.233	35.09
882.402	34.83
882.57	34.66
882.739	34.4
882.907	34.61
883.076	33.56
883.244	33.93
883.412	34.76
883.581	35.07
883.749	35.37
883.918	35.59
884.086	37.12
884.254	38.84
884.423	40.71
884.591	41.75
884.759	42.05
884.927	43.78
885.096	46.11
885.264	49.11
885.432	53.49
885.6	55.3
885.769	57.91
885.937	61.48
886.105	63.98
886.273	67.46
886.441	72.5
886.609	76.06
886.777	79.29
886.945	80.01
887.113	81.67
887.281	80.01
887.449	80.47
887.617	87.12
887.785	83.46
887.953	84.53
888.121	79.88
888.289	76.9
888.457	78.21
888.625	78.63
888.793	82.9
888.961	81.62
889.129	81.96
889.296	83.57
889.464	79.17
889.632	84.7
889.8	79.99
889.967	85.14
890.135	88.74
