Data from 2938714__Reflection_01.txt Node
Date: Tue Mar 17 19:10:48 EDT 2015
User: robert
Spectrometer: USB4E03002
Autoset integration time: false
Trigger mode: 4
Integration Time (sec): 1.000000E-1
Scans to average: 10
Electric dark correction enabled: false
Nonlinearity correction enabled: false
Boxcar width: 5
Stray light correction enabled: false
XAxis mode: Wavelengths
Stop averaging: false
Number of Pixels in Spectrum: 3648
>>>>>Begin Spectral Data<<<<<
177.575	222.57
177.794	183.29
178.014	180.3
178.233	328.19
178.452	318.83
178.672	566.04
178.891	1120.99
179.11	1580.33
179.33	1703.33
179.549	-894.06
179.768	-1523.44
179.987	-206.03
180.207	-158.22
180.426	-146.48
180.645	-364.14
180.864	-387.35
181.084	-329.46
181.303	-519.77
181.522	-333.96
181.741	-202.27
181.96	-356.62
182.179	-345.67
182.398	-495.95
182.618	-589.71
182.837	-645.99
183.056	-462
183.275	-425.71
183.494	-1386.49
183.713	-943.48
183.932	-825.3
184.151	-788.54
184.37	-1208.26
184.589	-2638.18
184.808	2808.47
185.027	-1261.82
185.246	-1106.15
185.465	-1154.87
185.684	-987.27
185.903	-278.3
186.122	-261.14
186.341	-286.86
186.56	-1370
186.779	-465.08
186.998	-319.01
187.216	-238.69
187.435	-456.93
187.654	-501.08
187.873	-363.07
188.092	-840.38
188.311	1033.33
188.53	925
188.748	1860.87
188.967	-321.74
189.186	-463.95
189.405	-784.78
189.623	-661.83
189.842	-866.67
190.061	-308.39
190.28	-629.19
190.498	-401.39
190.717	-352.92
190.936	-327.78
191.154	-839.57
191.373	-2386
191.592	-3133.33
191.81	3068.29
192.029	1438.64
192.248	-3552.94
192.466	1623.61
192.685	-5330
192.904	3470
193.122	492.14
193.341	905.45
193.559	425.58
193.778	591.67
193.996	276.33
194.215	267.33
194.433	243.45
194.652	146.51
194.87	150.85
195.089	132.57
195.307	133.03
195.526	193.15
195.744	203.5
195.963	248.77
196.181	223.6
196.399	327.36
196.618	497.4
196.836	605.65
197.055	12462.5
197.273	1242.86
197.491	17433.33
197.71	-237.38
197.928	-98300
198.146	730.67
198.365	-2675.68
198.583	13914.29
198.801	1492.42
199.019	1844.44
199.238	2959.38
199.456	572.63
199.674	542.67
199.892	486.7
200.111	260.78
200.329	721.13
200.547	1323.68
200.765	529.95
200.983	2750
201.202	-3793.75
201.42	6788.89
201.638	1108
201.856	-5679.17
202.074	1201.77
202.292	553.88
202.51	1267.86
202.728	408.15
202.946	375.56
203.165	395.62
203.383	283.57
203.601	207.2
203.819	211.87
204.037	240.07
204.255	208.88
204.473	257.28
204.691	314.72
204.909	357.55
205.127	359.46
205.345	371.23
205.562	302.43
205.78	335.4
205.998	452.2
206.216	450.68
206.434	319.64
206.652	272.68
206.87	434.52
207.088	277.2
207.306	265.78
207.523	3925
207.741	1037.7
207.959	2075.68
208.177	489.66
208.395	349.81
208.612	283.08
208.83	911.11
209.048	-2158.82
209.266	2693.55
209.483	-3014.29
209.701	767.57
209.919	216.41
210.136	211.32
210.354	223.26
210.572	265.38
210.79	271.23
211.007	402.64
211.225	231.02
211.442	232.11
211.66	214.13
211.878	232.65
212.095	291.19
212.313	359.51
212.53	415.71
212.748	316.04
212.966	230.24
213.183	235
213.401	202.22
213.618	290.06
213.836	278
214.053	280
214.271	309.8
214.488	269.88
214.705	249.08
214.923	233.08
215.14	274.89
215.358	385.02
215.575	384.53
215.793	1485.48
216.01	519.74
216.227	278.32
216.445	235.06
216.662	193.26
216.879	178.56
217.097	177.46
217.314	169.91
217.531	157.1
217.749	169.82
217.966	147.3
218.183	128.21
218.4	130.47
218.618	119.67
218.835	126.7
219.052	116.06
219.269	116.55
219.487	113.2
219.704	104.66
219.921	100.15
220.138	86.22
220.355	103.4
220.572	95.33
220.79	84.53
221.007	95.5
221.224	83.96
221.441	93.36
221.658	89.26
221.875	85.61
222.092	88.06
222.309	83.98
222.526	84.4
222.743	75.15
222.96	72.51
223.177	71.7
223.394	62.7
223.611	65.99
223.828	56.67
224.045	49.98
224.262	41.99
224.479	36.68
224.696	32.67
224.913	33.61
225.13	32.13
225.347	29.09
225.564	26.14
225.781	23.11
225.997	19.53
226.214	19.04
226.431	17.92
226.648	16.57
226.865	15.02
227.082	12.76
227.298	11.94
227.515	12.48
227.732	12.47
227.949	12.67
228.165	11.59
228.382	10.06
228.599	9.42
228.816	10.48
229.032	10.33
229.249	10.63
229.466	9.99
229.682	9.9
229.899	9.48
230.116	8.76
230.332	8.47
230.549	9.71
230.765	10.1
230.982	10.24
231.199	9.89
231.415	11.48
231.632	11.08
231.848	12.47
232.065	13.09
232.281	14.72
232.498	14.69
232.714	14.12
232.931	14.73
233.147	15.53
233.364	16.51
233.58	14.56
233.797	14.21
234.013	13.4
234.23	13.01
234.446	12.33
234.662	11.58
234.879	12.46
235.095	12.68
235.312	13.02
235.528	12.26
235.744	13.16
235.961	15.66
236.177	14.11
236.393	17.79
236.61	18.77
236.826	19.56
237.042	19.3
237.258	20.72
237.475	22.2
237.691	20.85
237.907	21.86
238.123	20.13
238.339	20.31
238.556	21.74
238.772	18.89
238.988	17.64
239.204	17.22
239.42	18.03
239.636	16.63
239.853	14.76
240.069	15.17
240.285	14.46
240.501	13.69
240.717	11.82
240.933	11.51
241.149	11.37
241.365	11.36
241.581	11.19
241.797	10.48
242.013	10.22
242.229	10.69
242.445	10.03
242.661	9.63
242.877	9.9
243.093	10.45
243.309	10.08
243.525	10.13
243.741	10.5
243.957	10.45
244.173	10.43
244.388	10.61
244.604	10.15
244.82	10.61
245.036	10.31
245.252	9.87
245.468	9.51
245.683	9.48
245.899	9.18
246.115	8.31
246.331	8
246.547	7.76
246.762	7.2
246.978	7.33
247.194	6.94
247.409	6.95
247.625	6.94
247.841	6.52
248.057	6.18
248.272	6.18
248.488	6.36
248.703	6.29
248.919	6.91
249.135	7.47
249.35	7.34
249.566	8.05
249.782	8.34
249.997	8.84
250.213	9.39
250.428	10.05
250.644	9.47
250.859	9.6
251.075	9.87
251.29	8.89
251.506	9.29
251.721	9.36
251.937	9.25
252.152	8.74
252.368	8.08
252.583	8.26
252.798	7.8
253.014	8.08
253.229	8.37
253.445	7.55
253.66	7.81
253.875	6.4
254.091	6.17
254.306	5.82
254.521	6.25
254.737	5.51
254.952	5.11
255.167	5.08
255.383	6.32
255.598	6.34
255.813	6.89
256.028	7.42
256.244	8.47
256.459	8.21
256.674	7.34
256.889	7.44
257.104	8.49
257.32	8.43
257.535	8.66
257.75	7.85
257.965	7.35
258.18	7.97
258.395	6.85
258.61	6.43
258.826	6.35
259.041	6.35
259.256	6.35
259.471	6.01
259.686	6
259.901	5.92
260.116	5.91
260.331	5.99
260.546	5.51
260.761	5.86
260.976	5.99
261.191	5.96
261.406	6.25
261.621	6.42
261.836	6.66
262.05	6.86
262.265	6.92
262.48	7
262.695	6.69
262.91	7.08
263.125	6.12
263.34	5.75
263.555	5.78
263.769	5.58
263.984	4.8
264.199	4.77
264.414	4.09
264.629	4.19
264.843	4.51
265.058	4.9
265.273	4.83
265.488	5.18
265.702	5.29
265.917	5.38
266.132	5.5
266.346	5.41
266.561	5.33
266.776	5.48
266.99	5.19
267.205	4.73
267.42	4.77
267.634	4.74
267.849	4.87
268.063	5.1
268.278	4.83
268.492	4.93
268.707	5.18
268.922	5.44
269.136	5.57
269.351	5.96
269.565	6.1
269.78	6.16
269.994	5.47
270.209	5.63
270.423	5.17
270.637	5.4
270.852	4.98
271.066	5.26
271.281	5.4
271.495	5.47
271.709	5.64
271.924	5.33
272.138	4.93
272.353	5.15
272.567	4.85
272.781	5.16
272.996	4.8
273.21	5.02
273.424	4.59
273.638	3.96
273.853	3.85
274.067	3.21
274.281	3.62
274.495	3.81
274.71	4.11
274.924	4.4
275.138	3.9
275.352	4.38
275.566	4.24
275.781	4.54
275.995	4.76
276.209	4.71
276.423	4.83
276.637	5.15
276.851	4.78
277.065	4.79
277.279	5.1
277.493	6.04
277.707	6.39
277.921	6.43
278.135	6.5
278.349	6.62
278.563	6.08
278.777	6
278.991	5.64
279.205	6.11
279.419	5.95
279.633	5.53
279.847	5.21
280.061	4.44
280.275	4.51
280.489	4.83
280.703	4.65
280.917	5.33
281.131	5.59
281.344	5.4
281.558	5.39
281.772	5.48
281.986	5.77
282.2	5.53
282.414	6.02
282.627	5.72
282.841	5.32
283.055	5.03
283.269	4.83
283.482	4.89
283.696	5.07
283.91	4.99
284.123	4.85
284.337	4.6
284.551	4.64
284.764	4.21
284.978	4.27
285.192	4.27
285.405	4.72
285.619	4.51
285.833	4.37
286.046	3.95
286.26	3.94
286.473	4.04
286.687	4.04
286.9	3.99
287.114	4.26
287.327	4.3
287.541	4.37
287.754	4.42
287.968	4.59
288.181	4.59
288.395	5.12
288.608	5.34
288.822	5.29
289.035	5.59
289.248	5.82
289.462	5.54
289.675	5.63
289.889	5.6
290.102	5.52
290.315	5.64
290.529	5.53
290.742	5.23
290.955	5.4
291.169	5.48
291.382	5.36
291.595	5.38
291.808	5.46
292.022	5.68
292.235	6
292.448	6
292.661	5.76
292.875	5.98
293.088	6.32
293.301	6.35
293.514	6.43
293.727	6.45
293.94	6.04
294.153	5.84
294.367	5.26
294.58	5.01
294.793	5.04
295.006	5.18
295.219	5.09
295.432	5
295.645	4.79
295.858	4.65
296.071	4.61
296.284	4.93
296.497	4.94
296.71	5.02
296.923	5.04
297.136	5.09
297.349	5.2
297.562	5.28
297.775	5.27
297.988	5.29
298.201	5.68
298.414	5.82
298.626	5.75
298.839	5.97
299.052	6.89
299.265	6.84
299.478	7.1
299.691	7.12
299.903	6.79
300.116	6.85
300.329	7.23
300.542	6.73
300.755	6.79
300.967	6.99
301.18	7.14
301.393	6.44
301.605	6.54
301.818	6.42
302.031	6.69
302.243	7.33
302.456	7.38
302.669	6.93
302.881	7.41
303.094	7.48
303.307	7.22
303.519	7.17
303.732	7.4
303.944	7.7
304.157	7.89
304.37	7.99
304.582	8.09
304.795	8.24
305.007	8.39
305.22	8.29
305.432	8.11
305.645	8.42
305.857	8.62
306.069	8.76
306.282	8.72
306.494	8.59
306.707	8.63
306.919	8.32
307.132	8.32
307.344	8.39
307.556	8.33
307.769	8.58
307.981	8.58
308.193	8.55
308.406	8.46
308.618	8.2
308.83	7.96
309.043	7.48
309.255	8.04
309.467	7.81
309.679	7.77
309.892	7.73
310.104	7.68
310.316	7.83
310.528	7.83
310.74	7.76
310.953	7.79
311.165	8.1
311.377	8.35
311.589	8.01
311.801	8.18
312.013	8.58
312.225	8.59
312.437	9
312.649	9.15
312.862	9.15
313.074	9.17
313.286	9.56
313.498	9.42
313.71	9.49
313.922	9.29
314.134	9.52
314.346	9.02
314.558	9.37
314.77	8.97
314.982	8.88
315.193	9.01
315.405	9.01
315.617	8.63
315.829	8.67
316.041	8.73
316.253	9.21
316.465	8.99
316.677	9.16
316.888	8.94
317.1	8.77
317.312	8.35
317.524	8.12
317.736	8.69
317.947	9.15
318.159	9.32
318.371	9.44
318.583	9.56
318.794	9.84
319.006	9.96
319.218	10.23
319.43	10.4
319.641	11.07
319.853	11.34
320.064	10.94
320.276	11.07
320.488	11.53
320.699	11.32
320.911	11.09
321.123	11.39
321.334	11.67
321.546	11.73
321.757	12.02
321.969	11.88
322.18	11.8
322.392	11.75
322.603	11.28
322.815	10.78
323.026	10.71
323.238	10.9
323.449	10.86
323.661	10.41
323.872	10.37
324.083	10.24
324.295	10.49
324.506	10.61
324.718	10.79
324.929	11.43
325.14	11.59
325.352	12.06
325.563	12.13
325.774	12.13
325.986	12.28
326.197	12.24
326.408	12.22
326.62	11.9
326.831	12.22
327.042	12.19
327.253	12.3
327.464	12.51
327.676	12.58
327.887	12.8
328.098	12.77
328.309	12.7
328.52	12.98
328.732	13.09
328.943	13.13
329.154	13.02
329.365	13.05
329.576	12.85
329.787	13.05
329.998	12.83
330.209	12.75
330.42	13.47
330.631	13.94
330.842	13.78
331.053	14.05
331.264	14.29
331.475	14.84
331.686	15.04
331.897	14.6
332.108	14.62
332.319	15.06
332.53	15
332.741	14.26
332.952	14.22
333.163	14.62
333.374	14.72
333.585	14.82
333.795	14.35
334.006	14.28
334.217	14.31
334.428	13.9
334.639	13.75
334.849	13.77
335.06	13.95
335.271	13.78
335.482	13.77
335.692	13.23
335.903	13.18
336.114	13.35
336.325	13.52
336.535	13.84
336.746	14.05
336.957	14.05
337.167	14.22
337.378	14.28
337.589	14.37
337.799	14.14
338.01	14.29
338.22	14.3
338.431	14.34
338.642	14.15
338.852	14.3
339.063	14.19
339.273	14.17
339.484	14.19
339.694	14.21
339.905	14.22
340.115	14.3
340.326	14.37
340.536	14.45
340.746	14.31
340.957	14.46
341.167	14.32
341.378	14.37
341.588	14.36
341.799	14.19
342.009	14.16
342.219	14.35
342.43	14.38
342.64	14.33
342.85	13.99
343.061	13.8
343.271	13.67
343.481	13.8
343.691	13.74
343.902	13.61
344.112	13.54
344.322	13.38
344.532	13.14
344.743	13.06
344.953	13.05
345.163	13.17
345.373	13.27
345.583	12.98
345.793	12.84
346.004	13.23
346.214	13.11
346.424	13.1
346.634	13.25
346.844	13.27
347.054	13.38
347.264	13.65
347.474	13.63
347.684	13.57
347.894	14.05
348.104	14.04
348.314	13.9
348.524	13.88
348.734	13.97
348.944	13.66
349.154	13.72
349.364	13.45
349.574	13
349.784	13.12
349.994	13.2
350.204	13.1
350.413	13.26
350.623	12.99
350.833	13.12
351.043	13
351.253	13.41
351.463	13.4
351.672	13.53
351.882	13.66
352.092	13.8
352.302	13.78
352.511	13.61
352.721	13.48
352.931	13.58
353.141	13.86
353.35	13.98
353.56	13.84
353.77	13.74
353.979	13.81
354.189	14.05
354.399	13.83
354.608	13.81
354.818	13.95
355.027	13.77
355.237	13.73
355.447	13.4
355.656	13.32
355.866	12.99
356.075	13.02
356.285	12.96
356.494	12.98
356.704	12.84
356.913	12.62
357.123	12.38
357.332	12.43
357.542	12.34
357.751	12.35
357.96	12.43
358.17	12.61
358.379	12.63
358.589	12.65
358.798	12.59
359.007	12.5
359.217	12.5
359.426	12.54
359.635	12.56
359.845	12.63
360.054	12.72
360.263	12.48
360.472	12.48
360.682	12.44
360.891	12.42
361.1	12.24
361.309	12.36
361.519	12.47
361.728	12.4
361.937	12.23
362.146	12.01
362.355	11.82
362.564	11.89
362.774	11.86
362.983	11.83
363.192	11.64
363.401	11.48
363.61	11.47
363.819	11.46
364.028	11.46
364.237	11.5
364.446	11.79
364.655	11.84
364.864	11.82
365.073	11.97
365.282	11.99
365.491	12.06
365.7	12.13
365.909	12.13
366.118	11.94
366.327	11.96
366.536	12.02
366.745	11.87
366.954	11.72
367.162	11.66
367.371	11.42
367.58	11.45
367.789	11.5
367.998	11.6
368.207	11.54
368.415	11.58
368.624	11.52
368.833	11.3
369.042	11.31
369.25	11.36
369.459	11.27
369.668	10.9
369.877	10.9
370.085	10.82
370.294	10.74
370.503	10.59
370.711	10.65
370.92	10.75
371.129	10.9
371.337	10.9
371.546	10.78
371.754	10.69
371.963	11
372.171	10.8
372.38	10.59
372.589	10.55
372.797	10.64
373.006	10.57
373.214	10.49
373.423	10.32
373.631	10.11
373.84	9.9
374.048	9.89
374.256	9.76
374.465	9.72
374.673	9.77
374.882	9.42
375.09	9.28
375.298	9.07
375.507	8.95
375.715	9
375.923	9.02
376.132	9.47
376.34	9.48
376.548	9.51
376.757	9.56
376.965	9.43
377.173	9.75
377.381	9.74
377.59	9.86
377.798	9.6
378.006	9.61
378.214	9.38
378.423	9.24
378.631	9.26
378.839	9.32
379.047	9.4
379.255	9.49
379.463	9.36
379.671	9.27
379.879	9.2
380.088	9.48
380.296	9.61
380.504	9.75
380.712	9.57
380.92	9.59
381.128	9.46
381.336	9.08
381.544	9.02
381.752	8.95
381.96	8.88
382.168	9.09
382.376	9.07
382.584	8.82
382.791	8.64
382.999	8.51
383.207	8.31
383.415	8.23
383.623	8.41
383.831	8.2
384.039	8.15
384.247	8.26
384.454	8.12
384.662	8.23
384.87	8.12
385.078	8.19
385.285	8.33
385.493	8.36
385.701	8.36
385.909	8.27
386.116	8.4
386.324	8.47
386.532	8.35
386.739	8.13
386.947	8.13
387.155	8.23
387.362	8.28
387.57	8.09
387.778	8
387.985	8.12
388.193	8.05
388.4	7.95
388.608	7.87
388.816	7.87
389.023	7.84
389.231	7.6
389.438	7.48
389.646	7.19
389.853	7.18
390.061	7.28
390.268	7
390.475	6.96
390.683	7.03
390.89	6.88
391.098	6.97
391.305	7.01
391.512	7.03
391.72	6.93
391.927	6.92
392.135	7.06
392.342	6.94
392.549	7.01
392.756	6.95
392.964	6.93
393.171	7
393.378	6.83
393.586	6.82
393.793	6.76
394	6.84
394.207	6.9
394.414	6.92
394.622	7.08
394.829	7.08
395.036	7.1
395.243	7.09
395.45	7.07
395.657	7.13
395.864	7.05
396.072	7.17
396.279	7.03
396.486	7.15
396.693	7.13
396.9	6.83
397.107	6.88
397.314	7
397.521	6.96
397.728	7.03
397.935	6.94
398.142	7.06
398.349	7.04
398.556	7.15
398.763	7.07
398.97	6.96
399.177	7.02
399.383	6.82
399.59	6.78
399.797	6.81
400.004	6.85
400.211	6.85
400.418	6.79
400.625	6.75
400.831	6.69
401.038	6.67
401.245	6.6
401.452	6.64
401.658	6.72
401.865	6.67
402.072	6.75
402.279	6.69
402.485	6.64
402.692	6.52
402.899	6.46
403.105	6.59
403.312	6.46
403.519	6.36
403.725	6.27
403.932	6.27
404.138	6.28
404.345	6.09
404.552	6.01
404.758	6.13
404.965	6.26
405.171	6.24
405.378	6.11
405.584	6.29
405.791	6.29
405.997	6.46
406.204	6.48
406.41	6.28
406.617	6.36
406.823	6.44
407.029	6.38
407.236	6.34
407.442	6.34
407.649	6.44
407.855	6.34
408.061	6.54
408.268	6.49
408.474	6.61
408.68	6.79
408.887	6.93
409.093	6.82
409.299	6.83
409.505	6.67
409.712	6.66
409.918	6.62
410.124	6.68
410.33	6.61
410.537	6.5
410.743	6.26
410.949	6.26
411.155	6.07
411.361	6.16
411.567	6.09
411.773	6.23
411.98	6.24
412.186	6.08
412.392	6.07
412.598	6.12
412.804	6.28
413.01	6.38
413.216	6.37
413.422	6.48
413.628	6.47
413.834	6.54
414.04	6.64
414.246	6.6
414.452	6.65
414.658	6.61
414.864	6.42
415.07	6.24
415.275	6.2
415.481	6.22
415.687	6.16
415.893	6.11
416.099	6.1
416.305	5.98
416.511	5.95
416.716	6.02
416.922	5.96
417.128	6.13
417.334	6.25
417.539	6.23
417.745	6.18
417.951	6.04
418.157	6.03
418.362	5.99
418.568	6
418.774	6.03
418.979	5.97
419.185	6
419.391	5.94
419.596	5.91
419.802	5.9
420.008	5.88
420.213	5.32
420.419	5.25
420.624	5.27
420.83	5.24
421.035	5.24
421.241	5.29
421.446	5.28
421.652	5.21
421.857	5.1
422.063	5.06
422.268	5.04
422.474	5.63
422.679	5.69
422.885	5.71
423.09	5.71
423.295	5.7
423.501	5.56
423.706	5.59
423.911	5.62
424.117	5.74
424.322	5.81
424.527	5.85
424.733	5.85
424.938	5.82
425.143	5.84
425.349	5.87
425.554	5.9
425.759	6.02
425.964	5.93
426.169	5.93
426.375	5.9
426.58	5.91
426.785	5.87
426.99	5.85
427.195	5.92
427.4	5.84
427.605	5.83
427.811	5.9
428.016	5.86
428.221	5.94
428.426	5.95
428.631	6.01
428.836	6.01
429.041	6.06
429.246	6.15
429.451	6.2
429.656	6.29
429.861	6.24
430.066	6.09
430.271	6.09
430.476	6.14
430.681	6.16
430.886	6.18
431.09	6.2
431.295	6.31
431.5	6.25
431.705	6.18
431.91	6.11
432.115	6.18
432.32	6.15
432.524	6.2
432.729	6.18
432.934	6.1
433.139	6.07
433.343	6.04
433.548	5.97
433.753	5.97
433.958	5.89
434.162	5.88
434.367	5.9
434.572	5.89
434.776	5.89
434.981	5.88
435.186	6.01
435.39	5.99
435.595	5.92
435.799	5.89
436.004	5.85
436.209	5.92
436.413	5.91
436.618	5.87
436.822	5.93
437.027	5.87
437.231	5.82
437.436	5.76
437.64	5.73
437.845	5.77
438.049	5.78
438.253	5.82
438.458	5.9
438.662	5.9
438.867	5.98
439.071	5.92
439.275	6.02
439.48	6.06
439.684	6.08
439.888	6.12
440.093	6.14
440.297	6.13
440.501	6.13
440.706	6.07
440.91	6.08
441.114	5.98
441.318	6.02
441.523	6.04
441.727	6
441.931	5.91
442.135	5.89
442.339	5.85
442.543	5.85
442.748	5.8
442.952	5.83
443.156	5.85
443.36	5.84
443.564	5.92
443.768	5.84
443.972	5.86
444.176	5.96
444.38	5.89
444.584	5.87
444.788	5.96
444.992	5.99
445.196	5.97
445.4	5.92
445.604	5.96
445.808	5.92
446.012	5.89
446.216	5.91
446.42	5.86
446.624	5.91
446.828	5.91
447.032	5.82
447.235	5.8
447.439	5.83
447.643	5.85
447.847	5.82
448.051	5.8
448.254	5.88
448.458	5.91
448.662	5.93
448.866	5.95
449.069	5.99
449.273	5.97
449.477	6.06
449.681	6.03
449.884	6.11
450.088	6.14
450.292	6.15
450.495	5.95
450.699	5.89
450.902	5.81
451.106	5.78
451.31	5.7
451.513	5.7
451.717	5.7
451.92	5.76
452.124	5.72
452.327	5.74
452.531	5.73
452.734	5.85
452.938	5.92
453.141	6.02
453.345	5.97
453.548	6.06
453.752	6.11
453.955	6.1
454.158	6.08
454.362	6
454.565	6
454.769	5.98
454.972	6.01
455.175	5.98
455.379	5.96
455.582	6.04
455.785	6.03
455.988	6.03
456.192	5.95
456.395	5.95
456.598	5.98
456.801	6.06
457.005	6.1
457.208	6.04
457.411	5.99
457.614	6.07
457.817	6.02
458.021	5.97
458.224	5.96
458.427	5.86
458.63	5.85
458.833	5.87
459.036	5.75
459.239	5.69
459.442	5.71
459.645	5.68
459.848	5.57
460.051	5.59
460.254	5.61
460.457	5.56
460.66	5.59
460.863	5.62
461.066	5.62
461.269	5.65
461.472	5.71
461.675	5.72
461.878	5.84
462.081	5.89
462.284	5.89
462.486	5.91
462.689	5.96
462.892	6.16
463.095	6.06
463.298	6.11
463.5	6.08
463.703	6.09
463.906	6.12
464.109	6.13
464.311	6.19
464.514	6.1
464.717	6.2
464.92	6.25
465.122	6.16
465.325	6.24
465.528	6.35
465.73	6.39
465.933	6.32
466.135	6.16
466.338	6.15
466.541	6.18
466.743	6.25
466.946	6.11
467.148	6.08
467.351	6.01
467.553	6.12
467.756	6.07
467.958	6.15
468.161	6.22
468.363	6.32
468.566	6.23
468.768	6.15
468.971	6.23
469.173	6.27
469.375	6.25
469.578	6.27
469.78	6.1
469.983	6.07
470.185	6.06
470.387	6.13
470.59	6.14
470.792	6.21
470.994	6.28
471.196	6.19
471.399	6.14
471.601	6.25
471.803	6.29
472.005	6.32
472.208	6.38
472.41	6.35
472.612	6.3
472.814	6.28
473.016	6.26
473.218	6.27
473.421	6.32
473.623	6.37
473.825	6.3
474.027	6.3
474.229	6.27
474.431	6.23
474.633	6.23
474.835	6.27
475.037	6.31
475.239	6.38
475.441	6.32
475.643	6.37
475.845	6.27
476.047	6.3
476.249	6.35
476.451	6.33
476.653	6.34
476.855	6.36
477.057	6.28
477.258	6.21
477.46	6.15
477.662	6.23
477.864	6.15
478.066	6.25
478.268	6.16
478.469	6.2
478.671	6.2
478.873	6.13
479.075	6.11
479.276	6.1
479.478	6.16
479.68	6.15
479.882	6.05
480.083	6.06
480.285	6.06
480.487	6.19
480.688	6.11
480.89	6.13
481.091	6.13
481.293	6.11
481.495	6.1
481.696	6.02
481.898	5.97
482.099	5.97
482.301	5.9
482.502	5.86
482.704	5.75
482.905	5.72
483.107	5.69
483.308	5.66
483.51	5.63
483.711	5.64
483.913	5.66
484.114	5.69
484.315	5.7
484.517	5.72
484.718	5.73
484.92	5.79
485.121	5.82
485.322	5.84
485.524	5.84
485.725	5.87
485.926	5.84
486.127	5.82
486.329	5.8
486.53	5.79
486.731	5.8
486.932	5.8
487.134	5.76
487.335	5.72
487.536	5.73
487.737	5.75
487.938	5.77
488.139	5.81
488.341	5.83
488.542	5.82
488.743	5.79
488.944	5.77
489.145	5.75
489.346	5.8
489.547	5.83
489.748	5.83
489.949	5.86
490.15	5.83
490.351	5.83
490.552	5.82
490.753	5.85
490.954	5.88
491.155	5.9
491.356	5.93
491.557	5.92
491.758	5.93
491.959	5.93
492.159	5.96
492.36	6
492.561	6.02
492.762	6.03
492.963	6.02
493.164	6.07
493.364	6.15
493.565	6.2
493.766	6.23
493.967	6.32
494.167	6.31
494.368	6.29
494.569	6.28
494.769	6.31
494.97	6.36
495.171	6.38
495.371	6.36
495.572	6.26
495.773	6.22
495.973	6.24
496.174	6.17
496.375	6.19
496.575	6.29
496.776	6.3
496.976	6.3
497.177	6.37
497.377	6.45
497.578	6.51
497.778	6.58
497.979	6.67
498.179	6.63
498.38	6.67
498.58	6.74
498.78	6.73
498.981	6.83
499.181	6.91
499.382	6.91
499.582	6.86
499.782	6.89
499.983	6.94
500.183	6.96
500.383	7.09
500.584	7.09
500.784	7.15
500.984	7.23
501.184	7.13
501.385	7.12
501.585	7.07
501.785	7.09
501.985	7.14
502.185	7.18
502.386	7.11
502.586	7.17
502.786	7.29
502.986	7.22
503.186	7.13
503.386	7.27
503.586	7.32
503.786	7.45
503.987	7.58
504.187	7.65
504.387	7.71
504.587	7.87
504.787	7.86
504.987	7.88
505.187	7.93
505.387	8.04
505.587	8.04
505.786	8.07
505.986	8.08
506.186	8.13
506.386	8.09
506.586	8.12
506.786	8.13
506.986	8.2
507.186	8.26
507.386	8.33
507.585	8.43
507.785	8.47
507.985	8.46
508.185	8.53
508.384	8.55
508.584	8.69
508.784	8.66
508.984	8.72
509.183	8.8
509.383	8.82
509.583	8.83
509.782	8.88
509.982	8.96
510.182	9.07
510.381	9.08
510.581	9.14
510.781	9.07
510.98	9.15
511.18	9.18
511.379	9.21
511.579	9.27
511.778	9.38
511.978	9.43
512.177	9.47
512.377	9.6
512.576	9.69
512.776	9.77
512.975	9.88
513.175	10.02
513.374	10.08
513.573	10.17
513.773	10.27
513.972	10.36
514.172	10.36
514.371	10.43
514.57	10.48
514.77	10.67
514.969	10.77
515.168	10.89
515.367	10.92
515.567	10.99
515.766	11.1
515.965	11.2
516.164	11.35
516.364	11.53
516.563	11.69
516.762	11.78
516.961	11.78
517.16	11.9
517.359	11.98
517.559	12.08
517.758	12.19
517.957	12.28
518.156	12.37
518.355	12.41
518.554	12.48
518.753	12.56
518.952	12.62
519.151	12.77
519.35	12.79
519.549	12.87
519.748	13
519.947	13.14
520.146	13.17
520.345	13.27
520.544	13.38
520.743	13.49
520.942	13.51
521.141	13.66
521.339	13.67
521.538	13.82
521.737	13.92
521.936	14.06
522.135	14.19
522.333	14.33
522.532	14.45
522.731	14.52
522.93	14.69
523.129	14.91
523.327	15.02
523.526	15.22
523.725	15.27
523.923	15.42
524.122	15.44
524.321	15.53
524.519	15.61
524.718	15.63
524.917	15.71
525.115	15.74
525.314	15.76
525.512	15.86
525.711	15.88
525.909	15.99
526.108	16.06
526.306	16.25
526.505	16.35
526.703	16.45
526.902	16.61
527.1	16.75
527.299	16.85
527.497	16.94
527.696	16.98
527.894	17.09
528.092	17.17
528.291	17.28
528.489	17.3
528.688	17.34
528.886	17.44
529.084	17.47
529.283	17.52
529.481	17.59
529.679	17.69
529.877	17.76
530.076	17.81
530.274	17.86
530.472	17.86
530.67	17.95
530.869	18.06
531.067	18.17
531.265	18.3
531.463	18.38
531.661	18.47
531.859	18.51
532.057	18.67
532.255	18.82
532.454	18.93
532.652	19.03
532.85	19.14
533.048	19.18
533.246	19.22
533.444	19.23
533.642	19.36
533.84	19.44
534.038	19.52
534.236	19.53
534.434	19.54
534.632	19.59
534.83	19.74
535.027	19.77
535.225	19.82
535.423	19.89
535.621	19.99
535.819	20.06
536.017	20.14
536.215	20.27
536.412	20.44
536.61	20.55
536.808	20.65
537.006	20.73
537.203	20.82
537.401	20.98
537.599	21.06
537.797	21.22
537.994	21.3
538.192	21.48
538.39	21.54
538.587	21.52
538.785	21.6
538.983	21.72
539.18	21.78
539.378	21.88
539.575	22.02
539.773	22.2
539.97	22.27
540.168	22.37
540.366	22.42
540.563	22.53
540.761	22.65
540.958	22.71
541.155	22.77
541.353	22.79
541.55	22.84
541.748	22.87
541.945	22.85
542.143	22.89
542.34	22.88
542.537	22.97
542.735	23.03
542.932	23.09
543.129	23.18
543.327	23.29
543.524	23.41
543.721	23.54
543.919	23.65
544.116	23.86
544.313	24.01
544.51	24.2
544.708	24.34
544.905	24.44
545.102	24.63
545.299	24.72
545.496	24.89
545.693	25.01
545.891	25.13
546.088	25.17
546.285	25.12
546.482	25.14
546.679	25.06
546.876	25.04
547.073	25.06
547.27	25.11
547.467	25.16
547.664	25.04
547.861	24.98
548.058	24.88
548.255	24.89
548.452	24.89
548.649	24.9
548.846	24.93
549.043	24.95
549.24	25.03
549.437	24.92
549.633	24.88
549.83	25
550.027	25.01
550.224	25.18
550.421	25.21
550.618	25.39
550.814	25.55
551.011	25.55
551.208	25.42
551.405	25.34
551.601	25.36
551.798	25.46
551.995	25.41
552.191	25.53
552.388	25.51
552.585	25.59
552.781	25.56
552.978	25.49
553.175	25.59
553.371	25.78
553.568	25.86
553.764	25.91
553.961	25.86
554.157	25.91
554.354	25.86
554.55	25.93
554.747	25.96
554.943	25.87
555.14	25.88
555.336	26.05
555.533	25.97
555.729	26.01
555.926	25.99
556.122	26.15
556.318	26.19
556.515	26.21
556.711	26.23
556.907	26.3
557.104	26.44
557.3	26.52
557.496	26.51
557.693	26.72
557.889	26.79
558.085	26.81
558.281	26.75
558.478	26.75
558.674	26.93
558.87	26.95
559.066	26.99
559.262	26.98
559.459	27.02
559.655	27.08
559.851	27
560.047	27.06
560.243	27.1
560.439	27.1
560.635	27.26
560.831	27.22
561.027	27.25
561.223	27.15
561.419	27.2
561.615	27.15
561.811	27.22
562.007	27.2
562.203	27.21
562.399	27.15
562.595	27.3
562.791	27.24
562.987	27.29
563.183	27.4
563.379	27.53
563.575	27.52
563.771	27.75
563.966	27.64
564.162	27.7
564.358	27.72
564.554	27.77
564.75	27.77
564.945	27.94
565.141	27.95
565.337	28.02
565.533	27.99
565.728	28.04
565.924	27.94
566.12	28.06
566.315	28.12
566.511	28.12
566.707	28.23
566.902	28.24
567.098	28.12
567.293	28.09
567.489	27.94
567.684	28
567.88	28.15
568.076	28.17
568.271	28.18
568.467	28.26
568.662	28.34
568.858	28.36
569.053	28.28
569.248	28.37
569.444	28.5
569.639	28.69
569.835	28.68
570.03	28.6
570.225	28.59
570.421	28.6
570.616	28.59
570.812	28.58
571.007	28.57
571.202	28.85
571.397	28.86
571.593	28.81
571.788	28.72
571.983	28.83
572.178	28.91
572.374	28.97
572.569	29.03
572.764	29.09
572.959	29.1
573.154	29.19
573.35	29.11
573.545	29.1
573.74	29.18
573.935	29.29
574.13	29.34
574.325	29.3
574.52	29.43
574.715	29.43
574.91	29.51
575.105	29.61
575.3	29.64
575.495	29.68
575.69	29.89
575.885	30.04
576.08	30.17
576.275	30.22
576.47	30.38
576.665	30.45
576.86	30.64
577.055	30.62
577.25	30.64
577.444	30.72
577.639	30.97
577.834	30.94
578.029	30.95
578.224	31.03
578.418	31.02
578.613	31.02
578.808	31.09
579.003	31.11
579.197	31.11
579.392	31.15
579.587	31.32
579.781	31.09
579.976	31
580.171	30.92
580.365	30.91
580.56	30.98
580.755	31.03
580.949	31.05
581.144	31.07
581.338	31.1
581.533	31.12
581.727	30.96
581.922	31.29
582.116	31.37
582.311	31.5
582.505	31.45
582.7	31.45
582.894	31.53
583.089	31.54
583.283	31.53
583.478	31.78
583.672	31.89
583.866	31.96
584.061	31.83
584.255	31.96
584.449	32
584.644	31.99
584.838	32.08
585.032	32.22
585.226	32.24
585.421	32.35
585.615	32.36
585.809	32.34
586.003	32.42
586.198	32.48
586.392	32.52
586.586	32.54
586.78	32.75
586.974	32.7
587.168	32.6
587.363	32.56
587.557	32.44
587.751	32.33
587.945	32.31
588.139	32.24
588.333	32.21
588.527	32.09
588.721	31.97
588.915	32.06
589.109	32
589.303	31.93
589.497	32.03
589.691	32.02
589.885	32.24
590.079	32.24
590.273	32.29
590.466	32.36
590.66	32.42
590.854	32.59
591.048	32.5
591.242	32.64
591.436	32.72
591.629	32.79
591.823	32.94
592.017	32.75
592.211	32.88
592.404	33.01
592.598	33.05
592.792	33.04
592.986	32.9
593.179	32.77
593.373	32.77
593.567	32.73
593.76	32.54
593.954	32.36
594.147	32.38
594.341	32.36
594.535	32.38
594.728	32.35
594.922	32.26
595.115	32.39
595.309	32.52
595.502	32.52
595.696	32.57
595.889	32.73
596.083	32.85
596.276	32.89
596.47	32.91
596.663	32.9
596.856	32.8
597.05	32.96
597.243	32.91
597.437	32.91
597.63	32.87
597.823	33.06
598.017	32.89
598.21	32.96
598.403	32.99
598.596	33.06
598.79	32.95
598.983	32.99
599.176	32.99
599.369	33.1
599.563	33.05
599.756	33.09
599.949	32.88
600.142	32.99
600.335	32.9
600.528	32.86
600.722	32.9
600.915	32.87
601.108	32.88
601.301	32.81
601.494	32.76
601.687	32.71
601.88	32.62
602.073	32.62
602.266	32.63
602.459	32.7
602.652	32.8
602.845	32.84
603.038	32.85
603.231	32.99
603.424	32.98
603.617	33.01
603.809	33.07
604.002	33.23
604.195	33.28
604.388	33.3
604.581	33.32
604.774	33.25
604.966	33.05
605.159	33.25
605.352	33.19
605.545	33.34
605.737	33.31
605.93	33.4
606.123	33.29
606.316	33.31
606.508	33.55
606.701	33.59
606.894	33.84
607.086	34.03
607.279	33.95
607.471	34.04
607.664	34.03
607.857	34.22
608.049	34.44
608.242	34.94
608.434	35.33
608.627	35.57
608.819	36.09
609.012	36.63
609.204	37.42
609.397	38.23
609.589	39.17
609.782	40.17
609.974	41.1
610.166	41.99
610.359	42.8
610.551	43.58
610.743	44.27
610.936	44.84
611.128	45.2
611.32	45.59
611.513	45.62
611.705	45.46
611.897	45.18
612.09	45.03
612.282	44.66
612.474	44.34
612.666	43.99
612.858	43.58
613.051	43.27
613.243	42.95
613.435	42.34
613.627	42.18
613.819	41.92
614.011	41.72
614.203	41.17
614.395	40.77
614.588	40.09
614.78	39.54
614.972	39.2
615.164	38.75
615.356	38.41
615.548	38.1
615.74	37.65
615.932	37.56
616.124	37.19
616.315	37.02
616.507	36.72
616.699	36.75
616.891	36.59
617.083	36.23
617.275	36.15
617.467	35.86
617.659	35.7
617.85	35.54
618.042	35.38
618.234	35.4
618.426	35.18
618.618	35.35
618.809	35.18
619.001	35.31
619.193	35.46
619.384	35.42
619.576	35.35
619.768	35.44
619.959	35.49
620.151	35.37
620.343	35.41
620.534	35.65
620.726	35.59
620.917	35.76
621.109	35.81
621.301	35.81
621.492	35.8
621.684	36.08
621.875	36.11
622.067	36.21
622.258	36.32
622.45	36.27
622.641	36.35
622.832	36.32
623.024	36.09
623.215	36.05
623.407	35.97
623.598	36.02
623.789	35.98
623.981	36.06
624.172	36.04
624.363	36.05
624.555	35.99
624.746	35.91
624.937	35.96
625.129	36.11
625.32	36.16
625.511	36.27
625.702	36.14
625.893	36.07
626.085	35.89
626.276	35.85
626.467	35.84
626.658	35.8
626.849	35.75
627.04	35.69
627.231	35.79
627.422	35.76
627.614	35.73
627.805	35.72
627.996	35.64
628.187	35.84
628.378	35.9
628.569	36
628.76	36.26
628.951	36.29
629.142	36.4
629.332	36.51
629.523	36.57
629.714	36.76
629.905	37.01
630.096	37.25
630.287	37.32
630.478	37.48
630.669	37.44
630.859	37.34
631.05	37.31
631.241	37.33
631.432	37.06
631.623	37.14
631.813	36.92
632.004	36.64
632.195	36.39
632.385	36.14
632.576	35.76
632.767	35.67
632.957	35.52
633.148	35.47
633.339	35.26
633.529	35.25
633.72	34.88
633.91	34.81
634.101	34.89
634.292	34.83
634.482	34.96
634.673	35.3
634.863	35.33
635.054	35.38
635.244	35.48
635.435	35.56
635.625	35.5
635.815	35.82
636.006	35.84
636.196	35.8
636.387	35.93
636.577	35.87
636.767	35.54
636.958	35.44
637.148	35.44
637.338	35.21
637.529	35.38
637.719	35.42
637.909	35.22
638.099	35.19
638.29	35.14
638.48	35.22
638.67	35.1
638.86	35.24
639.05	35.39
639.241	35.38
639.431	35.73
639.621	35.62
639.811	35.61
640.001	35.63
640.191	35.73
640.381	35.88
640.571	35.75
640.761	35.95
640.951	35.91
641.141	35.73
641.331	35.71
641.521	35.43
641.711	35.37
641.901	35.38
642.091	35.52
642.281	35.59
642.471	35.4
642.661	35.42
642.851	35.53
643.041	35.46
643.231	35.54
643.42	35.47
643.61	35.63
643.8	35.69
643.99	35.97
644.18	35.88
644.369	35.79
644.559	36.16
644.749	36.14
644.939	35.91
645.128	36.01
645.318	35.89
645.508	36.19
645.697	36.06
645.887	36.04
646.076	35.98
646.266	35.91
646.456	36.03
646.645	35.71
646.835	35.87
647.024	36.11
647.214	36.14
647.403	36.1
647.593	36.02
647.782	36.11
647.972	36.27
648.161	36.24
648.351	36.64
648.54	36.63
648.73	36.68
648.919	36.76
649.108	36.6
649.298	36.66
649.487	37
649.677	36.92
649.866	37.11
650.055	37.04
650.244	37.03
650.434	36.8
650.623	36.69
650.812	36.73
651.002	36.72
651.191	36.77
651.38	36.62
651.569	36.65
651.758	36.53
651.947	36.28
652.137	36.4
652.326	36.29
652.515	36.2
652.704	36.42
652.893	36.5
653.082	36.48
653.271	36.47
653.46	36.48
653.649	36.32
653.838	36.52
654.027	36.69
654.216	36.48
654.405	36.63
654.594	36.57
654.783	36.47
654.972	36.53
655.161	36.6
655.35	36.71
655.539	36.73
655.728	36.77
655.916	36.65
656.105	36.51
656.294	36.81
656.483	36.68
656.672	36.82
656.86	36.81
657.049	36.58
657.238	36.56
657.427	36.46
657.615	36.57
657.804	36.41
657.993	36.45
658.181	36.52
658.37	36.24
658.559	36.19
658.747	36.23
658.936	36.28
659.125	36.22
659.313	36.1
659.502	36.07
659.69	35.93
659.879	35.86
660.067	36.04
660.256	36.32
660.444	36.54
660.633	36.76
660.821	36.74
661.01	36.81
661.198	37.12
661.387	37.35
661.575	37.48
661.763	37.64
661.952	37.97
662.14	37.73
662.328	37.5
662.517	37.37
662.705	37.38
662.893	37.32
663.082	37.06
663.27	37.06
663.458	36.99
663.646	37.01
663.834	37.15
664.023	37.02
664.211	37.37
664.399	37.51
664.587	37.64
664.775	37.53
664.963	37.84
665.152	38.16
665.34	38.19
665.528	38.31
665.716	38.15
665.904	38.12
666.092	38.41
666.28	38.32
666.468	38.35
666.656	38.27
666.844	38.24
667.032	37.99
667.22	38.2
667.408	37.95
667.596	37.71
667.784	37.81
667.971	37.91
668.159	37.78
668.347	37.73
668.535	37.68
668.723	37.64
668.911	37.79
669.098	37.81
669.286	37.84
669.474	37.91
669.662	37.99
669.849	38.04
670.037	37.99
670.225	38.04
670.413	37.98
670.6	38.05
670.788	38.3
670.976	38.46
671.163	38.41
671.351	38.24
671.538	38.12
671.726	38.59
671.913	38.6
672.101	38.39
672.289	38.34
672.476	38.41
672.664	38.31
672.851	38.25
673.039	38.01
673.226	38.24
673.413	38.09
673.601	38.31
673.788	37.8
673.976	37.57
674.163	37.92
674.35	37.86
674.538	37.81
674.725	37.63
674.912	37.54
675.1	37.44
675.287	37.36
675.474	37.16
675.662	37.2
675.849	37.26
676.036	37.39
676.223	37.42
676.411	37.44
676.598	37.5
676.785	37.66
676.972	37.96
677.159	37.99
677.346	37.86
677.533	38.12
677.721	37.95
677.908	37.88
678.095	37.77
678.282	37.83
678.469	37.97
678.656	37.84
678.843	37.75
679.03	37.41
679.217	37.33
679.404	37.3
679.591	37.28
679.778	37.46
679.964	37.44
680.151	37.54
680.338	37.1
680.525	37.15
680.712	37.25
680.899	37.41
681.086	37.42
681.272	37.62
681.459	37.67
681.646	37.66
681.833	37.64
682.02	37.78
682.206	37.68
682.393	37.99
682.58	37.89
682.766	37.83
682.953	37.8
683.14	37.83
683.326	38.03
683.513	38.23
683.7	38.26
683.886	38.36
684.073	38.46
684.259	38.6
684.446	38.6
684.632	38.3
684.819	38.35
685.005	38.29
685.192	38.77
685.378	38.66
685.565	38.49
685.751	38.59
685.938	38.48
686.124	38.23
686.31	38.23
686.497	38.29
686.683	38.72
686.87	38.73
687.056	38.67
687.242	38.26
687.429	38.36
687.615	38.43
687.801	38.25
687.987	38.33
688.174	38.48
688.36	38.9
688.546	39.18
688.732	38.91
688.918	38.91
689.105	38.99
689.291	39.1
689.477	38.92
689.663	39.17
689.849	39.11
690.035	38.94
690.221	39.12
690.407	38.97
690.593	39.06
690.779	39.22
690.965	39.24
691.151	39.18
691.337	39.21
691.523	39.19
691.709	38.79
691.895	39.23
692.081	39.36
692.267	39.37
692.453	39.48
692.639	39.25
692.825	39.37
693.011	39.5
693.196	39.71
693.382	39.52
693.568	39.3
693.754	39.68
693.94	39.3
694.125	39.16
694.311	39.27
694.497	38.94
694.682	39.14
694.868	39.09
695.054	38.93
695.239	38.91
695.425	39.14
695.611	39.34
695.796	39.08
695.982	39.15
696.168	39.3
696.353	38.88
696.539	38.81
696.724	38.4
696.91	38.16
697.095	37.98
697.281	37.5
697.466	37.42
697.652	37.49
697.837	37.55
698.023	37.55
698.208	37.58
698.393	37.75
698.579	38.03
698.764	37.99
698.949	38.1
699.135	38.27
699.32	38.66
699.505	38.61
699.691	38.58
699.876	38.44
700.061	38.37
700.246	38.31
700.432	38.43
700.617	38.14
700.802	38.19
700.987	38.34
701.172	38.28
701.358	37.91
701.543	38.09
701.728	37.75
701.913	38.1
702.098	38.57
702.283	38.85
702.468	38.76
702.653	38.7
702.838	38.84
703.023	38.79
703.208	38.96
703.393	39.43
703.578	39.31
703.763	39.98
703.948	39.79
704.133	39.67
704.318	39.68
704.503	39.69
704.688	40.16
704.873	40.06
705.057	40.27
705.242	40.8
705.427	40.83
705.612	40.94
705.797	41.25
705.981	41.63
706.166	41.69
706.351	41.93
706.536	42.1
706.72	41.69
706.905	42.05
707.09	42.01
707.274	41.93
707.459	42.27
707.644	42.44
707.828	42.13
708.013	42.07
708.197	41.82
708.382	41.52
708.567	41.35
708.751	41.44
708.936	41.37
709.12	41.34
709.305	40.94
709.489	40.86
709.673	40.96
709.858	41.08
710.042	41.17
710.227	41.25
710.411	41.21
710.596	41.05
710.78	41.2
710.964	41.32
711.149	41.38
711.333	41.57
711.517	41.55
711.702	41.76
711.886	41.45
712.07	41.27
712.254	41.47
712.438	41.6
712.623	41.4
712.807	41.24
712.991	41.4
713.175	41.16
713.359	41.18
713.544	40.77
713.728	40.3
713.912	40.2
714.096	40.09
714.28	39.93
714.464	39.69
714.648	39.88
714.832	39.96
715.016	39.6
715.2	39.67
715.384	39.5
715.568	39.44
715.752	39.64
715.936	39.43
716.12	39.39
716.304	39.29
716.488	39.26
716.671	39.35
716.855	39.48
717.039	39.39
717.223	39.41
717.407	39.25
717.59	39.7
717.774	39.64
717.958	40.13
718.142	40.22
718.325	40.17
718.509	40.58
718.693	40.92
718.877	40.51
719.06	40.49
719.244	40.3
719.428	40.8
719.611	40.48
719.795	40.43
719.978	40.58
720.162	40.64
720.345	41.06
720.529	40.85
720.713	40.37
720.896	40.2
721.08	40.35
721.263	40.47
721.446	40.61
721.63	40.66
721.813	40.25
721.997	39.81
722.18	40.17
722.364	40.39
722.547	40.55
722.73	40.79
722.914	41.01
723.097	40.58
723.28	40.24
723.464	40.08
723.647	39.76
723.83	40.06
724.013	40.25
724.197	39.66
724.38	39.4
724.563	39.26
724.746	39.19
724.929	39.67
725.112	39.55
725.296	40.11
725.479	40.14
725.662	40.42
725.845	40.53
726.028	40.49
726.211	40.85
726.394	40.77
726.577	41.02
726.76	41.32
726.943	41.28
727.126	41.83
727.309	41.44
727.492	40.81
727.675	40.89
727.858	40.77
728.041	40.49
728.224	40.57
728.407	40.31
728.589	40.03
728.772	39.66
728.955	39.6
729.138	39.38
729.321	39.19
729.503	39.12
729.686	39.21
729.869	39.43
730.052	40
730.234	39.6
730.417	39.95
730.6	40.11
730.782	39.94
730.965	39.66
731.148	39.78
731.33	40.15
731.513	40.54
731.695	40.42
731.878	40.19
732.061	40
732.243	40.56
732.426	40.56
732.608	40.54
732.791	40.68
732.973	40.99
733.156	40.72
733.338	40.57
733.52	40.14
733.703	40.21
733.885	40.03
734.068	39.8
734.25	39.08
734.432	38.76
734.615	38.16
734.797	38.23
734.979	37.92
735.162	38.15
735.344	38.51
735.526	38.93
735.708	39.21
735.891	39.72
736.073	39.85
736.255	40.27
736.437	40.55
736.619	40.78
736.802	40.28
736.984	40.55
737.166	40.74
737.348	40.6
737.53	40.75
737.712	40.06
737.894	40.16
738.076	40.15
738.258	40.23
738.44	39.98
738.622	40.16
738.804	40.5
738.986	40.48
739.168	40.3
739.35	40.27
739.532	40.23
739.714	40.58
739.896	40.07
740.078	40.15
740.259	39.87
740.441	40.41
740.623	40.67
740.805	40.72
740.987	40.49
741.168	40.79
741.35	41.04
741.532	41.36
741.714	41.39
741.895	41.47
742.077	41.52
742.259	41.64
742.44	41.74
742.622	41.24
742.804	40.96
742.985	41.18
743.167	40.77
743.348	40.37
743.53	39.75
743.711	39.76
743.893	39.63
744.075	39.81
744.256	40.43
744.438	39.78
744.619	39.99
744.8	40.73
744.982	40.79
745.163	41.01
745.345	41.45
745.526	41.67
745.707	41.54
745.889	42.01
746.07	42.09
746.252	41.63
746.433	42.08
746.614	42.83
746.795	42.74
746.977	43.13
747.158	43.13
747.339	42.19
747.52	42.04
747.702	41.47
747.883	41.51
748.064	41.17
748.245	40.89
748.426	40.21
748.607	39.84
748.788	39.73
748.97	39.31
749.151	39.47
749.332	39.92
749.513	40.74
749.694	40.97
749.875	40.63
750.056	40.73
750.237	40.62
750.418	41.14
750.599	40.71
750.78	40.3
750.96	39.92
751.141	39.71
751.322	39.9
751.503	39.46
751.684	39.86
751.865	39.47
752.046	39.62
752.226	39.98
752.407	40.02
752.588	40.22
752.769	41.18
752.949	41.81
753.13	41.65
753.311	42.17
753.492	41.83
753.672	41.97
753.853	42.38
754.034	41.77
754.214	42.27
754.395	41.76
754.575	41.84
754.756	41.89
754.937	41.42
755.117	42.33
755.298	41.5
755.478	42.06
755.659	41.45
755.839	41.85
756.02	42.31
756.2	41.8
756.381	42.48
756.561	42.03
756.741	41.65
756.922	41.66
757.102	40.72
757.283	40.95
757.463	40.77
757.643	41.25
757.823	40.6
758.004	40.8
758.184	40.56
758.364	40.21
758.545	41.05
758.725	40.61
758.905	40.71
759.085	41.22
759.265	41.02
759.446	41.22
759.626	40.98
759.806	41.67
759.986	41.1
760.166	41.74
760.346	41.56
760.526	41.21
760.706	41.7
760.886	41.55
761.066	41.47
761.246	42.11
761.426	40.73
761.606	40.56
761.786	39.91
761.966	40.32
762.146	39.91
762.326	39.47
762.506	38.9
762.686	39.01
762.866	39
763.046	38.9
763.225	38.57
763.405	39.25
763.585	39.06
763.765	39.57
763.945	39.37
764.124	39.33
764.304	39.46
764.484	39.73
764.664	39.42
764.843	39.52
765.023	39.47
765.203	39.47
765.382	39.25
765.562	39.64
765.741	39.16
765.921	39.56
766.101	39.58
766.28	39.57
766.46	39.42
766.639	39.1
766.819	39.18
766.998	38.91
767.178	38.93
767.357	39.4
767.537	39.28
767.716	39.34
767.896	38.9
768.075	38.95
768.254	39.57
768.434	39.76
768.613	40.99
768.792	40.94
768.972	40.93
769.151	41.06
769.33	40.31
769.51	40.55
769.689	40.76
769.868	41.35
770.047	41.9
770.226	42.17
770.406	42.93
770.585	42
770.764	42.41
770.943	42.57
771.122	42.76
771.301	43.82
771.48	43.55
771.66	43.93
771.839	42.77
772.018	42.32
772.197	41.58
772.376	41.24
772.555	41.78
772.734	41.21
772.913	42
773.092	42.37
773.271	41.62
773.449	41.1
773.628	41.09
773.807	41.55
773.986	41.66
774.165	41.57
774.344	41.24
774.523	40.63
774.701	40.02
774.88	39.79
775.059	39.47
775.238	39.48
775.417	40.47
775.595	40.7
775.774	41.43
775.953	40.6
776.131	41.41
776.31	42.12
776.489	42.32
776.667	42.98
776.846	42.56
777.025	43.38
777.203	42.81
777.382	42.71
777.56	42.36
777.739	41.66
777.917	42.68
778.096	42.43
778.274	41.98
778.453	42.66
778.631	42.69
778.81	42.41
778.988	41.37
779.166	42.16
779.345	42.61
779.523	42.22
779.702	42.5
779.88	43.22
780.058	42.75
780.237	42.81
780.415	42.46
780.593	42.76
780.771	43.69
780.95	44.23
781.128	43.74
781.306	44.05
781.484	44.93
781.662	46.06
781.841	44.73
782.019	44.41
782.197	45.01
782.375	44.3
782.553	43.61
782.731	42.89
782.909	41.83
783.087	42.91
783.265	41.85
783.443	41.13
783.621	39.93
783.799	40.77
783.977	42.12
784.155	41.45
784.333	42
784.511	43.15
784.689	43.97
784.867	44.31
785.045	44.62
785.223	45.32
785.4	45.19
785.578	45.58
785.756	44.78
785.934	44.63
786.112	44.71
786.289	44.15
786.467	43.29
786.645	42.9
786.823	43.72
787	43.46
787.178	42.66
787.356	42.64
787.533	41.97
787.711	42.42
787.889	41.79
788.066	41.16
788.244	41.4
788.421	42.29
788.599	42.39
788.776	41.59
788.954	41.09
789.131	41.85
789.309	42.07
789.486	41.96
789.664	41.31
789.841	42.2
790.019	41.67
790.196	42.09
790.373	41.42
790.551	41.38
790.728	41.98
790.906	41.9
791.083	41.44
791.26	42.22
791.437	42.74
791.615	43.82
791.792	42.97
791.969	44.47
792.146	44.12
792.324	44.4
792.501	44.95
792.678	45.35
792.855	45.94
793.032	45.99
793.209	44.82
793.387	46.36
793.564	45.82
793.741	46.13
793.918	46.14
794.095	46.11
794.272	46.27
794.449	44.35
794.626	43.61
794.803	43.36
794.98	43.47
795.157	42.9
795.334	41.81
795.511	42.03
795.688	41.44
795.864	40.83
796.041	40.34
796.218	40.76
796.395	42.05
796.572	42.19
796.749	42.51
796.925	42
797.102	42.66
797.279	42.29
797.456	42.24
797.632	43.02
797.809	42.78
797.986	43.51
798.162	43.4
798.339	42.81
798.516	43.28
798.692	43.03
798.869	43.97
799.046	44.32
799.222	44.08
799.399	43.9
799.575	43.91
799.752	44.1
799.928	44.75
800.105	43.51
800.281	43.81
800.458	43.74
800.634	43.54
800.811	42.13
800.987	40.97
801.163	41.34
801.34	41.23
801.516	41.29
801.692	40.77
801.869	40.2
802.045	41.05
802.221	41.68
802.398	41.44
802.574	41.58
802.75	42.92
802.926	42.72
803.103	43.51
803.279	43.36
803.455	42.41
803.631	41.98
803.807	41.22
803.983	41.36
804.16	40.59
804.336	40.3
804.512	40.51
804.688	39.89
804.864	41.29
805.04	41
805.216	40.51
805.392	40.24
805.568	41.54
805.744	43.32
805.92	43.93
806.096	45.13
806.272	45.09
806.448	44.71
806.623	45
806.799	44.52
806.975	44.15
807.151	44.28
807.327	45.57
807.503	45.22
807.678	44.27
807.854	42.77
808.03	41.18
808.206	41.51
808.381	41.83
808.557	41.68
808.733	41.42
808.908	40.86
809.084	41.9
809.26	40.61
809.435	41.34
809.611	41.64
809.787	42.1
809.962	42.88
810.138	42.42
810.313	42.2
810.489	41.39
810.664	42.11
810.84	42.14
811.015	42.76
811.191	44.29
811.366	44.67
811.542	43.79
811.717	44.2
811.892	44.13
812.068	44.03
812.243	42.63
812.419	43.03
812.594	42.62
812.769	42.84
812.944	40.84
813.12	40.07
813.295	40.14
813.47	40.13
813.645	39.99
813.821	40
813.996	40.14
814.171	41.26
814.346	42.66
814.521	42.8
814.697	44.24
814.872	44.32
815.047	44.68
815.222	43.99
815.397	42.14
815.572	42.82
815.747	42.24
815.922	42.86
816.097	44.85
816.272	45.64
816.447	45.85
816.622	45.23
816.797	45.76
816.972	44.73
817.147	45.54
817.322	47.54
817.496	47.01
817.671	47.35
817.846	47.94
818.021	46.04
818.196	44.07
818.371	43.4
818.545	41.94
818.72	42.3
818.895	42.74
819.069	41.29
819.244	40.93
819.419	41.12
819.594	41.04
819.768	39.72
819.943	39.25
820.117	38.9
820.292	38.65
820.467	38.78
820.641	38.06
820.816	37.63
820.99	37.63
821.165	37.33
821.339	36.91
821.514	36.48
821.688	36.32
821.863	36.36
822.037	36.57
822.212	36.7
822.386	36.8
822.56	36.65
822.735	36.62
822.909	36.49
823.084	36.47
823.258	36.35
823.432	36.32
823.606	36.25
823.781	36.48
823.955	36.14
824.129	36.04
824.303	35.75
824.478	35.8
824.652	35.73
824.826	35.93
825	36.06
825.174	36.22
825.348	36.62
825.523	37.14
825.697	36.51
825.871	37.22
826.045	37.24
826.219	37.76
826.393	38.04
826.567	37.67
826.741	37.57
826.915	37.39
827.089	37.64
827.263	37.66
827.437	37.73
827.611	37.94
827.784	37.94
827.958	38.02
828.132	37.61
828.306	37.83
828.48	38.2
828.654	38.76
828.827	39.17
829.001	39.36
829.175	39.97
829.349	40.07
829.522	39.88
829.696	40.08
829.87	40.55
830.044	41.75
830.217	42.29
830.391	43.18
830.565	43.91
830.738	44.17
830.912	43.73
831.085	42.92
831.259	44.31
831.432	45.8
831.606	46.09
831.779	45.51
831.953	44.46
832.126	43.42
832.3	41.88
832.473	39.82
832.647	39.83
832.82	39.39
832.994	39.15
833.167	38.25
833.34	37.54
833.514	37.13
833.687	36.71
833.86	36.71
834.034	36.94
834.207	37.78
834.38	38.18
834.553	38.28
834.727	38.72
834.9	39.23
835.073	38.92
835.246	39.52
835.419	40.47
835.593	41.19
835.766	41.69
835.939	41.49
836.112	41.75
836.285	42.64
836.458	42.76
836.631	44.37
836.804	44.29
836.977	45.04
837.15	46.41
837.323	45.84
837.496	46.44
837.669	46.35
837.842	46.5
838.015	47.75
838.188	46.94
838.361	46.96
838.533	45.72
838.706	45.62
838.879	44.28
839.052	43.68
839.225	43.39
839.398	43.83
839.57	44.36
839.743	44.6
839.916	43.12
840.088	45.92
840.261	45.63
840.434	45.85
840.607	46.73
840.779	47.33
840.952	46.91
841.124	45.98
841.297	45.89
841.47	45.79
841.642	46.65
841.815	47.41
841.987	45.52
842.16	46.91
842.332	48.25
842.505	48.64
842.677	50.26
842.85	48.45
843.022	49.59
843.194	48.79
843.367	49.11
843.539	49.13
843.712	50.94
843.884	51.73
844.056	53.33
844.229	51.92
844.401	50.7
844.573	49.94
844.745	54.18
844.918	54.43
845.09	54.39
845.262	56.41
845.434	57.05
845.606	56.01
845.779	57.74
845.951	60
846.123	60.23
846.295	63.95
846.467	68.17
846.639	65.16
846.811	64.65
846.983	64.99
847.155	65.97
847.327	67.15
847.499	65.65
847.671	64.95
847.843	58.32
848.015	54.77
848.187	51.14
848.359	48.23
848.531	50.18
848.703	48.05
848.875	47.27
849.047	43.63
849.218	43.96
849.39	43.99
849.562	41.58
849.734	44.88
849.905	47.43
850.077	46.53
850.249	50.45
850.421	48.88
850.592	52.68
850.764	56.24
850.936	54.72
851.107	54.69
851.279	57.97
851.451	57.54
851.622	57.82
851.794	61.25
851.965	67.1
852.137	63.96
852.308	66.15
852.48	65.63
852.651	62.59
852.823	63.42
852.994	61.73
853.166	60.91
853.337	61.33
853.509	59.77
853.68	57.76
853.851	55.36
854.023	55.08
854.194	52.53
854.365	52.71
854.537	55.42
854.708	56.59
854.879	59.2
855.05	60.12
855.222	61.99
855.393	64.3
855.564	65.57
855.735	69.33
855.906	68.22
856.078	70.28
856.249	71.04
856.42	68.52
856.591	70.64
856.762	71.53
856.933	73.67
857.104	72.15
857.275	70.75
857.446	71.1
857.617	67.46
857.788	65.78
857.959	64.89
858.13	64.8
858.301	66.73
858.472	64.65
858.643	62.12
858.814	55.68
858.985	54.7
859.155	52.47
859.326	51.22
859.497	51.42
859.668	53.65
859.839	54.67
860.009	55.62
860.18	56.42
860.351	55.98
860.522	55.33
860.692	58.01
860.863	54.85
861.034	57.95
861.204	59.38
861.375	60.05
861.546	58.88
861.716	59.64
861.887	56.33
862.057	54.31
862.228	56.6
862.398	60.53
862.569	61.24
862.739	69
862.91	70.68
863.08	70.14
863.251	67.35
863.421	67.51
863.592	65.91
863.762	69.56
863.932	72.07
864.103	71.35
864.273	67.8
864.443	64.52
864.614	59.62
864.784	59.13
864.954	57.66
865.125	59.72
865.295	61.53
865.465	61.37
865.635	58.46
865.805	54.68
865.976	54.93
866.146	55.96
866.316	62.35
866.486	62.78
866.656	67.43
866.826	67.82
866.996	66.6
867.166	65.58
867.336	67.18
867.506	71.64
867.676	75.13
867.846	75.2
868.016	71.65
868.186	64.38
868.356	66.64
868.526	58.16
868.696	59.51
868.866	56.97
869.036	58.31
869.206	53.1
869.376	48.02
869.545	47.27
869.715	48.46
869.885	50.73
870.055	53.63
870.224	53.9
870.394	59.23
870.564	60.37
870.734	61.74
870.903	61.79
871.073	62.09
871.243	66.47
871.412	65.79
871.582	63.11
871.751	61.58
871.921	65.3
872.091	63.54
872.26	61.43
872.43	55.81
872.599	57.12
872.769	54.24
872.938	58.55
873.108	56.18
873.277	60.59
873.446	63.8
873.616	62.16
873.785	60.99
873.955	61.27
874.124	61.02
874.293	65.87
874.463	65.16
874.632	68.5
874.801	72.12
874.971	75.13
875.14	73.35
875.309	71.48
875.478	73.36
875.647	71.84
875.817	73.57
875.986	71.65
876.155	70.78
876.324	74.11
876.493	70.71
876.662	67.7
876.831	67.36
877	64.88
877.17	65.89
877.339	67.02
877.508	69.56
877.677	69.44
877.846	69.51
878.015	70.25
878.184	65.5
878.352	66.15
878.521	62.97
878.69	58.32
878.859	57.93
879.028	59.78
879.197	59.98
879.366	55.27
879.534	52.9
879.703	49.84
879.872	46.85
880.041	47.01
880.21	44.91
880.378	43.94
880.547	44
880.716	43.23
880.884	40.65
881.053	39.41
881.222	39.12
881.39	37.8
881.559	37.56
881.727	37.1
881.896	37.06
882.065	37.06
882.233	37.41
882.402	37.72
882.57	37.03
882.739	36.81
882.907	37.39
883.076	37.68
883.244	37.95
883.412	38.27
883.581	38.56
883.749	38.78
883.918	38.81
884.086	38.87
884.254	38
884.423	38.77
884.591	39.13
884.759	38.37
884.927	38.49
885.096	40
885.264	40.33
885.432	42.54
885.6	42.66
885.769	44.39
885.937	44.5
886.105	46.31
886.273	46.8
886.441	47.68
886.609	50.23
886.777	52.89
886.945	53.52
887.113	56.73
887.281	55.11
887.449	57.8
887.617	57.73
887.785	59.5
887.953	58.82
888.121	60.64
888.289	63.49
888.457	60.05
888.625	59.73
888.793	57.55
888.961	57.58
889.129	56.81
889.296	53.8
889.464	54.08
889.632	53.62
889.8	55.48
889.967	53.33
890.135	50.27
