Data from 2938712__Reflection_01.txt Node
Date: Tue Mar 17 19:21:23 EDT 2015
User: robert
Spectrometer: USB4E03002
Autoset integration time: false
Trigger mode: 4
Integration Time (sec): 1.000000E-1
Scans to average: 10
Electric dark correction enabled: false
Nonlinearity correction enabled: false
Boxcar width: 5
Stray light correction enabled: false
XAxis mode: Wavelengths
Stop averaging: false
Number of Pixels in Spectrum: 3648
>>>>>Begin Spectral Data<<<<<
177.575	-19
177.794	-14.96
178.014	12.29
178.233	33.12
178.452	36.69
178.672	36.06
178.891	44.46
179.11	61.7
179.33	151.72
179.549	203.42
179.768	-7566.67
179.987	-84.18
180.207	-218.63
180.426	536.84
180.645	58.33
180.864	36.26
181.084	94.07
181.303	2228.57
181.522	406.58
181.741	171.89
181.96	138.22
182.179	157.99
182.398	153.77
182.618	116.4
182.837	101.27
183.056	85.51
183.275	120.85
183.494	89.12
183.713	88.26
183.932	58.64
184.151	34.96
184.37	35.44
184.589	43.81
184.808	45.56
185.027	35.6
185.246	56.27
185.465	46.45
185.684	30.04
185.903	52.95
186.122	-3.91
186.341	35.49
186.56	61.86
186.779	35.62
186.998	47.97
187.216	54.71
187.435	49.9
187.654	17.45
187.873	20.8
188.092	44.84
188.311	32.55
188.53	38.74
188.748	45.83
188.967	53.45
189.186	86.4
189.405	70.99
189.623	79.97
189.842	72.98
190.061	91.1
190.28	109.74
190.498	102.18
190.717	114.3
190.936	135.38
191.154	111.65
191.373	111.96
191.592	93.54
191.81	85.73
192.029	85.76
192.248	93.9
192.466	80.34
192.685	79.88
192.904	77.63
193.122	69.16
193.341	48.76
193.559	62.97
193.778	54.68
193.996	65.18
194.215	66.42
194.433	52.98
194.652	55.21
194.87	66.16
195.089	64.8
195.307	59.68
195.526	58.57
195.744	71.41
195.963	53.65
196.181	35.75
196.399	8.01
196.618	0.76
196.836	13.32
197.055	-6.98
197.273	-54.42
197.491	-153.65
197.71	-515.07
197.928	-82.45
198.146	-130.81
198.365	-69.84
198.583	5.56
198.801	55.66
199.019	66.67
199.238	5.28
199.456	34.37
199.674	12.2
199.892	55.86
200.111	55.04
200.329	40.87
200.547	58.32
200.765	58.95
200.983	52.12
201.202	48.6
201.42	47.24
201.638	64.47
201.856	79.25
202.074	102.18
202.292	81.83
202.51	88.48
202.728	111.89
202.946	79.45
203.165	92.07
203.383	105.93
203.601	110.86
203.819	117.96
204.037	111.89
204.255	89.08
204.473	65.07
204.691	65.01
204.909	51.77
205.127	54.62
205.345	51.35
205.562	51.65
205.78	47.2
205.998	32.68
206.216	38.98
206.434	33.86
206.652	40.9
206.87	27.76
207.088	15.22
207.306	44.66
207.523	48.44
207.741	60.45
207.959	47.01
208.177	50.67
208.395	49.19
208.612	46.77
208.83	37.38
209.048	36.9
209.266	54.14
209.483	56.25
209.701	34.45
209.919	7.25
210.136	-21.2
210.354	-15.31
210.572	-18.3
210.79	-59.69
211.007	-112.3
211.225	-70.24
211.442	-66.34
211.66	-47.25
211.878	-26.65
212.095	62.57
212.313	68.34
212.53	60.14
212.748	68.04
212.966	79.33
213.183	103.98
213.401	97.06
213.618	94.45
213.836	91.55
214.053	90.91
214.271	77.88
214.488	18.31
214.705	14.69
214.923	24.94
215.14	25.27
215.358	11.32
215.575	12.43
215.793	12.77
216.01	-6.58
216.227	1.45
216.445	-13.88
216.662	-16.62
216.879	-9.82
217.097	-10.51
217.314	-13.54
217.531	-3.76
217.749	13.59
217.966	15.69
218.183	22.99
218.4	24.89
218.618	15.98
218.835	21.08
219.052	29.03
219.269	41.09
219.487	36.11
219.704	34.11
219.921	32.75
220.138	28.79
220.355	31.94
220.572	29.05
220.79	35.9
221.007	38.26
221.224	32.71
221.441	26.8
221.658	21.32
221.875	14.13
222.092	5.15
222.309	4.78
222.526	3.39
222.743	2.83
222.96	1.27
223.177	-8.99
223.394	-4.23
223.611	0.63
223.828	-0.04
224.045	-5.14
224.262	-4.69
224.479	8.86
224.696	4.68
224.913	4.91
225.13	2.41
225.347	3.57
225.564	1.68
225.781	-5.85
225.997	-3.65
226.214	-2.23
226.431	-1.69
226.648	0.77
226.865	-2.23
227.082	-1.17
227.298	0.7
227.515	1.17
227.732	0.9
227.949	1.98
228.165	2.65
228.382	2.67
228.599	2.77
228.816	2.34
229.032	2.61
229.249	2.86
229.466	2.81
229.682	1.31
229.899	0.33
230.116	0.34
230.332	0.8
230.549	0.52
230.765	0.69
230.982	1.04
231.199	1.02
231.415	1.25
231.632	-0.35
231.848	0.13
232.065	1.87
232.281	2.99
232.498	3.29
232.714	2.27
232.931	4.29
233.147	1.9
233.364	0.22
233.58	0.86
233.797	-0.28
234.013	-0.03
234.23	-0.14
234.446	-0.94
234.662	-0.34
234.879	-0.74
235.095	0.73
235.312	-0.12
235.528	1.62
235.744	2.01
235.961	2.46
236.177	4.1
236.393	4.83
236.61	2.84
236.826	1.29
237.042	0.07
237.258	0.15
237.475	-1.42
237.691	-1.56
237.907	-1.16
238.123	-0.01
238.339	-0.81
238.556	-0.87
238.772	-0.7
238.988	1.73
239.204	2.78
239.42	3.87
239.636	3.14
239.853	3.05
240.069	3.14
240.285	3.37
240.501	3.19
240.717	3.44
240.933	2.98
241.149	2.91
241.365	2.51
241.581	2.63
241.797	1.81
242.013	1.95
242.229	2.26
242.445	2.32
242.661	1.88
242.877	1.71
243.093	1.32
243.309	1
243.525	1.03
243.741	1.08
243.957	1.14
244.173	2.13
244.388	2.73
244.604	2.19
244.82	2.05
245.036	1.84
245.252	1.65
245.468	2.52
245.683	2.28
245.899	2.63
246.115	2.99
246.331	2.89
246.547	2.46
246.762	2.09
246.978	2.37
247.194	2.54
247.409	2.8
247.625	3.13
247.841	2.86
248.057	3.19
248.272	3.05
248.488	2.73
248.703	2.74
248.919	3.35
249.135	3.83
249.35	4.04
249.566	4.75
249.782	5
249.997	4.89
250.213	4.58
250.428	4.55
250.644	4.83
250.859	4.92
251.075	5.9
251.29	5.27
251.506	4.23
251.721	3.8
251.937	2.51
252.152	2.28
252.368	1.53
252.583	1.46
252.798	1.31
253.014	0.9
253.229	0.91
253.445	0.07
253.66	0.15
253.875	0.65
254.091	0.2
254.306	-0.05
254.521	-0.23
254.737	1.15
254.952	2.51
255.167	2.55
255.383	2.41
255.598	2.84
255.813	3.03
256.028	2.53
256.244	2.36
256.459	2.73
256.674	3.09
256.889	3.31
257.104	3.04
257.32	2.88
257.535	2.07
257.75	3.03
257.965	3.17
258.18	2.96
258.395	2.63
258.61	2.9
258.826	3.06
259.041	3
259.256	2.73
259.471	2.83
259.686	2.64
259.901	2.74
260.116	2.71
260.331	2.65
260.546	2.7
260.761	2.63
260.976	2.48
261.191	2.1
261.406	2.22
261.621	1.92
261.836	1.45
262.05	1.53
262.265	1.72
262.48	0.99
262.695	0.8
262.91	0.51
263.125	0.95
263.34	0.87
263.555	1.19
263.769	0.44
263.984	0.72
264.199	1.36
264.414	1.07
264.629	1.27
264.843	0.84
265.058	0.23
265.273	0.57
265.488	1.01
265.702	1.49
265.917	1.08
266.132	1.93
266.346	2.54
266.561	1.88
266.776	1.85
266.99	2.18
267.205	3.12
267.42	3.63
267.634	3.19
267.849	2.86
268.063	2.41
268.278	3.09
268.492	2.39
268.707	2.21
268.922	2.31
269.136	2.28
269.351	2.31
269.565	2.25
269.78	1.92
269.994	2.04
270.209	2.35
270.423	2.09
270.637	1.48
270.852	2
271.066	1.9
271.281	2.21
271.495	2.48
271.709	2.09
271.924	1.73
272.138	1.46
272.353	1.62
272.567	1.64
272.781	2.2
272.996	2.6
273.21	2.58
273.424	2.68
273.638	2.4
273.853	2.48
274.067	2.76
274.281	2.67
274.495	2.79
274.71	2.39
274.924	2.18
275.138	2.04
275.352	1.58
275.566	1.57
275.781	1.63
275.995	1.92
276.209	1.82
276.423	1.3
276.637	1.51
276.851	1.53
277.065	2.21
277.279	2.04
277.493	1.78
277.707	2.03
277.921	1.79
278.135	1.93
278.349	1.4
278.563	1.23
278.777	1.48
278.991	1.58
279.205	1.4
279.419	1.29
279.633	0.7
279.847	1.04
280.061	0.9
280.275	1.01
280.489	0.97
280.703	1.08
280.917	1.34
281.131	1.43
281.344	1.3
281.558	1.25
281.772	1.61
281.986	2.14
282.2	1.89
282.414	2.1
282.627	2
282.841	1.95
283.055	2.07
283.269	1.72
283.482	1.75
283.696	1.74
283.91	2.02
284.123	1.17
284.337	1.31
284.551	1.34
284.764	1.63
284.978	1.74
285.192	1.61
285.405	1.81
285.619	2.26
285.833	2.14
286.046	2.36
286.26	2.5
286.473	2.72
286.687	2.75
286.9	2.75
287.114	2.73
287.327	2.74
287.541	2.64
287.754	2.64
287.968	2.04
288.181	2.05
288.395	1.78
288.608	1.92
288.822	2.08
289.035	1.93
289.248	2.09
289.462	1.96
289.675	1.9
289.889	2.22
290.102	1.98
290.315	2.28
290.529	2.1
290.742	2.06
290.955	2.08
291.169	1.84
291.382	2.21
291.595	1.94
291.808	1.89
292.022	1.87
292.235	1.38
292.448	1.78
292.661	1.46
292.875	1.61
293.088	1.91
293.301	1.32
293.514	1.42
293.727	1.18
293.94	1.6
294.153	1.69
294.367	1.89
294.58	2.08
294.793	2.05
295.006	2.27
295.219	2.38
295.432	2.12
295.645	2.62
295.858	2.8
296.071	2.59
296.284	2.72
296.497	2.51
296.71	2.51
296.923	2.63
297.136	2.5
297.349	2.81
297.562	2.83
297.775	3.06
297.988	2.86
298.201	2.75
298.414	2.96
298.626	2.68
298.839	2.98
299.052	3.02
299.265	3.13
299.478	3.33
299.691	3.24
299.903	3.12
300.116	2.98
300.329	2.93
300.542	3.2
300.755	3.06
300.967	3.32
301.18	3.14
301.393	2.98
301.605	2.87
301.818	2.78
302.031	2.77
302.243	2.91
302.456	3.16
302.669	3.47
302.881	3.28
303.094	3.49
303.307	3.48
303.519	3.36
303.732	3.42
303.944	3.64
304.157	3.63
304.37	3.59
304.582	3.76
304.795	3.52
305.007	3.03
305.22	3.57
305.432	3.25
305.645	3.19
305.857	3.46
306.069	3.66
306.282	3.44
306.494	3.37
306.707	3.46
306.919	3.19
307.132	3.42
307.344	4.06
307.556	3.77
307.769	3.95
307.981	4.22
308.193	4.35
308.406	4.32
308.618	4.6
308.83	4.68
309.043	5.01
309.255	5.33
309.467	5.16
309.679	4.76
309.892	4.86
310.104	4.71
310.316	4.27
310.528	4.16
310.74	4.21
310.953	4.02
311.165	4.04
311.377	3.63
311.589	3.58
311.801	3.96
312.013	3.88
312.225	3.75
312.437	4.03
312.649	4.52
312.862	4.36
313.074	4.48
313.286	4.63
313.498	4.69
313.71	4.76
313.922	4.71
314.134	3.97
314.346	4.46
314.558	4.44
314.77	4.35
314.982	3.88
315.193	4.07
315.405	4.1
315.617	3.79
315.829	3.46
316.041	3.38
316.253	3.48
316.465	3.88
316.677	3.63
316.888	4.07
317.1	3.85
317.312	4.32
317.524	3.93
317.736	3.78
317.947	3.83
318.159	4.47
318.371	4.41
318.583	4.46
318.794	4.44
319.006	4.82
319.218	4.17
319.43	4.65
319.641	4.76
319.853	5.47
320.064	5.51
320.276	5.54
320.488	5.43
320.699	5.81
320.911	5.61
321.123	5.61
321.334	5.68
321.546	6.22
321.757	6.35
321.969	6.31
322.18	6.24
322.392	5.85
322.603	6.12
322.815	6.03
323.026	6.16
323.238	6.22
323.449	6.17
323.661	5.89
323.872	5.96
324.083	5.5
324.295	5.14
324.506	5.28
324.718	5.62
324.929	5.58
325.14	5.53
325.352	5.37
325.563	5.4
325.774	5.6
325.986	5.72
326.197	5.54
326.408	5.91
326.62	6.08
326.831	6.48
327.042	6.69
327.253	7.06
327.464	7.45
327.676	7.87
327.887	7.94
328.098	7.78
328.309	8.12
328.52	8.16
328.732	8.41
328.943	8.63
329.154	8.65
329.365	8.87
329.576	8.9
329.787	9.11
329.998	8.75
330.209	9.22
330.42	9.87
330.631	9.89
330.842	10.32
331.053	10.14
331.264	10.26
331.475	10
331.686	9.67
331.897	9.59
332.108	9.4
332.319	9.7
332.53	9.36
332.741	9.24
332.952	9.1
333.163	9.28
333.374	9.5
333.585	9.61
333.795	9.46
334.006	9.47
334.217	9.19
334.428	9.14
334.639	9.33
334.849	9.46
335.06	9.44
335.271	9.52
335.482	9.35
335.692	9.53
335.903	9.67
336.114	10.03
336.325	10.27
336.535	10.4
336.746	10.54
336.957	10.59
337.167	10.88
337.378	10.8
337.589	10.78
337.799	10.84
338.01	10.61
338.22	10.41
338.431	10.38
338.642	10.1
338.852	10.03
339.063	10.31
339.273	10.07
339.484	9.82
339.694	9.93
339.905	9.92
340.115	9.99
340.326	9.81
340.536	10.15
340.746	10.06
340.957	10.41
341.167	10.72
341.378	10.11
341.588	10.23
341.799	10.3
342.009	10.11
342.219	10
342.43	10.06
342.64	10.12
342.85	9.99
343.061	9.98
343.271	10.11
343.481	10.07
343.691	10.05
343.902	9.77
344.112	9.84
344.322	10.2
344.532	10.47
344.743	10.41
344.953	10.54
345.163	10.74
345.373	10.8
345.583	10.68
345.793	10.6
346.004	10.96
346.214	11.18
346.424	11.16
346.634	10.77
346.844	10.9
347.054	10.88
347.264	10.71
347.474	10.31
347.684	10.27
347.894	10.32
348.104	10.23
348.314	10.27
348.524	10.09
348.734	10.05
348.944	10.25
349.154	10.17
349.364	10
349.574	10.33
349.784	10.07
349.994	10.15
350.204	10.11
350.413	10.19
350.623	9.98
350.833	10.14
351.043	10.24
351.253	10.23
351.463	9.78
351.672	9.69
351.882	9.47
352.092	9.47
352.302	9.17
352.511	9.06
352.721	9.33
352.931	9.5
353.141	9.76
353.35	9.55
353.56	9.79
353.77	9.98
353.979	10.19
354.189	10.06
354.399	10.11
354.608	10.34
354.818	10.64
355.027	10.49
355.237	10.38
355.447	10.02
355.656	10.19
355.866	10.28
356.075	10.4
356.285	10.17
356.494	10.22
356.704	10.36
356.913	10.19
357.123	9.71
357.332	9.62
357.542	9.58
357.751	9.46
357.96	9.25
358.17	9.03
358.379	8.78
358.589	8.83
358.798	8.97
359.007	8.91
359.217	8.92
359.426	9.08
359.635	9.08
359.845	9.04
360.054	9.14
360.263	9.15
360.472	9.41
360.682	9.68
360.891	9.92
361.1	9.79
361.309	9.9
361.519	9.93
361.728	9.94
361.937	9.88
362.146	9.77
362.355	9.84
362.564	9.84
362.774	9.61
362.983	9.44
363.192	9.27
363.401	9.29
363.61	9.05
363.819	8.92
364.028	8.83
364.237	8.9
364.446	9.26
364.655	9.48
364.864	9.67
365.073	9.64
365.282	9.6
365.491	9.49
365.7	9.37
365.909	9.41
366.118	9.35
366.327	9.14
366.536	9.33
366.745	9.09
366.954	8.82
367.162	8.49
367.371	8.58
367.58	8.46
367.789	8.31
367.998	8.44
368.207	8.54
368.415	8.68
368.624	8.77
368.833	8.39
369.042	8.32
369.25	8.48
369.459	8.61
369.668	8.42
369.877	8.69
370.085	8.92
370.294	9.08
370.503	9.08
370.711	8.85
370.92	9.09
371.129	9.37
371.337	9.35
371.546	9.04
371.754	9.11
371.963	9.06
372.171	8.97
372.38	8.73
372.589	8.51
372.797	8.43
373.006	8.64
373.214	8.7
373.423	8.48
373.631	8.38
373.84	8.29
374.048	8.02
374.256	7.92
374.465	7.94
374.673	8.41
374.882	8.34
375.09	8.37
375.298	8.25
375.507	8.21
375.715	8.3
375.923	8.36
376.132	8.59
376.34	8.73
376.548	8.67
376.757	8.65
376.965	8.3
377.173	8.41
377.381	8.39
377.59	8.36
377.798	8.18
378.006	8.17
378.214	8.36
378.423	8.01
378.631	7.91
378.839	8.13
379.047	8.1
379.255	8.23
379.463	8.15
379.671	8.17
379.879	8.24
380.088	7.99
380.296	8.11
380.504	7.99
380.712	8.24
380.92	8.34
381.128	8.18
381.336	8.18
381.544	8.13
381.752	8.12
381.96	8.07
382.168	8.11
382.376	8.51
382.584	8.34
382.791	8.25
382.999	8.32
383.207	8.38
383.415	8.39
383.623	8.44
383.831	8.34
384.039	8.44
384.247	8.72
384.454	8.48
384.662	8.28
384.87	8.25
385.078	8.17
385.285	8.1
385.493	8
385.701	7.97
385.909	7.82
386.116	7.82
386.324	7.68
386.532	7.17
386.739	7.35
386.947	7.64
387.155	7.6
387.362	7.7
387.57	7.83
387.778	7.71
387.985	7.72
388.193	7.81
388.4	7.77
388.608	7.86
388.816	7.99
389.023	8.04
389.231	7.79
389.438	7.76
389.646	7.86
389.853	7.73
390.061	7.96
390.268	7.91
390.475	7.9
390.683	7.9
390.89	7.91
391.098	8.11
391.305	8.14
391.512	8.25
391.72	8.15
391.927	7.95
392.135	7.84
392.342	7.66
392.549	7.6
392.756	7.44
392.964	7.41
393.171	7.33
393.378	7.11
393.586	7.02
393.793	6.92
394	7.03
394.207	7.14
394.414	7.16
394.622	7.16
394.829	7.21
395.036	7.17
395.243	7.22
395.45	7.16
395.657	7.12
395.864	7.12
396.072	6.98
396.279	6.96
396.486	6.87
396.693	6.74
396.9	6.77
397.107	6.79
397.314	6.95
397.521	6.95
397.728	6.86
397.935	7.01
398.142	7.09
398.349	7.22
398.556	7.25
398.763	7.33
398.97	7.55
399.177	7.52
399.383	7.51
399.59	7.4
399.797	7.62
400.004	7.67
400.211	7.63
400.418	7.38
400.625	7.46
400.831	7.53
401.038	7.38
401.245	7.24
401.452	7.26
401.658	7.43
401.865	7.41
402.072	7.09
402.279	7.25
402.485	7.31
402.692	7.4
402.899	7.37
403.105	7.34
403.312	7.42
403.519	7.44
403.725	7.44
403.932	7.46
404.138	7.58
404.345	7.68
404.552	7.73
404.758	7.65
404.965	7.65
405.171	7.49
405.378	7.51
405.584	7.5
405.791	7.45
405.997	7.44
406.204	7.37
406.41	7.48
406.617	7.43
406.823	7.33
407.029	7.48
407.236	7.66
407.442	7.75
407.649	7.65
407.855	7.66
408.061	7.79
408.268	7.76
408.474	7.63
408.68	7.38
408.887	7.49
409.093	7.39
409.299	7.28
409.505	7.13
409.712	7.39
409.918	7.46
410.124	7.5
410.33	7.47
410.537	7.46
410.743	7.51
410.949	7.68
411.155	7.51
411.361	7.56
411.567	7.43
411.773	7.31
411.98	7.12
412.186	6.99
412.392	6.86
412.598	6.86
412.804	6.95
413.01	6.93
413.216	6.71
413.422	6.86
413.628	6.9
413.834	6.92
414.04	7.2
414.246	6.98
414.452	7.16
414.658	7.21
414.864	7.27
415.07	7.19
415.275	7.33
415.481	7.42
415.687	7.32
415.893	7.19
416.099	7.22
416.305	7.04
416.511	7.1
416.716	7
416.922	7.11
417.128	7.14
417.334	7.23
417.539	7.11
417.745	7.11
417.951	7.11
418.157	7.18
418.362	7.2
418.568	7.34
418.774	7.44
418.979	7.44
419.185	7.41
419.391	7.29
419.596	7.2
419.802	7.26
420.008	7.27
420.213	6.55
420.419	6.57
420.624	6.51
420.83	6.4
421.035	6.37
421.241	6.37
421.446	6.34
421.652	6.38
421.857	6.41
422.063	6.39
422.268	6.39
422.474	7.12
422.679	7.13
422.885	7.18
423.09	7.21
423.295	7.21
423.501	7.24
423.706	7.28
423.911	7.28
424.117	7.33
424.322	7.28
424.527	7.26
424.733	7.21
424.938	7.2
425.143	7.17
425.349	7.23
425.554	7.25
425.759	7.17
425.964	7.14
426.169	7.19
426.375	7.16
426.58	7.32
426.785	7.31
426.99	7.31
427.195	7.23
427.4	7.18
427.605	7.03
427.811	7.02
428.016	7
428.221	7.01
428.426	6.81
428.631	6.81
428.836	6.66
429.041	6.68
429.246	6.65
429.451	6.76
429.656	6.97
429.861	7.02
430.066	7.03
430.271	7.22
430.476	7.21
430.681	7.36
430.886	7.32
431.09	7.34
431.295	7.4
431.5	7.46
431.705	7.49
431.91	7.35
432.115	7.41
432.32	7.38
432.524	7.31
432.729	7.34
432.934	7.32
433.139	7.28
433.343	7.22
433.548	7.18
433.753	7.16
433.958	7.13
434.162	7.2
434.367	7.17
434.572	7.18
434.776	7.18
434.981	7.13
435.186	7.19
435.39	7.26
435.595	7.42
435.799	7.42
436.004	7.39
436.209	7.35
436.413	7.26
436.618	7.31
436.822	7.3
437.027	7.23
437.231	7.34
437.436	7.32
437.64	7.36
437.845	7.3
438.049	7.38
438.253	7.44
438.458	7.54
438.662	7.63
438.867	7.59
439.071	7.48
439.275	7.55
439.48	7.49
439.684	7.42
439.888	7.4
440.093	7.36
440.297	7.29
440.501	7.26
440.706	7.2
440.91	7.19
441.114	7.21
441.318	7.3
441.523	7.31
441.727	7.26
441.931	7.34
442.135	7.34
442.339	7.33
442.543	7.36
442.748	7.32
442.952	7.39
443.156	7.38
443.36	7.38
443.564	7.35
443.768	7.25
443.972	7.27
444.176	7.23
444.38	7.3
444.584	7.32
444.788	7.33
444.992	7.41
445.196	7.39
445.4	7.35
445.604	7.36
445.808	7.45
446.012	7.52
446.216	7.54
446.42	7.55
446.624	7.45
446.828	7.39
447.032	7.37
447.235	7.28
447.439	7.19
447.643	7.21
447.847	7.13
448.051	6.98
448.254	6.91
448.458	6.9
448.662	6.9
448.866	6.91
449.069	6.97
449.273	6.87
449.477	6.96
449.681	6.94
449.884	6.97
450.088	6.96
450.292	7.16
450.495	7.19
450.699	7.16
450.902	7.08
451.106	7
451.31	6.98
451.513	7.01
451.717	6.98
451.92	7.06
452.124	7.04
452.327	7.17
452.531	7.09
452.734	7.04
452.938	7.11
453.141	7.05
453.345	7.22
453.548	7.25
453.752	7.25
453.955	7.17
454.158	7.14
454.362	7.16
454.565	7.09
454.769	7.04
454.972	7.1
455.175	7.01
455.379	7.08
455.582	7
455.785	7.01
455.988	7.01
456.192	7.1
456.395	7.11
456.598	7.06
456.801	7.13
457.005	7.25
457.208	7.28
457.411	7.17
457.614	7.25
457.817	7.25
458.021	7.19
458.224	7.27
458.427	7.17
458.63	7.14
458.833	7.15
459.036	7.12
459.239	7.08
459.442	7.04
459.645	7.07
459.848	7.06
460.051	7.1
460.254	7.12
460.457	7.05
460.66	7.1
460.863	7.15
461.066	7.12
461.269	7.14
461.472	7.16
461.675	7.17
461.878	7.3
462.081	7.28
462.284	7.26
462.486	7.25
462.689	7.31
462.892	7.29
463.095	7.3
463.298	7.36
463.5	7.13
463.703	6.89
463.906	6.92
464.109	6.76
464.311	6.77
464.514	6.82
464.717	6.92
464.92	6.85
465.122	6.91
465.325	6.92
465.528	6.95
465.73	7.09
465.933	7.28
466.135	7.3
466.338	7.43
466.541	7.47
466.743	7.38
466.946	7.33
467.148	7.36
467.351	7.35
467.553	7.43
467.756	7.43
467.958	7.46
468.161	7.5
468.363	7.45
468.566	7.34
468.768	7.33
468.971	7.4
469.173	7.42
469.375	7.44
469.578	7.44
469.78	7.37
469.983	7.33
470.185	7.38
470.387	7.3
470.59	7.31
470.792	7.36
470.994	7.32
471.196	7.25
471.399	7.28
471.601	7.3
471.803	7.26
472.005	7.3
472.208	7.32
472.41	7.24
472.612	7.27
472.814	7.27
473.016	7.31
473.218	7.4
473.421	7.47
473.623	7.35
473.825	7.4
474.027	7.43
474.229	7.37
474.431	7.38
474.633	7.4
474.835	7.32
475.037	7.46
475.239	7.42
475.441	7.38
475.643	7.4
475.845	7.41
476.047	7.41
476.249	7.35
476.451	7.4
476.653	7.32
476.855	7.31
477.057	7.38
477.258	7.31
477.46	7.38
477.662	7.39
477.864	7.4
478.066	7.51
478.268	7.46
478.469	7.51
478.671	7.54
478.873	7.64
479.075	7.65
479.276	7.68
479.478	7.65
479.68	7.62
479.882	7.58
480.083	7.49
480.285	7.46
480.487	7.49
480.688	7.47
480.89	7.44
481.091	7.46
481.293	7.5
481.495	7.42
481.696	7.41
481.898	7.37
482.099	7.31
482.301	7.3
482.502	7.29
482.704	7.27
482.905	7.25
483.107	7.21
483.308	7.18
483.51	7.16
483.711	7.16
483.913	7.16
484.114	7.16
484.315	7.19
484.517	7.18
484.718	7.14
484.92	7.14
485.121	7.16
485.322	7.19
485.524	7.2
485.725	7.21
485.926	7.26
486.127	7.23
486.329	7.24
486.53	7.21
486.731	7.27
486.932	7.29
487.134	7.31
487.335	7.3
487.536	7.28
487.737	7.25
487.938	7.28
488.139	7.26
488.341	7.32
488.542	7.34
488.743	7.37
488.944	7.35
489.145	7.37
489.346	7.36
489.547	7.35
489.748	7.39
489.949	7.42
490.15	7.35
490.351	7.31
490.552	7.27
490.753	7.27
490.954	7.26
491.155	7.29
491.356	7.34
491.557	7.34
491.758	7.35
491.959	7.36
492.159	7.37
492.36	7.46
492.561	7.53
492.762	7.55
492.963	7.49
493.164	7.51
493.364	7.54
493.565	7.49
493.766	7.48
493.967	7.49
494.167	7.45
494.368	7.41
494.569	7.44
494.769	7.45
494.97	7.49
495.171	7.61
495.371	7.69
495.572	7.58
495.773	7.64
495.973	7.62
496.174	7.7
496.375	7.82
496.575	7.92
496.776	7.95
496.976	7.93
497.177	7.97
497.377	7.93
497.578	7.93
497.778	7.96
497.979	7.94
498.179	8
498.38	7.91
498.58	7.88
498.78	7.79
498.981	7.68
499.181	7.79
499.382	7.76
499.582	7.69
499.782	7.64
499.983	7.67
500.183	7.72
500.383	7.7
500.584	7.74
500.784	7.7
500.984	7.82
501.184	7.84
501.385	7.71
501.585	7.7
501.785	7.85
501.985	8.01
502.185	8.06
502.386	8.05
502.586	8.12
502.786	8.16
502.986	8.22
503.186	8.16
503.386	8.16
503.586	8.25
503.786	8.3
503.987	8.27
504.187	8.23
504.387	8.25
504.587	8.37
504.787	8.38
504.987	8.48
505.187	8.52
505.387	8.58
505.587	8.67
505.786	8.69
505.986	8.78
506.186	8.86
506.386	8.84
506.586	8.9
506.786	8.92
506.986	9.02
507.186	9.06
507.386	9.1
507.585	9.15
507.785	9.15
507.985	9.15
508.185	9.15
508.384	9.15
508.584	9.23
508.784	9.28
508.984	9.36
509.183	9.38
509.383	9.34
509.583	9.29
509.782	9.31
509.982	9.35
510.182	9.39
510.381	9.41
510.581	9.43
510.781	9.47
510.98	9.52
511.18	9.48
511.379	9.44
511.579	9.51
511.778	9.57
511.978	9.55
512.177	9.56
512.377	9.63
512.576	9.67
512.776	9.77
512.975	9.8
513.175	9.73
513.374	9.8
513.573	9.82
513.773	9.84
513.972	9.91
514.172	10.03
514.371	10.16
514.57	10.15
514.77	10.13
514.969	10.13
515.168	10.21
515.367	10.28
515.567	10.26
515.766	10.43
515.965	10.47
516.164	10.5
516.364	10.53
516.563	10.54
516.762	10.56
516.961	10.63
517.16	10.74
517.359	10.77
517.559	10.82
517.758	10.92
517.957	10.84
518.156	10.98
518.355	11.04
518.554	11.1
518.753	11.12
518.952	11.17
519.151	11.22
519.35	11.16
519.549	11.21
519.748	11.28
519.947	11.24
520.146	11.33
520.345	11.32
520.544	11.34
520.743	11.39
520.942	11.48
521.141	11.61
521.339	11.65
521.538	11.86
521.737	11.92
521.936	11.98
522.135	12.09
522.333	12.18
522.532	12.23
522.731	12.35
522.93	12.39
523.129	12.46
523.327	12.57
523.526	12.73
523.725	12.76
523.923	12.75
524.122	12.77
524.321	12.87
524.519	12.93
524.718	13.07
524.917	13.08
525.115	13.14
525.314	13.2
525.512	13.25
525.711	13.31
525.909	13.34
526.108	13.44
526.306	13.54
526.505	13.56
526.703	13.69
526.902	13.74
527.1	13.85
527.299	13.97
527.497	14.03
527.696	14.08
527.894	14.13
528.092	14.2
528.291	14.24
528.489	14.28
528.688	14.36
528.886	14.4
529.084	14.4
529.283	14.46
529.481	14.52
529.679	14.61
529.877	14.65
530.076	14.71
530.274	14.74
530.472	14.8
530.67	14.91
530.869	14.96
531.067	15.02
531.265	15.21
531.463	15.33
531.661	15.4
531.859	15.42
532.057	15.55
532.255	15.66
532.454	15.82
532.652	15.94
532.85	16.05
533.048	16.13
533.246	16.17
533.444	16.21
533.642	16.23
533.84	16.29
534.038	16.42
534.236	16.49
534.434	16.51
534.632	16.57
534.83	16.65
535.027	16.66
535.225	16.7
535.423	16.84
535.621	16.92
535.819	17.01
536.017	17.09
536.215	17.15
536.412	17.18
536.61	17.37
536.808	17.48
537.006	17.57
537.203	17.68
537.401	17.85
537.599	17.94
537.797	18
537.994	18.09
538.192	18.11
538.39	18.19
538.587	18.41
538.785	18.5
538.983	18.53
539.18	18.54
539.378	18.6
539.575	18.74
539.773	18.85
539.97	18.99
540.168	19.12
540.366	19.27
540.563	19.33
540.761	19.29
540.958	19.32
541.155	19.38
541.353	19.48
541.55	19.55
541.748	19.62
541.945	19.67
542.143	19.7
542.34	19.75
542.537	19.8
542.735	19.85
542.932	19.97
543.129	20.02
543.327	20.15
543.524	20.29
543.721	20.42
543.919	20.45
544.116	20.53
544.313	20.66
544.51	20.75
544.708	20.82
544.905	20.97
545.102	21.04
545.299	21.19
545.496	21.26
545.693	21.29
545.891	21.37
546.088	21.48
546.285	21.58
546.482	21.65
546.679	21.71
546.876	21.75
547.073	21.74
547.27	21.77
547.467	21.75
547.664	21.75
547.861	21.81
548.058	21.86
548.255	21.86
548.452	21.85
548.649	21.86
548.846	21.88
549.043	21.97
549.24	22.04
549.437	22.11
549.633	22.19
549.83	22.24
550.027	22.26
550.224	22.26
550.421	22.25
550.618	22.26
550.814	22.15
551.011	22.17
551.208	22.2
551.405	22.31
551.601	22.24
551.798	22.31
551.995	22.37
552.191	22.4
552.388	22.46
552.585	22.56
552.781	22.59
552.978	22.72
553.175	22.67
553.371	22.58
553.568	22.6
553.764	22.75
553.961	22.79
554.157	22.72
554.354	22.75
554.55	22.73
554.747	22.71
554.943	22.8
555.14	22.9
555.336	23.08
555.533	23.22
555.729	23.17
555.926	23.22
556.122	23.27
556.318	23.33
556.515	23.3
556.711	23.39
556.907	23.4
557.104	23.42
557.3	23.32
557.496	23.35
557.693	23.47
557.889	23.65
558.085	23.59
558.281	23.6
558.478	23.57
558.674	23.59
558.87	23.57
559.066	23.59
559.262	23.51
559.459	23.59
559.655	23.46
559.851	23.46
560.047	23.28
560.243	23.36
560.439	23.29
560.635	23.35
560.831	23.46
561.027	23.4
561.223	23.49
561.419	23.64
561.615	23.75
561.811	23.91
562.007	23.74
562.203	23.77
562.399	23.77
562.595	23.82
562.791	23.93
562.987	23.74
563.183	23.89
563.379	23.9
563.575	23.86
563.771	23.74
563.966	23.74
564.162	23.94
564.358	23.95
564.554	24.02
564.75	23.97
564.945	24.01
565.141	24.24
565.337	24.14
565.533	24.17
565.728	24.13
565.924	24.18
566.12	24.23
566.315	24.2
566.511	24.22
566.707	24.24
566.902	24.29
567.098	24.27
567.293	24.18
567.489	24.27
567.684	24.33
567.88	24.42
568.076	24.52
568.271	24.53
568.467	24.59
568.662	24.59
568.858	24.53
569.053	24.59
569.248	24.62
569.444	24.65
569.639	24.63
569.835	24.58
570.03	24.64
570.225	24.6
570.421	24.61
570.616	24.6
570.812	24.72
571.007	24.81
571.202	24.85
571.397	24.9
571.593	25
571.788	25.05
571.983	25.17
572.178	25.17
572.374	25.18
572.569	25.23
572.764	25.31
572.959	25.25
573.154	25.3
573.35	25.28
573.545	25.28
573.74	25.25
573.935	25.16
574.13	25.14
574.325	25.18
574.52	25.24
574.715	25.25
574.91	25.24
575.105	25.35
575.3	25.28
575.495	25.42
575.69	25.4
575.885	25.46
576.08	25.61
576.275	25.57
576.47	25.6
576.665	25.66
576.86	25.68
577.055	25.76
577.25	25.84
577.444	25.84
577.639	25.78
577.834	25.94
578.029	26.01
578.224	26.1
578.418	26.21
578.613	26.25
578.808	26.11
579.003	26.2
579.197	26.28
579.392	26.15
579.587	26.22
579.781	26.27
579.976	26.15
580.171	26.15
580.365	26.1
580.56	26.01
580.755	25.98
580.949	26.12
581.144	26
581.338	26
581.533	25.99
581.727	26.11
581.922	26.04
582.116	26.19
582.311	26.31
582.505	26.35
582.7	26.46
582.894	26.43
583.089	26.53
583.283	26.58
583.478	26.53
583.672	26.62
583.866	26.57
584.061	26.67
584.255	26.54
584.449	26.56
584.644	26.44
584.838	26.45
585.032	26.62
585.226	26.62
585.421	26.74
585.615	26.82
585.809	26.9
586.003	26.94
586.198	26.88
586.392	27.03
586.586	27.02
586.78	27.25
586.974	27.25
587.168	27.15
587.363	27.06
587.557	26.83
587.751	26.83
587.945	26.88
588.139	26.8
588.333	26.86
588.527	26.8
588.721	26.69
588.915	26.59
589.109	26.6
589.303	26.57
589.497	26.58
589.691	26.75
589.885	26.59
590.079	26.5
590.273	26.54
590.466	26.54
590.66	26.67
590.854	26.67
591.048	26.76
591.242	26.81
591.436	27
591.629	27.2
591.823	27.23
592.017	27.3
592.211	27.36
592.404	27.41
592.598	27.41
592.792	27.26
592.986	27.37
593.179	27.42
593.373	27.38
593.567	27.4
593.76	27.19
593.954	27.21
594.147	27.26
594.341	27.25
594.535	27.27
594.728	27.33
594.922	27.44
595.115	27.33
595.309	27.15
595.502	27.19
595.696	27.08
595.889	27.2
596.083	27.2
596.276	27.24
596.47	27.19
596.663	27.13
596.856	27.07
597.05	27.05
597.243	27.09
597.437	27.17
597.63	27.16
597.823	27.17
598.017	27.11
598.21	27.18
598.403	27.22
598.596	27.3
598.79	27.29
598.983	27.37
599.176	27.34
599.369	27.44
599.563	27.36
599.756	27.44
599.949	27.43
600.142	27.56
600.335	27.48
600.528	27.48
600.722	27.44
600.915	27.52
601.108	27.53
601.301	27.63
601.494	27.63
601.687	27.71
601.88	27.67
602.073	27.72
602.266	27.51
602.459	27.48
602.652	27.47
602.845	27.4
603.038	27.35
603.231	27.23
603.424	27.2
603.617	27.25
603.809	27.19
604.002	27.17
604.195	27.18
604.388	27.2
604.581	27.14
604.774	27.09
604.966	27.12
605.159	27.17
605.352	27.16
605.545	27.11
605.737	26.99
605.93	27.13
606.123	27.03
606.316	27.03
606.508	27.13
606.701	27.18
606.894	27.45
607.086	27.57
607.279	27.63
607.471	27.74
607.664	27.87
607.857	28.09
608.049	28.22
608.242	28.64
608.434	28.95
608.627	29.29
608.819	29.74
609.012	30.01
609.204	30.38
609.397	30.83
609.589	31.37
609.782	31.92
609.974	32.44
610.166	32.92
610.359	33.42
610.551	33.76
610.743	34.1
610.936	34.35
611.128	34.58
611.32	34.84
611.513	34.98
611.705	34.93
611.897	34.92
612.09	34.76
612.282	34.46
612.474	34
612.666	33.77
612.858	33.43
613.051	33.17
613.243	32.82
613.435	32.42
613.627	32.15
613.819	32.08
614.011	31.7
614.203	31.34
614.395	31.1
614.588	30.89
614.78	30.61
614.972	30.59
615.164	30.41
615.356	30.21
615.548	30.23
615.74	30
615.932	29.89
616.124	29.84
616.315	29.76
616.507	29.76
616.699	29.77
616.891	29.87
617.083	29.72
617.275	29.64
617.467	29.74
617.659	29.56
617.85	29.61
618.042	29.46
618.234	29.35
618.426	29.43
618.618	29.31
618.809	29.14
619.001	29.05
619.193	28.96
619.384	28.72
619.576	28.51
619.768	28.49
619.959	28.38
620.151	28.27
620.343	28.31
620.534	28.22
620.726	28.43
620.917	28.63
621.109	28.54
621.301	28.59
621.492	28.95
621.684	28.95
621.875	29.05
622.067	29.06
622.258	29.16
622.45	29.31
622.641	29.34
622.832	29.23
623.024	29.17
623.215	29.27
623.407	29.08
623.598	28.99
623.789	29.14
623.981	29.26
624.172	29.25
624.363	29.34
624.555	29.26
624.746	29.15
624.937	29.14
625.129	29.23
625.32	29.27
625.511	29.44
625.702	29.33
625.893	29.44
626.085	29.28
626.276	29.35
626.467	29.25
626.658	29.21
626.849	29.22
627.04	29.28
627.231	29.38
627.422	29.28
627.614	29.17
627.805	29.31
627.996	29.07
628.187	29.18
628.378	29.17
628.569	29.23
628.76	29.25
628.951	29.44
629.142	29.49
629.332	29.36
629.523	29.5
629.714	29.81
629.905	29.85
630.096	29.96
630.287	29.84
630.478	29.82
630.669	29.83
630.859	29.94
631.05	29.72
631.241	29.54
631.432	29.57
631.623	29.56
631.813	29.55
632.004	29.32
632.195	29.2
632.385	29.14
632.576	29.14
632.767	29.13
632.957	28.82
633.148	28.99
633.339	28.93
633.529	28.83
633.72	28.62
633.91	28.51
634.101	28.57
634.292	28.59
634.482	28.71
634.673	28.69
634.863	28.61
635.054	28.94
635.244	28.91
635.435	29.03
635.625	28.98
635.815	28.9
636.006	28.75
636.196	28.71
636.387	28.71
636.577	28.73
636.767	28.77
636.958	28.74
637.148	28.66
637.338	28.58
637.529	28.45
637.719	28.58
637.909	28.75
638.099	28.87
638.29	28.89
638.48	28.91
638.67	28.87
638.86	28.76
639.05	28.73
639.241	28.54
639.431	28.6
639.621	28.69
639.811	28.51
640.001	28.62
640.191	28.56
640.381	28.62
640.571	28.67
640.761	28.51
640.951	28.69
641.141	28.72
641.331	28.8
641.521	28.7
641.711	28.79
641.901	28.8
642.091	28.61
642.281	28.47
642.471	28.42
642.661	28.51
642.851	28.48
643.041	28.34
643.231	28.21
643.42	28.23
643.61	28.34
643.8	28.16
643.99	28.03
644.18	28.11
644.369	28.26
644.559	28.29
644.749	28.2
644.939	28.38
645.128	28.53
645.318	28.65
645.508	28.88
645.697	28.75
645.887	28.82
646.076	28.95
646.266	29.1
646.456	29.18
646.645	29.42
646.835	29.4
647.024	29.31
647.214	29.4
647.403	29.38
647.593	28.98
647.782	28.92
647.972	29
648.161	29.01
648.351	28.88
648.54	28.68
648.73	28.4
648.919	28.3
649.108	28.49
649.298	28.41
649.487	28.62
649.677	28.85
649.866	29.1
650.055	28.83
650.244	29
650.434	28.99
650.623	29.15
650.812	29.2
651.002	29.45
651.191	29.34
651.38	29.33
651.569	29.02
651.758	29.1
651.947	28.98
652.137	29.32
652.326	29.3
652.515	29.35
652.704	29.4
652.893	29.53
653.082	29.52
653.271	29.54
653.46	29.61
653.649	29.85
653.838	29.55
654.027	29.55
654.216	29.48
654.405	29.32
654.594	29.28
654.783	29.06
654.972	28.88
655.161	28.86
655.35	28.86
655.539	28.84
655.728	28.91
655.916	29.25
656.105	29.48
656.294	29.37
656.483	29.59
656.672	29.73
656.86	29.85
657.049	29.97
657.238	29.9
657.427	29.91
657.615	29.81
657.804	29.77
657.993	29.56
658.181	29.59
658.37	29.82
658.559	29.64
658.747	29.53
658.936	29.55
659.125	29.11
659.313	29.18
659.502	29.12
659.69	29.15
659.879	29.14
660.067	29.29
660.256	29.12
660.444	28.95
660.633	29.02
660.821	29.08
661.01	29.15
661.198	29.57
661.387	29.53
661.575	29.69
661.763	29.67
661.952	29.68
662.14	29.51
662.328	29.43
662.517	29.43
662.705	29.51
662.893	29.36
663.082	29.47
663.27	29.6
663.458	29.61
663.646	29.47
663.834	29.42
664.023	29.5
664.211	29.74
664.399	29.8
664.587	29.74
664.775	29.85
664.963	29.99
665.152	29.82
665.34	29.75
665.528	29.56
665.716	29.62
665.904	29.62
666.092	29.25
666.28	29.19
666.468	29.24
666.656	29.33
666.844	29.08
667.032	29.18
667.22	29.09
667.408	28.96
667.596	29.01
667.784	28.97
667.971	29.07
668.159	29.25
668.347	29.22
668.535	29.19
668.723	29.26
668.911	29.43
669.098	29.19
669.286	29.27
669.474	29.42
669.662	29.54
669.849	29.46
670.037	29.39
670.225	29.46
670.413	29.4
670.6	29.55
670.788	29.48
670.976	29.63
671.163	29.93
671.351	29.9
671.538	30.04
671.726	30.07
671.913	30.1
672.101	30.2
672.289	30.26
672.476	30.11
672.664	30.26
672.851	30.17
673.039	29.88
673.226	29.86
673.413	29.9
673.601	29.66
673.788	29.59
673.976	29.6
674.163	29.58
674.35	29.43
674.538	29.36
674.725	29.25
674.912	29.63
675.1	29.57
675.287	29.39
675.474	29.5
675.662	29.67
675.849	29.83
676.036	30.06
676.223	29.93
676.411	30.31
676.598	30.41
676.785	30.46
676.972	30.06
677.159	30.33
677.346	30.36
677.533	30.51
677.721	30.47
677.908	30.16
678.095	30.08
678.282	30.21
678.469	30.03
678.656	30.09
678.843	30.03
679.03	30.09
679.217	29.98
679.404	30.13
679.591	29.85
679.778	29.82
679.964	29.9
680.151	29.93
680.338	29.97
680.525	29.95
680.712	29.96
680.899	30.11
681.086	30.25
681.272	30.33
681.459	30.22
681.646	30.26
681.833	30.28
682.02	30.58
682.206	30.43
682.393	30.41
682.58	30.33
682.766	30.76
682.953	30.44
683.14	30.44
683.326	30.33
683.513	30.25
683.7	30.22
683.886	30.15
684.073	29.95
684.259	30.15
684.446	30.23
684.632	30.45
684.819	30.16
685.005	30.53
685.192	30.65
685.378	30.89
685.565	31.2
685.751	31.58
685.938	31.59
686.124	31.66
686.31	31.5
686.497	31.34
686.683	31.36
686.87	31.29
687.056	30.93
687.242	30.62
687.429	30.74
687.615	30.61
687.801	30.38
687.987	30.41
688.174	30.28
688.36	30.45
688.546	30.73
688.732	30.75
688.918	30.67
689.105	30.87
689.291	30.8
689.477	30.51
689.663	30.52
689.849	30.66
690.035	30.62
690.221	30.79
690.407	30.72
690.593	30.34
690.779	30.2
690.965	30.16
691.151	30.16
691.337	30.55
691.523	30.26
691.709	30.36
691.895	30.25
692.081	30.24
692.267	29.94
692.453	29.97
692.639	29.99
692.825	30.11
693.011	30.31
693.196	30.23
693.382	29.96
693.568	30.31
693.754	30.41
693.94	30.49
694.125	30.8
694.311	31.1
694.497	31.14
694.682	31.33
694.868	31.18
695.054	31.1
695.239	31.16
695.425	31.35
695.611	31.24
695.796	31.07
695.982	30.82
696.168	30.62
696.353	30.41
696.539	30.4
696.724	30.22
696.91	30.13
697.095	30.27
697.281	30.58
697.466	30.53
697.652	30.77
697.837	30.48
698.023	30.52
698.208	30.61
698.393	30.66
698.579	30.65
698.764	30.8
698.949	30.84
699.135	30.72
699.32	30.59
699.505	30.76
699.691	30.7
699.876	30.91
700.061	31.12
700.246	31.11
700.432	31.12
700.617	31.17
700.802	31.32
700.987	31.47
701.172	32.15
701.358	31.99
701.543	31.92
701.728	32.01
701.913	32.01
702.098	31.99
702.283	32.02
702.468	31.93
702.653	31.66
702.838	31.35
703.023	31.62
703.208	30.85
703.393	30.62
703.578	30.21
703.763	30.19
703.948	30.44
704.133	30.37
704.318	30.75
704.503	30.78
704.688	31.15
704.873	31.77
705.057	31.71
705.242	31.78
705.427	31.9
705.612	32.58
705.797	32.8
705.981	32.44
706.166	32.87
706.351	32.65
706.536	32.92
706.72	33.06
706.905	33.09
707.09	32.92
707.274	33.12
707.459	33.14
707.644	32.99
707.828	32.99
708.013	33.36
708.197	32.88
708.382	32.93
708.567	33.11
708.751	33.05
708.936	32.49
709.12	32.68
709.305	32.68
709.489	32.79
709.673	32.53
709.858	32.62
710.042	32.41
710.227	32.49
710.411	32.44
710.596	32.36
710.78	32.08
710.964	32.73
711.149	32.33
711.333	32.28
711.517	32.2
711.702	32.2
711.886	31.55
712.07	31.67
712.254	31.75
712.438	31.47
712.623	31.21
712.807	31.26
712.991	30.98
713.175	30.99
713.359	30.73
713.544	30.67
713.728	30.56
713.912	30.81
714.096	31.02
714.28	31.11
714.464	31.38
714.648	31.66
714.832	31.72
715.016	31.19
715.2	31.49
715.384	31.5
715.568	31.79
715.752	31.78
715.936	31.91
716.12	31.59
716.304	31.43
716.488	31.5
716.671	31.39
716.855	31.29
717.039	31.39
717.223	30.91
717.407	30.61
717.59	30.81
717.774	30.88
717.958	30.7
718.142	30.35
718.325	30.54
718.509	30.4
718.693	30.27
718.877	30.1
719.06	30.13
719.244	30.4
719.428	30.56
719.611	30.67
719.795	30.7
719.978	30.8
720.162	30.76
720.345	30.75
720.529	30.96
720.713	30.99
720.896	31.55
721.08	32.04
721.263	32.13
721.446	32.24
721.63	31.45
721.813	31.62
721.997	31.5
722.18	31.55
722.364	31.15
722.547	30.61
722.73	30.62
722.914	30.18
723.097	29.76
723.28	29.72
723.464	29.83
723.647	29.9
723.83	29.86
724.013	29.92
724.197	30
724.38	29.97
724.563	30.11
724.746	30.28
724.929	30.57
725.112	30.59
725.296	30.55
725.479	30.85
725.662	31.06
725.845	31.5
726.028	31.51
726.211	31.94
726.394	32.21
726.577	32.43
726.76	32.15
726.943	32.01
727.126	32.15
727.309	32.42
727.492	32.56
727.675	32.49
727.858	32.12
728.041	32.13
728.224	32.49
728.407	32.56
728.589	32.49
728.772	32.62
728.955	32.7
729.138	32.2
729.321	31.89
729.503	31.55
729.686	31.5
729.869	31.58
730.052	31.53
730.234	31.33
730.417	30.84
730.6	30.39
730.782	30.72
730.965	31.04
731.148	31.25
731.33	31.62
731.513	31.55
731.695	31.76
731.878	31.44
732.061	31.34
732.243	31.43
732.426	31.7
732.608	32.14
732.791	31.99
732.973	31.25
733.156	31.74
733.338	31.63
733.52	32.07
733.703	32.15
733.885	32.66
734.068	32.7
734.25	32.45
734.432	32.32
734.615	32.28
734.797	32.27
734.979	32.43
735.162	31.99
735.344	31.58
735.526	30.87
735.708	30.35
735.891	30.08
736.073	29.81
736.255	29.61
736.437	29.75
736.619	30.04
736.802	29.62
736.984	29.64
737.166	29.77
737.348	30.04
737.53	30.43
737.712	30.9
737.894	31.2
738.076	31.38
738.258	31.33
738.44	31.58
738.622	31.36
738.804	31.56
738.986	31.82
739.168	31.98
739.35	31.8
739.532	32.11
739.714	32.32
739.896	32.47
740.078	32.39
740.259	32.57
740.441	32.4
740.623	32.23
740.805	32.26
740.987	31.91
741.168	31.51
741.35	31.89
741.532	31.58
741.714	31.1
741.895	30.27
742.077	30.75
742.259	30.77
742.44	30.95
742.622	31.27
742.804	31.18
742.985	31.43
743.167	31.5
743.348	31.29
743.53	31.2
743.711	31.52
743.893	31.65
744.075	30.89
744.256	30.86
744.438	30.42
744.619	30.57
744.8	30.76
744.982	30.8
745.163	31.12
745.345	31.16
745.526	31.43
745.707	31.46
745.889	31.29
746.07	31.86
746.252	31.73
746.433	31.83
746.614	31.72
746.795	31.92
746.977	32.28
747.158	32.12
747.339	32.18
747.52	32.37
747.702	31.61
747.883	31.75
748.064	31.65
748.245	31.33
748.426	31.26
748.607	31.07
748.788	31.15
748.97	30.95
749.151	30.71
749.332	31.19
749.513	30.81
749.694	31.53
749.875	31.84
750.056	31.64
750.237	32.27
750.418	32.51
750.599	32.25
750.78	31.7
750.96	31.54
751.141	31.47
751.322	30.61
751.503	30.48
751.684	30.12
751.865	29.82
752.046	30.37
752.226	29.81
752.407	30.06
752.588	29.87
752.769	30.11
752.949	29.65
753.13	30.1
753.311	31.09
753.492	31.17
753.672	31.26
753.853	31.17
754.034	31.2
754.214	31.35
754.395	30.86
754.575	31.47
754.756	31.72
754.937	32.35
755.117	32.73
755.298	32.27
755.478	32.06
755.659	31.72
755.839	32.89
756.02	32.95
756.2	32.69
756.381	33.08
756.561	33.09
756.741	32.46
756.922	32.41
757.102	32.22
757.283	32.29
757.463	32.85
757.643	34.14
757.823	32.95
758.004	33.11
758.184	33.48
758.364	33.45
758.545	33.93
758.725	33.86
758.905	33.59
759.085	33.4
759.265	32.38
759.446	31.7
759.626	31.17
759.806	31.42
759.986	31.55
760.166	31.4
760.346	30.84
760.526	30.31
760.706	30.67
760.886	31.11
761.066	31.38
761.246	32.14
761.426	32.52
761.606	31.95
761.786	31.9
761.966	31.58
762.146	31.77
762.326	32.21
762.506	32.1
762.686	31.59
762.866	31.42
763.046	31.24
763.225	31.36
763.405	31.47
763.585	31.4
763.765	31.54
763.945	31.19
764.124	31.21
764.304	31.19
764.484	31.18
764.664	31.61
764.843	31.54
765.023	31.39
765.203	31.82
765.382	31.4
765.562	31.21
765.741	31.41
765.921	31.93
766.101	32.17
766.28	31.79
766.46	31.31
766.639	31.65
766.819	31.52
766.998	31.99
767.178	31.66
767.357	31.64
767.537	32.29
767.716	32.26
767.896	32.03
768.075	31.14
768.254	30.99
768.434	32.03
768.613	32.42
768.792	32.85
768.972	32.87
769.151	32.23
769.33	32.6
769.51	32.85
769.689	32.68
769.868	32.8
770.047	32.93
770.226	33.58
770.406	32.58
770.585	31.65
770.764	32.08
770.943	31.91
771.122	31.57
771.301	31.34
771.48	31.05
771.66	30.96
771.839	31.13
772.018	31.71
772.197	31.4
772.376	31.1
772.555	30.46
772.734	30.16
772.913	29.57
773.092	30.13
773.271	30.61
773.449	30.1
773.628	29.83
773.807	29.18
773.986	29.09
774.165	29.18
774.344	29.03
774.523	30.42
774.701	29.82
774.88	30.82
775.059	31.21
775.238	30.54
775.417	31.07
775.595	30.87
775.774	31.2
775.953	31.93
776.131	32.04
776.31	32.69
776.489	31.55
776.667	31.92
776.846	31.54
777.025	31.01
777.203	31.25
777.382	31.34
777.56	31.75
777.739	31.72
777.917	31.68
778.096	30.91
778.274	32.06
778.453	31.78
778.631	31.6
778.81	31.3
778.988	31.51
779.166	32.09
779.345	32.14
779.523	31.86
779.702	31.64
779.88	30.47
780.058	31.22
780.237	29.25
780.415	30.36
780.593	30.33
780.771	29.86
780.95	30.07
781.128	29.85
781.306	29.88
781.484	29.48
781.662	29.61
781.841	29.13
782.019	29.33
782.197	30.42
782.375	30.33
782.553	30.05
782.731	30.92
782.909	31
783.087	30.94
783.265	31.32
783.443	31.98
783.621	31.54
783.799	32.36
783.977	33.18
784.155	32.61
784.333	32.32
784.511	32.77
784.689	31.81
784.867	31.92
785.045	32.92
785.223	31.96
785.4	31.75
785.578	32.67
785.756	32.36
785.934	32.32
786.112	31.78
786.289	32.07
786.467	31.1
786.645	32.03
786.823	31.17
787	29.98
787.178	30.33
787.356	30.36
787.533	29.9
787.711	30.34
787.889	29.84
788.066	30.55
788.244	29.72
788.421	30.51
788.599	29.71
788.776	29.56
788.954	29.36
789.131	29.35
789.309	29.21
789.486	29.58
789.664	29.05
789.841	28.34
790.019	28.57
790.196	29.49
790.373	29.16
790.551	29.66
790.728	29.98
790.906	31.13
791.083	29.97
791.26	29.83
791.437	29.45
791.615	29.35
791.792	29.51
791.969	29.32
792.146	28.44
792.324	29.1
792.501	28.89
792.678	28.86
792.855	27.39
793.032	28.17
793.209	28.81
793.387	28.38
793.564	29.88
793.741	30.5
793.918	30.15
794.095	29.92
794.272	28.58
794.449	28.42
794.626	29.17
794.803	29.9
794.98	30.38
795.157	30.51
795.334	30.64
795.511	29.17
795.688	28.16
795.864	28.19
796.041	28.61
796.218	30.34
796.395	29.7
796.572	29.53
796.749	30.32
796.925	30.1
797.102	30.39
797.279	31.17
797.456	31.93
797.632	32.23
797.809	32.16
797.986	31.91
798.162	31.49
798.339	31.96
798.516	31.6
798.692	30.51
798.869	31.02
799.046	30.5
799.222	29.4
799.399	28.89
799.575	29.85
799.752	31.5
799.928	33.1
800.105	31.99
800.281	32.32
800.458	33.46
800.634	33.81
800.811	32.7
800.987	32.51
801.163	32.71
801.34	33.26
801.516	33.14
801.692	31.08
801.869	30.23
802.045	32.09
802.221	31.89
802.398	30.17
802.574	29.78
802.75	30.66
802.926	30.47
803.103	32.37
803.279	31.97
803.455	31.51
803.631	32.39
803.807	32.5
803.983	31.56
804.16	32.11
804.336	32.57
804.512	31.9
804.688	31.93
804.864	33.12
805.04	30.93
805.216	30.37
805.392	29.56
805.568	28.89
805.744	27.13
805.92	26.82
806.096	26.83
806.272	25.36
806.448	26.63
806.623	26.26
806.799	25.97
806.975	26.11
807.151	26.67
807.327	27.68
807.503	28.71
807.678	29.71
807.854	30.22
808.03	30.2
808.206	31.69
808.381	32.1
808.557	32.47
808.733	32.27
808.908	32.63
809.084	33.63
809.26	33.7
809.435	33.14
809.611	33.14
809.787	31.65
809.962	32.07
810.138	31.98
810.313	31.52
810.489	31.05
810.664	30.11
810.84	30.15
811.015	29.26
811.191	29.24
811.366	29.13
811.542	29.31
811.717	30.25
811.892	29.99
812.068	30.05
812.243	30.22
812.419	30.58
812.594	31.23
812.769	32.21
812.944	33.35
813.12	33.01
813.295	34.28
813.47	34.92
813.645	35
813.821	35.46
813.996	34.7
814.171	34.6
814.346	35.29
814.521	34.37
814.697	32.97
814.872	30.02
815.047	30.29
815.222	28.91
815.397	28.03
815.572	26.25
815.747	25.3
815.922	25.65
816.097	24.03
816.272	22.93
816.447	23.37
816.622	24.6
816.797	26.81
816.972	27.18
817.147	26.75
817.322	27.53
817.496	28.39
817.671	28.94
817.846	28.05
818.021	28.86
818.196	28.48
818.371	28.59
818.545	27.04
818.72	27.34
818.895	27.99
819.069	28.12
819.244	27.32
819.419	27.25
819.594	27.59
819.768	28.96
819.943	29.69
820.117	29.69
820.292	30.23
820.467	31.25
820.641	30.07
820.816	29.69
820.99	30.07
821.165	30.4
821.339	30.84
821.514	30.82
821.688	30.52
821.863	30.49
822.037	30.55
822.212	30.25
822.386	30.05
822.56	30.27
822.735	30.16
822.909	30.39
823.084	30.29
823.258	30.15
823.432	29.88
823.606	29.77
823.781	29.57
823.955	29.57
824.129	29.52
824.303	29.41
824.478	29.2
824.652	29.29
824.826	28.57
825	28.48
825.174	28.2
825.348	28.65
825.523	29.1
825.697	29.19
825.871	29.17
826.045	29.21
826.219	29.56
826.393	30.1
826.567	29.92
826.741	30.22
826.915	30.6
827.089	30.75
827.263	30.49
827.437	30.11
827.611	30.13
827.784	30.17
827.958	30.28
828.132	30.08
828.306	30.11
828.48	29.8
828.654	29.69
828.827	29.15
829.001	29.04
829.175	28.52
829.349	28.82
829.522	28.77
829.696	28.52
829.87	28.71
830.044	28.07
830.217	27.84
830.391	28.25
830.565	28.61
830.738	28.57
830.912	27.82
831.085	28.14
831.259	28.62
831.432	28.56
831.606	28.17
831.779	27.93
831.953	28.21
832.126	27.41
832.3	27.52
832.473	27.59
832.647	27.77
832.82	29.02
832.994	28.76
833.167	28.55
833.34	28.62
833.514	28.81
833.687	29.05
833.86	29.34
834.034	29.92
834.207	30.13
834.38	29.55
834.553	29.33
834.727	28.52
834.9	29.05
835.073	29.06
835.246	28.87
835.419	29.06
835.593	28.43
835.766	28.72
835.939	28.29
836.112	27.45
836.285	28.28
836.458	29.32
836.631	29.62
836.804	29.75
836.977	29.71
837.15	30.33
837.323	30.37
837.496	30.95
837.669	29.27
837.842	29.29
838.015	29.59
838.188	28.54
838.361	29.13
838.533	29.99
838.706	29.05
838.879	28.9
839.052	27.74
839.225	27
839.398	27.72
839.57	30.33
839.743	30.52
839.916	32.14
840.088	32.19
840.261	30.93
840.434	30.75
840.607	31.17
840.779	30.1
840.952	30.11
841.124	30.24
841.297	30
841.47	29.12
841.642	29.39
841.815	29.33
841.987	31.3
842.16	29.48
842.332	29.98
842.505	29.57
842.677	30.72
842.85	31.31
843.022	31.91
843.194	32.73
843.367	33.68
843.539	32.12
843.712	31.35
843.884	30.69
844.056	32.57
844.229	33.2
844.401	35.34
844.573	35.96
844.745	36.87
844.918	36.02
845.09	34.94
845.262	32.12
845.434	34.18
845.606	33.97
845.779	32.34
845.951	33.51
846.123	31.92
846.295	29.29
846.467	26.75
846.639	27.33
846.811	28.28
846.983	29.37
847.155	29.8
847.327	29.5
847.499	31.82
847.671	31.7
847.843	33.2
848.015	34.69
848.187	35.75
848.359	40.85
848.531	38.99
848.703	39.83
848.875	38.49
849.047	35.33
849.218	33.28
849.39	28.35
849.562	26.89
849.734	25.85
849.905	25.62
850.077	25.7
850.249	23.78
850.421	22.99
850.592	24.81
850.764	22.97
850.936	28.84
851.107	29.28
851.279	33.37
851.451	34.06
851.622	33.7
851.794	29.72
851.965	29.96
852.137	30.46
852.308	34.18
852.48	30.81
852.651	32.51
852.823	31.18
852.994	34.15
853.166	31.99
853.337	32.6
853.509	30.56
853.68	31.9
853.851	28.47
854.023	25.75
854.194	21.72
854.365	26.96
854.537	26.9
854.708	21.74
854.879	24.85
855.05	25.77
855.222	27.56
855.393	28.28
855.564	28.6
855.735	31.99
855.906	33.35
856.078	34.63
856.249	30.76
856.42	30.62
856.591	35.38
856.762	27.87
856.933	25.67
857.104	23.3
857.275	25.24
857.446	22.75
857.617	22.03
857.788	23.18
857.959	23
858.13	24.52
858.301	25.94
858.472	24.58
858.643	28.3
858.814	32.02
858.985	38.4
859.155	39.16
859.326	41.98
859.497	41.01
859.668	39.85
859.839	36.39
860.009	34.93
860.18	35.38
860.351	35.2
860.522	35.43
860.692	33.62
860.863	27.81
861.034	24.57
861.204	22.19
861.375	21.35
861.546	23.57
861.716	27.04
861.887	28.46
862.057	27.01
862.228	25.98
862.398	23.19
862.569	23.18
862.739	25.47
862.91	26.46
863.08	25.94
863.251	29.07
863.421	24.32
863.592	24.45
863.762	26.92
863.932	27.97
864.103	29.09
864.273	31.74
864.443	34.26
864.614	33.29
864.784	34.11
864.954	37.57
865.125	36.66
865.295	36.77
865.465	35.96
865.635	34.35
865.805	32.06
865.976	33.54
866.146	32.46
866.316	32.7
866.486	28.96
866.656	29.91
866.826	27.6
866.996	24.1
867.166	26.74
867.336	28.48
867.506	29.64
867.676	29.72
867.846	29.73
868.016	30.1
868.186	27.18
868.356	27.22
868.526	27.69
868.696	30.57
868.866	30.2
869.036	29.73
869.206	32.49
869.376	32.68
869.545	35.91
869.715	34.52
869.885	36.83
870.055	36.1
870.224	37.09
870.394	33.57
870.564	33
870.734	35.9
870.903	33.56
871.073	30.74
871.243	27.64
871.412	28.06
871.582	28.39
871.751	24.3
871.921	23.15
872.091	22.82
872.26	26.89
872.43	22.68
872.599	23.5
872.769	24.87
872.938	26.52
873.108	26.7
873.277	26.35
873.446	26.94
873.616	27.84
873.785	30.68
873.955	33
874.124	27.25
874.293	28.48
874.463	25.98
874.632	26.69
874.801	23.89
874.971	29.73
875.14	31.29
875.309	29.91
875.478	29.46
875.647	25.01
875.817	25.06
875.986	28.08
876.155	27.27
876.324	31.15
876.493	31.16
876.662	31.78
876.831	29.71
877	24.38
877.17	26.98
877.339	28.64
877.508	33.37
877.677	33.92
877.846	35.31
878.015	36.27
878.184	32.66
878.352	31.08
878.521	32.24
878.69	27.86
878.859	25.83
879.028	23.63
879.197	23.68
879.366	24.77
879.534	24.78
879.703	23.73
879.872	24.62
880.041	25.01
880.21	25.36
880.378	24.03
880.547	25.75
880.716	26.99
880.884	28.38
881.053	27.88
881.222	26.88
881.39	26.35
881.559	27.04
881.727	26.63
881.896	26.64
882.065	26.59
882.233	26.7
882.402	26.34
882.57	26.5
882.739	25.68
882.907	26.12
883.076	25.79
883.244	26.3
883.412	26.23
883.581	26.04
883.749	25.93
883.918	26.16
884.086	26.45
884.254	26.4
884.423	26.26
884.591	27.08
884.759	26.18
884.927	26.68
885.096	25.81
885.264	24.64
885.432	25.69
885.6	27.14
885.769	26.96
885.937	27.4
886.105	27.54
886.273	28.38
886.441	29.08
886.609	30.43
886.777	32.58
886.945	34.29
887.113	34.87
887.281	34.4
887.449	31.8
887.617	32.97
887.785	33.82
887.953	35.05
888.121	34.98
888.289	31.74
888.457	31.42
888.625	31.67
888.793	30.79
888.961	35.06
889.129	35.62
889.296	37.05
889.464	36.56
889.632	35.34
889.8	36.21
889.967	36.24
890.135	41.17
