Data from 2938816__Reflection_03.txt Node
Date: Thu Mar 12 15:26:07 EDT 2015
User: robert
Spectrometer: USB4E03002
Autoset integration time: false
Trigger mode: 4
Integration Time (sec): 1.000000E-1
Scans to average: 10
Electric dark correction enabled: false
Nonlinearity correction enabled: false
Boxcar width: 5
Stray light correction enabled: false
XAxis mode: Wavelengths
Stop averaging: false
Number of Pixels in Spectrum: 3648
>>>>>Begin Spectral Data<<<<<
177.575	-1123.81
177.794	-984.62
178.014	-642.74
178.233	-2535.48
178.452	1393.59
178.672	-3938.71
178.891	-694.24
179.11	-742.49
179.33	-956.63
179.549	-1046.62
179.768	-7581.82
179.987	-5203.57
180.207	-829.09
180.426	2185.94
180.645	-1557.73
180.864	-1194.07
181.084	2268.75
181.303	827.43
181.522	4425
181.741	0
181.96	36325
182.179	-5370.37
182.398	-3298
182.618	1794.74
182.837	-2197.3
183.056	-2459.32
183.275	-2290.16
183.494	-4724.24
183.713	2800
183.932	1116.55
184.151	1021.48
184.37	417.8
184.589	355.07
184.808	271.81
185.027	216.54
185.246	235.38
185.465	207.48
185.684	223.96
185.903	236.42
186.122	277.45
186.341	329.28
186.56	328.6
186.779	351.53
186.998	488.44
187.216	452.51
187.435	651.54
187.654	533.11
187.873	801.52
188.092	673.42
188.311	462.57
188.53	346.06
188.748	288.06
188.967	277.57
189.186	568.44
189.405	319.31
189.623	336.99
189.842	411.68
190.061	365.52
190.28	372.68
190.498	376.08
190.717	658.43
190.936	894.17
191.154	605.03
191.373	583
191.592	995.73
191.81	-38200
192.029	-777.21
192.248	-378.01
192.466	-295.34
192.685	-445.92
192.904	-388.24
193.122	-360.06
193.341	-405.9
193.559	-361.97
193.778	-348.44
193.996	-1866.15
194.215	3273.68
194.433	456.92
194.652	284.46
194.87	243.97
195.089	295.41
195.307	342.23
195.526	288.85
195.744	261.59
195.963	256.07
196.181	254.21
196.399	283.21
196.618	273.71
196.836	346.01
197.055	626.29
197.273	503.17
197.491	408.29
197.71	277.74
197.928	247.46
198.146	266.93
198.365	424.68
198.583	425.46
198.801	447.04
199.019	531.21
199.238	434.45
199.456	315.57
199.674	393.32
199.892	441.62
200.111	540.34
200.329	458.45
200.547	391.74
200.765	357.17
200.983	390.46
201.202	351.93
201.42	320.91
201.638	348.3
201.856	389.01
202.074	312.44
202.292	272.66
202.51	493.41
202.728	534.29
202.946	725.22
203.165	423.12
203.383	381.87
203.601	455.31
203.819	692.09
204.037	582.97
204.255	421.47
204.473	517.29
204.691	2148.48
204.909	452.13
205.127	468.2
205.345	297.19
205.562	216.94
205.78	231.35
205.998	201.2
206.216	184.3
206.434	167.28
206.652	160.29
206.87	148.52
207.088	132.32
207.306	116.59
207.523	122.08
207.741	130.3
207.959	182.11
208.177	164.68
208.395	160.42
208.612	159.25
208.83	196.35
209.048	252.96
209.266	287.24
209.483	197.12
209.701	204.59
209.919	222.82
210.136	284.12
210.354	255.57
210.572	238.47
210.79	227.23
211.007	253.06
211.225	233.71
211.442	179.9
211.66	156.68
211.878	152.58
212.095	141.05
212.313	131.61
212.53	133.86
212.748	108.87
212.966	103.59
213.183	105.26
213.401	94.56
213.618	89.34
213.836	99.83
214.053	106
214.271	128.05
214.488	139.25
214.705	134.44
214.923	120.9
215.14	141.41
215.358	150.5
215.575	156.16
215.793	135.19
216.01	135.46
216.227	130.34
216.445	117.76
216.662	109.08
216.879	120.36
217.097	133.71
217.314	132.87
217.531	136.86
217.749	126.6
217.966	114
218.183	132.92
218.4	129.07
218.618	148.58
218.835	151.4
219.052	153.98
219.269	143.79
219.487	136.33
219.704	130.43
219.921	129.45
220.138	130.98
220.355	129.64
220.572	114.64
220.79	107.17
221.007	95.01
221.224	92.58
221.441	88.53
221.658	89.47
221.875	79.02
222.092	73.99
222.309	70.84
222.526	71.79
222.743	70.33
222.96	68.05
223.177	72.78
223.394	63.31
223.611	60.88
223.828	57.09
224.045	51.8
224.262	53.69
224.479	47.47
224.696	44.78
224.913	38.7
225.13	38.33
225.347	34.44
225.564	34.49
225.781	35.1
225.997	34.13
226.214	33.19
226.431	32.65
226.648	29.12
226.865	29.95
227.082	26.57
227.298	24.79
227.515	22.7
227.732	22.1
227.949	18.93
228.165	17.72
228.382	17.14
228.599	15.81
228.816	14.45
229.032	13.47
229.249	12.85
229.466	12.4
229.682	12.98
229.899	12.88
230.116	12.07
230.332	12.64
230.549	12.75
230.765	12.11
230.982	12.12
231.199	12.31
231.415	13.77
231.632	13.32
231.848	14.72
232.065	12.8
232.281	14.61
232.498	13.95
232.714	13.47
232.931	13.91
233.147	17.82
233.364	18.55
233.58	20.11
233.797	20.87
234.013	21.91
234.23	20.54
234.446	21.84
234.662	20.34
234.879	22.42
235.095	22.47
235.312	22.79
235.528	20.42
235.744	20.01
235.961	20
236.177	18.63
236.393	17.2
236.61	18.09
236.826	18.47
237.042	18.46
237.258	17.52
237.475	18.35
237.691	17.73
237.907	17.02
238.123	17.78
238.339	17.84
238.556	19.36
238.772	20.88
238.988	20.95
239.204	19.64
239.42	20.49
239.636	20.7
239.853	20.09
240.069	19
240.285	18.05
240.501	17.31
240.717	16.59
240.933	15.43
241.149	14.26
241.365	13.16
241.581	13.28
241.797	12.67
242.013	12.32
242.229	11.8
242.445	11.33
242.661	11.49
242.877	11.03
243.093	10.85
243.309	10.7
243.525	11.19
243.741	11.91
243.957	11.77
244.173	11.46
244.388	11.54
244.604	12
244.82	12.62
245.036	12.33
245.252	12.43
245.468	11.8
245.683	11.02
245.899	10.46
246.115	9.97
246.331	9.33
246.547	9.15
246.762	9.34
246.978	9
247.194	8.97
247.409	8.98
247.625	8.87
247.841	8.68
248.057	8.82
248.272	8.6
248.488	8.41
248.703	8.55
248.919	8.89
249.135	8.54
249.35	8.56
249.566	8.55
249.782	8.36
249.997	8.69
250.213	9.03
250.428	9.08
250.644	8.89
250.859	9.02
251.075	9.6
251.29	9.32
251.506	9.16
251.721	9.21
251.937	9.93
252.152	9.72
252.368	9.2
252.583	9.48
252.798	10.1
253.014	10.61
253.229	10.53
253.445	11.29
253.66	12.13
253.875	12.94
254.091	13.46
254.306	13.29
254.521	13.56
254.737	14.8
254.952	14.41
255.167	13.09
255.383	12.6
255.598	12.37
255.813	10.52
256.028	9.92
256.244	9.77
256.459	9.53
256.674	8.75
256.889	8.62
257.104	7.36
257.32	7.8
257.535	8.66
257.75	8.82
257.965	9.12
258.18	8.91
258.395	8.34
258.61	7.77
258.826	7.61
259.041	7.23
259.256	7.32
259.471	7.58
259.686	7.34
259.901	7.09
260.116	7.11
260.331	6.72
260.546	6.66
260.761	6.8
260.976	6.83
261.191	6.96
261.406	7.15
261.621	6.92
261.836	6.69
262.05	6.52
262.265	6.84
262.48	7.1
262.695	7.36
262.91	7.58
263.125	7.53
263.34	7.13
263.555	7.15
263.769	7.99
263.984	8.08
264.199	8.14
264.414	8.96
264.629	8.65
264.843	8.07
265.058	8.75
265.273	9.53
265.488	9.96
265.702	10.23
265.917	9.67
266.132	9.25
266.346	9.32
266.561	9.28
266.776	8.81
266.99	8.21
267.205	8.42
267.42	8.29
267.634	7.94
267.849	7.27
268.063	7.51
268.278	7.61
268.492	7.44
268.707	7.52
268.922	7.07
269.136	6.84
269.351	7.49
269.565	6.61
269.78	6.42
269.994	6.18
270.209	6.39
270.423	6.07
270.637	6.35
270.852	6.1
271.066	5.95
271.281	6.17
271.495	6.39
271.709	6.2
271.924	6.62
272.138	6.37
272.353	6.34
272.567	6.34
272.781	6.69
272.996	6.56
273.21	6.51
273.424	6.8
273.638	6.99
273.853	7.37
274.067	7.75
274.281	7.76
274.495	8.29
274.71	8.17
274.924	8.17
275.138	7.76
275.352	8
275.566	8.36
275.781	8.23
275.995	7.87
276.209	7.67
276.423	7.07
276.637	7.13
276.851	6.58
277.065	7.16
277.279	7.13
277.493	7.86
277.707	7.79
277.921	7.66
278.135	7.42
278.349	8.1
278.563	8.3
278.777	8.98
278.991	9.02
279.205	9.48
279.419	8.89
279.633	9.04
279.847	8.57
280.061	8.6
280.275	8.62
280.489	7.94
280.703	7.75
280.917	7.52
281.131	6.95
281.344	7.13
281.558	6.82
281.772	6.57
281.986	6.39
282.2	6.44
282.414	6.22
282.627	6.38
282.841	6.8
283.055	6.32
283.269	6.41
283.482	6.35
283.696	5.92
283.91	5.51
284.123	5.73
284.337	5.77
284.551	5.54
284.764	5.45
284.978	5.19
285.192	5
285.405	5.07
285.619	4.84
285.833	4.91
286.046	5.15
286.26	5.48
286.473	5.69
286.687	5.82
286.9	6.11
287.114	6.22
287.327	6.4
287.541	6.71
287.754	6.92
287.968	7.05
288.181	7.01
288.395	6.9
288.608	6.83
288.822	6.56
289.035	6.5
289.248	6.28
289.462	6.21
289.675	6.21
289.889	6.52
290.102	6.54
290.315	6.67
290.529	6.94
290.742	6.73
290.955	6.6
291.169	6.89
291.382	7.24
291.595	7.41
291.808	7.35
292.022	7.34
292.235	7.13
292.448	7.3
292.661	7.12
292.875	7.02
293.088	7.36
293.301	7.66
293.514	7.32
293.727	6.92
293.94	6.95
294.153	7.32
294.367	7.36
294.58	7.36
294.793	7.11
295.006	7.23
295.219	7.17
295.432	7.09
295.645	6.92
295.858	7.03
296.071	7.1
296.284	6.69
296.497	6.65
296.71	6.58
296.923	6.42
297.136	6.39
297.349	6.45
297.562	6.39
297.775	6.52
297.988	6.68
298.201	6.73
298.414	6.65
298.626	7.13
298.839	7.04
299.052	7.13
299.265	7.49
299.478	7.85
299.691	7.71
299.903	7.74
300.116	7.73
300.329	8.17
300.542	8.44
300.755	8.92
300.967	8.62
301.18	8.79
301.393	8.23
301.605	8.11
301.818	8.19
302.031	8.25
302.243	8.31
302.456	8.77
302.669	8.57
302.881	8.22
303.094	7.81
303.307	7.69
303.519	7.56
303.732	8.19
303.944	8.12
304.157	7.67
304.37	7.79
304.582	8.01
304.795	7.9
305.007	7.72
305.22	7.79
305.432	7.75
305.645	7.89
305.857	8.11
306.069	8.33
306.282	8.7
306.494	9.26
306.707	9.53
306.919	9.64
307.132	9.51
307.344	9.6
307.556	10.23
307.769	10.41
307.981	10.38
308.193	10.15
308.406	10.17
308.618	10.1
308.83	10.02
309.043	9.95
309.255	9.98
309.467	9.9
309.679	9.89
309.892	9.47
310.104	9.23
310.316	9.69
310.528	9.94
310.74	9.86
310.953	9.82
311.165	9.72
311.377	9.52
311.589	9.07
311.801	8.95
312.013	9.04
312.225	9.17
312.437	9.4
312.649	8.89
312.862	8.78
313.074	8.81
313.286	8.82
313.498	8.99
313.71	8.82
313.922	9.14
314.134	9.39
314.346	9.18
314.558	9.47
314.77	9.36
314.982	9.83
315.193	9.78
315.405	9.77
315.617	9.72
315.829	9.36
316.041	9.64
316.253	10.04
316.465	10.07
316.677	10.26
316.888	9.89
317.1	10.17
317.312	10.15
317.524	10.28
317.736	10.16
317.947	10.4
318.159	10.65
318.371	11.06
318.583	11.08
318.794	11.36
319.006	11.85
319.218	11.93
319.43	12
319.641	11.86
319.853	11.89
320.064	12.24
320.276	12.28
320.488	12.68
320.699	12.63
320.911	12.75
321.123	12.4
321.334	12.13
321.546	12.82
321.757	13.28
321.969	13.42
322.18	13.31
322.392	13.2
322.603	13.14
322.815	13.4
323.026	13.57
323.238	13.39
323.449	13.64
323.661	13.28
323.872	13.13
324.083	12.86
324.295	12.89
324.506	12.84
324.718	12.67
324.929	12.51
325.14	12.18
325.352	11.76
325.563	11.89
325.774	12.11
325.986	12.15
326.197	12.13
326.408	12.06
326.62	12.26
326.831	12.78
327.042	13.23
327.253	13.57
327.464	13.41
327.676	13.94
327.887	14.27
328.098	14.05
328.309	14.62
328.52	14.81
328.732	15.04
328.943	15.26
329.154	15.07
329.365	14.98
329.576	14.75
329.787	15.31
329.998	15.18
330.209	15.12
330.42	15.71
330.631	15.82
330.842	15.62
331.053	15.56
331.264	15.55
331.475	16.08
331.686	16.3
331.897	16.83
332.108	16.8
332.319	16.66
332.53	17.04
332.741	16.95
332.952	16.96
333.163	16.83
333.374	16.91
333.585	16.87
333.795	16.58
334.006	16.21
334.217	16.34
334.428	16.46
334.639	16.75
334.849	16.41
335.06	16.36
335.271	16.37
335.482	16.86
335.692	17.04
335.903	16.98
336.114	16.82
336.325	16.86
336.535	16.71
336.746	16.73
336.957	16.85
337.167	17.24
337.378	17.14
337.589	17.38
337.799	17.29
338.01	17.15
338.22	17.34
338.431	17.55
338.642	17.96
338.852	17.55
339.063	17.39
339.273	17.29
339.484	16.6
339.694	16.76
339.905	16.55
340.115	16.4
340.326	16.31
340.536	16.05
340.746	16.08
340.957	15.93
341.167	16.48
341.378	16.54
341.588	16.29
341.799	16.54
342.009	16.55
342.219	16.65
342.43	16.97
342.64	16.84
342.85	16.87
343.061	16.54
343.271	16.65
343.481	16.23
343.691	16.17
343.902	16.26
344.112	16.25
344.322	16.12
344.532	15.99
344.743	15.51
344.953	15.67
345.163	15.79
345.373	15.93
345.583	15.84
345.793	16
346.004	16.28
346.214	16.43
346.424	16.57
346.634	16.71
346.844	16.67
347.054	16.74
347.264	17.07
347.474	16.94
347.684	16.99
347.894	16.86
348.104	16.79
348.314	16.42
348.524	16.27
348.734	16.14
348.944	15.88
349.154	15.8
349.364	16.11
349.574	16.06
349.784	16.33
349.994	16.44
350.204	16.38
350.413	16.33
350.623	16.36
350.833	16.49
351.043	16.32
351.253	16.3
351.463	16.57
351.672	16.42
351.882	16.48
352.092	16.35
352.302	16.4
352.511	16.69
352.721	16.92
352.931	16.84
353.141	16.82
353.35	16.89
353.56	17.17
353.77	16.77
353.979	16.56
354.189	16.37
354.399	16.78
354.608	16.73
354.818	16.57
355.027	16.54
355.237	16.8
355.447	16.69
355.656	16.64
355.866	16.34
356.075	16.38
356.285	16.54
356.494	16.35
356.704	15.71
356.913	15.77
357.123	15.68
357.332	15.42
357.542	15.26
357.751	15.27
357.96	15.3
358.17	15.31
358.379	15.41
358.589	15.58
358.798	15.73
359.007	16.1
359.217	15.88
359.426	15.9
359.635	16.11
359.845	16.01
360.054	15.97
360.263	15.71
360.472	15.63
360.682	15.45
360.891	15.19
361.1	15.08
361.309	14.72
361.519	14.67
361.728	14.73
361.937	14.5
362.146	14.52
362.355	14.48
362.564	14.68
362.774	14.72
362.983	14.62
363.192	14.54
363.401	14.53
363.61	14.6
363.819	14.71
364.028	14.69
364.237	14.86
364.446	14.89
364.655	14.67
364.864	14.56
365.073	14.59
365.282	14.82
365.491	14.74
365.7	14.53
365.909	14.71
366.118	14.9
366.327	14.89
366.536	14.91
366.745	14.91
366.954	15.03
367.162	15
367.371	14.91
367.58	14.92
367.789	15.06
367.998	15.26
368.207	15.4
368.415	15.14
368.624	15.45
368.833	15.37
369.042	15.51
369.25	15.93
369.459	15.99
369.668	16.07
369.877	15.94
370.085	15.98
370.294	15.75
370.503	15.58
370.711	15.2
370.92	14.92
371.129	14.97
371.337	14.6
371.546	14.12
371.754	14.11
371.963	14.06
372.171	14.04
372.38	13.72
372.589	13.63
372.797	13.52
373.006	13.75
373.214	13.59
373.423	13.47
373.631	13.48
373.84	13.62
374.048	13.58
374.256	13.29
374.465	12.94
374.673	13.04
374.882	13.33
375.09	13.48
375.298	13.21
375.507	13.21
375.715	13.04
375.923	12.9
376.132	12.7
376.34	12.66
376.548	12.81
376.757	13.05
376.965	13.16
377.173	12.93
377.381	12.7
377.59	12.93
377.798	12.71
378.006	12.72
378.214	12.79
378.423	12.79
378.631	12.92
378.839	12.85
379.047	12.75
379.255	12.55
379.463	12.64
379.671	12.57
379.879	12.53
380.088	12.57
380.296	12.41
380.504	12.51
380.712	12.64
380.92	12.38
381.128	12.32
381.336	12.45
381.544	12.61
381.752	12.54
381.96	12.61
382.168	12.68
382.376	12.77
382.584	12.73
382.791	12.45
382.999	12.19
383.207	12.23
383.415	12.51
383.623	12.33
383.831	12.07
384.039	12.06
384.247	11.83
384.454	11.58
384.662	11.34
384.87	11.42
385.078	11.33
385.285	11.33
385.493	10.95
385.701	10.8
385.909	11.1
386.116	11.28
386.324	11.1
386.532	11.31
386.739	11.41
386.947	11.32
387.155	11.33
387.362	11.45
387.57	11.44
387.778	11.48
387.985	11.42
388.193	11.3
388.4	11.15
388.608	11.34
388.816	11.25
389.023	11.03
389.231	10.95
389.438	10.76
389.646	10.86
389.853	10.93
390.061	10.98
390.268	10.72
390.475	10.61
390.683	10.46
390.89	10.2
391.098	10.2
391.305	10.21
391.512	10.29
391.72	10.44
391.927	10.14
392.135	9.99
392.342	9.95
392.549	10.11
392.756	9.85
392.964	9.71
393.171	9.94
393.378	9.59
393.586	9.57
393.793	9.54
394	9.45
394.207	9.55
394.414	9.45
394.622	9.45
394.829	9.57
395.036	9.7
395.243	9.85
395.45	9.7
395.657	9.86
395.864	9.93
396.072	9.89
396.279	9.7
396.486	9.67
396.693	9.84
396.9	9.64
397.107	9.12
397.314	9.22
397.521	9.15
397.728	9.06
397.935	8.91
398.142	8.83
398.349	8.84
398.556	8.86
398.763	8.95
398.97	8.86
399.177	8.92
399.383	9.09
399.59	8.93
399.797	8.9
400.004	8.96
400.211	9.07
400.418	9.12
400.625	9.24
400.831	9.29
401.038	9.16
401.245	9.19
401.452	9.24
401.658	9.33
401.865	9.31
402.072	9.34
402.279	9.36
402.485	9.48
402.692	9.34
402.899	9.19
403.105	9.25
403.312	9.24
403.519	9.1
403.725	9.02
403.932	9.09
404.138	8.9
404.345	8.77
404.552	8.5
404.758	8.41
404.965	8.4
405.171	8.46
405.378	8.43
405.584	8.53
405.791	8.6
405.997	8.46
406.204	8.13
406.41	8.12
406.617	8.28
406.823	8.47
407.029	8.47
407.236	8.62
407.442	8.45
407.649	8.11
407.855	7.87
408.061	7.75
408.268	7.99
408.474	8.39
408.68	8.61
408.887	8.47
409.093	8.46
409.299	8.38
409.505	8.23
409.712	8.24
409.918	8.46
410.124	8.48
410.33	8.39
410.537	8.41
410.743	8.12
410.949	7.91
411.155	7.78
411.361	7.59
411.567	7.68
411.773	7.69
411.98	7.7
412.186	7.69
412.392	7.7
412.598	7.84
412.804	7.67
413.01	7.7
413.216	7.78
413.422	7.82
413.628	7.98
413.834	7.79
414.04	7.71
414.246	7.67
414.452	7.66
414.658	7.69
414.864	7.68
415.07	7.64
415.275	7.66
415.481	7.59
415.687	7.79
415.893	7.73
416.099	7.68
416.305	7.65
416.511	7.52
416.716	7.53
416.922	7.52
417.128	7.41
417.334	7.48
417.539	7.33
417.745	7.35
417.951	7.2
418.157	7.09
418.362	7.09
418.568	7.05
418.774	7.01
418.979	7
419.185	6.94
419.391	6.92
419.596	6.83
419.802	6.79
420.008	6.82
420.213	6.14
420.419	6.14
420.624	6.19
420.83	6.23
421.035	6.36
421.241	6.34
421.446	6.34
421.652	6.31
421.857	6.28
422.063	6.39
422.268	6.29
422.474	6.86
422.679	6.85
422.885	6.87
423.09	6.82
423.295	6.76
423.501	6.73
423.706	6.68
423.911	6.69
424.117	6.77
424.322	6.66
424.527	6.7
424.733	6.7
424.938	6.73
425.143	6.61
425.349	6.65
425.554	6.54
425.759	6.58
425.964	6.64
426.169	6.66
426.375	6.67
426.58	6.77
426.785	6.69
426.99	6.88
427.195	6.87
427.4	6.96
427.605	6.94
427.811	7.12
428.016	7
428.221	6.97
428.426	6.99
428.631	6.87
428.836	6.82
429.041	6.86
429.246	6.81
429.451	6.92
429.656	6.72
429.861	6.69
430.066	6.48
430.271	6.56
430.476	6.48
430.681	6.37
430.886	6.38
431.09	6.43
431.295	6.43
431.5	6.33
431.705	6.27
431.91	6.37
432.115	6.4
432.32	6.56
432.524	6.6
432.729	6.68
432.934	6.79
433.139	6.78
433.343	6.72
433.548	6.7
433.753	6.69
433.958	6.73
434.162	6.73
434.367	6.67
434.572	6.67
434.776	6.52
434.981	6.42
435.186	6.41
435.39	6.44
435.595	6.52
435.799	6.58
436.004	6.65
436.209	6.6
436.413	6.71
436.618	6.8
436.822	6.85
437.027	6.91
437.231	6.95
437.436	6.88
437.64	6.93
437.845	6.93
438.049	6.9
438.253	6.89
438.458	6.8
438.662	6.72
438.867	6.67
439.071	6.58
439.275	6.61
439.48	6.58
439.684	6.66
439.888	6.75
440.093	6.74
440.297	6.67
440.501	6.65
440.706	6.64
440.91	6.67
441.114	6.61
441.318	6.59
441.523	6.6
441.727	6.66
441.931	6.57
442.135	6.34
442.339	6.24
442.543	6.36
442.748	6.24
442.952	6.27
443.156	6.19
443.36	6.28
443.564	6.37
443.768	6.32
443.972	6.37
444.176	6.33
444.38	6.32
444.584	6.42
444.788	6.35
444.992	6.46
445.196	6.41
445.4	6.48
445.604	6.5
445.808	6.44
446.012	6.35
446.216	6.29
446.42	6.35
446.624	6.38
446.828	6.29
447.032	6.26
447.235	6.14
447.439	6.12
447.643	5.99
447.847	5.93
448.051	5.99
448.254	6.02
448.458	5.99
448.662	5.98
448.866	5.97
449.069	5.98
449.273	6.09
449.477	6.14
449.681	6.32
449.884	6.35
450.088	6.4
450.292	6.37
450.495	6.43
450.699	6.5
450.902	6.46
451.106	6.4
451.31	6.49
451.513	6.43
451.717	6.49
451.92	6.29
452.124	6.39
452.327	6.37
452.531	6.32
452.734	6.29
452.938	6.14
453.141	6.13
453.345	6.22
453.548	6.1
453.752	6.02
453.955	6.01
454.158	6.13
454.362	6.1
454.565	6.02
454.769	6.09
454.972	6.09
455.175	6.11
455.379	6.02
455.582	6.08
455.785	6.14
455.988	6.29
456.192	6.27
456.395	6.25
456.598	6.11
456.801	6.12
457.005	6.04
457.208	6.15
457.411	6.19
457.614	6.28
457.817	6.28
458.021	6.23
458.224	6.24
458.427	6.21
458.63	6.2
458.833	6.34
459.036	6.4
459.239	6.35
459.442	6.23
459.645	6.23
459.848	6.24
460.051	6.28
460.254	6.32
460.457	6.22
460.66	6.21
460.863	6.29
461.066	6.18
461.269	6.19
461.472	6.3
461.675	6.36
461.878	6.45
462.081	6.45
462.284	6.31
462.486	6.3
462.689	6.41
462.892	6.47
463.095	6.37
463.298	6.45
463.5	6.39
463.703	6.35
463.906	6.44
464.109	6.38
464.311	6.51
464.514	6.53
464.717	6.54
464.92	6.4
465.122	6.45
465.325	6.52
465.528	6.48
465.73	6.51
465.933	6.51
466.135	6.47
466.338	6.44
466.541	6.29
466.743	6.26
466.946	6.18
467.148	6.11
467.351	6.07
467.553	5.97
467.756	6
467.958	5.91
468.161	5.9
468.363	5.88
468.566	5.87
468.768	6.04
468.971	6.08
469.173	6.17
469.375	6.29
469.578	6.29
469.78	6.37
469.983	6.45
470.185	6.46
470.387	6.52
470.59	6.45
470.792	6.59
470.994	6.57
471.196	6.57
471.399	6.61
471.601	6.68
471.803	6.74
472.005	6.76
472.208	6.74
472.41	6.8
472.612	6.7
472.814	6.79
473.016	6.74
473.218	6.68
473.421	6.78
473.623	6.64
473.825	6.55
474.027	6.47
474.229	6.5
474.431	6.5
474.633	6.6
474.835	6.59
475.037	6.58
475.239	6.58
475.441	6.57
475.643	6.53
475.845	6.61
476.047	6.75
476.249	6.83
476.451	6.77
476.653	6.76
476.855	6.69
477.057	6.75
477.258	6.68
477.46	6.66
477.662	6.68
477.864	6.68
478.066	6.61
478.268	6.46
478.469	6.35
478.671	6.41
478.873	6.41
479.075	6.46
479.276	6.48
479.478	6.55
479.68	6.52
479.882	6.43
480.083	6.32
480.285	6.37
480.487	6.37
480.688	6.43
480.89	6.37
481.091	6.22
481.293	6.19
481.495	6.15
481.696	6.14
481.898	6.04
482.099	5.99
482.301	5.98
482.502	5.91
482.704	5.86
482.905	5.82
483.107	5.77
483.308	5.78
483.51	5.76
483.711	5.73
483.913	5.71
484.114	5.75
484.315	5.77
484.517	5.8
484.718	5.83
484.92	5.88
485.121	5.92
485.322	5.97
485.524	6
485.725	6.01
485.926	6.03
486.127	6.04
486.329	5.99
486.53	5.98
486.731	5.99
486.932	5.95
487.134	5.96
487.335	5.9
487.536	5.87
487.737	5.88
487.938	5.89
488.139	5.89
488.341	5.9
488.542	5.96
488.743	5.97
488.944	5.93
489.145	5.98
489.346	5.96
489.547	5.99
489.748	5.97
489.949	5.93
490.15	5.94
490.351	5.94
490.552	5.95
490.753	5.93
490.954	5.97
491.155	6
491.356	6.03
491.557	6.1
491.758	6.15
491.959	6.21
492.159	6.28
492.36	6.35
492.561	6.38
492.762	6.43
492.963	6.51
493.164	6.52
493.364	6.53
493.565	6.54
493.766	6.49
493.967	6.5
494.167	6.55
494.368	6.54
494.569	6.51
494.769	6.49
494.97	6.47
495.171	6.51
495.371	6.6
495.572	6.65
495.773	6.54
495.973	6.6
496.174	6.63
496.375	6.62
496.575	6.7
496.776	6.7
496.976	6.8
497.177	6.85
497.377	6.77
497.578	6.73
497.778	6.77
497.979	6.88
498.179	6.95
498.38	6.95
498.58	6.98
498.78	6.95
498.981	7.03
499.181	7.05
499.382	7.1
499.582	7.14
499.782	7.23
499.983	7.28
500.183	7.36
500.383	7.4
500.584	7.4
500.784	7.47
500.984	7.54
501.184	7.5
501.385	7.64
501.585	7.73
501.785	7.83
501.985	7.83
502.185	7.83
502.386	7.77
502.586	7.81
502.786	7.93
502.986	7.92
503.186	8.09
503.386	8.13
503.586	8.04
503.786	7.98
503.987	7.96
504.187	8
504.387	8.1
504.587	8.23
504.787	8.23
504.987	8.23
505.187	8.27
505.387	8.15
505.587	8.18
505.786	8.22
505.986	8.28
506.186	8.34
506.386	8.43
506.586	8.42
506.786	8.44
506.986	8.47
507.186	8.52
507.386	8.59
507.585	8.71
507.785	8.84
507.985	8.85
508.185	8.85
508.384	8.94
508.584	8.99
508.784	9.02
508.984	9.09
509.183	9.18
509.383	9.31
509.583	9.41
509.782	9.42
509.982	9.48
510.182	9.58
510.381	9.64
510.581	9.73
510.781	9.76
510.98	9.83
511.18	9.89
511.379	9.93
511.579	9.9
511.778	9.98
511.978	10.12
512.177	10.14
512.377	10.23
512.576	10.36
512.776	10.4
512.975	10.46
513.175	10.59
513.374	10.7
513.573	10.94
513.773	11.12
513.972	11.22
514.172	11.29
514.371	11.36
514.57	11.38
514.77	11.41
514.969	11.49
515.168	11.58
515.367	11.69
515.567	11.81
515.766	11.75
515.965	11.76
516.164	11.73
516.364	11.85
516.563	11.96
516.762	12
516.961	12.13
517.16	12.17
517.359	12.19
517.559	12.27
517.758	12.27
517.957	12.36
518.156	12.4
518.355	12.46
518.554	12.51
518.753	12.53
518.952	12.66
519.151	12.68
519.35	12.75
519.549	12.83
519.748	12.84
519.947	12.95
520.146	12.98
520.345	13.04
520.544	13.19
520.743	13.2
520.942	13.39
521.141	13.49
521.339	13.6
521.538	13.72
521.737	13.83
521.936	13.95
522.135	13.92
522.333	14.01
522.532	14.18
522.731	14.22
522.93	14.31
523.129	14.35
523.327	14.48
523.526	14.55
523.725	14.69
523.923	14.75
524.122	14.82
524.321	14.99
524.519	15.08
524.718	15.05
524.917	15.07
525.115	15.16
525.314	15.18
525.512	15.16
525.711	15.19
525.909	15.24
526.108	15.38
526.306	15.43
526.505	15.42
526.703	15.45
526.902	15.51
527.1	15.55
527.299	15.58
527.497	15.67
527.696	15.71
527.894	15.79
528.092	15.79
528.291	15.78
528.489	15.83
528.688	15.89
528.886	15.95
529.084	16.03
529.283	16.11
529.481	16.2
529.679	16.26
529.877	16.31
530.076	16.39
530.274	16.48
530.472	16.57
530.67	16.6
530.869	16.69
531.067	16.8
531.265	16.85
531.463	16.92
531.661	16.95
531.859	16.99
532.057	17.07
532.255	17.07
532.454	17.11
532.652	17.14
532.85	17.26
533.048	17.25
533.246	17.31
533.444	17.34
533.642	17.39
533.84	17.4
534.038	17.44
534.236	17.5
534.434	17.61
534.632	17.66
534.83	17.79
535.027	17.84
535.225	17.99
535.423	17.98
535.621	18.09
535.819	18.12
536.017	18.2
536.215	18.23
536.412	18.28
536.61	18.35
536.808	18.49
537.006	18.5
537.203	18.55
537.401	18.64
537.599	18.79
537.797	18.86
537.994	18.95
538.192	19.03
538.39	19.18
538.587	19.31
538.785	19.31
538.983	19.43
539.18	19.55
539.378	19.63
539.575	19.63
539.773	19.68
539.97	19.75
540.168	19.85
540.366	19.91
540.563	19.96
540.761	19.95
540.958	19.97
541.155	19.97
541.353	20.04
541.55	20.11
541.748	20.16
541.945	20.18
542.143	20.21
542.34	20.26
542.537	20.31
542.735	20.43
542.932	20.51
543.129	20.65
543.327	20.75
543.524	20.81
543.721	20.89
543.919	21.08
544.116	21.27
544.313	21.46
544.51	21.71
544.708	21.93
544.905	22.01
545.102	22.22
545.299	22.3
545.496	22.42
545.693	22.54
545.891	22.67
546.088	22.74
546.285	22.72
546.482	22.73
546.679	22.63
546.876	22.6
547.073	22.6
547.27	22.56
547.467	22.6
547.664	22.62
547.861	22.52
548.058	22.43
548.255	22.41
548.452	22.57
548.649	22.6
548.846	22.63
549.043	22.8
549.24	22.79
549.437	22.89
549.633	22.86
549.83	22.96
550.027	23.07
550.224	23.17
550.421	23.16
550.618	23.11
550.814	23.19
551.011	23.27
551.208	23.19
551.405	23.27
551.601	23.23
551.798	23.31
551.995	23.29
552.191	23.34
552.388	23.4
552.585	23.43
552.781	23.47
552.978	23.57
553.175	23.61
553.371	23.61
553.568	23.6
553.764	23.66
553.961	23.91
554.157	23.9
554.354	24.02
554.55	24.11
554.747	24.26
554.943	24.3
555.14	24.33
555.336	24.35
555.533	24.3
555.729	24.4
555.926	24.48
556.122	24.36
556.318	24.39
556.515	24.37
556.711	24.22
556.907	24.15
557.104	24.2
557.3	24.12
557.496	24.1
557.693	24.37
557.889	24.56
558.085	24.59
558.281	24.71
558.478	24.77
558.674	24.82
558.87	25
559.066	25.08
559.262	25.11
559.459	25.19
559.655	25.23
559.851	25.13
560.047	25.03
560.243	25.08
560.439	25.01
560.635	25.08
560.831	25.16
561.027	25.19
561.223	25.16
561.419	25.21
561.615	25.29
561.811	25.45
562.007	25.53
562.203	25.54
562.399	25.59
562.595	25.63
562.791	25.65
562.987	25.58
563.183	25.56
563.379	25.58
563.575	25.62
563.771	25.59
563.966	25.45
564.162	25.42
564.358	25.5
564.554	25.48
564.75	25.5
564.945	25.57
565.141	25.7
565.337	25.8
565.533	25.82
565.728	25.89
565.924	26.02
566.12	26.08
566.315	26.13
566.511	26.17
566.707	26.31
566.902	26.47
567.098	26.42
567.293	26.44
567.489	26.41
567.684	26.51
567.88	26.51
568.076	26.5
568.271	26.6
568.467	26.67
568.662	26.7
568.858	26.66
569.053	26.46
569.248	26.47
569.444	26.47
569.639	26.47
569.835	26.5
570.03	26.4
570.225	26.32
570.421	26.27
570.616	26.28
570.812	26.34
571.007	26.16
571.202	26.3
571.397	26.38
571.593	26.56
571.788	26.63
571.983	26.61
572.178	26.63
572.374	26.82
572.569	26.87
572.764	26.97
572.959	26.96
573.154	27.17
573.35	27.17
573.545	27.24
573.74	27.06
573.935	27.13
574.13	27.28
574.325	27.38
574.52	27.2
574.715	27.13
574.91	27.1
575.105	27.03
575.3	27.02
575.495	27.14
575.69	27.11
575.885	27.19
576.08	27.24
576.275	27.17
576.47	27.26
576.665	27.47
576.86	27.75
577.055	27.83
577.25	28.05
577.444	28.04
577.639	28.08
577.834	28.23
578.029	28.32
578.224	28.3
578.418	28.4
578.613	28.46
578.808	28.62
579.003	28.5
579.197	28.54
579.392	28.51
579.587	28.67
579.781	28.84
579.976	28.93
580.171	28.98
580.365	29.03
580.56	29.08
580.755	29.07
580.949	28.96
581.144	28.93
581.338	28.86
581.533	28.9
581.727	28.98
581.922	28.96
582.116	29.04
582.311	28.99
582.505	29.12
582.7	29.12
582.894	29.2
583.089	29.19
583.283	29.3
583.478	29.4
583.672	29.62
583.866	29.64
584.061	29.52
584.255	29.32
584.449	29.38
584.644	29.47
584.838	29.48
585.032	29.44
585.226	29.39
585.421	29.33
585.615	29.29
585.809	29.24
586.003	29.13
586.198	29.22
586.392	29.24
586.586	29.13
586.78	29.02
586.974	28.89
587.168	28.97
587.363	29.04
587.557	29.08
587.751	29.11
587.945	29.07
588.139	29.22
588.333	29.17
588.527	29.19
588.721	29.24
588.915	29.24
589.109	29.27
589.303	29.19
589.497	29.08
589.691	29.03
589.885	28.91
590.079	28.96
590.273	29.04
590.466	29.01
590.66	29.04
590.854	29.1
591.048	29.25
591.242	29.4
591.436	29.27
591.629	29.61
591.823	29.79
592.017	30.11
592.211	29.96
592.404	29.78
592.598	29.92
592.792	29.99
592.986	30.02
593.179	29.88
593.373	29.84
593.567	30.05
593.76	29.73
593.954	29.79
594.147	29.69
594.341	29.85
594.535	29.83
594.728	29.69
594.922	29.63
595.115	29.64
595.309	29.62
595.502	29.63
595.696	29.6
595.889	29.75
596.083	29.64
596.276	29.57
596.47	29.51
596.663	29.54
596.856	29.48
597.05	29.49
597.243	29.45
597.437	29.38
597.63	29.35
597.823	29.38
598.017	29.35
598.21	29.35
598.403	29.39
598.596	29.48
598.79	29.39
598.983	29.66
599.176	29.71
599.369	29.73
599.563	30
599.756	30.17
599.949	30.1
600.142	30.09
600.335	30.17
600.528	30.18
600.722	30.27
600.915	30.36
601.108	30.36
601.301	30.39
601.494	30.5
601.687	30.29
601.88	30.21
602.073	30.11
602.266	30.11
602.459	30.02
602.652	29.93
602.845	29.69
603.038	29.56
603.231	29.42
603.424	29.26
603.617	29.2
603.809	29.27
604.002	29.22
604.195	29.29
604.388	29.27
604.581	29.23
604.774	29.42
604.966	29.4
605.159	29.49
605.352	29.62
605.545	29.8
605.737	29.85
605.93	29.88
606.123	29.95
606.316	30.02
606.508	30.08
606.701	30.24
606.894	30.16
607.086	30.49
607.279	30.52
607.471	30.66
607.664	30.8
607.857	30.88
608.049	30.92
608.242	31.09
608.434	31.37
608.627	31.66
608.819	31.92
609.012	32.4
609.204	32.7
609.397	33.27
609.589	33.59
609.782	33.9
609.974	34.59
610.166	35.25
610.359	35.89
610.551	36.3
610.743	36.65
610.936	37.09
611.128	37.34
611.32	37.45
611.513	37.51
611.705	37.52
611.897	37.78
612.09	37.35
612.282	37.09
612.474	36.7
612.666	36.52
612.858	36.38
613.051	36.19
613.243	35.79
613.435	35.75
613.627	35.37
613.819	35.3
614.011	34.95
614.203	34.97
614.395	34.81
614.588	34.56
614.78	34.3
614.972	34.15
615.164	33.89
615.356	33.78
615.548	33.4
615.74	33.49
615.932	33.22
616.124	33.01
616.315	32.84
616.507	32.74
616.699	32.58
616.891	32.64
617.083	32.55
617.275	32.45
617.467	32.34
617.659	32.38
617.85	32.22
618.042	32.2
618.234	32.22
618.426	32.15
618.618	32.08
618.809	32.06
619.001	31.95
619.193	31.91
619.384	31.99
619.576	32.05
619.768	32.14
619.959	31.92
620.151	32.01
620.343	32.03
620.534	32.14
620.726	32.09
620.917	32.18
621.109	32.14
621.301	32.33
621.492	32.14
621.684	32.22
621.875	32.18
622.067	32.41
622.258	32.31
622.45	32.24
622.641	32.18
622.832	32.36
623.024	32.34
623.215	32.42
623.407	32.01
623.598	32.15
623.789	31.97
623.981	31.83
624.172	31.82
624.363	31.91
624.555	31.75
624.746	31.76
624.937	31.6
625.129	31.75
625.32	31.53
625.511	31.48
625.702	31.49
625.893	31.57
626.085	31.6
626.276	31.57
626.467	31.62
626.658	31.79
626.849	31.74
627.04	31.64
627.231	31.46
627.422	31.61
627.614	31.84
627.805	31.77
627.996	31.92
628.187	32.01
628.378	31.98
628.569	32.08
628.76	32.12
628.951	32.18
629.142	32.36
629.332	32.67
629.523	32.89
629.714	32.79
629.905	32.84
630.096	32.63
630.287	32.73
630.478	32.82
630.669	32.61
630.859	32.64
631.05	32.63
631.241	32.77
631.432	32.58
631.623	32.52
631.813	32.59
632.004	32.72
632.195	32.72
632.385	32.5
632.576	32.51
632.767	32.41
632.957	32.39
633.148	32.28
633.339	32.03
633.529	32.02
633.72	31.81
633.91	31.83
634.101	31.54
634.292	31.75
634.482	31.72
634.673	32.03
634.863	32.12
635.054	31.95
635.244	31.91
635.435	32.14
635.625	32.16
635.815	32.18
636.006	32.16
636.196	32.6
636.387	32.48
636.577	32.75
636.767	32.41
636.958	32.48
637.148	32.73
637.338	32.83
637.529	32.65
637.719	32.69
637.909	32.66
638.099	32.76
638.29	32.66
638.48	32.66
638.67	32.58
638.86	32.67
639.05	32.38
639.241	32.35
639.431	32.34
639.621	32.43
639.811	32.28
640.001	32.36
640.191	32.42
640.381	32.34
640.571	32.2
640.761	32.19
640.951	32.31
641.141	32.49
641.331	32.32
641.521	32.54
641.711	32.61
641.901	32.62
642.091	32.63
642.281	32.46
642.471	32.47
642.661	32.69
642.851	32.81
643.041	32.77
643.231	32.78
643.42	32.95
643.61	32.87
643.8	32.9
643.99	33.23
644.18	33.13
644.369	33.3
644.559	33.29
644.749	33.18
644.939	33.26
645.128	33.12
645.318	33.22
645.508	33.24
645.697	33.12
645.887	32.9
646.076	32.64
646.266	32.75
646.456	32.65
646.645	32.79
646.835	32.77
647.024	32.53
647.214	32.37
647.403	32.29
647.593	32.3
647.782	32.38
647.972	32.67
648.161	32.87
648.351	32.95
648.54	33.08
648.73	32.9
648.919	33.08
649.108	33.02
649.298	33.34
649.487	33.39
649.677	33.41
649.866	33.38
650.055	33.33
650.244	33.26
650.434	33.16
650.623	32.82
650.812	32.92
651.002	32.79
651.191	32.86
651.38	32.64
651.569	32.58
651.758	32.36
651.947	32.3
652.137	32.3
652.326	32.26
652.515	32.44
652.704	32.5
652.893	32.55
653.082	32.41
653.271	32.48
653.46	32.8
653.649	32.83
653.838	33.09
654.027	33.44
654.216	33.4
654.405	33.59
654.594	33.36
654.783	33.43
654.972	33.27
655.161	33.63
655.35	33.5
655.539	33.22
655.728	33.49
655.916	33.36
656.105	33.2
656.294	33.16
656.483	32.84
656.672	32.95
656.86	33.14
657.049	33.35
657.238	33.1
657.427	33.12
657.615	33.17
657.804	32.7
657.993	32.76
658.181	32.68
658.37	32.5
658.559	32.45
658.747	32.43
658.936	32.13
659.125	32.34
659.313	32.32
659.502	32.43
659.69	32.52
659.879	32.78
660.067	32.72
660.256	32.7
660.444	32.88
660.633	32.98
660.821	32.98
661.01	33.19
661.198	32.69
661.387	33.06
661.575	33.12
661.763	32.97
661.952	33.11
662.14	33.03
662.328	33.08
662.517	33.07
662.705	33.32
662.893	33.3
663.082	33.47
663.27	33.78
663.458	33.67
663.646	33.48
663.834	33.64
664.023	33.56
664.211	33.42
664.399	33.31
664.587	33.46
664.775	33.19
664.963	33.39
665.152	33.32
665.34	33.33
665.528	33.07
665.716	33.2
665.904	33.35
666.092	33.61
666.28	33.97
666.468	34.11
666.656	34.05
666.844	34.29
667.032	34.21
667.22	34.32
667.408	34.33
667.596	34.16
667.784	34.03
667.971	33.82
668.159	33.58
668.347	33.24
668.535	33.22
668.723	33.15
668.911	32.94
669.098	32.84
669.286	32.84
669.474	32.54
669.662	32.89
669.849	33.09
670.037	33.26
670.225	33.49
670.413	33.87
670.6	33.77
670.788	33.95
670.976	34.16
671.163	34.13
671.351	33.99
671.538	34.06
671.726	34.42
671.913	34.43
672.101	34.33
672.289	34.15
672.476	34.11
672.664	34.39
672.851	34.22
673.039	34.36
673.226	34.56
673.413	34.74
673.601	34.82
673.788	34.22
673.976	34.19
674.163	34.15
674.35	34.07
674.538	34.08
674.725	33.93
674.912	34.27
675.1	33.96
675.287	34.2
675.474	34
675.662	34.18
675.849	34.25
676.036	34.42
676.223	34.34
676.411	34.46
676.598	34.44
676.785	34.73
676.972	34.57
677.159	34.77
677.346	34.63
677.533	34.6
677.721	34.41
677.908	34.47
678.095	34.27
678.282	34.24
678.469	33.97
678.656	33.86
678.843	33.61
679.03	33.74
679.217	33.6
679.404	33.46
679.591	33.52
679.778	33.6
679.964	33.77
680.151	33.7
680.338	33.83
680.525	34.24
680.712	34.15
680.899	34.05
681.086	33.88
681.272	33.68
681.459	33.67
681.646	33.55
681.833	33.76
682.02	33.58
682.206	33.69
682.393	33.59
682.58	33.5
682.766	33.73
682.953	33.77
683.14	33.97
683.326	34.23
683.513	34.38
683.7	34.65
683.886	34.17
684.073	34.43
684.259	34.26
684.446	34.69
684.632	34.64
684.819	34.54
685.005	34.4
685.192	34.21
685.378	34.11
685.565	33.79
685.751	33.56
685.938	33.72
686.124	33.72
686.31	33.88
686.497	33.65
686.683	33.45
686.87	33.61
687.056	33.6
687.242	33.76
687.429	33.97
687.615	34.42
687.801	34.53
687.987	34.55
688.174	34.21
688.36	34.33
688.546	34.1
688.732	34.1
688.918	34.15
689.105	34.64
689.291	34.35
689.477	34.26
689.663	33.93
689.849	34.18
690.035	34.55
690.221	34.77
690.407	34.6
690.593	34.77
690.779	34.97
690.965	34.62
691.151	34.19
691.337	34.44
691.523	34.55
691.709	34.9
691.895	34.71
692.081	34.36
692.267	34.27
692.453	34.2
692.639	34.04
692.825	33.92
693.011	34.13
693.196	34.5
693.382	34.21
693.568	33.8
693.754	33.75
693.94	33.64
694.125	33.63
694.311	33.96
694.497	34.12
694.682	33.99
694.868	34.16
695.054	34.08
695.239	34.02
695.425	34.34
695.611	34.71
695.796	34.61
695.982	34.71
696.168	34.63
696.353	34.13
696.539	33.85
696.724	33.88
696.91	33.59
697.095	33.75
697.281	33.88
697.466	33.79
697.652	33.75
697.837	33.69
698.023	33.86
698.208	33.84
698.393	33.82
698.579	34.11
698.764	34.04
698.949	34.23
699.135	34.16
699.32	33.82
699.505	33.77
699.691	33.51
699.876	33.49
700.061	33.31
700.246	33.38
700.432	33.6
700.617	33.47
700.802	33.87
700.987	33.77
701.172	33.58
701.358	34.02
701.543	34.17
701.728	34.52
701.913	34.77
702.098	35.02
702.283	35.19
702.468	35.4
702.653	35.48
702.838	35.16
703.023	35.31
703.208	35.74
703.393	35.52
703.578	35.66
703.763	36.04
703.948	35.7
704.133	35.4
704.318	35.78
704.503	35.96
704.688	36.43
704.873	36.92
705.057	36.94
705.242	36.88
705.427	37.01
705.612	37.05
705.797	37.02
705.981	37.44
706.166	37.9
706.351	37.72
706.536	37.69
706.72	37.24
706.905	37.25
707.09	37.2
707.274	37.14
707.459	37.1
707.644	37.39
707.828	37.6
708.013	37.54
708.197	37.26
708.382	36.95
708.567	36.92
708.751	37.23
708.936	37.21
709.12	37.33
709.305	37.52
709.489	37.68
709.673	37.19
709.858	36.87
710.042	36.88
710.227	36.76
710.411	37.05
710.596	36.96
710.78	37.22
710.964	37.02
711.149	37.08
711.333	37
711.517	36.76
711.702	36.67
711.886	36.63
712.07	36.74
712.254	37.05
712.438	36.74
712.623	36.68
712.807	36.12
712.991	36.02
713.175	35.99
713.359	35.74
713.544	36.01
713.728	36.15
713.912	36.02
714.096	35.84
714.28	35.3
714.464	35.17
714.648	34.55
714.832	34.73
715.016	34.82
715.2	34.78
715.384	35.06
715.568	34.99
715.752	34.95
715.936	35.05
716.12	34.85
716.304	34.92
716.488	34.96
716.671	35.2
716.855	35.08
717.039	34.89
717.223	34.39
717.407	34.22
717.59	34.12
717.774	34.07
717.958	34.17
718.142	34.29
718.325	34.4
718.509	34.43
718.693	34.93
718.877	34.79
719.06	34.96
719.244	35.55
719.428	35.93
719.611	36.12
719.795	36.32
719.978	36.01
720.162	36.12
720.345	36.16
720.529	36.19
720.713	36.27
720.896	36.34
721.08	36.21
721.263	35.68
721.446	35.71
721.63	35.23
721.813	34.83
721.997	34.77
722.18	35.03
722.364	35.15
722.547	34.83
722.73	34.63
722.914	34.81
723.097	34.73
723.28	35.05
723.464	35.05
723.647	35.59
723.83	36.19
724.013	36.66
724.197	36.07
724.38	36.11
724.563	36.57
724.746	36.34
724.929	36.32
725.112	37.19
725.296	37.11
725.479	37.15
725.662	36.74
725.845	36.23
726.028	36.3
726.211	36.36
726.394	36.33
726.577	36.73
726.76	37.44
726.943	37.12
727.126	36.4
727.309	36.47
727.492	36.06
727.675	36.33
727.858	36.57
728.041	36.41
728.224	36.77
728.407	36.91
728.589	36.81
728.772	36.68
728.955	37.03
729.138	37.01
729.321	36.69
729.503	36.88
729.686	36.6
729.869	36.4
730.052	35.88
730.234	35.8
730.417	35.64
730.6	35.24
730.782	34.91
730.965	34.99
731.148	34.94
731.33	35.25
731.513	35.19
731.695	35.34
731.878	35.28
732.061	36.08
732.243	35.97
732.426	35.91
732.608	35.74
732.791	35.84
732.973	35.86
733.156	36.16
733.338	36.62
733.52	36.67
733.703	36.31
733.885	36.37
734.068	36.01
734.25	36.06
734.432	35.9
734.615	36.56
734.797	36.71
734.979	37.08
735.162	37.11
735.344	36.6
735.526	36.56
735.708	36.99
735.891	37.93
736.073	38.16
736.255	38.25
736.437	38.8
736.619	38.31
736.802	38.08
736.984	37.46
737.166	38.23
737.348	38.31
737.53	38.77
737.712	38.63
737.894	38.07
738.076	38.18
738.258	38.23
738.44	37.93
738.622	38.31
738.804	38.63
738.986	39.03
739.168	38.3
739.35	38.88
739.532	38.41
739.714	38.56
739.896	38.75
740.078	38.32
740.259	38.13
740.441	38.88
740.623	38.75
740.805	38.7
740.987	38.61
741.168	38.37
741.35	37.34
741.532	37.53
741.714	37.66
741.895	37.96
742.077	38.54
742.259	38.75
742.44	38.29
742.622	38.17
742.804	38.21
742.985	37.87
743.167	38.28
743.348	38.93
743.53	38.52
743.711	38.71
743.893	37.85
744.075	37.41
744.256	37.04
744.438	37.36
744.619	37.77
744.8	37.44
744.982	37.39
745.163	37.56
745.345	37
745.526	37.49
745.707	36.65
745.889	37.1
746.07	36.91
746.252	37.73
746.433	37.35
746.614	37.72
746.795	37.47
746.977	38.01
747.158	37.67
747.339	37.99
747.52	38.45
747.702	39.47
747.883	38.89
748.064	39.26
748.245	39.38
748.426	39.12
748.607	38.74
748.788	38.67
748.97	38.28
749.151	38.47
749.332	38.55
749.513	38.15
749.694	37.8
749.875	38.21
750.056	38.13
750.237	37.43
750.418	38.12
750.599	37.68
750.78	38.21
750.96	37.9
751.141	37.99
751.322	37.69
751.503	37.46
751.684	37.44
751.865	36.55
752.046	36.76
752.226	37.15
752.407	36.56
752.588	37.38
752.769	37.75
752.949	38.26
753.13	38.14
753.311	38.26
753.492	38.14
753.672	38.65
753.853	39.52
754.034	38.64
754.214	38.48
754.395	38.87
754.575	38.81
754.756	38.7
754.937	38.83
755.117	38.2
755.298	38.63
755.478	38.96
755.659	38.51
755.839	38.72
756.02	39.49
756.2	39.53
756.381	39.57
756.561	39.33
756.741	39.24
756.922	38.83
757.102	39.46
757.283	39.69
757.463	39.28
757.643	39.03
757.823	38.34
758.004	38.09
758.184	37.45
758.364	37.13
758.545	36.56
758.725	35.71
758.905	35.7
759.085	35.65
759.265	34.94
759.446	35.01
759.626	34.85
759.806	35.25
759.986	35.44
760.166	35.36
760.346	36.03
760.526	35.64
760.706	36.21
760.886	36.16
761.066	36.03
761.246	35.94
761.426	35.91
761.606	35.74
761.786	35.23
761.966	34.82
762.146	35.33
762.326	34.83
762.506	35.22
762.686	35.12
762.866	34.89
763.046	34.37
763.225	34.64
763.405	34.31
763.585	34.36
763.765	34.66
763.945	34.5
764.124	34.82
764.304	34.65
764.484	34.53
764.664	34.58
764.843	34.71
765.023	34.96
765.203	35.36
765.382	35.58
765.562	36.52
765.741	36.3
765.921	36.7
766.101	36.29
766.28	36.08
766.46	35.96
766.639	36.01
766.819	36.64
766.998	36.97
767.178	36.52
767.357	37.07
767.537	36.1
767.716	37.03
767.896	37.02
768.075	37.39
768.254	38.2
768.434	39.56
768.613	39.93
768.792	39.31
768.972	39.28
769.151	39.54
769.33	39.74
769.51	40.38
769.689	39.84
769.868	40.02
770.047	39.82
770.226	39.41
770.406	38.74
770.585	38.58
770.764	39.26
770.943	39.2
771.122	38.85
771.301	37.97
771.48	37.8
771.66	38.51
771.839	38.01
772.018	38.25
772.197	38.99
772.376	39.06
772.555	38.9
772.734	39.05
772.913	39.44
773.092	39.33
773.271	40.38
773.449	40.07
773.628	39.66
773.807	40.48
773.986	40.21
774.165	40.93
774.344	40.94
774.523	41.58
774.701	40.9
774.88	40.68
775.059	41.28
775.238	40.74
775.417	41.03
775.595	41.73
775.774	41.47
775.953	41.45
776.131	39.76
776.31	39.75
776.489	39.75
776.667	40.46
776.846	41.75
777.025	41.69
777.203	41.59
777.382	42
777.56	41.08
777.739	41.31
777.917	41.08
778.096	42.16
778.274	42.06
778.453	42.11
778.631	42.24
778.81	41.13
778.988	41.25
779.166	41.44
779.345	41.57
779.523	41.52
779.702	42.16
779.88	42.54
780.058	42.34
780.237	42.65
780.415	42.24
780.593	41.59
780.771	41
780.95	40.54
781.128	41.06
781.306	40.61
781.484	40.86
781.662	40.15
781.841	40.72
782.019	39.93
782.197	38.85
782.375	37.9
782.553	38.66
782.731	40.24
782.909	40.24
783.087	39.81
783.265	39.75
783.443	40.04
783.621	40.37
783.799	40.23
783.977	40.38
784.155	41.24
784.333	42.62
784.511	42.94
784.689	42.75
784.867	43.66
785.045	44.89
785.223	45.27
785.4	45.86
785.578	45.87
785.756	46.05
785.934	45.65
786.112	45.07
786.289	43.95
786.467	43.3
786.645	42.95
786.823	42.58
787	41.32
787.178	41.01
787.356	39.89
787.533	38.94
787.711	38
787.889	38.96
788.066	39.31
788.244	39
788.421	38.43
788.599	38.45
788.776	38.61
788.954	38.3
789.131	38.5
789.309	38.61
789.486	38.65
789.664	39.14
789.841	39.16
790.019	39.2
790.196	39.91
790.373	40.51
790.551	40.14
790.728	39.81
790.906	39.51
791.083	39.07
791.26	38.86
791.437	39.96
791.615	40.42
791.792	40.37
791.969	41.18
792.146	41.28
792.324	41.31
792.501	41.27
792.678	40.44
792.855	41.71
793.032	40.81
793.209	41.1
793.387	41.46
793.564	41.62
793.741	41.3
793.918	40.37
794.095	40.52
794.272	40.26
794.449	39.71
794.626	40.71
794.803	40.28
794.98	41.73
795.157	41.57
795.334	40.1
795.511	39.18
795.688	39.35
795.864	39.53
796.041	39.76
796.218	40.38
796.395	42.13
796.572	42.24
796.749	41.94
796.925	41.75
797.102	41.93
797.279	42.49
797.456	43.29
797.632	42.59
797.809	41.94
797.986	41.66
798.162	41.05
798.339	39.84
798.516	40.2
798.692	40.78
798.869	40.86
799.046	41.27
799.222	40.87
799.399	40.35
799.575	40.22
799.752	40.87
799.928	39.92
800.105	40.52
800.281	39.92
800.458	39.68
800.634	38.85
800.811	38.2
800.987	38.63
801.163	39.3
801.34	39.37
801.516	40.47
801.692	40.89
801.869	41.51
802.045	40.84
802.221	41.99
802.398	41.69
802.574	41.79
802.75	42.8
802.926	42.84
803.103	43.29
803.279	43.21
803.455	42.71
803.631	42.49
803.807	42.89
803.983	44.64
804.16	44.47
804.336	44.82
804.512	46.43
804.688	46.33
804.864	46.13
805.04	45.81
805.216	46.88
805.392	48
805.568	49.18
805.744	48.54
805.92	46.39
806.096	45.69
806.272	44.82
806.448	43.98
806.623	43.56
806.799	43.92
806.975	43.65
807.151	42.27
807.327	42.13
807.503	40.49
807.678	42.05
807.854	42.44
808.03	42.11
808.206	42.86
808.381	44.35
808.557	45.03
808.733	44.25
808.908	44.5
809.084	47.07
809.26	45.58
809.435	45.75
809.611	44.98
809.787	46.14
809.962	48
810.138	49.32
810.313	48.16
810.489	47.61
810.664	48.02
810.84	49.15
811.015	47.61
811.191	47.95
811.366	48.25
811.542	49.16
811.717	48.53
811.892	47.47
812.068	45.76
812.243	45.5
812.419	45.79
812.594	44.16
812.769	43.23
812.944	42.22
813.12	43.12
813.295	43.3
813.47	41.04
813.645	40.2
813.821	40.17
813.996	40.29
814.171	40.6
814.346	39.64
814.521	41.41
814.697	42.48
814.872	42.66
815.047	42.73
815.222	43
815.397	44.17
815.572	44.91
815.747	44.21
815.922	44.76
816.097	44.56
816.272	44.35
816.447	44.19
816.622	43.87
816.797	43.61
816.972	43.45
817.147	43.72
817.322	43.99
817.496	42.4
817.671	43.88
817.846	43.66
818.021	42.71
818.196	43.5
818.371	43.15
818.545	41.79
818.72	41.28
818.895	40.6
819.069	39.68
819.244	39.24
819.419	39.88
819.594	39.03
819.768	38.42
819.943	38.57
820.117	37.96
820.292	37.28
820.467	35.99
820.641	35.02
820.816	34.65
820.99	33.8
821.165	33.34
821.339	32.17
821.514	32.04
821.688	31.59
821.863	30.86
822.037	30.18
822.212	29.79
822.386	29.83
822.56	29.94
822.735	29.64
822.909	29.53
823.084	29.38
823.258	29.63
823.432	29.28
823.606	29.44
823.781	29.75
823.955	30.25
824.129	30.38
824.303	30.83
824.478	30.9
824.652	30.99
824.826	30.77
825	31.01
825.174	31.47
825.348	31.83
825.523	31.7
825.697	32.19
825.871	31.7
826.045	31.73
826.219	31.33
826.393	31.31
826.567	32.02
826.741	32.54
826.915	32.01
827.089	32.28
827.263	32
827.437	32.39
827.611	31.81
827.784	32
827.958	32.28
828.132	32.49
828.306	32.6
828.48	32.64
828.654	33.32
828.827	34.06
829.001	34.02
829.175	35.1
829.349	35.08
829.522	35.17
829.696	36.18
829.87	36.83
830.044	37.14
830.217	38.53
830.391	38.39
830.565	37.59
830.738	38.07
830.912	37.75
831.085	37.41
831.259	37.12
831.432	37.61
831.606	36.78
831.779	35.55
831.953	35.9
832.126	34.97
832.3	34.46
832.473	35.46
832.647	35.27
832.82	34.87
832.994	34.04
833.167	34.89
833.34	34.81
833.514	34.71
833.687	35.48
833.86	34.85
834.034	34.98
834.207	35.08
834.38	34.91
834.553	35.24
834.727	34.86
834.9	35.26
835.073	33.96
835.246	34.97
835.419	35.23
835.593	35.18
835.766	35.91
835.939	36.6
836.112	36.87
836.285	37.23
836.458	37.22
836.631	38.23
836.804	39.24
836.977	40.45
837.15	39.86
837.323	41.52
837.496	40.76
837.669	41.21
837.842	41.32
838.015	42.37
838.188	42.98
838.361	43.57
838.533	43.55
838.706	43.6
838.879	44.59
839.052	46.22
839.225	44.77
839.398	48.94
839.57	48.15
839.743	46.52
839.916	45.66
840.088	46.69
840.261	48.36
840.434	50.76
840.607	49.04
840.779	48.39
840.952	45.58
841.124	48.49
841.297	45.54
841.47	46.68
841.642	47.58
841.815	48.22
841.987	47.04
842.16	46.11
842.332	45.51
842.505	46.21
842.677	47.86
842.85	51.22
843.022	52.46
843.194	52.55
843.367	52.14
843.539	50.52
843.712	51.68
843.884	52.68
844.056	50.27
844.229	49.59
844.401	51.83
844.573	49.95
844.745	50.48
844.918	47.08
845.09	47.8
845.262	47.14
845.434	52.14
845.606	50.77
845.779	51.8
845.951	53.94
846.123	54.11
846.295	52.56
846.467	55.79
846.639	56.14
846.811	53.05
846.983	58.09
847.155	59.46
847.327	58.94
847.499	61.77
847.671	61.17
847.843	61.21
848.015	64.97
848.187	67.2
848.359	69.32
848.531	65.47
848.703	70.06
848.875	68.7
849.047	68.83
849.218	68.02
849.39	68.43
849.562	68.82
849.734	71.71
849.905	69.19
850.077	69.2
850.249	69.38
850.421	74.86
850.592	75.17
850.764	70.75
850.936	73.2
851.107	71.52
851.279	67.22
851.451	65.46
851.622	64.92
851.794	66.58
851.965	68.78
852.137	65.86
852.308	64.77
852.48	60.55
852.651	65.87
852.823	66.65
852.994	70.06
853.166	70.05
853.337	73.32
853.509	69.42
853.68	67
853.851	67.42
854.023	68.05
854.194	66.46
854.365	70.36
854.537	68.7
854.708	65.38
854.879	64.03
855.05	66.46
855.222	63.57
855.393	63.66
855.564	64.65
855.735	58.49
855.906	60.9
856.078	57.46
856.249	54.02
856.42	52.51
856.591	55.08
856.762	53.25
856.933	54.87
857.104	55.96
857.275	58.04
857.446	56.98
857.617	62.45
857.788	57
857.959	59.76
858.13	63.09
858.301	62.69
858.472	61.12
858.643	63.73
858.814	63.98
858.985	62.33
859.155	62.77
859.326	63.18
859.497	58.57
859.668	63.43
859.839	65.94
860.009	68.79
860.18	70.21
860.351	72.67
860.522	71.18
860.692	67.34
860.863	68.69
861.034	73.62
861.204	71.89
861.375	72.54
861.546	72.6
861.716	72.83
861.887	70.22
862.057	70.77
862.228	69.5
862.398	68.42
862.569	73.82
862.739	74.34
862.91	70.71
863.08	69.72
863.251	70.91
863.421	69.82
863.592	69.91
863.762	70.37
863.932	70.99
864.103	73.42
864.273	74.88
864.443	71.8
864.614	74.26
864.784	73.46
864.954	77.74
865.125	77.12
865.295	77.75
865.465	77.19
865.635	78
865.805	79.28
865.976	77.89
866.146	75.22
866.316	76.17
866.486	72.18
866.656	70.01
866.826	67.88
866.996	69.7
867.166	68.51
867.336	66.56
867.506	62.8
867.676	61.62
867.846	63.13
868.016	66.34
868.186	68.85
868.356	73.16
868.526	74.94
868.696	76.85
868.866	74.84
869.036	76.67
869.206	78.91
869.376	82.95
869.545	81.96
869.715	81.63
869.885	79.14
870.055	69.11
870.224	68.13
870.394	67.55
870.564	68.57
870.734	71.77
870.903	71.24
871.073	65.7
871.243	60.39
871.412	61.44
871.582	57.36
871.751	60.64
871.921	62.82
872.091	60.79
872.26	59.37
872.43	57.56
872.599	56.06
872.769	54.51
872.938	59.64
873.108	63.54
873.277	62.12
873.446	62.84
873.616	60.81
873.785	59.68
873.955	62.08
874.124	67.89
874.293	68.53
874.463	67.73
874.632	69.56
874.801	66.19
874.971	63.86
875.14	63.79
875.309	64.89
875.478	65.55
875.647	68.11
875.817	68.34
875.986	65.46
876.155	63.3
876.324	64.82
876.493	61.73
876.662	61.73
876.831	62.88
877	63.09
877.17	62.69
877.339	62.05
877.508	62.16
877.677	59.2
877.846	56.81
878.015	53.8
878.184	51.27
878.352	51.54
878.521	52.42
878.69	52.72
878.859	51.44
879.028	51.05
879.197	50.93
879.366	48.49
879.534	47.74
879.703	47.75
879.872	49.33
880.041	48.67
880.21	46.26
880.378	44.55
880.547	41.25
880.716	39.58
880.884	37.37
881.053	35.75
881.222	34.47
881.39	33.41
881.559	32.45
881.727	32.07
881.896	31.61
882.065	31.07
882.233	29.9
882.402	30.27
882.57	30.51
882.739	30.19
882.907	30.34
883.076	30.82
883.244	31.28
883.412	31.04
883.581	30.74
883.749	30.42
883.918	30.81
884.086	32.57
884.254	31.95
884.423	33.4
884.591	33.65
884.759	34.44
884.927	35.29
885.096	34.7
885.264	35.68
885.432	36.96
885.6	39.59
885.769	41.2
885.937	40.32
886.105	41.97
886.273	40.39
886.441	42.97
886.609	42.48
886.777	41.77
886.945	45.22
887.113	48.71
887.281	48.95
887.449	48.18
887.617	49.18
887.785	52.34
887.953	54.7
888.121	51.11
888.289	52.62
888.457	54.83
888.625	58.03
888.793	55.9
888.961	54.86
889.129	57.91
889.296	61.46
889.464	62.49
889.632	60.3
889.8	61.5
889.967	68.42
890.135	69.45
