Data from 2938806__Reflection_02.txt Node
Date: Thu Mar 12 22:10:05 EDT 2015
User: robert
Spectrometer: USB4E03002
Autoset integration time: false
Trigger mode: 4
Integration Time (sec): 1.000000E-1
Scans to average: 10
Electric dark correction enabled: false
Nonlinearity correction enabled: false
Boxcar width: 5
Stray light correction enabled: false
XAxis mode: Wavelengths
Stop averaging: false
Number of Pixels in Spectrum: 3648
>>>>>Begin Spectral Data<<<<<
177.575	195.34
177.794	238.46
178.014	225.54
178.233	320.94
178.452	377.37
178.672	478.95
178.891	738.18
179.11	1357.35
179.33	1034.04
179.549	2168.75
179.768	30142.86
179.987	-4382.61
180.207	-3327.42
180.426	-610.54
180.645	-610.09
180.864	-940.74
181.084	-2111.3
181.303	-2213.46
181.522	-4398.04
181.741	-1687.79
181.96	-1944.64
182.179	5945.71
182.398	-9523.81
182.618	11876.47
182.837	2390.24
183.056	1398.52
183.275	2647.76
183.494	3614.29
183.713	3638.46
183.932	-2212.5
184.151	-1218.95
184.37	-1726.17
184.589	-892.42
184.808	-2292.05
185.027	-1273.89
185.246	-5754.29
185.465	-19300
185.684	95950
185.903	-5887.5
186.122	-1101.25
186.341	-1114.55
186.56	-393.48
186.779	-460.5
186.998	-864.29
187.216	-838.86
187.435	-1428.28
187.654	-1433.11
187.873	-1124.19
188.092	-683.39
188.311	-691.18
188.53	-1114.12
188.748	2527.5
188.967	674.14
189.186	577.56
189.405	1337.04
189.623	1190.13
189.842	3016.67
190.061	7547.62
190.28	-3758.14
190.498	1224.36
190.717	-3458.49
190.936	-1906.67
191.154	-655.93
191.373	-1033.33
191.592	-515.22
191.81	-584.69
192.029	-494.84
192.248	-580.39
192.466	-401.82
192.685	-482.49
192.904	-290.7
193.122	-483.86
193.341	-469.91
193.559	-500.93
193.778	-406.8
193.996	-484.79
194.215	-616.38
194.433	-683.2
194.652	-848.72
194.87	-2866.13
195.089	1298.61
195.307	2934.38
195.526	2869.23
195.744	1186.16
195.963	1263.41
196.181	1620.8
196.399	924.23
196.618	827.99
196.836	847.57
197.055	1182.67
197.273	911.9
197.491	2980.82
197.71	953.72
197.928	1085.58
198.146	907.6
198.365	2160.4
198.583	3213.64
198.801	1142.08
199.019	1622.41
199.238	-31080
199.456	1835.16
199.674	5393.94
199.892	862.91
200.111	1046.59
200.329	802.06
200.547	902.83
200.765	656.88
200.983	440.31
201.202	793.9
201.42	793.42
201.638	622.54
201.856	637.3
202.074	704.96
202.292	1477.6
202.51	1130.67
202.728	824.42
202.946	1657.84
203.165	1275.48
203.383	1999.12
203.601	1002.15
203.819	2325
204.037	2124.27
204.255	2460.71
204.473	941.07
204.691	1010
204.909	1122.34
205.127	934.53
205.345	544.56
205.562	502.64
205.78	417.81
205.998	441.87
206.216	264.65
206.434	295.08
206.652	264.03
206.87	245.58
207.088	228.45
207.306	207.16
207.523	209.24
207.741	229.76
207.959	221.45
208.177	253.59
208.395	283.28
208.612	410.57
208.83	264.03
209.048	352.06
209.266	659.57
209.483	614.19
209.701	13590.91
209.919	2293.06
210.136	-4605.41
210.354	-1787.88
210.572	1208.38
210.79	1243.37
211.007	805.07
211.225	-3888.46
211.442	-3727.45
211.66	1300
211.878	2562.86
212.095	1505.38
212.313	2248.78
212.53	569.16
212.748	450
212.966	462.71
213.183	405.84
213.401	382.84
213.618	254.08
213.836	209.27
214.053	264.26
214.271	287.67
214.488	238.67
214.705	283.21
214.923	291.91
215.14	286.42
215.358	271.69
215.575	246.49
215.793	238.41
216.01	341.87
216.227	597.44
216.445	397.87
216.662	295.2
216.879	253.52
217.097	210.7
217.314	251.7
217.531	236.15
217.749	217.6
217.966	250.28
218.183	261.53
218.4	245.49
218.618	253.31
218.835	201.18
219.052	177.84
219.269	183.17
219.487	177.32
219.704	158.89
219.921	159.47
220.138	151.25
220.355	128.49
220.572	123.87
220.79	107.16
221.007	107.08
221.224	113.05
221.441	110.08
221.658	115.91
221.875	108.73
222.092	98.91
222.309	95.02
222.526	107.25
222.743	108.27
222.96	98.14
223.177	102.06
223.394	89.82
223.611	87.02
223.828	85.1
224.045	73.88
224.262	74.57
224.479	72.62
224.696	66.58
224.913	59.03
225.13	56.29
225.347	53.06
225.564	46.32
225.781	45.72
225.997	42.59
226.214	39.42
226.431	36.81
226.648	31.87
226.865	29.24
227.082	27.12
227.298	23.37
227.515	19.88
227.732	18.4
227.949	17.31
228.165	15.87
228.382	14.19
228.599	12.66
228.816	11.87
229.032	9.74
229.249	8.87
229.466	8.66
229.682	8.8
229.899	7.96
230.116	8.8
230.332	8.08
230.549	7.06
230.765	8.25
230.982	9.3
231.199	9.1
231.415	11.94
231.632	13.19
231.848	13.11
232.065	14.19
232.281	16.24
232.498	14.93
232.714	16.99
232.931	19.13
233.147	17.94
233.364	17.7
233.58	21.38
233.797	20.9
234.013	21.01
234.23	20.95
234.446	20.11
234.662	20.35
234.879	21.36
235.095	20.31
235.312	19.82
235.528	21.19
235.744	20.33
235.961	18.43
236.177	19.37
236.393	18.23
236.61	18.01
236.826	17.32
237.042	16.66
237.258	14.97
237.475	16.41
237.691	19.11
237.907	16.82
238.123	17.74
238.339	16.25
238.556	16.21
238.772	15.98
238.988	16.01
239.204	15.15
239.42	14.82
239.636	15.52
239.853	14.44
240.069	11.74
240.285	11.71
240.501	10.21
240.717	9.3
240.933	7.61
241.149	7.74
241.365	6.82
241.581	7.15
241.797	6.6
242.013	5.92
242.229	5.45
242.445	5.44
242.661	5.92
242.877	6.47
243.093	6.99
243.309	7.31
243.525	7.53
243.741	8.21
243.957	8.35
244.173	8.46
244.388	9.3
244.604	9.31
244.82	9.29
245.036	8.66
245.252	7.88
245.468	7.34
245.683	7.4
245.899	6.45
246.115	6.17
246.331	5.82
246.547	5.58
246.762	5.2
246.978	5.14
247.194	4.91
247.409	4.92
247.625	4.72
247.841	4.63
248.057	4.61
248.272	4.94
248.488	4.83
248.703	5.14
248.919	5.94
249.135	6.32
249.35	6.79
249.566	7.06
249.782	7.41
249.997	8.09
250.213	8.43
250.428	8.56
250.644	8.93
250.859	9.5
251.075	9.17
251.29	7.95
251.506	7.22
251.721	6.64
251.937	7.14
252.152	7.11
252.368	7.31
252.583	8.05
252.798	8.83
253.014	8.71
253.229	8.72
253.445	8.78
253.66	9.85
253.875	11.15
254.091	11.84
254.306	12.44
254.521	13.19
254.737	14
254.952	13.43
255.167	12.13
255.383	12.67
255.598	13
255.813	12.96
256.028	11.78
256.244	11.19
256.459	11.9
256.674	11.44
256.889	10.38
257.104	9.55
257.32	9.09
257.535	8.62
257.75	7.75
257.965	6.86
258.18	6.38
258.395	6.13
258.61	5.3
258.826	4.44
259.041	3.87
259.256	3.55
259.471	3.56
259.686	3.64
259.901	3.57
260.116	3.87
260.331	3.71
260.546	3.85
260.761	3.86
260.976	4.3
261.191	4.23
261.406	4.61
261.621	4.93
261.836	4.79
262.05	4.98
262.265	5.5
262.48	5.46
262.695	5.91
262.91	6.14
263.125	6.42
263.34	6.77
263.555	7.96
263.769	8.18
263.984	8.68
264.199	9.49
264.414	9.16
264.629	9.12
264.843	9.05
265.058	8.86
265.273	8.39
265.488	8.79
265.702	8.18
265.917	7.68
266.132	7.79
266.346	8.08
266.561	7.33
266.776	6.96
266.99	6.98
267.205	7.06
267.42	7.12
267.634	7.43
267.849	7.11
268.063	7.38
268.278	7.31
268.492	7.3
268.707	6.91
268.922	7.57
269.136	8.17
269.351	7.67
269.565	7.47
269.78	7.77
269.994	7.8
270.209	7.78
270.423	7.41
270.637	7.12
270.852	6.75
271.066	6.68
271.281	6.35
271.495	6.09
271.709	5.93
271.924	5.76
272.138	5.56
272.353	5.29
272.567	4.96
272.781	4.87
272.996	4.92
273.21	4.84
273.424	5.01
273.638	5.07
273.853	4.87
274.067	5.11
274.281	5.36
274.495	5.53
274.71	5.66
274.924	6.4
275.138	6.43
275.352	6.89
275.566	7.13
275.781	6.65
275.995	6.39
276.209	6.75
276.423	6.95
276.637	6.4
276.851	5.82
277.065	5.97
277.279	5.25
277.493	5.53
277.707	5.25
277.921	5.25
278.135	4.99
278.349	5.32
278.563	5.41
278.777	5.41
278.991	5.73
279.205	6.31
279.419	6.05
279.633	6.76
279.847	6.41
280.061	6.04
280.275	5.87
280.489	6.53
280.703	5.9
280.917	5.77
281.131	5.53
281.344	5.88
281.558	5.73
281.772	5.99
281.986	5.36
282.2	5.64
282.414	5.86
282.627	5.82
282.841	5.5
283.055	5.67
283.269	5.8
283.482	5.74
283.696	5.23
283.91	5.23
284.123	4.7
284.337	4.7
284.551	4.38
284.764	4.41
284.978	4.3
285.192	4.26
285.405	4.42
285.619	4.26
285.833	4.14
286.046	4.11
286.26	3.97
286.473	3.94
286.687	4.3
286.9	4.48
287.114	4.61
287.327	4.64
287.541	4.73
287.754	4.91
287.968	4.97
288.181	5.1
288.395	5.49
288.608	5.74
288.822	6.2
289.035	6.21
289.248	6.03
289.462	5.61
289.675	5.51
289.889	5.66
290.102	5.31
290.315	5.39
290.529	5.48
290.742	5.18
290.955	5.09
291.169	5.18
291.382	5.15
291.595	5.05
291.808	5.49
292.022	5.59
292.235	5.41
292.448	5.61
292.661	5.84
292.875	6.01
293.088	6.48
293.301	6.19
293.514	5.49
293.727	5.03
293.94	5.3
294.153	5.12
294.367	5.16
294.58	4.83
294.793	4.9
295.006	4.48
295.219	4.27
295.432	4.05
295.645	3.96
295.858	4.22
296.071	4.37
296.284	4.53
296.497	4.31
296.71	4.33
296.923	4.33
297.136	4.13
297.349	4.08
297.562	4.05
297.775	3.8
297.988	3.86
298.201	3.89
298.414	4.18
298.626	3.99
298.839	4.39
299.052	4.24
299.265	4.64
299.478	5.01
299.691	5.36
299.903	5.37
300.116	5.74
300.329	5.87
300.542	6.17
300.755	6.05
300.967	6.21
301.18	6.14
301.393	6.59
301.605	6.4
301.818	6.18
302.031	6.23
302.243	6.5
302.456	6.75
302.669	6.92
302.881	6.55
303.094	6.7
303.307	6.72
303.519	6.59
303.732	6.26
303.944	6.59
304.157	6.63
304.37	6.49
304.582	6.66
304.795	6.61
305.007	6.58
305.22	6.89
305.432	6.12
305.645	6.16
305.857	6.37
306.069	6.79
306.282	6.42
306.494	6.65
306.707	6.82
306.919	6.83
307.132	6.55
307.344	6.8
307.556	6.99
307.769	7.64
307.981	7.49
308.193	7.39
308.406	7.15
308.618	7.33
308.83	7.15
309.043	7.16
309.255	7.07
309.467	7.24
309.679	7.06
309.892	6.54
310.104	6.4
310.316	6.52
310.528	6.62
310.74	6.61
310.953	6.56
311.165	6.41
311.377	6.32
311.589	6.21
311.801	6
312.013	5.95
312.225	6.22
312.437	6.22
312.649	6.45
312.862	6.2
313.074	6.29
313.286	6.37
313.498	6.73
313.71	6.55
313.922	6.57
314.134	6.91
314.346	6.79
314.558	7.31
314.77	7.37
314.982	7.17
315.193	7.47
315.405	7.74
315.617	7.92
315.829	7.79
316.041	8.14
316.253	8.26
316.465	8.25
316.677	8.8
316.888	8.66
317.1	8.91
317.312	9
317.524	8.78
317.736	8.47
317.947	8.59
318.159	8.97
318.371	8.97
318.583	8.9
318.794	9.03
319.006	8.91
319.218	8.73
319.43	9.06
319.641	9.11
319.853	9.58
320.064	10.22
320.276	10.02
320.488	9.94
320.699	10.21
320.911	10.95
321.123	10.75
321.334	10.99
321.546	10.96
321.757	10.37
321.969	10.46
322.18	10.11
322.392	9.91
322.603	9.95
322.815	9.8
323.026	9.48
323.238	9.29
323.449	9.42
323.661	9.15
323.872	9.1
324.083	9.46
324.295	9.25
324.506	9.7
324.718	9.4
324.929	9.47
325.14	9.66
325.352	9.96
325.563	9.8
325.774	9.84
325.986	9.97
326.197	10.16
326.408	10.15
326.62	10.21
326.831	10.26
327.042	10.93
327.253	10.96
327.464	10.84
327.676	10.85
327.887	11.07
328.098	11.61
328.309	11.69
328.52	11.77
328.732	11.79
328.943	12.27
329.154	12.47
329.365	12.35
329.576	12.72
329.787	13.22
329.998	13.31
330.209	13.17
330.42	13.19
330.631	13.25
330.842	13.13
331.053	13.13
331.264	13.04
331.475	12.86
331.686	12.77
331.897	12.69
332.108	12.56
332.319	12.74
332.53	13.04
332.741	13.01
332.952	12.92
333.163	13.31
333.374	13.51
333.585	13.07
333.795	13.05
334.006	13.02
334.217	13.15
334.428	13.37
334.639	13.31
334.849	13.28
335.06	13.13
335.271	13.48
335.482	13.31
335.692	13.33
335.903	13.54
336.114	13.56
336.325	13.72
336.535	13.78
336.746	14
336.957	13.75
337.167	13.61
337.378	13.88
337.589	13.89
337.799	13.76
338.01	13.61
338.22	13.89
338.431	13.67
338.642	13.56
338.852	13.58
339.063	13.36
339.273	13.61
339.484	13.84
339.694	13.61
339.905	13.52
340.115	13.91
340.326	14.01
340.536	14.07
340.746	14.44
340.957	14.28
341.167	14.3
341.378	14.19
341.588	14.12
341.799	13.89
342.009	13.77
342.219	13.97
342.43	13.64
342.64	13.62
342.85	13.56
343.061	13.34
343.271	13.39
343.481	13.01
343.691	12.68
343.902	12.76
344.112	12.9
344.322	12.96
344.532	12.94
344.743	12.73
344.953	12.77
345.163	12.94
345.373	12.98
345.583	13.03
345.793	13.1
346.004	13.15
346.214	13.07
346.424	13.08
346.634	13.16
346.844	12.99
347.054	13.16
347.264	13.01
347.474	12.57
347.684	12.52
347.894	12.42
348.104	12.76
348.314	12.9
348.524	12.7
348.734	12.76
348.944	12.72
349.154	12.56
349.364	12.8
349.574	12.66
349.784	12.81
349.994	13.22
350.204	13.01
350.413	12.76
350.623	12.96
350.833	13.09
351.043	13.04
351.253	12.8
351.463	13.03
351.672	12.71
351.882	12.7
352.092	12.43
352.302	11.77
352.511	11.85
352.721	11.88
352.931	11.46
353.141	11.36
353.35	11.5
353.56	11.63
353.77	11.66
353.979	12.11
354.189	12.28
354.399	12.35
354.608	12.44
354.818	12.37
355.027	12.37
355.237	12.64
355.447	12.72
355.656	12.52
355.866	12.32
356.075	12.38
356.285	12.24
356.494	12.06
356.704	12.43
356.913	12.42
357.123	12.63
357.332	12.42
357.542	12.18
357.751	12.07
357.96	11.77
358.17	11.76
358.379	11.56
358.589	11.61
358.798	11.61
359.007	11.35
359.217	11.19
359.426	11.17
359.635	11.29
359.845	11.26
360.054	11.17
360.263	11.35
360.472	11.22
360.682	11.15
360.891	10.9
361.1	10.8
361.309	10.61
361.519	10.85
361.728	10.92
361.937	10.88
362.146	10.95
362.355	11.08
362.564	10.99
362.774	11.09
362.983	11.06
363.192	11.11
363.401	11.35
363.61	11.49
363.819	11.47
364.028	11.48
364.237	11.57
364.446	11.42
364.655	11.24
364.864	11.28
365.073	11.53
365.282	11.65
365.491	11.51
365.7	11.48
365.909	11.69
366.118	11.53
366.327	11.55
366.536	11.61
366.745	11.9
366.954	12.13
367.162	12.05
367.371	11.77
367.58	11.63
367.789	11.96
367.998	11.82
368.207	11.43
368.415	11.76
368.624	11.6
368.833	11.28
369.042	11.14
369.25	11.03
369.459	11.2
369.668	11.46
369.877	11.57
370.085	11.29
370.294	11.46
370.503	11.59
370.711	11.31
370.92	11.39
371.129	11.45
371.337	11.39
371.546	11.36
371.754	11.49
371.963	11.28
372.171	11.48
372.38	11.65
372.589	11.7
372.797	11.82
373.006	11.82
373.214	11.91
373.423	11.84
373.631	11.93
373.84	12.01
374.048	11.76
374.256	11.83
374.465	11.66
374.673	11.52
374.882	11.38
375.09	11.42
375.298	11.51
375.507	11.06
375.715	11.16
375.923	11.17
376.132	10.94
376.34	10.96
376.548	11.12
376.757	11.25
376.965	11.19
377.173	11.14
377.381	11.05
377.59	11.07
377.798	11.14
378.006	10.93
378.214	10.88
378.423	10.99
378.631	10.98
378.839	10.57
379.047	10.44
379.255	10.43
379.463	10.61
379.671	10.69
379.879	10.48
380.088	10.66
380.296	10.74
380.504	10.87
380.712	11
380.92	10.87
381.128	11.16
381.336	10.9
381.544	11.11
381.752	11
381.96	10.7
382.168	10.99
382.376	10.84
382.584	10.79
382.791	10.64
382.999	10.61
383.207	10.81
383.415	10.85
383.623	11.14
383.831	10.91
384.039	10.78
384.247	10.78
384.454	10.73
384.662	10.77
384.87	10.92
385.078	11.05
385.285	11.13
385.493	11.19
385.701	11.07
385.909	10.83
386.116	10.97
386.324	11.06
386.532	11.16
386.739	11.09
386.947	10.98
387.155	10.97
387.362	10.89
387.57	10.59
387.778	10.54
387.985	10.6
388.193	10.81
388.4	10.78
388.608	10.81
388.816	10.8
389.023	10.78
389.231	10.88
389.438	10.92
389.646	10.97
389.853	11.13
390.061	10.81
390.268	10.71
390.475	10.7
390.683	10.77
390.89	10.74
391.098	10.85
391.305	10.73
391.512	10.72
391.72	10.61
391.927	10.55
392.135	10.77
392.342	10.99
392.549	11.17
392.756	10.91
392.964	10.74
393.171	10.77
393.378	10.92
393.586	10.91
393.793	10.93
394	11.08
394.207	10.95
394.414	10.7
394.622	10.68
394.829	10.47
395.036	10.63
395.243	10.65
395.45	10.71
395.657	10.49
395.864	10.63
396.072	10.73
396.279	10.68
396.486	10.78
396.693	10.64
396.9	10.51
397.107	10.47
397.314	10.47
397.521	10.63
397.728	10.37
397.935	10.23
398.142	10.21
398.349	10.08
398.556	10.08
398.763	10.07
398.97	10.12
399.177	10.18
399.383	10.4
399.59	10.21
399.797	10.17
400.004	10.45
400.211	10.54
400.418	10.6
400.625	10.76
400.831	10.98
401.038	11.04
401.245	11
401.452	11.19
401.658	11.18
401.865	11.17
402.072	11.02
402.279	11.05
402.485	10.95
402.692	10.86
402.899	10.85
403.105	10.71
403.312	10.63
403.519	10.49
403.725	10.31
403.932	10.12
404.138	10.28
404.345	10.31
404.552	10.14
404.758	10.16
404.965	10.12
405.171	10.01
405.378	9.96
405.584	9.97
405.791	10.2
405.997	10.19
406.204	10.35
406.41	10.35
406.617	10.39
406.823	10.36
407.029	10.5
407.236	10.6
407.442	10.55
407.649	10.59
407.855	10.67
408.061	10.71
408.268	10.88
408.474	10.85
408.68	10.87
408.887	10.92
409.093	10.97
409.299	10.88
409.505	10.85
409.712	10.89
409.918	10.87
410.124	10.71
410.33	10.65
410.537	10.46
410.743	10.44
410.949	10.38
411.155	10.25
411.361	10.21
411.567	10.14
411.773	10.06
411.98	10.11
412.186	10.04
412.392	10.15
412.598	10.17
412.804	10.15
413.01	10.24
413.216	10.23
413.422	10.31
413.628	10.31
413.834	10.44
414.04	10.48
414.246	10.45
414.452	10.4
414.658	10.42
414.864	10.29
415.07	10.41
415.275	10.24
415.481	10.11
415.687	10.17
415.893	10.13
416.099	9.96
416.305	9.9
416.511	9.82
416.716	9.9
416.922	9.83
417.128	9.93
417.334	9.94
417.539	9.96
417.745	10.04
417.951	9.91
418.157	9.95
418.362	9.98
418.568	10
418.774	9.94
418.979	9.92
419.185	9.89
419.391	9.77
419.596	9.69
419.802	9.63
420.008	9.59
420.213	10.01
420.419	9.92
420.624	9.91
420.83	9.83
421.035	9.76
421.241	9.66
421.446	9.59
421.652	9.74
421.857	9.76
422.063	9.71
422.268	9.75
422.474	9.37
422.679	9.38
422.885	9.38
423.09	9.34
423.295	9.36
423.501	9.39
423.706	9.37
423.911	9.21
424.117	9.18
424.322	9.29
424.527	9.22
424.733	9.18
424.938	9.13
425.143	9.08
425.349	9.15
425.554	9.11
425.759	9.09
425.964	9.18
426.169	9.28
426.375	9.34
426.58	9.21
426.785	9.29
426.99	9.33
427.195	9.41
427.4	9.53
427.605	9.53
427.811	9.77
428.016	9.87
428.221	9.83
428.426	9.77
428.631	9.6
428.836	9.67
429.041	9.49
429.246	9.56
429.451	9.58
429.656	9.64
429.861	9.67
430.066	9.44
430.271	9.35
430.476	9.33
430.681	9.3
430.886	9.44
431.09	9.51
431.295	9.64
431.5	9.59
431.705	9.63
431.91	9.57
432.115	9.54
432.32	9.54
432.524	9.58
432.729	9.65
432.934	9.64
433.139	9.66
433.343	9.62
433.548	9.6
433.753	9.6
433.958	9.57
434.162	9.55
434.367	9.63
434.572	9.74
434.776	9.81
434.981	9.89
435.186	9.93
435.39	9.98
435.595	9.92
435.799	9.95
436.004	10.01
436.209	9.95
436.413	10.01
436.618	9.87
436.822	9.82
437.027	9.72
437.231	9.63
437.436	9.62
437.64	9.57
437.845	9.68
438.049	9.76
438.253	9.68
438.458	9.71
438.662	9.61
438.867	9.63
439.071	9.67
439.275	9.7
439.48	9.66
439.684	9.62
439.888	9.55
440.093	9.51
440.297	9.39
440.501	9.39
440.706	9.43
440.91	9.51
441.114	9.61
441.318	9.52
441.523	9.59
441.727	9.62
441.931	9.63
442.135	9.61
442.339	9.6
442.543	9.7
442.748	9.75
442.952	9.62
443.156	9.61
443.36	9.48
443.564	9.59
443.768	9.53
443.972	9.45
444.176	9.53
444.38	9.59
444.584	9.66
444.788	9.52
444.992	9.41
445.196	9.48
445.4	9.36
445.604	9.38
445.808	9.28
446.012	9.23
446.216	9.26
446.42	9.21
446.624	9.18
446.828	9.09
447.032	9.21
447.235	9.23
447.439	9.27
447.643	9.36
447.847	9.34
448.051	9.46
448.254	9.45
448.458	9.48
448.662	9.51
448.866	9.54
449.069	9.64
449.273	9.54
449.477	9.53
449.681	9.51
449.884	9.61
450.088	9.62
450.292	9.61
450.495	9.66
450.699	9.68
450.902	9.71
451.106	9.69
451.31	9.61
451.513	9.66
451.717	9.72
451.92	9.79
452.124	9.7
452.327	9.74
452.531	9.73
452.734	9.85
452.938	9.74
453.141	9.7
453.345	9.82
453.548	9.88
453.752	9.93
453.955	9.94
454.158	9.95
454.362	9.87
454.565	9.94
454.769	9.83
454.972	9.73
455.175	9.85
455.379	9.89
455.582	9.88
455.785	9.82
455.988	9.86
456.192	9.8
456.395	9.67
456.598	9.68
456.801	9.61
457.005	9.75
457.208	9.72
457.411	9.69
457.614	9.7
457.817	9.54
458.021	9.5
458.224	9.38
458.427	9.42
458.63	9.38
458.833	9.4
459.036	9.35
459.239	9.29
459.442	9.3
459.645	9.33
459.848	9.32
460.051	9.34
460.254	9.37
460.457	9.35
460.66	9.37
460.863	9.46
461.066	9.5
461.269	9.6
461.472	9.54
461.675	9.54
461.878	9.5
462.081	9.49
462.284	9.51
462.486	9.59
462.689	9.68
462.892	9.64
463.095	9.67
463.298	9.66
463.5	9.58
463.703	9.68
463.906	9.66
464.109	9.69
464.311	9.78
464.514	9.83
464.717	9.72
464.92	9.71
465.122	9.72
465.325	9.62
465.528	9.57
465.73	9.58
465.933	9.53
466.135	9.56
466.338	9.58
466.541	9.52
466.743	9.5
466.946	9.67
467.148	9.64
467.351	9.59
467.553	9.78
467.756	9.75
467.958	9.81
468.161	9.89
468.363	9.9
468.566	9.81
468.768	9.78
468.971	9.73
469.173	9.65
469.375	9.64
469.578	9.71
469.78	9.6
469.983	9.63
470.185	9.59
470.387	9.53
470.59	9.56
470.792	9.72
470.994	9.72
471.196	9.84
471.399	9.84
471.601	10.01
471.803	9.93
472.005	9.78
472.208	9.84
472.41	9.84
472.612	9.9
472.814	9.86
473.016	9.73
473.218	9.74
473.421	9.68
473.623	9.67
473.825	9.57
474.027	9.65
474.229	9.8
474.431	9.77
474.633	9.87
474.835	9.88
475.037	9.92
475.239	10.02
475.441	10.08
475.643	10.11
475.845	10.12
476.047	10.11
476.249	10.1
476.451	10.1
476.653	10.1
476.855	9.99
477.057	9.94
477.258	9.92
477.46	9.86
477.662	9.86
477.864	9.79
478.066	9.78
478.268	9.7
478.469	9.64
478.671	9.58
478.873	9.53
479.075	9.65
479.276	9.64
479.478	9.66
479.68	9.59
479.882	9.57
480.083	9.52
480.285	9.47
480.487	9.51
480.688	9.55
480.89	9.56
481.091	9.5
481.293	9.38
481.495	9.33
481.696	9.29
481.898	9.29
482.099	9.19
482.301	9.15
482.502	9.1
482.704	9.04
482.905	8.98
483.107	8.92
483.308	8.92
483.51	8.88
483.711	8.89
483.913	8.85
484.114	8.88
484.315	8.88
484.517	8.91
484.718	8.96
484.92	9
485.121	9.04
485.322	9.12
485.524	9.14
485.725	9.14
485.926	9.17
486.127	9.19
486.329	9.15
486.53	9.16
486.731	9.14
486.932	9.09
487.134	9.08
487.335	9.06
487.536	8.97
487.737	8.99
487.938	9.02
488.139	9.01
488.341	9.04
488.542	9.06
488.743	9.09
488.944	9.08
489.145	9.1
489.346	9.09
489.547	9.13
489.748	9.13
489.949	9.09
490.15	9.13
490.351	9.13
490.552	9.12
490.753	9.09
490.954	9.03
491.155	9.01
491.356	9
491.557	9.03
491.758	9
491.959	9.07
492.159	9.1
492.36	9.05
492.561	9.05
492.762	9.09
492.963	9.11
493.164	9.24
493.364	9.36
493.565	9.45
493.766	9.49
493.967	9.57
494.167	9.55
494.368	9.59
494.569	9.69
494.769	9.81
494.97	9.8
495.171	9.84
495.371	9.78
495.572	9.69
495.773	9.68
495.973	9.65
496.174	9.63
496.375	9.72
496.575	9.74
496.776	9.75
496.976	9.68
497.177	9.72
497.377	9.74
497.578	9.8
497.778	9.89
497.979	9.93
498.179	9.96
498.38	9.92
498.58	9.87
498.78	9.93
498.981	9.92
499.181	9.98
499.382	10.02
499.582	10.07
499.782	10.05
499.983	10.06
500.183	10.07
500.383	10.1
500.584	10.2
500.784	10.26
500.984	10.29
501.184	10.37
501.385	10.39
501.585	10.29
501.785	10.28
501.985	10.33
502.185	10.32
502.386	10.22
502.586	10.18
502.786	10.25
502.986	10.21
503.186	10.13
503.386	10.11
503.586	10.12
503.786	10.15
503.987	10.11
504.187	10.04
504.387	10.02
504.587	10.12
504.787	10.14
504.987	10.11
505.187	10.24
505.387	10.31
505.587	10.33
505.786	10.34
505.986	10.41
506.186	10.44
506.386	10.51
506.586	10.54
506.786	10.48
506.986	10.45
507.186	10.4
507.386	10.31
507.585	10.25
507.785	10.21
507.985	10.17
508.185	10.27
508.384	10.27
508.584	10.24
508.784	10.25
508.984	10.34
509.183	10.39
509.383	10.41
509.583	10.37
509.782	10.4
509.982	10.39
510.182	10.36
510.381	10.22
510.581	10.23
510.781	10.3
510.98	10.33
511.18	10.38
511.379	10.39
511.579	10.44
511.778	10.51
511.978	10.52
512.177	10.59
512.377	10.69
512.576	10.78
512.776	10.84
512.975	10.9
513.175	10.96
513.374	10.88
513.573	10.86
513.773	10.86
513.972	10.86
514.172	10.91
514.371	10.92
514.57	10.93
514.77	10.92
514.969	10.92
515.168	10.91
515.367	10.9
515.567	10.92
515.766	10.96
515.965	11
516.164	11.06
516.364	11.03
516.563	11.01
516.762	10.93
516.961	10.88
517.16	10.83
517.359	10.8
517.559	10.79
517.758	10.76
517.957	10.84
518.156	10.8
518.355	10.79
518.554	10.75
518.753	10.71
518.952	10.68
519.151	10.72
519.35	10.73
519.549	10.69
519.748	10.67
519.947	10.72
520.146	10.7
520.345	10.74
520.544	10.81
520.743	10.87
520.942	10.95
521.141	11.02
521.339	11.02
521.538	11.05
521.737	11.15
521.936	11.2
522.135	11.24
522.333	11.3
522.532	11.3
522.731	11.32
522.93	11.37
523.129	11.44
523.327	11.41
523.526	11.43
523.725	11.42
523.923	11.45
524.122	11.38
524.321	11.32
524.519	11.31
524.718	11.34
524.917	11.27
525.115	11.25
525.314	11.28
525.512	11.29
525.711	11.3
525.909	11.35
526.108	11.28
526.306	11.32
526.505	11.31
526.703	11.27
526.902	11.23
527.1	11.2
527.299	11.19
527.497	11.14
527.696	11.16
527.894	11.13
528.092	11.13
528.291	11.13
528.489	11.16
528.688	11.17
528.886	11.19
529.084	11.25
529.283	11.28
529.481	11.33
529.679	11.38
529.877	11.43
530.076	11.5
530.274	11.54
530.472	11.62
530.67	11.66
530.869	11.72
531.067	11.72
531.265	11.69
531.463	11.75
531.661	11.77
531.859	11.81
532.057	11.82
532.255	11.76
532.454	11.78
532.652	11.75
532.85	11.75
533.048	11.78
533.246	11.82
533.444	11.87
533.642	11.9
533.84	11.92
534.038	11.9
534.236	11.97
534.434	12.07
534.632	12.15
534.83	12.21
535.027	12.27
535.225	12.26
535.423	12.33
535.621	12.36
535.819	12.39
536.017	12.39
536.215	12.38
536.412	12.39
536.61	12.42
536.808	12.33
537.006	12.44
537.203	12.46
537.401	12.57
537.599	12.61
537.797	12.62
537.994	12.66
538.192	12.74
538.39	12.79
538.587	12.81
538.785	12.8
538.983	12.89
539.18	12.81
539.378	12.77
539.575	12.69
539.773	12.67
539.97	12.68
540.168	12.67
540.366	12.61
540.563	12.66
540.761	12.65
540.958	12.61
541.155	12.62
541.353	12.66
541.55	12.68
541.748	12.76
541.945	12.81
542.143	12.83
542.34	12.81
542.537	12.88
542.735	12.89
542.932	12.97
543.129	13.08
543.327	13.15
543.524	13.18
543.721	13.23
543.919	13.26
544.116	13.27
544.313	13.42
544.51	13.52
544.708	13.53
544.905	13.6
545.102	13.66
545.299	13.64
545.496	13.66
545.693	13.64
545.891	13.69
546.088	13.67
546.285	13.67
546.482	13.64
546.679	13.65
546.876	13.74
547.073	13.76
547.27	13.67
547.467	13.71
547.664	13.75
547.861	13.88
548.058	13.95
548.255	14.02
548.452	14.1
548.649	14.08
548.846	14.06
549.043	14
549.24	14.02
549.437	14.07
549.633	14.06
549.83	14.09
550.027	14.16
550.224	14.18
550.421	14.15
550.618	14.2
550.814	14.22
551.011	14.24
551.208	14.26
551.405	14.13
551.601	14.2
551.798	14.25
551.995	14.2
552.191	14.13
552.388	14.04
552.585	14.07
552.781	14.02
552.978	14
553.175	14.1
553.371	14.2
553.568	14.31
553.764	14.32
553.961	14.37
554.157	14.36
554.354	14.29
554.55	14.34
554.747	14.35
554.943	14.36
555.14	14.28
555.336	14.27
555.533	14.21
555.729	14.27
555.926	14.27
556.122	14.34
556.318	14.4
556.515	14.46
556.711	14.43
556.907	14.53
557.104	14.5
557.3	14.65
557.496	14.64
557.693	14.67
557.889	14.64
558.085	14.58
558.281	14.4
558.478	14.44
558.674	14.46
558.87	14.66
559.066	14.64
559.262	14.63
559.459	14.61
559.655	14.61
559.851	14.55
560.047	14.63
560.243	14.7
560.439	14.93
560.635	14.98
560.831	14.94
561.027	14.84
561.223	14.7
561.419	14.83
561.615	14.77
561.811	14.8
562.007	14.86
562.203	14.9
562.399	14.92
562.595	14.7
562.791	14.62
562.987	14.67
563.183	14.69
563.379	14.81
563.575	14.79
563.771	14.85
563.966	14.76
564.162	14.78
564.358	14.66
564.554	14.63
564.75	14.68
564.945	14.64
565.141	14.61
565.337	14.6
565.533	14.6
565.728	14.55
565.924	14.51
566.12	14.54
566.315	14.6
566.511	14.64
566.707	14.61
566.902	14.67
567.098	14.63
567.293	14.71
567.489	14.74
567.684	14.73
567.88	14.78
568.076	14.87
568.271	14.97
568.467	14.91
568.662	14.85
568.858	14.96
569.053	14.86
569.248	15.09
569.444	15.08
569.639	14.98
569.835	14.93
570.03	14.83
570.225	14.77
570.421	14.68
570.616	14.7
570.812	14.75
571.007	14.69
571.202	14.8
571.397	14.64
571.593	14.65
571.788	14.68
571.983	14.68
572.178	14.83
572.374	14.87
572.569	14.98
572.764	14.92
572.959	14.86
573.154	14.84
573.35	14.79
573.545	14.93
573.74	14.9
573.935	14.93
574.13	14.9
574.325	14.77
574.52	14.81
574.715	14.75
574.91	14.83
575.105	14.99
575.3	15
575.495	15.11
575.69	14.98
575.885	15.03
576.08	15.11
576.275	15.15
576.47	15.24
576.665	15.29
576.86	15.33
577.055	15.31
577.25	15.31
577.444	15.42
577.639	15.42
577.834	15.54
578.029	15.63
578.224	15.62
578.418	15.8
578.613	15.82
578.808	15.74
579.003	15.67
579.197	15.64
579.392	15.69
579.587	15.76
579.781	15.79
579.976	15.82
580.171	15.82
580.365	15.77
580.56	15.63
580.755	15.63
580.949	15.67
581.144	15.78
581.338	15.87
581.533	15.74
581.727	15.77
581.922	15.72
582.116	15.61
582.311	15.44
582.505	15.52
582.7	15.72
582.894	15.79
583.089	15.81
583.283	15.93
583.478	15.94
583.672	16.14
583.866	16.01
584.061	16
584.255	16.11
584.449	16.28
584.644	16.34
584.838	16.34
585.032	16.38
585.226	16.39
585.421	16.43
585.615	16.57
585.809	16.48
586.003	16.5
586.198	16.51
586.392	16.46
586.586	16.48
586.78	16.43
586.974	16.39
587.168	16.44
587.363	16.46
587.557	16.41
587.751	16.38
587.945	16.48
588.139	16.51
588.333	16.56
588.527	16.56
588.721	16.49
588.915	16.35
589.109	16.46
589.303	16.33
589.497	16.42
589.691	16.27
589.885	16.15
590.079	16.03
590.273	15.98
590.466	15.93
590.66	15.87
590.854	15.99
591.048	16.23
591.242	16.19
591.436	16.24
591.629	16.25
591.823	16.53
592.017	16.55
592.211	16.58
592.404	16.61
592.598	16.62
592.792	16.79
592.986	16.78
593.179	16.62
593.373	16.45
593.567	16.38
593.76	16.3
593.954	16.2
594.147	16.27
594.341	16.3
594.535	16.24
594.728	16.35
594.922	16.27
595.115	16.16
595.309	16.12
595.502	16.13
595.696	16.25
595.889	16.17
596.083	16.1
596.276	16.04
596.47	16.08
596.663	16.18
596.856	16.15
597.05	16.15
597.243	16.15
597.437	16.23
597.63	16.36
597.823	16.31
598.017	16.34
598.21	16.38
598.403	16.46
598.596	16.36
598.79	16.45
598.983	16.37
599.176	16.53
599.369	16.62
599.563	16.64
599.756	16.5
599.949	16.6
600.142	16.57
600.335	16.55
600.528	16.52
600.722	16.55
600.915	16.46
601.108	16.57
601.301	16.47
601.494	16.38
601.687	16.39
601.88	16.47
602.073	16.53
602.266	16.45
602.459	16.39
602.652	16.33
602.845	16.4
603.038	16.38
603.231	16.29
603.424	16.14
603.617	16.27
603.809	16.26
604.002	16.26
604.195	16.26
604.388	16.36
604.581	16.45
604.774	16.52
604.966	16.54
605.159	16.51
605.352	16.71
605.545	16.86
605.737	16.79
605.93	16.83
606.123	16.87
606.316	16.92
606.508	17
606.701	17.06
606.894	16.93
607.086	17
607.279	17.11
607.471	17.04
607.664	17.08
607.857	17.11
608.049	17.3
608.242	17.37
608.434	17.39
608.627	17.54
608.819	17.59
609.012	18.05
609.204	18.29
609.397	18.52
609.589	18.97
609.782	19.33
609.974	19.79
610.166	20.04
610.359	20.56
610.551	20.91
610.743	21.34
610.936	21.68
611.128	21.86
611.32	22.05
611.513	22.25
611.705	22.11
611.897	22.25
612.09	22.18
612.282	22.06
612.474	21.68
612.666	21.73
612.858	21.66
613.051	21.48
613.243	21.24
613.435	20.97
613.627	20.84
613.819	20.7
614.011	20.59
614.203	20.47
614.395	20.47
614.588	20.33
614.78	20.18
614.972	19.99
615.164	19.96
615.356	19.91
615.548	19.9
615.74	19.71
615.932	19.63
616.124	19.26
616.315	19.08
616.507	18.92
616.699	18.88
616.891	18.7
617.083	18.34
617.275	18.13
617.467	18.21
617.659	18.09
617.85	18.24
618.042	18.31
618.234	18.55
618.426	18.57
618.618	18.52
618.809	18.45
619.001	18.36
619.193	18.49
619.384	18.57
619.576	18.39
619.768	18.38
619.959	18.35
620.151	18.33
620.343	18.24
620.534	18.21
620.726	18.33
620.917	18.37
621.109	18.4
621.301	18.47
621.492	18.4
621.684	18.62
621.875	18.55
622.067	18.38
622.258	18.39
622.45	18.32
622.641	18.35
622.832	18.35
623.024	18.39
623.215	18.27
623.407	18.25
623.598	18.37
623.789	18.23
623.981	18.21
624.172	18.28
624.363	18.13
624.555	18.23
624.746	18.31
624.937	18.34
625.129	18.44
625.32	18.69
625.511	18.66
625.702	18.45
625.893	18.36
626.085	18.42
626.276	18.45
626.467	18.55
626.658	18.37
626.849	18.22
627.04	18.26
627.231	18.14
627.422	18.13
627.614	18.17
627.805	18.3
627.996	18.45
628.187	18.56
628.378	18.5
628.569	18.52
628.76	18.63
628.951	18.76
629.142	18.74
629.332	18.73
629.523	18.66
629.714	18.6
629.905	18.62
630.096	18.63
630.287	18.65
630.478	18.65
630.669	18.61
630.859	18.53
631.05	18.66
631.241	18.57
631.432	18.61
631.623	18.49
631.813	18.44
632.004	18.49
632.195	18.31
632.385	18.17
632.576	18.3
632.767	18.1
632.957	18
633.148	17.73
633.339	17.61
633.529	17.67
633.72	17.68
633.91	17.78
634.101	17.72
634.292	17.8
634.482	17.94
634.673	17.82
634.863	17.93
635.054	18.07
635.244	18.27
635.435	18.32
635.625	18.24
635.815	18.18
636.006	18.1
636.196	18.25
636.387	18.22
636.577	18.05
636.767	18.04
636.958	18.04
637.148	17.95
637.338	17.91
637.529	18.07
637.719	18.23
637.909	18.4
638.099	18.44
638.29	18.26
638.48	18.29
638.67	18.38
638.86	18.27
639.05	18.53
639.241	18.75
639.431	18.83
639.621	18.74
639.811	18.9
640.001	18.82
640.191	18.93
640.381	19.06
640.571	19.04
640.761	18.99
640.951	19.2
641.141	19.04
641.331	19.17
641.521	19
641.711	19.08
641.901	18.92
642.091	18.89
642.281	18.74
642.471	18.69
642.661	18.87
642.851	19.1
643.041	18.89
643.231	18.77
643.42	18.58
643.61	18.9
643.8	18.77
643.99	18.43
644.18	18.52
644.369	18.76
644.559	18.71
644.749	18.52
644.939	18.33
645.128	18.4
645.318	18.47
645.508	18.67
645.697	18.59
645.887	18.73
646.076	18.78
646.266	18.88
646.456	18.98
646.645	19.16
646.835	19.31
647.024	19.3
647.214	19.28
647.403	19.32
647.593	19.29
647.782	19.34
647.972	19.48
648.161	19.83
648.351	19.84
648.54	19.61
648.73	19.64
648.919	19.61
649.108	19.49
649.298	19.68
649.487	19.78
649.677	19.75
649.866	19.43
650.055	19.32
650.244	19.25
650.434	19.18
650.623	19.26
650.812	19.09
651.002	19.11
651.191	19.36
651.38	19.35
651.569	19.35
651.758	19.25
651.947	19.45
652.137	19.54
652.326	19.48
652.515	19.66
652.704	19.68
652.893	19.9
653.082	19.92
653.271	19.77
653.46	19.62
653.649	19.63
653.838	19.48
654.027	19.4
654.216	19.16
654.405	19.34
654.594	19.29
654.783	19.38
654.972	19.25
655.161	19.37
655.35	19.46
655.539	19.53
655.728	19.51
655.916	19.7
656.105	19.85
656.294	20.11
656.483	20
656.672	19.96
656.86	19.86
657.049	19.79
657.238	19.63
657.427	19.61
657.615	19.6
657.804	19.48
657.993	19.52
658.181	19.41
658.37	19.28
658.559	19.18
658.747	19.13
658.936	19.24
659.125	19.06
659.313	19.25
659.502	19.31
659.69	19.48
659.879	19.52
660.067	19.56
660.256	19.65
660.444	19.73
660.633	19.84
660.821	19.92
661.01	19.82
661.198	20.13
661.387	19.64
661.575	19.63
661.763	19.59
661.952	19.72
662.14	19.75
662.328	19.61
662.517	19.78
662.705	19.85
662.893	19.89
663.082	19.77
663.27	19.97
663.458	20.29
663.646	20.36
663.834	20.47
664.023	20.38
664.211	20.22
664.399	20.27
664.587	20.18
664.775	20.17
664.963	20.28
665.152	20.56
665.34	20.45
665.528	20.44
665.716	20.13
665.904	20.07
666.092	20.15
666.28	20.16
666.468	20.15
666.656	20.11
666.844	20.21
667.032	20.05
667.22	19.76
667.408	19.65
667.596	19.89
667.784	20.08
667.971	20.05
668.159	20.18
668.347	20.19
668.535	20.35
668.723	20.19
668.911	20.33
669.098	20.4
669.286	20.32
669.474	20.4
669.662	20.37
669.849	20.34
670.037	20.25
670.225	20.18
670.413	20.38
670.6	20.25
670.788	20.58
670.976	20.45
671.163	20.49
671.351	20.82
671.538	20.87
671.726	20.63
671.913	20.68
672.101	20.8
672.289	20.64
672.476	20.31
672.664	20.5
672.851	20.05
673.039	20.04
673.226	20
673.413	20.06
673.601	19.98
673.788	20.08
673.976	20.38
674.163	20.45
674.35	20.58
674.538	20.85
674.725	20.69
674.912	21.06
675.1	20.89
675.287	21.02
675.474	20.72
675.662	20.63
675.849	20.53
676.036	20.45
676.223	20.46
676.411	20.32
676.598	20.37
676.785	20.7
676.972	20.61
677.159	20.34
677.346	20.1
677.533	20.21
677.721	20.36
677.908	20.41
678.095	20.13
678.282	19.92
678.469	19.95
678.656	19.93
678.843	19.74
679.03	19.56
679.217	19.9
679.404	19.99
679.591	19.86
679.778	19.97
679.964	20.35
680.151	20.57
680.338	20.54
680.525	20.77
680.712	20.74
680.899	20.86
681.086	21.18
681.272	21.08
681.459	21.07
681.646	21.29
681.833	21.03
682.02	20.71
682.206	20.53
682.393	20.72
682.58	20.53
682.766	20.52
682.953	20.49
683.14	20.4
683.326	20.97
683.513	20.99
683.7	20.9
683.886	21.42
684.073	21.53
684.259	21.67
684.446	21.8
684.632	22.15
684.819	22.49
685.005	22.4
685.192	22.29
685.378	21.87
685.565	21.99
685.751	22.35
685.938	22.28
686.124	22.39
686.31	22.32
686.497	22.05
686.683	21.64
686.87	21.47
687.056	21.5
687.242	21.73
687.429	21.85
687.615	22.14
687.801	21.84
687.987	21.71
688.174	21.58
688.36	21.81
688.546	22.13
688.732	22.47
688.918	22.4
689.105	22.26
689.291	22.05
689.477	21.81
689.663	21.5
689.849	21.57
690.035	21.33
690.221	21.47
690.407	21.38
690.593	21.41
690.779	21.27
690.965	21.12
691.151	21.37
691.337	21.28
691.523	21.35
691.709	21.36
691.895	21.24
692.081	21.45
692.267	21.51
692.453	21.55
692.639	21.5
692.825	21.51
693.011	21.81
693.196	21.68
693.382	21.73
693.568	21.89
693.754	22.29
693.94	22.54
694.125	22.54
694.311	22.44
694.497	22.27
694.682	22.43
694.868	22.46
695.054	21.91
695.239	22.22
695.425	22.5
695.611	22.47
695.796	22.02
695.982	21.83
696.168	21.91
696.353	21.79
696.539	21.75
696.724	21.37
696.91	21.44
697.095	21.58
697.281	21.34
697.466	20.94
697.652	20.84
697.837	20.85
698.023	20.83
698.208	20.64
698.393	20.85
698.579	20.84
698.764	20.87
698.949	20.64
699.135	20.79
699.32	20.81
699.505	21.18
699.691	21.21
699.876	21.12
700.061	21.46
700.246	21.48
700.432	21.29
700.617	21.51
700.802	21.58
700.987	21.84
701.172	22.16
701.358	22.03
701.543	22.03
701.728	22.04
701.913	22.18
702.098	22.05
702.283	22.35
702.468	22.38
702.653	22.43
702.838	22.09
703.023	22.21
703.208	21.98
703.393	22.7
703.578	22.47
703.763	22.68
703.948	23.12
704.133	23.07
704.318	23.17
704.503	23.66
704.688	23.67
704.873	24.38
705.057	24.4
705.242	24.39
705.427	23.97
705.612	24.26
705.797	24.59
705.981	24.43
706.166	24.91
706.351	25.26
706.536	25.27
706.72	25.41
706.905	25.61
707.09	25.67
707.274	25.64
707.459	25.98
707.644	26.26
707.828	25.96
708.013	26.03
708.197	25.77
708.382	25.28
708.567	25.02
708.751	24.99
708.936	24.66
709.12	24.3
709.305	24.3
709.489	24.2
709.673	23.69
709.858	24.02
710.042	23.94
710.227	23.79
710.411	23.94
710.596	23.75
710.78	23.72
710.964	23.75
711.149	23.95
711.333	24.09
711.517	23.93
711.702	24.04
711.886	23.87
712.07	23.62
712.254	23.5
712.438	23.48
712.623	23.7
712.807	23.73
712.991	23.8
713.175	23.63
713.359	23.09
713.544	23.09
713.728	22.95
713.912	22.66
714.096	22.85
714.28	22.96
714.464	22.94
714.648	22.81
714.832	22.8
715.016	22.55
715.2	22.64
715.384	23
715.568	22.95
715.752	23.26
715.936	23.25
716.12	23.11
716.304	22.9
716.488	22.86
716.671	22.73
716.855	22.38
717.039	22.45
717.223	22.36
717.407	22.61
717.59	22.68
717.774	22.48
717.958	22.73
718.142	22.94
718.325	23.36
718.509	23.31
718.693	23.66
718.877	24.08
719.06	24.3
719.244	24.41
719.428	24.15
719.611	24.29
719.795	24.66
719.978	24.27
720.162	24.35
720.345	24.22
720.529	24.28
720.713	24.28
720.896	24.01
721.08	23.58
721.263	23.98
721.446	23.92
721.63	23.8
721.813	23.85
721.997	24.36
722.18	23.84
722.364	23.91
722.547	23.69
722.73	23.62
722.914	23.61
723.097	24.29
723.28	23.79
723.464	24.31
723.647	24.21
723.83	24.12
724.013	24.44
724.197	24.57
724.38	24.53
724.563	24.75
724.746	24.78
724.929	24.86
725.112	24.1
725.296	24.18
725.479	23.91
725.662	23.7
725.845	23.72
726.028	23.03
726.211	23.46
726.394	23.16
726.577	23.18
726.76	23.19
726.943	22.68
727.126	23.12
727.309	22.92
727.492	22.9
727.675	22.87
727.858	22.26
728.041	22.31
728.224	22.25
728.407	22.26
728.589	22.76
728.772	22.35
728.955	23.27
729.138	23.28
729.321	23.37
729.503	23.24
729.686	23.7
729.869	24.14
730.052	24.29
730.234	24.24
730.417	24.24
730.6	23.48
730.782	23.58
730.965	23.17
731.148	23.14
731.33	23.62
731.513	23.4
731.695	23.28
731.878	23.39
732.061	23.23
732.243	23.19
732.426	22.84
732.608	23.19
732.791	23.67
732.973	23.53
733.156	23.62
733.338	23.4
733.52	23.9
733.703	23.96
733.885	23.99
734.068	23.9
734.25	23.41
734.432	24.15
734.615	23.96
734.797	23.94
734.979	24.38
735.162	24.14
735.344	24.28
735.526	23.81
735.708	23.73
735.891	23.56
736.073	23.88
736.255	24.14
736.437	24.24
736.619	24.51
736.802	23.84
736.984	23.32
737.166	23.17
737.348	23.01
737.53	23.21
737.712	22.99
737.894	23.01
738.076	22.91
738.258	23.2
738.44	22.75
738.622	22.31
738.804	22.63
738.986	22.96
739.168	23.05
739.35	23.15
739.532	22.38
739.714	22.69
739.896	22.5
740.078	22.55
740.259	22.71
740.441	22.8
740.623	23.28
740.805	23.7
740.987	23.71
741.168	23.91
741.35	23.93
741.532	24.89
741.714	24.58
741.895	24.76
742.077	24.47
742.259	24.37
742.44	24.6
742.622	24.18
742.804	23.92
742.985	23.71
743.167	23.74
743.348	23.63
743.53	24.14
743.711	24.08
743.893	24.55
744.075	25.04
744.256	24.19
744.438	23.64
744.619	23.76
744.8	23.64
744.982	23.82
745.163	23.97
745.345	24.12
745.526	23.83
745.707	23.97
745.889	23.77
746.07	24.44
746.252	25.46
746.433	26.26
746.614	27
746.795	27.02
746.977	27.06
747.158	26.45
747.339	26.19
747.52	26.12
747.702	26.72
747.883	26.5
748.064	26.03
748.245	25.72
748.426	25.33
748.607	24.8
748.788	24.57
748.97	24.51
749.151	25.33
749.332	25.72
749.513	25.63
749.694	25.44
749.875	25.27
750.056	25.21
750.237	25.65
750.418	25.99
750.599	26.56
750.78	26.95
750.96	26.97
751.141	26.69
751.322	26.29
751.503	26.41
751.684	26.35
751.865	26.36
752.046	26.13
752.226	25.75
752.407	25.36
752.588	25.23
752.769	24.83
752.949	24.6
753.13	25.32
753.311	24.98
753.492	25.36
753.672	25.4
753.853	25.22
754.034	25.23
754.214	26.12
754.395	26.18
754.575	26.4
754.756	26.88
754.937	27.27
755.117	27.16
755.298	28.23
755.478	27.87
755.659	26.77
755.839	26.97
756.02	27.36
756.2	26.79
756.381	27.03
756.561	26.98
756.741	27.62
756.922	27.89
757.102	27.8
757.283	27.19
757.463	27.21
757.643	28.41
757.823	28.45
758.004	28.44
758.184	27.89
758.364	27.37
758.545	26.54
758.725	25.13
758.905	24.96
759.085	24.29
759.265	24.27
759.446	23.78
759.626	23.66
759.806	23.03
759.986	22.03
760.166	22.28
760.346	22.58
760.526	22.58
760.706	22.88
760.886	22.34
761.066	21.93
761.246	21.71
761.426	21.59
761.606	21.44
761.786	21.68
761.966	21.74
762.146	21.84
762.326	22.03
762.506	21.73
762.686	21.77
762.866	21.67
763.046	21.81
763.225	22.16
763.405	21.89
763.585	20.95
763.765	21.41
763.945	21.76
764.124	21.65
764.304	21.4
764.484	21.6
764.664	21.59
764.843	22
765.023	21.96
765.203	21.94
765.382	22.58
765.562	23.52
765.741	23.38
765.921	23.73
766.101	23.68
766.28	23.92
766.46	24.39
766.639	24.31
766.819	23.98
766.998	24.19
767.178	23.92
767.357	23.88
767.537	24.5
767.716	24.08
767.896	23.67
768.075	23.69
768.254	23.02
768.434	23.58
768.613	23.9
768.792	24.22
768.972	24.51
769.151	24.62
769.33	25.28
769.51	25.05
769.689	25.58
769.868	26.26
770.047	26.72
770.226	27.52
770.406	26.52
770.585	27.12
770.764	27.11
770.943	27.16
771.122	27.06
771.301	26.24
771.48	26.79
771.66	27.2
771.839	26.5
772.018	26.34
772.197	26.17
772.376	26.31
772.555	26.47
772.734	26.62
772.913	26.44
773.092	26.91
773.271	26.84
773.449	25.78
773.628	25.7
773.807	25.4
773.986	25.44
774.165	25.67
774.344	25.6
774.523	24.81
774.701	25.26
774.88	25.17
775.059	26.02
775.238	25.51
775.417	25.81
775.595	26.07
775.774	26.86
775.953	27.15
776.131	27.5
776.31	28.05
776.489	28.39
776.667	28.12
776.846	29.08
777.025	27.66
777.203	28.28
777.382	28.39
777.56	28.06
777.739	27.92
777.917	27.46
778.096	26.71
778.274	26.38
778.453	26.68
778.631	26.44
778.81	25.31
778.988	25.82
779.166	26.09
779.345	26.39
779.523	26.5
779.702	26.12
779.88	26.22
780.058	26.25
780.237	27.02
780.415	26.93
780.593	28.01
780.771	28.46
780.95	28.97
781.128	28.76
781.306	28.23
781.484	28.11
781.662	28.38
781.841	27.84
782.019	27.49
782.197	26.85
782.375	26.15
782.553	25.06
782.731	24.64
782.909	23.7
783.087	24.8
783.265	25.84
783.443	25.94
783.621	26.33
783.799	26.77
783.977	26.84
784.155	26.3
784.333	27.28
784.511	28.1
784.689	29.16
784.867	29.41
785.045	28.15
785.223	28.22
785.4	28.21
785.578	28.35
785.756	28.48
785.934	28.51
786.112	29.17
786.289	28.58
786.467	28.07
786.645	26.73
786.823	26.48
787	26.7
787.178	25.6
787.356	25.51
787.533	25.36
787.711	25.28
787.889	24.91
788.066	24.53
788.244	24.64
788.421	24.66
788.599	25.94
788.776	26.34
788.954	26.37
789.131	26.14
789.309	25.31
789.486	24.98
789.664	25
789.841	26.34
790.019	26.25
790.196	27.2
790.373	26.96
790.551	27.72
790.728	27.81
790.906	29.58
791.083	29.63
791.26	30.42
791.437	30.61
791.615	30.47
791.792	29.75
791.969	30.88
792.146	30.82
792.324	31.2
792.501	30.78
792.678	30.16
792.855	28.9
793.032	28.32
793.209	29.17
793.387	28.71
793.564	28.96
793.741	28.7
793.918	27.35
794.095	26.65
794.272	26.98
794.449	25.9
794.626	26.88
794.803	26.07
794.98	27.2
795.157	26.13
795.334	26.65
795.511	26.36
795.688	27.67
795.864	27.65
796.041	28.07
796.218	27.44
796.395	27.31
796.572	27.62
796.749	28
796.925	27.77
797.102	27.94
797.279	28.61
797.456	29.51
797.632	29.56
797.809	29.41
797.986	29.2
798.162	30.32
798.339	30.42
798.516	29.23
798.692	29.15
798.869	29.66
799.046	29.12
799.222	28
799.399	27.31
799.575	26.49
799.752	26.63
799.928	28.04
800.105	26.95
800.281	26.97
800.458	27.22
800.634	27.67
800.811	27.22
800.987	28.17
801.163	28.26
801.34	29.14
801.516	29.87
801.692	31.28
801.869	29.33
802.045	29.47
802.221	29.7
802.398	30.02
802.574	30.67
802.75	31.35
802.926	32.53
803.103	33.21
803.279	32.22
803.455	31.91
803.631	31.19
803.807	32.34
803.983	32.8
804.16	33.03
804.336	33.19
804.512	32.74
804.688	32.54
804.864	30.94
805.04	31.68
805.216	32.93
805.392	32.77
805.568	35.22
805.744	33.52
805.92	34.24
806.096	34.68
806.272	33.72
806.448	33.27
806.623	33.64
806.799	34.46
806.975	34.59
807.151	34.7
807.327	33.95
807.503	31.12
807.678	32.31
807.854	31.47
808.03	31.96
808.206	32.89
808.381	32.61
808.557	32.89
808.733	31.49
808.908	30.63
809.084	30.28
809.26	31.58
809.435	32.29
809.611	33.1
809.787	33.56
809.962	32.28
810.138	31.19
810.313	32.31
810.489	31.41
810.664	31.16
810.84	31.15
811.015	30.13
811.191	29.46
811.366	29.59
811.542	28.41
811.717	27.72
811.892	28.78
812.068	29.84
812.243	29.64
812.419	31.16
812.594	32.22
812.769	33.09
812.944	33.58
813.12	33.46
813.295	32.59
813.47	31.56
813.645	33.52
813.821	32.74
813.996	32.35
814.171	31.63
814.346	29.99
814.521	29.96
814.697	28.29
814.872	29
815.047	28.8
815.222	30.1
815.397	31.77
815.572	30.68
815.747	30.16
815.922	30.3
816.097	29.25
816.272	30.04
816.447	30.77
816.622	32.12
816.797	31.6
816.972	31.98
817.147	32.98
817.322	31.5
817.496	30.24
817.671	30.44
817.846	30.24
818.021	31.72
818.196	31.48
818.371	30.77
818.545	30.8
818.72	31.35
818.895	31.25
819.069	29.96
819.244	30.17
819.419	29.98
819.594	29.55
819.768	29.62
819.943	28.53
820.117	27.89
820.292	28
820.467	25.85
820.641	25.06
820.816	23.34
820.99	21.54
821.165	20.74
821.339	20.17
821.514	19.38
821.688	18.79
821.863	18.36
822.037	17.85
822.212	17.39
822.386	17.36
822.56	16.86
822.735	16.99
822.909	17.23
823.084	17.01
823.258	17.07
823.432	17.15
823.606	17.38
823.781	17.36
823.955	17.53
824.129	17.55
824.303	17.71
824.478	18.05
824.652	18.12
824.826	18.42
825	19.17
825.174	19.22
825.348	19.59
825.523	19.12
825.697	19.89
825.871	19.91
826.045	19.95
826.219	19.81
826.393	19.79
826.567	19.78
826.741	19.97
826.915	19.29
827.089	19.56
827.263	19.24
827.437	19.29
827.611	18.92
827.784	18.86
827.958	19.23
828.132	19.76
828.306	19.6
828.48	19.75
828.654	19.96
828.827	21.46
829.001	21.85
829.175	22.78
829.349	23.89
829.522	24.74
829.696	26.14
829.87	26.29
830.044	27.6
830.217	28.62
830.391	29.49
830.565	29.5
830.738	29.33
830.912	28.67
831.085	29.07
831.259	29.45
831.432	28.85
831.606	28.93
831.779	29.77
831.953	28.72
832.126	28.38
832.3	27.12
832.473	26.68
832.647	25.38
832.82	25.1
832.994	23.77
833.167	23.13
833.34	22.9
833.514	22.3
833.687	21.7
833.86	21.04
834.034	21.04
834.207	21.78
834.38	21.77
834.553	21.94
834.727	21.84
834.9	22.87
835.073	22.29
835.246	23.1
835.419	23.31
835.593	22.94
835.766	23.66
835.939	23.68
836.112	24.19
836.285	24.8
836.458	25.14
836.631	25.93
836.804	26.11
836.977	28.72
837.15	29.56
837.323	31.13
837.496	33.35
837.669	34.56
837.842	37.27
838.015	39.48
838.188	41.65
838.361	40.89
838.533	41.65
838.706	42.95
838.879	42.26
839.052	41.78
839.225	41.42
839.398	41.98
839.57	43.29
839.743	43.64
839.916	41.98
840.088	39.66
840.261	39.97
840.434	41.16
840.607	40.25
840.779	40.98
840.952	40.39
841.124	39.36
841.297	39.12
841.47	38.2
841.642	37
841.815	35.91
841.987	36.73
842.16	40.58
842.332	40.77
842.505	42.42
842.677	43.08
842.85	44.85
843.022	48.67
843.194	48.34
843.367	49.1
843.539	50.64
843.712	52.2
843.884	54.32
844.056	52.35
844.229	55.73
844.401	58.47
844.573	57.95
844.745	55.24
844.918	52.34
845.09	54.04
845.262	53.76
845.434	49.28
845.606	52.59
845.779	55.28
845.951	52.14
846.123	48.18
846.295	46.72
846.467	44.57
846.639	49.26
846.811	49.16
846.983	51.01
847.155	48.77
847.327	57.3
847.499	55.57
847.671	54.44
847.843	61.35
848.015	59.8
848.187	58.65
848.359	61.75
848.531	56.33
848.703	57.82
848.875	57.92
849.047	58.78
849.218	54.68
849.39	55
849.562	51.24
849.734	50.71
849.905	57.4
850.077	59.71
850.249	60.49
850.421	68.36
850.592	66.71
850.764	62.61
850.936	63.33
851.107	64.83
851.279	63.64
851.451	66.16
851.622	69.42
851.794	68.62
851.965	64.73
852.137	61.96
852.308	60.66
852.48	66.77
852.651	67.06
852.823	66.81
852.994	67.9
853.166	73.37
853.337	69.18
853.509	67.04
853.68	64.25
853.851	68.56
854.023	70.54
854.194	72.18
854.365	68.1
854.537	72.85
854.708	74.1
854.879	77.07
855.05	74.46
855.222	79.31
855.393	79.49
855.564	75.08
855.735	79.65
855.906	76.63
856.078	69.28
856.249	70.62
856.42	66.18
856.591	66.22
856.762	63.97
856.933	61.42
857.104	58.85
857.275	59.71
857.446	65.1
857.617	57.75
857.788	57.79
857.959	64.42
858.13	64.28
858.301	64.91
858.472	65.12
858.643	62.86
858.814	63.84
858.985	64.53
859.155	62.35
859.326	62.48
859.497	62.32
859.668	65.48
859.839	62.56
860.009	59.6
860.18	64.65
860.351	66.98
860.522	69.01
860.692	73.49
860.863	75.65
861.034	73.09
861.204	76.59
861.375	76.69
861.546	77.58
861.716	77.97
861.887	84.93
862.057	80.39
862.228	81.84
862.398	77.88
862.569	73.67
862.739	71.17
862.91	76.01
863.08	74.78
863.251	73.71
863.421	74.16
863.592	75.32
863.762	69.29
863.932	70.32
864.103	66.28
864.273	73.43
864.443	77
864.614	76.61
864.784	73.71
864.954	74.09
865.125	75.31
865.295	71.12
865.465	70.49
865.635	65.83
865.805	63.76
865.976	61.65
866.146	61.2
866.316	59.36
866.486	62.21
866.656	62.21
866.826	58.96
866.996	56.75
867.166	66.53
867.336	62.89
867.506	66.61
867.676	65.64
867.846	71.91
868.016	63.37
868.186	62.66
868.356	59.64
868.526	57.28
868.696	56.98
868.866	59.57
869.036	55.95
869.206	59.36
869.376	60.23
869.545	64.86
869.715	60.17
869.885	63.16
870.055	60.21
870.224	64.41
870.394	69.58
870.564	74.75
870.734	80.12
870.903	76.11
871.073	78.75
871.243	81.47
871.412	81.4
871.582	81.53
871.751	84.9
871.921	89.2
872.091	84.43
872.26	80.26
872.43	73.4
872.599	68.99
872.769	71.59
872.938	64.75
873.108	65.74
873.277	66.9
873.446	68.5
873.616	69.17
873.785	70.1
873.955	70.13
874.124	70.8
874.293	74.44
874.463	74.78
874.632	71.14
874.801	77.23
874.971	72.4
875.14	64.39
875.309	65.52
875.478	61.08
875.647	55.42
875.817	59.58
875.986	61.86
876.155	62.97
876.324	61.83
876.493	61.01
876.662	57.26
876.831	62.06
877	66.8
877.17	66
877.339	69.93
877.508	67.88
877.677	65.25
877.846	59.77
878.015	60.27
878.184	66.17
878.352	68.57
878.521	73.31
878.69	71.23
878.859	67.27
879.028	64.25
879.197	59.29
879.366	60.37
879.534	61.19
879.703	62.15
879.872	56.63
880.041	48.04
880.21	41.88
880.378	37.86
880.547	33.85
880.716	30.83
880.884	29.76
881.053	27.04
881.222	27.19
881.39	23.64
881.559	21.86
881.727	21.76
881.896	21.71
882.065	21.64
882.233	21.19
882.402	20.58
882.57	20.25
882.739	19.96
882.907	20.51
883.076	18.92
883.244	19.87
883.412	20.4
883.581	20.55
883.749	20.62
883.918	21.47
884.086	21.68
884.254	23.04
884.423	24.57
884.591	24.73
884.759	25.39
884.927	27.97
885.096	28.17
885.264	29.62
885.432	31.16
885.6	32.57
885.769	35.47
885.937	37.76
886.105	38.9
886.273	40.55
886.441	44.2
886.609	47.82
886.777	48.01
886.945	53.73
887.113	54.18
887.281	55.24
887.449	55.29
887.617	55.41
887.785	54.7
887.953	57.58
888.121	57.31
888.289	56.86
888.457	55
888.625	56.17
888.793	59.02
888.961	60.32
889.129	60.81
889.296	56.09
889.464	54.73
889.632	57.09
889.8	53.13
889.967	53.43
890.135	55.18
