Data from 2938840__Reflection_02.txt Node
Date: Wed Mar 11 15:44:23 EDT 2015
User: robert
Spectrometer: USB4E03002
Autoset integration time: false
Trigger mode: 4
Integration Time (sec): 1.000000E-1
Scans to average: 10
Electric dark correction enabled: false
Nonlinearity correction enabled: false
Boxcar width: 5
Stray light correction enabled: false
XAxis mode: Wavelengths
Stop averaging: false
Number of Pixels in Spectrum: 3648
>>>>>Begin Spectral Data<<<<<
177.575	1011.11
177.794	394.67
178.014	516.2
178.233	548.53
178.452	1124.19
178.672	1195.31
178.891	1392.31
179.11	-4721.43
179.33	-212.74
179.549	-170.97
179.768	-228.48
179.987	-214.84
180.207	-235.9
180.426	-47.95
180.645	-72.63
180.864	-121.74
181.084	-32.52
181.303	54.78
181.522	105.99
181.741	612.5
181.96	4.05
182.179	-125.53
182.398	-302
182.618	240.14
182.837	161.39
183.056	155.78
183.275	133.33
183.494	89.71
183.713	282.09
183.932	189.32
184.151	169.17
184.37	-4125
184.589	-267.5
184.808	-4.8
185.027	-43.48
185.246	-263
185.465	-115.2
185.684	-55.97
185.903	30.1
186.122	50
186.341	69.95
186.56	91.12
186.779	185.57
186.998	205.13
187.216	207.44
187.435	235.27
187.654	343.61
187.873	239.74
188.092	154.66
188.311	205.24
188.53	179.27
188.748	184.05
188.967	369.05
189.186	-137.96
189.405	-95.58
189.623	-7.3
189.842	-45.85
190.061	-596.15
190.28	-79.02
190.498	-66.3
190.717	-79.38
190.936	-26.98
191.154	-55.81
191.373	-133.7
191.592	401.23
191.81	233.04
192.029	246.23
192.248	356.38
192.466	407.78
192.685	187.54
192.904	126.99
193.122	133.62
193.341	140.61
193.559	102.35
193.778	112.12
193.996	99.36
194.215	111.22
194.433	74.38
194.652	31.03
194.87	63.41
195.089	-90.08
195.307	-1691.67
195.526	-78.57
195.744	-436.96
195.963	1321.05
196.181	-89.54
196.399	-126.77
196.618	-80.56
196.836	3.74
197.055	38.24
197.273	32.39
197.491	39.89
197.71	48.71
197.928	36.75
198.146	50.34
198.365	58.82
198.583	38.35
198.801	32.74
199.019	-6.73
199.238	217.65
199.456	240.74
199.674	213.21
199.892	95.77
200.111	22.75
200.329	24.69
200.547	24.59
200.765	26.14
200.983	9.44
201.202	26.91
201.42	40.22
201.638	65.55
201.856	112.05
202.074	97.88
202.292	102.67
202.51	177.96
202.728	155.39
202.946	334.97
203.165	295.87
203.383	220.57
203.601	323.24
203.819	174.39
204.037	140
204.255	229.47
204.473	113.43
204.691	63.33
204.909	6.77
205.127	13.14
205.345	22.69
205.562	40.6
205.78	60.27
205.998	48.81
206.216	61.73
206.434	52.75
206.652	38.41
206.87	56.07
207.088	50.08
207.306	108.39
207.523	192.54
207.741	287.01
207.959	-450.85
208.177	-38.58
208.395	-21.65
208.612	23.36
208.83	-45.27
209.048	-66.9
209.266	21.76
209.483	-29.22
209.701	-248.75
209.919	-124.67
210.136	-69.01
210.354	780
210.572	528.38
210.79	376.72
211.007	330.48
211.225	455.46
211.442	344.21
211.66	229.91
211.878	236.7
212.095	751.17
212.313	562.68
212.53	628.02
212.748	542.86
212.966	330.12
213.183	220.56
213.401	178.45
213.618	180.55
213.836	169.43
214.053	145.13
214.271	139.11
214.488	-33.19
214.705	-27.96
214.923	-3.54
215.14	-15.03
215.358	-8.18
215.575	-7.83
215.793	-12.37
216.01	13.73
216.227	-0.89
216.445	-35.09
216.662	-26.45
216.879	1.98
217.097	12.2
217.314	26.23
217.531	48.46
217.749	48.79
217.966	41.64
218.183	36.4
218.4	25.23
218.618	17.97
218.835	25.58
219.052	19.26
219.269	28.49
219.487	29.46
219.704	19.16
219.921	3.36
220.138	8.02
220.355	18.55
220.572	20.77
220.79	21.17
221.007	32.64
221.224	35.24
221.441	31.24
221.658	17.9
221.875	8.61
222.092	8.41
222.309	13.14
222.526	-2.22
222.743	-4.69
222.96	-5.64
223.177	4.61
223.394	6.99
223.611	2.41
223.828	5.74
224.045	2.54
224.262	6.15
224.479	6.78
224.696	9.35
224.913	9.32
225.13	6.45
225.347	7.61
225.564	4.62
225.781	1.04
225.997	3.54
226.214	5.57
226.431	4.56
226.648	4.74
226.865	5.2
227.082	6.9
227.298	8.58
227.515	8.5
227.732	7.56
227.949	5.85
228.165	6.14
228.382	5.25
228.599	5.22
228.816	6.43
229.032	5.85
229.249	5.24
229.466	4.85
229.682	4.54
229.899	3.96
230.116	4.08
230.332	4.73
230.549	4.4
230.765	5.36
230.982	3.76
231.199	3.57
231.415	3.84
231.632	4.31
231.848	2.51
232.065	3.05
232.281	3.75
232.498	3.32
232.714	2.13
232.931	3.49
233.147	1.92
233.364	3.25
233.58	2.64
233.797	2.01
234.013	2.31
234.23	1.35
234.446	-0.02
234.662	-0.27
234.879	0.26
235.095	0.47
235.312	-1.34
235.528	-1.16
235.744	-1.52
235.961	-1.55
236.177	-1.11
236.393	-1.43
236.61	0.24
236.826	1.42
237.042	0.75
237.258	0.73
237.475	0.98
237.691	0.45
237.907	-0.53
238.123	1.47
238.339	2.03
238.556	3.13
238.772	4.98
238.988	6.71
239.204	5.8
239.42	6.39
239.636	5.36
239.853	5.69
240.069	5.38
240.285	7.4
240.501	5.97
240.717	6.45
240.933	6.62
241.149	5.26
241.365	5.52
241.581	5.98
241.797	6.23
242.013	7.05
242.229	7.17
242.445	7.87
242.661	7.44
242.877	8.13
243.093	7.31
243.309	7.2
243.525	7.16
243.741	6.59
243.957	6.34
244.173	6.36
244.388	6.26
244.604	6
244.82	5.56
245.036	5.41
245.252	5.23
245.468	5.6
245.683	5.57
245.899	6.44
246.115	5.74
246.331	5.88
246.547	6.01
246.762	5.98
246.978	6.08
247.194	6.01
247.409	6.04
247.625	5.92
247.841	6.04
248.057	6.07
248.272	6.08
248.488	6.61
248.703	6.77
248.919	6.46
249.135	6.19
249.35	6.17
249.566	6.63
249.782	6.56
249.997	6.3
250.213	6.45
250.428	6.63
250.644	5.49
250.859	5.5
251.075	5.37
251.29	5.65
251.506	5.78
251.721	5.87
251.937	5.35
252.152	5.19
252.368	5.05
252.583	4.54
252.798	4.07
253.014	4.32
253.229	3.71
253.445	3.57
253.66	3.71
253.875	3.49
254.091	3.72
254.306	3.01
254.521	2.34
254.737	2.86
254.952	3.05
255.167	2.38
255.383	2.76
255.598	2.36
255.813	2.07
256.028	2.22
256.244	2.5
256.459	1.77
256.674	2.58
256.889	3.51
257.104	3.33
257.32	3.14
257.535	3.51
257.75	3.08
257.965	3.81
258.18	4.32
258.395	4.68
258.61	4.48
258.826	4.49
259.041	4.4
259.256	4.69
259.471	4.66
259.686	4.78
259.901	4.87
260.116	4.93
260.331	4.86
260.546	4.73
260.761	4.37
260.976	4.31
261.191	4.44
261.406	4.39
261.621	4.31
261.836	4.28
262.05	4.35
262.265	4.06
262.48	4.01
262.695	3.5
262.91	3.17
263.125	3.21
263.34	3.16
263.555	3.14
263.769	3.23
263.984	3.1
264.199	3.14
264.414	2.95
264.629	3.35
264.843	3.51
265.058	4.27
265.273	4.88
265.488	4.67
265.702	4.43
265.917	4.66
266.132	4.9
266.346	4.41
266.561	4.55
266.776	4.23
266.99	4.24
267.205	3.78
267.42	3.58
267.634	3.39
267.849	3.85
268.063	3.96
268.278	3.86
268.492	3.46
268.707	3.5
268.922	3.36
269.136	3.35
269.351	3.11
269.565	3.34
269.78	3.23
269.994	3.04
270.209	3.15
270.423	2.98
270.637	2.56
270.852	2.9
271.066	2.64
271.281	2.57
271.495	2.73
271.709	2.74
271.924	3.05
272.138	3.11
272.353	3.07
272.567	2.99
272.781	3.12
272.996	3.21
273.21	2.9
273.424	3.17
273.638	3.23
273.853	3.09
274.067	3
274.281	2.82
274.495	2.82
274.71	2.03
274.924	1.92
275.138	1.98
275.352	2.13
275.566	2.09
275.781	2.06
275.995	2.65
276.209	3.26
276.423	3.32
276.637	3.66
276.851	3.43
277.065	4.75
277.279	4.07
277.493	4.23
277.707	4.06
277.921	4.3
278.135	3.81
278.349	3.19
278.563	2.89
278.777	2.85
278.991	2.69
279.205	2.71
279.419	1.85
279.633	2.44
279.847	2.13
280.061	2.38
280.275	2.3
280.489	2.92
280.703	2.8
280.917	2.76
281.131	2.76
281.344	2.64
281.558	2.55
281.772	3.17
281.986	3.21
282.2	3.47
282.414	3.12
282.627	3.08
282.841	3.11
283.055	3.07
283.269	2.91
283.482	3.07
283.696	2.9
283.91	2.96
284.123	2.95
284.337	2.66
284.551	2.52
284.764	2.66
284.978	2.74
285.192	2.6
285.405	2.85
285.619	2.99
285.833	2.88
286.046	3.27
286.26	3.47
286.473	3.14
286.687	3.29
286.9	3.51
287.114	3.83
287.327	4.2
287.541	4.14
287.754	4.17
287.968	4.23
288.181	4.16
288.395	3.79
288.608	3.7
288.822	4
289.035	3.91
289.248	3.84
289.462	3.62
289.675	3.33
289.889	3.77
290.102	3.62
290.315	3.51
290.529	3.69
290.742	3.87
290.955	4.15
291.169	4.21
291.382	4.6
291.595	4.73
291.808	4.94
292.022	5.15
292.235	5.17
292.448	5.41
292.661	5.65
292.875	5.95
293.088	6.02
293.301	6.22
293.514	5.85
293.727	5.49
293.94	5.32
294.153	5.28
294.367	4.89
294.58	4.57
294.793	4.4
295.006	4.36
295.219	4.31
295.432	4.26
295.645	3.87
295.858	4
296.071	3.99
296.284	4.3
296.497	4.13
296.71	4.16
296.923	4.33
297.136	4.31
297.349	4.22
297.562	4.1
297.775	4.07
297.988	4.39
298.201	4.63
298.414	4.61
298.626	4.16
298.839	4.37
299.052	4.54
299.265	4.16
299.478	4.26
299.691	4.39
299.903	4.6
300.116	4.8
300.329	4.87
300.542	4.8
300.755	5.08
300.967	5.7
301.18	5.51
301.393	5.68
301.605	6.11
301.818	6.04
302.031	5.87
302.243	5.72
302.456	5.28
302.669	4.78
302.881	4.96
303.094	4.74
303.307	4.58
303.519	4.59
303.732	4.77
303.944	4.82
304.157	5.05
304.37	4.95
304.582	4.92
304.795	5.25
305.007	5.15
305.22	4.89
305.432	5.11
305.645	5.08
305.857	5.29
306.069	5.24
306.282	5.1
306.494	5.14
306.707	5.64
306.919	5.92
307.132	5.99
307.344	6.44
307.556	6.82
307.769	6.76
307.981	6.54
308.193	6.35
308.406	6.27
308.618	6.49
308.83	6.45
309.043	6.22
309.255	5.87
309.467	6.1
309.679	5.93
309.892	5.45
310.104	5.48
310.316	5.79
310.528	6
310.74	6.14
310.953	5.94
311.165	5.71
311.377	5.97
311.589	6.03
311.801	5.85
312.013	5.84
312.225	6.33
312.437	6.3
312.649	6.42
312.862	6.31
313.074	6.34
313.286	6.66
313.498	6.76
313.71	6.69
313.922	6.77
314.134	6.85
314.346	6.91
314.558	6.61
314.77	7.17
314.982	7.1
315.193	7.37
315.405	6.95
315.617	6.76
315.829	7.14
316.041	6.88
316.253	7.15
316.465	7.2
316.677	7.37
316.888	7.44
317.1	7.25
317.312	6.89
317.524	6.52
317.736	6.75
317.947	6.69
318.159	6.53
318.371	6.94
318.583	6.99
318.794	7.02
319.006	7.05
319.218	7.65
319.43	7.35
319.641	7.37
319.853	7.69
320.064	7.87
320.276	7.97
320.488	8.25
320.699	8.09
320.911	7.95
321.123	8.09
321.334	8.21
321.546	7.94
321.757	8.51
321.969	8.97
322.18	9.2
322.392	9.29
322.603	9.67
322.815	9.59
323.026	9.71
323.238	10
323.449	10.13
323.661	10
323.872	9.98
324.083	10.09
324.295	10.32
324.506	10.46
324.718	10.31
324.929	10.09
325.14	10.64
325.352	10.75
325.563	10.96
325.774	11.14
325.986	11.8
326.197	11.86
326.408	11.6
326.62	11.7
326.831	11.96
327.042	12.55
327.253	12.97
327.464	13.02
327.676	13.31
327.887	13.25
328.098	13.35
328.309	13.37
328.52	13.86
328.732	14.18
328.943	14.14
329.154	14.4
329.365	14.26
329.576	14.5
329.787	14.58
329.998	14.79
330.209	15.09
330.42	15.26
330.631	15.38
330.842	15.29
331.053	15.74
331.264	16.02
331.475	16.02
331.686	16.3
331.897	16.46
332.108	16.44
332.319	16.75
332.53	16.77
332.741	17
332.952	17.07
333.163	17.15
333.374	17.01
333.585	17.15
333.795	17.11
334.006	17.27
334.217	17.18
334.428	17.14
334.639	16.79
334.849	16.65
335.06	16.51
335.271	16.42
335.482	16.57
335.692	16.4
335.903	16.6
336.114	16.57
336.325	16.49
336.535	16.36
336.746	16.46
336.957	16.81
337.167	17.03
337.378	17.04
337.589	17.27
337.799	17.41
338.01	17.59
338.22	17.49
338.431	17.22
338.642	17.17
338.852	17.26
339.063	17.08
339.273	16.92
339.484	16.88
339.694	16.86
339.905	16.6
340.115	16.16
340.326	16.35
340.536	16.11
340.746	16.46
340.957	16.45
341.167	16.59
341.378	16.48
341.588	16.48
341.799	16.97
342.009	16.97
342.219	16.9
342.43	17.27
342.64	16.89
342.85	17.08
343.061	17.12
343.271	17.21
343.481	16.93
343.691	16.99
343.902	16.9
344.112	16.46
344.322	16.48
344.532	16.44
344.743	16.27
344.953	16.25
345.163	16.14
345.373	15.9
345.583	15.87
345.793	16.08
346.004	16.42
346.214	16.49
346.424	16.33
346.634	16.5
346.844	16.71
347.054	16.58
347.264	16.73
347.474	16.72
347.684	16.73
347.894	16.51
348.104	16.7
348.314	16.61
348.524	16.43
348.734	16.69
348.944	16.34
349.154	16.3
349.364	16.49
349.574	16.41
349.784	16.36
349.994	16.22
350.204	16.26
350.413	16.27
350.623	16.04
350.833	16.03
351.043	15.74
351.253	15.61
351.463	15.54
351.672	15.55
351.882	15.38
352.092	15.56
352.302	15.79
352.511	15.89
352.721	15.53
352.931	15.6
353.141	15.55
353.35	15.79
353.56	15.93
353.77	16
353.979	16
354.189	15.97
354.399	15.92
354.608	15.87
354.818	15.83
355.027	15.84
355.237	15.94
355.447	16.24
355.656	16.02
355.866	15.98
356.075	16.09
356.285	16.17
356.494	16.26
356.704	16.19
356.913	16.17
357.123	15.88
357.332	16.07
357.542	15.86
357.751	15.79
357.96	15.75
358.17	15.69
358.379	15.41
358.589	15.18
358.798	15.39
359.007	15.28
359.217	15.24
359.426	15.42
359.635	15.35
359.845	15.54
360.054	15.48
360.263	15.26
360.472	15.28
360.682	15.39
360.891	15.52
361.1	15.49
361.309	15.58
361.519	15.64
361.728	15.71
361.937	15.68
362.146	15.75
362.355	15.68
362.564	15.93
362.774	16.11
362.983	16.16
363.192	15.99
363.401	15.81
363.61	15.87
363.819	15.8
364.028	15.76
364.237	15.69
364.446	15.33
364.655	15.32
364.864	15.49
365.073	15.26
365.282	15.06
365.491	15.11
365.7	15.16
365.909	15.03
366.118	15.01
366.327	15.09
366.536	15
366.745	15.18
366.954	15.1
367.162	15.09
367.371	14.96
367.58	15.27
367.789	14.92
367.998	14.98
368.207	14.89
368.415	15
368.624	14.65
368.833	14.8
369.042	14.68
369.25	14.58
369.459	14.18
369.668	14.18
369.877	13.64
370.085	13.78
370.294	13.81
370.503	13.94
370.711	13.51
370.92	13.7
371.129	13.62
371.337	13.54
371.546	13.34
371.754	13.4
371.963	13.36
372.171	13.36
372.38	13.35
372.589	13
372.797	12.91
373.006	12.79
373.214	12.8
373.423	12.4
373.631	12.18
373.84	12.3
374.048	12.21
374.256	12.24
374.465	12.36
374.673	12.21
374.882	12.26
375.09	12.07
375.298	12.28
375.507	11.94
375.715	12.16
375.923	12.07
376.132	12.03
376.34	11.87
376.548	11.61
376.757	11.3
376.965	11.34
377.173	11.25
377.381	11.2
377.59	11.27
377.798	11.24
378.006	11.21
378.214	11.46
378.423	11.45
378.631	11.59
378.839	11.7
379.047	11.69
379.255	11.68
379.463	11.61
379.671	11.59
379.879	11.35
380.088	11.47
380.296	11.44
380.504	11.2
380.712	11.13
380.92	10.92
381.128	10.84
381.336	10.88
381.544	10.69
381.752	10.96
381.96	10.81
382.168	10.74
382.376	10.71
382.584	10.68
382.791	10.47
382.999	10.34
383.207	10.51
383.415	10.57
383.623	10.64
383.831	10.65
384.039	10.43
384.247	10.52
384.454	10.54
384.662	10.22
384.87	9.98
385.078	9.88
385.285	9.74
385.493	9.64
385.701	9.45
385.909	9.3
386.116	9.4
386.324	9.42
386.532	9.14
386.739	9
386.947	9.1
387.155	9.12
387.362	9.43
387.57	9.51
387.778	9.44
387.985	9.53
388.193	9.61
388.4	9.3
388.608	9.15
388.816	9.09
389.023	9.15
389.231	9.24
389.438	9.18
389.646	9
389.853	9.04
390.061	9.07
390.268	8.73
390.475	8.51
390.683	8.67
390.89	8.64
391.098	8.68
391.305	8.68
391.512	8.63
391.72	8.62
391.927	8.56
392.135	8.47
392.342	8.47
392.549	8.75
392.756	8.88
392.964	8.72
393.171	8.74
393.378	8.77
393.586	8.74
393.793	8.71
394	8.68
394.207	8.66
394.414	8.74
394.622	8.62
394.829	8.51
395.036	8.46
395.243	8.56
395.45	8.5
395.657	8.23
395.864	8.16
396.072	8.06
396.279	7.97
396.486	8.05
396.693	7.9
396.9	7.96
397.107	7.97
397.314	7.94
397.521	7.85
397.728	7.66
397.935	7.8
398.142	7.59
398.349	7.54
398.556	7.6
398.763	7.6
398.97	7.57
399.177	7.39
399.383	7.35
399.59	7.12
399.797	7.15
400.004	7.23
400.211	7.34
400.418	7.4
400.625	7.39
400.831	7.32
401.038	7.18
401.245	7.25
401.452	7.26
401.658	7.12
401.865	7.37
402.072	7.43
402.279	7.49
402.485	7.32
402.692	7.43
402.899	7.32
403.105	7.37
403.312	7.31
403.519	7.28
403.725	7.14
403.932	7.22
404.138	7
404.345	6.99
404.552	6.93
404.758	6.98
404.965	7
405.171	7.05
405.378	7.02
405.584	7.11
405.791	6.94
405.997	6.97
406.204	7
406.41	6.96
406.617	6.93
406.823	6.86
407.029	6.84
407.236	6.83
407.442	6.7
407.649	6.6
407.855	6.47
408.061	6.48
408.268	6.5
408.474	6.19
408.68	6.3
408.887	6.09
409.093	6.24
409.299	6.34
409.505	6.18
409.712	6.39
409.918	6.57
410.124	6.62
410.33	6.74
410.537	6.75
410.743	6.96
410.949	6.97
411.155	7.14
411.361	7.04
411.567	7.01
411.773	7.14
411.98	7.2
412.186	7.35
412.392	7.36
412.598	7.21
412.804	7.18
413.01	7.15
413.216	7.17
413.422	7.19
413.628	7.16
413.834	7.16
414.04	7.01
414.246	6.81
414.452	6.57
414.658	6.54
414.864	6.7
415.07	6.7
415.275	6.71
415.481	6.74
415.687	6.77
415.893	6.81
416.099	6.76
416.305	6.79
416.511	6.76
416.716	6.76
416.922	6.82
417.128	6.8
417.334	6.95
417.539	6.91
417.745	6.87
417.951	6.79
418.157	6.78
418.362	6.82
418.568	6.88
418.774	6.99
418.979	6.96
419.185	7
419.391	7.01
419.596	6.94
419.802	6.98
420.008	6.99
420.213	6.66
420.419	6.67
420.624	6.68
420.83	6.67
421.035	6.69
421.241	6.69
421.446	6.62
421.652	6.67
421.857	6.6
422.063	6.51
422.268	6.47
422.474	6.74
422.679	6.74
422.885	6.76
423.09	6.72
423.295	6.67
423.501	6.69
423.706	6.7
423.911	6.63
424.117	6.71
424.322	6.82
424.527	6.82
424.733	6.87
424.938	6.9
425.143	6.87
425.349	6.93
425.554	6.86
425.759	6.86
425.964	6.9
426.169	7
426.375	6.98
426.58	6.96
426.785	7.02
426.99	7.04
427.195	7
427.4	6.92
427.605	6.9
427.811	6.98
428.016	6.92
428.221	6.81
428.426	6.67
428.631	6.66
428.836	6.62
429.041	6.61
429.246	6.48
429.451	6.5
429.656	6.57
429.861	6.58
430.066	6.61
430.271	6.72
430.476	6.69
430.681	6.74
430.886	6.74
431.09	6.74
431.295	6.87
431.5	6.95
431.705	6.92
431.91	6.84
432.115	6.81
432.32	6.79
432.524	6.71
432.729	6.87
432.934	6.99
433.139	7
433.343	7.02
433.548	6.89
433.753	6.87
433.958	6.87
434.162	7.01
434.367	7.04
434.572	7.01
434.776	7.07
434.981	6.98
435.186	6.79
435.39	6.83
435.595	6.77
435.799	6.71
436.004	6.74
436.209	6.81
436.413	6.74
436.618	6.69
436.822	6.74
437.027	6.77
437.231	6.77
437.436	6.74
437.64	6.73
437.845	6.79
438.049	6.91
438.253	6.95
438.458	6.93
438.662	6.94
438.867	6.97
439.071	6.93
439.275	6.89
439.48	6.95
439.684	7.05
439.888	7.06
440.093	7.15
440.297	7.11
440.501	7.07
440.706	7.12
440.91	7.13
441.114	7.14
441.318	7.2
441.523	7.24
441.727	7.17
441.931	7.17
442.135	7.1
442.339	7.02
442.543	7.08
442.748	7.12
442.952	7.09
443.156	7.1
443.36	7.1
443.564	7.04
443.768	6.93
443.972	7.09
444.176	7.1
444.38	7.18
444.584	7.21
444.788	7.21
444.992	7.26
445.196	7.17
445.4	7.16
445.604	7.18
445.808	7.27
446.012	7.36
446.216	7.31
446.42	7.28
446.624	7.22
446.828	7.18
447.032	7.09
447.235	7.04
447.439	7.14
447.643	7.19
447.847	7.13
448.051	7.15
448.254	7.13
448.458	7.07
448.662	7.06
448.866	7.04
449.069	7.03
449.273	7.07
449.477	7.04
449.681	6.96
449.884	6.8
450.088	6.78
450.292	6.63
450.495	6.61
450.699	6.58
450.902	6.59
451.106	6.72
451.31	6.76
451.513	6.74
451.717	6.67
451.92	6.7
452.124	6.8
452.327	6.87
452.531	6.91
452.734	6.91
452.938	6.98
453.141	7.06
453.345	7.02
453.548	7
453.752	7.03
453.955	7.05
454.158	7.05
454.362	7.05
454.565	7.03
454.769	7.06
454.972	7.04
455.175	6.98
455.379	6.91
455.582	6.88
455.785	6.87
455.988	6.99
456.192	7.08
456.395	7.11
456.598	6.95
456.801	6.94
457.005	6.94
457.208	6.85
457.411	6.95
457.614	6.82
457.817	6.79
458.021	6.87
458.224	6.78
458.427	6.71
458.63	6.77
458.833	6.94
459.036	6.88
459.239	6.87
459.442	6.94
459.645	6.87
459.848	6.95
460.051	6.96
460.254	6.9
460.457	6.91
460.66	6.93
460.863	6.84
461.066	6.73
461.269	6.78
461.472	6.77
461.675	6.72
461.878	6.75
462.081	6.74
462.284	6.78
462.486	6.73
462.689	6.79
462.892	6.86
463.095	6.91
463.298	6.98
463.5	7.06
463.703	6.97
463.906	7.09
464.109	7.05
464.311	7.02
464.514	6.97
464.717	7.01
464.92	6.9
465.122	6.87
465.325	7.01
465.528	6.99
465.73	6.9
465.933	7.03
466.135	6.99
466.338	7.11
466.541	7.19
466.743	7.21
466.946	7.2
467.148	7.24
467.351	7.21
467.553	7.11
467.756	7.17
467.958	7.19
468.161	7.18
468.363	7.2
468.566	7.07
468.768	7.01
468.971	7.11
469.173	7.14
469.375	7.15
469.578	7.18
469.78	7.17
469.983	7.13
470.185	7.17
470.387	7.14
470.59	7.12
470.792	7.15
470.994	7.27
471.196	7.28
471.399	7.36
471.601	7.33
471.803	7.36
472.005	7.35
472.208	7.39
472.41	7.44
472.612	7.5
472.814	7.42
473.016	7.51
473.218	7.38
473.421	7.26
473.623	7.26
473.825	7.21
474.027	7.23
474.229	7.24
474.431	7.27
474.633	7.25
474.835	7.19
475.037	7.31
475.239	7.37
475.441	7.51
475.643	7.54
475.845	7.4
476.047	7.49
476.249	7.4
476.451	7.4
476.653	7.41
476.855	7.33
477.057	7.44
477.258	7.41
477.46	7.26
477.662	7.2
477.864	7.2
478.066	7.27
478.268	7.31
478.469	7.36
478.671	7.36
478.873	7.33
479.075	7.33
479.276	7.26
479.478	7.27
479.68	7.31
479.882	7.31
480.083	7.37
480.285	7.37
480.487	7.41
480.688	7.4
480.89	7.47
481.091	7.44
481.293	7.52
481.495	7.53
481.696	7.5
481.898	7.53
482.099	7.53
482.301	7.48
482.502	7.43
482.704	7.37
482.905	7.36
483.107	7.34
483.308	7.32
483.51	7.31
483.711	7.3
483.913	7.31
484.114	7.28
484.315	7.27
484.517	7.25
484.718	7.25
484.92	7.24
485.121	7.24
485.322	7.21
485.524	7.24
485.725	7.2
485.926	7.17
486.127	7.18
486.329	7.19
486.53	7.2
486.731	7.23
486.932	7.27
487.134	7.27
487.335	7.28
487.536	7.26
487.737	7.23
487.938	7.24
488.139	7.24
488.341	7.21
488.542	7.19
488.743	7.15
488.944	7.14
489.145	7.09
489.346	7.09
489.547	7.11
489.748	7.14
489.949	7.16
490.15	7.16
490.351	7.22
490.552	7.25
490.753	7.3
490.954	7.33
491.155	7.37
491.356	7.39
491.557	7.43
491.758	7.43
491.959	7.42
492.159	7.45
492.36	7.47
492.561	7.45
492.762	7.44
492.963	7.43
493.164	7.46
493.364	7.46
493.565	7.47
493.766	7.49
493.967	7.46
494.167	7.45
494.368	7.47
494.569	7.49
494.769	7.57
494.97	7.62
495.171	7.57
495.371	7.62
495.572	7.67
495.773	7.74
495.973	7.78
496.174	7.8
496.375	7.86
496.575	7.85
496.776	7.94
496.976	7.86
497.177	7.96
497.377	8.05
497.578	8.07
497.778	8.07
497.979	8.01
498.179	8.01
498.38	8.14
498.58	8.15
498.78	8.16
498.981	8.09
499.181	8.15
499.382	8.03
499.582	8.05
499.782	8.01
499.983	8.02
500.183	8.11
500.383	8.19
500.584	8.13
500.784	8.25
500.984	8.34
501.184	8.45
501.385	8.48
501.585	8.56
501.785	8.58
501.985	8.67
502.185	8.77
502.386	8.76
502.586	8.76
502.786	8.83
502.986	8.82
503.186	8.94
503.386	9.01
503.586	9.09
503.786	9.14
503.987	9.23
504.187	9.23
504.387	9.24
504.587	9.33
504.787	9.35
504.987	9.4
505.187	9.46
505.387	9.4
505.587	9.37
505.786	9.35
505.986	9.43
506.186	9.54
506.386	9.63
506.586	9.69
506.786	9.75
506.986	9.87
507.186	9.86
507.386	9.88
507.585	9.98
507.785	10.1
507.985	10.24
508.185	10.32
508.384	10.38
508.584	10.34
508.784	10.35
508.984	10.38
509.183	10.38
509.383	10.48
509.583	10.55
509.782	10.59
509.982	10.61
510.182	10.63
510.381	10.65
510.581	10.68
510.781	10.86
510.98	10.95
511.18	11.08
511.379	11.12
511.579	11.19
511.778	11.22
511.978	11.23
512.177	11.38
512.377	11.45
512.576	11.51
512.776	11.56
512.975	11.65
513.175	11.72
513.374	11.78
513.573	11.91
513.773	12.04
513.972	12.2
514.172	12.38
514.371	12.39
514.57	12.48
514.77	12.6
514.969	12.67
515.168	12.71
515.367	12.86
515.567	12.84
515.766	12.97
515.965	13.04
516.164	13.1
516.364	13.25
516.563	13.36
516.762	13.54
516.961	13.66
517.16	13.76
517.359	13.93
517.559	14.05
517.758	14.19
517.957	14.26
518.156	14.34
518.355	14.47
518.554	14.54
518.753	14.66
518.952	14.71
519.151	14.76
519.35	14.89
519.549	14.91
519.748	14.98
519.947	15.11
520.146	15.19
520.345	15.31
520.544	15.43
520.743	15.51
520.942	15.65
521.141	15.78
521.339	15.94
521.538	16.06
521.737	16.15
521.936	16.32
522.135	16.48
522.333	16.64
522.532	16.77
522.731	16.98
522.93	17.12
523.129	17.22
523.327	17.31
523.526	17.48
523.725	17.55
523.923	17.73
524.122	17.78
524.321	17.92
524.519	18.09
524.718	18.24
524.917	18.26
525.115	18.43
525.314	18.49
525.512	18.7
525.711	18.82
525.909	18.97
526.108	19.09
526.306	19.28
526.505	19.4
526.703	19.52
526.902	19.62
527.1	19.73
527.299	19.81
527.497	19.99
527.696	20.05
527.894	20.13
528.092	20.21
528.291	20.28
528.489	20.34
528.688	20.4
528.886	20.49
529.084	20.6
529.283	20.69
529.481	20.79
529.679	20.83
529.877	20.94
530.076	21.04
530.274	21.11
530.472	21.22
530.67	21.3
530.869	21.46
531.067	21.58
531.265	21.66
531.463	21.81
531.661	21.94
531.859	22.12
532.057	22.22
532.255	22.34
532.454	22.5
532.652	22.61
532.85	22.76
533.048	22.81
533.246	22.89
533.444	22.93
533.642	22.99
533.84	23.07
534.038	23.13
534.236	23.21
534.434	23.27
534.632	23.33
534.83	23.41
535.027	23.52
535.225	23.63
535.423	23.7
535.621	23.91
535.819	24
536.017	24.06
536.215	24.18
536.412	24.24
536.61	24.36
536.808	24.46
537.006	24.56
537.203	24.63
537.401	24.7
537.599	24.76
537.797	24.8
537.994	24.84
538.192	24.95
538.39	25
538.587	25.14
538.785	25.18
538.983	25.36
539.18	25.49
539.378	25.56
539.575	25.7
539.773	25.8
539.97	25.91
540.168	26.03
540.366	26.16
540.563	26.19
540.761	26.26
540.958	26.34
541.155	26.39
541.353	26.4
541.55	26.45
541.748	26.5
541.945	26.61
542.143	26.64
542.34	26.69
542.537	26.76
542.735	26.87
542.932	26.91
543.129	26.96
543.327	27.04
543.524	27.15
543.721	27.23
543.919	27.32
544.116	27.32
544.313	27.45
544.51	27.59
544.708	27.58
544.905	27.67
545.102	27.85
545.299	27.93
545.496	28.01
545.693	28.15
545.891	28.25
546.088	28.25
546.285	28.27
546.482	28.23
546.679	28.15
546.876	28.18
547.073	28.16
547.27	28.12
547.467	28.12
547.664	28.11
547.861	28.05
548.058	28.01
548.255	28.05
548.452	28.09
548.649	28.11
548.846	28.2
549.043	28.19
549.24	28.25
549.437	28.15
549.633	28.15
549.83	28.06
550.027	28.04
550.224	28.04
550.421	28.04
550.618	28
550.814	28
551.011	28.09
551.208	28.11
551.405	28.18
551.601	28.3
551.798	28.33
551.995	28.38
552.191	28.37
552.388	28.39
552.585	28.42
552.781	28.4
552.978	28.43
553.175	28.36
553.371	28.45
553.568	28.38
553.764	28.35
553.961	28.38
554.157	28.38
554.354	28.39
554.55	28.43
554.747	28.51
554.943	28.58
555.14	28.53
555.336	28.61
555.533	28.57
555.729	28.71
555.926	28.69
556.122	28.73
556.318	28.78
556.515	28.8
556.711	28.85
556.907	28.71
557.104	28.8
557.3	28.76
557.496	28.73
557.693	28.69
557.889	28.48
558.085	28.56
558.281	28.48
558.478	28.48
558.674	28.52
558.87	28.44
559.066	28.61
559.262	28.67
559.459	28.79
559.655	28.8
559.851	28.96
560.047	29.11
560.243	29.12
560.439	29.18
560.635	29.25
560.831	29.23
561.027	29.3
561.223	29.25
561.419	29.2
561.615	29.24
561.811	29.27
562.007	29.17
562.203	29.13
562.399	29.16
562.595	29.26
562.791	29.25
562.987	29.37
563.183	29.38
563.379	29.41
563.575	29.39
563.771	29.44
563.966	29.56
564.162	29.61
564.358	29.63
564.554	29.76
564.75	29.7
564.945	29.65
565.141	29.52
565.337	29.53
565.533	29.62
565.728	29.67
565.924	29.64
566.12	29.56
566.315	29.53
566.511	29.61
566.707	29.54
566.902	29.58
567.098	29.62
567.293	29.75
567.489	29.78
567.684	29.71
567.88	29.65
568.076	29.64
568.271	29.63
568.467	29.62
568.662	29.64
568.858	29.66
569.053	29.68
569.248	29.67
569.444	29.67
569.639	29.73
569.835	29.82
570.03	29.79
570.225	29.87
570.421	29.98
570.616	30.09
570.812	30.05
571.007	30
571.202	29.96
571.397	30.01
571.593	30.05
571.788	30.15
571.983	30.05
572.178	30.15
572.374	30.21
572.569	30.11
572.764	30.11
572.959	30.16
573.154	30.17
573.35	30.14
573.545	30.16
573.74	30.05
573.935	29.95
574.13	30.04
574.325	30.07
574.52	30.06
574.715	30.06
574.91	30
575.105	30.06
575.3	30.15
575.495	30.29
575.69	30.3
575.885	30.44
576.08	30.39
576.275	30.44
576.47	30.37
576.665	30.38
576.86	30.38
577.055	30.59
577.25	30.57
577.444	30.52
577.639	30.45
577.834	30.59
578.029	30.6
578.224	30.54
578.418	30.5
578.613	30.69
578.808	30.58
579.003	30.73
579.197	30.6
579.392	30.51
579.587	30.57
579.781	30.65
579.976	30.51
580.171	30.43
580.365	30.57
580.56	30.63
580.755	30.45
580.949	30.63
581.144	30.49
581.338	30.55
581.533	30.68
581.727	30.71
581.922	30.78
582.116	30.93
582.311	30.93
582.505	31.1
582.7	31.2
582.894	31.34
583.089	31.22
583.283	31.41
583.478	31.36
583.672	31.31
583.866	31.21
584.061	31.21
584.255	31.17
584.449	31.33
584.644	31.2
584.838	31.09
585.032	31
585.226	31.04
585.421	31.08
585.615	31.14
585.809	31.07
586.003	31.26
586.198	31.36
586.392	31.35
586.586	31.36
586.78	31.35
586.974	31.34
587.168	31.59
587.363	31.57
587.557	31.57
587.751	31.48
587.945	31.57
588.139	31.49
588.333	31.43
588.527	31.34
588.721	31.35
588.915	31.36
589.109	31.38
589.303	31.2
589.497	31.32
589.691	31.22
589.885	31.36
590.079	31.35
590.273	31.37
590.466	31.23
590.66	31.19
590.854	31.24
591.048	31.24
591.242	31.23
591.436	31.27
591.629	31.38
591.823	31.45
592.017	31.54
592.211	31.58
592.404	31.5
592.598	31.62
592.792	31.86
592.986	31.9
593.179	31.92
593.373	31.97
593.567	31.98
593.76	31.9
593.954	32.01
594.147	32.05
594.341	32.16
594.535	32.24
594.728	32.2
594.922	32.2
595.115	32.09
595.309	32.2
595.502	32.25
595.696	32.18
595.889	32.14
596.083	32.04
596.276	31.89
596.47	31.89
596.663	31.88
596.856	31.98
597.05	31.99
597.243	32
597.437	31.9
597.63	31.96
597.823	32.08
598.017	32.05
598.21	32.22
598.403	32.1
598.596	32.01
598.79	32.02
598.983	31.87
599.176	31.88
599.369	31.87
599.563	31.78
599.756	31.74
599.949	31.67
600.142	31.69
600.335	31.57
600.528	31.81
600.722	32
600.915	32.17
601.108	32.23
601.301	32.26
601.494	32.37
601.687	32.46
601.88	32.36
602.073	32.32
602.266	32.38
602.459	32.44
602.652	32.35
602.845	32.2
603.038	32.01
603.231	32.13
603.424	32.18
603.617	31.98
603.809	32.01
604.002	31.99
604.195	32.01
604.388	31.97
604.581	31.97
604.774	32.02
604.966	32.03
605.159	32
605.352	32
605.545	32.01
605.737	32.13
605.93	32.29
606.123	32.43
606.316	32.53
606.508	32.54
606.701	32.54
606.894	32.6
607.086	32.59
607.279	32.79
607.471	32.83
607.664	32.62
607.857	32.82
608.049	32.8
608.242	32.98
608.434	33.27
608.627	33.48
608.819	33.82
609.012	34.09
609.204	34.59
609.397	34.98
609.589	35.42
609.782	36.01
609.974	36.38
610.166	36.82
610.359	37.14
610.551	37.46
610.743	37.78
610.936	37.9
611.128	38.16
611.32	38.25
611.513	38.22
611.705	38.11
611.897	37.82
612.09	37.78
612.282	37.59
612.474	37.4
612.666	37.21
612.858	37.05
613.051	36.81
613.243	36.43
613.435	36.38
613.627	36.36
613.819	36.21
614.011	36.08
614.203	35.79
614.395	35.52
614.588	35.4
614.78	35.16
614.972	35.15
615.164	35.01
615.356	34.85
615.548	34.3
615.74	34.07
615.932	33.9
616.124	34
616.315	33.82
616.507	33.73
616.699	33.7
616.891	33.48
617.083	33.07
617.275	33.07
617.467	33.05
617.659	33.1
617.85	33.06
618.042	33.1
618.234	32.94
618.426	33.18
618.618	33.31
618.809	33.15
619.001	33.1
619.193	33.31
619.384	33.2
619.576	33.35
619.768	33.2
619.959	33.11
620.151	33.12
620.343	33.26
620.534	33.1
620.726	33.15
620.917	33.18
621.109	33.42
621.301	33.4
621.492	33.37
621.684	33.33
621.875	33.51
622.067	33.56
622.258	33.39
622.45	33.5
622.641	33.6
622.832	33.7
623.024	33.74
623.215	33.74
623.407	33.69
623.598	33.97
623.789	34.03
623.981	34.19
624.172	34.31
624.363	34.41
624.555	34.35
624.746	34.34
624.937	34.03
625.129	33.99
625.32	33.86
625.511	33.85
625.702	33.67
625.893	33.66
626.085	33.55
626.276	33.49
626.467	33.38
626.658	33.27
626.849	33.27
627.04	33.44
627.231	33.55
627.422	33.61
627.614	33.63
627.805	33.62
627.996	33.62
628.187	33.74
628.378	33.7
628.569	33.93
628.76	34.03
628.951	34.02
629.142	34.06
629.332	34
629.523	33.98
629.714	33.97
629.905	34.1
630.096	34.06
630.287	33.97
630.478	33.97
630.669	33.67
630.859	33.69
631.05	33.63
631.241	33.6
631.432	33.6
631.623	33.69
631.813	33.73
632.004	33.74
632.195	33.66
632.385	33.51
632.576	33.62
632.767	33.77
632.957	33.71
633.148	33.73
633.339	33.57
633.529	33.49
633.72	33.37
633.91	33.23
634.101	33.1
634.292	33.14
634.482	33.23
634.673	33.25
634.863	33.26
635.054	33.21
635.244	33.18
635.435	33.26
635.625	33.34
635.815	33.36
636.006	33.58
636.196	33.75
636.387	33.76
636.577	33.93
636.767	33.64
636.958	33.63
637.148	33.54
637.338	33.57
637.529	33.53
637.719	33.5
637.909	33.48
638.099	33.34
638.29	33.27
638.48	33.19
638.67	33.23
638.86	33.33
639.05	33.2
639.241	33.24
639.431	33.34
639.621	33.23
639.811	33.39
640.001	33.5
640.191	33.44
640.381	33.39
640.571	33.25
640.761	32.98
640.951	33.06
641.141	33.01
641.331	33.24
641.521	33.08
641.711	33.3
641.901	33.28
642.091	33.36
642.281	33.43
642.471	33.54
642.661	33.91
642.851	34.19
643.041	34.4
643.231	34.71
643.42	34.33
643.61	34.31
643.8	34.17
643.99	34.02
644.18	33.81
644.369	34.04
644.559	34.08
644.749	33.94
644.939	33.72
645.128	33.62
645.318	33.52
645.508	33.77
645.697	33.82
645.887	33.88
646.076	33.75
646.266	33.83
646.456	33.88
646.645	33.97
646.835	34.14
647.024	34.17
647.214	34.07
647.403	34.25
647.593	34.22
647.782	34.31
647.972	34.23
648.161	34.45
648.351	34.65
648.54	34.37
648.73	34.04
648.919	33.96
649.108	34.1
649.298	34.28
649.487	34.1
649.677	34.11
649.866	33.96
650.055	33.91
650.244	33.87
650.434	33.76
650.623	33.85
650.812	34.08
651.002	33.93
651.191	33.92
651.38	34.06
651.569	34.06
651.758	34.31
651.947	34.73
652.137	34.74
652.326	34.63
652.515	34.66
652.704	34.59
652.893	34.66
653.082	34.78
653.271	34.75
653.46	34.56
653.649	34.71
653.838	34.32
654.027	34.08
654.216	34.3
654.405	34.31
654.594	34.08
654.783	34.08
654.972	33.99
655.161	33.95
655.35	34.05
655.539	33.93
655.728	33.9
655.916	34.22
656.105	34.1
656.294	34
656.483	33.9
656.672	34.21
656.86	34.17
657.049	34.14
657.238	34.16
657.427	34.07
657.615	34.03
657.804	33.95
657.993	33.91
658.181	33.73
658.37	33.64
658.559	33.77
658.747	33.67
658.936	33.89
659.125	33.63
659.313	33.7
659.502	33.72
659.69	33.96
659.879	34.02
660.067	33.87
660.256	33.98
660.444	34.26
660.633	34.34
660.821	34.29
661.01	34.14
661.198	34.38
661.387	34.39
661.575	34.28
661.763	33.93
661.952	33.93
662.14	33.86
662.328	34.05
662.517	34.01
662.705	34.06
662.893	34.11
663.082	34.33
663.27	34.32
663.458	34.29
663.646	34.31
663.834	34.65
664.023	34.42
664.211	34.5
664.399	34.42
664.587	34.29
664.775	34.31
664.963	34.42
665.152	34.35
665.34	34.71
665.528	34.92
665.716	35.09
665.904	35.02
666.092	35.23
666.28	35.52
666.468	35.45
666.656	35.37
666.844	35.26
667.032	34.99
667.22	35.2
667.408	34.85
667.596	34.77
667.784	34.69
667.971	34.72
668.159	34.47
668.347	34.35
668.535	34.51
668.723	34.85
668.911	34.99
669.098	35.21
669.286	34.92
669.474	35.2
669.662	35.09
669.849	35.1
670.037	35.18
670.225	35.36
670.413	35.51
670.6	35.33
670.788	35.19
670.976	35.05
671.163	35.12
671.351	35.1
671.538	34.89
671.726	34.83
671.913	34.87
672.101	34.62
672.289	34.67
672.476	34.58
672.664	34.83
672.851	34.82
673.039	34.71
673.226	34.61
673.413	34.67
673.601	34.62
673.788	34.64
673.976	34.38
674.163	34.74
674.35	34.79
674.538	34.58
674.725	34.46
674.912	34.36
675.1	34.56
675.287	34.45
675.474	34.68
675.662	34.86
675.849	34.82
676.036	35.06
676.223	34.72
676.411	34.73
676.598	34.81
676.785	34.9
676.972	35.13
677.159	34.89
677.346	34.91
677.533	34.78
677.721	34.69
677.908	34.63
678.095	34.7
678.282	34.81
678.469	34.77
678.656	34.88
678.843	34.89
679.03	34.82
679.217	35.12
679.404	35.31
679.591	35.23
679.778	35.21
679.964	35.5
680.151	35.54
680.338	35.59
680.525	35.66
680.712	35.52
680.899	35.51
681.086	35.48
681.272	35.29
681.459	35.11
681.646	35.08
681.833	35.14
682.02	34.99
682.206	34.91
682.393	34.68
682.58	34.72
682.766	34.72
682.953	34.64
683.14	34.68
683.326	34.95
683.513	35.14
683.7	35.06
683.886	35.07
684.073	35.15
684.259	34.96
684.446	35.01
684.632	35.03
684.819	35.12
685.005	35.15
685.192	34.88
685.378	34.77
685.565	34.69
685.751	34.97
685.938	34.85
686.124	34.86
686.31	34.81
686.497	35.09
686.683	35.14
686.87	35.25
687.056	35.3
687.242	35.57
687.429	35.44
687.615	35.58
687.801	35.12
687.987	35.27
688.174	35.56
688.36	35.56
688.546	35.28
688.732	34.92
688.918	35.02
689.105	35.03
689.291	35.07
689.477	35.45
689.663	35.59
689.849	35.83
690.035	35.9
690.221	35.65
690.407	35.92
690.593	36.12
690.779	36.49
690.965	36.16
691.151	35.84
691.337	35.88
691.523	35.65
691.709	35.4
691.895	35.6
692.081	35.34
692.267	35.32
692.453	35.31
692.639	35.44
692.825	35.36
693.011	35.58
693.196	36.05
693.382	36.05
693.568	35.95
693.754	35.93
693.94	35.68
694.125	36.01
694.311	36.16
694.497	36.15
694.682	36.05
694.868	36.02
695.054	36.01
695.239	35.76
695.425	35.57
695.611	35.75
695.796	35.91
695.982	35.94
696.168	35.82
696.353	35.38
696.539	35.48
696.724	35.64
696.91	35.53
697.095	35.13
697.281	35.17
697.466	35.3
697.652	35.12
697.837	35.02
698.023	35.07
698.208	35.07
698.393	35.27
698.579	35.16
698.764	34.86
698.949	34.95
699.135	35.32
699.32	35.43
699.505	35.48
699.691	35.33
699.876	35.48
700.061	35.6
700.246	35.53
700.432	35.64
700.617	35.8
700.802	35.92
700.987	35.94
701.172	36.19
701.358	36.13
701.543	36.05
701.728	36.31
701.913	35.73
702.098	35.7
702.283	35.66
702.468	35.46
702.653	34.99
702.838	34.92
703.023	35.18
703.208	34.91
703.393	34.76
703.578	34.78
703.763	35.03
703.948	35.62
704.133	35.68
704.318	35.83
704.503	35.96
704.688	36.23
704.873	36.54
705.057	36.43
705.242	36.58
705.427	36.73
705.612	36.77
705.797	37.11
705.981	36.97
706.166	36.85
706.351	36.93
706.536	36.87
706.72	37.22
706.905	37.21
707.09	37.02
707.274	37.16
707.459	37.41
707.644	37.5
707.828	37.26
708.013	37.24
708.197	37.42
708.382	37.5
708.567	37.47
708.751	37.08
708.936	36.88
709.12	37.01
709.305	36.53
709.489	36.69
709.673	36.73
709.858	36.27
710.042	36.16
710.227	36.21
710.411	35.98
710.596	36.21
710.78	36.29
710.964	36.45
711.149	36.51
711.333	36.89
711.517	36.63
711.702	36.68
711.886	36.61
712.07	37.36
712.254	37.35
712.438	37.35
712.623	36.97
712.807	36.95
712.991	37.22
713.175	37.17
713.359	37.02
713.544	36.76
713.728	36.67
713.912	36.87
714.096	36.39
714.28	36.13
714.464	35.79
714.648	35.81
714.832	35.71
715.016	35.24
715.2	34.99
715.384	34.88
715.568	35.14
715.752	35.1
715.936	34.99
716.12	34.95
716.304	34.92
716.488	35.19
716.671	35.08
716.855	35.2
717.039	35.19
717.223	35.26
717.407	35.04
717.59	34.79
717.774	34.67
717.958	34.65
718.142	34.38
718.325	34.42
718.509	34.45
718.693	34.81
718.877	34.76
719.06	35.08
719.244	34.78
719.428	34.93
719.611	34.98
719.795	35.03
719.978	35
720.162	35.37
720.345	35.65
720.529	35.95
720.713	35.83
720.896	35.63
721.08	35.29
721.263	35.58
721.446	35.65
721.63	35.42
721.813	35.11
721.997	35.52
722.18	35.2
722.364	34.82
722.547	34.41
722.73	34.13
722.914	34.76
723.097	34.96
723.28	35.12
723.464	35.43
723.647	35.77
723.83	36.05
724.013	36.01
724.197	36.37
724.38	36.91
724.563	37.1
724.746	37.5
724.929	37.25
725.112	37.41
725.296	37.38
725.479	36.82
725.662	36.88
725.845	36.97
726.028	36.46
726.211	36.45
726.394	35.8
726.577	35.55
726.76	36
726.943	35.7
727.126	35.16
727.309	35.21
727.492	35.42
727.675	35.23
727.858	35.19
728.041	35.61
728.224	35.51
728.407	35.77
728.589	35.73
728.772	35.14
728.955	35.24
729.138	35.46
729.321	35
729.503	35.08
729.686	35.39
729.869	35.22
730.052	34.76
730.234	34.36
730.417	34.09
730.6	34.55
730.782	34.78
730.965	35.06
731.148	35.12
731.33	35.21
731.513	35.01
731.695	34.47
731.878	34.47
732.061	34.69
732.243	35.52
732.426	35.8
732.608	36.03
732.791	36.04
732.973	35.74
733.156	35.74
733.338	36.1
733.52	36.55
733.703	36.9
733.885	37.12
734.068	37.04
734.25	36.42
734.432	36.34
734.615	36.15
734.797	36.53
734.979	36.65
735.162	36.78
735.344	37.07
735.526	36.46
735.708	36.25
735.891	36.74
736.073	37.13
736.255	37.3
736.437	37.07
736.619	37.11
736.802	36.48
736.984	36.55
737.166	37.13
737.348	36.61
737.53	36.75
737.712	36.66
737.894	36.31
738.076	36.19
738.258	36.16
738.44	36.5
738.622	36.17
738.804	36.47
738.986	36.55
739.168	36.36
739.35	36.88
739.532	36.84
739.714	37.21
739.896	36.9
740.078	36.61
740.259	36.47
740.441	36.13
740.623	36.07
740.805	35.92
740.987	35.64
741.168	34.87
741.35	34.89
741.532	35.21
741.714	35.19
741.895	35.19
742.077	35.43
742.259	35.12
742.44	35.53
742.622	35.46
742.804	35.6
742.985	35.36
743.167	35.54
743.348	35.42
743.53	35.17
743.711	35.49
743.893	35.45
744.075	35.88
744.256	36.39
744.438	36.54
744.619	36.74
744.8	36.51
744.982	36.86
745.163	36.37
745.345	36.53
745.526	36.44
745.707	36.27
745.889	36.76
746.07	36.25
746.252	36.47
746.433	36.44
746.614	36.69
746.795	37.15
746.977	37.14
747.158	37.73
747.339	37.05
747.52	36.91
747.702	36.65
747.883	35.85
748.064	35.77
748.245	35.56
748.426	34.94
748.607	34.99
748.788	34.49
748.97	34.22
749.151	34.71
749.332	35.36
749.513	35.92
749.694	35.93
749.875	36.26
750.056	36.37
750.237	36.32
750.418	36.82
750.599	35.94
750.78	35.98
750.96	36.17
751.141	35.82
751.322	35.63
751.503	35.71
751.684	35.69
751.865	35.35
752.046	35.88
752.226	36.2
752.407	35.76
752.588	36.39
752.769	36.06
752.949	35.99
753.13	35.98
753.311	35.77
753.492	34.83
753.672	34.54
753.853	35.32
754.034	35.17
754.214	35.46
754.395	35.86
754.575	36.68
754.756	37.14
754.937	37.56
755.117	37.53
755.298	37.77
755.478	38.73
755.659	38.5
755.839	38.03
756.02	37.46
756.2	36.75
756.381	36.93
756.561	36.51
756.741	36.14
756.922	36.35
757.102	35.96
757.283	35.77
757.463	35.66
757.643	35.79
757.823	35.7
758.004	35.71
758.184	35.38
758.364	35.5
758.545	35.27
758.725	35.71
758.905	35.3
759.085	35.27
759.265	34.96
759.446	34.59
759.626	35.18
759.806	35.18
759.986	35.63
760.166	35.64
760.346	35.1
760.526	34.61
760.706	34.64
760.886	34.77
761.066	35.51
761.246	36.1
761.426	36.42
761.606	35.9
761.786	35.69
761.966	35.77
762.146	36.01
762.326	36.63
762.506	36.88
762.686	37.03
762.866	36.83
763.046	36.39
763.225	36.41
763.405	36.14
763.585	36.13
763.765	36.5
763.945	36.23
764.124	36.32
764.304	35.86
764.484	35.34
764.664	35.12
764.843	35.46
765.023	35.8
765.203	35.24
765.382	34.96
765.562	35.42
765.741	35.1
765.921	35.56
766.101	35.64
766.28	35.9
766.46	36.48
766.639	36.43
766.819	35.77
766.998	35.94
767.178	36.38
767.357	37
767.537	36.91
767.716	37.49
767.896	36.87
768.075	36.85
768.254	36.63
768.434	36.65
768.613	36.38
768.792	37.05
768.972	36.37
769.151	36.15
769.33	35.45
769.51	35.2
769.689	34.74
769.868	35.05
770.047	35.57
770.226	36.13
770.406	36.26
770.585	36.45
770.764	36.34
770.943	36.82
771.122	36.57
771.301	37.1
771.48	37.76
771.66	37.76
771.839	37.85
772.018	37.29
772.197	37.06
772.376	36.67
772.555	36.83
772.734	36.45
772.913	35.96
773.092	35.55
773.271	36.13
773.449	35.25
773.628	35.95
773.807	36
773.986	36.05
774.165	36.81
774.344	37.27
774.523	36.94
774.701	36.78
774.88	36.92
775.059	38.66
775.238	38.34
775.417	38.16
775.595	37.57
775.774	37.22
775.953	36.93
776.131	35.94
776.31	35.58
776.489	36.08
776.667	36.63
776.846	36.64
777.025	34.67
777.203	34.35
777.382	34.92
777.56	34.71
777.739	34.31
777.917	34.24
778.096	34.41
778.274	34.44
778.453	34.34
778.631	33.98
778.81	33.56
778.988	34.97
779.166	34.87
779.345	35.01
779.523	34.96
779.702	35.68
779.88	36.01
780.058	35.9
780.237	36.6
780.415	36.33
780.593	36.43
780.771	36.5
780.95	36.09
781.128	36.41
781.306	35.76
781.484	36.2
781.662	36.31
781.841	35.69
782.019	35.54
782.197	35.22
782.375	35.34
782.553	35.63
782.731	36.45
782.909	37.22
783.087	37.39
783.265	37.68
783.443	37.72
783.621	37.76
783.799	38.03
783.977	38.28
784.155	37.83
784.333	37.67
784.511	38.02
784.689	37.12
784.867	36.1
785.045	35.62
785.223	35.58
785.4	35.34
785.578	34.86
785.756	34.69
785.934	35.09
786.112	35.34
786.289	35.1
786.467	34.74
786.645	35.66
786.823	35.65
787	36.62
787.178	36.07
787.356	35.23
787.533	35.43
787.711	35.14
787.889	35.51
788.066	35.9
788.244	35.84
788.421	35.6
788.599	35.57
788.776	35.98
788.954	35.1
789.131	36.45
789.309	37.65
789.486	37.53
789.664	38.17
789.841	37.6
790.019	37.51
790.196	38.11
790.373	37.65
790.551	37.36
790.728	36.79
790.906	37.03
791.083	36.3
791.26	36.07
791.437	35.66
791.615	35.81
791.792	35.54
791.969	35.49
792.146	34.9
792.324	35.25
792.501	35.56
792.678	35.17
792.855	34.91
793.032	36.32
793.209	36.34
793.387	37.89
793.564	36.28
793.741	36.09
793.918	36.3
794.095	35.43
794.272	35.98
794.449	35.95
794.626	36.43
794.803	37.02
794.98	35.61
795.157	34.46
795.334	34.22
795.511	35.12
795.688	34.77
795.864	33.97
796.041	35
796.218	34.2
796.395	33.88
796.572	33.86
796.749	33.67
796.925	34.06
797.102	34.94
797.279	34.66
797.456	34.61
797.632	35.21
797.809	35.16
797.986	35.48
798.162	36.06
798.339	36.15
798.516	36.82
798.692	36.72
798.869	36.47
799.046	36.66
799.222	36.18
799.399	35.7
799.575	34.8
799.752	34.62
799.928	34.12
800.105	33.16
800.281	32.51
800.458	31.56
800.634	31.57
800.811	31.24
800.987	30.51
801.163	30.31
801.34	31.18
801.516	31.8
801.692	33.03
801.869	33.01
802.045	33.78
802.221	33.25
802.398	33.95
802.574	33.38
802.75	33.3
802.926	33.85
803.103	33.83
803.279	33.97
803.455	34.46
803.631	34.11
803.807	35.56
803.983	35.92
804.16	37.77
804.336	37.1
804.512	37.6
804.688	38.07
804.864	37.88
805.04	37.78
805.216	36.54
805.392	36.99
805.568	35.98
805.744	34.16
805.92	32.55
806.096	31.42
806.272	31.38
806.448	30.98
806.623	31.33
806.799	30.8
806.975	31.87
807.151	32.07
807.327	31.04
807.503	31.67
807.678	33.54
807.854	34.01
808.03	34.16
808.206	35.26
808.381	35.45
808.557	34.81
808.733	34.83
808.908	32.74
809.084	33.89
809.26	33.13
809.435	32.41
809.611	31.23
809.787	32.32
809.962	31.28
810.138	31.05
810.313	31.07
810.489	31.44
810.664	31.39
810.84	32.18
811.015	31.34
811.191	32.55
811.366	33.58
811.542	32.05
811.717	30.78
811.892	32.99
812.068	31.93
812.243	30.81
812.419	30.75
812.594	31.55
812.769	32.17
812.944	32.81
813.12	31.93
813.295	30.51
813.47	31.81
813.645	32.85
813.821	31.25
813.996	30.48
814.171	29.66
814.346	29.42
814.521	29.09
814.697	28.41
814.872	27.92
815.047	27.7
815.222	28.42
815.397	26.56
815.572	26.14
815.747	26.43
815.922	28.29
816.097	30.03
816.272	30.56
816.447	29.28
816.622	30.24
816.797	30.76
816.972	31.27
817.147	32.87
817.322	33.28
817.496	32.98
817.671	32.46
817.846	32.02
818.021	32.15
818.196	30.48
818.371	31.72
818.545	31.45
818.72	30.6
818.895	29.99
819.069	29.87
819.244	31.11
819.419	31.4
819.594	31.47
819.768	31.12
819.943	31.8
820.117	32.07
820.292	32.83
820.467	33.31
820.641	33.35
820.816	33.52
820.99	32.98
821.165	33.17
821.339	32.93
821.514	32.98
821.688	33.47
821.863	33.32
822.037	33.39
822.212	33.08
822.386	33
822.56	32.92
822.735	33.02
822.909	32.94
823.084	32.78
823.258	33.02
823.432	33.06
823.606	32.72
823.781	32.56
823.955	32.56
824.129	32.28
824.303	32.31
824.478	32.43
824.652	32.34
824.826	32.64
825	32.38
825.174	31.99
825.348	32.16
825.523	32.17
825.697	31.86
825.871	31.65
826.045	31.78
826.219	31.81
826.393	31.51
826.567	31.4
826.741	31.25
826.915	31.53
827.089	31.78
827.263	31.76
827.437	31.51
827.611	31.62
827.784	31.64
827.958	32.06
828.132	31.92
828.306	32.13
828.48	32.48
828.654	32.26
828.827	32.4
829.001	32.34
829.175	32.02
829.349	32.49
829.522	32.78
829.696	33.63
829.87	33.9
830.044	33.93
830.217	34.05
830.391	33.72
830.565	33.86
830.738	33.86
830.912	34.77
831.085	35.04
831.259	36.03
831.432	36.34
831.606	34.71
831.779	34.36
831.953	33.56
832.126	34.01
832.3	33.77
832.473	34.35
832.647	33.6
832.82	32.22
832.994	32.12
833.167	32.16
833.34	32.13
833.514	32.36
833.687	31.46
833.86	31.9
834.034	31.59
834.207	31.96
834.38	32.08
834.553	32.79
834.727	32.6
834.9	32.83
835.073	32.23
835.246	31.82
835.419	32.4
835.593	32.87
835.766	32.73
835.939	32.83
836.112	32.88
836.285	32.95
836.458	31.88
836.631	32.58
836.804	32.37
836.977	31.57
837.15	32.54
837.323	32.61
837.496	32.67
837.669	31.94
837.842	31.28
838.015	30.49
838.188	29.94
838.361	29.09
838.533	29.43
838.706	29.63
838.879	31.68
839.052	31.18
839.225	29.51
839.398	29.14
839.57	30.22
839.743	30.87
839.916	31.88
840.088	32.36
840.261	33.88
840.434	33.26
840.607	33.53
840.779	32.43
840.952	32.92
841.124	33.84
841.297	34.74
841.47	33.53
841.642	32.72
841.815	30.56
841.987	27.89
842.16	27.89
842.332	28.91
842.505	27.09
842.677	26.68
842.85	27.11
843.022	27
843.194	28.47
843.367	28.14
843.539	26.43
843.712	27.24
843.884	28.5
844.056	29.54
844.229	29.3
844.401	30.66
844.573	32.09
844.745	33.28
844.918	31.69
845.09	30.52
845.262	29.67
845.434	32.12
845.606	33.68
845.779	33.94
845.951	31.7
846.123	32.7
846.295	30.64
846.467	30.25
846.639	25.01
846.811	26.25
846.983	26.46
847.155	27.64
847.327	25.8
847.499	22.52
847.671	24.86
847.843	26.51
848.015	24.32
848.187	26.23
848.359	26.34
848.531	29.57
848.703	30.87
848.875	29.86
849.047	32.81
849.218	34.7
849.39	36.38
849.562	36.37
849.734	36.21
849.905	36.1
850.077	34.87
850.249	36.72
850.421	36.36
850.592	35.35
850.764	32.35
850.936	31.89
851.107	31.64
851.279	33.61
851.451	34.13
851.622	33.14
851.794	33.95
851.965	35.05
852.137	35.58
852.308	37.07
852.48	36.27
852.651	40.95
852.823	40.08
852.994	41.94
853.166	38.76
853.337	36.97
853.509	37.46
853.68	39.46
853.851	37.08
854.023	34.05
854.194	29.49
854.365	30.52
854.537	29.51
854.708	27.44
854.879	22.55
855.05	22.37
855.222	21.61
855.393	23.14
855.564	22.33
855.735	24.8
855.906	24.62
856.078	29.05
856.249	25.51
856.42	26.22
856.591	27.36
856.762	34.35
856.933	40.01
857.104	37.16
857.275	37.19
857.446	38.8
857.617	41.65
857.788	42.13
857.959	38.7
858.13	41.62
858.301	41.95
858.472	40.95
858.643	37.32
858.814	31.13
858.985	35.37
859.155	36.03
859.326	32.86
859.497	28.22
859.668	29.59
859.839	32.69
860.009	28.88
860.18	25.92
860.351	27.17
860.522	27.03
860.692	28.53
860.863	25.1
861.034	31.1
861.204	30.3
861.375	37.72
861.546	36.61
861.716	35.69
861.887	39.74
862.057	41.32
862.228	41.67
862.398	42.31
862.569	45.53
862.739	44.32
862.91	36.21
863.08	36.13
863.251	33.7
863.421	30.82
863.592	30.76
863.762	31.62
863.932	30.59
864.103	33.59
864.273	32.18
864.443	31.68
864.614	30.72
864.784	29.48
864.954	29.08
865.125	28.21
865.295	28.05
865.465	26.16
865.635	22.81
865.805	24.01
865.976	24.68
866.146	26.05
866.316	20.3
866.486	25.04
866.656	26.52
866.826	26.55
866.996	24.85
867.166	27.02
867.336	24.72
867.506	25.02
867.676	23.48
867.846	22.79
868.016	24.84
868.186	29.56
868.356	27.9
868.526	31.69
868.696	34.31
868.866	32.98
869.036	31.47
869.206	33.75
869.376	34.47
869.545	39.46
869.715	33.66
869.885	34.67
870.055	30.21
870.224	29.81
870.394	21.69
870.564	17
870.734	19.41
870.903	20.08
871.073	23.62
871.243	23.08
871.412	15.69
871.582	20.73
871.751	19.5
871.921	21.44
872.091	24.48
872.26	29.74
872.43	31.22
872.599	32.78
872.769	32.76
872.938	28.5
873.108	30.97
873.277	30.04
873.446	29.04
873.616	27.23
873.785	27.37
873.955	23.06
874.124	22.56
874.293	26.65
874.463	25.48
874.632	30.61
874.801	35.56
874.971	36.06
875.14	39.2
875.309	38.44
875.478	39.58
875.647	38.14
875.817	40.58
875.986	36.68
876.155	34.68
876.324	34.35
876.493	31.93
876.662	30.26
876.831	26.39
877	25.71
877.17	24.37
877.339	23.96
877.508	25.09
877.677	24.25
877.846	30.36
878.015	29.79
878.184	30.7
878.352	29.3
878.521	32.33
878.69	32.38
878.859	32.93
879.028	36.27
879.197	34.43
879.366	35.04
879.534	29.83
879.703	28.35
879.872	29.85
880.041	28.67
880.21	27.11
880.378	25.33
880.547	26.2
880.716	26.03
880.884	25.45
881.053	26.41
881.222	26.35
881.39	27.95
881.559	27.87
881.727	27.6
881.896	27.86
882.065	28.27
882.233	28.81
882.402	28.51
882.57	28.84
882.739	28.26
882.907	28.67
883.076	28.95
883.244	29.06
883.412	28.93
883.581	29.29
883.749	29.5
883.918	29.89
884.086	29.47
884.254	29.91
884.423	30.35
884.591	31.53
884.759	30.51
884.927	30.28
885.096	30.68
885.264	31.05
885.432	30.02
885.6	28.56
885.769	27.84
885.937	28.22
886.105	28.87
886.273	26.29
886.441	27.95
886.609	30.51
886.777	29.72
886.945	30.63
887.113	31.67
887.281	32.91
887.449	35.63
887.617	36.27
887.785	35.97
887.953	37.06
888.121	40.27
888.289	37.88
888.457	37.48
888.625	42.81
888.793	39.98
888.961	36.71
889.129	35.87
889.296	32.1
889.464	32.19
889.632	33.54
889.8	29.55
889.967	28.41
890.135	28.53
