Data from 2938761__Reflection_01.txt Node
Date: Fri Mar 13 17:06:22 EDT 2015
User: robert
Spectrometer: USB4E03002
Autoset integration time: false
Trigger mode: 4
Integration Time (sec): 1.000000E-1
Scans to average: 10
Electric dark correction enabled: false
Nonlinearity correction enabled: false
Boxcar width: 5
Stray light correction enabled: false
XAxis mode: Wavelengths
Stop averaging: false
Number of Pixels in Spectrum: 3648
>>>>>Begin Spectral Data<<<<<
177.575	-1189.58
177.794	-5453.85
178.014	-962.82
178.233	-518.18
178.452	-397.25
178.672	-335.25
178.891	-210.28
179.11	-167.81
179.33	-217.52
179.549	-376.89
179.768	-269.05
179.987	-329.77
180.207	-247.99
180.426	-260.13
180.645	-1071.11
180.864	-4880.95
181.084	1170.79
181.303	1089.66
181.522	355.31
181.741	577.4
181.96	915.96
182.179	484.96
182.398	420.25
182.618	394.89
182.837	282.57
183.056	308.64
183.275	235.19
183.494	187.18
183.713	177.35
183.932	155.52
184.151	141.11
184.37	148.34
184.589	112.55
184.808	147.16
185.027	149.83
185.246	140.31
185.465	154.37
185.684	210.24
185.903	327.33
186.122	340.15
186.341	561.01
186.56	2551.06
186.779	1080.18
186.998	-609.47
187.216	-1530.3
187.435	838.89
187.654	-6733.33
187.873	-622.67
188.092	15666.67
188.311	859.8
188.53	331.33
188.748	341.5
188.967	307.91
189.186	303.59
189.405	201.63
189.623	229.34
189.842	297.32
190.061	501.96
190.28	321.56
190.498	388.36
190.717	343.8
190.936	488.11
191.154	428.38
191.373	376.99
191.592	306.06
191.81	319.75
192.029	576.67
192.248	771.79
192.466	249.86
192.685	224.3
192.904	276.4
193.122	275.38
193.341	333.64
193.559	718.56
193.778	1140
193.996	3340.74
194.215	-2451.22
194.433	3565.52
194.652	-1314.08
194.87	-515.76
195.089	-5326.32
195.307	2098.21
195.526	-6500
195.744	1318.81
195.963	672.25
196.181	502.75
196.399	459.83
196.618	402.24
196.836	407.76
197.055	348.52
197.273	296.31
197.491	333.95
197.71	255.7
197.928	229.11
198.146	226.75
198.365	204.82
198.583	217.24
198.801	174.93
199.019	189.69
199.238	190.98
199.456	170.83
199.674	181.01
199.892	188.5
200.111	200.3
200.329	204.72
200.547	254.56
200.765	348.11
200.983	402.74
201.202	431.61
201.42	395.5
201.638	276.54
201.856	395.59
202.074	281.06
202.292	372.78
202.51	286.88
202.728	316.85
202.946	233.85
203.165	211.06
203.383	183.47
203.601	173.93
203.819	225.21
204.037	267.59
204.255	273.41
204.473	335.56
204.691	214.32
204.909	196.05
205.127	194.7
205.345	182.98
205.562	204.17
205.78	211.05
205.998	261.37
206.216	357.79
206.434	298.56
206.652	236.72
206.87	392.92
207.088	326.97
207.306	1238.1
207.523	617.39
207.741	733.33
207.959	495.29
208.177	619.01
208.395	228.82
208.612	129.78
208.83	147.3
209.048	187.36
209.266	184.55
209.483	217.95
209.701	202.04
209.919	223.28
210.136	186.88
210.354	238.1
210.572	233.48
210.79	255.41
211.007	281.05
211.225	255.36
211.442	284.62
211.66	231.88
211.878	171.16
212.095	186.67
212.313	156.55
212.53	163.68
212.748	134.7
212.966	131.29
213.183	160.98
213.401	185.37
213.618	150.78
213.836	132.74
214.053	147.13
214.271	231.14
214.488	244.19
214.705	316.71
214.923	334.35
215.14	397.95
215.358	378.25
215.575	238.49
215.793	184.03
216.01	230.89
216.227	267.98
216.445	212.94
216.662	173.6
216.879	147.2
217.097	131.21
217.314	112.85
217.531	96.5
217.749	90.53
217.966	90.57
218.183	87.89
218.4	71.25
218.618	65.49
218.835	58.13
219.052	64.8
219.269	62.55
219.487	71.84
219.704	70.91
219.921	69.3
220.138	71.59
220.355	66.86
220.572	57.37
220.79	70.61
221.007	61.74
221.224	73.31
221.441	59.12
221.658	56.85
221.875	50.72
222.092	50.41
222.309	65.63
222.526	65.06
222.743	65.05
222.96	68.08
223.177	61.01
223.394	64.73
223.611	63.94
223.828	66.92
224.045	73.83
224.262	66.26
224.479	61.9
224.696	49.26
224.913	45.74
225.13	45.55
225.347	41.2
225.564	39.21
225.781	31.34
225.997	25.47
226.214	23.65
226.431	21.52
226.648	18.93
226.865	18.36
227.082	19.31
227.298	17.25
227.515	14.32
227.732	12.92
227.949	11.29
228.165	11.61
228.382	11.55
228.599	10.65
228.816	9.84
229.032	10.79
229.249	10.36
229.466	10.05
229.682	10.63
229.899	11.48
230.116	11.5
230.332	12.51
230.549	12.4
230.765	12.34
230.982	12.41
231.199	13.2
231.415	13.64
231.632	14.56
231.848	14.22
232.065	15.4
232.281	16.48
232.498	16.56
232.714	16.09
232.931	16.89
233.147	17.7
233.364	16.43
233.58	15.56
233.797	14.94
234.013	14.86
234.23	14.52
234.446	14.22
234.662	13.79
234.879	13.31
235.095	13.72
235.312	13.85
235.528	13.53
235.744	14.8
235.961	15.82
236.177	16.01
236.393	16.81
236.61	15.72
236.826	14.45
237.042	13.51
237.258	14.16
237.475	15.11
237.691	13.97
237.907	12.55
238.123	12.83
238.339	12.4
238.556	12.75
238.772	11.49
238.988	12
239.204	12.89
239.42	10.85
239.636	9.6
239.853	7.78
240.069	7.38
240.285	7.85
240.501	7.47
240.717	7.94
240.933	7.51
241.149	6.34
241.365	6.26
241.581	5.35
241.797	5.5
242.013	6.33
242.229	6.31
242.445	6.07
242.661	6.19
242.877	6.13
243.093	5.34
243.309	4.91
243.525	5.4
243.741	6.7
243.957	7.3
244.173	7.71
244.388	7.46
244.604	7.61
244.82	8.74
245.036	8.72
245.252	8.81
245.468	8.71
245.683	8.39
245.899	8
246.115	6.95
246.331	6.74
246.547	6.62
246.762	6.15
246.978	6.4
247.194	5.86
247.409	5.71
247.625	5.8
247.841	6.21
248.057	6.05
248.272	6.08
248.488	6.07
248.703	6.2
248.919	6.11
249.135	6.44
249.35	6.23
249.566	6.76
249.782	6.47
249.997	5.8
250.213	5.67
250.428	6.47
250.644	7.38
250.859	7.11
251.075	6.75
251.29	7.13
251.506	6.94
251.721	6.85
251.937	6.97
252.152	7.43
252.368	7.64
252.583	7.08
252.798	7.09
253.014	6.98
253.229	8.45
253.445	8.56
253.66	9.3
253.875	9.76
254.091	9.92
254.306	10.16
254.521	10.14
254.737	10.81
254.952	10.32
255.167	10.33
255.383	9.85
255.598	8.14
255.813	7.97
256.028	8.46
256.244	7.96
256.459	8.05
256.674	7.21
256.889	7.33
257.104	7.95
257.32	8.58
257.535	7.7
257.75	7.3
257.965	6.88
258.18	6.9
258.395	5.96
258.61	5.84
258.826	5.82
259.041	5.46
259.256	5.38
259.471	4.94
259.686	4.85
259.901	5.01
260.116	5.15
260.331	5.02
260.546	4.84
260.761	4.89
260.976	4.86
261.191	4.74
261.406	5.33
261.621	5.43
261.836	5.3
262.05	5.38
262.265	5.37
262.48	5.28
262.695	6.05
262.91	6.96
263.125	6.9
263.34	7.88
263.555	8
263.769	8.12
263.984	8.15
264.199	8.41
264.414	8.09
264.629	8.47
264.843	8.51
265.058	8.3
265.273	7.57
265.488	7.32
265.702	6.24
265.917	6.59
266.132	6.15
266.346	6.11
266.561	5.89
266.776	6.01
266.99	5.63
267.205	5.41
267.42	5.21
267.634	5.27
267.849	5.39
268.063	5.99
268.278	5.57
268.492	5.06
268.707	4.84
268.922	5.12
269.136	5.49
269.351	5.61
269.565	5.46
269.78	5.55
269.994	5.52
270.209	5.69
270.423	5.65
270.637	5.73
270.852	5.92
271.066	5.79
271.281	5.7
271.495	5.37
271.709	5.14
271.924	4.9
272.138	4.74
272.353	4.38
272.567	4.2
272.781	3.91
272.996	3.75
273.21	4.22
273.424	4.11
273.638	3.88
273.853	4.09
274.067	4.23
274.281	4.83
274.495	4.63
274.71	4.55
274.924	4.53
275.138	4.83
275.352	4.88
275.566	4.28
275.781	4.66
275.995	4.83
276.209	4.73
276.423	4.72
276.637	4.49
276.851	4.89
277.065	5.19
277.279	4.91
277.493	4.29
277.707	4.38
277.921	4.54
278.135	4.49
278.349	4.24
278.563	4.41
278.777	4.72
278.991	5.08
279.205	5.14
279.419	4.7
279.633	5.56
279.847	6.13
280.061	6.13
280.275	5.84
280.489	5.76
280.703	6.39
280.917	6.11
281.131	5.87
281.344	5.47
281.558	5.17
281.772	5.47
281.986	4.85
282.2	4.61
282.414	4.53
282.627	4.75
282.841	4.56
283.055	4.34
283.269	4.3
283.482	3.91
283.696	4.02
283.91	4.06
284.123	4.04
284.337	4.18
284.551	4.21
284.764	4.24
284.978	4.18
285.192	4.38
285.405	4.32
285.619	4.32
285.833	4.62
286.046	4.55
286.26	4.28
286.473	4.15
286.687	4.35
286.9	4.36
287.114	4.48
287.327	4.35
287.541	4.01
287.754	3.91
287.968	3.82
288.181	3.67
288.395	3.48
288.608	3.99
288.822	4.23
289.035	4.01
289.248	3.72
289.462	3.48
289.675	3.49
289.889	3.9
290.102	3.59
290.315	3.73
290.529	3.88
290.742	4.12
290.955	4.05
291.169	4.09
291.382	3.94
291.595	3.91
291.808	4.04
292.022	3.95
292.235	3.73
292.448	4.31
292.661	4.07
292.875	4.1
293.088	4.03
293.301	3.97
293.514	4.07
293.727	4.14
293.94	4.15
294.153	4.35
294.367	4.19
294.58	4.13
294.793	3.74
295.006	3.73
295.219	3.53
295.432	3.51
295.645	3.41
295.858	3.15
296.071	2.87
296.284	3.14
296.497	3.37
296.71	3.52
296.923	3.73
297.136	3.94
297.349	4.3
297.562	4.45
297.775	4.48
297.988	4.7
298.201	4.75
298.414	5.12
298.626	5.16
298.839	4.93
299.052	4.87
299.265	4.71
299.478	4.49
299.691	4.39
299.903	4.38
300.116	4.32
300.329	4.15
300.542	4.14
300.755	4.11
300.967	3.94
301.18	3.91
301.393	4.27
301.605	4.32
301.818	4.22
302.031	4.1
302.243	4.19
302.456	4.31
302.669	4.1
302.881	4.36
303.094	4.1
303.307	4.09
303.519	3.83
303.732	3.83
303.944	3.86
304.157	4.35
304.37	4.29
304.582	4.05
304.795	3.97
305.007	4.24
305.22	4.22
305.432	4.17
305.645	4.3
305.857	4.83
306.069	4.93
306.282	4.91
306.494	5.01
306.707	5.16
306.919	5.45
307.132	5.23
307.344	5.22
307.556	5.08
307.769	5.47
307.981	5.31
308.193	4.8
308.406	4.64
308.618	4.84
308.83	4.45
309.043	3.89
309.255	3.78
309.467	3.94
309.679	3.79
309.892	4.1
310.104	4.09
310.316	4.37
310.528	4.35
310.74	4.57
310.953	4.56
311.165	4.74
311.377	5.17
311.589	5
311.801	5.06
312.013	4.95
312.225	4.78
312.437	4.92
312.649	5.05
312.862	5.36
313.074	5.28
313.286	5.29
313.498	5.23
313.71	5.23
313.922	5.68
314.134	5.45
314.346	5.9
314.558	5.49
314.77	5.63
314.982	5.05
315.193	4.67
315.405	4.41
315.617	4.21
315.829	4.23
316.041	4.28
316.253	3.97
316.465	4.39
316.677	4.44
316.888	4.94
317.1	4.72
317.312	4.95
317.524	5.1
317.736	4.84
317.947	5.14
318.159	5.54
318.371	5.45
318.583	5.98
318.794	6.02
319.006	6.11
319.218	5.52
319.43	5.57
319.641	5.57
319.853	6.03
320.064	6.68
320.276	6.98
320.488	6.34
320.699	6.26
320.911	5.98
321.123	6.17
321.334	5.84
321.546	6.52
321.757	6.96
321.969	7.11
322.18	6.85
322.392	6.54
322.603	5.98
322.815	6.5
323.026	6.49
323.238	6.22
323.449	6.13
323.661	6.31
323.872	6.34
324.083	5.94
324.295	5.98
324.506	5.87
324.718	5.88
324.929	6.17
325.14	6.26
325.352	6.35
325.563	6.54
325.774	6.75
325.986	6.75
326.197	6.69
326.408	6.68
326.62	6.79
326.831	6.95
327.042	7.41
327.253	7.3
327.464	7.28
327.676	7.62
327.887	7.77
328.098	7.55
328.309	7.56
328.52	7.51
328.732	7.41
328.943	7.39
329.154	7.23
329.365	6.99
329.576	7.33
329.787	7.21
329.998	6.82
330.209	6.64
330.42	6.74
330.631	6.95
330.842	7.2
331.053	7.19
331.264	7.23
331.475	7.48
331.686	7.66
331.897	7.44
332.108	7.45
332.319	7.71
332.53	7.64
332.741	7.48
332.952	7.39
333.163	7.14
333.374	7.39
333.585	7.36
333.795	7.79
334.006	7.63
334.217	8.03
334.428	8.16
334.639	7.98
334.849	7.83
335.06	8.03
335.271	8.04
335.482	8.38
335.692	8.14
335.903	8.38
336.114	8.18
336.325	8.54
336.535	8.22
336.746	8.21
336.957	8.62
337.167	8.86
337.378	9.05
337.589	9.29
337.799	9.23
338.01	9.44
338.22	9.17
338.431	8.98
338.642	8.46
338.852	8.55
339.063	8.24
339.273	8.39
339.484	8.15
339.694	7.96
339.905	7.72
340.115	7.61
340.326	7.43
340.536	7.3
340.746	7.7
340.957	7.9
341.167	7.98
341.378	8.3
341.588	7.86
341.799	7.98
342.009	7.84
342.219	7.91
342.43	7.85
342.64	8.17
342.85	8.35
343.061	8.1
343.271	8.05
343.481	7.59
343.691	7.46
343.902	7.38
344.112	7.4
344.322	7.33
344.532	7.14
344.743	7.08
344.953	6.82
345.163	6.78
345.373	6.69
345.583	6.72
345.793	6.74
346.004	6.71
346.214	6.57
346.424	6.75
346.634	6.95
346.844	7.2
347.054	7.51
347.264	7.72
347.474	7.66
347.684	7.73
347.894	7.61
348.104	7.81
348.314	7.89
348.524	8.11
348.734	7.72
348.944	7.66
349.154	7.43
349.364	7.25
349.574	6.99
349.784	7.05
349.994	6.67
350.204	6.9
350.413	6.43
350.623	6.33
350.833	6
351.043	6.45
351.253	6.19
351.463	5.99
351.672	5.94
351.882	6.05
352.092	5.88
352.302	6.26
352.511	6.06
352.721	6.04
352.931	6.05
353.141	6.37
353.35	6.26
353.56	6.4
353.77	6.66
353.979	6.69
354.189	6.72
354.399	6.93
354.608	6.89
354.818	7.06
355.027	7.35
355.237	7.5
355.447	7.38
355.656	7.36
355.866	7.34
356.075	7.09
356.285	6.97
356.494	7.01
356.704	6.87
356.913	6.71
357.123	6.63
357.332	6.55
357.542	6.4
357.751	6.52
357.96	6.56
358.17	6.54
358.379	6.81
358.589	6.84
358.798	6.84
359.007	6.74
359.217	6.89
359.426	6.68
359.635	6.88
359.845	6.93
360.054	6.81
360.263	6.48
360.472	6.47
360.682	6.31
360.891	6.17
361.1	6.08
361.309	6.19
361.519	6.13
361.728	6.16
361.937	6.11
362.146	5.98
362.355	5.96
362.564	6.28
362.774	6.39
362.983	6.37
363.192	6.51
363.401	6.6
363.61	6.48
363.819	6.58
364.028	6.42
364.237	6.37
364.446	6.35
364.655	6.13
364.864	5.85
365.073	5.56
365.282	5.71
365.491	5.7
365.7	5.79
365.909	6.09
366.118	5.89
366.327	6.03
366.536	6.09
366.745	6.07
366.954	6.13
367.162	6.24
367.371	6.38
367.58	6.44
367.789	6.37
367.998	6.3
368.207	6.11
368.415	5.98
368.624	6.01
368.833	5.8
369.042	5.77
369.25	6.11
369.459	6.11
369.668	5.99
369.877	5.7
370.085	5.98
370.294	5.8
370.503	5.9
370.711	5.9
370.92	5.75
371.129	6.15
371.337	6.13
371.546	5.94
371.754	5.79
371.963	5.84
372.171	5.89
372.38	5.56
372.589	5.72
372.797	5.75
373.006	5.75
373.214	6.02
373.423	5.89
373.631	6.02
373.84	6.01
374.048	6.32
374.256	6.4
374.465	6.31
374.673	6.51
374.882	6.42
375.09	6.2
375.298	6.2
375.507	6.18
375.715	6.14
375.923	6.07
376.132	6.13
376.34	5.87
376.548	5.89
376.757	5.77
376.965	5.56
377.173	5.44
377.381	5.47
377.59	5.58
377.798	5.73
378.006	5.54
378.214	5.42
378.423	5.24
378.631	5.33
378.839	5.34
379.047	5.52
379.255	5.74
379.463	5.74
379.671	5.63
379.879	5.52
380.088	5.3
380.296	5.38
380.504	5.32
380.712	5.55
380.92	5.34
381.128	5.16
381.336	5.1
381.544	5.16
381.752	5.19
381.96	5.31
382.168	5.27
382.376	5.12
382.584	5.09
382.791	5.28
382.999	5.16
383.207	5.65
383.415	5.66
383.623	5.75
383.831	5.42
384.039	5.61
384.247	5.56
384.454	5.78
384.662	5.85
384.87	5.74
385.078	5.63
385.285	5.59
385.493	5.46
385.701	5.34
385.909	5.21
386.116	5.28
386.324	4.99
386.532	4.97
386.739	4.83
386.947	4.98
387.155	5.1
387.362	5.23
387.57	5.11
387.778	4.81
387.985	5.03
388.193	4.94
388.4	4.89
388.608	4.92
388.816	4.95
389.023	5.03
389.231	4.9
389.438	4.89
389.646	4.7
389.853	4.57
390.061	4.75
390.268	4.48
390.475	4.73
390.683	4.72
390.89	4.73
391.098	4.52
391.305	4.26
391.512	4.18
391.72	4.28
391.927	4.36
392.135	4.42
392.342	4.3
392.549	4.46
392.756	4.12
392.964	4.26
393.171	4.21
393.378	4.42
393.586	4.47
393.793	4.45
394	4.46
394.207	4.49
394.414	4.65
394.622	4.61
394.829	4.65
395.036	4.87
395.243	4.7
395.45	4.79
395.657	4.75
395.864	4.86
396.072	4.88
396.279	4.69
396.486	4.71
396.693	4.67
396.9	4.67
397.107	4.7
397.314	4.78
397.521	4.67
397.728	4.73
397.935	4.82
398.142	4.88
398.349	4.91
398.556	4.78
398.763	4.78
398.97	4.69
399.177	4.84
399.383	4.64
399.59	4.57
399.797	4.66
400.004	4.65
400.211	4.36
400.418	4.36
400.625	4.26
400.831	4.42
401.038	4.27
401.245	4.38
401.452	4.26
401.658	4.41
401.865	4.38
402.072	4.49
402.279	4.33
402.485	4.41
402.692	4.38
402.899	4.46
403.105	4.34
403.312	4.36
403.519	4.36
403.725	4.28
403.932	4.26
404.138	4.19
404.345	4.08
404.552	4.11
404.758	4.21
404.965	4.08
405.171	3.9
405.378	3.98
405.584	4.1
405.791	4.02
405.997	4.16
406.204	3.97
406.41	3.96
406.617	4.07
406.823	4.19
407.029	4.09
407.236	4.12
407.442	4.16
407.649	4.24
407.855	4.04
408.061	4.07
408.268	4.01
408.474	4.13
408.68	4.06
408.887	4.01
409.093	3.89
409.299	3.99
409.505	4.03
409.712	4.3
409.918	4.22
410.124	4.35
410.33	4.17
410.537	4.06
410.743	4.09
410.949	4.2
411.155	4.17
411.361	4.22
411.567	3.95
411.773	4.13
411.98	4
412.186	3.97
412.392	3.85
412.598	3.96
412.804	4.06
413.01	4.09
413.216	4.08
413.422	4.04
413.628	4.03
413.834	4.28
414.04	4.06
414.246	3.91
414.452	3.97
414.658	3.89
414.864	3.79
415.07	3.85
415.275	3.9
415.481	3.97
415.687	3.95
415.893	3.84
416.099	3.76
416.305	3.64
416.511	3.72
416.716	3.53
416.922	3.66
417.128	3.76
417.334	3.67
417.539	3.53
417.745	3.54
417.951	3.54
418.157	3.54
418.362	3.51
418.568	3.68
418.774	3.66
418.979	3.66
419.185	3.6
419.391	3.48
419.596	3.42
419.802	3.46
420.008	3.38
420.213	3.33
420.419	3.3
420.624	3.24
420.83	3.18
421.035	3.14
421.241	3.14
421.446	3.13
421.652	3.25
421.857	3.26
422.063	3.26
422.268	3.27
422.474	3.3
422.679	3.31
422.885	3.24
423.09	3.21
423.295	3.15
423.501	3.11
423.706	3.15
423.911	3.09
424.117	3.1
424.322	3.08
424.527	3.07
424.733	2.98
424.938	3.01
425.143	3.12
425.349	3.17
425.554	3.22
425.759	3.25
425.964	3.23
426.169	3.33
426.375	3.3
426.58	3.25
426.785	3.29
426.99	3.47
427.195	3.45
427.4	3.54
427.605	3.5
427.811	3.48
428.016	3.6
428.221	3.54
428.426	3.4
428.631	3.44
428.836	3.49
429.041	3.53
429.246	3.5
429.451	3.55
429.656	3.43
429.861	3.42
430.066	3.61
430.271	3.48
430.476	3.53
430.681	3.48
430.886	3.41
431.09	3.43
431.295	3.31
431.5	3.24
431.705	3.21
431.91	3.23
432.115	3.19
432.32	3.05
432.524	3.07
432.729	3.05
432.934	3.19
433.139	3.26
433.343	3.06
433.548	3.13
433.753	3.08
433.958	3.12
434.162	3.14
434.367	3.2
434.572	3.19
434.776	3.33
434.981	3.42
435.186	3.41
435.39	3.46
435.595	3.62
435.799	3.49
436.004	3.57
436.209	3.53
436.413	3.5
436.618	3.42
436.822	3.49
437.027	3.5
437.231	3.46
437.436	3.45
437.64	3.38
437.845	3.39
438.049	3.44
438.253	3.4
438.458	3.38
438.662	3.38
438.867	3.42
439.071	3.38
439.275	3.22
439.48	3.17
439.684	3.18
439.888	3.21
440.093	3.21
440.297	3.21
440.501	3.26
440.706	3.22
440.91	3.2
441.114	3.21
441.318	3.22
441.523	3.3
441.727	3.34
441.931	3.32
442.135	3.31
442.339	3.26
442.543	3.21
442.748	3.18
442.952	3.28
443.156	3.33
443.36	3.37
443.564	3.4
443.768	3.36
443.972	3.46
444.176	3.47
444.38	3.46
444.584	3.51
444.788	3.45
444.992	3.46
445.196	3.33
445.4	3.29
445.604	3.25
445.808	3.2
446.012	3.21
446.216	3.06
446.42	3.04
446.624	3.04
446.828	2.97
447.032	3.06
447.235	3.02
447.439	3.07
447.643	3.08
447.847	3.08
448.051	3.23
448.254	3.25
448.458	3.28
448.662	3.29
448.866	3.24
449.069	3.32
449.273	3.31
449.477	3.35
449.681	3.47
449.884	3.5
450.088	3.44
450.292	3.34
450.495	3.29
450.699	3.36
450.902	3.36
451.106	3.47
451.31	3.47
451.513	3.49
451.717	3.49
451.92	3.37
452.124	3.34
452.327	3.36
452.531	3.3
452.734	3.25
452.938	3.26
453.141	3.24
453.345	3.24
453.548	3.2
453.752	3.17
453.955	3.15
454.158	3.17
454.362	3.1
454.565	3.14
454.769	3.21
454.972	3.29
455.175	3.29
455.379	3.3
455.582	3.28
455.785	3.33
455.988	3.43
456.192	3.35
456.395	3.37
456.598	3.43
456.801	3.44
457.005	3.51
457.208	3.59
457.411	3.59
457.614	3.51
457.817	3.43
458.021	3.36
458.224	3.25
458.427	3.27
458.63	3.23
458.833	3.24
459.036	3.23
459.239	3.16
459.442	2.98
459.645	2.95
459.848	2.97
460.051	2.98
460.254	3.01
460.457	3.05
460.66	3.12
460.863	3.22
461.066	3.19
461.269	3.2
461.472	3.21
461.675	3.35
461.878	3.41
462.081	3.45
462.284	3.54
462.486	3.51
462.689	3.62
462.892	3.6
463.095	3.61
463.298	3.68
463.5	3.62
463.703	3.64
463.906	3.62
464.109	3.48
464.311	3.52
464.514	3.48
464.717	3.5
464.92	3.35
465.122	3.36
465.325	3.37
465.528	3.33
465.73	3.32
465.933	3.28
466.135	3.24
466.338	3.3
466.541	3.27
466.743	3.36
466.946	3.51
467.148	3.54
467.351	3.52
467.553	3.33
467.756	3.37
467.958	3.39
468.161	3.39
468.363	3.45
468.566	3.41
468.768	3.44
468.971	3.38
469.173	3.35
469.375	3.28
469.578	3.28
469.78	3.4
469.983	3.29
470.185	3.4
470.387	3.37
470.59	3.28
470.792	3.29
470.994	3.33
471.196	3.26
471.399	3.3
471.601	3.36
471.803	3.3
472.005	3.31
472.208	3.36
472.41	3.35
472.612	3.41
472.814	3.49
473.016	3.43
473.218	3.27
473.421	3.23
473.623	3.15
473.825	3.2
474.027	3.2
474.229	3.16
474.431	3.14
474.633	3.12
474.835	3.09
475.037	3.05
475.239	3.15
475.441	3.22
475.643	3.32
475.845	3.24
476.047	3.18
476.249	3.24
476.451	3.23
476.653	3.26
476.855	3.26
477.057	3.39
477.258	3.42
477.46	3.42
477.662	3.48
477.864	3.42
478.066	3.46
478.268	3.48
478.469	3.45
478.671	3.44
478.873	3.37
479.075	3.32
479.276	3.16
479.478	3.09
479.68	3.17
479.882	3.14
480.083	3.14
480.285	3.1
480.487	3.14
480.688	3.16
480.89	3.16
481.091	3.22
481.293	3.24
481.495	3.22
481.696	3.24
481.898	3.15
482.099	3.09
482.301	3.08
482.502	2.99
482.704	2.94
482.905	2.88
483.107	2.84
483.308	2.84
483.51	2.81
483.711	2.82
483.913	2.82
484.114	2.79
484.315	2.79
484.517	2.78
484.718	2.81
484.92	2.82
485.121	2.85
485.322	2.88
485.524	2.89
485.725	2.94
485.926	2.94
486.127	2.95
486.329	3.01
486.53	3
486.731	2.99
486.932	3
487.134	2.95
487.335	2.95
487.536	2.92
487.737	2.91
487.938	2.88
488.139	2.9
488.341	2.91
488.542	2.88
488.743	2.89
488.944	2.92
489.145	2.9
489.346	2.93
489.547	2.92
489.748	2.97
489.949	2.98
490.15	3.01
490.351	3
490.552	2.96
490.753	2.96
490.954	2.95
491.155	2.95
491.356	2.98
491.557	2.99
491.758	2.98
491.959	2.97
492.159	2.95
492.36	2.91
492.561	2.93
492.762	2.97
492.963	2.95
493.164	2.99
493.364	3
493.565	2.95
493.766	3.02
493.967	3.09
494.167	3.14
494.368	3.17
494.569	3.21
494.769	3.21
494.97	3.21
495.171	3.27
495.371	3.33
495.572	3.35
495.773	3.49
495.973	3.53
496.174	3.55
496.375	3.44
496.575	3.46
496.776	3.47
496.976	3.47
497.177	3.5
497.377	3.51
497.578	3.5
497.778	3.48
497.979	3.41
498.179	3.37
498.38	3.38
498.58	3.47
498.78	3.48
498.981	3.51
499.181	3.52
499.382	3.54
499.582	3.56
499.782	3.57
499.983	3.56
500.183	3.6
500.383	3.64
500.584	3.54
500.784	3.56
500.984	3.53
501.184	3.55
501.385	3.55
501.585	3.45
501.785	3.43
501.985	3.41
502.185	3.49
502.386	3.59
502.586	3.64
502.786	3.77
502.986	3.77
503.186	3.89
503.386	3.83
503.586	3.85
503.786	3.91
503.987	3.95
504.187	4.06
504.387	4.08
504.587	4.06
504.787	3.96
504.987	3.96
505.187	3.96
505.387	3.91
505.587	4
505.786	4.06
505.986	4.14
506.186	4.17
506.386	4.07
506.586	4.14
506.786	4.04
506.986	4.09
507.186	4.05
507.386	4.09
507.585	4.12
507.785	4.14
507.985	4.1
508.185	4.11
508.384	4.17
508.584	4.25
508.784	4.24
508.984	4.34
509.183	4.4
509.383	4.43
509.583	4.46
509.782	4.41
509.982	4.41
510.182	4.49
510.381	4.48
510.581	4.42
510.781	4.44
510.98	4.45
511.18	4.45
511.379	4.39
511.579	4.46
511.778	4.52
511.978	4.61
512.177	4.65
512.377	4.73
512.576	4.73
512.776	4.77
512.975	4.74
513.175	4.79
513.374	4.85
513.573	4.99
513.773	4.97
513.972	4.91
514.172	4.91
514.371	4.99
514.57	4.97
514.77	4.96
514.969	4.99
515.168	5.04
515.367	5.05
515.567	5.07
515.766	5.11
515.965	5.13
516.164	5.12
516.364	5.15
516.563	5.1
516.762	5.04
516.961	5.02
517.16	5.03
517.359	5.04
517.559	5.02
517.758	5.02
517.957	4.97
518.156	5.03
518.355	5.12
518.554	5.19
518.753	5.25
518.952	5.3
519.151	5.43
519.35	5.46
519.549	5.51
519.748	5.53
519.947	5.54
520.146	5.65
520.345	5.65
520.544	5.7
520.743	5.68
520.942	5.71
521.141	5.77
521.339	5.84
521.538	5.96
521.737	6.01
521.936	6.2
522.135	6.19
522.333	6.22
522.532	6.19
522.731	6.24
522.93	6.23
523.129	6.23
523.327	6.25
523.526	6.19
523.725	6.19
523.923	6.24
524.122	6.19
524.321	6.25
524.519	6.24
524.718	6.29
524.917	6.3
525.115	6.33
525.314	6.38
525.512	6.38
525.711	6.41
525.909	6.44
526.108	6.42
526.306	6.38
526.505	6.45
526.703	6.43
526.902	6.4
527.1	6.38
527.299	6.37
527.497	6.35
527.696	6.37
527.894	6.37
528.092	6.38
528.291	6.38
528.489	6.41
528.688	6.37
528.886	6.4
529.084	6.48
529.283	6.52
529.481	6.57
529.679	6.61
529.877	6.65
530.076	6.7
530.274	6.73
530.472	6.79
530.67	6.84
530.869	6.92
531.067	7
531.265	7
531.463	7.01
531.661	7.03
531.859	7.09
532.057	7.14
532.255	7.16
532.454	7.16
532.652	7.18
532.85	7.24
533.048	7.32
533.246	7.32
533.444	7.36
533.642	7.39
533.84	7.44
534.038	7.44
534.236	7.43
534.434	7.47
534.632	7.57
534.83	7.62
535.027	7.65
535.225	7.61
535.423	7.71
535.621	7.76
535.819	7.84
536.017	7.92
536.215	7.96
536.412	8.09
536.61	8.14
536.808	8.17
537.006	8.27
537.203	8.32
537.401	8.45
537.599	8.52
537.797	8.62
537.994	8.71
538.192	8.82
538.39	8.91
538.587	8.96
538.785	9.07
538.983	9.17
539.18	9.28
539.378	9.36
539.575	9.41
539.773	9.46
539.97	9.53
540.168	9.57
540.366	9.61
540.563	9.7
540.761	9.73
540.958	9.78
541.155	9.85
541.353	9.84
541.55	9.87
541.748	9.92
541.945	9.96
542.143	10.03
542.34	10.12
542.537	10.19
542.735	10.28
542.932	10.42
543.129	10.56
543.327	10.68
543.524	10.93
543.721	11.16
543.919	11.39
544.116	11.7
544.313	11.94
544.51	12.25
544.708	12.53
544.905	12.81
545.102	13.08
545.299	13.32
545.496	13.47
545.693	13.61
545.891	13.65
546.088	13.62
546.285	13.57
546.482	13.5
546.679	13.36
546.876	13.26
547.073	13.13
547.27	12.92
547.467	12.72
547.664	12.65
547.861	12.51
548.058	12.5
548.255	12.44
548.452	12.43
548.649	12.41
548.846	12.42
549.043	12.36
549.24	12.34
549.437	12.34
549.633	12.39
549.83	12.27
550.027	12.14
550.224	12.06
550.421	12.17
550.618	12.14
550.814	12.13
551.011	12.03
551.208	12.06
551.405	12
551.601	11.98
551.798	11.97
551.995	12.04
552.191	12.12
552.388	12.13
552.585	11.97
552.781	11.84
552.978	11.9
553.175	11.95
553.371	11.96
553.568	12.04
553.764	12.07
553.961	12.05
554.157	12.08
554.354	12.06
554.55	12.05
554.747	12.18
554.943	12.21
555.14	12.26
555.336	12.2
555.533	12.15
555.729	12.23
555.926	12.24
556.122	12.28
556.318	12.4
556.515	12.43
556.711	12.4
556.907	12.44
557.104	12.57
557.3	12.44
557.496	12.5
557.693	12.71
557.889	12.66
558.085	12.77
558.281	12.74
558.478	12.62
558.674	12.64
558.87	12.71
559.066	12.65
559.262	12.64
559.459	12.7
559.655	12.82
559.851	12.71
560.047	12.76
560.243	12.78
560.439	12.82
560.635	12.9
560.831	12.89
561.027	12.95
561.223	13.07
561.419	13.14
561.615	13.21
561.811	13.29
562.007	13.31
562.203	13.4
562.399	13.44
562.595	13.53
562.791	13.63
562.987	13.77
563.183	13.75
563.379	13.78
563.575	13.69
563.771	13.72
563.966	13.65
564.162	13.66
564.358	13.52
564.554	13.55
564.75	13.53
564.945	13.46
565.141	13.41
565.337	13.41
565.533	13.44
565.728	13.56
565.924	13.48
566.12	13.55
566.315	13.67
566.511	13.76
566.707	13.72
566.902	13.71
567.098	13.77
567.293	13.72
567.489	13.88
567.684	13.97
567.88	13.96
568.076	14.09
568.271	14.13
568.467	14.15
568.662	14.23
568.858	14.27
569.053	14.37
569.248	14.29
569.444	14.45
569.639	14.42
569.835	14.32
570.03	14.36
570.225	14.24
570.421	14.19
570.616	14.26
570.812	14.26
571.007	14.33
571.202	14.43
571.397	14.56
571.593	14.55
571.788	14.57
571.983	14.69
572.178	14.74
572.374	14.89
572.569	14.85
572.764	14.79
572.959	14.81
573.154	14.93
573.35	14.88
573.545	14.83
573.74	14.9
573.935	14.9
574.13	14.87
574.325	14.88
574.52	14.89
574.715	15.16
574.91	15.34
575.105	15.53
575.3	15.51
575.495	15.61
575.69	15.75
575.885	15.84
576.08	16
576.275	16.19
576.47	16.5
576.665	16.72
576.86	16.88
577.055	17.06
577.25	17.17
577.444	17.45
577.639	17.65
577.834	17.93
578.029	18.16
578.224	18.39
578.418	18.53
578.613	18.49
578.808	18.58
579.003	18.64
579.197	18.71
579.392	18.84
579.587	18.93
579.781	19
579.976	19
580.171	18.92
580.365	18.88
580.56	18.91
580.755	18.93
580.949	19.07
581.144	19.01
581.338	19.01
581.533	18.98
581.727	19
581.922	19.15
582.116	19.1
582.311	19.31
582.505	19.49
582.7	19.46
582.894	19.63
583.089	19.64
583.283	19.73
583.478	19.8
583.672	19.82
583.866	19.77
584.061	19.68
584.255	19.76
584.449	19.83
584.644	19.8
584.838	19.97
585.032	20.08
585.226	20.28
585.421	20.38
585.615	20.42
585.809	20.57
586.003	20.77
586.198	20.84
586.392	20.93
586.586	20.93
586.78	20.92
586.974	21.04
587.168	20.88
587.363	20.67
587.557	20.45
587.751	20.42
587.945	20.19
588.139	20.08
588.333	19.9
588.527	19.72
588.721	19.53
588.915	19.41
589.109	19.15
589.303	19.1
589.497	19.07
589.691	19.1
589.885	19
590.079	19.07
590.273	18.96
590.466	19.13
590.66	19.3
590.854	19.47
591.048	19.64
591.242	19.83
591.436	20.07
591.629	20.19
591.823	20.3
592.017	20.51
592.211	20.61
592.404	20.73
592.598	20.82
592.792	20.95
592.986	20.92
593.179	20.88
593.373	20.77
593.567	20.54
593.76	20.4
593.954	20.27
594.147	19.96
594.341	19.81
594.535	19.72
594.728	19.42
594.922	19.14
595.115	19.05
595.309	18.82
595.502	18.65
595.696	18.56
595.889	18.48
596.083	18.41
596.276	18.44
596.47	18.44
596.663	18.38
596.856	18.5
597.05	18.61
597.243	18.65
597.437	18.67
597.63	18.88
597.823	18.98
598.017	19.2
598.21	19.55
598.403	19.72
598.596	19.86
598.79	20.12
598.983	20.13
599.176	20.2
599.369	20.31
599.563	20.6
599.756	20.52
599.949	20.67
600.142	20.69
600.335	20.45
600.528	20.43
600.722	20.38
600.915	20.13
601.108	20.2
601.301	20.02
601.494	19.86
601.687	19.76
601.88	19.81
602.073	19.65
602.266	19.5
602.459	19.39
602.652	19.26
602.845	19.05
603.038	18.96
603.231	18.8
603.424	18.76
603.617	18.78
603.809	18.6
604.002	18.43
604.195	18.49
604.388	18.42
604.581	18.47
604.774	18.43
604.966	18.5
605.159	18.51
605.352	18.71
605.545	18.82
605.737	18.66
605.93	18.81
606.123	19.09
606.316	19.17
606.508	19.43
606.701	19.7
606.894	20.07
607.086	20.39
607.279	20.71
607.471	20.84
607.664	21.2
607.857	21.87
608.049	22.44
608.242	23.08
608.434	23.97
608.627	25.07
608.819	26.29
609.012	27.77
609.204	29.39
609.397	31.16
609.589	33.25
609.782	35.36
609.974	37.57
610.166	39.81
610.359	41.93
610.551	43.76
610.743	45.44
610.936	46.9
611.128	47.94
611.32	48.71
611.513	49.31
611.705	49.26
611.897	49.07
612.09	48.5
612.282	47.8
612.474	46.89
612.666	45.95
612.858	44.7
613.051	43.56
613.243	42.65
613.435	41.72
613.627	40.87
613.819	40.18
614.011	39.29
614.203	38.33
614.395	37.39
614.588	36.46
614.78	35.6
614.972	35.03
615.164	34.22
615.356	33.13
615.548	32.45
615.74	31.54
615.932	30.55
616.124	29.68
616.315	29.03
616.507	28.31
616.699	27.7
616.891	27.07
617.083	26.36
617.275	25.86
617.467	25.42
617.659	24.75
617.85	24.59
618.042	24.31
618.234	24.24
618.426	24.18
618.618	24.2
618.809	24.19
619.001	23.97
619.193	23.9
619.384	23.82
619.576	23.85
619.768	23.89
619.959	23.7
620.151	23.77
620.343	23.6
620.534	23.57
620.726	23.52
620.917	23.5
621.109	23.66
621.301	23.82
621.492	23.89
621.684	24.04
621.875	24.31
622.067	24.35
622.258	24.43
622.45	24.59
622.641	24.62
622.832	24.64
623.024	24.55
623.215	24.62
623.407	24.51
623.598	24.61
623.789	24.7
623.981	24.56
624.172	24.52
624.363	24.47
624.555	24.42
624.746	24.3
624.937	24.09
625.129	24.1
625.32	24.03
625.511	24.06
625.702	23.78
625.893	23.65
626.085	23.41
626.276	23.37
626.467	23.21
626.658	23.19
626.849	23.15
627.04	23.2
627.231	23.15
627.422	23.14
627.614	23.17
627.805	23.35
627.996	23.45
628.187	23.72
628.378	23.89
628.569	24.26
628.76	24.4
628.951	24.74
629.142	25.04
629.332	25.27
629.523	25.54
629.714	25.89
629.905	26.18
630.096	26.25
630.287	26.62
630.478	26.79
630.669	26.72
630.859	26.78
631.05	26.73
631.241	26.53
631.432	26.31
631.623	26.02
631.813	25.7
632.004	25.3
632.195	25.03
632.385	24.44
632.576	23.98
632.767	23.56
632.957	23.17
633.148	22.67
633.339	22.44
633.529	22.2
633.72	21.95
633.91	21.78
634.101	21.58
634.292	21.56
634.482	21.44
634.673	21.47
634.863	21.59
635.054	21.49
635.244	21.43
635.435	21.44
635.625	21.5
635.815	21.64
636.006	21.32
636.196	21.33
636.387	21.32
636.577	21.61
636.767	21.64
636.958	21.66
637.148	21.99
637.338	22.24
637.529	22.05
637.719	22.02
637.909	22.02
638.099	22.27
638.29	22.13
638.48	22.14
638.67	21.88
638.86	21.77
639.05	21.74
639.241	21.61
639.431	21.66
639.621	21.67
639.811	21.86
640.001	22.01
640.191	22.1
640.381	22.45
640.571	22.48
640.761	22.45
640.951	22.68
641.141	22.66
641.331	22.44
641.521	22.41
641.711	22.63
641.901	22.59
642.091	22.46
642.281	22.4
642.471	22.38
642.661	22.36
642.851	22.34
643.041	22.16
643.231	22.14
643.42	22.34
643.61	22.34
643.8	22.36
643.99	22.55
644.18	22.51
644.369	22.53
644.559	22.6
644.749	22.52
644.939	22.38
645.128	22.38
645.318	22.34
645.508	22.39
645.697	22.4
645.887	22.35
646.076	22.02
646.266	22.07
646.456	22.05
646.645	21.93
646.835	22.13
647.024	22.39
647.214	22.3
647.403	22.33
647.593	22.58
647.782	22.63
647.972	22.7
648.161	22.8
648.351	22.96
648.54	23.02
648.73	23.03
648.919	23.02
649.108	23.13
649.298	23.48
649.487	23.55
649.677	23.45
649.866	23.51
650.055	23.66
650.244	23.79
650.434	23.79
650.623	23.82
650.812	23.94
651.002	23.78
651.191	23.79
651.38	23.6
651.569	23.59
651.758	23.55
651.947	23.58
652.137	23.63
652.326	23.7
652.515	23.71
652.704	23.6
652.893	23.47
653.082	23.67
653.271	23.83
653.46	23.72
653.649	23.92
653.838	24.04
654.027	23.87
654.216	23.72
654.405	23.68
654.594	23.59
654.783	23.62
654.972	23.66
655.161	23.56
655.35	23.18
655.539	23.29
655.728	23.15
655.916	23.05
656.105	23.29
656.294	23.2
656.483	22.99
656.672	23.03
656.86	23.06
657.049	23.08
657.238	22.95
657.427	22.88
657.615	22.72
657.804	22.67
657.993	22.27
658.181	21.97
658.37	21.93
658.559	21.85
658.747	21.72
658.936	21.52
659.125	21.66
659.313	21.62
659.502	21.72
659.69	21.74
659.879	21.62
660.067	21.8
660.256	21.91
660.444	21.95
660.633	22.18
660.821	22.25
661.01	22.52
661.198	22.46
661.387	22.56
661.575	22.75
661.763	22.98
661.952	23.08
662.14	23.16
662.328	23.48
662.517	23.47
662.705	23.57
662.893	23.62
663.082	23.83
663.27	23.74
663.458	24
663.646	24.27
663.834	24.32
664.023	24.35
664.211	24.64
664.399	24.34
664.587	24.49
664.775	24.44
664.963	24.73
665.152	24.69
665.34	24.75
665.528	24.41
665.716	24.25
665.904	24.09
666.092	24.16
666.28	23.92
666.468	23.86
666.656	23.82
666.844	23.89
667.032	23.61
667.22	23.49
667.408	23.51
667.596	23.76
667.784	23.55
667.971	23.8
668.159	23.75
668.347	23.98
668.535	24.14
668.723	23.97
668.911	23.9
669.098	23.91
669.286	23.78
669.474	23.66
669.662	23.59
669.849	23.49
670.037	23.33
670.225	23.31
670.413	23.22
670.6	22.98
670.788	23.41
670.976	23.48
671.163	23.39
671.351	23.6
671.538	23.48
671.726	23.47
671.913	23.48
672.101	23.82
672.289	23.91
672.476	23.87
672.664	24.15
672.851	24.13
673.039	24.03
673.226	24.5
673.413	24.38
673.601	24.54
673.788	24.68
673.976	24.87
674.163	24.59
674.35	24.57
674.538	24.59
674.725	24.64
674.912	24.82
675.1	24.94
675.287	24.59
675.474	24.76
675.662	24.85
675.849	24.69
676.036	24.65
676.223	24.62
676.411	25.03
676.598	24.92
676.785	24.75
676.972	24.61
677.159	24.5
677.346	24.39
677.533	24.42
677.721	24.33
677.908	24.22
678.095	24.11
678.282	23.99
678.469	23.64
678.656	23.71
678.843	23.61
679.03	23.19
679.217	22.95
679.404	23.02
679.591	22.62
679.778	22.56
679.964	22.53
680.151	22.42
680.338	22.3
680.525	22.26
680.712	22.14
680.899	22.2
681.086	22.31
681.272	22.21
681.459	22.04
681.646	22.11
681.833	22.04
682.02	22.18
682.206	22.26
682.393	22.27
682.58	22.08
682.766	22.26
682.953	22.08
683.14	22.09
683.326	22.79
683.513	23.13
683.7	23.18
683.886	23.38
684.073	23.42
684.259	23.73
684.446	23.97
684.632	24.35
684.819	24.34
685.005	24.8
685.192	25.12
685.378	25.04
685.565	24.95
685.751	24.98
685.938	24.86
686.124	24.75
686.31	24.57
686.497	24.52
686.683	24.39
686.87	24.28
687.056	23.99
687.242	23.43
687.429	22.9
687.615	22.89
687.801	22.91
687.987	22.99
688.174	22.84
688.36	22.81
688.546	22.81
688.732	22.99
688.918	23.01
689.105	23.35
689.291	23.83
689.477	24.06
689.663	24.15
689.849	24.47
690.035	24.75
690.221	24.96
690.407	25.07
690.593	25.01
690.779	24.79
690.965	24.89
691.151	24.41
691.337	24.21
691.523	24.57
691.709	24.48
691.895	24.37
692.081	24.36
692.267	24.42
692.453	24.65
692.639	25.09
692.825	25.1
693.011	25.05
693.196	25.57
693.382	25.58
693.568	25.31
693.754	25.25
693.94	25.23
694.125	25.17
694.311	25.21
694.497	25.06
694.682	24.41
694.868	24.63
695.054	24.7
695.239	24.61
695.425	24.69
695.611	24.67
695.796	24.87
695.982	24.65
696.168	24.19
696.353	23.73
696.539	23.59
696.724	23.73
696.91	23.61
697.095	23.57
697.281	23.09
697.466	22.76
697.652	22.46
697.837	22
698.023	21.81
698.208	21.93
698.393	22
698.579	21.58
698.764	21.3
698.949	21.05
699.135	20.91
699.32	21.01
699.505	21.27
699.691	21.36
699.876	21.7
700.061	21.95
700.246	21.95
700.432	21.84
700.617	22.35
700.802	22.72
700.987	22.85
701.172	23.02
701.358	23.34
701.543	23.53
701.728	23.78
701.913	23.72
702.098	23.86
702.283	24.2
702.468	24.84
702.653	24.88
702.838	25.16
703.023	25.41
703.208	25.54
703.393	25.88
703.578	25.97
703.763	26.62
703.948	27.03
704.133	27.2
704.318	27.37
704.503	28
704.688	28.6
704.873	29.3
705.057	30.15
705.242	30.88
705.427	31.16
705.612	31.52
705.797	31.52
705.981	31.84
706.166	32.63
706.351	33.27
706.536	33.56
706.72	33.68
706.905	33.73
707.09	33.72
707.274	33.83
707.459	33.85
707.644	34.04
707.828	33.92
708.013	34.38
708.197	34.01
708.382	33.57
708.567	33.29
708.751	33.16
708.936	32.87
709.12	32.42
709.305	32.05
709.489	31.8
709.673	31.67
709.858	31.66
710.042	31.24
710.227	31.48
710.411	31.51
710.596	31.47
710.78	31.43
710.964	31.56
711.149	31.9
711.333	31.95
711.517	31.99
711.702	32.05
711.886	31.97
712.07	31.91
712.254	31.45
712.438	31.49
712.623	31.06
712.807	30.67
712.991	30.45
713.175	29.9
713.359	29.49
713.544	29.01
713.728	28.29
713.912	28.19
714.096	27.71
714.28	27.22
714.464	26.44
714.648	26.16
714.832	25.91
715.016	25.48
715.2	25.46
715.384	25.16
715.568	25.03
715.752	24.69
715.936	23.96
716.12	23.63
716.304	23.55
716.488	23.92
716.671	23.91
716.855	23.67
717.039	23.29
717.223	23.03
717.407	23.09
717.59	23
717.774	23.39
717.958	23.81
718.142	24.1
718.325	24.31
718.509	23.6
718.693	23.67
718.877	24.01
719.06	24.2
719.244	24.34
719.428	24.37
719.611	24.75
719.795	24.84
719.978	24.53
720.162	24.6
720.345	24.71
720.529	25.78
720.713	26.04
720.896	26.25
721.08	26.5
721.263	26.77
721.446	27.17
721.63	26.98
721.813	27.19
721.997	27.63
722.18	27.81
722.364	28.01
722.547	27.94
722.73	27.72
722.914	27.31
723.097	27.3
723.28	27.38
723.464	26.96
723.647	27.06
723.83	26.43
724.013	26.17
724.197	26.09
724.38	25.66
724.563	25.79
724.746	25.75
724.929	26.13
725.112	26.04
725.296	25.71
725.479	25.58
725.662	25.6
725.845	25.58
726.028	25.84
726.211	25.66
726.394	25.61
726.577	24.57
726.76	24.37
726.943	24.41
727.126	24.44
727.309	24.45
727.492	24.52
727.675	24.33
727.858	24.66
728.041	24.16
728.224	24.2
728.407	24.17
728.589	24.72
728.772	25.3
728.955	25.1
729.138	25.09
729.321	25.19
729.503	25.28
729.686	25.46
729.869	25.35
730.052	25.66
730.234	25.84
730.417	25.96
730.6	26.17
730.782	25.69
730.965	25.65
731.148	25.5
731.33	25.27
731.513	25.26
731.695	25.06
731.878	25.28
732.061	25.54
732.243	25.64
732.426	25.72
732.608	25.29
732.791	25.68
732.973	26.12
733.156	26.58
733.338	27.07
733.52	27.42
733.703	27.74
733.885	27.94
734.068	28.07
734.25	27.72
734.432	27.95
734.615	28.68
734.797	28.69
734.979	28.66
735.162	28.71
735.344	28.59
735.526	28.25
735.708	28.31
735.891	28.18
736.073	27.8
736.255	27.91
736.437	27.77
736.619	27.12
736.802	27.15
736.984	27.36
737.166	27.18
737.348	27
737.53	27.42
737.712	27.53
737.894	27.35
738.076	27.63
738.258	27.78
738.44	27.93
738.622	28.39
738.804	28.77
738.986	28.87
739.168	29.05
739.35	29.06
739.532	28.85
739.714	28.82
739.896	28.74
740.078	29.31
740.259	29.55
740.441	29.68
740.623	29.84
740.805	29.77
740.987	29.6
741.168	29.74
741.35	30.19
741.532	30.75
741.714	31.01
741.895	31.43
742.077	31.07
742.259	31.01
742.44	31.23
742.622	31.3
742.804	31.1
742.985	30.44
743.167	30.5
743.348	30.23
743.53	30.4
743.711	30.69
743.893	31.2
744.075	31.02
744.256	31.51
744.438	31.6
744.619	31.55
744.8	32.12
744.982	32.88
745.163	32.86
745.345	32.93
745.526	32.62
745.707	32.41
745.889	32.24
746.07	32.43
746.252	31.92
746.433	32.42
746.614	32.55
746.795	32.97
746.977	33.31
747.158	33.25
747.339	33.56
747.52	33.32
747.702	33.04
747.883	32.79
748.064	33.47
748.245	34
748.426	33.43
748.607	32.93
748.788	32.13
748.97	31.54
749.151	31.25
749.332	31.46
749.513	32.12
749.694	32.41
749.875	32.43
750.056	31.66
750.237	31.43
750.418	31.55
750.599	31.99
750.78	32.13
750.96	32.91
751.141	33.47
751.322	33.4
751.503	33.11
751.684	33.47
751.865	33.46
752.046	34.1
752.226	33.77
752.407	33.92
752.588	34.03
752.769	33.64
752.949	32.53
753.13	32.98
753.311	33.44
753.492	33.3
753.672	33.64
753.853	33.65
754.034	33.64
754.214	34.2
754.395	33.95
754.575	34.04
754.756	34.22
754.937	35.02
755.117	34.47
755.298	33.5
755.478	33.83
755.659	33.13
755.839	33.66
756.02	33.61
756.2	33.41
756.381	33.47
756.561	33.44
756.741	33.74
756.922	33.71
757.102	33.76
757.283	33.84
757.463	33.24
757.643	32.86
757.823	31.65
758.004	30.85
758.184	30.64
758.364	29.27
758.545	28.57
758.725	27.92
758.905	26.86
759.085	26.09
759.265	25.76
759.446	24.48
759.626	24.07
759.806	23.69
759.986	23.69
760.166	22.92
760.346	23.7
760.526	24.14
760.706	23.47
760.886	23.43
761.066	23.58
761.246	22.96
761.426	23.66
761.606	23.37
761.786	23.56
761.966	23.09
762.146	23.44
762.326	22.98
762.506	22.19
762.686	22.38
762.866	22.25
763.046	21.61
763.225	21.9
763.405	22.08
763.585	21.93
763.765	22.19
763.945	22.22
764.124	22.11
764.304	22.17
764.484	22.73
764.664	23.21
764.843	23.92
765.023	24.48
765.203	25
765.382	24.97
765.562	26.13
765.741	26.22
765.921	27.16
766.101	27.93
766.28	28.92
766.46	29.27
766.639	28.84
766.819	29.12
766.998	29.98
767.178	30.5
767.357	31.4
767.537	31.33
767.716	32.3
767.896	32.43
768.075	32.23
768.254	32.3
768.434	32.66
768.613	33.83
768.792	34.44
768.972	34.45
769.151	34.69
769.33	35.24
769.51	36.32
769.689	36.52
769.868	36.88
770.047	38.33
770.226	38.22
770.406	38.12
770.585	38.73
770.764	38.85
770.943	39.44
771.122	39.64
771.301	39.69
771.48	39
771.66	38.76
771.839	38.5
772.018	37.66
772.197	37.7
772.376	38.1
772.555	38.03
772.734	38.11
772.913	37.51
773.092	37.12
773.271	36.11
773.449	36.89
773.628	36.95
773.807	36.87
773.986	36.45
774.165	36.2
774.344	36.26
774.523	35.35
774.701	34.62
774.88	34.78
775.059	35.4
775.238	35.48
775.417	34.75
775.595	35.07
775.774	35.51
775.953	36.28
776.131	36.61
776.31	35.59
776.489	36.19
776.667	36.65
776.846	37.18
777.025	37.11
777.203	37.82
777.382	38.82
777.56	39.12
777.739	38.82
777.917	38.53
778.096	39.64
778.274	40.5
778.453	40.25
778.631	40.72
778.81	39.59
778.988	38.66
779.166	38.75
779.345	37.9
779.523	37.62
779.702	37.87
779.88	38.18
780.058	36.83
780.237	37.14
780.415	36.54
780.593	35.98
780.771	36.88
780.95	37.84
781.128	38.05
781.306	37.21
781.484	36.92
781.662	36.78
781.841	36.77
782.019	36.84
782.197	36.88
782.375	37.59
782.553	36.82
782.731	36.74
782.909	36.2
783.087	35.98
783.265	37.59
783.443	38.23
783.621	38.01
783.799	38.37
783.977	37.8
784.155	37.7
784.333	37.95
784.511	38.51
784.689	37.98
784.867	37.96
785.045	39.02
785.223	38.15
785.4	36.95
785.578	37.88
785.756	37.48
785.934	39
786.112	38.1
786.289	37.94
786.467	37.24
786.645	37.55
786.823	37.48
787	36.06
787.178	35.96
787.356	36.11
787.533	35.21
787.711	34.71
787.889	34.38
788.066	34.63
788.244	34.07
788.421	34.86
788.599	34.55
788.776	34.94
788.954	34.79
789.131	33.86
789.309	34.5
789.486	34.62
789.664	34.19
789.841	33.31
790.019	33.46
790.196	33.36
790.373	33.12
790.551	34.83
790.728	34.58
790.906	34.68
791.083	34.76
791.26	34.08
791.437	34.27
791.615	35.11
791.792	35.61
791.969	36.31
792.146	36.85
792.324	36.78
792.501	35.33
792.678	34.84
792.855	35.29
793.032	36.98
793.209	37.65
793.387	37.7
793.564	37.62
793.741	38.75
793.918	38.36
794.095	37.62
794.272	37.9
794.449	38.92
794.626	39.54
794.803	38.97
794.98	37.98
795.157	38.05
795.334	38.28
795.511	37.99
795.688	36.5
795.864	34.63
796.041	34.67
796.218	35.18
796.395	34.49
796.572	34.35
796.749	34.55
796.925	34.46
797.102	34.45
797.279	34.18
797.456	34.18
797.632	35.58
797.809	37.15
797.986	38.13
798.162	36.77
798.339	36.49
798.516	36.64
798.692	36.83
798.869	37.16
799.046	36.97
799.222	37.08
799.399	38.22
799.575	37.57
799.752	37.51
799.928	36.89
800.105	38
800.281	38.22
800.458	38.78
800.634	38.19
800.811	37.85
800.987	36.94
801.163	36.89
801.34	36.03
801.516	35.67
801.692	35.71
801.869	35.63
802.045	35.04
802.221	34.18
802.398	33.6
802.574	34.81
802.75	34.74
802.926	34.29
803.103	35.7
803.279	36.05
803.455	37.78
803.631	38.22
803.807	38.36
803.983	38.85
804.16	40.29
804.336	40.42
804.512	39.26
804.688	39.33
804.864	40.66
805.04	38.69
805.216	38.36
805.392	36.66
805.568	36.45
805.744	36.82
805.92	36.09
806.096	36.27
806.272	36.78
806.448	36.93
806.623	37.21
806.799	37.67
806.975	37.89
807.151	37.84
807.327	38.39
807.503	36.35
807.678	36.39
807.854	37.38
808.03	36.84
808.206	36.89
808.381	36.43
808.557	37.19
808.733	37.85
808.908	38.46
809.084	38.63
809.26	38.44
809.435	39.79
809.611	39.28
809.787	38.95
809.962	38.23
810.138	38.01
810.313	38.37
810.489	37.96
810.664	37.12
810.84	36.27
811.015	37.2
811.191	37.56
811.366	38.08
811.542	37.93
811.717	38.7
811.892	40.74
812.068	39.24
812.243	39.43
812.419	39.25
812.594	37.65
812.769	37.56
812.944	35.82
813.12	34.35
813.295	34.03
813.47	34.37
813.645	33.09
813.821	31.75
813.996	31.58
814.171	30.44
814.346	30.6
814.521	30.96
814.697	30.77
814.872	31.82
815.047	32.46
815.222	31.98
815.397	31.4
815.572	32.15
815.747	31.65
815.922	33.58
816.097	34.6
816.272	35.1
816.447	35.8
816.622	36
816.797	35.43
816.972	35.75
817.147	36.32
817.322	36.98
817.496	37
817.671	37.62
817.846	36.49
818.021	36.29
818.196	35
818.371	34.39
818.545	34.7
818.72	34.03
818.895	33.57
819.069	33.14
819.244	32.06
819.419	30.51
819.594	30.43
819.768	29.7
819.943	28.33
820.117	27.21
820.292	26.48
820.467	25.01
820.641	24.05
820.816	23.05
820.99	21.74
821.165	20.89
821.339	20.28
821.514	19.11
821.688	18.52
821.863	18.47
822.037	18.05
822.212	17.92
822.386	17.72
822.56	17.66
822.735	17.59
822.909	17.77
823.084	18.09
823.258	17.99
823.432	18.26
823.606	18.39
823.781	18.06
823.955	18.64
824.129	18.61
824.303	18.84
824.478	19.25
824.652	19.5
824.826	19.51
825	19.59
825.174	20.6
825.348	20.95
825.523	21.25
825.697	21.96
825.871	21.8
826.045	22.04
826.219	22.14
826.393	22.09
826.567	22.22
826.741	22.46
826.915	22.38
827.089	21.96
827.263	22.12
827.437	22.11
827.611	22.39
827.784	22.46
827.958	22.35
828.132	22.36
828.306	22.79
828.48	22.45
828.654	22.9
828.827	22.56
829.001	23.04
829.175	22.78
829.349	23.5
829.522	23.38
829.696	23.85
829.87	25.25
830.044	26.72
830.217	26.85
830.391	27.85
830.565	27.02
830.738	28.94
830.912	28.5
831.085	28.7
831.259	29.61
831.432	31.41
831.606	30.87
831.779	30.42
831.953	29.85
832.126	28.79
832.3	28.22
832.473	27.6
832.647	26.97
832.82	26.79
832.994	26.52
833.167	25.79
833.34	24.2
833.514	24.12
833.687	23.74
833.86	23.57
834.034	23.29
834.207	23.36
834.38	23.96
834.553	23.4
834.727	23.77
834.9	24.28
835.073	24.19
835.246	25.28
835.419	25.97
835.593	25.99
835.766	26.33
835.939	27.2
836.112	28.29
836.285	29.57
836.458	29.38
836.631	29.93
836.804	30.59
836.977	31.75
837.15	32.03
837.323	33.49
837.496	35.01
837.669	35.43
837.842	36.55
838.015	36.6
838.188	36.38
838.361	39.36
838.533	39.34
838.706	38.22
838.879	39.44
839.052	39.95
839.225	37.86
839.398	36.27
839.57	37.44
839.743	37.69
839.916	37.56
840.088	38.3
840.261	36.71
840.434	37.01
840.607	38.95
840.779	37.34
840.952	36.89
841.124	37.43
841.297	38.41
841.47	36.86
841.642	35.99
841.815	35.43
841.987	35.34
842.16	38.27
842.332	38.19
842.505	37.83
842.677	37.6
842.85	39.39
843.022	40.96
843.194	41.05
843.367	44.22
843.539	44.69
843.712	48.2
843.884	50.16
844.056	52.63
844.229	53.92
844.401	52.88
844.573	54.98
844.745	53.89
844.918	54.57
845.09	56.69
845.262	55.45
845.434	58.08
845.606	56.13
845.779	52.69
845.951	50.39
846.123	51.58
846.295	53.17
846.467	53.61
846.639	53.94
846.811	52.85
846.983	55.14
847.155	58.74
847.327	57.34
847.499	59.27
847.671	63.78
847.843	64.43
848.015	62.1
848.187	63.44
848.359	63.83
848.531	62.69
848.703	63.23
848.875	58.71
849.047	53.95
849.218	55.97
849.39	55.18
849.562	54.45
849.734	56.93
849.905	59.25
850.077	57.41
850.249	58.93
850.421	60.58
850.592	62.5
850.764	68.79
850.936	69.54
851.107	67.96
851.279	70.2
851.451	73.87
851.622	69.08
851.794	65.08
851.965	67.72
852.137	63.13
852.308	62.08
852.48	63.03
852.651	61.81
852.823	65
852.994	66.59
853.166	61.93
853.337	58.56
853.509	58.73
853.68	59.69
853.851	59.78
854.023	58.92
854.194	62.68
854.365	61.89
854.537	58.55
854.708	61.57
854.879	59.76
855.05	61.87
855.222	64.06
855.393	64.74
855.564	65.69
855.735	63.86
855.906	66.22
856.078	64.13
856.249	66.15
856.42	66.15
856.591	61.32
856.762	60.88
856.933	60.88
857.104	58.87
857.275	59.25
857.446	59.05
857.617	59.89
857.788	61.03
857.959	62.33
858.13	62.74
858.301	61.51
858.472	65.02
858.643	66.4
858.814	66.17
858.985	65.17
859.155	67.44
859.326	70.32
859.497	69.37
859.668	69.84
859.839	70.27
860.009	67.67
860.18	71.99
860.351	70.97
860.522	69.21
860.692	64.24
860.863	65.6
861.034	65.59
861.204	66.41
861.375	68.64
861.546	66.84
861.716	64.53
861.887	63.33
862.057	59.89
862.228	57.46
862.398	58.06
862.569	60.3
862.739	61.02
862.91	57.29
863.08	53.63
863.251	52.49
863.421	50.52
863.592	49.96
863.762	53.19
863.932	56.9
864.103	54.68
864.273	56.3
864.443	60.03
864.614	57.51
864.784	62.16
864.954	63.3
865.125	62.05
865.295	65.59
865.465	64.38
865.635	56.45
865.805	51.78
865.976	56.63
866.146	54.29
866.316	52.27
866.486	58.4
866.656	55.46
866.826	58.67
866.996	59.01
867.166	58.37
867.336	60.01
867.506	66.5
867.676	68.83
867.846	69.06
868.016	68.78
868.186	66.36
868.356	60.29
868.526	59.82
868.696	56.47
868.866	58.1
869.036	60.14
869.206	59.8
869.376	57.58
869.545	59.45
869.715	57.49
869.885	62.67
870.055	68.51
870.224	67.86
870.394	71.2
870.564	72.32
870.734	71.08
870.903	71.26
871.073	67.73
871.243	68.89
871.412	62.79
871.582	64.4
871.751	60.38
871.921	58.98
872.091	58.57
872.26	56.63
872.43	58.43
872.599	57.8
872.769	58.78
872.938	61.52
873.108	61.88
873.277	66.83
873.446	63.57
873.616	64.63
873.785	65.47
873.955	65.09
874.124	65.32
874.293	63.47
874.463	60.75
874.632	59.88
874.801	57.42
874.971	58.23
875.14	58.15
875.309	57
875.478	57.89
875.647	56.33
875.817	58.25
875.986	57.51
876.155	55.67
876.324	63.19
876.493	57.73
876.662	59.1
876.831	58.1
877	54.79
877.17	57.51
877.339	57.26
877.508	56.25
877.677	57.66
877.846	58.56
878.015	58.38
878.184	56.2
878.352	61.07
878.521	64.38
878.69	64.06
878.859	61.46
879.028	58.65
879.197	55.67
879.366	53.72
879.534	50.24
879.703	45.85
879.872	42.93
880.041	40.69
880.21	34.47
880.378	31.35
880.547	29.1
880.716	28.62
880.884	26.35
881.053	23.95
881.222	23.04
881.39	22.3
881.559	21.85
881.727	21.99
881.896	20.79
882.065	20.51
882.233	19.72
882.402	18.89
882.57	18.45
882.739	19.03
882.907	19.84
883.076	19.65
883.244	19.56
883.412	19.88
883.581	19.46
883.749	20.1
883.918	20.55
884.086	21.5
884.254	22.45
884.423	22.43
884.591	22.47
884.759	22.51
884.927	24.48
885.096	25.43
885.264	25.96
885.432	27.9
885.6	28.71
885.769	30.13
885.937	30.85
886.105	32.44
886.273	35.9
886.441	39.27
886.609	38.44
886.777	36.36
886.945	38.62
887.113	42.84
887.281	39.8
887.449	38.66
887.617	41.22
887.785	42.54
887.953	45.12
888.121	43.18
888.289	41.9
888.457	46.37
888.625	52.09
888.793	51.28
888.961	47.82
889.129	53.29
889.296	58.37
889.464	58.22
889.632	59.29
889.8	55.68
889.967	60.71
890.135	60.6
