Data from 2938734__Reflection_03.txt Node
Date: Sun Mar 15 18:28:40 EDT 2015
User: robert
Spectrometer: USB4E03002
Autoset integration time: false
Trigger mode: 4
Integration Time (sec): 1.000000E-1
Scans to average: 10
Electric dark correction enabled: false
Nonlinearity correction enabled: false
Boxcar width: 5
Stray light correction enabled: false
XAxis mode: Wavelengths
Stop averaging: false
Number of Pixels in Spectrum: 3648
>>>>>Begin Spectral Data<<<<<
177.575	282.2
177.794	304.69
178.014	291.78
178.233	428.36
178.452	483.21
178.672	302.4
178.891	354.59
179.11	504.07
179.33	581.45
179.549	-10033.33
179.768	2626.09
179.987	431.16
180.207	234.75
180.426	187.61
180.645	190.78
180.864	294.71
181.084	312.97
181.303	781.71
181.522	-2618.18
181.741	-743.02
181.96	-4629.41
182.179	-1953.85
182.398	-597.62
182.618	-418.18
182.837	-217.24
183.056	-581.65
183.275	-3544.44
183.494	-434.2
183.713	1234.62
183.932	310.24
184.151	205.72
184.37	214.25
184.589	194.73
184.808	197.06
185.027	270.32
185.246	183.58
185.465	342.34
185.684	443.26
185.903	224.75
186.122	361.33
186.341	1302.38
186.56	721.54
186.779	4628.57
186.998	1127.59
187.216	-4066.67
187.435	-3128.57
187.654	-104.79
187.873	-383.78
188.092	243.75
188.311	656.6
188.53	314.06
188.748	294.44
188.967	897.78
189.186	-4881.82
189.405	1907.14
189.623	270.33
189.842	194.39
190.061	164.95
190.28	197.06
190.498	261.34
190.717	326.75
190.936	288.52
191.154	270.71
191.373	263.68
191.592	192.67
191.81	187.9
192.029	256.95
192.248	269.87
192.466	242.49
192.685	218.2
192.904	187.74
193.122	171.71
193.341	258.41
193.559	240.5
193.778	266.51
193.996	226.54
194.215	255.3
194.433	290
194.652	282.59
194.87	309.24
195.089	412.73
195.307	421.5
195.526	403.65
195.744	543.36
195.963	510.66
196.181	615.96
196.399	-1178.18
196.618	-1476.19
196.836	12020
197.055	-792.65
197.273	-101.66
197.491	-106.11
197.71	-67.98
197.928	-72.6
198.146	1933.33
198.365	-213.13
198.583	-88.05
198.801	-94.74
199.019	-357.89
199.238	3625
199.456	68.57
199.674	112.37
199.892	223.18
200.111	269.35
200.329	263.18
200.547	410.89
200.765	330.77
200.983	311.04
201.202	351.22
201.42	395.65
201.638	266.18
201.856	1588.37
202.074	-573.68
202.292	-2100
202.51	-4050
202.728	415.38
202.946	291
203.165	535.34
203.383	521.58
203.601	366.35
203.819	304.98
204.037	334.07
204.255	258.63
204.473	204.03
204.691	193.49
204.909	172.54
205.127	271.43
205.345	319.3
205.562	194.77
205.78	151.43
205.998	149.91
206.216	174.31
206.434	187.03
206.652	181.22
206.87	187.57
207.088	181
207.306	184.1
207.523	135.88
207.741	122.04
207.959	146.68
208.177	191.06
208.395	195.08
208.612	148.57
208.83	146.24
209.048	140.84
209.266	149.46
209.483	148.23
209.701	186.9
209.919	191.38
210.136	213.68
210.354	174.31
210.572	133.47
210.79	123.17
211.007	172.86
211.225	163.87
211.442	135.18
211.66	138.88
211.878	138.74
212.095	9.99
212.313	-2.76
212.53	-2.83
212.748	16.98
212.966	17.5
213.183	5.19
213.401	10.81
213.618	18.55
213.836	33.57
214.053	33.37
214.271	40.75
214.488	153.48
214.705	131.43
214.923	154.65
215.14	125.12
215.358	126.03
215.575	110.01
215.793	97.31
216.01	95.05
216.227	85.04
216.445	78.81
216.662	75.68
216.879	47.41
217.097	39.19
217.314	47.13
217.531	43.84
217.749	24.77
217.966	32.03
218.183	20.94
218.4	33.47
218.618	23.92
218.835	27.33
219.052	34.86
219.269	42.67
219.487	38.43
219.704	47.24
219.921	50.08
220.138	54.37
220.355	44.74
220.572	57.97
220.79	47.61
221.007	50.68
221.224	52.19
221.441	28.39
221.658	21.79
221.875	31.25
222.092	34.63
222.309	28.68
222.526	27.06
222.743	37.21
222.96	29.89
223.177	35.68
223.394	31.56
223.611	31.78
223.828	32.39
224.045	31.41
224.262	26.44
224.479	19.91
224.696	24.89
224.913	24.14
225.13	19.18
225.347	17.75
225.564	14.87
225.781	18
225.997	12.31
226.214	15.94
226.431	15.62
226.648	14.86
226.865	14.48
227.082	10.59
227.298	7.96
227.515	8.53
227.732	8.3
227.949	8.17
228.165	7.16
228.382	8.55
228.599	7.52
228.816	8.27
229.032	7.83
229.249	7.49
229.466	8.63
229.682	9.32
229.899	8.99
230.116	9.43
230.332	9.67
230.549	9.89
230.765	9.51
230.982	10.16
231.199	9.09
231.415	9.68
231.632	10.15
231.848	9.26
232.065	8.32
232.281	8.29
232.498	8.62
232.714	7.85
232.931	7.58
233.147	7.67
233.364	7.54
233.58	8.24
233.797	8.08
234.013	7.73
234.23	8.35
234.446	10.12
234.662	12.01
234.879	11.08
235.095	11
235.312	11.77
235.528	13.24
235.744	12.82
235.961	13.2
236.177	14.32
236.393	13.11
236.61	12.68
236.826	12.82
237.042	10.55
237.258	11.15
237.475	12.1
237.691	11.66
237.907	10.27
238.123	9.34
238.339	8.26
238.556	8.14
238.772	8.67
238.988	8.17
239.204	6.39
239.42	7.06
239.636	6.89
239.853	6.34
240.069	6.05
240.285	5.94
240.501	6.62
240.717	6.47
240.933	5.37
241.149	6.19
241.365	6.15
241.581	6.5
241.797	6.31
242.013	6.35
242.229	5.92
242.445	5.67
242.661	5.52
242.877	5.51
243.093	5.12
243.309	5.18
243.525	4.93
243.741	5.04
243.957	4.92
244.173	4.79
244.388	4.86
244.604	5.31
244.82	5.7
245.036	5.76
245.252	5.29
245.468	5.68
245.683	5.5
245.899	5.26
246.115	5.56
246.331	5.36
246.547	5.21
246.762	4.76
246.978	4.42
247.194	4.41
247.409	4.08
247.625	4.38
247.841	4.37
248.057	4.59
248.272	4.55
248.488	4.2
248.703	4.22
248.919	4.9
249.135	5.04
249.35	5.05
249.566	4.69
249.782	5.4
249.997	5.59
250.213	5.44
250.428	4.79
250.644	4.89
250.859	4.83
251.075	5.21
251.29	4.29
251.506	4.05
251.721	5.02
251.937	5.89
252.152	5.79
252.368	5.51
252.583	6.26
252.798	7.31
253.014	7.72
253.229	8.56
253.445	8.87
253.66	9.04
253.875	10.11
254.091	9.95
254.306	9.78
254.521	10.28
254.737	10.55
254.952	9.99
255.167	9.72
255.383	8.76
255.598	8.53
255.813	7.44
256.028	8.34
256.244	6.8
256.459	7.21
256.674	6.98
256.889	5.62
257.104	4.78
257.32	4.98
257.535	4.4
257.75	4.52
257.965	4.11
258.18	4.55
258.395	3.89
258.61	4.07
258.826	3.65
259.041	3.8
259.256	4.2
259.471	4.28
259.686	4.07
259.901	3.7
260.116	3.95
260.331	3.81
260.546	3.76
260.761	3.61
260.976	3.81
261.191	4.11
261.406	3.82
261.621	3.75
261.836	3.82
262.05	4.14
262.265	4.94
262.48	4.13
262.695	4.31
262.91	3.92
263.125	4.51
263.34	4.49
263.555	4.45
263.769	4.92
263.984	4.77
264.199	4.37
264.414	3.6
264.629	3.54
264.843	4.41
265.058	4.43
265.273	4.64
265.488	4.52
265.702	3.9
265.917	3.34
266.132	3.41
266.346	3.42
266.561	3.46
266.776	3.23
266.99	3.23
267.205	3.04
267.42	2.81
267.634	2.86
267.849	3.16
268.063	3.33
268.278	3.51
268.492	2.98
268.707	2.93
268.922	2.93
269.136	3.77
269.351	3.17
269.565	2.89
269.78	3.29
269.994	3.38
270.209	2.63
270.423	2.73
270.637	2.72
270.852	2.88
271.066	3.47
271.281	3.42
271.495	2.76
271.709	3.04
271.924	3.51
272.138	3.28
272.353	3.71
272.567	3.61
272.781	3.44
272.996	3.6
273.21	3.52
273.424	3.07
273.638	3.28
273.853	3.68
274.067	3.78
274.281	3.55
274.495	3.87
274.71	3.38
274.924	3.72
275.138	3.98
275.352	3.81
275.566	3.98
275.781	4.24
275.995	4.31
276.209	3.83
276.423	3.93
276.637	3.89
276.851	3.74
277.065	4.11
277.279	3.97
277.493	4.18
277.707	4.34
277.921	4.8
278.135	4.28
278.349	3.83
278.563	4.43
278.777	4.44
278.991	4.71
279.205	4.14
279.419	3.8
279.633	4.07
279.847	3.83
280.061	4.24
280.275	4.23
280.489	4.66
280.703	5.22
280.917	5.38
281.131	5.28
281.344	4.94
281.558	5.15
281.772	4.9
281.986	4.88
282.2	5.01
282.414	4.81
282.627	4.33
282.841	3.9
283.055	4.04
283.269	3.67
283.482	3.46
283.696	3.54
283.91	3.82
284.123	4.04
284.337	3.89
284.551	3.69
284.764	3.49
284.978	3.64
285.192	3.88
285.405	3.61
285.619	3.55
285.833	3.68
286.046	3.57
286.26	3.64
286.473	3.16
286.687	3.45
286.9	3.75
287.114	3.73
287.327	3.91
287.541	3.67
287.754	3.44
287.968	3.73
288.181	3.69
288.395	3.88
288.608	3.24
288.822	3.72
289.035	3.36
289.248	3.03
289.462	3.12
289.675	2.98
289.889	3.33
290.102	3.49
290.315	3.26
290.529	3.19
290.742	3.17
290.955	3.35
291.169	3.4
291.382	3.49
291.595	3.95
291.808	3.77
292.022	3.81
292.235	3.79
292.448	3.66
292.661	3.86
292.875	3.88
293.088	3.82
293.301	4.1
293.514	3.74
293.727	3.6
293.94	3.08
294.153	3.48
294.367	3.36
294.58	3.05
294.793	3.24
295.006	3.32
295.219	3.23
295.432	3.11
295.645	2.97
295.858	3.07
296.071	3.15
296.284	3.16
296.497	3.05
296.71	3.13
296.923	3.45
297.136	3.54
297.349	3.37
297.562	3.62
297.775	3.74
297.988	3.78
298.201	3.92
298.414	3.94
298.626	4.13
298.839	3.93
299.052	4.03
299.265	4.01
299.478	3.87
299.691	3.82
299.903	3.79
300.116	4.03
300.329	4.22
300.542	4.42
300.755	4.69
300.967	4.73
301.18	5.19
301.393	5.13
301.605	4.87
301.818	5
302.031	5.39
302.243	5.14
302.456	5.04
302.669	5.32
302.881	5.23
303.094	5.17
303.307	4.99
303.519	4.82
303.732	4.92
303.944	5.22
304.157	5.32
304.37	4.85
304.582	5.13
304.795	4.68
305.007	4.6
305.22	4.71
305.432	4.38
305.645	5.02
305.857	5.09
306.069	5.2
306.282	4.9
306.494	4.88
306.707	5.41
306.919	5.13
307.132	5.76
307.344	5.67
307.556	5.32
307.769	5.72
307.981	5.31
308.193	5.36
308.406	5.02
308.618	5.35
308.83	5.19
309.043	4.81
309.255	5.21
309.467	5.1
309.679	4.96
309.892	5.08
310.104	5
310.316	4.58
310.528	4.65
310.74	5.14
310.953	5.15
311.165	5.43
311.377	5.78
311.589	5.64
311.801	5.77
312.013	5.8
312.225	5.52
312.437	5.61
312.649	6.07
312.862	6.13
313.074	5.87
313.286	5.71
313.498	5.61
313.71	5.45
313.922	5.41
314.134	5.35
314.346	5.31
314.558	5.64
314.77	5.68
314.982	5.01
315.193	4.83
315.405	5.06
315.617	4.89
315.829	4.84
316.041	4.63
316.253	4.84
316.465	4.93
316.677	4.86
316.888	4.89
317.1	5.14
317.312	6.08
317.524	5.99
317.736	5.7
317.947	5.93
318.159	5.95
318.371	6.27
318.583	5.88
318.794	5.78
319.006	6.17
319.218	6.31
319.43	5.82
319.641	5.43
319.853	5.69
320.064	5.61
320.276	6.11
320.488	6.53
320.699	6.82
320.911	7.27
321.123	7.28
321.334	7.07
321.546	6.82
321.757	6.9
321.969	7.32
322.18	6.93
322.392	7.4
322.603	6.97
322.815	6.16
323.026	5.83
323.238	5.89
323.449	5.76
323.661	5.75
323.872	5.8
324.083	6.07
324.295	6
324.506	6.27
324.718	5.89
324.929	5.9
325.14	6.26
325.352	6.43
325.563	6.52
325.774	6.41
325.986	6.67
326.197	7.05
326.408	6.76
326.62	6.68
326.831	6.59
327.042	6.65
327.253	6.8
327.464	6.87
327.676	6.64
327.887	6.77
328.098	6.96
328.309	6.64
328.52	6.72
328.732	6.77
328.943	6.59
329.154	6.82
329.365	7.2
329.576	6.83
329.787	6.95
329.998	7.08
330.209	6.24
330.42	6.45
330.631	6.93
330.842	6.7
331.053	6.73
331.264	6.98
331.475	6.73
331.686	6.64
331.897	7.28
332.108	7.16
332.319	7.1
332.53	7.49
332.741	7.76
332.952	7.85
333.163	7.81
333.374	8
333.585	8.02
333.795	8.21
334.006	8.29
334.217	8.02
334.428	8.03
334.639	7.86
334.849	8.08
335.06	7.82
335.271	7.56
335.482	7.8
335.692	8.04
335.903	8.07
336.114	7.76
336.325	7.65
336.535	7.53
336.746	7.47
336.957	7.53
337.167	7.52
337.378	7.34
337.589	7.73
337.799	7.57
338.01	7.41
338.22	7.02
338.431	7.16
338.642	6.85
338.852	6.54
339.063	6.41
339.273	6.49
339.484	6.75
339.694	7.07
339.905	6.35
340.115	6.37
340.326	6.22
340.536	6.82
340.746	6.66
340.957	6.96
341.167	7.26
341.378	7.36
341.588	7.32
341.799	6.94
342.009	6.53
342.219	6.49
342.43	6.16
342.64	5.79
342.85	5.55
343.061	5.72
343.271	5.64
343.481	5.54
343.691	5.33
343.902	5.64
344.112	5.94
344.322	5.87
344.532	6.32
344.743	6.58
344.953	6.76
345.163	6.57
345.373	6.38
345.583	6.43
345.793	6.44
346.004	6.76
346.214	6.13
346.424	5.74
346.634	5.82
346.844	5.69
347.054	5.6
347.264	6.02
347.474	6.22
347.684	6.51
347.894	6.32
348.104	6.11
348.314	6.24
348.524	6.46
348.734	6.41
348.944	6.27
349.154	6.18
349.364	6.18
349.574	5.68
349.784	5.52
349.994	5.46
350.204	5.61
350.413	5.74
350.623	5.25
350.833	5.17
351.043	5.12
351.253	5.28
351.463	5.13
351.672	5.05
351.882	4.95
352.092	5.11
352.302	4.9
352.511	4.91
352.721	5.09
352.931	5.31
353.141	5.7
353.35	5.92
353.56	5.98
353.77	6.39
353.979	6.27
354.189	6.3
354.399	6.12
354.608	6.58
354.818	6.6
355.027	6.2
355.237	6.2
355.447	6.31
355.656	6.01
355.866	5.71
356.075	5.11
356.285	5.23
356.494	5.34
356.704	5.29
356.913	4.91
357.123	4.78
357.332	4.92
357.542	4.68
357.751	4.61
357.96	4.82
358.17	4.92
358.379	5.36
358.589	5.35
358.798	5.45
359.007	5.5
359.217	5.78
359.426	5.9
359.635	6.09
359.845	6.18
360.054	5.96
360.263	5.86
360.472	5.9
360.682	5.66
360.891	5.71
361.1	5.62
361.309	5.4
361.519	5.35
361.728	5.15
361.937	4.9
362.146	4.91
362.355	4.67
362.564	4.63
362.774	4.46
362.983	4.47
363.192	4.21
363.401	4.07
363.61	4.23
363.819	4.19
364.028	4.22
364.237	4.36
364.446	4.58
364.655	5.01
364.864	5.1
365.073	5.3
365.282	5.21
365.491	5.28
365.7	5.28
365.909	5.5
366.118	5.22
366.327	5.26
366.536	5.37
366.745	5.48
366.954	5.05
367.162	4.97
367.371	4.9
367.58	5.16
367.789	5.41
367.998	5.24
368.207	5.23
368.415	5.27
368.624	5.21
368.833	5.31
369.042	5.04
369.25	5.25
369.459	5.11
369.668	5.09
369.877	4.96
370.085	4.77
370.294	4.85
370.503	4.53
370.711	4.58
370.92	4.66
371.129	4.6
371.337	4.53
371.546	4.5
371.754	4.65
371.963	4.59
372.171	4.57
372.38	4.9
372.589	5.23
372.797	5.33
373.006	5.43
373.214	5.35
373.423	5.22
373.631	5.02
373.84	5
374.048	4.95
374.256	5.2
374.465	4.84
374.673	4.33
374.882	4.31
375.09	4.18
375.298	3.99
375.507	4.23
375.715	4.18
375.923	4.41
376.132	4.28
376.34	4.25
376.548	4.18
376.757	4.15
376.965	4.36
377.173	4.02
377.381	3.9
377.59	4.22
377.798	4
378.006	3.85
378.214	3.77
378.423	3.92
378.631	3.87
378.839	3.86
379.047	4.13
379.255	4.08
379.463	4.18
379.671	4.49
379.879	3.95
380.088	3.87
380.296	4.1
380.504	4.1
380.712	4.08
380.92	4.25
381.128	4.07
381.336	3.94
381.544	3.85
381.752	4.07
381.96	4.05
382.168	4.22
382.376	4.24
382.584	3.85
382.791	3.71
382.999	3.61
383.207	3.32
383.415	3.31
383.623	3.26
383.831	3.41
384.039	3.24
384.247	3.15
384.454	3.49
384.662	3.53
384.87	3.74
385.078	3.86
385.285	4.08
385.493	4.32
385.701	4.37
385.909	4.57
386.116	4.43
386.324	4.43
386.532	4.38
386.739	4.02
386.947	3.95
387.155	4.03
387.362	4
387.57	3.93
387.778	3.92
387.985	3.88
388.193	3.7
388.4	3.81
388.608	3.7
388.816	3.75
389.023	3.73
389.231	3.83
389.438	3.68
389.646	3.65
389.853	3.72
390.061	3.79
390.268	3.57
390.475	3.71
390.683	3.47
390.89	3.72
391.098	3.84
391.305	3.89
391.512	3.79
391.72	3.74
391.927	3.68
392.135	3.42
392.342	3.18
392.549	3.33
392.756	3.14
392.964	3.3
393.171	3.16
393.378	2.98
393.586	2.97
393.793	3.03
394	3.05
394.207	2.98
394.414	3.15
394.622	3.08
394.829	3.11
395.036	3.2
395.243	2.96
395.45	2.74
395.657	2.76
395.864	2.66
396.072	2.71
396.279	2.8
396.486	2.77
396.693	2.78
396.9	2.92
397.107	2.98
397.314	3.05
397.521	3.14
397.728	3.25
397.935	3.14
398.142	3.15
398.349	2.97
398.556	2.86
398.763	3
398.97	2.89
399.177	2.72
399.383	2.41
399.59	2.29
399.797	2.5
400.004	2.68
400.211	2.94
400.418	2.98
400.625	3.11
400.831	3.08
401.038	3.03
401.245	2.97
401.452	3.21
401.658	3.38
401.865	3.43
402.072	3.19
402.279	3.02
402.485	2.9
402.692	2.86
402.899	2.74
403.105	2.83
403.312	2.61
403.519	2.62
403.725	2.61
403.932	2.6
404.138	2.42
404.345	2.42
404.552	2.3
404.758	2.14
404.965	2.08
405.171	2.02
405.378	1.93
405.584	2.02
405.791	2.12
405.997	1.98
406.204	1.98
406.41	2.12
406.617	2.14
406.823	2.15
407.029	2.22
407.236	2.38
407.442	2.68
407.649	2.64
407.855	2.75
408.061	2.65
408.268	2.65
408.474	2.43
408.68	2.53
408.887	2.61
409.093	2.8
409.299	2.78
409.505	2.67
409.712	2.25
409.918	2.4
410.124	2.33
410.33	2.29
410.537	2.34
410.743	2.58
410.949	2.65
411.155	2.53
411.361	2.49
411.567	2.4
411.773	2.26
411.98	2.41
412.186	2.38
412.392	2.49
412.598	2.52
412.804	2.52
413.01	2.58
413.216	2.34
413.422	2.43
413.628	2.34
413.834	2.34
414.04	2.6
414.246	2.6
414.452	2.52
414.658	2.36
414.864	2.49
415.07	2.47
415.275	2.3
415.481	2.21
415.687	2.16
415.893	2.1
416.099	2.22
416.305	2.19
416.511	2.36
416.716	2.48
416.922	2.5
417.128	2.4
417.334	2.31
417.539	2.29
417.745	2.39
417.951	2.33
418.157	2.39
418.362	2.37
418.568	2.35
418.774	2.24
418.979	2.09
419.185	2.1
419.391	2.08
419.596	2.09
419.802	2.12
420.008	2.14
420.213	2.18
420.419	2.27
420.624	2.25
420.83	2.14
421.035	2.17
421.241	2.16
421.446	2.14
421.652	2.12
421.857	2.14
422.063	2.08
422.268	1.98
422.474	1.96
422.679	1.82
422.885	1.76
423.09	1.8
423.295	1.81
423.501	1.93
423.706	1.95
423.911	1.92
424.117	1.9
424.322	1.91
424.527	1.97
424.733	1.97
424.938	2.05
425.143	2.07
425.349	1.99
425.554	1.97
425.759	1.95
425.964	1.95
426.169	1.97
426.375	2.01
426.58	2.04
426.785	1.98
426.99	1.99
427.195	1.97
427.4	2.03
427.605	2.15
427.811	2.14
428.016	2.05
428.221	2.1
428.426	2.2
428.631	2.23
428.836	2.28
429.041	2.4
429.246	2.24
429.451	2.22
429.656	2.12
429.861	2.11
430.066	2.09
430.271	2.09
430.476	2.07
430.681	1.86
430.886	1.81
431.09	1.78
431.295	1.86
431.5	2.07
431.705	2.05
431.91	2.1
432.115	2.02
432.32	1.99
432.524	1.94
432.729	1.95
432.934	1.97
433.139	2
433.343	2.05
433.548	1.91
433.753	1.86
433.958	1.9
434.162	1.93
434.367	1.89
434.572	1.91
434.776	1.96
434.981	1.94
435.186	2.12
435.39	2.11
435.595	2.09
435.799	2.03
436.004	2.05
436.209	1.98
436.413	2.08
436.618	2.28
436.822	2.2
437.027	2.2
437.231	2.26
437.436	2.22
437.64	2.17
437.845	2.12
438.049	2.21
438.253	2.26
438.458	2.33
438.662	2.23
438.867	2.13
439.071	2.15
439.275	2.12
439.48	2.14
439.684	2.17
439.888	2.13
440.093	2.19
440.297	2.17
440.501	2.09
440.706	2
440.91	2
441.114	1.99
441.318	2.07
441.523	2.15
441.727	2.04
441.931	1.95
442.135	2
442.339	2.03
442.543	2.08
442.748	2.21
442.952	2.13
443.156	2.2
443.36	2.22
443.564	2.09
443.768	2.13
443.972	2.1
444.176	2.19
444.38	2.16
444.584	2.14
444.788	2.15
444.992	1.97
445.196	2.09
445.4	1.99
445.604	1.98
445.808	2.03
446.012	1.94
446.216	1.97
446.42	1.84
446.624	1.88
446.828	1.73
447.032	1.77
447.235	1.77
447.439	1.71
447.643	1.71
447.847	1.67
448.051	1.71
448.254	1.69
448.458	1.6
448.662	1.67
448.866	1.63
449.069	1.73
449.273	1.51
449.477	1.56
449.681	1.67
449.884	1.75
450.088	1.79
450.292	1.72
450.495	1.8
450.699	1.81
450.902	1.85
451.106	1.92
451.31	2.02
451.513	2.21
451.717	2.18
451.92	2.17
452.124	2.07
452.327	2.07
452.531	2.02
452.734	2.09
452.938	2.12
453.141	2.02
453.345	1.99
453.548	1.81
453.752	1.76
453.955	1.78
454.158	1.78
454.362	1.86
454.565	1.85
454.769	1.87
454.972	1.67
455.175	1.68
455.379	1.74
455.582	1.72
455.785	1.92
455.988	1.93
456.192	1.95
456.395	1.84
456.598	1.81
456.801	1.72
457.005	1.94
457.208	2.09
457.411	2.19
457.614	2.25
457.817	2.2
458.021	2.15
458.224	2.08
458.427	2
458.63	2.03
458.833	2.05
459.036	2.08
459.239	1.97
459.442	1.89
459.645	1.86
459.848	1.82
460.051	1.8
460.254	1.82
460.457	1.78
460.66	1.88
460.863	1.88
461.066	1.84
461.269	1.91
461.472	1.89
461.675	1.94
461.878	1.98
462.081	2.06
462.284	2.14
462.486	2.17
462.689	2.27
462.892	2.2
463.095	2.14
463.298	2.23
463.5	2.15
463.703	2.24
463.906	2.18
464.109	2.11
464.311	2.08
464.514	2.14
464.717	2.13
464.92	2.07
465.122	2.1
465.325	2.28
465.528	2.18
465.73	2.14
465.933	2.08
466.135	2.11
466.338	2.13
466.541	2.06
466.743	1.97
466.946	1.86
467.148	1.87
467.351	1.86
467.553	1.82
467.756	1.76
467.958	1.78
468.161	1.8
468.363	1.8
468.566	1.84
468.768	1.78
468.971	1.79
469.173	1.85
469.375	1.87
469.578	1.91
469.78	1.88
469.983	1.94
470.185	2.09
470.387	2.09
470.59	2.11
470.792	2.19
470.994	2.33
471.196	2.37
471.399	2.36
471.601	2.42
471.803	2.4
472.005	2.43
472.208	2.44
472.41	2.33
472.612	2.3
472.814	2.28
473.016	2.13
473.218	2.07
473.421	2.06
473.623	2.02
473.825	1.98
474.027	1.94
474.229	1.88
474.431	1.9
474.633	1.91
474.835	1.9
475.037	1.94
475.239	1.94
475.441	1.91
475.643	1.9
475.845	1.85
476.047	1.77
476.249	1.84
476.451	1.89
476.653	1.87
476.855	1.91
477.057	1.85
477.258	1.87
477.46	1.9
477.662	1.89
477.864	1.89
478.066	1.89
478.268	2
478.469	1.98
478.671	1.99
478.873	1.93
479.075	1.92
479.276	1.94
479.478	1.79
479.68	1.74
479.882	1.78
480.083	1.71
480.285	1.71
480.487	1.76
480.688	1.77
480.89	1.78
481.091	1.82
481.293	1.75
481.495	1.76
481.696	1.79
481.898	1.8
482.099	1.73
482.301	1.76
482.502	1.77
482.704	1.7
482.905	1.64
483.107	1.6
483.308	1.55
483.51	1.54
483.711	1.52
483.913	1.53
484.114	1.54
484.315	1.55
484.517	1.53
484.718	1.54
484.92	1.52
485.121	1.55
485.322	1.58
485.524	1.62
485.725	1.64
485.926	1.64
486.127	1.6
486.329	1.6
486.53	1.59
486.731	1.59
486.932	1.54
487.134	1.53
487.335	1.56
487.536	1.5
487.737	1.47
487.938	1.51
488.139	1.51
488.341	1.55
488.542	1.53
488.743	1.52
488.944	1.52
489.145	1.55
489.346	1.61
489.547	1.54
489.748	1.55
489.949	1.52
490.15	1.49
490.351	1.5
490.552	1.47
490.753	1.51
490.954	1.55
491.155	1.62
491.356	1.61
491.557	1.59
491.758	1.63
491.959	1.64
492.159	1.74
492.36	1.73
492.561	1.74
492.762	1.75
492.963	1.76
493.164	1.77
493.364	1.72
493.565	1.75
493.766	1.74
493.967	1.7
494.167	1.75
494.368	1.67
494.569	1.73
494.769	1.76
494.97	1.82
495.171	1.71
495.371	1.77
495.572	1.75
495.773	1.76
495.973	1.87
496.174	1.91
496.375	1.9
496.575	1.93
496.776	1.92
496.976	1.93
497.177	1.96
497.377	2.07
497.578	2
497.778	2.06
497.979	2.03
498.179	2
498.38	2.01
498.58	2.08
498.78	2.09
498.981	2.1
499.181	2.11
499.382	2.16
499.582	2.2
499.782	2.19
499.983	2.14
500.183	2.24
500.383	2.13
500.584	2.16
500.784	2.17
500.984	2.17
501.184	2.2
501.385	2.3
501.585	2.25
501.785	2.15
501.985	2.16
502.185	2.35
502.386	2.25
502.586	2.43
502.786	2.54
502.986	2.49
503.186	2.55
503.386	2.54
503.586	2.46
503.786	2.52
503.987	2.55
504.187	2.55
504.387	2.56
504.587	2.67
504.787	2.58
504.987	2.53
505.187	2.54
505.387	2.52
505.587	2.59
505.786	2.51
505.986	2.47
506.186	2.56
506.386	2.63
506.586	2.52
506.786	2.47
506.986	2.5
507.186	2.51
507.386	2.5
507.585	2.53
507.785	2.56
507.985	2.65
508.185	2.7
508.384	2.68
508.584	2.67
508.784	2.68
508.984	2.71
509.183	2.74
509.383	2.72
509.583	2.79
509.782	2.77
509.982	2.77
510.182	2.71
510.381	2.72
510.581	2.62
510.781	2.68
510.98	2.64
511.18	2.65
511.379	2.64
511.579	2.71
511.778	2.64
511.978	2.69
512.177	2.67
512.377	2.73
512.576	2.8
512.776	2.98
512.975	2.94
513.175	3.09
513.374	3.08
513.573	3.1
513.773	3.19
513.972	3.31
514.172	3.39
514.371	3.44
514.57	3.51
514.77	3.46
514.969	3.5
515.168	3.53
515.367	3.54
515.567	3.62
515.766	3.68
515.965	3.58
516.164	3.56
516.364	3.49
516.563	3.57
516.762	3.62
516.961	3.73
517.16	3.66
517.359	3.69
517.559	3.74
517.758	3.85
517.957	3.93
518.156	4.01
518.355	4.07
518.554	4.18
518.753	4.15
518.952	4.13
519.151	4.22
519.35	4.33
519.549	4.47
519.748	4.5
519.947	4.51
520.146	4.55
520.345	4.53
520.544	4.54
520.743	4.55
520.942	4.55
521.141	4.61
521.339	4.49
521.538	4.48
521.737	4.46
521.936	4.5
522.135	4.48
522.333	4.47
522.532	4.58
522.731	4.69
522.93	4.77
523.129	4.88
523.327	4.95
523.526	5.01
523.725	5.12
523.923	5.17
524.122	5.23
524.321	5.36
524.519	5.44
524.718	5.53
524.917	5.59
525.115	5.54
525.314	5.68
525.512	5.76
525.711	5.81
525.909	5.86
526.108	5.86
526.306	5.82
526.505	5.84
526.703	5.9
526.902	5.87
527.1	5.88
527.299	5.96
527.497	6
527.696	6.02
527.894	6.11
528.092	6.13
528.291	6.2
528.489	6.25
528.688	6.26
528.886	6.27
529.084	6.33
529.283	6.37
529.481	6.39
529.679	6.4
529.877	6.45
530.076	6.49
530.274	6.56
530.472	6.61
530.67	6.74
530.869	6.8
531.067	6.87
531.265	6.93
531.463	7.04
531.661	7.21
531.859	7.29
532.057	7.33
532.255	7.35
532.454	7.4
532.652	7.45
532.85	7.5
533.048	7.61
533.246	7.68
533.444	7.73
533.642	7.81
533.84	7.86
534.038	7.93
534.236	8.08
534.434	8.16
534.632	8.2
534.83	8.32
535.027	8.39
535.225	8.41
535.423	8.5
535.621	8.63
535.819	8.61
536.017	8.63
536.215	8.61
536.412	8.62
536.61	8.68
536.808	8.79
537.006	8.77
537.203	8.8
537.401	8.93
537.599	8.95
537.797	9.02
537.994	9.13
538.192	9.25
538.39	9.4
538.587	9.46
538.785	9.51
538.983	9.57
539.18	9.67
539.378	9.86
539.575	9.86
539.773	9.97
539.97	10.03
540.168	10.09
540.366	10.11
540.563	10.21
540.761	10.27
540.958	10.33
541.155	10.41
541.353	10.44
541.55	10.42
541.748	10.49
541.945	10.52
542.143	10.58
542.34	10.63
542.537	10.71
542.735	10.72
542.932	10.74
543.129	10.84
543.327	10.94
543.524	11.08
543.721	11.28
543.919	11.42
544.116	11.6
544.313	11.79
544.51	12
544.708	12.18
544.905	12.37
545.102	12.65
545.299	12.89
545.496	12.95
545.693	13.13
545.891	13.12
546.088	13.12
546.285	13.08
546.482	13.05
546.679	13.05
546.876	12.95
547.073	12.98
547.27	12.85
547.467	12.71
547.664	12.7
547.861	12.55
548.058	12.58
548.255	12.65
548.452	12.67
548.649	12.66
548.846	12.6
549.043	12.66
549.24	12.48
549.437	12.48
549.633	12.36
549.83	12.47
550.027	12.59
550.224	12.6
550.421	12.53
550.618	12.58
550.814	12.57
551.011	12.53
551.208	12.55
551.405	12.59
551.601	12.7
551.798	12.79
551.995	12.73
552.191	12.66
552.388	12.59
552.585	12.55
552.781	12.6
552.978	12.56
553.175	12.68
553.371	12.67
553.568	12.84
553.764	12.81
553.961	12.85
554.157	12.81
554.354	12.85
554.55	12.87
554.747	12.93
554.943	13.01
555.14	13.06
555.336	12.95
555.533	12.88
555.729	12.87
555.926	12.86
556.122	12.91
556.318	13.05
556.515	12.97
556.711	13.03
556.907	13.01
557.104	12.82
557.3	12.9
557.496	13.08
557.693	13.16
557.889	13.18
558.085	13.17
558.281	13.21
558.478	13.13
558.674	13.28
558.87	13.15
559.066	13.22
559.262	13.36
559.459	13.29
559.655	13.17
559.851	13.34
560.047	13.3
560.243	13.3
560.439	13.25
560.635	13.31
560.831	13.37
561.027	13.5
561.223	13.5
561.419	13.54
561.615	13.61
561.811	13.68
562.007	13.62
562.203	13.58
562.399	13.73
562.595	13.91
562.791	13.87
562.987	13.76
563.183	13.79
563.379	13.83
563.575	13.81
563.771	13.86
563.966	13.83
564.162	13.89
564.358	13.93
564.554	13.86
564.75	13.73
564.945	13.74
565.141	13.81
565.337	13.83
565.533	13.75
565.728	13.8
565.924	13.76
566.12	13.81
566.315	13.71
566.511	13.72
566.707	13.72
566.902	13.7
567.098	13.86
567.293	13.87
567.489	13.94
567.684	13.91
567.88	13.87
568.076	13.81
568.271	13.8
568.467	13.82
568.662	13.71
568.858	13.86
569.053	13.91
569.248	13.75
569.444	13.67
569.639	13.53
569.835	13.67
570.03	13.69
570.225	13.79
570.421	13.79
570.616	13.82
570.812	13.86
571.007	13.8
571.202	13.81
571.397	13.86
571.593	14.05
571.788	14.08
571.983	14.1
572.178	14.09
572.374	14.17
572.569	14.13
572.764	14.24
572.959	14.33
573.154	14.35
573.35	14.29
573.545	14.27
573.74	14.22
573.935	14.16
574.13	14.16
574.325	14.2
574.52	14.08
574.715	14.15
574.91	14.12
575.105	14.22
575.3	14.17
575.495	14.29
575.69	14.42
575.885	14.53
576.08	14.79
576.275	14.92
576.47	14.94
576.665	14.97
576.86	15.08
577.055	15.16
577.25	15.14
577.444	15.24
577.639	15.43
577.834	15.48
578.029	15.53
578.224	15.57
578.418	15.52
578.613	15.57
578.808	15.83
579.003	15.82
579.197	15.92
579.392	16.02
579.587	16.06
579.781	16.05
579.976	16.03
580.171	16.02
580.365	16.03
580.56	15.99
580.755	16.12
580.949	16.05
581.144	16.01
581.338	15.95
581.533	15.93
581.727	16
581.922	15.8
582.116	15.97
582.311	16.06
582.505	15.97
582.7	16.08
582.894	15.97
583.089	16.04
583.283	16.1
583.478	16.26
583.672	16.25
583.866	16.12
584.061	16.24
584.255	16.04
584.449	15.94
584.644	15.97
584.838	15.94
585.032	16.07
585.226	16.05
585.421	15.96
585.615	15.89
585.809	16.04
586.003	16.23
586.198	16.42
586.392	16.47
586.586	16.46
586.78	16.46
586.974	16.33
587.168	16.39
587.363	16.33
587.557	16.46
587.751	16.23
587.945	16.08
588.139	15.94
588.333	15.75
588.527	15.63
588.721	15.53
588.915	15.57
589.109	15.7
589.303	15.54
589.497	15.51
589.691	15.49
589.885	15.68
590.079	15.78
590.273	15.99
590.466	16.17
590.66	16.33
590.854	16.51
591.048	16.47
591.242	16.55
591.436	16.72
591.629	16.94
591.823	17.01
592.017	17.02
592.211	17.1
592.404	16.92
592.598	16.77
592.792	16.86
592.986	16.7
593.179	16.72
593.373	16.68
593.567	16.59
593.76	16.41
593.954	16.42
594.147	16.45
594.341	16.27
594.535	16.36
594.728	16.36
594.922	16.23
595.115	16.32
595.309	16.23
595.502	16.08
595.696	16.04
595.889	15.98
596.083	15.87
596.276	15.69
596.47	15.62
596.663	15.58
596.856	15.47
597.05	15.43
597.243	15.32
597.437	15.48
597.63	15.62
597.823	15.65
598.017	15.7
598.21	15.73
598.403	15.81
598.596	15.88
598.79	16.06
598.983	16.16
599.176	16.2
599.369	16.31
599.563	16.34
599.756	16.32
599.949	16.26
600.142	16.35
600.335	16.36
600.528	16.45
600.722	16.48
600.915	16.26
601.108	16.17
601.301	16.21
601.494	16.19
601.687	16.09
601.88	16.22
602.073	16.16
602.266	15.98
602.459	15.86
602.652	15.73
602.845	15.63
603.038	15.58
603.231	15.68
603.424	15.62
603.617	15.56
603.809	15.5
604.002	15.38
604.195	15.39
604.388	15.48
604.581	15.45
604.774	15.56
604.966	15.62
605.159	15.57
605.352	15.57
605.545	15.6
605.737	15.66
605.93	15.73
606.123	15.87
606.316	16.14
606.508	16.26
606.701	16.43
606.894	16.56
607.086	16.78
607.279	17.09
607.471	17.16
607.664	17.39
607.857	17.66
608.049	17.85
608.242	18.05
608.434	18.2
608.627	18.63
608.819	19.26
609.012	19.79
609.204	20.47
609.397	21.24
609.589	22.22
609.782	23.17
609.974	24.02
610.166	25.08
610.359	26.02
610.551	27.05
610.743	27.84
610.936	28.61
611.128	29.04
611.32	29.35
611.513	29.52
611.705	29.6
611.897	29.45
612.09	29.16
612.282	28.82
612.474	28.23
612.666	27.64
612.858	27.22
613.051	26.59
613.243	26.28
613.435	25.83
613.627	25.18
613.819	24.55
614.011	23.97
614.203	23.72
614.395	23.2
614.588	22.85
614.78	22.35
614.972	21.75
615.164	21.36
615.356	20.8
615.548	20.45
615.74	20.19
615.932	20
616.124	19.83
616.315	19.5
616.507	19.39
616.699	19.17
616.891	19.22
617.083	18.92
617.275	18.85
617.467	18.96
617.659	18.85
617.85	18.87
618.042	18.65
618.234	18.43
618.426	18.2
618.618	17.93
618.809	18.09
619.001	17.92
619.193	18.08
619.384	17.86
619.576	17.74
619.768	17.84
619.959	17.61
620.151	17.63
620.343	17.93
620.534	18.23
620.726	18.31
620.917	17.94
621.109	17.78
621.301	17.85
621.492	17.9
621.684	18.05
621.875	17.81
622.067	17.93
622.258	18.06
622.45	17.84
622.641	17.78
622.832	17.84
623.024	18.11
623.215	18.35
623.407	18.42
623.598	18.42
623.789	18.3
623.981	18.47
624.172	18.5
624.363	18.49
624.555	18.53
624.746	18.63
624.937	18.56
625.129	18.31
625.32	18.23
625.511	18.18
625.702	18.32
625.893	18.2
626.085	18.07
626.276	18.06
626.467	18.01
626.658	18.09
626.849	17.93
627.04	17.9
627.231	17.96
627.422	17.97
627.614	17.84
627.805	17.66
627.996	17.5
628.187	17.58
628.378	17.84
628.569	18.03
628.76	18.04
628.951	18.15
629.142	18.23
629.332	18.36
629.523	18.59
629.714	18.83
629.905	19.08
630.096	19.32
630.287	19.3
630.478	19.16
630.669	18.97
630.859	19.01
631.05	18.88
631.241	19.08
631.432	19.13
631.623	19.02
631.813	18.83
632.004	18.68
632.195	18.63
632.385	18.66
632.576	18.56
632.767	18.58
632.957	18.4
633.148	18.39
633.339	18.1
633.529	17.95
633.72	17.78
633.91	17.77
634.101	17.57
634.292	17.65
634.482	17.69
634.673	17.42
634.863	17.11
635.054	16.96
635.244	16.94
635.435	17.12
635.625	17.09
635.815	17.06
636.006	16.92
636.196	16.85
636.387	16.56
636.577	16.42
636.767	16.42
636.958	16.75
637.148	16.89
637.338	16.87
637.529	16.82
637.719	16.86
637.909	16.73
638.099	16.87
638.29	17.04
638.48	17.28
638.67	17.3
638.86	17.48
639.05	17.5
639.241	17.66
639.431	17.75
639.621	17.55
639.811	17.46
640.001	17.69
640.191	17.73
640.381	17.8
640.571	17.7
640.761	17.76
640.951	17.77
641.141	17.75
641.331	17.55
641.521	17.43
641.711	17.49
641.901	17.65
642.091	17.34
642.281	17.26
642.471	17
642.661	17.19
642.851	17.25
643.041	17.41
643.231	17.5
643.42	17.63
643.61	17.63
643.8	17.55
643.99	17.65
644.18	17.58
644.369	17.46
644.559	17.52
644.749	17.18
644.939	16.89
645.128	16.85
645.318	16.72
645.508	16.56
645.697	16.3
645.887	16.26
646.076	16.23
646.266	16.38
646.456	16.71
646.645	16.95
646.835	17.18
647.024	17.31
647.214	17.19
647.403	16.93
647.593	16.98
647.782	17.28
647.972	17.38
648.161	17.55
648.351	17.68
648.54	17.63
648.73	17.84
648.919	17.8
649.108	17.9
649.298	17.96
649.487	18.19
649.677	18.3
649.866	18.21
650.055	18.23
650.244	18.02
650.434	18.03
650.623	17.98
650.812	17.86
651.002	18.21
651.191	18.21
651.38	18.07
651.569	18.24
651.758	18.02
651.947	18.08
652.137	18.13
652.326	18.2
652.515	18.03
652.704	17.91
652.893	17.75
653.082	17.41
653.271	17.42
653.46	17.66
653.649	17.37
653.838	17.43
654.027	17.59
654.216	17.64
654.405	17.62
654.594	17.84
654.783	17.96
654.972	18.22
655.161	18.17
655.35	18.14
655.539	18.22
655.728	18.35
655.916	18.36
656.105	18.02
656.294	18.01
656.483	17.94
656.672	17.81
656.86	17.69
657.049	17.34
657.238	17.42
657.427	17.23
657.615	16.96
657.804	17.04
657.993	17.05
658.181	17.14
658.37	17.02
658.559	16.96
658.747	16.86
658.936	16.88
659.125	16.86
659.313	16.89
659.502	17.04
659.69	17.15
659.879	17.15
660.067	17.32
660.256	17.44
660.444	17.35
660.633	17.35
660.821	17.47
661.01	17.54
661.198	17.7
661.387	17.71
661.575	17.67
661.763	17.81
661.952	17.87
662.14	17.66
662.328	17.91
662.517	18.21
662.705	18.22
662.893	18.31
663.082	18.36
663.27	18.49
663.458	18.45
663.646	18.65
663.834	18.54
664.023	18.37
664.211	18.55
664.399	18.46
664.587	18.35
664.775	18.32
664.963	18.44
665.152	18.23
665.34	18.06
665.528	18.14
665.716	18.5
665.904	18.61
666.092	18.95
666.28	18.47
666.468	18.23
666.656	18.16
666.844	18.57
667.032	18.36
667.22	18.59
667.408	18.75
667.596	18.64
667.784	18.1
667.971	18.03
668.159	17.67
668.347	17.99
668.535	17.92
668.723	17.98
668.911	17.89
669.098	18.05
669.286	17.94
669.474	17.59
669.662	17.48
669.849	17.43
670.037	17.4
670.225	17.69
670.413	17.76
670.6	17.88
670.788	17.65
670.976	17.49
671.163	17.39
671.351	17.55
671.538	17.79
671.726	18.1
671.913	18.32
672.101	18.37
672.289	18.16
672.476	18
672.664	18.09
672.851	18.16
673.039	18.32
673.226	18.42
673.413	18.38
673.601	18.36
673.788	18.14
673.976	18.08
674.163	18.06
674.35	18.32
674.538	18.23
674.725	18.14
674.912	18.26
675.1	18.24
675.287	18.12
675.474	18.05
675.662	18.22
675.849	18.38
676.036	18.3
676.223	18.2
676.411	18.14
676.598	18.1
676.785	18
676.972	17.85
677.159	17.68
677.346	17.79
677.533	17.87
677.721	17.72
677.908	17.38
678.095	17.45
678.282	17.44
678.469	17.32
678.656	17.65
678.843	17.81
679.03	18.09
679.217	17.92
679.404	17.91
679.591	17.75
679.778	17.76
679.964	18.08
680.151	18.12
680.338	18.26
680.525	18.18
680.712	18.02
680.899	17.99
681.086	17.73
681.272	17.78
681.459	17.73
681.646	17.87
681.833	17.72
682.02	17.46
682.206	17.03
682.393	16.89
682.58	17.09
682.766	17.36
682.953	17.31
683.14	17.46
683.326	17.45
683.513	17.37
683.7	17.42
683.886	17.78
684.073	17.81
684.259	18.33
684.446	18.32
684.632	17.9
684.819	17.83
685.005	17.85
685.192	17.91
685.378	18.2
685.565	18.25
685.751	18.25
685.938	18.24
686.124	18.4
686.31	18.18
686.497	18.37
686.683	18.89
686.87	18.73
687.056	19.16
687.242	18.98
687.429	18.86
687.615	19.03
687.801	18.87
687.987	18.86
688.174	18.75
688.36	19.21
688.546	19.09
688.732	18.95
688.918	19.08
689.105	18.76
689.291	18.99
689.477	19.1
689.663	19.16
689.849	19.18
690.035	19.04
690.221	18.71
690.407	18.4
690.593	18.43
690.779	18.4
690.965	18.47
691.151	18.47
691.337	18.61
691.523	18.67
691.709	18.69
691.895	18.42
692.081	18.44
692.267	19.11
692.453	19.28
692.639	19.36
692.825	19.27
693.011	19.15
693.196	19.43
693.382	19.18
693.568	19.25
693.754	19.26
693.94	19.62
694.125	19.85
694.311	19.58
694.497	19.43
694.682	19.4
694.868	19.18
695.054	19.3
695.239	18.77
695.425	18.67
695.611	18.52
695.796	18.5
695.982	18.55
696.168	18.68
696.353	18.7
696.539	18.41
696.724	18.55
696.91	18.87
697.095	18.63
697.281	18.71
697.466	18.71
697.652	18.3
697.837	18.18
698.023	18.25
698.208	17.6
698.393	17.35
698.579	17.46
698.764	17.46
698.949	17.41
699.135	17.56
699.32	17.5
699.505	17.71
699.691	18
699.876	17.8
700.061	17.35
700.246	17.85
700.432	18.22
700.617	18.01
700.802	17.62
700.987	17.41
701.172	17.13
701.358	17.22
701.543	17.15
701.728	17.16
701.913	17.31
702.098	17.62
702.283	18.03
702.468	17.83
702.653	18.25
702.838	18.32
703.023	18.45
703.208	19.05
703.393	19.46
703.578	19.7
703.763	19.94
703.948	20.19
704.133	20.54
704.318	19.62
704.503	19.77
704.688	19.71
704.873	20.41
705.057	20.81
705.242	21.08
705.427	21.15
705.612	20.84
705.797	20.98
705.981	21.25
706.166	21.71
706.351	22.2
706.536	22.64
706.72	23.14
706.905	23.17
707.09	23.29
707.274	23.21
707.459	23.16
707.644	23.76
707.828	23.55
708.013	23.48
708.197	23.45
708.382	23.4
708.567	22.87
708.751	22.56
708.936	22.15
709.12	21.71
709.305	21.37
709.489	21.27
709.673	20.86
709.858	21.07
710.042	20.71
710.227	20.2
710.411	20.2
710.596	20.6
710.78	20.55
710.964	20.74
711.149	21.12
711.333	21.27
711.517	21.18
711.702	21.46
711.886	21.08
712.07	21.51
712.254	21.78
712.438	21.91
712.623	21.61
712.807	21.59
712.991	21.34
713.175	21.09
713.359	20.89
713.544	20.44
713.728	19.73
713.912	20.12
714.096	20.06
714.28	19.81
714.464	19.67
714.648	19.54
714.832	19.59
715.016	19.73
715.2	19.41
715.384	19.65
715.568	19.89
715.752	20.11
715.936	19.52
716.12	19.43
716.304	19.27
716.488	19.23
716.671	19.26
716.855	18.85
717.039	18.63
717.223	18.62
717.407	18.34
717.59	17.88
717.774	17.81
717.958	17.58
718.142	17.63
718.325	17.71
718.509	17.58
718.693	17.59
718.877	17.64
719.06	17.83
719.244	17.97
719.428	17.63
719.611	18.05
719.795	18.02
719.978	18.67
720.162	18.82
720.345	19.11
720.529	19.32
720.713	19.64
720.896	19.96
721.08	19.84
721.263	20.29
721.446	20.24
721.63	20.6
721.813	20.87
721.997	20.55
722.18	20.26
722.364	19.91
722.547	20.07
722.73	19.98
722.914	20.28
723.097	20.17
723.28	20.32
723.464	20.74
723.647	20.92
723.83	20.91
724.013	21.13
724.197	21.07
724.38	21.17
724.563	21.22
724.746	20.78
724.929	20.5
725.112	20.68
725.296	20.11
725.479	19.97
725.662	19.67
725.845	19.41
726.028	19.19
726.211	19.21
726.394	18.97
726.577	18.26
726.76	18.45
726.943	17.96
727.126	17.97
727.309	17.92
727.492	17.12
727.675	16.98
727.858	16.81
728.041	16.98
728.224	17.17
728.407	17.63
728.589	17.81
728.772	17.68
728.955	18.21
729.138	17.94
729.321	18.16
729.503	19.25
729.686	19.51
729.869	19.65
730.052	19.85
730.234	20
730.417	19.73
730.6	19.99
730.782	20.29
730.965	20.32
731.148	19.89
731.33	19.78
731.513	19.56
731.695	19.59
731.878	19.68
732.061	19.45
732.243	19.35
732.426	19.44
732.608	19.92
732.791	20.02
732.973	20.1
733.156	20.91
733.338	21.15
733.52	21.58
733.703	21.61
733.885	22.11
734.068	22.35
734.25	22.35
734.432	22.05
734.615	21.57
734.797	21.42
734.979	21.23
735.162	20.94
735.344	20.58
735.526	19.9
735.708	19.92
735.891	19.27
736.073	19.2
736.255	19.03
736.437	19.6
736.619	19.81
736.802	19.77
736.984	19.67
737.166	19.56
737.348	19.78
737.53	20.16
737.712	20.13
737.894	20.71
738.076	20.68
738.258	20.62
738.44	20.63
738.622	19.92
738.804	19.89
738.986	19.98
739.168	20.42
739.35	20.49
739.532	20.82
739.714	20.77
739.896	20.51
740.078	20.78
740.259	20.93
740.441	20.9
740.623	21.59
740.805	22.37
740.987	22.26
741.168	21.81
741.35	22.04
741.532	22.05
741.714	21.64
741.895	21.68
742.077	22.04
742.259	21.77
742.44	21.38
742.622	21.35
742.804	21.41
742.985	21.56
743.167	21.92
743.348	22.13
743.53	21.3
743.711	22.12
743.893	21.79
744.075	21.59
744.256	21.86
744.438	21.92
744.619	22.02
744.8	21.48
744.982	21.31
745.163	21.12
745.345	20.65
745.526	21.1
745.707	20.97
745.889	21.45
746.07	21.39
746.252	21.13
746.433	21.74
746.614	21.68
746.795	21.92
746.977	22.1
747.158	22.05
747.339	22.64
747.52	22.8
747.702	22.58
747.883	22.41
748.064	22.03
748.245	22.34
748.426	22.4
748.607	22.85
748.788	22.14
748.97	22.18
749.151	22.03
749.332	21.87
749.513	21.43
749.694	21.13
749.875	20.83
750.056	21.22
750.237	20.53
750.418	20.78
750.599	19.95
750.78	19.97
750.96	19.57
751.141	20.06
751.322	20.19
751.503	20.28
751.684	20.02
751.865	20.19
752.046	20.16
752.226	21.8
752.407	21.26
752.588	20.89
752.769	21.12
752.949	20.71
753.13	20.39
753.311	19.73
753.492	20.16
753.672	20.93
753.853	21.37
754.034	20.61
754.214	19.36
754.395	19.3
754.575	19.76
754.756	20.22
754.937	20.92
755.117	21.33
755.298	21.61
755.478	21.84
755.659	21.37
755.839	20.92
756.02	21.09
756.2	21.62
756.381	21.63
756.561	21.81
756.741	21.32
756.922	21.66
757.102	21.88
757.283	21.46
757.463	20.67
757.643	19.94
757.823	19.53
758.004	20
758.184	20.02
758.364	20.15
758.545	19.95
758.725	19.44
758.905	19.02
759.085	18.46
759.265	18.52
759.446	18.21
759.626	18.83
759.806	19.17
759.986	18.7
760.166	17.82
760.346	17.08
760.526	16.78
760.706	18.38
760.886	18.42
761.066	18.84
761.246	19.23
761.426	19.83
761.606	19.88
761.786	19.81
761.966	20.32
762.146	20.7
762.326	20.95
762.506	21.88
762.686	21.13
762.866	20.56
763.046	20.72
763.225	20.24
763.405	20.28
763.585	20.43
763.765	20.52
763.945	20.43
764.124	20.13
764.304	20.31
764.484	19.56
764.664	19.37
764.843	20.28
765.023	20.08
765.203	19.84
765.382	19.71
765.562	19.16
765.741	19.01
765.921	18.51
766.101	18.67
766.28	17.88
766.46	18.2
766.639	18.58
766.819	17.75
766.998	17.77
767.178	18.22
767.357	18.47
767.537	19.56
767.716	20.51
767.896	20.8
768.075	21.97
768.254	22.8
768.434	23.4
768.613	23.71
768.792	24.09
768.972	24.41
769.151	24.39
769.33	23.91
769.51	23.02
769.689	22.2
769.868	22.28
770.047	21.25
770.226	21.62
770.406	21.45
770.585	21.13
770.764	21.4
770.943	20.84
771.122	21.41
771.301	22.52
771.48	22.83
771.66	23.43
771.839	23.93
772.018	24.26
772.197	24.07
772.376	24.36
772.555	23.99
772.734	24.32
772.913	24.63
773.092	24.35
773.271	23.93
773.449	24.75
773.628	24.45
773.807	23.38
773.986	23.52
774.165	23.28
774.344	22.6
774.523	22.99
774.701	23.07
774.88	22.8
775.059	22.94
775.238	22.48
775.417	21.06
775.595	20.41
775.774	20.85
775.953	20.75
776.131	20.96
776.31	21.17
776.489	20.49
776.667	19.74
776.846	20.53
777.025	20.78
777.203	20.86
777.382	22.54
777.56	23.1
777.739	22.73
777.917	23.05
778.096	23.17
778.274	23.31
778.453	23.73
778.631	24.16
778.81	23.59
778.988	23.33
779.166	22.39
779.345	22.61
779.523	22.45
779.702	24.02
779.88	23.46
780.058	23.27
780.237	23.19
780.415	23.36
780.593	23.93
780.771	23.52
780.95	23.08
781.128	24.19
781.306	23.51
781.484	23.78
781.662	23.38
781.841	23.62
782.019	23.38
782.197	23.87
782.375	23.59
782.553	22.64
782.731	23.72
782.909	24.26
783.087	25.18
783.265	25.2
783.443	25.85
783.621	25.54
783.799	25.22
783.977	25.03
784.155	23.47
784.333	23.18
784.511	23.64
784.689	22.24
784.867	23.02
785.045	21.9
785.223	22.47
785.4	21.71
785.578	20.6
785.756	20.21
785.934	20.94
786.112	22.35
786.289	23.61
786.467	22.93
786.645	24.04
786.823	23.36
787	23.38
787.178	22.05
787.356	22.45
787.533	22.66
787.711	22.66
787.889	22.24
788.066	21.76
788.244	20.71
788.421	21.14
788.599	20.73
788.776	20.69
788.954	20.86
789.131	21.5
789.309	21.83
789.486	22.28
789.664	23.27
789.841	23.28
790.019	23.03
790.196	22.92
790.373	23.78
790.551	23.7
790.728	24.16
790.906	23.27
791.083	22.67
791.26	21.62
791.437	23.15
791.615	23.46
791.792	24.39
791.969	24.87
792.146	25.47
792.324	24.73
792.501	24.82
792.678	24.69
792.855	25.58
793.032	25
793.209	26.14
793.387	24.46
793.564	23.07
793.741	22.32
793.918	22.74
794.095	23.29
794.272	22.85
794.449	23.65
794.626	23.79
794.803	23.47
794.98	24.82
795.157	24.66
795.334	24.96
795.511	26.65
795.688	26.65
795.864	25.69
796.041	25.07
796.218	25.12
796.395	25.16
796.572	24.3
796.749	24.47
796.925	24.45
797.102	24.43
797.279	24.39
797.456	23.89
797.632	25.17
797.809	25.18
797.986	26.17
798.162	26.11
798.339	25.17
798.516	27.09
798.692	27.31
798.869	27.76
799.046	27.48
799.222	27.56
799.399	28.44
799.575	27.8
799.752	28.14
799.928	27.04
800.105	27.05
800.281	27.55
800.458	26.01
800.634	26.01
800.811	25.26
800.987	25.68
801.163	24.65
801.34	23.66
801.516	23.76
801.692	24.18
801.869	25.32
802.045	27.1
802.221	26.86
802.398	27.75
802.574	28.32
802.75	28.55
802.926	26.94
803.103	29.05
803.279	29.7
803.455	29.22
803.631	29.5
803.807	28.93
803.983	29.28
804.16	28.96
804.336	28.98
804.512	27.9
804.688	27.45
804.864	28.48
805.04	27.82
805.216	27.02
805.392	25.56
805.568	24.45
805.744	25.4
805.92	23.46
806.096	25.09
806.272	24.71
806.448	25.28
806.623	26.8
806.799	26.85
806.975	27.63
807.151	28.97
807.327	30.08
807.503	31.94
807.678	30.69
807.854	30.69
808.03	29.92
808.206	29.62
808.381	30.18
808.557	30.35
808.733	30.65
808.908	31.4
809.084	29.54
809.26	30.08
809.435	29.71
809.611	29.86
809.787	29.89
809.962	29.33
810.138	29.7
810.313	29.17
810.489	28.07
810.664	27.04
810.84	25.91
811.015	26.66
811.191	27.4
811.366	25.2
811.542	26.08
811.717	26.43
811.892	25.95
812.068	25.16
812.243	25.43
812.419	25.52
812.594	24.98
812.769	24.68
812.944	25.62
813.12	25.19
813.295	26.14
813.47	25.41
813.645	26.08
813.821	27.59
813.996	26.64
814.171	25.11
814.346	24.95
814.521	26.42
814.697	25.34
814.872	25.29
815.047	24.93
815.222	24.55
815.397	25.45
815.572	24.39
815.747	23.96
815.922	24.92
816.097	25.56
816.272	25.54
816.447	25.75
816.622	28.03
816.797	27.31
816.972	28.04
817.147	27.51
817.322	26.73
817.496	27.5
817.671	26.76
817.846	27.23
818.021	26.14
818.196	24.92
818.371	25.61
818.545	24.68
818.72	21.55
818.895	21.51
819.069	22.43
819.244	21.47
819.419	21.15
819.594	21.43
819.768	20.36
819.943	20.59
820.117	21.37
820.292	19.9
820.467	19.05
820.641	19.42
820.816	18.7
820.99	18.26
821.165	18.43
821.339	17.55
821.514	17.16
821.688	17.53
821.863	17.64
822.037	17.38
822.212	17.4
822.386	17.44
822.56	17.75
822.735	17.49
822.909	17.46
823.084	17.4
823.258	17.81
823.432	18.24
823.606	18.13
823.781	18.35
823.955	18.48
824.129	18.93
824.303	18.95
824.478	18.89
824.652	19.28
824.826	19.82
825	20.26
825.174	20.61
825.348	20.37
825.523	20.3
825.697	20.32
825.871	20.32
826.045	19.92
826.219	19.81
826.393	20.32
826.567	19.72
826.741	19.71
826.915	19.23
827.089	19.59
827.263	19.93
827.437	20.4
827.611	20.25
827.784	20.56
827.958	20.4
828.132	20.81
828.306	20.78
828.48	21.67
828.654	21.58
828.827	21.76
829.001	21.41
829.175	20.96
829.349	21.14
829.522	21.81
829.696	21.57
829.87	21.83
830.044	21.92
830.217	23.34
830.391	22.86
830.565	23.22
830.738	24.16
830.912	23.72
831.085	24.23
831.259	23.53
831.432	22.97
831.606	23
831.779	22.19
831.953	22.53
832.126	19.58
832.3	20.53
832.473	20.15
832.647	19.61
832.82	19.58
832.994	19.22
833.167	19.71
833.34	19.9
833.514	19.55
833.687	20.79
833.86	20.9
834.034	21.55
834.207	21.73
834.38	22.34
834.553	22.71
834.727	23.41
834.9	23.54
835.073	23.61
835.246	23.11
835.419	24.51
835.593	24.75
835.766	24.9
835.939	25.59
836.112	25.34
836.285	24.33
836.458	25.04
836.631	24.89
836.804	26.27
836.977	25.91
837.15	27.19
837.323	25.3
837.496	22.83
837.669	24.75
837.842	24.4
838.015	25.2
838.188	28.7
838.361	28.1
838.533	27.39
838.706	26.54
838.879	27.68
839.052	26.25
839.225	27.96
839.398	31.37
839.57	30.11
839.743	30.15
839.916	30.79
840.088	30.15
840.261	30.39
840.434	29.24
840.607	28.52
840.779	27.98
840.952	30.21
841.124	28.63
841.297	27.18
841.47	27.5
841.642	29.21
841.815	29.25
841.987	26.26
842.16	27.15
842.332	29.8
842.505	30.57
842.677	31.51
842.85	29.64
843.022	33.08
843.194	34.76
843.367	34.6
843.539	32.38
843.712	32.46
843.884	33.7
844.056	31.98
844.229	31.39
844.401	28.49
844.573	31.09
844.745	30.88
844.918	32.73
845.09	30.1
845.262	28.64
845.434	29.65
845.606	33.87
845.779	36.34
845.951	34.89
846.123	35.54
846.295	35.38
846.467	35.37
846.639	38.87
846.811	35.86
846.983	40.47
847.155	39.56
847.327	41.05
847.499	34.67
847.671	37.42
847.843	36.19
848.015	35.8
848.187	39.69
848.359	39.37
848.531	38.9
848.703	41.6
848.875	43.56
849.047	45.52
849.218	48.98
849.39	53.33
849.562	52.47
849.734	54.32
849.905	57.11
850.077	59.43
850.249	60.63
850.421	57.97
850.592	56.55
850.764	55.56
850.936	54.36
851.107	52.85
851.279	50.67
851.451	49.13
851.622	55.61
851.794	56.33
851.965	55.98
852.137	53.16
852.308	51.9
852.48	52.84
852.651	46.45
852.823	47.34
852.994	46.56
853.166	43.51
853.337	41.78
853.509	34.57
853.68	30.9
853.851	27.65
854.023	32.65
854.194	37.06
854.365	39.15
854.537	43.49
854.708	47.86
854.879	44.43
855.05	46.44
855.222	46.01
855.393	52.49
855.564	51.5
855.735	58.37
855.906	57.03
856.078	55.5
856.249	52.26
856.42	53.06
856.591	49.29
856.762	48.09
856.933	49.57
857.104	54.51
857.275	45.45
857.446	43.36
857.617	38.94
857.788	35.65
857.959	38.16
858.13	34
858.301	34.8
858.472	32.82
858.643	36.15
858.814	35.47
858.985	38.49
859.155	43.37
859.326	47.98
859.497	48.39
859.668	52.73
859.839	55.35
860.009	58.97
860.18	53.65
860.351	54.4
860.522	53.58
860.692	52.35
860.863	45.75
861.034	44.73
861.204	43.71
861.375	42.21
861.546	37.81
861.716	36.43
861.887	44.34
862.057	52.08
862.228	53.3
862.398	62.42
862.569	62.61
862.739	67.13
862.91	63.64
863.08	61.42
863.251	56
863.421	56.47
863.592	52.37
863.762	47.22
863.932	44.19
864.103	43.58
864.273	38.85
864.443	43.87
864.614	41.8
864.784	47.96
864.954	45.66
865.125	53.26
865.295	54.27
865.465	54.16
865.635	52.33
865.805	52.42
865.976	55.62
866.146	54.04
866.316	51.87
866.486	52.43
866.656	47.34
866.826	52.75
866.996	58.03
867.166	59.58
867.336	67.79
867.506	61.92
867.676	65.36
867.846	64.75
868.016	74.4
868.186	73.43
868.356	72.8
868.526	74.03
868.696	65.87
868.866	47.31
869.036	44.54
869.206	36.36
869.376	31.85
869.545	30.63
869.715	32.38
869.885	24.92
870.055	30.5
870.224	27.9
870.394	26.75
870.564	36.05
870.734	45.43
870.903	52.76
871.073	58.88
871.243	59.72
871.412	50.79
871.582	50.73
871.751	56.1
871.921	53.15
872.091	59.87
872.26	55.89
872.43	54.71
872.599	56.5
872.769	45.93
872.938	32.56
873.108	42.38
873.277	49.83
873.446	48.4
873.616	44.41
873.785	44.41
873.955	38.86
874.124	42.5
874.293	50.43
874.463	45.15
874.632	50.97
874.801	63.17
874.971	55.35
875.14	54.57
875.309	54.89
875.478	53.21
875.647	49.31
875.817	53.71
875.986	52.3
876.155	44.29
876.324	47.85
876.493	48.01
876.662	46.36
876.831	47.19
877	46.67
877.17	42.79
877.339	40.64
877.508	43
877.677	44.41
877.846	47.4
878.015	44.95
878.184	43.66
878.352	40.93
878.521	37.56
878.69	41.21
878.859	39.03
879.028	41.3
879.197	40.25
879.366	40.48
879.534	38.29
879.703	35.07
879.872	33.39
880.041	30.97
880.21	30.27
880.378	30.24
880.547	28.5
880.716	27.35
880.884	26.01
881.053	25.62
881.222	23.3
881.39	22.53
881.559	21.87
881.727	21.66
881.896	20.63
882.065	20.27
882.233	19.45
882.402	18.65
882.57	19.29
882.739	18.31
882.907	18.1
883.076	18.85
883.244	18.63
883.412	18.8
883.581	19.42
883.749	21.03
883.918	20.7
884.086	21.1
884.254	23.03
884.423	22.82
884.591	24.17
884.759	25.34
884.927	26.53
885.096	27.39
885.264	29.44
885.432	30.64
885.6	29.18
885.769	29.75
885.937	32.89
886.105	30.36
886.273	32.96
886.441	34.22
886.609	35.9
886.777	36
886.945	34.91
887.113	31.21
887.281	31.13
887.449	34.55
887.617	37.18
887.785	32.91
887.953	35.92
888.121	31.59
888.289	30.46
888.457	27.79
888.625	28.5
888.793	33.33
888.961	34.81
889.129	38.36
889.296	36.83
889.464	38.8
889.632	43.6
889.8	44.07
889.967	46.63
890.135	51.19
