Data from 2938814__Reflection_03.txt Node
Date: Thu Mar 12 16:00:32 EDT 2015
User: robert
Spectrometer: USB4E03002
Autoset integration time: false
Trigger mode: 4
Integration Time (sec): 1.000000E-1
Scans to average: 10
Electric dark correction enabled: false
Nonlinearity correction enabled: false
Boxcar width: 5
Stray light correction enabled: false
XAxis mode: Wavelengths
Stop averaging: false
Number of Pixels in Spectrum: 3648
>>>>>Begin Spectral Data<<<<<
177.575	-2369.05
177.794	-1913.85
178.014	-1092.74
178.233	-5067.74
178.452	2485.9
178.672	-6929.03
178.891	-1137.7
179.11	-1122.28
179.33	-1361.45
179.549	-1545.95
179.768	-11177.27
179.987	-8439.29
180.207	-1388.48
180.426	3831.25
180.645	-2629.9
180.864	-2034.75
181.084	3964.06
181.303	1500.57
181.522	8543.75
181.741	0
181.96	70125
182.179	-10603.7
182.398	-5922
182.618	3206.32
182.837	-4001.35
183.056	-4913.56
183.275	-4855.74
183.494	-8851.52
183.713	4968.85
183.932	2038.62
184.151	1982.55
184.37	803.4
184.589	703.38
184.808	552.06
185.027	399.7
185.246	434.41
185.465	339.15
185.684	380.64
185.903	422.69
186.122	493.14
186.341	515.94
186.56	481.71
186.779	539.26
186.998	759.83
187.216	726.12
187.435	1220.7
187.654	962.12
187.873	1379.8
188.092	1125.32
188.311	782.04
188.53	655.09
188.748	549.9
188.967	584.28
189.186	1105.78
189.405	614.25
189.623	628.4
189.842	679.89
190.061	674.54
190.28	701.97
190.498	697.98
190.717	1542.17
190.936	1985
191.154	1396.65
191.373	1242
191.592	2075.21
191.81	-79966.67
192.029	-1756.62
192.248	-953.11
192.466	-663.04
192.685	-968.67
192.904	-829.78
193.122	-653.77
193.341	-713.89
193.559	-705.28
193.778	-627.5
193.996	-3410.77
194.215	5668.42
194.433	740.57
194.652	461.79
194.87	433.65
195.089	534.66
195.307	638.98
195.526	494.93
195.744	482.66
195.963	443.63
196.181	469.87
196.399	517.34
196.618	547.05
196.836	728.99
197.055	1200
197.273	932.7
197.491	727.65
197.71	478.81
197.928	464.25
198.146	480.97
198.365	784.22
198.583	819.95
198.801	905.03
199.019	1101.42
199.238	830.85
199.456	594.93
199.674	696.66
199.892	810.69
200.111	926.78
200.329	733.24
200.547	609.57
200.765	537.17
200.983	562.02
201.202	493.97
201.42	445.15
201.638	533.52
201.856	615.86
202.074	491.65
202.292	418.13
202.51	823.5
202.728	932.38
202.946	1261.06
203.165	798.55
203.383	780.66
203.601	881.67
203.819	1256.28
204.037	978.99
204.255	719.21
204.473	962.41
204.691	3875.76
204.909	806.4
205.127	930.74
205.345	603.75
205.562	398.53
205.78	408.92
205.998	352.46
206.216	320.52
206.434	310.98
206.652	324.26
206.87	310.6
207.088	300.32
207.306	258.85
207.523	235.73
207.741	238.88
207.959	382.4
208.177	355.89
208.395	363.59
208.612	348.87
208.83	418.96
209.048	496.45
209.266	507.41
209.483	337.5
209.701	366.43
209.919	403.62
210.136	527.62
210.354	422.15
210.572	393.53
210.79	376.53
211.007	427.13
211.225	369.57
211.442	305.73
211.66	267.65
211.878	275.9
212.095	173.66
212.313	172.05
212.53	182
212.748	149.46
212.966	140.57
213.183	132.46
213.401	127.03
213.618	132.2
213.836	132.47
214.053	143.36
214.271	171.44
214.488	311.32
214.705	294.77
214.923	252.5
215.14	263.89
215.358	273.69
215.575	319.3
215.793	281.92
216.01	270.34
216.227	253.83
216.445	265.7
216.662	231.93
216.879	207.15
217.097	213.32
217.314	212.11
217.531	219.46
217.749	221.48
217.966	197.68
218.183	204.87
218.4	199.44
218.618	217.01
218.835	197.11
219.052	197.45
219.269	198.07
219.487	192.03
219.704	197.23
219.921	204.76
220.138	189.89
220.355	187.66
220.572	171.23
220.79	166.74
221.007	161.79
221.224	161.9
221.441	164.96
221.658	167.22
221.875	154.11
222.092	137.73
222.309	130.65
222.526	126.89
222.743	126.56
222.96	116.83
223.177	111.13
223.394	97
223.611	92.58
223.828	91.23
224.045	87.03
224.262	91.21
224.479	86.56
224.696	80.17
224.913	81.27
225.13	77.94
225.347	78.22
225.564	77.72
225.781	76.09
225.997	70.78
226.214	62.65
226.431	61.29
226.648	55.1
226.865	49.55
227.082	44.84
227.298	37.8
227.515	34
227.732	31.34
227.949	28.12
228.165	25.37
228.382	24.37
228.599	23.95
228.816	22.19
229.032	20.69
229.249	20.08
229.466	20.14
229.682	20.79
229.899	21.15
230.116	19.96
230.332	19.94
230.549	21.69
230.765	21.4
230.982	21.61
231.199	22.23
231.415	23.37
231.632	24.78
231.848	24.87
232.065	24.63
232.281	27.06
232.498	28.59
232.714	29.56
232.931	29.35
233.147	32.4
233.364	32.79
233.58	31.64
233.797	32.1
234.013	30.6
234.23	29.73
234.446	28.38
234.662	25.5
234.879	26.34
235.095	26.28
235.312	25.63
235.528	25.48
235.744	25.69
235.961	27.43
236.177	28.8
236.393	30.42
236.61	30.69
236.826	32.68
237.042	33.05
237.258	34.21
237.475	34.69
237.691	35.61
237.907	34.95
238.123	35.43
238.339	34.97
238.556	34.67
238.772	34.58
238.988	34.95
239.204	33.98
239.42	33.7
239.636	32.79
239.853	31.19
240.069	29.42
240.285	28.35
240.501	25.77
240.717	23.78
240.933	20.97
241.149	18.93
241.365	18.47
241.581	17.67
241.797	17.14
242.013	15.7
242.229	14.95
242.445	14.48
242.661	14.08
242.877	13.98
243.093	13.96
243.309	14.21
243.525	14.72
243.741	14.67
243.957	14.89
244.173	14.81
244.388	16.07
244.604	16.53
244.82	16.09
245.036	15.8
245.252	15.03
245.468	14.61
245.683	14.54
245.899	13.68
246.115	12.85
246.331	12.25
246.547	11.63
246.762	11.12
246.978	10.88
247.194	10.88
247.409	10.59
247.625	10.56
247.841	10.11
248.057	9.95
248.272	9.91
248.488	9.94
248.703	10.35
248.919	10.96
249.135	11.1
249.35	11.03
249.566	11.7
249.782	12.33
249.997	13.05
250.213	14.1
250.428	14.2
250.644	14.47
250.859	14.13
251.075	14.55
251.29	13.91
251.506	13.91
251.721	14.77
251.937	15.04
252.152	14.79
252.368	14.65
252.583	14.95
252.798	15.24
253.014	16.09
253.229	16.77
253.445	17.32
253.66	18.46
253.875	18.57
254.091	18.21
254.306	18.48
254.521	19.22
254.737	20.09
254.952	19.33
255.167	19.55
255.383	18.63
255.598	18.6
255.813	17.62
256.028	16.3
256.244	16.69
256.459	16.64
256.674	16.03
256.889	15.89
257.104	14.9
257.32	15.75
257.535	15.12
257.75	14.8
257.965	14.42
258.18	13.39
258.395	12.94
258.61	12.07
258.826	11.29
259.041	10.44
259.256	9.88
259.471	9.61
259.686	9
259.901	8.93
260.116	8.75
260.331	8.23
260.546	8.15
260.761	8.41
260.976	8.53
261.191	8.74
261.406	8.97
261.621	9.09
261.836	9.24
262.05	9.68
262.265	10.07
262.48	10.34
262.695	11.13
262.91	11.94
263.125	11.47
263.34	11.64
263.555	11.8
263.769	12.04
263.984	12.34
264.199	12.46
264.414	12.49
264.629	12.48
264.843	12.65
265.058	12.84
265.273	12.7
265.488	13.35
265.702	13.22
265.917	12.66
266.132	12.74
266.346	12.47
266.561	12.6
266.776	12.43
266.99	11.86
267.205	11.8
267.42	11.91
267.634	11.4
267.849	11.19
268.063	11.17
268.278	11.11
268.492	11.23
268.707	11.12
268.922	10.47
269.136	10.01
269.351	10.29
269.565	9.53
269.78	9.02
269.994	9.15
270.209	9.05
270.423	8.88
270.637	9.43
270.852	9.24
271.066	9.25
271.281	9.45
271.495	9.59
271.709	9.35
271.924	9.5
272.138	9.7
272.353	9.61
272.567	9.38
272.781	9.63
272.996	9.56
273.21	9.54
273.424	9.5
273.638	9.61
273.853	9.98
274.067	10.31
274.281	10.7
274.495	10.64
274.71	10.29
274.924	10.52
275.138	10.17
275.352	10.32
275.566	10.54
275.781	11.24
275.995	10.96
276.209	10.93
276.423	10.78
276.637	10.39
276.851	10.29
277.065	10.79
277.279	10.65
277.493	11.01
277.707	10.82
277.921	10.43
278.135	9.51
278.349	9.94
278.563	10.02
278.777	10.41
278.991	10.87
279.205	11.08
279.419	11.13
279.633	11.34
279.847	11.09
280.061	11.02
280.275	10.9
280.489	10.9
280.703	11.05
280.917	10.85
281.131	10.07
281.344	10.02
281.558	9.71
281.772	9.48
281.986	9.02
282.2	8.93
282.414	8.83
282.627	8.99
282.841	9.01
283.055	8.58
283.269	8.74
283.482	8.89
283.696	8.76
283.91	8.58
284.123	8.43
284.337	8.47
284.551	8.25
284.764	7.92
284.978	7.76
285.192	7.73
285.405	7.58
285.619	7.06
285.833	7.24
286.046	6.97
286.26	6.96
286.473	7.25
286.687	7.28
286.9	7.47
287.114	7.79
287.327	7.79
287.541	7.8
287.754	7.98
287.968	8.56
288.181	8.17
288.395	7.99
288.608	8.21
288.822	8.12
289.035	8.01
289.248	7.69
289.462	7.49
289.675	7.53
289.889	7.54
290.102	7.58
290.315	7.35
290.529	7.51
290.742	7.49
290.955	7.5
291.169	7.42
291.382	7.8
291.595	8.04
291.808	7.98
292.022	8.13
292.235	8.06
292.448	8.53
292.661	8.54
292.875	8.68
293.088	9.04
293.301	9.19
293.514	8.68
293.727	8.54
293.94	8.83
294.153	8.84
294.367	8.92
294.58	8.85
294.793	8.2
295.006	8.23
295.219	8.02
295.432	7.77
295.645	7.35
295.858	7.41
296.071	7.14
296.284	6.83
296.497	6.94
296.71	6.82
296.923	6.76
297.136	6.55
297.349	6.57
297.562	6.56
297.775	6.84
297.988	6.88
298.201	7.07
298.414	7.28
298.626	7.45
298.839	7.35
299.052	7.43
299.265	7.4
299.478	7.93
299.691	7.81
299.903	7.75
300.116	7.87
300.329	8.2
300.542	8.44
300.755	8.61
300.967	8.49
301.18	8.49
301.393	8.19
301.605	8.6
301.818	8.6
302.031	8.57
302.243	8.65
302.456	8.96
302.669	8.88
302.881	8.9
303.094	8.66
303.307	8.67
303.519	8.85
303.732	9.08
303.944	9.07
304.157	9.1
304.37	9.19
304.582	9.47
304.795	9.05
305.007	9.14
305.22	9.16
305.432	9.23
305.645	9.42
305.857	9.49
306.069	9.43
306.282	9.44
306.494	9.41
306.707	9.56
306.919	9.7
307.132	9.86
307.344	9.67
307.556	9.78
307.769	9.69
307.981	9.49
308.193	9.42
308.406	9.41
308.618	9.43
308.83	9.47
309.043	9.19
309.255	8.73
309.467	8.59
309.679	8.85
309.892	8.5
310.104	8.41
310.316	8.56
310.528	8.28
310.74	8.28
310.953	8.22
311.165	8.05
311.377	8.12
311.589	8.29
311.801	8.17
312.013	7.85
312.225	8.26
312.437	8.4
312.649	8.33
312.862	8.58
313.074	8.94
313.286	9.28
313.498	9.33
313.71	9.49
313.922	9.93
314.134	10.19
314.346	10.8
314.558	10.87
314.77	10.83
314.982	11.58
315.193	11.63
315.405	11.82
315.617	11.38
315.829	11.43
316.041	11.5
316.253	11.26
316.465	11.47
316.677	11.43
316.888	11.38
317.1	11.87
317.312	11.05
317.524	11.11
317.736	11.45
317.947	11.42
318.159	11.54
318.371	11.91
318.583	12.26
318.794	12.64
319.006	12.79
319.218	12.65
319.43	12.85
319.641	13.34
319.853	13.6
320.064	13.36
320.276	13.64
320.488	14.54
320.699	14.76
320.911	14.68
321.123	14.64
321.334	14.49
321.546	14.84
321.757	15.37
321.969	15.52
322.18	16.33
322.392	16.09
322.603	16.61
322.815	16.74
323.026	16.76
323.238	16.84
323.449	17.01
323.661	16.87
323.872	17.19
324.083	16.89
324.295	16.92
324.506	16.67
324.718	16.98
324.929	16.98
325.14	16.94
325.352	17.13
325.563	17.41
325.774	17.54
325.986	18.02
326.197	18.14
326.408	18.25
326.62	18.27
326.831	18.69
327.042	19.3
327.253	19.8
327.464	20.31
327.676	20.72
327.887	21.67
328.098	21.93
328.309	22.47
328.52	23.01
328.732	23.86
328.943	24.87
329.154	25.5
329.365	25.95
329.576	26.05
329.787	26.2
329.998	26.49
330.209	26.3
330.42	26.99
330.631	27.51
330.842	28.25
331.053	28.36
331.264	28.41
331.475	28.69
331.686	28.92
331.897	29.7
332.108	30.25
332.319	30.38
332.53	30.67
332.741	30.84
332.952	31.32
333.163	30.86
333.374	31.23
333.585	31.3
333.795	31.66
334.006	31.88
334.217	32.06
334.428	31.91
334.639	32.28
334.849	32.17
335.06	32.27
335.271	32.1
335.482	32.56
335.692	32.68
335.903	33.15
336.114	32.73
336.325	32.61
336.535	32.66
336.746	33.11
336.957	32.95
337.167	33.48
337.378	33.66
337.589	33.76
337.799	33.72
338.01	33.51
338.22	33.74
338.431	34.29
338.642	34.47
338.852	34.21
339.063	33.99
339.273	34.31
339.484	34.05
339.694	33.95
339.905	33.83
340.115	33.49
340.326	33.8
340.536	33.55
340.746	33.29
340.957	33
341.167	33.25
341.378	33.28
341.588	33.3
341.799	33.32
342.009	33.26
342.219	33.38
342.43	33.88
342.64	33.44
342.85	33.51
343.061	33.05
343.271	33.26
343.481	33.04
343.691	32.89
343.902	32.54
344.112	32.73
344.322	32.54
344.532	32.4
344.743	32.09
344.953	32.49
345.163	32.29
345.373	32.65
345.583	32.56
345.793	32.68
346.004	32.77
346.214	32.9
346.424	32.73
346.634	32.86
346.844	33.04
347.054	32.98
347.264	32.62
347.474	32.49
347.684	32.76
347.894	32.67
348.104	32.5
348.314	32.24
348.524	32.3
348.734	32.46
348.944	32.47
349.154	32.14
349.364	32.31
349.574	32.56
349.784	32.84
349.994	32.36
350.204	32.39
350.413	32.61
350.623	32.57
350.833	32.24
351.043	31.99
351.253	31.84
351.463	32.17
351.672	32.36
351.882	32.3
352.092	31.98
352.302	32.23
352.511	32.67
352.721	32.59
352.931	32.69
353.141	32.96
353.35	32.88
353.56	33.07
353.77	32.85
353.979	32.31
354.189	32.14
354.399	32.22
354.608	31.98
354.818	31.36
355.027	31.21
355.237	31.34
355.447	30.92
355.656	30.75
355.866	30.34
356.075	30.21
356.285	30.22
356.494	30.03
356.704	29.62
356.913	29.62
357.123	29.58
357.332	29.31
357.542	29.2
357.751	29.49
357.96	29.73
358.17	29.88
358.379	29.92
358.589	29.97
358.798	30.1
359.007	30.25
359.217	30.08
359.426	30.05
359.635	30.3
359.845	29.97
360.054	29.81
360.263	29.4
360.472	29.41
360.682	29.33
360.891	29.12
361.1	29.03
361.309	28.82
361.519	28.73
361.728	28.67
361.937	28.41
362.146	28.29
362.355	28.18
362.564	28.23
362.774	28.1
362.983	27.78
363.192	27.77
363.401	27.7
363.61	27.66
363.819	27.9
364.028	27.96
364.237	28.13
364.446	28.25
364.655	28.26
364.864	28.2
365.073	28.26
365.282	28.66
365.491	28.52
365.7	28.43
365.909	28.77
366.118	28.59
366.327	28.59
366.536	28.42
366.745	28.43
366.954	28.37
367.162	28.36
367.371	28.31
367.58	28.06
367.789	28.26
367.998	28.24
368.207	28.27
368.415	28.13
368.624	28.05
368.833	28.14
369.042	28.38
369.25	28.42
369.459	28.59
369.668	28.74
369.877	28.85
370.085	28.84
370.294	28.72
370.503	28.54
370.711	28.4
370.92	28.38
371.129	28.38
371.337	28.06
371.546	28.09
371.754	28.15
371.963	27.99
372.171	27.93
372.38	28.01
372.589	28.03
372.797	28.03
373.006	28.13
373.214	27.86
373.423	27.89
373.631	28.02
373.84	28.06
374.048	27.91
374.256	27.72
374.465	27.71
374.673	27.6
374.882	27.64
375.09	27.76
375.298	27.8
375.507	28.11
375.715	27.89
375.923	27.62
376.132	27.64
376.34	27.62
376.548	27.66
376.757	27.7
376.965	27.61
377.173	27.52
377.381	27.41
377.59	27.36
377.798	27.01
378.006	27
378.214	27.11
378.423	26.94
378.631	26.98
378.839	27.02
379.047	26.83
379.255	26.86
379.463	27.08
379.671	27.07
379.879	27.09
380.088	27.35
380.296	27.37
380.504	27.25
380.712	27.34
380.92	27.29
381.128	27.27
381.336	27.33
381.544	27.51
381.752	27.32
381.96	27.18
382.168	27.19
382.376	26.93
382.584	26.97
382.791	27.34
382.999	27.16
383.207	27.27
383.415	27.38
383.623	27.42
383.831	27.13
384.039	27.35
384.247	27.3
384.454	27.24
384.662	27.34
384.87	27.32
385.078	27.09
385.285	27.3
385.493	27.03
385.701	27.08
385.909	27.14
386.116	27.22
386.324	27.04
386.532	27.2
386.739	27.25
386.947	27.3
387.155	27.43
387.362	27.54
387.57	27.48
387.778	27.5
387.985	27.39
388.193	27.21
388.4	27.33
388.608	27.53
388.816	27.33
389.023	27.25
389.231	27.17
389.438	27.04
389.646	26.99
389.853	27.08
390.061	27.23
390.268	27.14
390.475	27.19
390.683	27.08
390.89	26.77
391.098	26.99
391.305	27.13
391.512	27.06
391.72	27.05
391.927	26.71
392.135	26.44
392.342	26.22
392.549	26.22
392.756	26.21
392.964	26.09
393.171	26.22
393.378	25.97
393.586	25.77
393.793	25.86
394	25.87
394.207	26.19
394.414	26.19
394.622	26.42
394.829	26.56
395.036	26.59
395.243	26.78
395.45	26.72
395.657	26.82
395.864	26.87
396.072	26.71
396.279	26.65
396.486	26.59
396.693	26.76
396.9	26.56
397.107	26.2
397.314	26.35
397.521	26.28
397.728	26.19
397.935	26.16
398.142	26.15
398.349	26.21
398.556	26.25
398.763	26.33
398.97	26.2
399.177	26.28
399.383	26.48
399.59	26.42
399.797	26.52
400.004	26.53
400.211	26.52
400.418	26.6
400.625	26.68
400.831	26.67
401.038	26.67
401.245	26.75
401.452	26.88
401.658	26.98
401.865	26.85
402.072	26.8
402.279	27
402.485	27.13
402.692	27.09
402.899	27.16
403.105	27.05
403.312	26.88
403.519	26.96
403.725	26.84
403.932	26.7
404.138	26.68
404.345	26.6
404.552	26.41
404.758	26.45
404.965	26.54
405.171	26.63
405.378	26.72
405.584	26.87
405.791	26.7
405.997	26.59
406.204	26.59
406.41	26.59
406.617	26.68
406.823	26.87
407.029	26.74
407.236	26.68
407.442	26.62
407.649	26.37
407.855	26.29
408.061	26.49
408.268	26.64
408.474	26.81
408.68	26.95
408.887	26.84
409.093	26.77
409.299	26.69
409.505	26.67
409.712	26.78
409.918	27.11
410.124	27.19
410.33	27.06
410.537	27.22
410.743	27.26
410.949	27.34
411.155	27.44
411.361	27.42
411.567	27.61
411.773	27.61
411.98	27.46
412.186	27.41
412.392	27.39
412.598	27.4
412.804	27.28
413.01	27.18
413.216	27.02
413.422	26.83
413.628	27
413.834	26.96
414.04	26.93
414.246	26.8
414.452	26.84
414.658	26.91
414.864	26.97
415.07	26.96
415.275	26.99
415.481	27.01
415.687	27.17
415.893	27.04
416.099	26.93
416.305	26.94
416.511	27.01
416.716	26.99
416.922	27.03
417.128	27.02
417.334	27
417.539	26.9
417.745	26.89
417.951	26.73
418.157	26.62
418.362	26.64
418.568	26.56
418.774	26.54
418.979	26.5
419.185	26.34
419.391	26.25
419.596	26.11
419.802	26.08
420.008	25.98
420.213	25.38
420.419	25.56
420.624	25.6
420.83	25.74
421.035	25.69
421.241	25.68
421.446	25.69
421.652	25.62
421.857	25.61
422.063	25.62
422.268	25.69
422.474	26.24
422.679	26.08
422.885	26.06
423.09	25.94
423.295	25.97
423.501	25.97
423.706	25.95
423.911	26.02
424.117	26.1
424.322	26.05
424.527	25.98
424.733	26.02
424.938	26.03
425.143	26
425.349	26.03
425.554	25.93
425.759	25.98
425.964	26.1
426.169	26.08
426.375	26.1
426.58	26.2
426.785	26.24
426.99	26.32
427.195	26.32
427.4	26.37
427.605	26.36
427.811	26.59
428.016	26.47
428.221	26.42
428.426	26.5
428.631	26.52
428.836	26.54
429.041	26.62
429.246	26.68
429.451	26.89
429.656	26.77
429.861	26.68
430.066	26.72
430.271	26.76
430.476	26.72
430.681	26.74
430.886	26.75
431.09	26.81
431.295	26.83
431.5	26.79
431.705	26.69
431.91	26.73
432.115	26.9
432.32	26.84
432.524	26.79
432.729	26.79
432.934	26.76
433.139	26.67
433.343	26.57
433.548	26.6
433.753	26.56
433.958	26.63
434.162	26.68
434.367	26.64
434.572	26.65
434.776	26.56
434.981	26.52
435.186	26.61
435.39	26.6
435.595	26.61
435.799	26.65
436.004	26.66
436.209	26.63
436.413	26.66
436.618	26.67
436.822	26.72
437.027	26.71
437.231	26.82
437.436	26.69
437.64	26.74
437.845	26.79
438.049	26.74
438.253	26.72
438.458	26.52
438.662	26.48
438.867	26.41
439.071	26.26
439.275	26.33
439.48	26.25
439.684	26.3
439.888	26.31
440.093	26.31
440.297	26.25
440.501	26.22
440.706	26.29
440.91	26.36
441.114	26.3
441.318	26.32
441.523	26.39
441.727	26.46
441.931	26.42
442.135	26.42
442.339	26.42
442.543	26.44
442.748	26.41
442.952	26.58
443.156	26.51
443.36	26.63
443.564	26.84
443.768	26.75
443.972	26.72
444.176	26.66
444.38	26.71
444.584	26.71
444.788	26.76
444.992	26.82
445.196	26.71
445.4	26.68
445.604	26.62
445.808	26.51
446.012	26.51
446.216	26.52
446.42	26.52
446.624	26.48
446.828	26.38
447.032	26.29
447.235	26.2
447.439	26.14
447.643	26.09
447.847	26.15
448.051	26.16
448.254	26.19
448.458	26.11
448.662	26.14
448.866	26.07
449.069	26.23
449.273	26.32
449.477	26.4
449.681	26.46
449.884	26.57
450.088	26.62
450.292	26.55
450.495	26.58
450.699	26.78
450.902	26.84
451.106	26.95
451.31	26.9
451.513	26.92
451.717	26.94
451.92	26.84
452.124	26.89
452.327	26.82
452.531	26.9
452.734	26.89
452.938	26.7
453.141	26.75
453.345	26.73
453.548	26.7
453.752	26.67
453.955	26.71
454.158	26.77
454.362	26.78
454.565	26.79
454.769	26.84
454.972	26.82
455.175	26.86
455.379	26.79
455.582	26.97
455.785	26.97
455.988	27.03
456.192	27
456.395	27.04
456.598	26.9
456.801	26.87
457.005	26.82
457.208	26.88
457.411	26.87
457.614	26.86
457.817	26.8
458.021	26.81
458.224	26.8
458.427	26.71
458.63	26.7
458.833	26.73
459.036	26.64
459.239	26.54
459.442	26.45
459.645	26.5
459.848	26.5
460.051	26.38
460.254	26.33
460.457	26.27
460.66	26.23
460.863	26.15
461.066	26.13
461.269	26.2
461.472	26.32
461.675	26.37
461.878	26.35
462.081	26.34
462.284	26.39
462.486	26.37
462.689	26.37
462.892	26.48
463.095	26.54
463.298	26.58
463.5	26.65
463.703	26.57
463.906	26.59
464.109	26.54
464.311	26.6
464.514	26.59
464.717	26.7
464.92	26.73
465.122	26.68
465.325	26.77
465.528	26.79
465.73	26.82
465.933	26.78
466.135	26.81
466.338	26.88
466.541	26.86
466.743	26.88
466.946	26.84
467.148	26.8
467.351	26.8
467.553	26.79
467.756	26.81
467.958	26.73
468.161	26.82
468.363	26.75
468.566	26.72
468.768	26.83
468.971	26.74
469.173	26.77
469.375	26.88
469.578	26.92
469.78	26.89
469.983	26.88
470.185	26.9
470.387	26.9
470.59	27
470.792	27.16
470.994	27.19
471.196	27.22
471.399	27.3
471.601	27.19
471.803	27.27
472.005	27.39
472.208	27.34
472.41	27.47
472.612	27.54
472.814	27.53
473.016	27.3
473.218	27.19
473.421	27.21
473.623	27.19
473.825	27.3
474.027	27.24
474.229	27.22
474.431	27.22
474.633	27.21
474.835	27.1
475.037	27.07
475.239	27.2
475.441	27.17
475.643	27.27
475.845	27.3
476.047	27.3
476.249	27.35
476.451	27.39
476.653	27.39
476.855	27.29
477.057	27.37
477.258	27.23
477.46	27.16
477.662	27.14
477.864	27.1
478.066	26.98
478.268	26.92
478.469	26.86
478.671	26.75
478.873	26.73
479.075	26.74
479.276	26.67
479.478	26.8
479.68	26.85
479.882	26.82
480.083	26.72
480.285	26.73
480.487	26.77
480.688	26.75
480.89	26.77
481.091	26.8
481.293	26.85
481.495	26.81
481.696	26.82
481.898	26.8
482.099	26.76
482.301	26.77
482.502	26.71
482.704	26.63
482.905	26.56
483.107	26.48
483.308	26.38
483.51	26.32
483.711	26.26
483.913	26.18
484.114	26.13
484.315	26.07
484.517	26.05
484.718	26.02
484.92	26.02
485.121	26.01
485.322	26.03
485.524	26.11
485.725	26.13
485.926	26.2
486.127	26.25
486.329	26.25
486.53	26.29
486.731	26.31
486.932	26.34
487.134	26.34
487.335	26.36
487.536	26.34
487.737	26.32
487.938	26.27
488.139	26.21
488.341	26.19
488.542	26.25
488.743	26.25
488.944	26.26
489.145	26.27
489.346	26.27
489.547	26.34
489.748	26.38
489.949	26.4
490.15	26.45
490.351	26.51
490.552	26.58
490.753	26.59
490.954	26.61
491.155	26.63
491.356	26.62
491.557	26.69
491.758	26.69
491.959	26.69
492.159	26.71
492.36	26.71
492.561	26.74
492.762	26.7
492.963	26.66
493.164	26.63
493.364	26.61
493.565	26.61
493.766	26.54
493.967	26.56
494.167	26.62
494.368	26.64
494.569	26.7
494.769	26.7
494.97	26.74
495.171	26.9
495.371	27.03
495.572	27.12
495.773	27.15
495.973	27.18
496.174	27.22
496.375	27.22
496.575	27.26
496.776	27.28
496.976	27.31
497.177	27.4
497.377	27.34
497.578	27.38
497.778	27.35
497.979	27.46
498.179	27.57
498.38	27.49
498.58	27.57
498.78	27.61
498.981	27.64
499.181	27.65
499.382	27.67
499.582	27.69
499.782	27.7
499.983	27.76
500.183	27.72
500.383	27.74
500.584	27.88
500.784	27.87
500.984	27.89
501.184	27.83
501.385	28.05
501.585	28.14
501.785	28.22
501.985	28.31
502.185	28.23
502.386	28.26
502.586	28.27
502.786	28.23
502.986	28.27
503.186	28.42
503.386	28.44
503.586	28.28
503.786	28.18
503.987	28.2
504.187	28.21
504.387	28.28
504.587	28.39
504.787	28.32
504.987	28.3
505.187	28.28
505.387	28.21
505.587	28.34
505.786	28.48
505.986	28.48
506.186	28.42
506.386	28.48
506.586	28.58
506.786	28.51
506.986	28.56
507.186	28.62
507.386	28.65
507.585	28.7
507.785	28.68
507.985	28.55
508.185	28.63
508.384	28.71
508.584	28.62
508.784	28.61
508.984	28.61
509.183	28.72
509.383	28.76
509.583	28.8
509.782	28.74
509.982	28.77
510.182	28.96
510.381	28.95
510.581	29.01
510.781	29.02
510.98	29.06
511.18	29.17
511.379	29.19
511.579	29.19
511.778	29.28
511.978	29.4
512.177	29.42
512.377	29.43
512.576	29.48
512.776	29.44
512.975	29.51
513.175	29.49
513.374	29.57
513.573	29.67
513.773	29.78
513.972	29.72
514.172	29.67
514.371	29.67
514.57	29.69
514.77	29.74
514.969	29.81
515.168	29.88
515.367	30.01
515.567	29.95
515.766	29.87
515.965	29.85
516.164	29.9
516.364	29.97
516.563	30.01
516.762	30.13
516.961	30.17
517.16	30.15
517.359	30.15
517.559	30.14
517.758	30.12
517.957	30.14
518.156	30.17
518.355	30.18
518.554	30.14
518.753	30.13
518.952	29.96
519.151	29.95
519.35	29.97
519.549	29.96
519.748	29.94
519.947	29.96
520.146	29.91
520.345	29.87
520.544	29.91
520.743	29.91
520.942	30.06
521.141	30.29
521.339	30.31
521.538	30.43
521.737	30.39
521.936	30.45
522.135	30.49
522.333	30.58
522.532	30.64
522.731	30.67
522.93	30.75
523.129	30.82
523.327	30.75
523.526	30.78
523.725	30.75
523.923	30.9
524.122	30.96
524.321	31.01
524.519	31.06
524.718	31
524.917	31.02
525.115	31.02
525.314	30.95
525.512	30.95
525.711	30.99
525.909	30.99
526.108	30.94
526.306	30.94
526.505	30.91
526.703	30.91
526.902	30.95
527.1	30.94
527.299	30.88
527.497	30.93
527.696	30.89
527.894	30.85
528.092	30.88
528.291	30.89
528.489	30.87
528.688	30.86
528.886	30.83
529.084	30.85
529.283	30.84
529.481	30.87
529.679	30.84
529.877	30.83
530.076	30.87
530.274	30.83
530.472	30.85
530.67	30.86
530.869	30.95
531.067	31.01
531.265	31.03
531.463	31.15
531.661	31.18
531.859	31.25
532.057	31.38
532.255	31.38
532.454	31.4
532.652	31.42
532.85	31.48
533.048	31.49
533.246	31.51
533.444	31.51
533.642	31.5
533.84	31.53
534.038	31.54
534.236	31.55
534.434	31.63
534.632	31.61
534.83	31.66
535.027	31.69
535.225	31.82
535.423	31.84
535.621	31.89
535.819	31.95
536.017	31.93
536.215	31.96
536.412	31.95
536.61	32
536.808	32.14
537.006	32.18
537.203	32.19
537.401	32.13
537.599	32.19
537.797	32.22
537.994	32.21
538.192	32.29
538.39	32.35
538.587	32.46
538.785	32.53
538.983	32.57
539.18	32.59
539.378	32.55
539.575	32.49
539.773	32.45
539.97	32.48
540.168	32.52
540.366	32.56
540.563	32.52
540.761	32.46
540.958	32.39
541.155	32.32
541.353	32.3
541.55	32.34
541.748	32.36
541.945	32.33
542.143	32.32
542.34	32.39
542.537	32.4
542.735	32.44
542.932	32.5
543.129	32.54
543.327	32.66
543.524	32.78
543.721	32.83
543.919	32.97
544.116	33.14
544.313	33.26
544.51	33.24
544.708	33.36
544.905	33.45
545.102	33.56
545.299	33.65
545.496	33.66
545.693	33.73
545.891	33.77
546.088	33.77
546.285	33.76
546.482	33.77
546.679	33.74
546.876	33.59
547.073	33.55
547.27	33.54
547.467	33.5
547.664	33.48
547.861	33.35
548.058	33.31
548.255	33.36
548.452	33.38
548.649	33.43
548.846	33.5
549.043	33.69
549.24	33.68
549.437	33.68
549.633	33.7
549.83	33.78
550.027	33.94
550.224	33.94
550.421	33.87
550.618	33.93
550.814	33.86
551.011	33.97
551.208	33.87
551.405	33.96
551.601	33.88
551.798	33.95
551.995	33.95
552.191	33.94
552.388	33.98
552.585	34.1
552.781	34.13
552.978	34.16
553.175	34.11
553.371	34.29
553.568	34.23
553.764	34.37
553.961	34.53
554.157	34.56
554.354	34.62
554.55	34.78
554.747	34.77
554.943	34.66
555.14	34.68
555.336	34.59
555.533	34.58
555.729	34.62
555.926	34.48
556.122	34.31
556.318	34.34
556.515	34.29
556.711	34.03
556.907	34.06
557.104	34.12
557.3	34.18
557.496	34.13
557.693	34.13
557.889	34.3
558.085	34.44
558.281	34.4
558.478	34.35
558.674	34.35
558.87	34.49
559.066	34.41
559.262	34.47
559.459	34.44
559.655	34.53
559.851	34.65
560.047	34.45
560.243	34.51
560.439	34.61
560.635	34.66
560.831	34.68
561.027	34.65
561.223	34.58
561.419	34.58
561.615	34.56
561.811	34.63
562.007	34.51
562.203	34.64
562.399	34.64
562.595	34.7
562.791	34.68
562.987	34.72
563.183	34.67
563.379	34.79
563.575	34.78
563.771	34.72
563.966	34.7
564.162	34.73
564.358	34.69
564.554	34.58
564.75	34.55
564.945	34.63
565.141	34.64
565.337	34.69
565.533	34.65
565.728	34.58
565.924	34.58
566.12	34.67
566.315	34.69
566.511	34.69
566.707	34.72
566.902	34.8
567.098	34.74
567.293	34.68
567.489	34.81
567.684	34.91
567.88	35.03
568.076	35.05
568.271	35.01
568.467	34.91
568.662	34.9
568.858	35.02
569.053	34.88
569.248	34.93
569.444	35
569.639	34.91
569.835	34.92
570.03	34.87
570.225	34.8
570.421	34.69
570.616	34.78
570.812	34.85
571.007	34.61
571.202	34.63
571.397	34.6
571.593	34.73
571.788	34.72
571.983	34.69
572.178	34.61
572.374	34.82
572.569	34.9
572.764	34.88
572.959	34.78
573.154	35.05
573.35	35.09
573.545	35.09
573.74	34.95
573.935	35.16
574.13	35.19
574.325	35.27
574.52	35.21
574.715	35.22
574.91	35.21
575.105	35.28
575.3	35.1
575.495	35.11
575.69	35.2
575.885	35.17
576.08	35.06
576.275	35.14
576.47	35.38
576.665	35.46
576.86	35.5
577.055	35.56
577.25	35.6
577.444	35.66
577.639	35.79
577.834	35.81
578.029	35.97
578.224	36
578.418	35.99
578.613	35.85
578.808	35.94
579.003	36.09
579.197	36.19
579.392	36.38
579.587	36.48
579.781	36.5
579.976	36.66
580.171	36.64
580.365	36.73
580.56	36.87
580.755	37.02
580.949	36.96
581.144	36.92
581.338	36.92
581.533	36.95
581.727	37
581.922	37.03
582.116	37.06
582.311	37.11
582.505	37.15
582.7	37.09
582.894	37.15
583.089	37.17
583.283	37.21
583.478	37.26
583.672	37.21
583.866	37.25
584.061	37.38
584.255	37.28
584.449	37.3
584.644	37.34
584.838	37.34
585.032	37.26
585.226	37.2
585.421	37.36
585.615	37.31
585.809	37.36
586.003	37.49
586.198	37.45
586.392	37.52
586.586	37.6
586.78	37.66
586.974	37.61
587.168	37.49
587.363	37.67
587.557	37.39
587.751	37.51
587.945	37.64
588.139	37.71
588.333	37.52
588.527	37.56
588.721	37.45
588.915	37.41
589.109	37.41
589.303	37.53
589.497	37.41
589.691	37.52
589.885	37.41
590.079	37.24
590.273	37.18
590.466	37.39
590.66	37.33
590.854	37.46
591.048	37.41
591.242	37.54
591.436	37.56
591.629	37.73
591.823	37.81
592.017	37.93
592.211	38.05
592.404	37.99
592.598	37.83
592.792	37.85
592.986	37.98
593.179	38.12
593.373	38.13
593.567	38.14
593.76	37.99
593.954	38.1
594.147	38.13
594.341	38.15
594.535	38.26
594.728	38.3
594.922	38.24
595.115	38.27
595.309	38.15
595.502	38.09
595.696	38.09
595.889	38.01
596.083	37.97
596.276	38.01
596.47	37.96
596.663	37.95
596.856	37.95
597.05	38
597.243	37.93
597.437	37.84
597.63	37.91
597.823	37.95
598.017	38.15
598.21	38.27
598.403	38.29
598.596	38.45
598.79	38.37
598.983	38.59
599.176	38.84
599.369	38.88
599.563	39.21
599.756	39.3
599.949	39.36
600.142	39.4
600.335	39.2
600.528	39.2
600.722	39.23
600.915	39.49
601.108	39.44
601.301	39.5
601.494	39.55
601.687	39.36
601.88	39.35
602.073	39.31
602.266	39.33
602.459	39.47
602.652	39.4
602.845	39.14
603.038	38.92
603.231	38.85
603.424	38.68
603.617	38.45
603.809	38.5
604.002	38.53
604.195	38.53
604.388	38.34
604.581	38.29
604.774	38.39
604.966	38.48
605.159	38.49
605.352	38.55
605.545	38.53
605.737	38.82
605.93	38.81
606.123	38.8
606.316	38.83
606.508	39.01
606.701	39.22
606.894	39.35
607.086	39.71
607.279	39.96
607.471	40.39
607.664	40.63
607.857	40.72
608.049	40.86
608.242	40.94
608.434	41.39
608.627	41.8
608.819	42.03
609.012	42.42
609.204	42.87
609.397	43.54
609.589	43.73
609.782	44.15
609.974	44.7
610.166	45.62
610.359	46.42
610.551	46.86
610.743	47.3
610.936	47.61
611.128	47.82
611.32	47.77
611.513	47.84
611.705	47.91
611.897	48.31
612.09	48.12
612.282	47.66
612.474	47.41
612.666	47.2
612.858	46.93
613.051	46.87
613.243	46.74
613.435	46.66
613.627	46.17
613.819	46.25
614.011	45.99
614.203	45.95
614.395	45.67
614.588	45.38
614.78	45.08
614.972	45.05
615.164	44.94
615.356	44.71
615.548	44.63
615.74	44.85
615.932	44.43
616.124	44.1
616.315	43.97
616.507	43.98
616.699	43.76
616.891	43.85
617.083	43.66
617.275	43.46
617.467	43.29
617.659	43.19
617.85	42.86
618.042	42.91
618.234	42.85
618.426	42.81
618.618	42.69
618.809	42.76
619.001	42.63
619.193	42.6
619.384	42.41
619.576	42.44
619.768	42.39
619.959	42.34
620.151	42.52
620.343	42.43
620.534	42.34
620.726	42.36
620.917	42.44
621.109	42.48
621.301	42.64
621.492	42.85
621.684	42.9
621.875	43.07
622.067	43.19
622.258	42.97
622.45	42.96
622.641	43.04
622.832	43.23
623.024	43.18
623.215	43.11
623.407	43.03
623.598	43.05
623.789	42.87
623.981	42.72
624.172	42.74
624.363	42.81
624.555	42.75
624.746	42.76
624.937	42.67
625.129	42.87
625.32	42.73
625.511	42.6
625.702	42.58
625.893	42.96
626.085	42.94
626.276	43.01
626.467	42.96
626.658	43.07
626.849	43.16
627.04	43.16
627.231	43.02
627.422	43.25
627.614	43.35
627.805	43.44
627.996	43.43
628.187	43.49
628.378	43.46
628.569	43.77
628.76	43.83
628.951	43.74
629.142	44.02
629.332	44.12
629.523	44.26
629.714	44.33
629.905	44.52
630.096	44.49
630.287	44.49
630.478	44.53
630.669	44.29
630.859	44.46
631.05	44.49
631.241	44.39
631.432	44.31
631.623	44.27
631.813	44.47
632.004	44.19
632.195	43.97
632.385	44.05
632.576	44.09
632.767	44.07
632.957	43.86
633.148	43.81
633.339	43.7
633.529	43.55
633.72	43.31
633.91	43.04
634.101	43.14
634.292	43.07
634.482	42.97
634.673	42.95
634.863	42.98
635.054	43.04
635.244	43.04
635.435	43.01
635.625	43.1
635.815	43.23
636.006	43.36
636.196	43.52
636.387	43.98
636.577	43.8
636.767	43.74
636.958	43.75
637.148	43.89
637.338	44.01
637.529	44.16
637.719	44.27
637.909	44.23
638.099	44.26
638.29	44.19
638.48	43.9
638.67	44.15
638.86	44.38
639.05	44.19
639.241	44.07
639.431	44.15
639.621	43.95
639.811	43.88
640.001	43.86
640.191	43.85
640.381	43.71
640.571	43.69
640.761	43.79
640.951	43.68
641.141	43.87
641.331	43.67
641.521	43.69
641.711	43.9
641.901	43.76
642.091	43.85
642.281	43.95
642.471	44.07
642.661	44.31
642.851	44.57
643.041	44.49
643.231	44.59
643.42	44.8
643.61	44.46
643.8	44.36
643.99	44.54
644.18	44.6
644.369	44.63
644.559	44.81
644.749	44.59
644.939	44.26
645.128	44.25
645.318	44.38
645.508	44.46
645.697	44.78
645.887	44.63
646.076	44.63
646.266	44.5
646.456	44.54
646.645	44.7
646.835	44.82
647.024	44.84
647.214	44.93
647.403	44.61
647.593	44.55
647.782	44.89
647.972	45.14
648.161	45.45
648.351	45.67
648.54	45.62
648.73	45.26
648.919	45.52
649.108	45.52
649.298	45.63
649.487	45.83
649.677	45.98
649.866	45.98
650.055	45.98
650.244	45.93
650.434	45.95
650.623	45.77
650.812	46.05
651.002	45.87
651.191	46.06
651.38	45.95
651.569	46.21
651.758	46.06
651.947	45.89
652.137	45.96
652.326	45.98
652.515	46.08
652.704	46.2
652.893	46.19
653.082	46.21
653.271	46.17
653.46	46.11
653.649	46.11
653.838	46.21
654.027	46.2
654.216	46.19
654.405	46.06
654.594	46.08
654.783	45.98
654.972	45.99
655.161	46.09
655.35	45.9
655.539	46.14
655.728	45.97
655.916	46.06
656.105	46.26
656.294	46.18
656.483	46.13
656.672	46.02
656.86	46.11
657.049	46.06
657.238	46.21
657.427	46.12
657.615	46.02
657.804	45.82
657.993	45.83
658.181	45.8
658.37	45.6
658.559	45.6
658.747	45.65
658.936	45.75
659.125	45.83
659.313	45.72
659.502	46
659.69	45.95
659.879	46.12
660.067	46.14
660.256	46.07
660.444	46.44
660.633	46.56
660.821	46.52
661.01	46.55
661.198	46.18
661.387	46.1
661.575	46.05
661.763	46.12
661.952	46.28
662.14	46.2
662.328	46.17
662.517	46.15
662.705	46.14
662.893	45.97
663.082	46.13
663.27	46.52
663.458	46.67
663.646	46.83
663.834	46.88
664.023	46.94
664.211	46.79
664.399	46.74
664.587	46.71
664.775	46.73
664.963	47
665.152	46.81
665.34	46.87
665.528	46.63
665.716	46.44
665.904	46.62
666.092	46.61
666.28	46.58
666.468	46.7
666.656	46.83
666.844	47.06
667.032	46.81
667.22	46.75
667.408	46.83
667.596	46.92
667.784	47.02
667.971	46.84
668.159	46.74
668.347	46.66
668.535	46.44
668.723	46.51
668.911	46.41
669.098	46.48
669.286	46.64
669.474	46.3
669.662	46.59
669.849	46.63
670.037	46.74
670.225	46.92
670.413	47.48
670.6	47.9
670.788	47.67
670.976	47.58
671.163	47.53
671.351	47.21
671.538	47.15
671.726	47.23
671.913	47.33
672.101	47.4
672.289	47.33
672.476	47.33
672.664	47.25
672.851	47.19
673.039	46.95
673.226	47.41
673.413	47.89
673.601	48.32
673.788	48.1
673.976	47.98
674.163	47.99
674.35	47.96
674.538	47.32
674.725	47.09
674.912	47.26
675.1	47.6
675.287	47.6
675.474	47.37
675.662	47.22
675.849	47.18
676.036	47.32
676.223	47.34
676.411	47.46
676.598	47.87
676.785	47.98
676.972	48.04
677.159	48.03
677.346	48.1
677.533	48.04
677.721	47.92
677.908	48.1
678.095	47.67
678.282	47.73
678.469	47.5
678.656	47.5
678.843	47.55
679.03	47.69
679.217	47.7
679.404	47.67
679.591	47.6
679.778	47.67
679.964	47.58
680.151	47.93
680.338	47.78
680.525	47.79
680.712	47.66
680.899	47.79
681.086	47.58
681.272	47.45
681.459	47.33
681.646	47.39
681.833	47.28
682.02	47.27
682.206	47.3
682.393	47.09
682.58	47.15
682.766	47.29
682.953	47.13
683.14	47.41
683.326	47.9
683.513	47.93
683.7	48.2
683.886	48.39
684.073	48.18
684.259	48.15
684.446	48.39
684.632	48.85
684.819	49
685.005	49.01
685.192	49.13
685.378	48.82
685.565	48.82
685.751	48.69
685.938	48.72
686.124	49.15
686.31	49.25
686.497	49.48
686.683	49.17
686.87	48.97
687.056	49.02
687.242	48.8
687.429	48.9
687.615	48.95
687.801	48.91
687.987	48.84
688.174	48.52
688.36	48.61
688.546	48.51
688.732	48.41
688.918	48.81
689.105	48.89
689.291	48.63
689.477	48.26
689.663	48.19
689.849	48.25
690.035	48.43
690.221	48.66
690.407	48.62
690.593	48.85
690.779	49.09
690.965	48.87
691.151	48.96
691.337	49.1
691.523	49.41
691.709	49.67
691.895	49.85
692.081	49.9
692.267	50.12
692.453	50.43
692.639	50.22
692.825	49.98
693.011	50.18
693.196	50.32
693.382	50.47
693.568	50.37
693.754	50.24
693.94	49.96
694.125	49.9
694.311	49.84
694.497	49.29
694.682	49.08
694.868	49.36
695.054	49.31
695.239	49.48
695.425	49.59
695.611	49.6
695.796	49.59
695.982	49.81
696.168	49.59
696.353	49.28
696.539	49.13
696.724	49.29
696.91	48.93
697.095	48.77
697.281	48.46
697.466	48.32
697.652	48.42
697.837	48.16
698.023	48.05
698.208	47.85
698.393	47.8
698.579	48.2
698.764	48
698.949	48.17
699.135	48.16
699.32	48.06
699.505	47.9
699.691	47.7
699.876	47.67
700.061	47.85
700.246	48.06
700.432	48.41
700.617	47.97
700.802	47.98
700.987	48.04
701.172	48.36
701.358	48.56
701.543	48.86
701.728	49.22
701.913	49.67
702.098	50.05
702.283	50.24
702.468	49.92
702.653	50.38
702.838	50.9
703.023	51.16
703.208	50.84
703.393	50.86
703.578	51.31
703.763	51.27
703.948	51.45
704.133	51.23
704.318	51.56
704.503	52.09
704.688	52.4
704.873	52.09
705.057	52.14
705.242	52.43
705.427	53.2
705.612	53.12
705.797	53.77
705.981	53.93
706.166	53.91
706.351	54.02
706.536	54.03
706.72	53.93
706.905	54.72
707.09	54.78
707.274	54.57
707.459	54.25
707.644	54.49
707.828	54.38
708.013	54.16
708.197	54.51
708.382	54.57
708.567	54.62
708.751	54.43
708.936	53.93
709.12	53.79
709.305	53.79
709.489	53.88
709.673	53.23
709.858	53.06
710.042	53.11
710.227	52.8
710.411	52.74
710.596	52.72
710.78	52.94
710.964	52.95
711.149	52.89
711.333	53.18
711.517	52.62
711.702	52.78
711.886	52.64
712.07	52.58
712.254	52.67
712.438	51.98
712.623	52.02
712.807	51.81
712.991	51.47
713.175	51.22
713.359	51.06
713.544	51.11
713.728	51.19
713.912	50.78
714.096	50.82
714.28	50.39
714.464	50.71
714.648	50.01
714.832	50
715.016	50.05
715.2	50.1
715.384	50.1
715.568	50.08
715.752	50.1
715.936	50.42
716.12	50.39
716.304	50.34
716.488	50.12
716.671	50.32
716.855	50.1
717.039	50.19
717.223	50.19
717.407	49.9
717.59	50.14
717.774	49.87
717.958	49.81
718.142	49.51
718.325	49.7
718.509	49.9
718.693	50.26
718.877	50
719.06	50.29
719.244	50.26
719.428	50.72
719.611	50.46
719.795	51.21
719.978	51.5
720.162	51.72
720.345	51.49
720.529	51.4
720.713	51.29
720.896	51.81
721.08	51.42
721.263	51.73
721.446	51.94
721.63	51.89
721.813	51.19
721.997	50.58
722.18	50.47
722.364	50.56
722.547	51.09
722.73	50.66
722.914	50.5
723.097	50.61
723.28	50.25
723.464	50.28
723.647	50.36
723.83	50.51
724.013	51.05
724.197	51.13
724.38	51.54
724.563	51.11
724.746	51.37
724.929	51.32
725.112	51.74
725.296	51.87
725.479	51.77
725.662	51.56
725.845	51.52
726.028	51.65
726.211	51.57
726.394	51.77
726.577	52.19
726.76	52.34
726.943	52.54
727.126	52.06
727.309	52.07
727.492	52.33
727.675	52.73
727.858	52.79
728.041	52.5
728.224	52.63
728.407	52.46
728.589	52.45
728.772	52.32
728.955	52.05
729.138	52.25
729.321	52.13
729.503	51.78
729.686	51.83
729.869	51.5
730.052	51.54
730.234	51.58
730.417	51.29
730.6	50.51
730.782	50.69
730.965	50.87
731.148	50.82
731.33	50.61
731.513	50.59
731.695	50.24
731.878	49.91
732.061	50.09
732.243	49.81
732.426	49.71
732.608	50.02
732.791	50.12
732.973	49.9
733.156	50.02
733.338	50.22
733.52	50.19
733.703	50.24
733.885	50.7
734.068	50.35
734.25	50.25
734.432	50.26
734.615	50.56
734.797	50.52
734.979	50.22
735.162	50.36
735.344	50.35
735.526	50.16
735.708	50.24
735.891	50.52
736.073	50.19
736.255	50.7
736.437	50.95
736.619	51.44
736.802	50.73
736.984	51.61
737.166	51.73
737.348	52
737.53	52.51
737.712	52.59
737.894	52.5
738.076	53.16
738.258	52.45
738.44	52.16
738.622	51.66
738.804	52.7
738.986	52.44
739.168	52.25
739.35	52.41
739.532	52.3
739.714	52.2
739.896	52.12
740.078	52.27
740.259	52.88
740.441	53.28
740.623	53.55
740.805	53.42
740.987	53.22
741.168	52.88
741.35	52.67
741.532	52.07
741.714	51.95
741.895	51.87
742.077	51.79
742.259	51.91
742.44	51.64
742.622	51.28
742.804	51.36
742.985	51.85
743.167	52.42
743.348	52.06
743.53	52.39
743.711	53.02
743.893	53.26
744.075	53.48
744.256	53.46
744.438	53.96
744.619	54.05
744.8	53.81
744.982	53.42
745.163	53.39
745.345	54
745.526	54.23
745.707	53.58
745.889	53.25
746.07	53.61
746.252	54.22
746.433	54.18
746.614	54.61
746.795	54.95
746.977	55.78
747.158	56.05
747.339	55.82
747.52	55.58
747.702	55.81
747.883	55.54
748.064	54.73
748.245	54.53
748.426	54.2
748.607	53.9
748.788	53.39
748.97	52.72
749.151	52.31
749.332	52.31
749.513	52.97
749.694	52.98
749.875	53.43
750.056	53.78
750.237	53.39
750.418	53.88
750.599	53.89
750.78	53.95
750.96	53.73
751.141	53.4
751.322	53.33
751.503	52.73
751.684	52.63
751.865	52.21
752.046	52.5
752.226	52.68
752.407	52.43
752.588	52.69
752.769	53.1
752.949	53.59
753.13	54.2
753.311	54.9
753.492	54.71
753.672	55.12
753.853	55.56
754.034	54.97
754.214	54.65
754.395	55.1
754.575	54.66
754.756	54.83
754.937	55.42
755.117	54.94
755.298	54.37
755.478	54.42
755.659	54.28
755.839	54.7
756.02	54.88
756.2	54.93
756.381	54.14
756.561	54.35
756.741	54.28
756.922	53.59
757.102	53.64
757.283	53.92
757.463	54.49
757.643	54.83
757.823	54.49
758.004	54.58
758.184	54.62
758.364	55
758.545	54.81
758.725	54.32
758.905	53.86
759.085	53.58
759.265	52.97
759.446	52.18
759.626	51.98
759.806	51.74
759.986	52.12
760.166	51.98
760.346	52.38
760.526	52.62
760.706	52.95
760.886	52.32
761.066	53.06
761.246	53.05
761.426	53.18
761.606	52.44
761.786	51.76
761.966	51.22
762.146	51.23
762.326	50.4
762.506	49.92
762.686	49.32
762.866	49.83
763.046	48.84
763.225	48.52
763.405	48.06
763.585	47.83
763.765	48.61
763.945	48.19
764.124	48.27
764.304	48.19
764.484	48.39
764.664	48.73
764.843	48.65
765.023	48.8
765.203	49.41
765.382	49.37
765.562	49.95
765.741	49.56
765.921	50.11
766.101	49.99
766.28	50.52
766.46	50.14
766.639	50.38
766.819	50.8
766.998	51.97
767.178	51.83
767.357	52.72
767.537	53
767.716	53.32
767.896	53.12
768.075	53.15
768.254	53.45
768.434	54.97
768.613	54.7
768.792	54.41
768.972	54.13
769.151	54.55
769.33	54.27
769.51	54.89
769.689	54.36
769.868	54.75
770.047	55.26
770.226	55.56
770.406	54.24
770.585	54.61
770.764	54.76
770.943	55.28
771.122	54.77
771.301	54.81
771.48	54.26
771.66	55.56
771.839	54.76
772.018	54.43
772.197	54.16
772.376	53.75
772.555	53.95
772.734	54.71
772.913	54.08
773.092	54.46
773.271	55.55
773.449	55.02
773.628	54.83
773.807	55.15
773.986	55.61
774.165	55.63
774.344	56.46
774.523	55.63
774.701	55.07
774.88	54.93
775.059	54.7
775.238	55.02
775.417	55.98
775.595	55.57
775.774	56.43
775.953	55.57
776.131	55.07
776.31	55.04
776.489	55.42
776.667	55.47
776.846	56.33
777.025	56.31
777.203	55.78
777.382	55.92
777.56	55.23
777.739	55.56
777.917	55.8
778.096	56.81
778.274	56.91
778.453	57.76
778.631	58.93
778.81	58.78
778.988	60.59
779.166	60.81
779.345	60.38
779.523	60.9
779.702	59.99
779.88	60.69
780.058	59.78
780.237	60.51
780.415	60.14
780.593	59.44
780.771	58.33
780.95	57.37
781.128	57.3
781.306	57.57
781.484	58.41
781.662	58.63
781.841	58.22
782.019	58.72
782.197	58.22
782.375	57.35
782.553	57.14
782.731	58.37
782.909	57.85
783.087	58.04
783.265	57.15
783.443	56.09
783.621	57.43
783.799	58.71
783.977	58.76
784.155	59.41
784.333	60.1
784.511	60.63
784.689	60.47
784.867	61.47
785.045	61.2
785.223	62
785.4	62.38
785.578	61.67
785.756	60.37
785.934	59.5
786.112	58.47
786.289	57.86
786.467	58.13
786.645	57.6
786.823	56.91
787	57.43
787.178	57.25
787.356	57.17
787.533	56.41
787.711	55.99
787.889	56.9
788.066	56.23
788.244	56.94
788.421	56.35
788.599	56.76
788.776	56.18
788.954	54.72
789.131	55.35
789.309	54.24
789.486	54.73
789.664	55.61
789.841	54.52
790.019	55.2
790.196	54.51
790.373	54.53
790.551	54.62
790.728	55.04
790.906	54.98
791.083	54.68
791.26	56.39
791.437	56.4
791.615	56.77
791.792	57.98
791.969	59.05
792.146	59.37
792.324	59.5
792.501	59.53
792.678	60.81
792.855	62.58
793.032	62.5
793.209	63.43
793.387	63.86
793.564	63.22
793.741	62.51
793.918	61.11
794.095	61.25
794.272	60.43
794.449	58.93
794.626	58.09
794.803	58.15
794.98	58.1
795.157	56.97
795.334	55.43
795.511	55.08
795.688	55.51
795.864	56.2
796.041	56.87
796.218	57.87
796.395	60
796.572	59.13
796.749	57.75
796.925	56.53
797.102	57.17
797.279	58.59
797.456	59.05
797.632	59.34
797.809	58.84
797.986	59.36
798.162	59.2
798.339	57.14
798.516	58.12
798.692	58.57
798.869	59.58
799.046	58.79
799.222	58.37
799.399	59.05
799.575	58.16
799.752	58.3
799.928	57.48
800.105	57.76
800.281	58.81
800.458	58.75
800.634	58.61
800.811	58.43
800.987	58.9
801.163	58.77
801.34	58.28
801.516	59.64
801.692	59.41
801.869	58.48
802.045	57.9
802.221	57.61
802.398	56.47
802.574	57.35
802.75	57.75
802.926	57.91
803.103	58.29
803.279	58.29
803.455	57.27
803.631	58.22
803.807	58.52
803.983	58.24
804.16	58.88
804.336	59.47
804.512	59.53
804.688	59.52
804.864	60.37
805.04	59.5
805.216	59.38
805.392	59.69
805.568	59.3
805.744	59.38
805.92	59.11
806.096	59.16
806.272	60.28
806.448	61.22
806.623	60.95
806.799	60.82
806.975	61.08
807.151	61.68
807.327	61.15
807.503	60.48
807.678	62.79
807.854	63.52
808.03	62.28
808.206	63.09
808.381	61.35
808.557	61.49
808.733	61.04
808.908	61.36
809.084	61.6
809.26	62.18
809.435	62.31
809.611	61.53
809.787	62.27
809.962	64.55
810.138	63.46
810.313	63.85
810.489	64.25
810.664	63.23
810.84	64.01
811.015	63.09
811.191	62.75
811.366	63.53
811.542	62.88
811.717	62.85
811.892	62.34
812.068	63.07
812.243	61.82
812.419	61.13
812.594	60.42
812.769	60.2
812.944	60.79
813.12	61.17
813.295	60.98
813.47	59.72
813.645	58.87
813.821	58.56
813.996	57.92
814.171	59.63
814.346	59.5
814.521	61.53
814.697	61.51
814.872	60.38
815.047	60.29
815.222	59.9
815.397	60.81
815.572	61.69
815.747	60.81
815.922	62.18
816.097	61.31
816.272	61.14
816.447	61.5
816.622	61.48
816.797	61.33
816.972	61.51
817.147	62.97
817.322	63.36
817.496	62.26
817.671	63.49
817.846	63.19
818.021	61.98
818.196	61.9
818.371	62.32
818.545	60.39
818.72	58.95
818.895	58.45
819.069	56.57
819.244	55.28
819.419	54.7
819.594	52.73
819.768	50.79
819.943	51.66
820.117	51.48
820.292	48.72
820.467	47.25
820.641	46.53
820.816	45.57
820.99	44.14
821.165	43.53
821.339	42.4
821.514	42.02
821.688	41.31
821.863	40.35
822.037	39.48
822.212	39.51
822.386	39.35
822.56	39.12
822.735	38.66
822.909	38.49
823.084	38.28
823.258	38.33
823.432	38.03
823.606	37.93
823.781	38.17
823.955	38.41
824.129	38.25
824.303	38.8
824.478	39.23
824.652	39.81
824.826	40.43
825	40.74
825.174	41.49
825.348	42.16
825.523	42.66
825.697	43.16
825.871	43.21
826.045	43.52
826.219	43.27
826.393	42.59
826.567	42.52
826.741	42.47
826.915	42.18
827.089	42.2
827.263	41.97
827.437	42.09
827.611	41.67
827.784	42.28
827.958	41.84
828.132	42.15
828.306	42.78
828.48	42.7
828.654	43.43
828.827	43.96
829.001	44.28
829.175	45.27
829.349	45.72
829.522	46.29
829.696	46.72
829.87	48.51
830.044	50.6
830.217	52.45
830.391	53.97
830.565	53.91
830.738	54.75
830.912	54.83
831.085	55.03
831.259	55.11
831.432	55.95
831.606	55.86
831.779	54.13
831.953	51.51
832.126	49.89
832.3	49.52
832.473	49.59
832.647	48.8
832.82	47.49
832.994	46.56
833.167	46.81
833.34	46.16
833.514	45.62
833.687	46.46
833.86	45.9
834.034	46.02
834.207	45.25
834.38	44.92
834.553	44.87
834.727	45.27
834.9	44.98
835.073	44.61
835.246	44.51
835.419	44.89
835.593	44.16
835.766	45.29
835.939	45.35
836.112	46.36
836.285	46.87
836.458	47.71
836.631	48.57
836.804	51.52
836.977	51.34
837.15	52.88
837.323	52.66
837.496	54.1
837.669	54.04
837.842	54.56
838.015	56.48
838.188	57.28
838.361	59.36
838.533	59.95
838.706	59.53
838.879	61.86
839.052	62.27
839.225	63.12
839.398	64.23
839.57	65.8
839.743	65.91
839.916	64.33
840.088	65.37
840.261	65.06
840.434	65.38
840.607	63.58
840.779	61.81
840.952	60.49
841.124	61.49
841.297	59.76
841.47	59.22
841.642	60.84
841.815	61.38
841.987	59.63
842.16	58.29
842.332	59.49
842.505	60.83
842.677	63.75
842.85	65.19
843.022	67.09
843.194	68.97
843.367	70.31
843.539	67.67
843.712	68.08
843.884	70.56
844.056	73.9
844.229	74.1
844.401	76.61
844.573	76.76
844.745	79.46
844.918	77.98
845.09	77.88
845.262	77.8
845.434	81.42
845.606	81.72
845.779	84.14
845.951	83.47
846.123	82.53
846.295	82.52
846.467	84.46
846.639	86.28
846.811	87.87
846.983	93.61
847.155	92.24
847.327	96.17
847.499	97.47
847.671	95.58
847.843	96.69
848.015	97.45
848.187	100.98
848.359	103.08
848.531	95.26
848.703	97.91
848.875	96.97
849.047	100.02
849.218	96.39
849.39	95.81
849.562	94.7
849.734	92.81
849.905	97.72
850.077	94.94
850.249	96.44
850.421	102.16
850.592	99.7
850.764	95.52
850.936	95.06
851.107	96.05
851.279	95.86
851.451	95.62
851.622	101.55
851.794	97.57
851.965	97.86
852.137	96.93
852.308	97.68
852.48	96.29
852.651	97.08
852.823	97.68
852.994	100.03
853.166	103.86
853.337	107.93
853.509	104.15
853.68	100.96
853.851	99.79
854.023	96.66
854.194	98.42
854.365	101.98
854.537	103.53
854.708	104.72
854.879	102.08
855.05	101.39
855.222	99.3
855.393	96.22
855.564	100.33
855.735	101.56
855.906	101.48
856.078	97.56
856.249	96.88
856.42	95.21
856.591	96.87
856.762	99.2
856.933	98.99
857.104	100.08
857.275	101.34
857.446	97.67
857.617	95.33
857.788	93.29
857.959	93.22
858.13	93.09
858.301	91.65
858.472	86.11
858.643	85.4
858.814	82.83
858.985	80.71
859.155	81.69
859.326	83.26
859.497	84.06
859.668	87.84
859.839	89.59
860.009	94.79
860.18	99.87
860.351	105.43
860.522	106.96
860.692	109.85
860.863	116.58
861.034	117.3
861.204	117.04
861.375	110.82
861.546	104.89
861.716	106.89
861.887	100.41
862.057	104.66
862.228	103.59
862.398	97.72
862.569	99.76
862.739	98.58
862.91	97.39
863.08	94.84
863.251	99.95
863.421	104.45
863.592	107.48
863.762	104.86
863.932	100.11
864.103	103.83
864.273	107.81
864.443	106.62
864.614	104.88
864.784	101.76
864.954	107
865.125	104.62
865.295	106.09
865.465	102.82
865.635	105.65
865.805	106.52
865.976	104.44
866.146	102.57
866.316	104
866.486	106.66
866.656	108.35
866.826	109.41
866.996	113.87
867.166	114.02
867.336	110.27
867.506	110.63
867.676	108.89
867.846	110.39
868.016	111.71
868.186	110.29
868.356	111.6
868.526	109.24
868.696	108.4
868.866	104.74
869.036	105.84
869.206	109.13
869.376	113.52
869.545	110.73
869.715	112.17
869.885	112.24
870.055	106.15
870.224	105.92
870.394	104.72
870.564	103.51
870.734	101.07
870.903	100.75
871.073	96.62
871.243	90.04
871.412	89.21
871.582	85.84
871.751	88.62
871.921	94.64
872.091	91.58
872.26	86.9
872.43	85.37
872.599	87.68
872.769	86.18
872.938	88.01
873.108	91.29
873.277	92.84
873.446	92.52
873.616	89.13
873.785	84.88
873.955	88.4
874.124	96.94
874.293	97.55
874.463	96.17
874.632	97.06
874.801	95.22
874.971	92.35
875.14	94.18
875.309	94.09
875.478	97.32
875.647	98.6
875.817	94.99
875.986	97.83
876.155	92.96
876.324	94.93
876.493	91.93
876.662	93.8
876.831	94.12
877	97.39
877.17	98.78
877.339	96.82
877.508	93.92
877.677	95.92
877.846	91.61
878.015	96.96
878.184	92.75
878.352	90.63
878.521	86.51
878.69	90.33
878.859	88.18
879.028	85.03
879.197	82.05
879.366	82.12
879.534	77.93
879.703	74.76
879.872	69.4
880.041	66.89
880.21	63.88
880.378	62.15
880.547	56.42
880.716	52.23
880.884	50.7
881.053	48.54
881.222	45.98
881.39	44.81
881.559	43.49
881.727	42.62
881.896	41.47
882.065	40.45
882.233	39.21
882.402	39.86
882.57	39.2
882.739	38.45
882.907	38.61
883.076	39.04
883.244	38.89
883.412	38.19
883.581	38.43
883.749	38.65
883.918	39.35
884.086	40.55
884.254	40.18
884.423	40.83
884.591	42.1
884.759	43.03
884.927	44.89
885.096	46.56
885.264	48.99
885.432	51.62
885.6	53.85
885.769	56.34
885.937	57.13
886.105	60.54
886.273	65.09
886.441	67.92
886.609	68.54
886.777	67.93
886.945	68.53
887.113	72.27
887.281	70.65
887.449	73.58
887.617	74.05
887.785	78.5
887.953	80.32
888.121	79.69
888.289	76.73
888.457	80.01
888.625	85.47
888.793	87.43
888.961	87.53
889.129	93.98
889.296	93.22
889.464	97.34
889.632	96.27
889.8	93.62
889.967	96.31
890.135	101.9
