Data from 2938807__Reflection_03.txt Node
Date: Thu Mar 12 22:03:37 EDT 2015
User: robert
Spectrometer: USB4E03002
Autoset integration time: false
Trigger mode: 4
Integration Time (sec): 1.000000E-1
Scans to average: 10
Electric dark correction enabled: false
Nonlinearity correction enabled: false
Boxcar width: 5
Stray light correction enabled: false
XAxis mode: Wavelengths
Stop averaging: false
Number of Pixels in Spectrum: 3648
>>>>>Begin Spectral Data<<<<<
177.575	83.29
177.794	87.46
178.014	117.1
178.233	130.85
178.452	144.41
178.672	194.74
178.891	282.27
179.11	560.29
179.33	436.17
179.549	838.54
179.768	10942.86
179.987	-1015.22
180.207	-764.52
180.426	-81.93
180.645	-111.82
180.864	-227.16
181.084	-537.39
181.303	-488.46
181.522	-790.2
181.741	-299.24
181.96	-416.07
182.179	1571.43
182.398	-3300
182.618	4047.06
182.837	703.66
183.056	355.56
183.275	504.48
183.494	459.18
183.713	496.15
183.932	-153.75
184.151	2.61
184.37	103.74
184.589	91.47
184.808	48.86
185.027	18.47
185.246	-82.86
185.465	-1340
185.684	6900
185.903	-675
186.122	-135
186.341	-87.88
186.56	5.31
186.779	6.35
186.998	-22.32
187.216	4.37
187.435	-40.69
187.654	-160.14
187.873	-47.31
188.092	-13.49
188.311	-2.21
188.53	-0
188.748	322.5
188.967	185.36
189.186	171.75
189.405	437.78
189.623	393.42
189.842	872.22
190.061	1804.76
190.28	-1165.12
190.498	385.26
190.717	-1005.66
190.936	-640.95
191.154	-207.04
191.373	-225.73
191.592	-106.87
191.81	-114.97
192.029	-96.56
192.248	-119.28
192.466	-55.23
192.685	-52.25
192.904	-13.85
193.122	-32.56
193.341	9.73
193.559	27.64
193.778	28.64
193.996	6.48
194.215	-3.75
194.433	-8
194.652	-55.38
194.87	-312.9
195.089	181.25
195.307	729.69
195.526	616.92
195.744	266.67
195.963	267.07
196.181	382.4
196.399	202.2
196.618	218.28
196.836	179.51
197.055	231.19
197.273	175
197.491	420.55
197.71	80.17
197.928	117.67
198.146	144.87
198.365	298.02
198.583	450
198.801	184.15
199.019	55.17
199.238	-2200
199.456	210.99
199.674	748.48
199.892	197.65
200.111	222.73
200.329	195.47
200.547	120.75
200.765	105.2
200.983	68.85
201.202	82.16
201.42	141.67
201.638	94.29
201.856	93.57
202.074	59.16
202.292	39.2
202.51	121.47
202.728	47
202.946	72.55
203.165	125.16
203.383	201.75
203.601	150.21
203.819	311.46
204.037	147.57
204.255	-3.57
204.473	60.71
204.691	142.86
204.909	107.45
205.127	134.53
205.345	127.09
205.562	111.99
205.78	118.67
205.998	103.47
206.216	66.58
206.434	75.41
206.652	75.64
206.87	68.87
207.088	54.03
207.306	53.4
207.523	44.67
207.741	46.16
207.959	48.26
208.177	25.93
208.395	42.95
208.612	51.55
208.83	65.45
209.048	99.28
209.266	159.57
209.483	133.78
209.701	2109.09
209.919	401.39
210.136	-783.78
210.354	-121.21
210.572	255.09
210.79	262.65
211.007	183.7
211.225	-686.54
211.442	-405.88
211.66	101.45
211.878	302.86
212.095	-422.31
212.313	-660.98
212.53	-172.9
212.748	-92.45
212.966	-101.21
213.183	-127.27
213.401	-113.41
213.618	-47.15
213.836	-31.19
214.053	-28.78
214.271	-67.52
214.488	32.8
214.705	33.43
214.923	23.76
215.14	24.45
215.358	-3.17
215.575	27.64
215.793	10.21
216.01	-4.07
216.227	-73.93
216.445	-85.41
216.662	-34.03
216.879	11.11
217.097	1
217.314	-4.05
217.531	-7.73
217.749	14.87
217.966	5.4
218.183	13.58
218.4	11.44
218.618	8.54
218.835	28.64
219.052	35.96
219.269	32.32
219.487	42.5
219.704	44.13
219.921	54.04
220.138	54.48
220.355	41.77
220.572	40.17
220.79	40.13
221.007	40.2
221.224	36.42
221.441	35.26
221.658	26.57
221.875	20.32
222.092	24.51
222.309	18.91
222.526	17.33
222.743	22.71
222.96	26.05
223.177	25.8
223.394	27.83
223.611	28.67
223.828	22.97
224.045	21.45
224.262	23.7
224.479	15.29
224.696	11.8
224.913	8.11
225.13	9.64
225.347	3.33
225.564	3.03
225.781	5.17
225.997	4.69
226.214	6.65
226.431	7.17
226.648	5.43
226.865	7.34
227.082	5.67
227.298	3.77
227.515	3.8
227.732	4.34
227.949	3.23
228.165	2.64
228.382	3.12
228.599	2.31
228.816	2.62
229.032	2.08
229.249	1.66
229.466	2.83
229.682	3.43
229.899	2.57
230.116	2.87
230.332	2.69
230.549	2.58
230.765	1.81
230.982	2.71
231.199	1.75
231.415	2.91
231.632	3.06
231.848	2.31
232.065	2.12
232.281	3.19
232.498	2.94
232.714	5.29
232.931	5.15
233.147	5.5
233.364	3.75
233.58	4.61
233.797	3.82
234.013	2.94
234.23	1.2
234.446	2
234.662	1.6
234.879	0.97
235.095	-0.07
235.312	-0.12
235.528	-0.06
235.744	-1.07
235.961	-1.74
236.177	0.4
236.393	0.41
236.61	0.8
236.826	-0.75
237.042	-0.39
237.258	0.31
237.475	0.51
237.691	2.2
237.907	1.95
238.123	2.95
238.339	2.69
238.556	0.63
238.772	0.77
238.988	1.33
239.204	1.61
239.42	1.88
239.636	2.11
239.853	0.62
240.069	-0.46
240.285	-0.19
240.501	1.03
240.717	0.5
240.933	-0.02
241.149	0.77
241.365	0.83
241.581	1.44
241.797	1.55
242.013	1.29
242.229	1.73
242.445	1.61
242.661	2.45
242.877	2.59
243.093	3.17
243.309	3.39
243.525	3.17
243.741	3.51
243.957	2.79
244.173	2.37
244.388	2.68
244.604	2.4
244.82	2.68
245.036	2.25
245.252	0.98
245.468	0.93
245.683	1.16
245.899	1.49
246.115	1.73
246.331	2.55
246.547	2.57
246.762	2.37
246.978	2.51
247.194	2.44
247.409	2.34
247.625	2.53
247.841	2.72
248.057	2.79
248.272	2.71
248.488	2.64
248.703	2.38
248.919	2.31
249.135	2.43
249.35	2.68
249.566	2.94
249.782	2.98
249.997	3.6
250.213	2.94
250.428	2.98
250.644	2.95
250.859	2.81
251.075	2.63
251.29	2.94
251.506	2.51
251.721	2.23
251.937	2.15
252.152	2.34
252.368	1.87
252.583	2.46
252.798	3.08
253.014	3.16
253.229	3.21
253.445	2.75
253.66	2.9
253.875	3.61
254.091	3.69
254.306	3.69
254.521	3.34
254.737	3.7
254.952	3.67
255.167	1.98
255.383	1.45
255.598	1.92
255.813	2.55
256.028	1.52
256.244	1.82
256.459	1.44
256.674	1.47
256.889	1.57
257.104	1.77
257.32	1.01
257.535	1.98
257.75	2.04
257.965	1.57
258.18	1.9
258.395	2.28
258.61	1.63
258.826	1.55
259.041	1.39
259.256	1.31
259.471	1.26
259.686	1.5
259.901	1.12
260.116	1.36
260.331	1.27
260.546	1.22
260.761	1.13
260.976	1.24
261.191	1.24
261.406	1.41
261.621	1.33
261.836	1.18
262.05	1.23
262.265	1.51
262.48	1.45
262.695	1.55
262.91	1.69
263.125	1.99
263.34	1.94
263.555	2.54
263.769	1.87
263.984	1.68
264.199	1.98
264.414	1.75
264.629	2.04
264.843	1.62
265.058	1.85
265.273	1.52
265.488	1.5
265.702	1.87
265.917	1.38
266.132	1.78
266.346	2.19
266.561	1.38
266.776	1.53
266.99	1.59
267.205	1.8
267.42	1.39
267.634	1.19
267.849	0.98
268.063	1.17
268.278	1.38
268.492	1.98
268.707	1.66
268.922	2.35
269.136	2.34
269.351	1.97
269.565	1.59
269.78	2.39
269.994	2.61
270.209	2.49
270.423	2.26
270.637	2.42
270.852	1.81
271.066	1.98
271.281	2.05
271.495	2.11
271.709	1.94
271.924	1.86
272.138	1.59
272.353	1.64
272.567	1.62
272.781	1.24
272.996	1.12
273.21	1.04
273.424	1.56
273.638	1.36
273.853	1.09
274.067	1.52
274.281	1.91
274.495	1.94
274.71	1.96
274.924	2.37
275.138	2.64
275.352	2.36
275.566	2.56
275.781	1.65
275.995	1.71
276.209	2.05
276.423	2.01
276.637	1.63
276.851	1.77
277.065	1.56
277.279	1.54
277.493	1.7
277.707	2.08
277.921	1.92
278.135	1.82
278.349	1.7
278.563	1.58
278.777	1.28
278.991	1.38
279.205	1.19
279.419	1.24
279.633	1.51
279.847	1.37
280.061	1.18
280.275	1.4
280.489	1.77
280.703	2.07
280.917	1.94
281.131	1.9
281.344	2.27
281.558	2.43
281.772	2.86
281.986	2.3
282.2	2.21
282.414	2.35
282.627	2.24
282.841	1.71
283.055	1.43
283.269	1.57
283.482	1.7
283.696	1.34
283.91	1.32
284.123	0.83
284.337	0.77
284.551	0.75
284.764	0.76
284.978	0.59
285.192	1.07
285.405	1.15
285.619	1.2
285.833	1.09
286.046	0.89
286.26	1.03
286.473	1.02
286.687	1.29
286.9	1.43
287.114	1.42
287.327	1.69
287.541	1.84
287.754	1.9
287.968	1.88
288.181	1.89
288.395	2.21
288.608	2.23
288.822	2.36
289.035	2.36
289.248	2.03
289.462	1.91
289.675	1.82
289.889	1.66
290.102	1.41
290.315	1.32
290.529	1.26
290.742	1.26
290.955	1.07
291.169	1.02
291.382	0.96
291.595	1.26
291.808	1.27
292.022	1.57
292.235	1.55
292.448	1.78
292.661	1.86
292.875	2.11
293.088	2.48
293.301	2.14
293.514	2.33
293.727	2.37
293.94	2.54
294.153	2.25
294.367	1.95
294.58	1.74
294.793	2.01
295.006	1.97
295.219	1.74
295.432	1.34
295.645	1.39
295.858	1.25
296.071	1.33
296.284	1.41
296.497	1.76
296.71	1.68
296.923	1.77
297.136	1.44
297.349	1.29
297.562	1.36
297.775	1.47
297.988	1.41
298.201	1.23
298.414	1.34
298.626	1.19
298.839	1.26
299.052	1.35
299.265	1.32
299.478	1.6
299.691	1.9
299.903	1.78
300.116	1.87
300.329	2.02
300.542	2.61
300.755	2.37
300.967	2.55
301.18	2.47
301.393	2.63
301.605	2.78
301.818	2.39
302.031	2.51
302.243	3.1
302.456	3.06
302.669	3.28
302.881	2.79
303.094	2.94
303.307	2.82
303.519	2.77
303.732	2.54
303.944	2.71
304.157	2.99
304.37	2.6
304.582	2.48
304.795	2.18
305.007	2.14
305.22	2.48
305.432	2.08
305.645	2.11
305.857	1.86
306.069	2.14
306.282	1.69
306.494	1.78
306.707	2.19
306.919	2.2
307.132	2.75
307.344	2.98
307.556	2.8
307.769	2.93
307.981	2.61
308.193	2.72
308.406	2.51
308.618	2.68
308.83	2.64
309.043	2.6
309.255	2.45
309.467	2.16
309.679	2.09
309.892	2.05
310.104	2.26
310.316	2.49
310.528	2.5
310.74	2.54
310.953	2.72
311.165	2.77
311.377	2.76
311.589	2.67
311.801	2.64
312.013	2.55
312.225	2.64
312.437	2.41
312.649	2.44
312.862	2.33
313.074	2.31
313.286	2.3
313.498	2.73
313.71	2.57
313.922	2.33
314.134	2.7
314.346	2.41
314.558	2.92
314.77	3.43
314.982	3.48
315.193	3.58
315.405	3.67
315.617	3.91
315.829	3.5
316.041	3.65
316.253	3.92
316.465	4.06
316.677	4.65
316.888	4.38
317.1	3.98
317.312	3.9
317.524	3.48
317.736	3.32
317.947	2.98
318.159	3.26
318.371	3.04
318.583	2.91
318.794	2.67
319.006	2.69
319.218	2.89
319.43	3.2
319.641	3.15
319.853	3.94
320.064	4.03
320.276	4.02
320.488	3.73
320.699	4.06
320.911	4.73
321.123	4.6
321.334	4.77
321.546	4.34
321.757	4
321.969	4.09
322.18	3.92
322.392	4.03
322.603	3.76
322.815	3.7
323.026	3.43
323.238	3.35
323.449	3.66
323.661	3.22
323.872	3.17
324.083	3.42
324.295	3.46
324.506	3.72
324.718	3.93
324.929	4.17
325.14	4.52
325.352	5.13
325.563	4.79
325.774	4.67
325.986	4.76
326.197	5
326.408	5.14
326.62	5.31
326.831	5.65
327.042	5.67
327.253	6.08
327.464	6.08
327.676	6.09
327.887	6.73
328.098	7.19
328.309	7.08
328.52	7.09
328.732	7.02
328.943	7.08
329.154	6.69
329.365	6.89
329.576	6.72
329.787	7.2
329.998	7.2
330.209	6.98
330.42	6.7
330.631	7.26
330.842	7.27
331.053	7.18
331.264	7.16
331.475	7.64
331.686	7.53
331.897	7.49
332.108	7.1
332.319	7.05
332.53	6.96
332.741	7.19
332.952	7.01
333.163	7.48
333.374	7.75
333.585	7.67
333.795	7.21
334.006	7.24
334.217	7.38
334.428	7.64
334.639	7.66
334.849	7.47
335.06	7.54
335.271	7.73
335.482	7.48
335.692	7.52
335.903	7.78
336.114	8.15
336.325	8.45
336.535	8.74
336.746	9.02
336.957	8.94
337.167	9.35
337.378	9.7
337.589	9.42
337.799	9.04
338.01	9.37
338.22	9.41
338.431	9.54
338.642	9.36
338.852	9.33
339.063	8.91
339.273	8.94
339.484	8.82
339.694	8.49
339.905	8.78
340.115	9.52
340.326	9.23
340.536	9.24
340.746	9.1
340.957	8.85
341.167	8.82
341.378	8.78
341.588	8.59
341.799	8.46
342.009	8.37
342.219	8.46
342.43	8.18
342.64	8.15
342.85	8.27
343.061	8.17
343.271	8.27
343.481	8.22
343.691	8.17
343.902	8.55
344.112	8.88
344.322	8.73
344.532	9.03
344.743	8.99
344.953	8.86
345.163	8.76
345.373	8.56
345.583	8.64
345.793	8.5
346.004	8.61
346.214	8.72
346.424	8.67
346.634	9
346.844	8.76
347.054	8.45
347.264	8.92
347.474	8.8
347.684	9.19
347.894	9.26
348.104	9.55
348.314	9.32
348.524	9.19
348.734	9.23
348.944	9.07
349.154	9.07
349.364	9.53
349.574	9.05
349.784	9.19
349.994	9.17
350.204	8.93
350.413	8.75
350.623	9.12
350.833	8.86
351.043	9.02
351.253	9.06
351.463	9.15
351.672	8.89
351.882	9.18
352.092	8.84
352.302	8.6
352.511	8.89
352.721	8.81
352.931	8.66
353.141	8.91
353.35	8.71
353.56	8.32
353.77	8.27
353.979	8.67
354.189	8.47
354.399	8.7
354.608	8.71
354.818	8.68
355.027	8.76
355.237	8.71
355.447	8.5
355.656	8.39
355.866	8.71
356.075	8.55
356.285	8.36
356.494	8.49
356.704	8.55
356.913	8.56
357.123	8.74
357.332	8.61
357.542	8.41
357.751	8.31
357.96	8.32
358.17	8.32
358.379	8.46
358.589	8.42
358.798	8.19
359.007	8.18
359.217	7.98
359.426	7.97
359.635	8.16
359.845	8.24
360.054	8.31
360.263	8.21
360.472	8.02
360.682	8.14
360.891	8.29
361.1	8.36
361.309	8.19
361.519	8.45
361.728	8.28
361.937	8.14
362.146	8.14
362.355	8.27
362.564	8.25
362.774	8.28
362.983	8.03
363.192	7.78
363.401	7.8
363.61	8.01
363.819	7.93
364.028	8.14
364.237	8.18
364.446	8.09
364.655	8.02
364.864	8.2
365.073	8.23
365.282	8.27
365.491	8.35
365.7	8.22
365.909	8.17
366.118	8.02
366.327	8.02
366.536	8.07
366.745	8.25
366.954	8.18
367.162	8.02
367.371	7.96
367.58	7.96
367.789	8
367.998	7.92
368.207	7.81
368.415	8
368.624	7.92
368.833	7.92
369.042	8
369.25	7.94
369.459	8.15
369.668	8.26
369.877	8.21
370.085	8.51
370.294	8.65
370.503	9.04
370.711	8.82
370.92	8.61
371.129	8.4
371.337	8.44
371.546	8.54
371.754	8.4
371.963	8.41
372.171	8.63
372.38	8.42
372.589	8.68
372.797	8.41
373.006	8.6
373.214	8.84
373.423	8.95
373.631	8.74
373.84	8.78
374.048	8.72
374.256	8.77
374.465	8.65
374.673	8.73
374.882	8.55
375.09	8.51
375.298	8.53
375.507	8.32
375.715	8.26
375.923	8.29
376.132	8.1
376.34	8.25
376.548	8.27
376.757	8.22
376.965	8.09
377.173	8.05
377.381	7.97
377.59	8.07
377.798	8.17
378.006	8.15
378.214	8.23
378.423	8.5
378.631	8.57
378.839	8.54
379.047	8.69
379.255	8.58
379.463	8.76
379.671	9.01
379.879	8.7
380.088	8.73
380.296	8.91
380.504	9.01
380.712	8.86
380.92	8.73
381.128	8.69
381.336	8.49
381.544	8.75
381.752	8.61
381.96	8.4
382.168	8.56
382.376	8.33
382.584	8.15
382.791	8.08
382.999	8.22
383.207	8.38
383.415	8.58
383.623	8.71
383.831	8.51
384.039	8.63
384.247	8.75
384.454	8.7
384.662	8.84
384.87	9.01
385.078	9.08
385.285	9.16
385.493	9.16
385.701	9.1
385.909	8.95
386.116	9.07
386.324	9.07
386.532	9.03
386.739	9.16
386.947	9.16
387.155	9.22
387.362	9.22
387.57	9.07
387.778	9.03
387.985	8.96
388.193	9.14
388.4	9.2
388.608	9.08
388.816	9.12
389.023	9.1
389.231	9.1
389.438	8.88
389.646	8.9
389.853	8.87
390.061	8.78
390.268	8.95
390.475	8.93
390.683	8.86
390.89	8.94
391.098	9.09
391.305	9.1
391.512	9.09
391.72	9.22
391.927	9.18
392.135	9.36
392.342	9.51
392.549	9.56
392.756	9.4
392.964	9.45
393.171	9.57
393.378	9.52
393.586	9.42
393.793	9.61
394	9.77
394.207	9.78
394.414	9.74
394.622	9.75
394.829	9.63
395.036	9.84
395.243	9.95
395.45	10.05
395.657	10.1
395.864	10.17
396.072	10.09
396.279	10.12
396.486	10.23
396.693	10.19
396.9	10.09
397.107	10.11
397.314	10.32
397.521	10.29
397.728	10.14
397.935	10.03
398.142	10.01
398.349	10.08
398.556	10.01
398.763	10.08
398.97	10.07
399.177	10.2
399.383	10.26
399.59	10
399.797	9.81
400.004	9.92
400.211	9.8
400.418	9.93
400.625	9.93
400.831	9.95
401.038	10.08
401.245	10.05
401.452	10
401.658	10.1
401.865	10.1
402.072	10.12
402.279	10.29
402.485	10.38
402.692	10.32
402.899	10.43
403.105	10.45
403.312	10.32
403.519	10.32
403.725	10.32
403.932	10.26
404.138	10.36
404.345	10.51
404.552	10.26
404.758	10.35
404.965	10.35
405.171	10.3
405.378	10.39
405.584	10.39
405.791	10.45
405.997	10.34
406.204	10.47
406.41	10.4
406.617	10.49
406.823	10.52
407.029	10.46
407.236	10.66
407.442	10.65
407.649	10.55
407.855	10.61
408.061	10.75
408.268	10.92
408.474	10.85
408.68	10.98
408.887	10.76
409.093	10.84
409.299	10.93
409.505	10.78
409.712	10.89
409.918	10.9
410.124	10.79
410.33	10.78
410.537	10.87
410.743	10.74
410.949	10.59
411.155	10.73
411.361	10.68
411.567	10.69
411.773	10.69
411.98	10.52
412.186	10.44
412.392	10.5
412.598	10.39
412.804	10.37
413.01	10.41
413.216	10.49
413.422	10.42
413.628	10.49
413.834	10.36
414.04	10.3
414.246	10.3
414.452	10.38
414.658	10.47
414.864	10.38
415.07	10.27
415.275	10.35
415.481	10.52
415.687	10.52
415.893	10.51
416.099	10.59
416.305	10.69
416.511	10.69
416.716	10.57
416.922	10.52
417.128	10.52
417.334	10.58
417.539	10.47
417.745	10.38
417.951	10.4
418.157	10.36
418.362	10.37
418.568	10.35
418.774	10.28
418.979	10.35
419.185	10.27
419.391	10.32
419.596	10.19
419.802	10.23
420.008	10.23
420.213	10.64
420.419	10.6
420.624	10.5
420.83	10.51
421.035	10.56
421.241	10.46
421.446	10.43
421.652	10.48
421.857	10.52
422.063	10.48
422.268	10.49
422.474	10.12
422.679	10.12
422.885	10.21
423.09	10.19
423.295	10.12
423.501	10.27
423.706	10.26
423.911	10.21
424.117	10.2
424.322	10.23
424.527	10.13
424.733	10.07
424.938	10.05
425.143	9.96
425.349	9.97
425.554	9.96
425.759	9.88
425.964	9.95
426.169	9.94
426.375	9.97
426.58	9.84
426.785	9.97
426.99	9.97
427.195	9.97
427.4	10.05
427.605	9.97
427.811	10.08
428.016	10.05
428.221	9.98
428.426	9.92
428.631	9.75
428.836	9.76
429.041	9.63
429.246	9.64
429.451	9.72
429.656	9.83
429.861	9.85
430.066	9.71
430.271	9.63
430.476	9.71
430.681	9.73
430.886	9.88
431.09	9.9
431.295	9.98
431.5	10.08
431.705	10.01
431.91	9.93
432.115	9.97
432.32	10.06
432.524	10.06
432.729	10.07
432.934	10.13
433.139	10.22
433.343	10.31
433.548	10.28
433.753	10.26
433.958	10.2
434.162	10.25
434.367	10.27
434.572	10.21
434.776	10.3
434.981	10.23
435.186	10.17
435.39	10.1
435.595	10.07
435.799	10.1
436.004	10.09
436.209	10.15
436.413	10.05
436.618	10.08
436.822	10.16
437.027	10.14
437.231	10.21
437.436	10.15
437.64	10.11
437.845	10.15
438.049	10.17
438.253	10.14
438.458	10.08
438.662	10.02
438.867	9.91
439.071	9.91
439.275	9.86
439.48	9.79
439.684	9.87
439.888	9.79
440.093	9.72
440.297	9.66
440.501	9.61
440.706	9.64
440.91	9.71
441.114	9.78
441.318	9.73
441.523	9.76
441.727	9.81
441.931	9.79
442.135	9.81
442.339	9.82
442.543	9.83
442.748	9.85
442.952	9.79
443.156	9.87
443.36	9.79
443.564	9.81
443.768	9.82
443.972	9.78
444.176	9.81
444.38	9.92
444.584	10.01
444.788	9.94
444.992	9.99
445.196	10.1
445.4	9.99
445.604	10.01
445.808	9.97
446.012	9.99
446.216	9.99
446.42	10.02
446.624	9.98
446.828	9.89
447.032	9.98
447.235	9.97
447.439	9.92
447.643	9.92
447.847	10.01
448.051	10.04
448.254	9.99
448.458	10
448.662	9.9
448.866	9.99
449.069	10.05
449.273	10.01
449.477	9.94
449.681	9.93
449.884	10.12
450.088	9.98
450.292	10.02
450.495	10.03
450.699	10.05
450.902	10.09
451.106	9.94
451.31	9.91
451.513	9.99
451.717	9.95
451.92	10.02
452.124	9.94
452.327	10.01
452.531	10
452.734	10.07
452.938	10.03
453.141	10.02
453.345	10.14
453.548	10.17
453.752	10.02
453.955	10.07
454.158	10.11
454.362	9.91
454.565	9.93
454.769	9.77
454.972	9.7
455.175	9.79
455.379	9.76
455.582	9.69
455.785	9.68
455.988	9.72
456.192	9.72
456.395	9.65
456.598	9.79
456.801	9.69
457.005	9.82
457.208	9.85
457.411	9.78
457.614	9.89
457.817	9.85
458.021	9.89
458.224	9.92
458.427	9.9
458.63	9.85
458.833	9.78
459.036	9.84
459.239	9.79
459.442	9.78
459.645	9.78
459.848	9.79
460.051	9.74
460.254	9.68
460.457	9.77
460.66	9.74
460.863	9.84
461.066	9.9
461.269	9.84
461.472	9.87
461.675	9.86
461.878	9.84
462.081	9.67
462.284	9.79
462.486	9.81
462.689	9.7
462.892	9.87
463.095	9.77
463.298	9.78
463.5	9.82
463.703	9.82
463.906	9.81
464.109	9.78
464.311	9.9
464.514	9.9
464.717	9.94
464.92	9.88
465.122	9.71
465.325	9.72
465.528	9.73
465.73	9.65
465.933	9.69
466.135	9.78
466.338	9.8
466.541	9.81
466.743	9.82
466.946	9.85
467.148	9.87
467.351	9.87
467.553	9.95
467.756	9.99
467.958	10.06
468.161	10.11
468.363	10.09
468.566	10.12
468.768	10.05
468.971	9.93
469.173	9.93
469.375	10
469.578	10.06
469.78	9.93
469.983	9.92
470.185	9.89
470.387	9.84
470.59	9.76
470.792	9.8
470.994	9.97
471.196	10.15
471.399	10.14
471.601	10.16
471.803	10.05
472.005	10.05
472.208	10.08
472.41	10.07
472.612	10
472.814	10.09
473.016	10.02
473.218	9.88
473.421	9.79
473.623	9.7
473.825	9.66
474.027	9.71
474.229	9.75
474.431	9.71
474.633	9.82
474.835	9.93
475.037	9.9
475.239	10.01
475.441	10.13
475.643	10.17
475.845	10.25
476.047	10.24
476.249	10.42
476.451	10.46
476.653	10.47
476.855	10.48
477.057	10.38
477.258	10.37
477.46	10.35
477.662	10.26
477.864	10.22
478.066	10.19
478.268	10.17
478.469	9.99
478.671	9.96
478.873	9.82
479.075	9.85
479.276	9.91
479.478	9.94
479.68	9.89
479.882	9.93
480.083	9.87
480.285	9.9
480.487	9.92
480.688	9.96
480.89	9.96
481.091	10.07
481.293	9.99
481.495	9.97
481.696	10.01
481.898	10.06
482.099	10.07
482.301	10.1
482.502	10.1
482.704	10.11
482.905	10.07
483.107	10.05
483.308	10.06
483.51	10.04
483.711	10.07
483.913	10.02
484.114	10.01
484.315	10.01
484.517	9.99
484.718	9.96
484.92	9.94
485.121	9.97
485.322	9.97
485.524	9.96
485.725	9.99
485.926	9.98
486.127	10.01
486.329	10
486.53	10
486.731	10.04
486.932	10.08
487.134	10.09
487.335	10.07
487.536	10.02
487.737	10.02
487.938	10.01
488.139	9.96
488.341	9.98
488.542	9.97
488.743	9.99
488.944	9.95
489.145	9.92
489.346	9.9
489.547	9.92
489.748	9.95
489.949	9.97
490.15	10.02
490.351	10.06
490.552	10.06
490.753	10.1
490.954	10.07
491.155	10.09
491.356	10.07
491.557	10.07
491.758	10.07
491.959	10.09
492.159	10.09
492.36	10.01
492.561	9.99
492.762	10
492.963	9.96
493.164	9.98
493.364	9.98
493.565	9.97
493.766	10.01
493.967	10.08
494.167	10.07
494.368	10.02
494.569	10.15
494.769	10.15
494.97	10.1
495.171	10.13
495.371	10.14
495.572	10.11
495.773	10.19
495.973	10.16
496.174	10.11
496.375	10.24
496.575	10.28
496.776	10.21
496.976	10.22
497.177	10.26
497.377	10.29
497.578	10.26
497.778	10.38
497.979	10.36
498.179	10.45
498.38	10.45
498.58	10.33
498.78	10.33
498.981	10.28
499.181	10.36
499.382	10.36
499.582	10.36
499.782	10.4
499.983	10.33
500.183	10.33
500.383	10.32
500.584	10.27
500.784	10.33
500.984	10.41
501.184	10.51
501.385	10.45
501.585	10.42
501.785	10.46
501.985	10.39
502.185	10.48
502.386	10.42
502.586	10.42
502.786	10.47
502.986	10.47
503.186	10.34
503.386	10.34
503.586	10.44
503.786	10.45
503.987	10.41
504.187	10.46
504.387	10.34
504.587	10.45
504.787	10.41
504.987	10.44
505.187	10.54
505.387	10.63
505.587	10.66
505.786	10.67
505.986	10.7
506.186	10.73
506.386	10.72
506.586	10.83
506.786	10.8
506.986	10.8
507.186	10.75
507.386	10.68
507.585	10.63
507.785	10.62
507.985	10.62
508.185	10.71
508.384	10.66
508.584	10.68
508.784	10.67
508.984	10.73
509.183	10.8
509.383	10.79
509.583	10.79
509.782	10.82
509.982	10.8
510.182	10.73
510.381	10.61
510.581	10.71
510.781	10.75
510.98	10.76
511.18	10.78
511.379	10.79
511.579	10.84
511.778	10.87
511.978	10.92
512.177	10.96
512.377	11.04
512.576	11.1
512.776	11.02
512.975	11.08
513.175	11.09
513.374	11.07
513.573	11.09
513.773	11.03
513.972	11.09
514.172	11.14
514.371	11.07
514.57	11.05
514.77	11.08
514.969	11.13
515.168	11.15
515.367	11.21
515.567	11.25
515.766	11.26
515.965	11.4
516.164	11.4
516.364	11.35
516.563	11.44
516.762	11.5
516.961	11.51
517.16	11.6
517.359	11.59
517.559	11.66
517.758	11.65
517.957	11.65
518.156	11.65
518.355	11.68
518.554	11.65
518.753	11.57
518.952	11.58
519.151	11.59
519.35	11.54
519.549	11.5
519.748	11.44
519.947	11.41
520.146	11.52
520.345	11.48
520.544	11.49
520.743	11.63
520.942	11.77
521.141	11.79
521.339	11.82
521.538	11.91
521.737	12.01
521.936	12.09
522.135	12.15
522.333	12.08
522.532	12.15
522.731	12.22
522.93	12.19
523.129	12.26
523.327	12.29
523.526	12.36
523.725	12.28
523.923	12.28
524.122	12.22
524.321	12.28
524.519	12.36
524.718	12.38
524.917	12.39
525.115	12.44
525.314	12.5
525.512	12.5
525.711	12.5
525.909	12.61
526.108	12.62
526.306	12.74
526.505	12.77
526.703	12.79
526.902	12.87
527.1	12.88
527.299	12.91
527.497	12.89
527.696	12.89
527.894	12.87
528.092	12.86
528.291	12.88
528.489	12.88
528.688	12.86
528.886	12.84
529.084	12.84
529.283	12.83
529.481	12.85
529.679	12.84
529.877	12.9
530.076	12.93
530.274	12.98
530.472	12.97
530.67	12.98
530.869	13.04
531.067	13.02
531.265	13.02
531.463	13.09
531.661	13.13
531.859	13.21
532.057	13.22
532.255	13.24
532.454	13.27
532.652	13.3
532.85	13.32
533.048	13.33
533.246	13.39
533.444	13.42
533.642	13.44
533.84	13.41
534.038	13.35
534.236	13.39
534.434	13.42
534.632	13.46
534.83	13.48
535.027	13.55
535.225	13.6
535.423	13.71
535.621	13.74
535.819	13.78
536.017	13.76
536.215	13.81
536.412	13.81
536.61	13.84
536.808	13.76
537.006	13.81
537.203	13.81
537.401	13.83
537.599	13.79
537.797	13.82
537.994	13.82
538.192	13.93
538.39	14
538.587	14.05
538.785	14.12
538.983	14.28
539.18	14.27
539.378	14.35
539.575	14.37
539.773	14.47
539.97	14.52
540.168	14.59
540.366	14.62
540.563	14.71
540.761	14.77
540.958	14.8
541.155	14.79
541.353	14.81
541.55	14.8
541.748	14.81
541.945	14.78
542.143	14.73
542.34	14.71
542.537	14.72
542.735	14.71
542.932	14.69
543.129	14.71
543.327	14.8
543.524	14.83
543.721	14.84
543.919	14.91
544.116	14.96
544.313	15.09
544.51	15.18
544.708	15.22
544.905	15.28
545.102	15.39
545.299	15.4
545.496	15.37
545.693	15.42
545.891	15.55
546.088	15.52
546.285	15.56
546.482	15.53
546.679	15.51
546.876	15.52
547.073	15.43
547.27	15.3
547.467	15.28
547.664	15.29
547.861	15.27
548.058	15.09
548.255	15.1
548.452	15.04
548.649	15.11
548.846	14.92
549.043	14.89
549.24	14.9
549.437	14.94
549.633	14.84
549.83	14.83
550.027	14.98
550.224	15.16
550.421	15.15
550.618	15.25
550.814	15.14
551.011	15.35
551.208	15.32
551.405	15.32
551.601	15.39
551.798	15.49
551.995	15.46
552.191	15.35
552.388	15.24
552.585	15.33
552.781	15.24
552.978	15.15
553.175	15.13
553.371	15.16
553.568	15.17
553.764	14.98
553.961	14.96
554.157	14.98
554.354	14.89
554.55	14.9
554.747	14.79
554.943	14.85
555.14	14.83
555.336	14.82
555.533	14.75
555.729	14.74
555.926	14.91
556.122	14.92
556.318	14.88
556.515	14.96
556.711	15.04
556.907	15.1
557.104	15.07
557.3	15.27
557.496	15.24
557.693	15.42
557.889	15.46
558.085	15.43
558.281	15.39
558.478	15.5
558.674	15.48
558.87	15.53
559.066	15.57
559.262	15.61
559.459	15.58
559.655	15.7
559.851	15.69
560.047	15.66
560.243	15.68
560.439	15.72
560.635	15.74
560.831	15.69
561.027	15.65
561.223	15.52
561.419	15.49
561.615	15.45
561.811	15.47
562.007	15.44
562.203	15.47
562.399	15.54
562.595	15.58
562.791	15.55
562.987	15.53
563.183	15.57
563.379	15.79
563.575	15.93
563.771	15.92
563.966	15.88
564.162	15.92
564.358	15.95
564.554	15.91
564.75	15.96
564.945	15.9
565.141	15.93
565.337	15.84
565.533	15.76
565.728	15.63
565.924	15.68
566.12	15.61
566.315	15.6
566.511	15.53
566.707	15.5
566.902	15.47
567.098	15.44
567.293	15.44
567.489	15.47
567.684	15.44
567.88	15.48
568.076	15.46
568.271	15.46
568.467	15.43
568.662	15.37
568.858	15.4
569.053	15.35
569.248	15.48
569.444	15.63
569.639	15.69
569.835	15.57
570.03	15.55
570.225	15.57
570.421	15.57
570.616	15.65
570.812	15.77
571.007	15.7
571.202	15.8
571.397	15.74
571.593	15.67
571.788	15.61
571.983	15.75
572.178	15.8
572.374	15.82
572.569	15.91
572.764	15.85
572.959	15.85
573.154	15.87
573.35	15.8
573.545	15.97
573.74	16.07
573.935	16.09
574.13	16.02
574.325	16.01
574.52	16.01
574.715	16.08
574.91	16.06
575.105	16.07
575.3	16.13
575.495	16.16
575.69	16.05
575.885	15.98
576.08	16.02
576.275	15.96
576.47	15.96
576.665	15.98
576.86	15.9
577.055	15.95
577.25	15.96
577.444	15.92
577.639	15.95
577.834	15.85
578.029	15.88
578.224	15.87
578.418	16.03
578.613	16.03
578.808	16.04
579.003	16.05
579.197	16.01
579.392	16.04
579.587	16.08
579.781	16.15
579.976	16.24
580.171	16.28
580.365	16.33
580.56	16.36
580.755	16.34
580.949	16.31
581.144	16.33
581.338	16.39
581.533	16.29
581.727	16.34
581.922	16.27
582.116	16.22
582.311	16.05
582.505	16.06
582.7	16.1
582.894	16.08
583.089	16.17
583.283	16.11
583.478	16.15
583.672	16.31
583.866	16.28
584.061	16.29
584.255	16.44
584.449	16.68
584.644	16.77
584.838	16.89
585.032	16.95
585.226	16.93
585.421	17.03
585.615	17.08
585.809	17.14
586.003	17.24
586.198	17.18
586.392	17.07
586.586	17.07
586.78	17.02
586.974	16.91
587.168	17.07
587.363	17.01
587.557	16.98
587.751	16.96
587.945	16.93
588.139	16.82
588.333	16.84
588.527	16.84
588.721	16.71
588.915	16.67
589.109	16.72
589.303	16.42
589.497	16.48
589.691	16.37
589.885	16.28
590.079	16.19
590.273	16.33
590.466	16.3
590.66	16.32
590.854	16.33
591.048	16.35
591.242	16.32
591.436	16.51
591.629	16.52
591.823	16.68
592.017	16.75
592.211	16.86
592.404	16.79
592.598	16.82
592.792	16.79
592.986	16.91
593.179	16.91
593.373	16.72
593.567	16.64
593.76	16.63
593.954	16.62
594.147	16.63
594.341	16.59
594.535	16.54
594.728	16.65
594.922	16.86
595.115	16.77
595.309	16.82
595.502	17.01
595.696	17.1
595.889	17.08
596.083	17.03
596.276	16.94
596.47	16.97
596.663	16.99
596.856	16.98
597.05	16.89
597.243	16.88
597.437	16.84
597.63	16.85
597.823	16.76
598.017	16.72
598.21	16.78
598.403	16.8
598.596	16.73
598.79	16.73
598.983	16.64
599.176	16.59
599.369	16.66
599.563	16.57
599.756	16.46
599.949	16.8
600.142	16.74
600.335	16.8
600.528	16.96
600.722	17.08
600.915	17.2
601.108	17.28
601.301	17.32
601.494	17.36
601.687	17.59
601.88	17.6
602.073	17.4
602.266	17.59
602.459	17.49
602.652	17.49
602.845	17.52
603.038	17.38
603.231	17.32
603.424	17.34
603.617	17.33
603.809	17.23
604.002	17.21
604.195	17.11
604.388	16.97
604.581	16.98
604.774	16.94
604.966	16.84
605.159	16.86
605.352	16.97
605.545	16.96
605.737	16.84
605.93	16.9
606.123	16.92
606.316	17.01
606.508	17.19
606.701	17.21
606.894	17.1
607.086	17.14
607.279	17.15
607.471	17.13
607.664	17.22
607.857	17.27
608.049	17.29
608.242	17.36
608.434	17.43
608.627	17.47
608.819	17.52
609.012	17.87
609.204	18.11
609.397	18.34
609.589	18.52
609.782	18.57
609.974	18.83
610.166	19.01
610.359	19.33
610.551	19.57
610.743	19.78
610.936	20.05
611.128	20.11
611.32	20.19
611.513	20.26
611.705	20.28
611.897	20.53
612.09	20.55
612.282	20.49
612.474	20.25
612.666	20.12
612.858	19.98
613.051	19.86
613.243	19.77
613.435	19.61
613.627	19.44
613.819	19.32
614.011	19.16
614.203	19.04
614.395	19.01
614.588	18.85
614.78	18.8
614.972	18.75
615.164	18.72
615.356	18.63
615.548	18.49
615.74	18.33
615.932	18.3
616.124	18.1
616.315	17.86
616.507	17.82
616.699	17.99
616.891	17.93
617.083	17.83
617.275	17.66
617.467	17.59
617.659	17.29
617.85	17.47
618.042	17.52
618.234	17.65
618.426	17.87
618.618	17.83
618.809	17.66
619.001	17.62
619.193	17.52
619.384	17.61
619.576	17.63
619.768	17.89
619.959	17.83
620.151	17.77
620.343	17.73
620.534	17.6
620.726	17.52
620.917	17.59
621.109	17.62
621.301	17.75
621.492	17.66
621.684	17.68
621.875	17.66
622.067	17.72
622.258	17.71
622.45	17.72
622.641	17.81
622.832	17.75
623.024	17.78
623.215	17.74
623.407	17.77
623.598	17.93
623.789	17.82
623.981	17.9
624.172	17.82
624.363	17.76
624.555	17.79
624.746	17.92
624.937	18.1
625.129	18.13
625.32	18.09
625.511	18.18
625.702	18.07
625.893	18.21
626.085	18.13
626.276	18.16
626.467	18.31
626.658	18.18
626.849	17.99
627.04	17.95
627.231	17.83
627.422	17.98
627.614	17.76
627.805	17.79
627.996	17.84
628.187	17.85
628.378	17.85
628.569	17.77
628.76	17.71
628.951	17.71
629.142	17.73
629.332	17.81
629.523	17.61
629.714	17.78
629.905	17.78
630.096	17.6
630.287	17.61
630.478	17.54
630.669	17.52
630.859	17.66
631.05	17.65
631.241	17.57
631.432	17.49
631.623	17.62
631.813	17.44
632.004	17.53
632.195	17.6
632.385	17.59
632.576	17.82
632.767	17.63
632.957	17.4
633.148	17.45
633.339	17.33
633.529	17.43
633.72	17.27
633.91	17.39
634.101	17.19
634.292	17.12
634.482	17.29
634.673	17.09
634.863	17.14
635.054	17.29
635.244	17.36
635.435	17.54
635.625	17.56
635.815	17.53
636.006	17.52
636.196	17.69
636.387	17.67
636.577	17.45
636.767	17.42
636.958	17.36
637.148	17.33
637.338	17.29
637.529	17.23
637.719	17.03
637.909	17.27
638.099	17.17
638.29	17.08
638.48	16.97
638.67	17.09
638.86	17.21
639.05	17.3
639.241	17.33
639.431	17.26
639.621	17.26
639.811	17.69
640.001	17.62
640.191	17.63
640.381	17.52
640.571	17.86
640.761	17.9
640.951	17.81
641.141	17.71
641.331	17.68
641.521	17.42
641.711	17.46
641.901	17.28
642.091	17.13
642.281	16.89
642.471	16.97
642.661	16.82
642.851	16.86
643.041	16.87
643.231	16.93
643.42	16.99
643.61	17.17
643.8	17.05
643.99	16.77
644.18	17.18
644.369	17.61
644.559	17.66
644.749	17.45
644.939	17.27
645.128	17.34
645.318	17.49
645.508	17.35
645.697	17.44
645.887	17.59
646.076	17.59
646.266	17.55
646.456	17.31
646.645	17.38
646.835	17.61
647.024	17.64
647.214	17.5
647.403	17.31
647.593	17.6
647.782	17.82
647.972	17.85
648.161	18.01
648.351	17.87
648.54	17.88
648.73	17.97
648.919	17.82
649.108	17.95
649.298	18.04
649.487	18.32
649.677	18.46
649.866	18.39
650.055	18.41
650.244	18.53
650.434	18.57
650.623	18.68
650.812	18.44
651.002	18.66
651.191	18.83
651.38	18.85
651.569	18.57
651.758	18.35
651.947	18.14
652.137	18.08
652.326	18.03
652.515	18.03
652.704	18.02
652.893	18.16
653.082	18.02
653.271	17.6
653.46	17.51
653.649	17.56
653.838	17.39
654.027	17.47
654.216	17.37
654.405	17.36
654.594	17.43
654.783	17.38
654.972	17.54
655.161	17.74
655.35	18.01
655.539	17.88
655.728	18.1
655.916	18.26
656.105	18.48
656.294	18.41
656.483	18.46
656.672	18.27
656.86	18.47
657.049	18.4
657.238	18.33
657.427	18.24
657.615	18.33
657.804	18.3
657.993	18.49
658.181	18.39
658.37	18.49
658.559	18.49
658.747	18.58
658.936	18.6
659.125	18.48
659.313	18.46
659.502	18.41
659.69	18.7
659.879	18.58
660.067	18.31
660.256	18.18
660.444	18.29
660.633	18.27
660.821	17.99
661.01	17.82
661.198	17.93
661.387	17.82
661.575	17.86
661.763	17.51
661.952	17.7
662.14	17.9
662.328	18.09
662.517	17.96
662.705	17.77
662.893	17.85
663.082	17.72
663.27	17.74
663.458	17.76
663.646	17.94
663.834	18.05
664.023	17.92
664.211	18.02
664.399	17.75
664.587	17.87
664.775	18.11
664.963	18.44
665.152	18.52
665.34	18.44
665.528	18.3
665.716	17.99
665.904	18.06
666.092	18.01
666.28	17.81
666.468	17.88
666.656	17.82
666.844	17.84
667.032	17.66
667.22	17.77
667.408	17.78
667.596	17.92
667.784	18.08
667.971	18.1
668.159	18.28
668.347	18.51
668.535	18.72
668.723	18.45
668.911	18.29
669.098	18.32
669.286	18.22
669.474	18.08
669.662	18.12
669.849	17.89
670.037	17.85
670.225	17.58
670.413	17.37
670.6	17.3
670.788	17.34
670.976	17.44
671.163	17.51
671.351	17.62
671.538	17.5
671.726	17.26
671.913	17.47
672.101	17.43
672.289	17.49
672.476	17.25
672.664	17.12
672.851	16.97
673.039	16.9
673.226	16.84
673.413	16.85
673.601	16.95
673.788	17.13
673.976	17.21
674.163	17.25
674.35	17.6
674.538	17.92
674.725	18.11
674.912	18.56
675.1	18.54
675.287	18.57
675.474	18.59
675.662	18.7
675.849	18.73
676.036	18.69
676.223	18.56
676.411	18.16
676.598	18.28
676.785	18.29
676.972	18.16
677.159	17.96
677.346	18.15
677.533	18.01
677.721	18.01
677.908	17.99
678.095	17.94
678.282	18.09
678.469	18.05
678.656	18.07
678.843	18.23
679.03	18.2
679.217	18.47
679.404	18.27
679.591	18.21
679.778	18.38
679.964	18.52
680.151	18.6
680.338	18.49
680.525	18.89
680.712	18.69
680.899	18.57
681.086	18.87
681.272	18.76
681.459	18.92
681.646	18.98
681.833	18.95
682.02	18.96
682.206	18.76
682.393	18.98
682.58	18.64
682.766	18.79
682.953	18.78
683.14	18.25
683.326	18.31
683.513	18.09
683.7	18.16
683.886	18.2
684.073	17.95
684.259	17.87
684.446	17.72
684.632	17.68
684.819	17.71
685.005	17.47
685.192	17.7
685.378	17.85
685.565	18.04
685.751	18.27
685.938	17.96
686.124	18.12
686.31	18.31
686.497	18.23
686.683	18.34
686.87	18.25
687.056	18.43
687.242	18.37
687.429	18.2
687.615	18.4
687.801	18.11
687.987	18.07
688.174	18.08
688.36	18.25
688.546	18.36
688.732	18.44
688.918	18.31
689.105	18.33
689.291	18.51
689.477	18.7
689.663	18.29
689.849	18.33
690.035	18.5
690.221	18.67
690.407	18.51
690.593	18.28
690.779	18.24
690.965	18.21
691.151	18.14
691.337	18.12
691.523	17.97
691.709	18.22
691.895	18.2
692.081	18.32
692.267	18.16
692.453	18.06
692.639	18.25
692.825	18.48
693.011	18.73
693.196	18.53
693.382	18.12
693.568	18.35
693.754	18.37
693.94	18.76
694.125	18.45
694.311	18.35
694.497	18.6
694.682	18.91
694.868	18.47
695.054	18.23
695.239	18.61
695.425	19.13
695.611	19.07
695.796	18.9
695.982	18.75
696.168	19.06
696.353	19.25
696.539	19.25
696.724	19.03
696.91	19.34
697.095	19.4
697.281	19.29
697.466	19.12
697.652	19.15
697.837	19.17
698.023	19.05
698.208	18.83
698.393	18.7
698.579	18.62
698.764	18.62
698.949	18.45
699.135	18.55
699.32	18.35
699.505	18.34
699.691	18.16
699.876	17.78
700.061	17.85
700.246	17.73
700.432	17.75
700.617	17.66
700.802	17.64
700.987	17.84
701.172	17.89
701.358	17.91
701.543	17.67
701.728	17.69
701.913	18.02
702.098	17.85
702.283	17.96
702.468	18.19
702.653	18.38
702.838	18.26
703.023	17.87
703.208	17.92
703.393	18.17
703.578	18.45
703.763	18.78
703.948	18.89
704.133	18.99
704.318	19.23
704.503	18.9
704.688	18.87
704.873	18.92
705.057	19.46
705.242	19.01
705.427	19.06
705.612	19.16
705.797	19.26
705.981	19.48
706.166	19.55
706.351	19.6
706.536	20.04
706.72	20
706.905	20.36
707.09	20.34
707.274	20.48
707.459	20.5
707.644	20.43
707.828	20.3
708.013	20.31
708.197	20.23
708.382	20.37
708.567	19.99
708.751	20.15
708.936	19.83
709.12	19.41
709.305	19.4
709.489	19.43
709.673	19.23
709.858	19.21
710.042	19.01
710.227	19.26
710.411	19.15
710.596	19.13
710.78	19.02
710.964	19.38
711.149	19.48
711.333	19.63
711.517	19.49
711.702	19.68
711.886	19.77
712.07	19.81
712.254	19.29
712.438	19.37
712.623	19.52
712.807	19.6
712.991	19.25
713.175	18.97
713.359	18.69
713.544	18.77
713.728	18.89
713.912	18.96
714.096	18.78
714.28	18.96
714.464	18.81
714.648	18.62
714.832	18.54
715.016	18.67
715.2	19.04
715.384	19.14
715.568	19.05
715.752	18.98
715.936	18.7
716.12	18.96
716.304	18.99
716.488	19.17
716.671	19.07
716.855	19.16
717.039	19.21
717.223	19.07
717.407	19.34
717.59	19.59
717.774	19.53
717.958	19.77
718.142	19.59
718.325	19.67
718.509	19.24
718.693	19.76
718.877	19.78
719.06	19.26
719.244	19.58
719.428	19.38
719.611	19.38
719.795	19.71
719.978	19.28
720.162	19.57
720.345	19.4
720.529	19.55
720.713	19.66
720.896	19.23
721.08	19.57
721.263	19.27
721.446	19.09
721.63	19.32
721.813	19.14
721.997	19.28
722.18	19.02
722.364	19.06
722.547	19.19
722.73	18.51
722.914	18.72
723.097	18.93
723.28	18.94
723.464	19.42
723.647	18.79
723.83	18.82
724.013	18.89
724.197	18.93
724.38	19.2
724.563	19.66
724.746	19.68
724.929	19.76
725.112	19.61
725.296	19.93
725.479	19.47
725.662	19.36
725.845	19.03
726.028	18.48
726.211	18.85
726.394	18.74
726.577	18.49
726.76	18.55
726.943	18.21
727.126	18.4
727.309	18.16
727.492	18.12
727.675	18.73
727.858	18.85
728.041	19.32
728.224	19.16
728.407	18.89
728.589	18.55
728.772	18.27
728.955	18.69
729.138	18.61
729.321	18.6
729.503	18.51
729.686	18.11
729.869	18.13
730.052	18.15
730.234	17.92
730.417	18.03
730.6	18.02
730.782	18.38
730.965	18.05
731.148	17.63
731.33	18.09
731.513	18.31
731.695	18.26
731.878	18.39
732.061	18.62
732.243	18.75
732.426	18.56
732.608	18.86
732.791	19.26
732.973	19.48
733.156	19.82
733.338	19.07
733.52	19.36
733.703	19.62
733.885	20.13
734.068	19.9
734.25	19.75
734.432	19.93
734.615	19.67
734.797	19.64
734.979	19.98
735.162	19.88
735.344	19.98
735.526	19.49
735.708	19.68
735.891	19.04
736.073	19.09
736.255	18.69
736.437	18.84
736.619	19.2
736.802	18.76
736.984	17.97
737.166	18.01
737.348	18.14
737.53	17.99
737.712	17.6
737.894	17.79
738.076	17.67
738.258	18.12
738.44	18.39
738.622	18.03
738.804	18.52
738.986	18.71
739.168	19.19
739.35	19.34
739.532	19.96
739.714	19.96
739.896	19.86
740.078	19.85
740.259	20.11
740.441	19.69
740.623	19.76
740.805	19.57
740.987	19.84
741.168	19.33
741.35	19.41
741.532	19.28
741.714	19.26
741.895	18.82
742.077	18.72
742.259	18.73
742.44	19.23
742.622	18.91
742.804	19.01
742.985	19.06
743.167	19.14
743.348	18.69
743.53	18.54
743.711	18.29
743.893	18.59
744.075	18.73
744.256	18
744.438	17.64
744.619	17.69
744.8	17.29
744.982	16.89
745.163	17.6
745.345	18.18
745.526	18.36
745.707	18.98
745.889	18.84
746.07	19.06
746.252	19.8
746.433	20.11
746.614	20.85
746.795	20.77
746.977	20.79
747.158	19.64
747.339	18.94
747.52	18.64
747.702	18.66
747.883	19.06
748.064	19.6
748.245	18.7
748.426	18.85
748.607	18.14
748.788	18.66
748.97	18.96
749.151	19.33
749.332	19.63
749.513	19.67
749.694	19.34
749.875	19.35
750.056	18.23
750.237	19.66
750.418	19.36
750.599	19.71
750.78	19.33
750.96	19.2
751.141	19.55
751.322	19.8
751.503	20.04
751.684	20.06
751.865	19.44
752.046	20.03
752.226	19.3
752.407	19.32
752.588	19.53
752.769	20
752.949	19.79
753.13	19.67
753.311	19.52
753.492	19.66
753.672	19.77
753.853	20.19
754.034	19.97
754.214	19.62
754.395	19.6
754.575	19.59
754.756	19.5
754.937	19.78
755.117	19.9
755.298	20.35
755.478	20.19
755.659	19.52
755.839	19.53
756.02	19.44
756.2	20.41
756.381	20.67
756.561	20.36
756.741	20.23
756.922	20.58
757.102	20.13
757.283	19.97
757.463	20.27
757.643	21.09
757.823	20.86
758.004	20.85
758.184	20.33
758.364	20.37
758.545	20.47
758.725	20.13
758.905	20.09
759.085	20.48
759.265	19.85
759.446	19.34
759.626	19.44
759.806	19.54
759.986	19.63
760.166	19.56
760.346	19.3
760.526	18.67
760.706	18.44
760.886	17.4
761.066	17.18
761.246	17.57
761.426	17.96
761.606	17.28
761.786	17.68
761.966	17.91
762.146	17.91
762.326	18.49
762.506	18.67
762.686	19.03
762.866	19.3
763.046	19.42
763.225	19.56
763.405	19
763.585	18.83
763.765	18.88
763.945	19.07
764.124	18.77
764.304	18.19
764.484	18.5
764.664	18.52
764.843	18.62
765.023	18.53
765.203	18.5
765.382	19.21
765.562	19.73
765.741	19.25
765.921	19.42
766.101	19.82
766.28	20.34
766.46	20.23
766.639	19.67
766.819	20.17
766.998	20.25
767.178	20.03
767.357	20.29
767.537	20.38
767.716	20.52
767.896	19.47
768.075	19.14
768.254	18.86
768.434	19.68
768.613	20
768.792	19.73
768.972	19.3
769.151	19.16
769.33	18.72
769.51	18.85
769.689	18.47
769.868	19.06
770.047	19.04
770.226	18.81
770.406	17.76
770.585	17.82
770.764	17.8
770.943	18.3
771.122	18.38
771.301	17.72
771.48	17.92
771.66	18.24
771.839	18.71
772.018	19.24
772.197	19.12
772.376	19.28
772.555	19.91
772.734	19.81
772.913	19.35
773.092	19.15
773.271	19.68
773.449	19.13
773.628	19.63
773.807	18.25
773.986	18.55
774.165	19.64
774.344	18.98
774.523	18.27
774.701	18.69
774.88	18.76
775.059	19.46
775.238	19.35
775.417	19.87
775.595	20.11
775.774	20.67
775.953	20.57
776.131	19.86
776.31	20.4
776.489	20.13
776.667	19.95
776.846	20.45
777.025	19.86
777.203	19.52
777.382	18.94
777.56	18.96
777.739	19.21
777.917	19.04
778.096	18.58
778.274	18.47
778.453	19.9
778.631	19.52
778.81	19.13
778.988	19.8
779.166	20.87
779.345	21.97
779.523	22.03
779.702	22.37
779.88	22.36
780.058	22.59
780.237	22.79
780.415	21.25
780.593	20.68
780.771	21.11
780.95	20.3
781.128	18.47
781.306	17.1
781.484	15.89
781.662	15.06
781.841	14.56
782.019	13.51
782.197	13.06
782.375	13.12
782.553	13.57
782.731	13.52
782.909	13.78
783.087	15.89
783.265	15.43
783.443	16.35
783.621	16.18
783.799	16.98
783.977	17.68
784.155	17.89
784.333	18.75
784.511	19.38
784.689	19.62
784.867	19.16
785.045	17.07
785.223	18.98
785.4	19.2
785.578	19.23
785.756	18.81
785.934	18.39
786.112	19.28
786.289	18.02
786.467	17.31
786.645	16.97
786.823	17.8
787	18.68
787.178	17.58
787.356	18.08
787.533	18.15
787.711	18.69
787.889	18.64
788.066	17.79
788.244	18.41
788.421	19.66
788.599	20.07
788.776	19.45
788.954	19.33
789.131	18.63
789.309	17.44
789.486	18.24
789.664	17.46
789.841	18.86
790.019	19.17
790.196	20.38
790.373	19.29
790.551	18.61
790.728	19.66
790.906	20.46
791.083	21.91
791.26	22.56
791.437	21.85
791.615	22.09
791.792	21.57
791.969	22.36
792.146	22.3
792.324	22.66
792.501	23.91
792.678	22.39
792.855	21.45
793.032	19.84
793.209	19.72
793.387	20.3
793.564	19.62
793.741	19.16
793.918	18.07
794.095	17.19
794.272	17.01
794.449	16.3
794.626	17.71
794.803	17.72
794.98	18.63
795.157	17.12
795.334	16.98
795.511	17.55
795.688	18.32
795.864	18.65
796.041	18.87
796.218	18.43
796.395	17.47
796.572	17.38
796.749	17.29
796.925	16.42
797.102	17.95
797.279	18.63
797.456	18.17
797.632	18.09
797.809	17.25
797.986	16.53
798.162	16.64
798.339	16.84
798.516	16.83
798.692	16.62
798.869	18.13
799.046	17.12
799.222	16.99
799.399	17.17
799.575	17.78
799.752	18.72
799.928	19.66
800.105	19.5
800.281	18.86
800.458	19.35
800.634	20.09
800.811	20.68
800.987	22.03
801.163	20.94
801.34	21.28
801.516	20.49
801.692	20.88
801.869	20.55
802.045	21.14
802.221	22.42
802.398	21.47
802.574	20.75
802.75	19.68
802.926	19.75
803.103	19.76
803.279	19.85
803.455	20
803.631	19.29
803.807	19.65
803.983	20
804.16	20.39
804.336	20.24
804.512	21.08
804.688	21.44
804.864	21.62
805.04	22.3
805.216	22.34
805.392	21.67
805.568	23.39
805.744	22.96
805.92	22.21
806.096	21.44
806.272	21.29
806.448	20.4
806.623	20.69
806.799	19.8
806.975	19.09
807.151	19.47
807.327	20.45
807.503	19.24
807.678	18.83
807.854	19.77
808.03	19.74
808.206	19.41
808.381	20.17
808.557	19.51
808.733	18.86
808.908	18.78
809.084	19.04
809.26	19.24
809.435	19.32
809.611	20.38
809.787	21.24
809.962	21.02
810.138	20.07
810.313	20.53
810.489	19.86
810.664	20.25
810.84	20.96
811.015	21.04
811.191	19.94
811.366	18.69
811.542	18.45
811.717	17.23
811.892	17.99
812.068	21.08
812.243	20.24
812.419	21.75
812.594	21.96
812.769	21.12
812.944	20.32
813.12	19.55
813.295	20.6
813.47	20.06
813.645	20.44
813.821	17.59
813.996	16.46
814.171	16.57
814.346	16.39
814.521	16.63
814.697	17.69
814.872	16.81
815.047	17.16
815.222	18.57
815.397	18.87
815.572	18.55
815.747	21.66
815.922	20.28
816.097	19.23
816.272	19.07
816.447	19.71
816.622	21.09
816.797	21.45
816.972	21.87
817.147	21.86
817.322	21.57
817.496	20.97
817.671	20.14
817.846	20.52
818.021	21.74
818.196	20.73
818.371	19.77
818.545	18.43
818.72	19.05
818.895	18.96
819.069	18.51
819.244	18.1
819.419	17.42
819.594	17.68
819.768	17.71
819.943	18.31
820.117	17.6
820.292	17.28
820.467	17.35
820.641	17.88
820.816	17.55
820.99	17.72
821.165	18.19
821.339	18.24
821.514	18.33
821.688	18.34
821.863	17.92
822.037	17.99
822.212	17.91
822.386	18
822.56	17.9
822.735	18.03
822.909	17.83
823.084	17.5
823.258	17.5
823.432	17.06
823.606	17.15
823.781	17.09
823.955	17.19
824.129	17.33
824.303	16.89
824.478	16.55
824.652	16.56
824.826	16.36
825	16.46
825.174	16.67
825.348	17.21
825.523	16.89
825.697	17.44
825.871	17.57
826.045	17.9
826.219	18.45
826.393	18.26
826.567	18.87
826.741	19.27
826.915	19.31
827.089	19.62
827.263	19.31
827.437	19.17
827.611	19.06
827.784	18.74
827.958	18.25
828.132	18.31
828.306	18.24
828.48	17.83
828.654	17.79
828.827	17.51
829.001	17.2
829.175	16.99
829.349	17.46
829.522	17.49
829.696	18.07
829.87	18.25
830.044	18.96
830.217	19.88
830.391	19.13
830.565	18.99
830.738	19.51
830.912	19.05
831.085	20.49
831.259	20.24
831.432	20.62
831.606	20.83
831.779	21.13
831.953	19.51
832.126	19.65
832.3	20.42
832.473	20.22
832.647	19.67
832.82	19.4
832.994	18.25
833.167	18.57
833.34	17.87
833.514	17.47
833.687	17.78
833.86	16.88
834.034	16.63
834.207	16.92
834.38	16.87
834.553	17.31
834.727	17.39
834.9	18.27
835.073	17.74
835.246	18.19
835.419	18.01
835.593	16.74
835.766	16.68
835.939	16.15
836.112	16.02
836.285	16.58
836.458	16.35
836.631	15.77
836.804	15.07
836.977	15.92
837.15	13.94
837.323	13.84
837.496	15.21
837.669	18.43
837.842	19.74
838.015	19.44
838.188	20.35
838.361	18.75
838.533	19.11
838.706	19.93
838.879	19.55
839.052	21.52
839.225	22.98
839.398	24.19
839.57	23.02
839.743	22.44
839.916	22.3
840.088	20.93
840.261	21.95
840.434	23.06
840.607	22.01
840.779	23.76
840.952	23.8
841.124	22.38
841.297	21.9
841.47	20.12
841.642	20.66
841.815	20.13
841.987	19.91
842.16	20.8
842.332	21.37
842.505	23.23
842.677	20.73
842.85	21.04
843.022	23.41
843.194	23.42
843.367	25.18
843.539	24.85
843.712	23.94
843.884	21.68
844.056	20.02
844.229	19.77
844.401	20.03
844.573	21.97
844.745	23.64
844.918	23.76
845.09	22.04
845.262	21.96
845.434	18.85
845.606	22.14
845.779	26.79
845.951	26.6
846.123	26.64
846.295	26.35
846.467	19.16
846.639	18.04
846.811	15.9
846.983	18.58
847.155	19.55
847.327	24.41
847.499	24.09
847.671	20.62
847.843	21.11
848.015	20.54
848.187	16.82
848.359	27.11
848.531	23.77
848.703	21.36
848.875	19.84
849.047	17.81
849.218	15.07
849.39	16.4
849.562	17.41
849.734	19.47
849.905	18.15
850.077	22.68
850.249	21.19
850.421	25.87
850.592	28.21
850.764	29.32
850.936	30.16
851.107	31.68
851.279	27.15
851.451	30.94
851.622	29.64
851.794	30.71
851.965	27.45
852.137	25.24
852.308	21.34
852.48	19.84
852.651	17.07
852.823	18.39
852.994	17.6
853.166	19.94
853.337	14.46
853.509	13.07
853.68	15.24
853.851	14.17
854.023	15.52
854.194	18.18
854.365	20.48
854.537	23.7
854.708	20.11
854.879	26.02
855.05	29.48
855.222	36.83
855.393	39.06
855.564	37.06
855.735	35.35
855.906	34.44
856.078	35.79
856.249	37.28
856.42	32.56
856.591	35.51
856.762	28.82
856.933	23.46
857.104	23.61
857.275	20.66
857.446	24.22
857.617	23.98
857.788	24.2
857.959	25.79
858.13	25.09
858.301	28.78
858.472	31.99
858.643	29.95
858.814	28.65
858.985	22.23
859.155	17.91
859.326	16.11
859.497	19.79
859.668	16.15
859.839	18.26
860.009	16.21
860.18	14.91
860.351	13.21
860.522	20.85
860.692	25.52
860.863	27.15
861.034	32.73
861.204	34.26
861.375	28.22
861.546	33.11
861.716	29.98
861.887	37.44
862.057	36.57
862.228	34.31
862.398	28.91
862.569	27.46
862.739	25.86
862.91	26.84
863.08	24.73
863.251	28.84
863.421	26.66
863.592	21.16
863.762	15.85
863.932	15.76
864.103	19.24
864.273	24.35
864.443	22.46
864.614	22.42
864.784	21.69
864.954	22.47
865.125	21.82
865.295	22.48
865.465	28.78
865.635	29.04
865.805	31.51
865.976	32.37
866.146	34.12
866.316	39.01
866.486	37.31
866.656	36.26
866.826	36.03
866.996	36.07
867.166	36.89
867.336	30.25
867.506	27.06
867.676	28.24
867.846	26.19
868.016	23.41
868.186	17.87
868.356	21.01
868.526	22.03
868.696	17.18
868.866	22.88
869.036	23.8
869.206	28.82
869.376	30.76
869.545	28.97
869.715	27.16
869.885	28.74
870.055	30.47
870.224	28.55
870.394	27.92
870.564	30.9
870.734	32.1
870.903	30.64
871.073	26.02
871.243	29.63
871.412	26.08
871.582	26.38
871.751	20.89
871.921	19.82
872.091	24.63
872.26	26.74
872.43	25.81
872.599	23.14
872.769	23
872.938	24.14
873.108	18.09
873.277	24.39
873.446	25.38
873.616	24.6
873.785	28.74
873.955	22.68
874.124	13.84
874.293	9.84
874.463	7.74
874.632	9.19
874.801	11.37
874.971	13.39
875.14	9.82
875.309	10.14
875.478	16.02
875.647	9.43
875.817	15.12
875.986	20.51
876.155	23.19
876.324	27.63
876.493	23.01
876.662	23.3
876.831	24.61
877	25.11
877.17	23.16
877.339	18.67
877.508	22.23
877.677	17.95
877.846	18.47
878.015	15.76
878.184	9.77
878.352	12.64
878.521	12.48
878.69	15.2
878.859	14.27
879.028	14.28
879.197	15.36
879.366	13.38
879.534	13.97
879.703	11.58
879.872	14.87
880.041	17.03
880.21	16.94
880.378	16.35
880.547	14.78
880.716	16.02
880.884	15.9
881.053	15.96
881.222	16.78
881.39	16.35
881.559	16.24
881.727	16.67
881.896	16.46
882.065	16.46
882.233	16.65
882.402	16.23
882.57	15.66
882.739	15.99
882.907	15.93
883.076	15.3
883.244	15.36
883.412	15.79
883.581	15.22
883.749	15.11
883.918	14.29
884.086	13.94
884.254	14.74
884.423	14.83
884.591	14.92
884.759	14.93
884.927	15.96
885.096	16.7
885.264	16.83
885.432	16.37
885.6	14.98
885.769	16.96
885.937	17.06
886.105	17.09
886.273	17.97
886.441	16.97
886.609	19.15
886.777	18.29
886.945	19.79
887.113	20.2
887.281	19.57
887.449	23.3
887.617	26.88
887.785	27.93
887.953	27.55
888.121	27.09
888.289	27.06
888.457	24.66
888.625	22.08
888.793	20.87
888.961	21.38
889.129	25.81
889.296	23.71
889.464	19.69
889.632	20.57
889.8	20.47
889.967	19.83
890.135	21.93
