Data from 2938783__Reflection_01.txt Node
Date: Fri Mar 13 12:22:42 EDT 2015
User: robert
Spectrometer: USB4E03002
Autoset integration time: false
Trigger mode: 4
Integration Time (sec): 1.000000E-1
Scans to average: 10
Electric dark correction enabled: false
Nonlinearity correction enabled: false
Boxcar width: 5
Stray light correction enabled: false
XAxis mode: Wavelengths
Stop averaging: false
Number of Pixels in Spectrum: 3648
>>>>>Begin Spectral Data<<<<<
177.575	102.98
177.794	93.4
178.014	97.51
178.233	94.08
178.452	97.66
178.672	87.62
178.891	86.55
179.11	82.05
179.33	82.94
179.549	81.24
179.768	84.75
179.987	81.41
180.207	86.07
180.426	80.17
180.645	83.61
180.864	82.74
181.084	85.91
181.303	87.85
181.522	92.19
181.741	87.14
181.96	89.56
182.179	85.62
182.398	84.26
182.618	81.78
182.837	84.57
183.056	80.3
183.275	74.23
183.494	77.31
183.713	76.56
183.932	78.66
184.151	81.18
184.37	81.07
184.589	86.57
184.808	86.99
185.027	86.91
185.246	87.99
185.465	89.31
185.684	95.52
185.903	92.8
186.122	93.81
186.341	85.57
186.56	83.34
186.779	80.63
186.998	79.59
187.216	79.23
187.435	77.67
187.654	73.96
187.873	73.44
188.092	77.37
188.311	76.21
188.53	71.96
188.748	76.8
188.967	80.25
189.186	80.04
189.405	79.6
189.623	80.31
189.842	83.83
190.061	87.14
190.28	90.19
190.498	87.87
190.717	92.49
190.936	88.46
191.154	87.85
191.373	83.69
191.592	84.58
191.81	82.82
192.029	85.97
192.248	87.33
192.466	87.23
192.685	85.03
192.904	80.96
193.122	79.13
193.341	88.36
193.559	86.94
193.778	86.81
193.996	88.51
194.215	87.51
194.433	88.3
194.652	84.48
194.87	84.11
195.089	86.82
195.307	86.55
195.526	86.51
195.744	83.76
195.963	83.73
196.181	87.22
196.399	84.63
196.618	87.47
196.836	85.69
197.055	85.76
197.273	86.72
197.491	84.94
197.71	89.1
197.928	90.06
198.146	87.63
198.365	90.25
198.583	88.1
198.801	92.27
199.019	91.19
199.238	90.16
199.456	94.69
199.674	92.49
199.892	94.07
200.111	91.38
200.329	94.74
200.547	93.56
200.765	90.18
200.983	90.19
201.202	84.28
201.42	82.56
201.638	80.89
201.856	78.22
202.074	78.63
202.292	72.79
202.51	70.21
202.728	69.88
202.946	70.39
203.165	69.04
203.383	74.46
203.601	76.7
203.819	77.09
204.037	76.1
204.255	72.64
204.473	75.42
204.691	79.5
204.909	83.57
205.127	82.55
205.345	85.03
205.562	85.69
205.78	81.9
205.998	78.97
206.216	80.49
206.434	79.79
206.652	85.34
206.87	80.04
207.088	77.05
207.306	76.4
207.523	71.14
207.741	69.85
207.959	67.45
208.177	64.68
208.395	66.75
208.612	66.23
208.83	66.82
209.048	62.77
209.266	65.08
209.483	64.71
209.701	65.08
209.919	65.03
210.136	67.73
210.354	69.72
210.572	71.37
210.79	71.77
211.007	72.67
211.225	76.89
211.442	76.85
211.66	76.57
211.878	81.33
212.095	85.49
212.313	88.5
212.53	85.55
212.748	87.78
212.966	89.01
213.183	87.54
213.401	85.84
213.618	80.52
213.836	83.95
214.053	82.35
214.271	78.38
214.488	71.5
214.705	68.93
214.923	69.09
215.14	68.43
215.358	67.72
215.575	68.68
215.793	69.87
216.01	73.2
216.227	72.3
216.445	69.78
216.662	73.65
216.879	74.26
217.097	76.02
217.314	69.87
217.531	70.71
217.749	69.78
217.966	70.54
218.183	69.39
218.4	66.4
218.618	66.41
218.835	65.13
219.052	60.18
219.269	63.19
219.487	63.79
219.704	67.66
219.921	67.19
220.138	65.29
220.355	63.41
220.572	60.36
220.79	59.41
221.007	61.65
221.224	63.35
221.441	62.63
221.658	60.45
221.875	58.78
222.092	56.93
222.309	54.93
222.526	54.28
222.743	54.25
222.96	53.29
223.177	53.88
223.394	47.01
223.611	46.38
223.828	46.42
224.045	46.25
224.262	46.72
224.479	45.95
224.696	45.01
224.913	44.53
225.13	43.33
225.347	43.3
225.564	42.11
225.781	41.25
225.997	39.52
226.214	37.62
226.431	34.2
226.648	30.39
226.865	28.07
227.082	26.73
227.298	23.59
227.515	20.41
227.732	18.84
227.949	16.86
228.165	16.3
228.382	15.66
228.599	15.41
228.816	14.78
229.032	14.31
229.249	13.84
229.466	13.01
229.682	13.33
229.899	14.65
230.116	14.43
230.332	15.1
230.549	15.37
230.765	16.07
230.982	16.49
231.199	17.35
231.415	19.22
231.632	20.99
231.848	22.01
232.065	22.55
232.281	23.25
232.498	22.8
232.714	22.2
232.931	22.79
233.147	22.23
233.364	21.93
233.58	21.72
233.797	20.67
234.013	20.02
234.23	19.76
234.446	21.14
234.662	19.34
234.879	20.56
235.095	19.52
235.312	19.88
235.528	20.04
235.744	20.06
235.961	20.78
236.177	21.22
236.393	21.84
236.61	21.8
236.826	19.87
237.042	20.79
237.258	20.28
237.475	22.04
237.691	20.96
237.907	22.68
238.123	22.53
238.339	22.94
238.556	22.49
238.772	21.02
238.988	20.49
239.204	20.49
239.42	19.31
239.636	19.24
239.853	18.2
240.069	18.56
240.285	17.32
240.501	16.32
240.717	14.94
240.933	14.11
241.149	13.35
241.365	12.22
241.581	11.72
241.797	11.55
242.013	10.7
242.229	10.7
242.445	10.19
242.661	9.68
242.877	9.69
243.093	9.88
243.309	10.14
243.525	10.54
243.741	10.76
243.957	10.78
244.173	11.26
244.388	11.56
244.604	11.9
244.82	11.64
245.036	11.69
245.252	10.6
245.468	9.87
245.683	9.21
245.899	8.45
246.115	8.53
246.331	8.05
246.547	7.61
246.762	7.39
246.978	6.79
247.194	6.61
247.409	6.21
247.625	6.25
247.841	5.96
248.057	6.39
248.272	6.52
248.488	6.36
248.703	6.59
248.919	6.7
249.135	7.25
249.35	8.12
249.566	8.42
249.782	9.05
249.997	9.85
250.213	10.61
250.428	10.14
250.644	11.06
250.859	11.81
251.075	11.5
251.29	11.98
251.506	11.44
251.721	10.74
251.937	11.06
252.152	10.87
252.368	10.62
252.583	10.76
252.798	10.99
253.014	10.93
253.229	10.97
253.445	11.97
253.66	11.67
253.875	12.75
254.091	14.07
254.306	13.77
254.521	15.48
254.737	16.61
254.952	15.72
255.167	16.05
255.383	15.48
255.598	14.77
255.813	14.26
256.028	14.19
256.244	12.78
256.459	12.38
256.674	11.93
256.889	9.9
257.104	9.55
257.32	10.06
257.535	9.49
257.75	9.16
257.965	9.4
258.18	8.77
258.395	8.37
258.61	7.71
258.826	6.66
259.041	6.7
259.256	6.47
259.471	5.97
259.686	5.66
259.901	5.4
260.116	5.19
260.331	4.54
260.546	4.74
260.761	4.64
260.976	4.86
261.191	4.88
261.406	5.02
261.621	5.53
261.836	5.59
262.05	6.12
262.265	6.53
262.48	7.12
262.695	8.22
262.91	8.49
263.125	9.03
263.34	9.09
263.555	10.44
263.769	10.31
263.984	9.92
264.199	10.67
264.414	10.68
264.629	10.27
264.843	10.53
265.058	9.91
265.273	9.1
265.488	8.81
265.702	8.88
265.917	8.51
266.132	8.41
266.346	8.47
266.561	8.25
266.776	8.04
266.99	8.16
267.205	7.56
267.42	7.66
267.634	7.42
267.849	7.26
268.063	7.47
268.278	7.07
268.492	7.16
268.707	7.06
268.922	6.67
269.136	6.92
269.351	6.65
269.565	6.7
269.78	6.35
269.994	6.29
270.209	6.4
270.423	5.79
270.637	5.74
270.852	5.64
271.066	5.46
271.281	5.55
271.495	5.21
271.709	5.17
271.924	4.91
272.138	5.16
272.353	5.23
272.567	5.28
272.781	5.9
272.996	5.93
273.21	5.93
273.424	6.01
273.638	5.93
273.853	5.87
274.067	5.91
274.281	6.6
274.495	6.91
274.71	7.37
274.924	7.48
275.138	7.36
275.352	7.48
275.566	7.8
275.781	7.47
275.995	7.9
276.209	8.31
276.423	8.48
276.637	8.42
276.851	8.54
277.065	8.41
277.279	8.46
277.493	8.18
277.707	8.51
277.921	8.17
278.135	8.44
278.349	8.49
278.563	8.19
278.777	8.67
278.991	8.37
279.205	8.25
279.419	8.18
279.633	7.61
279.847	7.63
280.061	7.51
280.275	7.01
280.489	7.31
280.703	7.23
280.917	7.3
281.131	6.97
281.344	6.96
281.558	6.72
281.772	7.02
281.986	7.4
282.2	7.55
282.414	7.36
282.627	7.64
282.841	7.31
283.055	7.12
283.269	7.13
283.482	6.91
283.696	6.79
283.91	6.91
284.123	6.11
284.337	5.88
284.551	5.74
284.764	5.56
284.978	5.28
285.192	5.54
285.405	5.4
285.619	5.06
285.833	5.15
286.046	5.04
286.26	4.99
286.473	5.42
286.687	5.26
286.9	5.2
287.114	5
287.327	5.31
287.541	5.24
287.754	5.34
287.968	5.79
288.181	5.84
288.395	6.16
288.608	6.27
288.822	6.18
289.035	6.16
289.248	5.95
289.462	6.17
289.675	5.91
289.889	5.73
290.102	5.48
290.315	5.01
290.529	5.04
290.742	4.86
290.955	4.82
291.169	5.02
291.382	5.25
291.595	5.29
291.808	5.62
292.022	6.29
292.235	6.65
292.448	6.88
292.661	7.31
292.875	7.31
293.088	7.61
293.301	7.34
293.514	7.15
293.727	6.88
293.94	7.1
294.153	6.73
294.367	6.1
294.58	5.68
294.793	5.74
295.006	5.52
295.219	5.36
295.432	5.25
295.645	5.22
295.858	5.02
296.071	4.85
296.284	4.72
296.497	4.66
296.71	4.55
296.923	4.67
297.136	4.73
297.349	4.86
297.562	4.8
297.775	4.61
297.988	4.74
298.201	4.75
298.414	4.89
298.626	4.95
298.839	4.98
299.052	4.98
299.265	5.38
299.478	5.3
299.691	5.49
299.903	5.79
300.116	6.17
300.329	6.33
300.542	6.33
300.755	6.43
300.967	6.62
301.18	6.79
301.393	6.98
301.605	6.53
301.818	6.51
302.031	6.45
302.243	6.42
302.456	6.24
302.669	6.15
302.881	6.29
303.094	6.69
303.307	6.54
303.519	6.43
303.732	6.64
303.944	6.56
304.157	6.79
304.37	6.46
304.582	6.59
304.795	6.52
305.007	6.45
305.22	6.85
305.432	6.59
305.645	6.64
305.857	6.88
306.069	7.17
306.282	7.27
306.494	7.05
306.707	7.31
306.919	7.31
307.132	7.42
307.344	7.61
307.556	7.13
307.769	7.21
307.981	7.1
308.193	6.65
308.406	6.16
308.618	6.32
308.83	6.35
309.043	6.08
309.255	5.77
309.467	5.65
309.679	5.37
309.892	5.54
310.104	5.41
310.316	5.35
310.528	5.38
310.74	5.47
310.953	5.09
311.165	4.97
311.377	5.13
311.589	5.31
311.801	5.41
312.013	5.44
312.225	5.32
312.437	5.26
312.649	5.28
312.862	5.43
313.074	5.68
313.286	6.06
313.498	6.46
313.71	6.55
313.922	6.4
314.134	6.3
314.346	6.15
314.558	6.23
314.77	6.59
314.982	6.72
315.193	6.93
315.405	6.89
315.617	6.92
315.829	6.9
316.041	7.18
316.253	7.1
316.465	7.47
316.677	7.96
316.888	7.91
317.1	8.09
317.312	8.24
317.524	8.45
317.736	8.36
317.947	8.86
318.159	8.7
318.371	8.45
318.583	8.58
318.794	8.29
319.006	8.21
319.218	8.53
319.43	8.04
319.641	7.98
319.853	7.82
320.064	8.05
320.276	7.95
320.488	8.28
320.699	8.34
320.911	8.86
321.123	9.17
321.334	9.04
321.546	9.25
321.757	9.57
321.969	9.65
322.18	9.55
322.392	9.28
322.603	8.98
322.815	8.44
323.026	8.57
323.238	8.2
323.449	7.83
323.661	8.34
323.872	8.19
324.083	7.89
324.295	7.83
324.506	7.78
324.718	7.88
324.929	7.84
325.14	8.12
325.352	7.88
325.563	8.18
325.774	8.35
325.986	8.06
326.197	7.9
326.408	8.28
326.62	8.3
326.831	8.46
327.042	8.44
327.253	8.56
327.464	8.44
327.676	8.42
327.887	8.34
328.098	8.38
328.309	8.44
328.52	8.56
328.732	8.49
328.943	8.75
329.154	9.12
329.365	9.37
329.576	9.74
329.787	9.84
329.998	10.49
330.209	10.48
330.42	10.92
330.631	10.86
330.842	10.94
331.053	11.05
331.264	10.75
331.475	10.4
331.686	10.45
331.897	10.29
332.108	10.73
332.319	10.47
332.53	10.49
332.741	10.17
332.952	10.36
333.163	10.27
333.374	10.16
333.585	10.31
333.795	10.5
334.006	10.13
334.217	9.85
334.428	9.48
334.639	9.44
334.849	9.29
335.06	9.17
335.271	9.24
335.482	9.7
335.692	9.5
335.903	9.5
336.114	8.89
336.325	9.22
336.535	9.35
336.746	9.29
336.957	9.23
337.167	9.44
337.378	9.64
337.589	9.5
337.799	8.88
338.01	8.84
338.22	8.49
338.431	8.94
338.642	8.71
338.852	8.49
339.063	8.63
339.273	8.45
339.484	8.21
339.694	8.26
339.905	8.31
340.115	8.66
340.326	8.83
340.536	9.27
340.746	9.28
340.957	9.4
341.167	9.75
341.378	9.55
341.588	9.69
341.799	9.7
342.009	9.39
342.219	9.12
342.43	9.23
342.64	9.44
342.85	9.35
343.061	9.1
343.271	9.19
343.481	8.87
343.691	8.91
343.902	8.87
344.112	8.99
344.322	8.82
344.532	9.14
344.743	8.89
344.953	8.53
345.163	8.37
345.373	8.23
345.583	8.15
345.793	8.42
346.004	8.44
346.214	8.46
346.424	8.47
346.634	8.7
346.844	8.5
347.054	8.73
347.264	9.09
347.474	9.08
347.684	9.24
347.894	9.15
348.104	8.89
348.314	8.72
348.524	8.63
348.734	8.69
348.944	8.92
349.154	8.96
349.364	8.84
349.574	8.79
349.784	9.07
349.994	9.28
350.204	9.32
350.413	9.32
350.623	9.4
350.833	9.53
351.043	9.46
351.253	9.26
351.463	8.94
351.672	8.76
351.882	8.51
352.092	8.3
352.302	8.19
352.511	8.2
352.721	8.39
352.931	8.46
353.141	8.44
353.35	8.52
353.56	8.27
353.77	8.25
353.979	7.99
354.189	7.95
354.399	7.86
354.608	7.82
354.818	7.61
355.027	7.57
355.237	7.55
355.447	7.6
355.656	7.41
355.866	7.66
356.075	7.96
356.285	8.31
356.494	8.45
356.704	8.35
356.913	8.3
357.123	8.28
357.332	8.16
357.542	8.05
357.751	7.85
357.96	7.98
358.17	7.82
358.379	7.62
358.589	7.49
358.798	7.66
359.007	7.72
359.217	7.88
359.426	7.67
359.635	7.6
359.845	7.66
360.054	7.59
360.263	7.33
360.472	7.31
360.682	7.1
360.891	6.99
361.1	6.57
361.309	6.42
361.519	6.35
361.728	6.38
361.937	6.27
362.146	6.24
362.355	6.3
362.564	6.42
362.774	6.4
362.983	6.62
363.192	6.65
363.401	6.62
363.61	6.74
363.819	6.74
364.028	7.04
364.237	7.31
364.446	7.16
364.655	7.18
364.864	7.11
365.073	7.03
365.282	7.11
365.491	7.12
365.7	7.28
365.909	7.3
366.118	7.34
366.327	7.31
366.536	7.16
366.745	7.24
366.954	7.19
367.162	7.37
367.371	7.29
367.58	7.35
367.789	7.35
367.998	7.42
368.207	7.3
368.415	7.2
368.624	7.21
368.833	7.32
369.042	7.53
369.25	7.7
369.459	7.69
369.668	7.93
369.877	7.48
370.085	7.59
370.294	7.77
370.503	7.86
370.711	7.7
370.92	7.46
371.129	7.42
371.337	7.17
371.546	7.09
371.754	6.94
371.963	6.78
372.171	6.95
372.38	6.97
372.589	6.69
372.797	6.72
373.006	6.8
373.214	6.7
373.423	6.48
373.631	6.68
373.84	6.67
374.048	6.68
374.256	6.83
374.465	6.97
374.673	6.83
374.882	6.95
375.09	7.2
375.298	7.26
375.507	7.55
375.715	7.57
375.923	7.41
376.132	7.21
376.34	7.16
376.548	6.89
376.757	6.76
376.965	6.93
377.173	6.91
377.381	6.38
377.59	6.5
377.798	6.29
378.006	6.33
378.214	6.19
378.423	6.27
378.631	6.24
378.839	6.43
379.047	6.45
379.255	6.16
379.463	6.14
379.671	6.28
379.879	6.08
380.088	5.98
380.296	6.06
380.504	6
380.712	5.77
380.92	5.85
381.128	5.98
381.336	5.9
381.544	5.83
381.752	5.53
381.96	5.62
382.168	5.51
382.376	5.54
382.584	5.46
382.791	5.74
382.999	5.77
383.207	5.54
383.415	5.52
383.623	5.65
383.831	5.6
384.039	5.55
384.247	5.55
384.454	5.8
384.662	5.9
384.87	5.85
385.078	5.75
385.285	5.71
385.493	5.72
385.701	5.42
385.909	5.16
386.116	5.2
386.324	5.35
386.532	5.36
386.739	5.14
386.947	5.17
387.155	5.23
387.362	5.05
387.57	5.02
387.778	5.07
387.985	5.21
388.193	5.42
388.4	5.42
388.608	5.47
388.816	5.45
389.023	5.38
389.231	5.21
389.438	5.05
389.646	5.16
389.853	5.28
390.061	5.2
390.268	5.2
390.475	4.97
390.683	4.95
390.89	4.79
391.098	4.72
391.305	4.74
391.512	4.68
391.72	4.67
391.927	4.65
392.135	4.71
392.342	4.84
392.549	4.79
392.756	4.96
392.964	4.95
393.171	5.12
393.378	5.11
393.586	5.03
393.793	4.99
394	5.13
394.207	5.27
394.414	5.08
394.622	4.95
394.829	4.96
395.036	4.93
395.243	5.03
395.45	4.88
395.657	4.78
395.864	4.88
396.072	5.01
396.279	5.09
396.486	4.83
396.693	5.05
396.9	5.11
397.107	5.11
397.314	5.07
397.521	4.96
397.728	4.96
397.935	5.03
398.142	4.96
398.349	4.97
398.556	4.8
398.763	4.77
398.97	4.52
399.177	4.51
399.383	4.49
399.59	4.59
399.797	4.62
400.004	4.65
400.211	4.71
400.418	4.77
400.625	4.75
400.831	4.88
401.038	5.1
401.245	5.23
401.452	5.09
401.658	5.11
401.865	4.96
402.072	4.88
402.279	4.92
402.485	4.84
402.692	4.79
402.899	4.77
403.105	4.66
403.312	4.58
403.519	4.33
403.725	4.47
403.932	4.29
404.138	4.29
404.345	4.39
404.552	4.24
404.758	4.34
404.965	4.09
405.171	4.1
405.378	4.08
405.584	4.1
405.791	4.37
405.997	4.3
406.204	4.41
406.41	4.33
406.617	4.44
406.823	4.57
407.029	4.52
407.236	4.92
407.442	4.89
407.649	4.95
407.855	4.97
408.061	5.03
408.268	5.12
408.474	5.19
408.68	5.35
408.887	5.27
409.093	5.29
409.299	5.29
409.505	5.16
409.712	5.13
409.918	4.98
410.124	4.86
410.33	4.67
410.537	4.51
410.743	4.59
410.949	4.63
411.155	4.61
411.361	4.53
411.567	4.52
411.773	4.45
411.98	4.43
412.186	4.52
412.392	4.64
412.598	4.64
412.804	4.74
413.01	4.61
413.216	4.62
413.422	4.55
413.628	4.56
413.834	4.59
414.04	4.7
414.246	4.64
414.452	4.57
414.658	4.52
414.864	4.44
415.07	4.43
415.275	4.25
415.481	4.22
415.687	4.1
415.893	3.99
416.099	3.84
416.305	3.76
416.511	3.75
416.716	3.59
416.922	3.48
417.128	3.43
417.334	3.31
417.539	3.39
417.745	3.11
417.951	3.04
418.157	3.07
418.362	3
418.568	2.88
418.774	2.84
418.979	2.86
419.185	2.85
419.391	2.88
419.596	2.81
419.802	2.81
420.008	2.91
420.213	2.92
420.419	2.82
420.624	2.86
420.83	2.88
421.035	2.85
421.241	2.88
421.446	2.82
421.652	2.79
421.857	2.74
422.063	2.68
422.268	2.65
422.474	2.68
422.679	2.77
422.885	2.71
423.09	2.67
423.295	2.6
423.501	2.51
423.706	2.56
423.911	2.53
424.117	2.62
424.322	2.59
424.527	2.59
424.733	2.53
424.938	2.52
425.143	2.55
425.349	2.54
425.554	2.59
425.759	2.7
425.964	2.7
426.169	2.77
426.375	2.75
426.58	2.84
426.785	2.83
426.99	2.97
427.195	2.98
427.4	2.95
427.605	3.05
427.811	3.13
428.016	3.06
428.221	3.12
428.426	3.11
428.631	3.07
428.836	3.05
429.041	3.05
429.246	2.96
429.451	2.91
429.656	2.98
429.861	3.03
430.066	2.91
430.271	3
430.476	2.93
430.681	2.94
430.886	2.99
431.09	3
431.295	3.09
431.5	3.25
431.705	3.26
431.91	3.34
432.115	3.31
432.32	3.4
432.524	3.29
432.729	3.41
432.934	3.45
433.139	3.46
433.343	3.56
433.548	3.49
433.753	3.42
433.958	3.48
434.162	3.41
434.367	3.46
434.572	3.54
434.776	3.62
434.981	3.63
435.186	3.63
435.39	3.77
435.595	3.79
435.799	3.76
436.004	3.72
436.209	3.72
436.413	3.81
436.618	3.72
436.822	3.7
437.027	3.7
437.231	3.59
437.436	3.57
437.64	3.44
437.845	3.32
438.049	3.4
438.253	3.45
438.458	3.42
438.662	3.27
438.867	3.33
439.071	3.31
439.275	3.2
439.48	3.15
439.684	3.08
439.888	3.05
440.093	3.03
440.297	2.91
440.501	2.86
440.706	2.79
440.91	2.81
441.114	2.73
441.318	2.71
441.523	2.79
441.727	2.84
441.931	2.94
442.135	2.98
442.339	2.99
442.543	3.13
442.748	3.23
442.952	3.29
443.156	3.31
443.36	3.37
443.564	3.33
443.768	3.37
443.972	3.32
444.176	3.16
444.38	3.15
444.584	3.08
444.788	2.98
444.992	2.89
445.196	2.85
445.4	2.8
445.604	2.82
445.808	2.86
446.012	2.79
446.216	2.79
446.42	2.86
446.624	2.75
446.828	2.7
447.032	2.67
447.235	2.69
447.439	2.68
447.643	2.72
447.847	2.63
448.051	2.62
448.254	2.63
448.458	2.67
448.662	2.65
448.866	2.74
449.069	2.96
449.273	3.06
449.477	3.04
449.681	3.15
449.884	3.28
450.088	3.44
450.292	3.45
450.495	3.44
450.699	3.41
450.902	3.4
451.106	3.43
451.31	3.32
451.513	3.31
451.717	3.29
451.92	3.23
452.124	3.13
452.327	3
452.531	2.99
452.734	3.01
452.938	3.11
453.141	3.19
453.345	3.23
453.548	3.29
453.752	3.33
453.955	3.44
454.158	3.42
454.362	3.4
454.565	3.53
454.769	3.52
454.972	3.53
455.175	3.46
455.379	3.4
455.582	3.47
455.785	3.4
455.988	3.44
456.192	3.42
456.395	3.45
456.598	3.56
456.801	3.53
457.005	3.49
457.208	3.56
457.411	3.52
457.614	3.5
457.817	3.33
458.021	3.22
458.224	3.1
458.427	2.94
458.63	2.9
458.833	2.83
459.036	2.76
459.239	2.78
459.442	2.63
459.645	2.6
459.848	2.55
460.051	2.61
460.254	2.72
460.457	2.73
460.66	2.85
460.863	2.87
461.066	2.89
461.269	2.86
461.472	2.94
461.675	3.07
461.878	3.24
462.081	3.43
462.284	3.42
462.486	3.4
462.689	3.38
462.892	3.39
463.095	3.38
463.298	3.44
463.5	3.56
463.703	3.49
463.906	3.56
464.109	3.49
464.311	3.44
464.514	3.44
464.717	3.45
464.92	3.62
465.122	3.64
465.325	3.67
465.528	3.67
465.73	3.75
465.933	3.72
466.135	3.6
466.338	3.52
466.541	3.43
466.743	3.47
466.946	3.38
467.148	3.3
467.351	3.28
467.553	3.35
467.756	3.21
467.958	3.06
468.161	3.19
468.363	3.24
468.566	3.36
468.768	3.37
468.971	3.34
469.173	3.43
469.375	3.45
469.578	3.44
469.78	3.38
469.983	3.5
470.185	3.6
470.387	3.51
470.59	3.54
470.792	3.48
470.994	3.57
471.196	3.58
471.399	3.56
471.601	3.6
471.803	3.63
472.005	3.54
472.208	3.53
472.41	3.51
472.612	3.53
472.814	3.59
473.016	3.53
473.218	3.6
473.421	3.6
473.623	3.61
473.825	3.58
474.027	3.61
474.229	3.65
474.431	3.63
474.633	3.64
474.835	3.64
475.037	3.65
475.239	3.63
475.441	3.56
475.643	3.51
475.845	3.4
476.047	3.39
476.249	3.28
476.451	3.35
476.653	3.32
476.855	3.38
477.057	3.28
477.258	3.15
477.46	3.14
477.662	3.11
477.864	3.16
478.066	3.3
478.268	3.29
478.469	3.32
478.671	3.23
478.873	3.24
479.075	3.08
479.276	3.09
479.478	3.21
479.68	3.18
479.882	3.19
480.083	3.17
480.285	3.03
480.487	3.03
480.688	2.96
480.89	2.91
481.091	2.81
481.293	2.83
481.495	2.76
481.696	2.67
481.898	2.61
482.099	2.51
482.301	2.43
482.502	2.39
482.704	2.33
482.905	2.32
483.107	2.28
483.308	2.24
483.51	2.18
483.711	2.19
483.913	2.15
484.114	2.15
484.315	2.16
484.517	2.17
484.718	2.15
484.92	2.17
485.121	2.16
485.322	2.21
485.524	2.25
485.725	2.29
485.926	2.28
486.127	2.31
486.329	2.32
486.53	2.3
486.731	2.33
486.932	2.31
487.134	2.29
487.335	2.28
487.536	2.23
487.737	2.26
487.938	2.26
488.139	2.29
488.341	2.33
488.542	2.37
488.743	2.39
488.944	2.38
489.145	2.46
489.346	2.49
489.547	2.51
489.748	2.56
489.949	2.56
490.15	2.54
490.351	2.53
490.552	2.5
490.753	2.46
490.954	2.45
491.155	2.45
491.356	2.43
491.557	2.44
491.758	2.49
491.959	2.49
492.159	2.51
492.36	2.55
492.561	2.56
492.762	2.6
492.963	2.67
493.164	2.72
493.364	2.78
493.565	2.81
493.766	2.8
493.967	2.79
494.167	2.9
494.368	2.94
494.569	3.01
494.769	3.09
494.97	3.13
495.171	3.18
495.371	3.25
495.572	3.28
495.773	3.27
495.973	3.3
496.174	3.33
496.375	3.28
496.575	3.26
496.776	3.34
496.976	3.3
497.177	3.21
497.377	3.12
497.578	3.11
497.778	3.11
497.979	3.22
498.179	3.29
498.38	3.28
498.58	3.33
498.78	3.33
498.981	3.28
499.181	3.28
499.382	3.34
499.582	3.4
499.782	3.45
499.983	3.5
500.183	3.44
500.383	3.39
500.584	3.42
500.784	3.37
500.984	3.38
501.184	3.32
501.385	3.33
501.585	3.29
501.785	3.25
501.985	3.22
502.185	3.24
502.386	3.25
502.586	3.29
502.786	3.34
502.986	3.46
503.186	3.47
503.386	3.48
503.586	3.51
503.786	3.6
503.987	3.67
504.187	3.67
504.387	3.69
504.587	3.72
504.787	3.76
504.987	3.84
505.187	3.76
505.387	3.8
505.587	3.84
505.786	3.9
505.986	3.89
506.186	3.96
506.386	3.99
506.586	4.02
506.786	4.02
506.986	4
507.186	3.88
507.386	3.88
507.585	3.9
507.785	3.85
507.985	3.81
508.185	3.84
508.384	3.77
508.584	3.76
508.784	3.66
508.984	3.74
509.183	3.7
509.383	3.78
509.583	3.86
509.782	3.86
509.982	3.92
510.182	3.88
510.381	3.9
510.581	4.01
510.781	4.03
510.98	4.07
511.18	3.98
511.379	4.01
511.579	4.06
511.778	3.97
511.978	4.03
512.177	4.09
512.377	4.16
512.576	4.14
512.776	4.08
512.975	4.16
513.175	4.28
513.374	4.39
513.573	4.44
513.773	4.45
513.972	4.6
514.172	4.67
514.371	4.81
514.57	4.87
514.77	4.91
514.969	4.93
515.168	4.93
515.367	4.92
515.567	4.96
515.766	4.99
515.965	5
516.164	4.93
516.364	4.83
516.563	4.69
516.762	4.69
516.961	4.67
517.16	4.71
517.359	4.74
517.559	4.75
517.758	4.69
517.957	4.67
518.156	4.71
518.355	4.72
518.554	4.72
518.753	4.76
518.952	4.79
519.151	4.84
519.35	4.84
519.549	4.81
519.748	4.79
519.947	4.8
520.146	4.89
520.345	4.86
520.544	4.93
520.743	5.08
520.942	5.07
521.141	5.09
521.339	5.2
521.538	5.28
521.737	5.34
521.936	5.41
522.135	5.54
522.333	5.59
522.532	5.68
522.731	5.72
522.93	5.71
523.129	5.8
523.327	5.82
523.526	5.78
523.725	5.8
523.923	5.76
524.122	5.79
524.321	5.78
524.519	5.77
524.718	5.7
524.917	5.71
525.115	5.72
525.314	5.71
525.512	5.74
525.711	5.74
525.909	5.77
526.108	5.83
526.306	5.81
526.505	5.82
526.703	5.85
526.902	5.84
527.1	5.81
527.299	5.8
527.497	5.79
527.696	5.74
527.894	5.73
528.092	5.72
528.291	5.7
528.489	5.71
528.688	5.69
528.886	5.7
529.084	5.73
529.283	5.78
529.481	5.79
529.679	5.82
529.877	5.89
530.076	5.95
530.274	5.99
530.472	6.08
530.67	6.15
530.869	6.27
531.067	6.32
531.265	6.45
531.463	6.47
531.661	6.51
531.859	6.59
532.057	6.65
532.255	6.68
532.454	6.7
532.652	6.67
532.85	6.69
533.048	6.69
533.246	6.72
533.444	6.73
533.642	6.79
533.84	6.84
534.038	6.88
534.236	6.91
534.434	6.96
534.632	7
534.83	7.11
535.027	7.15
535.225	7.19
535.423	7.27
535.621	7.33
535.819	7.37
536.017	7.48
536.215	7.48
536.412	7.56
536.61	7.62
536.808	7.7
537.006	7.75
537.203	7.89
537.401	8.04
537.599	8.08
537.797	8.1
537.994	8.23
538.192	8.38
538.39	8.58
538.587	8.74
538.785	8.87
538.983	9.08
539.18	9.2
539.378	9.39
539.575	9.52
539.773	9.67
539.97	9.8
540.168	9.88
540.366	9.9
540.563	9.95
540.761	9.96
540.958	9.99
541.155	10.04
541.353	10.12
541.55	10.13
541.748	10.15
541.945	10.21
542.143	10.31
542.34	10.45
542.537	10.57
542.735	10.69
542.932	10.84
543.129	11.11
543.327	11.27
543.524	11.58
543.721	11.91
543.919	12.35
544.116	12.84
544.313	13.32
544.51	13.74
544.708	14.23
544.905	14.8
545.102	15.34
545.299	15.64
545.496	16.02
545.693	16.2
545.891	16.35
546.088	16.31
546.285	16.19
546.482	16.02
546.679	15.85
546.876	15.61
547.073	15.29
547.27	14.97
547.467	14.79
547.664	14.58
547.861	14.43
548.058	14.27
548.255	14.14
548.452	14.04
548.649	13.99
548.846	13.92
549.043	13.9
549.24	13.85
549.437	13.94
549.633	13.88
549.83	13.79
550.027	13.72
550.224	13.52
550.421	13.42
550.618	13.21
550.814	13.21
551.011	13.04
551.208	13.05
551.405	12.95
551.601	12.82
551.798	12.71
551.995	12.59
552.191	12.54
552.388	12.57
552.585	12.55
552.781	12.54
552.978	12.46
553.175	12.47
553.371	12.44
553.568	12.4
553.764	12.26
553.961	12.3
554.157	12.33
554.354	12.39
554.55	12.46
554.747	12.51
554.943	12.59
555.14	12.59
555.336	12.69
555.533	12.54
555.729	12.67
555.926	12.75
556.122	12.8
556.318	12.87
556.515	12.86
556.711	12.91
556.907	12.93
557.104	13
557.3	13.11
557.496	13.02
557.693	13.2
557.889	13.17
558.085	13.29
558.281	13.35
558.478	13.48
558.674	13.43
558.87	13.49
559.066	13.51
559.262	13.63
559.459	13.55
559.655	13.65
559.851	13.64
560.047	13.64
560.243	13.73
560.439	13.68
560.635	13.68
560.831	13.79
561.027	13.8
561.223	13.81
561.419	13.72
561.615	13.81
561.811	13.86
562.007	13.9
562.203	14.12
562.399	14.13
562.595	14.18
562.791	14.25
562.987	14.21
563.183	14.18
563.379	14.24
563.575	14.33
563.771	14.45
563.966	14.43
564.162	14.46
564.358	14.38
564.554	14.39
564.75	14.38
564.945	14.37
565.141	14.47
565.337	14.58
565.533	14.59
565.728	14.57
565.924	14.63
566.12	14.76
566.315	14.68
566.511	14.73
566.707	14.79
566.902	14.77
567.098	14.89
567.293	14.94
567.489	14.92
567.684	15.03
567.88	14.96
568.076	14.91
568.271	14.94
568.467	15.11
568.662	15.11
568.858	15.19
569.053	15.36
569.248	15.32
569.444	15.36
569.639	15.25
569.835	15.24
570.03	15.32
570.225	15.28
570.421	15.15
570.616	15.1
570.812	15.14
571.007	15.12
571.202	15.12
571.397	15.16
571.593	15.1
571.788	15.3
571.983	15.35
572.178	15.46
572.374	15.62
572.569	15.81
572.764	15.94
572.959	16.03
573.154	16.06
573.35	16.18
573.545	16.23
573.74	16.31
573.935	16.42
574.13	16.48
574.325	16.67
574.52	16.8
574.715	16.98
574.91	17.18
575.105	17.39
575.3	17.68
575.495	17.82
575.69	18.11
575.885	18.49
576.08	18.78
576.275	19.26
576.47	19.4
576.665	19.73
576.86	19.95
577.055	20.12
577.25	20.45
577.444	20.72
577.639	20.99
577.834	21.25
578.029	21.56
578.224	21.8
578.418	21.96
578.613	22.3
578.808	22.42
579.003	22.63
579.197	22.8
579.392	22.78
579.587	22.78
579.781	22.83
579.976	22.74
580.171	22.51
580.365	22.5
580.56	22.4
580.755	22.34
580.949	22.31
581.144	22.37
581.338	22.48
581.533	22.61
581.727	22.71
581.922	22.78
582.116	23.03
582.311	23.29
582.505	23.34
582.7	23.39
582.894	23.48
583.089	23.59
583.283	23.65
583.478	23.79
583.672	23.83
583.866	24.01
584.061	24.15
584.255	24.16
584.449	24.27
584.644	24.36
584.838	24.67
585.032	24.79
585.226	25.02
585.421	25.35
585.615	25.52
585.809	25.74
586.003	25.79
586.198	26.08
586.392	26.32
586.586	26.31
586.78	26.49
586.974	26.41
587.168	26.29
587.363	26.14
587.557	25.82
587.751	25.63
587.945	25.37
588.139	25.14
588.333	24.74
588.527	24.48
588.721	24.34
588.915	23.89
589.109	23.74
589.303	23.59
589.497	23.38
589.691	23.31
589.885	23.23
590.079	23.38
590.273	23.32
590.466	23.46
590.66	23.64
590.854	23.81
591.048	24.18
591.242	24.4
591.436	24.76
591.629	25.18
591.823	25.54
592.017	25.97
592.211	26.09
592.404	26.33
592.598	26.44
592.792	26.44
592.986	26.48
593.179	26.3
593.373	26.05
593.567	25.91
593.76	25.47
593.954	25.11
594.147	24.74
594.341	24.38
594.535	24.21
594.728	24.07
594.922	23.64
595.115	23.42
595.309	23.23
595.502	23.07
595.696	22.87
595.889	22.71
596.083	22.61
596.276	22.38
596.47	22.52
596.663	22.43
596.856	22.31
597.05	22.42
597.243	22.52
597.437	22.63
597.63	22.86
597.823	23.12
598.017	23.43
598.21	23.69
598.403	24.1
598.596	24.22
598.79	24.53
598.983	24.91
599.176	25.26
599.369	25.32
599.563	25.57
599.756	25.72
599.949	25.68
600.142	25.68
600.335	25.76
600.528	25.56
600.722	25.59
600.915	25.42
601.108	25.12
601.301	24.77
601.494	24.5
601.687	24.27
601.88	24.08
602.073	23.79
602.266	23.72
602.459	23.46
602.652	23.28
602.845	22.93
603.038	22.77
603.231	22.7
603.424	22.65
603.617	22.65
603.809	22.55
604.002	22.35
604.195	22.37
604.388	22.33
604.581	22.3
604.774	22.39
604.966	22.5
605.159	22.68
605.352	22.7
605.545	23.03
605.737	23.31
605.93	23.51
606.123	23.88
606.316	24.25
606.508	24.65
606.701	25.13
606.894	25.58
607.086	26.07
607.279	26.59
607.471	27.04
607.664	27.4
607.857	28.09
608.049	29.01
608.242	30.16
608.434	31.64
608.627	33.37
608.819	35.48
609.012	37.86
609.204	40.8
609.397	43.96
609.589	47.51
609.782	51.13
609.974	54.89
610.166	58.78
610.359	62.44
610.551	65.98
610.743	69.17
610.936	71.85
611.128	73.92
611.32	75.27
611.513	76.12
611.705	76.54
611.897	76.46
612.09	75.62
612.282	74.46
612.474	72.78
612.666	70.93
612.858	68.96
613.051	67.07
613.243	65.31
613.435	63.61
613.627	61.65
613.819	59.98
614.011	58.34
614.203	56.63
614.395	54.6
614.588	52.97
614.78	51.2
614.972	49.6
615.164	47.88
615.356	46.21
615.548	44.72
615.74	43.41
615.932	41.92
616.124	40.7
616.315	39.53
616.507	38.7
616.699	37.76
616.891	36.96
617.083	36.3
617.275	35.46
617.467	34.81
617.659	34.13
617.85	33.67
618.042	33.12
618.234	32.52
618.426	32.17
618.618	31.85
618.809	31.54
619.001	31.17
619.193	30.8
619.384	30.97
619.576	31.1
619.768	31.08
619.959	31.04
620.151	31.26
620.343	31.4
620.534	31.34
620.726	31.4
620.917	31.57
621.109	31.68
621.301	31.87
621.492	31.75
621.684	31.72
621.875	31.7
622.067	31.77
622.258	31.76
622.45	31.83
622.641	31.86
622.832	31.89
623.024	31.99
623.215	32
623.407	31.98
623.598	32.05
623.789	31.98
623.981	31.99
624.172	31.83
624.363	31.63
624.555	31.47
624.746	31.33
624.937	31.19
625.129	31.01
625.32	30.77
625.511	30.5
625.702	30.3
625.893	30.35
626.085	30.18
626.276	30.09
626.467	30.04
626.658	29.97
626.849	30.02
627.04	29.88
627.231	29.82
627.422	29.94
627.614	30.06
627.805	30.23
627.996	30.25
628.187	30.6
628.378	30.78
628.569	31.09
628.76	31.61
628.951	32.11
629.142	32.75
629.332	33.51
629.523	34.24
629.714	34.83
629.905	35.38
630.096	35.83
630.287	36.04
630.478	36.24
630.669	36.42
630.859	36.23
631.05	35.94
631.241	35.68
631.432	35.01
631.623	34.39
631.813	33.79
632.004	32.92
632.195	32.13
632.385	31.41
632.576	30.91
632.767	30.35
632.957	29.81
633.148	29.14
633.339	28.58
633.529	28.16
633.72	27.79
633.91	27.51
634.101	27.44
634.292	27.43
634.482	27.38
634.673	27.27
634.863	27.1
635.054	26.96
635.244	27.01
635.435	27.08
635.625	27.01
635.815	26.97
636.006	26.93
636.196	26.75
636.387	26.63
636.577	26.57
636.767	26.67
636.958	26.68
637.148	26.78
637.338	26.92
637.529	26.94
637.719	27.05
637.909	27.08
638.099	27.13
638.29	27.27
638.48	27.62
638.67	27.66
638.86	27.59
639.05	27.7
639.241	27.71
639.431	27.57
639.621	27.6
639.811	27.73
640.001	27.78
640.191	27.79
640.381	27.64
640.571	27.45
640.761	27.55
640.951	27.47
641.141	27.46
641.331	27.45
641.521	27.54
641.711	27.66
641.901	27.73
642.091	27.72
642.281	27.73
642.471	27.98
642.661	27.77
642.851	27.72
643.041	28.02
643.231	28.01
643.42	28
643.61	28.16
643.8	28.07
643.99	27.91
644.18	27.95
644.369	27.99
644.559	27.97
644.749	28.33
644.939	28.48
645.128	28.32
645.318	28.26
645.508	28.27
645.697	28.05
645.887	28.08
646.076	28.1
646.266	28.21
646.456	28.14
646.645	27.95
646.835	27.77
647.024	27.7
647.214	27.73
647.403	27.86
647.593	27.91
647.782	28.19
647.972	28.34
648.161	28.79
648.351	28.9
648.54	29.19
648.73	29.53
648.919	29.81
649.108	30.03
649.298	30.31
649.487	30.55
649.677	30.76
649.866	30.87
650.055	31.02
650.244	30.74
650.434	30.63
650.623	30.65
650.812	30.57
651.002	30.38
651.191	30.32
651.38	30.16
651.569	30.01
651.758	29.8
651.947	29.93
652.137	29.8
652.326	29.85
652.515	29.85
652.704	29.67
652.893	29.75
653.082	29.88
653.271	29.7
653.46	29.55
653.649	29.62
653.838	29.71
654.027	29.38
654.216	29.13
654.405	28.89
654.594	28.77
654.783	28.78
654.972	28.54
655.161	28.32
655.35	28.38
655.539	28.35
655.728	28.27
655.916	28.32
656.105	28.23
656.294	28.48
656.483	28.52
656.672	28.5
656.86	28.35
657.049	28.36
657.238	28.38
657.427	28.21
657.615	28.22
657.804	27.97
657.993	27.71
658.181	27.71
658.37	27.26
658.559	27.25
658.747	27.08
658.936	27.09
659.125	26.69
659.313	26.64
659.502	26.66
659.69	26.62
659.879	26.63
660.067	26.9
660.256	26.94
660.444	27.16
660.633	27.36
660.821	27.71
661.01	27.94
661.198	28.43
661.387	28.71
661.575	28.95
661.763	29.36
661.952	29.81
662.14	30.04
662.328	30.1
662.517	30.44
662.705	30.39
662.893	30.57
663.082	30.62
663.27	30.78
663.458	30.71
663.646	31.02
663.834	31.07
664.023	30.98
664.211	30.77
664.399	30.99
664.587	30.93
664.775	31
664.963	31.01
665.152	30.93
665.34	30.82
665.528	31.02
665.716	30.83
665.904	30.62
666.092	30.79
666.28	30.64
666.468	30.72
666.656	30.75
666.844	30.73
667.032	30.64
667.22	30.88
667.408	31.36
667.596	31.23
667.784	31.21
667.971	31.01
668.159	30.71
668.347	30.69
668.535	30.64
668.723	30.53
668.911	30.37
669.098	30.4
669.286	30.28
669.474	30.03
669.662	29.99
669.849	29.82
670.037	29.92
670.225	30.1
670.413	30.4
670.6	30.56
670.788	30.49
670.976	30.62
671.163	30.65
671.351	30.76
671.538	30.88
671.726	30.92
671.913	30.94
672.101	31.03
672.289	30.98
672.476	30.84
672.664	30.9
672.851	31.1
673.039	31.19
673.226	31.19
673.413	31.04
673.601	30.86
673.788	31.14
673.976	31.2
674.163	31.28
674.35	31.29
674.538	31.4
674.725	31.27
674.912	31.31
675.1	31.42
675.287	31.39
675.474	31.51
675.662	31.57
675.849	31.42
676.036	31.61
676.223	31.77
676.411	31.77
676.598	31.8
676.785	31.58
676.972	31.55
677.159	31.2
677.346	31.29
677.533	31.12
677.721	31.14
677.908	30.84
678.095	30.63
678.282	30.3
678.469	30.18
678.656	30.06
678.843	29.77
679.03	29.85
679.217	29.89
679.404	29.68
679.591	29.64
679.778	29.39
679.964	29.53
680.151	29.33
680.338	29.39
680.525	29.45
680.712	29.42
680.899	29.7
681.086	29.6
681.272	29.71
681.459	29.78
681.646	29.88
681.833	30.26
682.02	30.22
682.206	30.7
682.393	30.83
682.58	30.75
682.766	30.84
682.953	30.89
683.14	30.86
683.326	31.26
683.513	31.6
683.7	31.44
683.886	31.4
684.073	31.6
684.259	31.44
684.446	31.57
684.632	31.82
684.819	31.89
685.005	32.15
685.192	32.53
685.378	32.39
685.565	32.16
685.751	32.41
685.938	32.44
686.124	32.42
686.31	32.78
686.497	32.82
686.683	32.99
686.87	33.05
687.056	33
687.242	32.78
687.429	32.67
687.615	32.72
687.801	32.92
687.987	33
688.174	33.11
688.36	32.82
688.546	32.76
688.732	32.47
688.918	32.25
689.105	32.25
689.291	32.12
689.477	32.02
689.663	32.1
689.849	31.87
690.035	31.89
690.221	31.94
690.407	32.07
690.593	31.95
690.779	32.27
690.965	32.39
691.151	32.23
691.337	32.52
691.523	32.88
691.709	32.84
691.895	33.31
692.081	33.37
692.267	33.65
692.453	33.9
692.639	34.09
692.825	33.96
693.011	34.29
693.196	34.59
693.382	34.39
693.568	34.25
693.754	34.61
693.94	34.28
694.125	34.01
694.311	33.62
694.497	33.29
694.682	33.27
694.868	33.22
695.054	33.11
695.239	33.12
695.425	33.31
695.611	33.04
695.796	32.53
695.982	32.17
696.168	32.27
696.353	31.79
696.539	31.63
696.724	31.3
696.91	30.94
697.095	30.44
697.281	30.06
697.466	29.67
697.652	29.6
697.837	29.17
698.023	29.03
698.208	28.68
698.393	28.58
698.579	28.48
698.764	28.39
698.949	28.42
699.135	28.42
699.32	28.47
699.505	28.34
699.691	28.29
699.876	28.51
700.061	28.78
700.246	29.09
700.432	29.38
700.617	29.38
700.802	29.78
700.987	30.15
701.172	30.58
701.358	30.95
701.543	31.66
701.728	32.25
701.913	32.74
702.098	33.2
702.283	33.56
702.468	34.04
702.653	34.88
702.838	35.43
703.023	35.58
703.208	36.21
703.393	36.52
703.578	37.1
703.763	37.49
703.948	38.34
704.133	38.57
704.318	39.02
704.503	39.6
704.688	40.16
704.873	40.36
705.057	41.22
705.242	41.62
705.427	42.53
705.612	43.03
705.797	43.33
705.981	43.3
706.166	44.12
706.351	44.63
706.536	45.16
706.72	45.69
706.905	46.37
707.09	46.52
707.274	47.09
707.459	46.89
707.644	46.86
707.828	47.37
708.013	47.85
708.197	47.67
708.382	47.77
708.567	47.91
708.751	47.35
708.936	46.61
709.12	46.15
709.305	45
709.489	44.21
709.673	43.98
709.858	43.26
710.042	42.79
710.227	42.81
710.411	42.3
710.596	41.78
710.78	41.7
710.964	42.07
711.149	42.18
711.333	42.68
711.517	43.28
711.702	43.17
711.886	43.12
712.07	42.8
712.254	42.68
712.438	42.46
712.623	42.28
712.807	41.77
712.991	41.43
713.175	40.68
713.359	40.02
713.544	39.21
713.728	38.22
713.912	37.47
714.096	36.92
714.28	35.64
714.464	35.03
714.648	34.26
714.832	33.92
715.016	33.11
715.2	33.09
715.384	32.82
715.568	32.61
715.752	32.54
715.936	32.61
716.12	32.44
716.304	32.88
716.488	33
716.671	32.98
716.855	32.81
717.039	32.76
717.223	32.77
717.407	32.44
717.59	32.58
717.774	32.62
717.958	32.47
718.142	32.19
718.325	31.62
718.509	31.53
718.693	31.16
718.877	31.17
719.06	31.3
719.244	31.46
719.428	31.96
719.611	32.16
719.795	32.43
719.978	33.05
720.162	33.63
720.345	34.03
720.529	34.18
720.713	34.66
720.896	34.85
721.08	35.55
721.263	35.89
721.446	35.77
721.63	35.56
721.813	35.76
721.997	35.96
722.18	36.25
722.364	36.6
722.547	36.35
722.73	36.42
722.914	36.5
723.097	36.21
723.28	35.92
723.464	35.84
723.647	36.07
723.83	35.58
724.013	34.77
724.197	34.88
724.38	34.54
724.563	34.8
724.746	34.57
724.929	34.63
725.112	34.17
725.296	33.58
725.479	34.09
725.662	34.32
725.845	34.61
726.028	34.92
726.211	34.6
726.394	34.32
726.577	34.41
726.76	34.37
726.943	34.03
727.126	33.72
727.309	34.21
727.492	33.52
727.675	32.76
727.858	32.21
728.041	31.88
728.224	31.73
728.407	32.23
728.589	31.87
728.772	31.97
728.955	31.9
729.138	31.97
729.321	31.33
729.503	31.56
729.686	31.36
729.869	31.67
730.052	31.7
730.234	31.97
730.417	32.01
730.6	32.31
730.782	32.32
730.965	32.56
731.148	33.11
731.33	33.61
731.513	34.07
731.695	34.6
731.878	34.67
732.061	35.08
732.243	34.91
732.426	34.63
732.608	34.78
732.791	35.1
732.973	35.32
733.156	35.28
733.338	35.25
733.52	35.05
733.703	35.17
733.885	35.33
734.068	35.42
734.25	36.09
734.432	36.54
734.615	36.62
734.797	36.51
734.979	36.5
735.162	36.89
735.344	36.94
735.526	37.16
735.708	37.66
735.891	37.62
736.073	37.94
736.255	37.75
736.437	37.47
736.619	37.58
736.802	37.75
736.984	37.47
737.166	37.5
737.348	37.87
737.53	37.66
737.712	37.08
737.894	37.86
738.076	37.38
738.258	37.04
738.44	37.24
738.622	36.89
738.804	37.23
738.986	37.57
739.168	37.36
739.35	37.5
739.532	37.53
739.714	38.34
739.896	37.87
740.078	37.89
740.259	38.22
740.441	38.54
740.623	39.22
740.805	38.52
740.987	38.1
741.168	38.62
741.35	38.57
741.532	38.56
741.714	38.18
741.895	38.03
742.077	38.65
742.259	39.11
742.44	38.88
742.622	38.33
742.804	39.24
742.985	40.26
743.167	39.73
743.348	39.8
743.53	40.65
743.711	40.61
743.893	41.66
744.075	41.75
744.256	41.83
744.438	41.76
744.619	42.48
744.8	42.61
744.982	42.72
745.163	43.6
745.345	43.31
745.526	42.75
745.707	42.4
745.889	42.09
746.07	42.44
746.252	42.18
746.433	42.54
746.614	41.79
746.795	41.41
746.977	41.22
747.158	40.48
747.339	41.33
747.52	41.66
747.702	42.07
747.883	41.71
748.064	41.02
748.245	41.03
748.426	40.16
748.607	40.64
748.788	40.57
748.97	40.38
749.151	40.51
749.332	39.68
749.513	39.66
749.694	40.01
749.875	39.82
750.056	40.34
750.237	40.15
750.418	41.23
750.599	41.24
750.78	41.26
750.96	41.44
751.141	41.85
751.322	42.11
751.503	42.07
751.684	41.83
751.865	43
752.046	42.47
752.226	42.76
752.407	42.56
752.588	42.84
752.769	43.03
752.949	43.01
753.13	42.57
753.311	42.37
753.492	42.25
753.672	42.28
753.853	40.92
754.034	41.4
754.214	40.94
754.395	41.15
754.575	41.03
754.756	40.87
754.937	40.69
755.117	40.86
755.298	41.46
755.478	41.98
755.659	41.56
755.839	42.54
756.02	42.64
756.2	42.58
756.381	42.21
756.561	42.31
756.741	42.34
756.922	42.63
757.102	42.6
757.283	42.04
757.463	41.28
757.643	41.4
757.823	40.65
758.004	40.12
758.184	39.79
758.364	39.37
758.545	38.53
758.725	37.88
758.905	36.97
759.085	36.44
759.265	35.98
759.446	35.46
759.626	34.44
759.806	33.79
759.986	33.2
760.166	32.93
760.346	32.6
760.526	32.28
760.706	32.44
760.886	31.65
761.066	31.71
761.246	31.54
761.426	31.39
761.606	31.53
761.786	31.51
761.966	30.93
762.146	30.51
762.326	30.49
762.506	30.83
762.686	30.3
762.866	30.5
763.046	30.17
763.225	29.95
763.405	29.57
763.585	29.66
763.765	29.79
763.945	30.33
764.124	30.67
764.304	30.63
764.484	30.66
764.664	31.11
764.843	31.59
765.023	32.04
765.203	32.47
765.382	33.24
765.562	33.91
765.741	34.17
765.921	34.77
766.101	35.5
766.28	35.87
766.46	36.27
766.639	37.15
766.819	37.63
766.998	37.94
767.178	38.53
767.357	39.32
767.537	39.58
767.716	40.62
767.896	40.84
768.075	41.28
768.254	41.76
768.434	42.1
768.613	42.34
768.792	42.56
768.972	42.89
769.151	42.94
769.33	42.65
769.51	42.44
769.689	41.93
769.868	42.25
770.047	42.33
770.226	42.43
770.406	42.34
770.585	42.27
770.764	42.6
770.943	42.81
771.122	43.39
771.301	44.35
771.48	45.12
771.66	45.63
771.839	45.55
772.018	45.64
772.197	45.92
772.376	46.29
772.555	46.83
772.734	46.98
772.913	46.9
773.092	46.94
773.271	46.06
773.449	46.1
773.628	46.35
773.807	46.58
773.986	46.88
774.165	47.09
774.344	46.97
774.523	46.54
774.701	46.32
774.88	46.93
775.059	47.37
775.238	47.81
775.417	47.26
775.595	47.53
775.774	47.47
775.953	47.09
776.131	46.96
776.31	47.54
776.489	47.49
776.667	48.12
776.846	47.74
777.025	46.98
777.203	47.38
777.382	47.8
777.56	46.76
777.739	46.07
777.917	45.62
778.096	46.1
778.274	45.71
778.453	45.18
778.631	45.45
778.81	45.1
778.988	44.96
779.166	44.38
779.345	44.57
779.523	45.32
779.702	45.71
779.88	46.47
780.058	46.18
780.237	46.81
780.415	47.49
780.593	47.01
780.771	47.72
780.95	48.16
781.128	48.15
781.306	47.87
781.484	48.13
781.662	48.04
781.841	48.18
782.019	48.97
782.197	48.21
782.375	48.94
782.553	48.81
782.731	48.45
782.909	48.79
783.087	49.13
783.265	48.76
783.443	48.52
783.621	48.72
783.799	48.83
783.977	47.91
784.155	48.37
784.333	47.63
784.511	47.65
784.689	47.29
784.867	47.24
785.045	47.18
785.223	47.62
785.4	47.93
785.578	48.33
785.756	48.21
785.934	48.28
786.112	47.62
786.289	47.49
786.467	47.13
786.645	46.45
786.823	45.69
787	44.71
787.178	44.35
787.356	43
787.533	42.34
787.711	42.1
787.889	42.27
788.066	41.93
788.244	41.49
788.421	41.52
788.599	41.78
788.776	41.71
788.954	42.57
789.131	42.11
789.309	42.6
789.486	43.01
789.664	43.07
789.841	42.62
790.019	43.06
790.196	43.6
790.373	43.68
790.551	44.1
790.728	44.62
790.906	44.23
791.083	45.5
791.26	46.07
791.437	46.42
791.615	46.52
791.792	47.32
791.969	47.38
792.146	48.66
792.324	48.83
792.501	49.47
792.678	49.69
792.855	50
793.032	49.41
793.209	48.86
793.387	48.54
793.564	48.1
793.741	47.93
793.918	48.32
794.095	46.79
794.272	47.11
794.449	46.6
794.626	45.44
794.803	45.21
794.98	45.66
795.157	46.11
795.334	45.23
795.511	45.06
795.688	43.94
795.864	42.82
796.041	43.6
796.218	43.03
796.395	43.34
796.572	43.78
796.749	43.5
796.925	43.24
797.102	42.64
797.279	43.38
797.456	42.97
797.632	44.03
797.809	44.82
797.986	43.91
798.162	44.09
798.339	43.78
798.516	44.08
798.692	45
798.869	44.88
799.046	44.99
799.222	44.91
799.399	45.29
799.575	45.2
799.752	45.59
799.928	45.39
800.105	45.74
800.281	45.53
800.458	46.03
800.634	45.69
800.811	46.04
800.987	46.12
801.163	44.98
801.34	45.99
801.516	45.4
801.692	44.55
801.869	44.79
802.045	45.34
802.221	44.79
802.398	45.03
802.574	44.53
802.75	44.53
802.926	44.79
803.103	46.09
803.279	45.69
803.455	46.13
803.631	46.83
803.807	47.06
803.983	46.19
804.16	47.26
804.336	46.85
804.512	47.52
804.688	46.61
804.864	45.56
805.04	45.55
805.216	45.15
805.392	44.7
805.568	45.37
805.744	45.93
805.92	45.31
806.096	45.16
806.272	44.82
806.448	44.83
806.623	45.59
806.799	47.18
806.975	47.61
807.151	47.9
807.327	49.05
807.503	48.92
807.678	49.35
807.854	49.5
808.03	49.39
808.206	49.18
808.381	48.63
808.557	48.16
808.733	47.77
808.908	46.27
809.084	46.3
809.26	44.99
809.435	44.76
809.611	44.56
809.787	44.55
809.962	45.25
810.138	45.18
810.313	45.2
810.489	46.16
810.664	45.47
810.84	45.83
811.015	46.18
811.191	47.4
811.366	47.18
811.542	45.99
811.717	46.45
811.892	46.08
812.068	46.39
812.243	46.46
812.419	45.29
812.594	46.35
812.769	46.77
812.944	46.44
813.12	45.57
813.295	45.77
813.47	46.63
813.645	45.41
813.821	45.95
813.996	45.72
814.171	45.76
814.346	46.59
814.521	45.74
814.697	46.45
814.872	46.8
815.047	47.04
815.222	46.5
815.397	45.44
815.572	47.14
815.747	46.36
815.922	46.19
816.097	47.02
816.272	46.61
816.447	46.09
816.622	45.3
816.797	44.27
816.972	43.38
817.147	43.66
817.322	44.69
817.496	43.73
817.671	44.08
817.846	43.85
818.021	42.36
818.196	41.66
818.371	42.21
818.545	42.1
818.72	42.17
818.895	42.82
819.069	40.93
819.244	39.97
819.419	38.62
819.594	37.21
819.768	37.14
819.943	36.59
820.117	35.71
820.292	33.89
820.467	32.66
820.641	31.45
820.816	29.77
820.99	29.23
821.165	27.69
821.339	27.08
821.514	26.31
821.688	25.4
821.863	24.7
822.037	24.3
822.212	23.9
822.386	23.48
822.56	22.98
822.735	22.93
822.909	22.92
823.084	23.07
823.258	23.12
823.432	22.99
823.606	23.07
823.781	23.51
823.955	23.69
824.129	24.22
824.303	24.43
824.478	25.05
824.652	25.33
824.826	25.92
825	26.42
825.174	26.98
825.348	27.59
825.523	27.9
825.697	27.93
825.871	28.42
826.045	28.51
826.219	28.95
826.393	29.29
826.567	29.61
826.741	29.06
826.915	28.98
827.089	28.8
827.263	28.93
827.437	29.01
827.611	29.19
827.784	29.12
827.958	29.35
828.132	29.19
828.306	28.87
828.48	28.85
828.654	29.74
828.827	30.7
829.001	31.26
829.175	32.03
829.349	33.37
829.522	33.97
829.696	34.48
829.87	35.38
830.044	36.5
830.217	37.66
830.391	38.43
830.565	38.23
830.738	37.6
830.912	37.53
831.085	37.33
831.259	36.78
831.432	36.4
831.606	36.92
831.779	35.72
831.953	35.9
832.126	35.61
832.3	34.95
832.473	34.41
832.647	33.77
832.82	33.69
832.994	33.2
833.167	33.08
833.34	32.7
833.514	31.95
833.687	31.91
833.86	31.06
834.034	30.61
834.207	30.85
834.38	31.2
834.553	32.02
834.727	32.1
834.9	32.43
835.073	32.14
835.246	32.63
835.419	32.98
835.593	33.8
835.766	35.11
835.939	35.68
836.112	36.35
836.285	36.08
836.458	36.26
836.631	37.77
836.804	39.03
836.977	41.09
837.15	42.79
837.323	43.91
837.496	43.47
837.669	44.41
837.842	45.9
838.015	46.4
838.188	47.79
838.361	48.53
838.533	47.11
838.706	46.54
838.879	46.03
839.052	43.48
839.225	43.27
839.398	43.7
839.57	42.61
839.743	41.58
839.916	42.21
840.088	42.69
840.261	43.42
840.434	44.76
840.607	45.05
840.779	43.31
840.952	44.8
841.124	46.79
841.297	47.18
841.47	47.93
841.642	47.75
841.815	49.02
841.987	50
842.16	49.17
842.332	48.49
842.505	49.89
842.677	51.9
842.85	52.32
843.022	52.04
843.194	53.61
843.367	54.46
843.539	56.22
843.712	54.03
843.884	53.73
844.056	53.63
844.229	55.38
844.401	55.18
844.573	56.79
844.745	58.61
844.918	57.47
845.09	57.02
845.262	55.25
845.434	57.58
845.606	59.14
845.779	60.33
845.951	60.79
846.123	58.19
846.295	57.49
846.467	55.73
846.639	57.24
846.811	58.59
846.983	59.62
847.155	62.42
847.327	60.7
847.499	61.07
847.671	60.91
847.843	61.02
848.015	61.46
848.187	61.26
848.359	61.22
848.531	58.97
848.703	57.41
848.875	57.35
849.047	57.79
849.218	57.61
849.39	56.58
849.562	56.6
849.734	57.51
849.905	59.36
850.077	60.92
850.249	62.57
850.421	62.03
850.592	63.12
850.764	64.31
850.936	62.61
851.107	62.49
851.279	62.38
851.451	61.85
851.622	61.31
851.794	59.48
851.965	60.23
852.137	59.5
852.308	59.98
852.48	58.98
852.651	58.53
852.823	57.01
852.994	56.49
853.166	57.32
853.337	57.85
853.509	57.44
853.68	58.4
853.851	55.93
854.023	56.63
854.194	57.39
854.365	58.09
854.537	57.24
854.708	58.46
854.879	59.43
855.05	59.29
855.222	60.34
855.393	62.51
855.564	65.04
855.735	65.58
855.906	65.6
856.078	64.74
856.249	63.3
856.42	64.06
856.591	63.19
856.762	64.32
856.933	66.18
857.104	64.15
857.275	61.57
857.446	60.14
857.617	60.98
857.788	60.97
857.959	61.54
858.13	63.08
858.301	62.22
858.472	63.14
858.643	61.82
858.814	59.17
858.985	59.22
859.155	60.12
859.326	60.39
859.497	60.18
859.668	59.03
859.839	56.3
860.009	56.33
860.18	56.04
860.351	55.81
860.522	56.42
860.692	56.82
860.863	57.44
861.034	59.45
861.204	58.68
861.375	60.07
861.546	60.1
861.716	61.81
861.887	62.01
862.057	60.59
862.228	62.94
862.398	60.63
862.569	63.16
862.739	64.36
862.91	64.63
863.08	64.59
863.251	63.27
863.421	62.96
863.592	61.98
863.762	59.39
863.932	60
864.103	57.76
864.273	58.37
864.443	55.6
864.614	52.82
864.784	51.29
864.954	50.61
865.125	50.66
865.295	53.07
865.465	54.31
865.635	54.71
865.805	55.94
865.976	57.14
866.146	57.81
866.316	58.65
866.486	61.16
866.656	61.53
866.826	63.46
866.996	61.93
867.166	60.67
867.336	61.65
867.506	62.83
867.676	62.46
867.846	61.59
868.016	60.85
868.186	60.84
868.356	61.27
868.526	60.44
868.696	57.99
868.866	60.71
869.036	59.75
869.206	57.76
869.376	59.3
869.545	58.09
869.715	60.6
869.885	61.22
870.055	61.74
870.224	59.24
870.394	60.16
870.564	63.08
870.734	62.13
870.903	60.47
871.073	62.18
871.243	61.05
871.412	62.07
871.582	61.75
871.751	61.57
871.921	59.15
872.091	60.2
872.26	58.93
872.43	57.98
872.599	57.67
872.769	60.94
872.938	61.55
873.108	63.67
873.277	63.92
873.446	61.89
873.616	64.17
873.785	69.38
873.955	72.13
874.124	71.97
874.293	69.54
874.463	70.39
874.632	67.27
874.801	66.21
874.971	64.05
875.14	63.2
875.309	63.74
875.478	61.29
875.647	57.75
875.817	55.92
875.986	57.37
876.155	58.89
876.324	57.34
876.493	59.67
876.662	59.17
876.831	59.5
877	59.91
877.17	58.06
877.339	58.59
877.508	59.28
877.677	58.55
877.846	58.56
878.015	57.88
878.184	57.54
878.352	56.56
878.521	56.47
878.69	54.88
878.859	54.41
879.028	54.65
879.197	53.14
879.366	50.03
879.534	48.97
879.703	46.73
879.872	45.02
880.041	44.12
880.21	42.35
880.378	40.6
880.547	38.66
880.716	37.36
880.884	35.11
881.053	33.93
881.222	33.34
881.39	31.48
881.559	30.12
881.727	29.18
881.896	28.16
882.065	27.9
882.233	27.39
882.402	27.53
882.57	27.68
882.739	28.3
882.907	27.82
883.076	27.68
883.244	28.47
883.412	28.55
883.581	29.45
883.749	29.96
883.918	29.41
884.086	29.77
884.254	30.09
884.423	29.52
884.591	30.1
884.759	31.17
884.927	32.09
885.096	30.99
885.264	31.89
885.432	32.06
885.6	32.07
885.769	33.38
885.937	35.18
886.105	36.12
886.273	36.34
886.441	37.79
886.609	38.61
886.777	40.67
886.945	43.2
887.113	44.78
887.281	46.74
887.449	48.42
887.617	51.19
887.785	50.87
887.953	50.87
888.121	52.79
888.289	51.16
888.457	51.83
888.625	50.48
888.793	50.6
888.961	51.57
889.129	51.56
889.296	50.66
889.464	49.25
889.632	49.25
889.8	49.72
889.967	50.89
890.135	50.77
