Data from 2938778__Reflection_03.txt Node
Date: Fri Mar 13 13:30:22 EDT 2015
User: robert
Spectrometer: USB4E03002
Autoset integration time: false
Trigger mode: 4
Integration Time (sec): 1.000000E-1
Scans to average: 10
Electric dark correction enabled: false
Nonlinearity correction enabled: false
Boxcar width: 5
Stray light correction enabled: false
XAxis mode: Wavelengths
Stop averaging: false
Number of Pixels in Spectrum: 3648
>>>>>Begin Spectral Data<<<<<
177.575	-351.39
177.794	-732.88
178.014	-2314.81
178.233	1250.75
178.452	2351.35
178.672	484.09
178.891	432.93
179.11	2356.52
179.33	-417.91
179.549	-194.44
179.768	-923.33
179.987	338.81
180.207	914.81
180.426	287.69
180.645	71.43
180.864	185.48
181.084	6.3
181.303	-65.42
181.522	-408.51
181.741	2993.33
181.96	198.1
182.179	155.44
182.398	113.38
182.618	79.48
182.837	111.44
183.056	104.89
183.275	111.73
183.494	74.08
183.713	52.02
183.932	30.96
184.151	-25.83
184.37	-67.43
184.589	-110.11
184.808	-14.44
185.027	116.84
185.246	105.19
185.465	83.03
185.684	53.89
185.903	51.46
186.122	68.67
186.341	60.24
186.56	76.88
186.779	97.61
186.998	76.16
187.216	73.82
187.435	-16.1
187.654	-8.18
187.873	-0.27
188.092	25.75
188.311	-35.84
188.53	-116.35
188.748	-196.87
188.967	791.67
189.186	-51.45
189.405	35.25
189.623	6.16
189.842	44.2
190.061	74.52
190.28	139.41
190.498	80.6
190.717	87.24
190.936	95.48
191.154	67.04
191.373	85.08
191.592	89.83
191.81	65.84
192.029	68.27
192.248	53.61
192.466	35.25
192.685	20.78
192.904	44.67
193.122	30.75
193.341	49.82
193.559	98.75
193.778	9.32
193.996	-91.54
194.215	-508
194.433	-140.19
194.652	-93.24
194.87	-95.74
195.089	-1920
195.307	-453.85
195.526	157.01
195.744	-297.87
195.963	-1.09
196.181	37.6
196.399	86.4
196.618	12.87
196.836	80.27
197.055	88.31
197.273	124.18
197.491	41.18
197.71	-42.59
197.928	70.95
198.146	96.61
198.365	-157.33
198.583	125.76
198.801	86.03
199.019	26.55
199.238	43.57
199.456	32.2
199.674	8.94
199.892	34.15
200.111	41.03
200.329	51.51
200.547	54.79
200.765	-34.12
200.983	11.11
201.202	-17.76
201.42	-189.58
201.638	713.04
201.856	191.75
202.074	-117.07
202.292	85.26
202.51	75.97
202.728	68.51
202.946	137.58
203.165	155.56
203.383	-6000
203.601	14.79
203.819	-84.16
204.037	-88.24
204.255	0
204.473	54.03
204.691	139.23
204.909	50.5
205.127	34.31
205.345	-6.21
205.562	-25.42
205.78	1.03
205.998	-17.7
206.216	14.23
206.434	32.44
206.652	44.97
206.87	54.34
207.088	40.21
207.306	85.19
207.523	58.75
207.741	74.17
207.959	68.38
208.177	77.27
208.395	101.85
208.612	126.42
208.83	84.95
209.048	44.44
209.266	3.33
209.483	394.12
209.701	460
209.919	121.88
210.136	1120
210.354	-94.44
210.572	-10.93
210.79	212.15
211.007	69.43
211.225	223.73
211.442	96.59
211.66	69.14
211.878	69.96
212.095	58.06
212.313	34.78
212.53	18.45
212.748	36.31
212.966	31.09
213.183	16.03
213.401	35.5
213.618	25.62
213.836	8.09
214.053	-3.43
214.271	2.83
214.488	20.78
214.705	18.15
214.923	26.4
215.14	27.4
215.358	15.76
215.575	19.03
215.793	14.21
216.01	18.05
216.227	25.69
216.445	28.55
216.662	24.34
216.879	15.13
217.097	25.34
217.314	20.08
217.531	17.1
217.749	19.01
217.966	18.46
218.183	7.06
218.4	-2.31
218.618	-8.27
218.835	-12.76
219.052	-13.46
219.269	-31.66
219.487	-51.86
219.704	-37.91
219.921	-46.72
220.138	-34.23
220.355	-31.81
220.572	-27.99
220.79	-22.52
221.007	-36.57
221.224	-44.61
221.441	-40.26
221.658	-16.35
221.875	-8.62
222.092	-15.35
222.309	-14.69
222.526	-15.47
222.743	-17.69
222.96	-11.83
223.177	-8.56
223.394	-3.4
223.611	-0.51
223.828	8.71
224.045	7.23
224.262	20.02
224.479	24.65
224.696	25.94
224.913	25.71
225.13	26.57
225.347	29.21
225.564	26.97
225.781	29.62
225.997	24.5
226.214	22.23
226.431	20.88
226.648	9.73
226.865	8.6
227.082	8.9
227.298	7.54
227.515	7.22
227.732	3.95
227.949	2.98
228.165	2.02
228.382	3.4
228.599	2.34
228.816	1.97
229.032	2.35
229.249	1.85
229.466	1.68
229.682	1.68
229.899	1.22
230.116	0.98
230.332	0.82
230.549	1.07
230.765	1.06
230.982	0.75
231.199	0.6
231.415	1.05
231.632	0.93
231.848	1.58
232.065	-0.36
232.281	-1.04
232.498	-0.58
232.714	1.51
232.931	2.88
233.147	2.11
233.364	2.75
233.58	1.75
233.797	0.9
234.013	0.55
234.23	0.72
234.446	1.85
234.662	1.85
234.879	2.61
235.095	2.21
235.312	2.37
235.528	0.77
235.744	-0.63
235.961	0.5
236.177	1.66
236.393	3.32
236.61	1.26
236.826	0.27
237.042	0.73
237.258	0.76
237.475	0.16
237.691	-2.5
237.907	-2.34
238.123	0.33
238.339	-0.14
238.556	-0.34
238.772	-0.81
238.988	0.83
239.204	2.1
239.42	2.65
239.636	1.86
239.853	1.38
240.069	3.39
240.285	3.44
240.501	2.75
240.717	3.43
240.933	3.49
241.149	2.88
241.365	2.72
241.581	2.09
241.797	1.89
242.013	2.79
242.229	3.18
242.445	2.73
242.661	3.75
242.877	3.51
243.093	3.42
243.309	3.01
243.525	3.25
243.741	3.24
243.957	3.91
244.173	4.15
244.388	4.12
244.604	3.55
244.82	3.96
245.036	2.86
245.252	2.75
245.468	2.65
245.683	3.5
245.899	3.04
246.115	2.83
246.331	2.96
246.547	2.77
246.762	2.51
246.978	2.65
247.194	2.5
247.409	2.78
247.625	3.03
247.841	3.2
248.057	3.09
248.272	3.44
248.488	3.82
248.703	3.67
248.919	3.69
249.135	3.68
249.35	4.2
249.566	4.22
249.782	4.1
249.997	4.03
250.213	4.1
250.428	3.71
250.644	3.21
250.859	2.61
251.075	2.46
251.29	2.65
251.506	3.26
251.721	2.63
251.937	2.72
252.152	2.67
252.368	2.78
252.583	2.38
252.798	2.29
253.014	2.61
253.229	2.58
253.445	1.99
253.66	2.13
253.875	1.75
254.091	1.26
254.306	1.19
254.521	0.61
254.737	0.42
254.952	0.46
255.167	0.25
255.383	0.8
255.598	0.06
255.813	1.48
256.028	1.69
256.244	1.03
256.459	1.81
256.674	1.33
256.889	2.28
257.104	1.88
257.32	2.06
257.535	2.04
257.75	1.47
257.965	1.02
258.18	0.76
258.395	0.81
258.61	1.54
258.826	1.89
259.041	1.99
259.256	1.96
259.471	1.75
259.686	1.47
259.901	1.71
260.116	1.88
260.331	2.54
260.546	2.51
260.761	2.43
260.976	2.36
261.191	2.12
261.406	1.99
261.621	1.63
261.836	2.04
262.05	1.69
262.265	1.71
262.48	0.97
262.695	0.59
262.91	0.35
263.125	0.32
263.34	0.21
263.555	-0.49
263.769	-0.2
263.984	-0.13
264.199	-0.89
264.414	0.05
264.629	-0.34
264.843	0.68
265.058	0.73
265.273	1.18
265.488	1.69
265.702	1.91
265.917	2.59
266.132	2.05
266.346	1.51
266.561	2.22
266.776	1.96
266.99	2.12
267.205	1.79
267.42	1.42
267.634	1.21
267.849	0.68
268.063	0.6
268.278	0.63
268.492	0.97
268.707	1.19
268.922	0.93
269.136	1.67
269.351	1.14
269.565	1.34
269.78	1.36
269.994	1.56
270.209	1.69
270.423	1.3
270.637	1.05
270.852	0.78
271.066	1.5
271.281	1.49
271.495	1.35
271.709	1.78
271.924	1.79
272.138	1.84
272.353	2.23
272.567	2.32
272.781	2.39
272.996	2.45
273.21	3.14
273.424	2.98
273.638	2.97
273.853	2.6
274.067	2.53
274.281	2.45
274.495	2.47
274.71	2.28
274.924	2.66
275.138	2.78
275.352	2.64
275.566	2.02
275.781	1.51
275.995	1.89
276.209	2.07
276.423	1.7
276.637	1.02
276.851	1.1
277.065	1.31
277.279	0.67
277.493	0.81
277.707	1.24
277.921	1.33
278.135	1.6
278.349	1.32
278.563	1.77
278.777	2.19
278.991	2.93
279.205	3.23
279.419	2.62
279.633	2.95
279.847	2.73
280.061	2.28
280.275	2.25
280.489	2.18
280.703	2.14
280.917	1.61
281.131	1.39
281.344	1.21
281.558	0.66
281.772	1.15
281.986	0.94
282.2	0.99
282.414	1.11
282.627	0.77
282.841	0.71
283.055	0.87
283.269	0.62
283.482	0.49
283.696	0.62
283.91	0.69
284.123	0.62
284.337	1.02
284.551	0.77
284.764	0.7
284.978	0.96
285.192	1.14
285.405	1.01
285.619	1.09
285.833	1.38
286.046	1.27
286.26	1.48
286.473	1.46
286.687	1.05
286.9	1.15
287.114	1.19
287.327	0.99
287.541	0.85
287.754	0.83
287.968	0.62
288.181	0.48
288.395	0.6
288.608	0.82
288.822	0.41
289.035	0.63
289.248	0.6
289.462	0.93
289.675	1.04
289.889	1.29
290.102	1.27
290.315	1.75
290.529	1.95
290.742	1.73
290.955	1.55
291.169	1.89
291.382	1.79
291.595	1.89
291.808	1.86
292.022	1.86
292.235	1.64
292.448	1.78
292.661	1.82
292.875	1.64
293.088	2.1
293.301	2.11
293.514	2.13
293.727	2.53
293.94	2.56
294.153	2.6
294.367	2.49
294.58	2.59
294.793	2.07
295.006	2.3
295.219	2.28
295.432	1.86
295.645	2.1
295.858	1.91
296.071	1.58
296.284	1.64
296.497	1.65
296.71	1.97
296.923	2.12
297.136	2.37
297.349	2.18
297.562	2.4
297.775	2.66
297.988	2.68
298.201	2.83
298.414	2.97
298.626	3.07
298.839	2.91
299.052	2.85
299.265	2.59
299.478	2.7
299.691	2.75
299.903	2.45
300.116	2.5
300.329	2.24
300.542	2.3
300.755	2.09
300.967	1.77
301.18	1.78
301.393	1.8
301.605	1.93
301.818	1.87
302.031	1.81
302.243	1.64
302.456	1.44
302.669	1.52
302.881	1.54
303.094	1.6
303.307	1.9
303.519	1.7
303.732	1.76
303.944	1.44
304.157	1.5
304.37	1.44
304.582	1.58
304.795	1.68
305.007	1.95
305.22	1.62
305.432	1.68
305.645	1.31
305.857	1.88
306.069	1.94
306.282	2.44
306.494	2.42
306.707	2.09
306.919	1.84
307.132	1.79
307.344	1.55
307.556	1.94
307.769	2.02
307.981	2.38
308.193	2
308.406	2.04
308.618	1.78
308.83	2.02
309.043	2.53
309.255	3.06
309.467	3.1
309.679	2.98
309.892	2.84
310.104	2.85
310.316	2.6
310.528	2.68
310.74	2.76
310.953	2.9
311.165	2.79
311.377	2.71
311.589	2.88
311.801	2.97
312.013	3.19
312.225	3.29
312.437	3.46
312.649	3.64
312.862	3.59
313.074	3.28
313.286	3.61
313.498	3.31
313.71	3.35
313.922	3.33
314.134	3.22
314.346	2.94
314.558	2.99
314.77	2.96
314.982	3.08
315.193	3.3
315.405	3.55
315.617	3.26
315.829	3.38
316.041	3.48
316.253	3.07
316.465	3.61
316.677	3.64
316.888	3.71
317.1	3.68
317.312	3.87
317.524	3.67
317.736	3.85
317.947	4.14
318.159	4.88
318.371	4.94
318.583	5.11
318.794	5.06
319.006	5.27
319.218	5.26
319.43	4.84
319.641	5.12
319.853	5.52
320.064	5.32
320.276	5.32
320.488	5.15
320.699	4.84
320.911	4.96
321.123	4.64
321.334	4.19
321.546	4.52
321.757	5.04
321.969	4.31
322.18	4.37
322.392	4.63
322.603	4.55
322.815	4.46
323.026	5.15
323.238	5.07
323.449	5.21
323.661	5.33
323.872	5.29
324.083	5.34
324.295	5.98
324.506	6.04
324.718	6.16
324.929	6.23
325.14	6.53
325.352	6.67
325.563	6.97
325.774	6.62
325.986	7.47
326.197	8.06
326.408	8.7
326.62	8.82
326.831	9.04
327.042	9.67
327.253	10.19
327.464	10.64
327.676	10.88
327.887	11.72
328.098	12.63
328.309	12.72
328.52	12.92
328.732	13.31
328.943	14.25
329.154	14.71
329.365	14.61
329.576	14.72
329.787	14.88
329.998	15
330.209	14.87
330.42	15.54
330.631	16.49
330.842	16.69
331.053	17.22
331.264	17.04
331.475	16.84
331.686	17.28
331.897	17.73
332.108	18.2
332.319	18.87
332.53	19.23
332.741	19.52
332.952	19.5
333.163	19.27
333.374	18.95
333.585	19.19
333.795	19.72
334.006	19.9
334.217	20.49
334.428	20.8
334.639	20.98
334.849	20.94
335.06	21.01
335.271	21.28
335.482	21.57
335.692	21.88
335.903	21.96
336.114	22.57
336.325	22.65
336.535	22.37
336.746	22.48
336.957	22.61
337.167	22.82
337.378	22.69
337.589	22.63
337.799	22.71
338.01	22.95
338.22	23.14
338.431	22.71
338.642	22.68
338.852	22.63
339.063	22.71
339.273	22.68
339.484	22.77
339.694	22.59
339.905	22.5
340.115	22.62
340.326	22.61
340.536	22.61
340.746	22.82
340.957	23.11
341.167	23.29
341.378	23.08
341.588	23.14
341.799	22.94
342.009	22.97
342.219	23.1
342.43	23.08
342.64	22.99
342.85	22.87
343.061	22.88
343.271	22.52
343.481	22.44
343.691	22.33
343.902	22.37
344.112	22.53
344.322	22.59
344.532	22.64
344.743	22.75
344.953	22.45
345.163	22.58
345.373	22.52
345.583	22.55
345.793	22.65
346.004	22.81
346.214	22.44
346.424	22.59
346.634	22.93
346.844	22.67
347.054	22.65
347.264	22.89
347.474	23.08
347.684	22.96
347.894	23.2
348.104	23.11
348.314	23.03
348.524	23.27
348.734	23.13
348.944	23.08
349.154	23.45
349.364	23.31
349.574	23.31
349.784	23.14
349.994	23.62
350.204	23.79
350.413	23.57
350.623	23.5
350.833	23.24
351.043	23.36
351.253	23.06
351.463	23.19
351.672	23.1
351.882	23.44
352.092	23.14
352.302	23.01
352.511	22.88
352.721	23.22
352.931	23.42
353.141	23.36
353.35	23.11
353.56	23.22
353.77	22.77
353.979	23.03
354.189	22.52
354.399	22.62
354.608	22.36
354.818	22.43
355.027	22.37
355.237	22.21
355.447	22.35
355.656	22.37
355.866	22.28
356.075	22.34
356.285	22.15
356.494	22.37
356.704	22.6
356.913	22.77
357.123	22.71
357.332	22.57
357.542	22.68
357.751	22.64
357.96	22.7
358.17	22.64
358.379	22.39
358.589	22.39
358.798	22.32
359.007	22.08
359.217	21.93
359.426	21.98
359.635	22.01
359.845	21.86
360.054	21.64
360.263	21.59
360.472	21.72
360.682	21.94
360.891	21.9
361.1	21.87
361.309	21.86
361.519	21.87
361.728	21.82
361.937	21.77
362.146	21.77
362.355	21.95
362.564	21.77
362.774	21.65
362.983	21.45
363.192	21.41
363.401	21.38
363.61	21.41
363.819	21.4
364.028	21.03
364.237	21.13
364.446	20.98
364.655	20.91
364.864	21.12
365.073	21.19
365.282	21.49
365.491	21.5
365.7	21.59
365.909	21.66
366.118	21.75
366.327	21.98
366.536	21.72
366.745	21.78
366.954	21.64
367.162	21.58
367.371	21.51
367.58	21.34
367.789	21.32
367.998	21.07
368.207	20.8
368.415	20.48
368.624	20.33
368.833	20.46
369.042	20.79
369.25	20.97
369.459	20.81
369.668	20.75
369.877	20.55
370.085	20.69
370.294	21.03
370.503	21.25
370.711	21.26
370.92	21.46
371.129	21.39
371.337	20.89
371.546	21.02
371.754	21.15
371.963	21.25
372.171	21.56
372.38	21.41
372.589	21.35
372.797	21.26
373.006	21.25
373.214	20.83
373.423	21.01
373.631	21.33
373.84	21.13
374.048	21.16
374.256	21.32
374.465	21.22
374.673	21.25
374.882	21.09
375.09	21.18
375.298	21.74
375.507	22.11
375.715	21.85
375.923	21.75
376.132	21.54
376.34	21.44
376.548	21.46
376.757	21.46
376.965	21.49
377.173	21.47
377.381	21.45
377.59	21.33
377.798	21.28
378.006	21.51
378.214	21.53
378.423	21.66
378.631	21.71
378.839	21.35
379.047	21.32
379.255	21.49
379.463	21.54
379.671	21.24
379.879	20.99
380.088	20.92
380.296	20.8
380.504	20.59
380.712	20.75
380.92	20.64
381.128	20.75
381.336	20.63
381.544	20.39
381.752	20.3
381.96	20.63
382.168	20.75
382.376	20.97
382.584	21.05
382.791	21.14
382.999	21.17
383.207	21.38
383.415	21.39
383.623	21.51
383.831	21.67
384.039	21.71
384.247	21.63
384.454	21.57
384.662	21.49
384.87	21.36
385.078	21.31
385.285	21.16
385.493	21.08
385.701	21.22
385.909	21.2
386.116	21.15
386.324	21.15
386.532	21.18
386.739	21.21
386.947	21.14
387.155	21.26
387.362	21.56
387.57	21.48
387.778	21.79
387.985	21.75
388.193	21.89
388.4	21.82
388.608	22
388.816	22.13
389.023	22
389.231	21.92
389.438	21.79
389.646	21.59
389.853	21.87
390.061	21.64
390.268	21.6
390.475	21.32
390.683	21.3
390.89	21.13
391.098	21.07
391.305	21.15
391.512	21.17
391.72	21.13
391.927	21.35
392.135	21.33
392.342	21.38
392.549	21.46
392.756	21.55
392.964	21.59
393.171	21.75
393.378	21.63
393.586	21.73
393.793	21.77
394	21.98
394.207	21.98
394.414	21.86
394.622	21.82
394.829	21.88
395.036	21.92
395.243	21.96
395.45	21.81
395.657	21.82
395.864	21.75
396.072	21.84
396.279	21.86
396.486	21.83
396.693	22.06
396.9	21.96
397.107	21.88
397.314	22.1
397.521	22.21
397.728	22.23
397.935	22.52
398.142	22.62
398.349	22.81
398.556	22.75
398.763	22.67
398.97	22.51
399.177	22.56
399.383	22.65
399.59	22.56
399.797	22.42
400.004	22.5
400.211	22.32
400.418	22.27
400.625	22.29
400.831	22.26
401.038	22.35
401.245	22.54
401.452	22.82
401.658	22.75
401.865	22.86
402.072	23.03
402.279	23.2
402.485	23.3
402.692	23.32
402.899	23.17
403.105	23.4
403.312	23.26
403.519	23.24
403.725	23.29
403.932	23.35
404.138	23.52
404.345	23.55
404.552	23.49
404.758	23.45
404.965	23.31
405.171	23.41
405.378	23.38
405.584	23.58
405.791	23.64
405.997	23.38
406.204	23.54
406.41	23.38
406.617	23.47
406.823	23.58
407.029	23.72
407.236	23.86
407.442	23.78
407.649	23.78
407.855	23.75
408.061	23.86
408.268	24.12
408.474	24.05
408.68	24.13
408.887	24.08
409.093	24.04
409.299	24.18
409.505	24.18
409.712	24.4
409.918	24.39
410.124	24.67
410.33	24.68
410.537	24.66
410.743	24.64
410.949	24.62
411.155	24.68
411.361	24.73
411.567	24.82
411.773	25
411.98	24.89
412.186	24.94
412.392	24.89
412.598	24.91
412.804	25.09
413.01	25.14
413.216	25.27
413.422	25.21
413.628	25.29
413.834	25.06
414.04	25.12
414.246	25.2
414.452	25.27
414.658	25.36
414.864	25.42
415.07	25.52
415.275	25.73
415.481	25.66
415.687	25.79
415.893	25.89
416.099	26.13
416.305	26.13
416.511	26.22
416.716	26.21
416.922	26.18
417.128	26.22
417.334	26.14
417.539	26.17
417.745	26.28
417.951	26.35
418.157	26.39
418.362	26.36
418.568	26.42
418.774	26.47
418.979	26.65
419.185	26.71
419.391	26.73
419.596	26.85
419.802	26.8
420.008	26.8
420.213	26.92
420.419	26.99
420.624	27.07
420.83	27.14
421.035	27.14
421.241	27.09
421.446	27.15
421.652	27.24
421.857	27.3
422.063	27.45
422.268	27.62
422.474	27.59
422.679	27.61
422.885	27.64
423.09	27.71
423.295	27.73
423.501	27.84
423.706	27.82
423.911	27.87
424.117	27.81
424.322	27.78
424.527	27.65
424.733	27.77
424.938	27.84
425.143	27.85
425.349	27.86
425.554	27.94
425.759	27.88
425.964	27.89
426.169	27.9
426.375	28.01
426.58	28.07
426.785	28.21
426.99	28.12
427.195	28.1
427.4	28.12
427.605	28.19
427.811	28.18
428.016	28.28
428.221	28.36
428.426	28.33
428.631	28.26
428.836	28.25
429.041	28.23
429.246	28.24
429.451	28.33
429.656	28.51
429.861	28.48
430.066	28.6
430.271	28.58
430.476	28.6
430.681	28.72
430.886	28.74
431.09	28.83
431.295	29.06
431.5	29.22
431.705	29.28
431.91	29.18
432.115	29.15
432.32	29.28
432.524	29.48
432.729	29.55
432.934	29.57
433.139	29.7
433.343	29.68
433.548	29.62
433.753	29.68
433.958	29.65
434.162	29.79
434.367	29.93
434.572	29.92
434.776	29.83
434.981	29.9
435.186	29.96
435.39	29.98
435.595	30.04
435.799	30.06
436.004	30.09
436.209	30.2
436.413	30.28
436.618	30.24
436.822	30.22
437.027	30.31
437.231	30.19
437.436	30.25
437.64	30.27
437.845	30.35
438.049	30.4
438.253	30.31
438.458	30.33
438.662	30.22
438.867	30.39
439.071	30.39
439.275	30.4
439.48	30.51
439.684	30.53
439.888	30.58
440.093	30.59
440.297	30.64
440.501	30.67
440.706	30.71
440.91	30.83
441.114	30.74
441.318	30.74
441.523	30.72
441.727	30.74
441.931	30.71
442.135	30.73
442.339	30.8
442.543	30.81
442.748	30.83
442.952	30.77
443.156	30.7
443.36	30.79
443.564	30.79
443.768	30.97
443.972	30.94
444.176	30.96
444.38	31
444.584	31.06
444.788	31.13
444.992	31.19
445.196	31.17
445.4	31.33
445.604	31.31
445.808	31.43
446.012	31.33
446.216	31.42
446.42	31.38
446.624	31.27
446.828	31.26
447.032	31.12
447.235	31.09
447.439	31.11
447.643	30.98
447.847	30.99
448.051	30.93
448.254	30.95
448.458	30.91
448.662	30.95
448.866	31.11
449.069	31.06
449.273	31.08
449.477	31.25
449.681	31.17
449.884	31.21
450.088	31.19
450.292	31.22
450.495	31.28
450.699	31.33
450.902	31.41
451.106	31.38
451.31	31.45
451.513	31.7
451.717	31.57
451.92	31.64
452.124	31.66
452.327	31.66
452.531	31.64
452.734	31.72
452.938	31.75
453.141	31.7
453.345	31.71
453.548	31.66
453.752	31.57
453.955	31.64
454.158	31.68
454.362	31.68
454.565	31.69
454.769	31.74
454.972	31.61
455.175	31.59
455.379	31.59
455.582	31.6
455.785	31.56
455.988	31.5
456.192	31.52
456.395	31.54
456.598	31.62
456.801	31.7
457.005	31.69
457.208	31.67
457.411	31.67
457.614	31.66
457.817	31.66
458.021	31.76
458.224	31.78
458.427	31.75
458.63	31.74
458.833	31.77
459.036	31.69
459.239	31.66
459.442	31.69
459.645	31.64
459.848	31.69
460.051	31.69
460.254	31.65
460.457	31.61
460.66	31.56
460.863	31.58
461.066	31.52
461.269	31.62
461.472	31.62
461.675	31.62
461.878	31.67
462.081	31.64
462.284	31.67
462.486	31.67
462.689	31.77
462.892	31.84
463.095	31.87
463.298	31.99
463.5	31.96
463.703	32
463.906	32.03
464.109	31.99
464.311	31.95
464.514	31.91
464.717	31.88
464.92	31.93
465.122	31.89
465.325	31.93
465.528	31.86
465.73	31.88
465.933	31.92
466.135	32.02
466.338	32.17
466.541	32.17
466.743	32.17
466.946	32.25
467.148	32.13
467.351	32.08
467.553	32.03
467.756	32.03
467.958	31.96
468.161	31.84
468.363	31.75
468.566	31.72
468.768	31.68
468.971	31.66
469.173	31.65
469.375	31.66
469.578	31.65
469.78	31.62
469.983	31.63
470.185	31.52
470.387	31.63
470.59	31.66
470.792	31.65
470.994	31.7
471.196	31.77
471.399	31.89
471.601	31.95
471.803	32.01
472.005	32.03
472.208	32
472.41	32.22
472.612	32.15
472.814	32.14
473.016	32.11
473.218	32.03
473.421	31.92
473.623	31.78
473.825	31.71
474.027	31.81
474.229	31.86
474.431	31.82
474.633	31.77
474.835	31.78
475.037	31.84
475.239	31.85
475.441	31.98
475.643	32.06
475.845	32.06
476.047	32.04
476.249	32.04
476.451	32.01
476.653	32.03
476.855	31.99
477.057	32.03
477.258	32.05
477.46	32.04
477.662	32.04
477.864	32.11
478.066	32.06
478.268	32.14
478.469	32.11
478.671	32.04
478.873	32.06
479.075	32
479.276	32.04
479.478	31.99
479.68	32
479.882	32.02
480.083	32.03
480.285	32.09
480.487	32.07
480.688	32.05
480.89	32.2
481.091	32.26
481.293	32.27
481.495	32.28
481.696	32.29
481.898	32.25
482.099	32.21
482.301	32.2
482.502	32.2
482.704	32.21
482.905	32.17
483.107	32.11
483.308	32.1
483.51	32.12
483.711	32.08
483.913	32.07
484.114	32.03
484.315	32.05
484.517	32.02
484.718	31.99
484.92	31.97
485.121	31.96
485.322	32
485.524	31.99
485.725	31.99
485.926	31.99
486.127	32
486.329	32.03
486.53	32.04
486.731	32.06
486.932	32.08
487.134	32.06
487.335	32.1
487.536	32.06
487.737	32.06
487.938	32.03
488.139	32.1
488.341	32.14
488.542	32.14
488.743	32.15
488.944	32.16
489.145	32.15
489.346	32.21
489.547	32.22
489.748	32.24
489.949	32.22
490.15	32.24
490.351	32.2
490.552	32.16
490.753	32.17
490.954	32.18
491.155	32.19
491.356	32.22
491.557	32.18
491.758	32.17
491.959	32.18
492.159	32.26
492.36	32.22
492.561	32.26
492.762	32.24
492.963	32.26
493.164	32.26
493.364	32.25
493.565	32.23
493.766	32.3
493.967	32.3
494.167	32.29
494.368	32.21
494.569	32.38
494.769	32.36
494.97	32.46
495.171	32.44
495.371	32.43
495.572	32.53
495.773	32.57
495.973	32.58
496.174	32.55
496.375	32.56
496.575	32.66
496.776	32.67
496.976	32.7
497.177	32.61
497.377	32.7
497.578	32.68
497.778	32.69
497.979	32.71
498.179	32.67
498.38	32.79
498.58	32.86
498.78	32.76
498.981	32.69
499.181	32.58
499.382	32.62
499.582	32.53
499.782	32.61
499.983	32.51
500.183	32.5
500.383	32.44
500.584	32.35
500.784	32.25
500.984	32.36
501.184	32.42
501.385	32.53
501.585	32.6
501.785	32.69
501.985	32.67
502.185	32.76
502.386	32.82
502.586	32.96
502.786	33
502.986	33.04
503.186	33.04
503.386	32.95
503.586	32.99
503.786	33
503.987	32.95
504.187	32.99
504.387	33.03
504.587	32.98
504.787	33.03
504.987	33.12
505.187	33.24
505.387	33.28
505.587	33.4
505.786	33.39
505.986	33.28
506.186	33.27
506.386	33.25
506.586	33.22
506.786	33.34
506.986	33.37
507.186	33.29
507.386	33.21
507.585	33.16
507.785	33.15
507.985	33.22
508.185	33.39
508.384	33.47
508.584	33.39
508.784	33.36
508.984	33.38
509.183	33.26
509.383	33.38
509.583	33.48
509.782	33.44
509.982	33.5
510.182	33.51
510.381	33.53
510.581	33.6
510.781	33.7
510.98	33.71
511.18	33.7
511.379	33.84
511.579	33.8
511.778	33.79
511.978	33.85
512.177	33.83
512.377	33.83
512.576	33.85
512.776	33.83
512.975	33.81
513.175	33.91
513.374	33.83
513.573	33.84
513.773	33.92
513.972	33.86
514.172	33.87
514.371	33.91
514.57	33.93
514.77	33.87
514.969	33.84
515.168	33.91
515.367	33.96
515.567	34.05
515.766	33.98
515.965	33.94
516.164	33.99
516.364	34.05
516.563	34
516.762	33.97
516.961	33.99
517.16	33.96
517.359	34.02
517.559	33.95
517.758	33.99
517.957	34.07
518.156	34.09
518.355	34.1
518.554	34.08
518.753	34.19
518.952	34.21
519.151	34.28
519.35	34.33
519.549	34.27
519.748	34.3
519.947	34.24
520.146	34.27
520.345	34.29
520.544	34.33
520.743	34.37
520.942	34.36
521.141	34.36
521.339	34.27
521.538	34.36
521.737	34.39
521.936	34.44
522.135	34.52
522.333	34.54
522.532	34.53
522.731	34.51
522.93	34.57
523.129	34.56
523.327	34.59
523.526	34.65
523.725	34.68
523.923	34.7
524.122	34.69
524.321	34.68
524.519	34.67
524.718	34.71
524.917	34.71
525.115	34.69
525.314	34.74
525.512	34.74
525.711	34.74
525.909	34.71
526.108	34.74
526.306	34.72
526.505	34.8
526.703	34.68
526.902	34.67
527.1	34.71
527.299	34.71
527.497	34.7
527.696	34.7
527.894	34.7
528.092	34.72
528.291	34.68
528.489	34.71
528.688	34.67
528.886	34.72
529.084	34.68
529.283	34.65
529.481	34.67
529.679	34.68
529.877	34.65
530.076	34.68
530.274	34.69
530.472	34.75
530.67	34.75
530.869	34.78
531.067	34.83
531.265	34.89
531.463	34.94
531.661	34.96
531.859	34.95
532.057	35.02
532.255	35.06
532.454	35.03
532.652	35
532.85	35
533.048	35
533.246	35.02
533.444	35.05
533.642	35.08
533.84	35.09
534.038	35.11
534.236	35.11
534.434	35.09
534.632	35.1
534.83	35.15
535.027	35.2
535.225	35.23
535.423	35.29
535.621	35.29
535.819	35.31
536.017	35.29
536.215	35.29
536.412	35.35
536.61	35.42
536.808	35.44
537.006	35.48
537.203	35.51
537.401	35.54
537.599	35.49
537.797	35.51
537.994	35.49
538.192	35.57
538.39	35.67
538.587	35.63
538.785	35.65
538.983	35.79
539.18	35.83
539.378	35.91
539.575	35.95
539.773	36
539.97	36.05
540.168	36.14
540.366	36.11
540.563	36.14
540.761	36.2
540.958	36.23
541.155	36.17
541.353	36.14
541.55	36.1
541.748	36.1
541.945	36.09
542.143	36.04
542.34	36.02
542.537	36.06
542.735	35.99
542.932	35.98
543.129	35.95
543.327	35.99
543.524	36.01
543.721	36.12
543.919	36.2
544.116	36.36
544.313	36.58
544.51	36.69
544.708	36.77
544.905	36.96
545.102	37.09
545.299	37.13
545.496	37.26
545.693	37.38
545.891	37.26
546.088	37.21
546.285	37.17
546.482	37.14
546.679	37.03
546.876	37.01
547.073	36.91
547.27	36.83
547.467	36.82
547.664	36.74
547.861	36.59
548.058	36.67
548.255	36.68
548.452	36.56
548.649	36.54
548.846	36.61
549.043	36.54
549.24	36.56
549.437	36.54
549.633	36.52
549.83	36.54
550.027	36.61
550.224	36.72
550.421	36.83
550.618	36.9
550.814	36.82
551.011	36.81
551.208	36.86
551.405	36.81
551.601	36.91
551.798	36.98
551.995	36.92
552.191	36.87
552.388	36.8
552.585	36.72
552.781	36.69
552.978	36.65
553.175	36.6
553.371	36.53
553.568	36.54
553.764	36.59
553.961	36.56
554.157	36.53
554.354	36.49
554.55	36.48
554.747	36.5
554.943	36.52
555.14	36.56
555.336	36.57
555.533	36.67
555.729	36.71
555.926	36.5
556.122	36.5
556.318	36.58
556.515	36.6
556.711	36.58
556.907	36.49
557.104	36.49
557.3	36.52
557.496	36.46
557.693	36.39
557.889	36.37
558.085	36.38
558.281	36.38
558.478	36.46
558.674	36.5
558.87	36.49
559.066	36.63
559.262	36.52
559.459	36.44
559.655	36.5
559.851	36.48
560.047	36.52
560.243	36.48
560.439	36.49
560.635	36.43
560.831	36.48
561.027	36.63
561.223	36.55
561.419	36.6
561.615	36.66
561.811	36.75
562.007	36.8
562.203	36.96
562.399	37.05
562.595	37.1
562.791	37.11
562.987	37.05
563.183	36.94
563.379	36.95
563.575	36.9
563.771	36.92
563.966	36.87
564.162	37.02
564.358	36.87
564.554	36.82
564.75	36.75
564.945	36.78
565.141	36.81
565.337	36.74
565.533	36.76
565.728	36.81
565.924	36.86
566.12	36.94
566.315	36.86
566.511	36.93
566.707	36.97
566.902	37.07
567.098	37.03
567.293	37.03
567.489	37.12
567.684	37.07
567.88	36.99
568.076	36.95
568.271	37.03
568.467	37.05
568.662	36.87
568.858	36.85
569.053	36.78
569.248	36.86
569.444	36.94
569.639	37
569.835	37.05
570.03	37.13
570.225	37.13
570.421	37.08
570.616	36.99
570.812	37.13
571.007	37.14
571.202	37.13
571.397	37.04
571.593	37.01
571.788	36.94
571.983	36.91
572.178	36.93
572.374	37.04
572.569	36.93
572.764	37
572.959	36.95
573.154	36.98
573.35	37.02
573.545	37.13
573.74	37.16
573.935	37.2
574.13	37.13
574.325	37.17
574.52	37.08
574.715	37.19
574.91	37.11
575.105	37.16
575.3	37.22
575.495	37.3
575.69	37.33
575.885	37.37
576.08	37.41
576.275	37.47
576.47	37.48
576.665	37.53
576.86	37.46
577.055	37.52
577.25	37.51
577.444	37.51
577.639	37.41
577.834	37.37
578.029	37.31
578.224	37.36
578.418	37.5
578.613	37.64
578.808	37.53
579.003	37.7
579.197	37.74
579.392	37.79
579.587	37.95
579.781	38.11
579.976	38.12
580.171	38.21
580.365	38.14
580.56	38.2
580.755	38.23
580.949	38.24
581.144	38.22
581.338	38.35
581.533	38.37
581.727	38.25
581.922	38.23
582.116	38.09
582.311	37.9
582.505	37.97
582.7	37.98
582.894	37.97
583.089	38.05
583.283	38.09
583.478	38.03
583.672	38.04
583.866	38.1
584.061	38.32
584.255	38.47
584.449	38.76
584.644	38.66
584.838	38.82
585.032	38.98
585.226	39.14
585.421	38.99
585.615	39.01
585.809	39.07
586.003	39.2
586.198	39.05
586.392	39.18
586.586	39.16
586.78	39.34
586.974	39.09
587.168	38.91
587.363	38.72
587.557	38.91
587.751	38.86
587.945	38.97
588.139	38.95
588.333	39.01
588.527	38.88
588.721	38.75
588.915	38.71
589.109	38.77
589.303	38.71
589.497	38.84
589.691	38.72
589.885	38.87
590.079	38.85
590.273	38.8
590.466	38.67
590.66	38.81
590.854	38.95
591.048	38.94
591.242	39.04
591.436	39.16
591.629	39.23
591.823	39.41
592.017	39.45
592.211	39.52
592.404	39.53
592.598	39.54
592.792	39.53
592.986	39.53
593.179	39.73
593.373	39.81
593.567	39.93
593.76	39.89
593.954	39.91
594.147	39.97
594.341	39.69
594.535	39.74
594.728	39.85
594.922	39.84
595.115	39.76
595.309	39.54
595.502	39.4
595.696	39.15
595.889	39.2
596.083	39.14
596.276	38.96
596.47	39.29
596.663	39.23
596.856	39.14
597.05	39.12
597.243	39.18
597.437	39.29
597.63	39.32
597.823	39.57
598.017	39.55
598.21	39.55
598.403	39.65
598.596	39.42
598.79	39.5
598.983	39.61
599.176	39.62
599.369	39.74
599.563	39.82
599.756	39.94
599.949	39.88
600.142	40.01
600.335	40.15
600.528	40.33
600.722	40.48
600.915	40.51
601.108	40.47
601.301	40.45
601.494	40.33
601.687	40.29
601.88	40.21
602.073	40.31
602.266	40.19
602.459	40.04
602.652	39.93
602.845	39.9
603.038	39.88
603.231	39.93
603.424	39.95
603.617	39.98
603.809	39.88
604.002	39.97
604.195	39.9
604.388	39.89
604.581	39.94
604.774	40.1
604.966	40.01
605.159	40.01
605.352	40.02
605.545	40.18
605.737	40.18
605.93	40.23
606.123	40.18
606.316	40.24
606.508	40.41
606.701	40.63
606.894	40.51
607.086	40.67
607.279	40.86
607.471	40.95
607.664	41.03
607.857	41.14
608.049	41.48
608.242	41.91
608.434	42.07
608.627	42.49
608.819	42.86
609.012	43.47
609.204	44.16
609.397	44.77
609.589	45.51
609.782	46.33
609.974	47.37
610.166	48.1
610.359	48.85
610.551	49.6
610.743	50.2
610.936	50.8
611.128	51.23
611.32	51.6
611.513	51.94
611.705	52.2
611.897	52.01
612.09	51.65
612.282	51.58
612.474	51.17
612.666	50.88
612.858	50.48
613.051	49.95
613.243	49.57
613.435	49.06
613.627	48.41
613.819	47.91
614.011	47.64
614.203	47.29
614.395	46.98
614.588	46.64
614.78	46.41
614.972	46.1
615.164	45.79
615.356	45.6
615.548	45.18
615.74	44.9
615.932	44.66
616.124	44.24
616.315	44.11
616.507	43.53
616.699	43.29
616.891	42.96
617.083	42.72
617.275	42.62
617.467	42.48
617.659	42.63
617.85	42.6
618.042	42.55
618.234	42.73
618.426	42.8
618.618	42.8
618.809	42.73
619.001	42.84
619.193	42.79
619.384	42.81
619.576	42.72
619.768	42.71
619.959	42.8
620.151	42.49
620.343	42.43
620.534	42.32
620.726	42.6
620.917	42.59
621.109	42.77
621.301	42.94
621.492	42.96
621.684	43.01
621.875	42.79
622.067	42.51
622.258	42.82
622.45	42.85
622.641	42.77
622.832	42.78
623.024	42.94
623.215	42.9
623.407	42.79
623.598	42.67
623.789	42.71
623.981	43.02
624.172	43.47
624.363	43.5
624.555	43.48
624.746	43.62
624.937	43.43
625.129	43.34
625.32	43.31
625.511	43.27
625.702	43.49
625.893	43.56
626.085	43.3
626.276	43.1
626.467	43.17
626.658	43.12
626.849	43.01
627.04	43.09
627.231	43.19
627.422	43.15
627.614	43.28
627.805	43.28
627.996	43.16
628.187	43.34
628.378	43.53
628.569	43.47
628.76	43.62
628.951	43.74
629.142	43.83
629.332	43.9
629.523	43.9
629.714	43.94
629.905	44.01
630.096	44.08
630.287	44.05
630.478	43.88
630.669	43.81
630.859	43.62
631.05	43.69
631.241	43.69
631.432	43.61
631.623	43.66
631.813	43.66
632.004	43.44
632.195	43.44
632.385	43.49
632.576	43.6
632.767	43.56
632.957	43.67
633.148	43.52
633.339	43.35
633.529	43.3
633.72	43.27
633.91	43.22
634.101	43.13
634.292	42.96
634.482	42.9
634.673	42.8
634.863	42.79
635.054	42.74
635.244	42.6
635.435	42.7
635.625	42.67
635.815	42.65
636.006	42.51
636.196	42.71
636.387	42.76
636.577	42.65
636.767	42.75
636.958	42.71
637.148	42.53
637.338	42.65
637.529	42.72
637.719	42.77
637.909	42.55
638.099	42.75
638.29	42.75
638.48	42.84
638.67	43.06
638.86	43
639.05	43.16
639.241	43.5
639.431	43.71
639.621	43.72
639.811	43.62
640.001	43.9
640.191	43.97
640.381	44.21
640.571	44.21
640.761	44.03
640.951	43.82
641.141	44.01
641.331	43.86
641.521	43.83
641.711	43.92
641.901	44.11
642.091	44.14
642.281	43.99
642.471	43.84
642.661	43.84
642.851	43.93
643.041	44.28
643.231	44.13
643.42	44.29
643.61	44.17
643.8	44.08
643.99	44.06
644.18	43.92
644.369	44.04
644.559	43.98
644.749	43.96
644.939	43.94
645.128	43.91
645.318	43.95
645.508	43.76
645.697	44.04
645.887	43.91
646.076	43.94
646.266	44.01
646.456	43.97
646.645	43.92
646.835	44.09
647.024	44.18
647.214	44.07
647.403	44.15
647.593	44.38
647.782	44.06
647.972	44.4
648.161	44.37
648.351	44.47
648.54	44.65
648.73	44.82
648.919	44.87
649.108	44.8
649.298	44.95
649.487	44.85
649.677	44.7
649.866	44.85
650.055	44.75
650.244	44.88
650.434	45.11
650.623	44.97
650.812	44.84
651.002	44.69
651.191	45.08
651.38	45.03
651.569	45.03
651.758	45.25
651.947	45.22
652.137	45.25
652.326	45.13
652.515	44.81
652.704	44.98
652.893	45.34
653.082	45.56
653.271	45.33
653.46	45.38
653.649	45.34
653.838	45.42
654.027	45.58
654.216	45.39
654.405	45.42
654.594	45.49
654.783	45.4
654.972	45.11
655.161	45.02
655.35	44.89
655.539	45.02
655.728	45.07
655.916	44.89
656.105	44.41
656.294	44.66
656.483	44.98
656.672	44.97
656.86	44.84
657.049	44.89
657.238	44.9
657.427	45.11
657.615	44.84
657.804	44.81
657.993	44.74
658.181	44.98
658.37	44.95
658.559	44.78
658.747	44.83
658.936	45.04
659.125	44.94
659.313	45.15
659.502	45.07
659.69	45.06
659.879	45.13
660.067	45.17
660.256	45.28
660.444	45.18
660.633	45.21
660.821	45.34
661.01	45.32
661.198	45.5
661.387	45.21
661.575	45.37
661.763	45.77
661.952	45.93
662.14	46.1
662.328	46.11
662.517	46.35
662.705	46.54
662.893	46.47
663.082	46.41
663.27	46.36
663.458	46.76
663.646	46.67
663.834	46.64
664.023	46.64
664.211	46.58
664.399	46.76
664.587	46.5
664.775	46.53
664.963	46.73
665.152	46.84
665.34	46.87
665.528	46.43
665.716	46.3
665.904	46.22
666.092	46.2
666.28	46.15
666.468	46.08
666.656	46.46
666.844	46.23
667.032	45.98
667.22	45.97
667.408	46.01
667.596	46.36
667.784	46.62
667.971	46.61
668.159	46.58
668.347	46.64
668.535	46.63
668.723	46.52
668.911	46.93
669.098	46.96
669.286	47.07
669.474	47.03
669.662	46.77
669.849	46.93
670.037	46.89
670.225	47.05
670.413	47.09
670.6	47.32
670.788	47.29
670.976	47.08
671.163	47.38
671.351	47.38
671.538	47.55
671.726	47.63
671.913	47.44
672.101	47.67
672.289	47.7
672.476	47.74
672.664	47.58
672.851	47.84
673.039	47.74
673.226	47.6
673.413	47.54
673.601	47.33
673.788	47.36
673.976	47.29
674.163	47.12
674.35	46.91
674.538	47.01
674.725	47.17
674.912	47
675.1	47.17
675.287	47.35
675.474	47.47
675.662	47.72
675.849	47.79
676.036	48.1
676.223	48.32
676.411	48.76
676.598	48.76
676.785	48.8
676.972	48.98
677.159	48.85
677.346	48.96
677.533	48.93
677.721	49.06
677.908	49.06
678.095	48.78
678.282	48.74
678.469	48.04
678.656	48.05
678.843	48.31
679.03	48.17
679.217	48.21
679.404	47.98
679.591	48.12
679.778	47.88
679.964	47.9
680.151	47.93
680.338	48
680.525	48.37
680.712	48.31
680.899	48.21
681.086	48.05
681.272	47.9
681.459	48.21
681.646	48.13
681.833	48.11
682.02	48.15
682.206	48.13
682.393	47.79
682.58	47.75
682.766	47.78
682.953	47.67
683.14	48.06
683.326	48.42
683.513	48.23
683.7	48.29
683.886	48.45
684.073	48.45
684.259	48.63
684.446	48.85
684.632	49.16
684.819	49.29
685.005	49.42
685.192	49.1
685.378	49.06
685.565	49.27
685.751	49.2
685.938	49.06
686.124	49.42
686.31	49.02
686.497	49.16
686.683	49
686.87	49.01
687.056	48.93
687.242	48.89
687.429	48.93
687.615	48.74
687.801	49.08
687.987	49.27
688.174	48.93
688.36	49.25
688.546	49.07
688.732	49.15
688.918	49.17
689.105	49.02
689.291	49.06
689.477	49.03
689.663	48.99
689.849	48.71
690.035	48.54
690.221	48.77
690.407	48.87
690.593	48.97
690.779	49.01
690.965	48.99
691.151	49.07
691.337	49.26
691.523	49.23
691.709	49.4
691.895	49.63
692.081	49.59
692.267	49.43
692.453	49.51
692.639	49.68
692.825	49.83
693.011	49.82
693.196	50.12
693.382	50.2
693.568	50.31
693.754	50.42
693.94	50.46
694.125	50.73
694.311	50.71
694.497	50.52
694.682	50.37
694.868	49.96
695.054	49.81
695.239	49.66
695.425	49.91
695.611	49.85
695.796	49.74
695.982	49.44
696.168	49.49
696.353	49.55
696.539	49.72
696.724	49.88
696.91	50.13
697.095	50.11
697.281	50.28
697.466	50.13
697.652	49.93
697.837	49.95
698.023	49.95
698.208	49.82
698.393	49.72
698.579	49.66
698.764	49.56
698.949	49.37
699.135	49.4
699.32	49.29
699.505	49.17
699.691	49.26
699.876	49.05
700.061	49
700.246	48.83
700.432	48.96
700.617	48.97
700.802	48.98
700.987	49.32
701.172	49.42
701.358	49.42
701.543	49.37
701.728	49.49
701.913	49.87
702.098	49.9
702.283	50.28
702.468	50.3
702.653	50.45
702.838	50.8
703.023	50.85
703.208	51.1
703.393	50.83
703.578	51.29
703.763	51.19
703.948	51.19
704.133	51.81
704.318	52.12
704.503	52.39
704.688	52.48
704.873	52.45
705.057	52.58
705.242	52.73
705.427	53.26
705.612	53.21
705.797	53.8
705.981	53.96
706.166	53.7
706.351	53.74
706.536	54
706.72	54.05
706.905	54.27
707.09	54.28
707.274	54.25
707.459	54.33
707.644	54.62
707.828	54.52
708.013	54.72
708.197	54.81
708.382	54.67
708.567	54.43
708.751	54.48
708.936	54.42
709.12	54.73
709.305	54.78
709.489	54.62
709.673	54.3
709.858	54.14
710.042	53.89
710.227	54.13
710.411	54.28
710.596	54.15
710.78	54.26
710.964	54.49
711.149	53.92
711.333	53.82
711.517	53.78
711.702	53.77
711.886	54.05
712.07	54.05
712.254	53.69
712.438	53.73
712.623	53.29
712.807	52.83
712.991	52.58
713.175	52.76
713.359	52.77
713.544	52.66
713.728	52.29
713.912	52.07
714.096	52.1
714.28	52.16
714.464	51.79
714.648	51.94
714.832	52
715.016	51.7
715.2	51.62
715.384	51.59
715.568	51.52
715.752	51.91
715.936	52.05
716.12	51.76
716.304	51.6
716.488	51.44
716.671	51.79
716.855	51.95
717.039	51.72
717.223	51.44
717.407	51.39
717.59	51.46
717.774	51.46
717.958	50.95
718.142	51.01
718.325	51.32
718.509	51.5
718.693	51.06
718.877	50.64
719.06	50.71
719.244	50.49
719.428	50.46
719.611	50.21
719.795	50.37
719.978	50.01
720.162	49.8
720.345	49.51
720.529	49.69
720.713	50
720.896	50.58
721.08	51.14
721.263	51.51
721.446	51.35
721.63	51.43
721.813	50.59
721.997	51.03
722.18	51.48
722.364	51.95
722.547	51.73
722.73	51.97
722.914	51.6
723.097	51.4
723.28	51.22
723.464	51.13
723.647	51.37
723.83	51.63
724.013	52.17
724.197	51.71
724.38	50.98
724.563	51.14
724.746	50.84
724.929	50.96
725.112	51.12
725.296	51.68
725.479	51.5
725.662	51.16
725.845	51.33
726.028	51.1
726.211	51.52
726.394	51.78
726.577	51.76
726.76	51.76
726.943	51.7
727.126	51.17
727.309	51.09
727.492	51.43
727.675	51.72
727.858	51.85
728.041	51.68
728.224	51.41
728.407	51.51
728.589	52.04
728.772	52.04
728.955	52.51
729.138	52.43
729.321	51.91
729.503	51.68
729.686	51.78
729.869	52.33
730.052	52.52
730.234	52.99
730.417	52.86
730.6	52.64
730.782	52.59
730.965	51.84
731.148	52.08
731.33	52.27
731.513	52.29
731.695	52.37
731.878	52.07
732.061	52.04
732.243	52.03
732.426	52.02
732.608	51.77
732.791	52.21
732.973	52.58
733.156	52.78
733.338	52.88
733.52	53.26
733.703	53.16
733.885	53.01
734.068	52.93
734.25	52.69
734.432	52.9
734.615	52.8
734.797	52.63
734.979	52.71
735.162	52.37
735.344	52.24
735.526	52.28
735.708	52.35
735.891	52.64
736.073	52.27
736.255	52.36
736.437	52.33
736.619	52.79
736.802	52.99
736.984	52.88
737.166	53.52
737.348	53.9
737.53	53.68
737.712	53.67
737.894	52.86
738.076	53.22
738.258	52.4
738.44	52.15
738.622	51.92
738.804	51.63
738.986	51.81
739.168	51.62
739.35	51.38
739.532	51.31
739.714	51.33
739.896	51.86
740.078	51.92
740.259	52.64
740.441	53
740.623	53.06
740.805	52.58
740.987	52.17
741.168	51.83
741.35	52.01
741.532	52.4
741.714	52.45
741.895	52.84
742.077	52.88
742.259	52.79
742.44	52.42
742.622	52.69
742.804	53.77
742.985	54.29
743.167	54.39
743.348	54.51
743.53	54.42
743.711	54.65
743.893	55
744.075	55.01
744.256	55.56
744.438	55.98
744.619	55.92
744.8	55.69
744.982	55.35
745.163	55.82
745.345	55.36
745.526	55.28
745.707	55.15
745.889	54.48
746.07	54.34
746.252	53.98
746.433	54.01
746.614	54.39
746.795	54.58
746.977	54.97
747.158	54.3
747.339	54.28
747.52	54.06
747.702	53.91
747.883	54.31
748.064	54.49
748.245	54.7
748.426	54.54
748.607	54.26
748.788	53.78
748.97	53.4
749.151	53.67
749.332	53.85
749.513	54.72
749.694	54.56
749.875	54.19
750.056	53.98
750.237	54.32
750.418	54.63
750.599	54.05
750.78	54.24
750.96	54.43
751.141	54.72
751.322	54.76
751.503	54.68
751.684	54.35
751.865	55.1
752.046	54.44
752.226	53.69
752.407	53.09
752.588	53.39
752.769	52.5
752.949	52.67
753.13	53.12
753.311	53.39
753.492	53.03
753.672	53
753.853	51.92
754.034	52.98
754.214	52.87
754.395	52.98
754.575	53.05
754.756	53.67
754.937	53.06
755.117	52.74
755.298	52.64
755.478	52.94
755.659	53.14
755.839	53.35
756.02	53.04
756.2	53.57
756.381	53.37
756.561	52.88
756.741	53.34
756.922	52.99
757.102	52.22
757.283	51.98
757.463	51.94
757.643	52.36
757.823	52.43
758.004	52.71
758.184	52.31
758.364	52.31
758.545	52.98
758.725	52.3
758.905	52.94
759.085	52.98
759.265	52.4
759.446	51.49
759.626	51.24
759.806	50.56
759.986	50.52
760.166	50.66
760.346	50.19
760.526	49.51
760.706	49.57
760.886	49.46
761.066	50.34
761.246	50.72
761.426	51.17
761.606	51.2
761.786	51.6
761.966	51.48
762.146	51.45
762.326	51.48
762.506	51.99
762.686	51.94
762.866	52.19
763.046	51.61
763.225	51.95
763.405	51.41
763.585	51.35
763.765	51.23
763.945	51.18
764.124	51.34
764.304	52.09
764.484	51.88
764.664	51.68
764.843	51.91
765.023	52.09
765.203	51.82
765.382	52.18
765.562	52.42
765.741	52.72
765.921	52.81
766.101	52.69
766.28	51.99
766.46	52.05
766.639	52.9
766.819	52.72
766.998	52.65
767.178	53.2
767.357	53.53
767.537	53.53
767.716	53.93
767.896	54.01
768.075	53.87
768.254	54.38
768.434	54.97
768.613	54.79
768.792	54.83
768.972	55.27
769.151	55.37
769.33	55.33
769.51	55.61
769.689	55.26
769.868	55.47
770.047	55.92
770.226	56.33
770.406	55.15
770.585	54.83
770.764	54.85
770.943	54.57
771.122	53.67
771.301	54.44
771.48	54.02
771.66	54.06
771.839	53.45
772.018	53.2
772.197	52.84
772.376	53.94
772.555	53.47
772.734	53.1
772.913	53.1
773.092	54.93
773.271	53.38
773.449	53.64
773.628	53.69
773.807	54.35
773.986	54.79
774.165	55.02
774.344	54.92
774.523	55.6
774.701	56.05
774.88	55.23
775.059	53.81
775.238	54.96
775.417	54.73
775.595	54.54
775.774	54.4
775.953	54
776.131	53.73
776.31	53.96
776.489	54.42
776.667	54.03
776.846	55.59
777.025	56.34
777.203	55.48
777.382	55.83
777.56	56
777.739	56.85
777.917	57.24
778.096	56.58
778.274	55.78
778.453	55.18
778.631	55.17
778.81	54.74
778.988	54.22
779.166	54.12
779.345	53.95
779.523	54.26
779.702	52.9
779.88	52.18
780.058	52.18
780.237	52.3
780.415	52.94
780.593	52.98
780.771	52.43
780.95	52.81
781.128	53.15
781.306	52.92
781.484	52
781.662	52.54
781.841	52.61
782.019	52.99
782.197	53.56
782.375	53.21
782.553	53.28
782.731	53.89
782.909	53.36
783.087	53.93
783.265	54.15
783.443	54.11
783.621	53.97
783.799	54.79
783.977	54.72
784.155	54.22
784.333	54.5
784.511	54.22
784.689	54.26
784.867	53.61
785.045	54.02
785.223	53.71
785.4	53.23
785.578	53.96
785.756	53.27
785.934	53.26
786.112	52.34
786.289	52.29
786.467	51.48
786.645	51.87
786.823	52.37
787	52.09
787.178	51.74
787.356	52.69
787.533	51.49
787.711	51.27
787.889	51.8
788.066	52.97
788.244	52.51
788.421	53.92
788.599	52.97
788.776	53.48
788.954	53.67
789.131	53.77
789.309	53.9
789.486	53.94
789.664	53.98
789.841	54.29
790.019	53.59
790.196	53.65
790.373	53.22
790.551	53.84
790.728	53.12
790.906	52.9
791.083	53.45
791.26	53.02
791.437	52.86
791.615	52.93
791.792	52.12
791.969	52.03
792.146	52.08
792.324	52.17
792.501	52.51
792.678	53.04
792.855	52.19
793.032	51.26
793.209	52
793.387	53.04
793.564	53.62
793.741	53.7
793.918	53.35
794.095	53.57
794.272	54.06
794.449	53.22
794.626	53.57
794.803	53.57
794.98	54.07
795.157	53.5
795.334	53.07
795.511	52.6
795.688	52.49
795.864	53.17
796.041	53.27
796.218	52.46
796.395	51.98
796.572	51.46
796.749	51.81
796.925	51.7
797.102	51.15
797.279	49.78
797.456	50.67
797.632	50.94
797.809	50.2
797.986	49.64
798.162	49.76
798.339	50.72
798.516	50.14
798.692	50.96
798.869	51.04
799.046	51.04
799.222	52.23
799.399	51.32
799.575	51.72
799.752	52
799.928	52.76
800.105	52.28
800.281	52.11
800.458	51.95
800.634	51.93
800.811	51.67
800.987	53.25
801.163	53.55
801.34	53.49
801.516	52.28
801.692	51.95
801.869	51.97
802.045	52.88
802.221	52.3
802.398	52.91
802.574	51.49
802.75	52.14
802.926	50.94
803.103	51.48
803.279	51.73
803.455	51.84
803.631	52.09
803.807	51.54
803.983	52.14
804.16	53.58
804.336	54.33
804.512	54.9
804.688	54.73
804.864	54.36
805.04	53.99
805.216	53.27
805.392	55.06
805.568	55.24
805.744	55.72
805.92	53.93
806.096	53.11
806.272	52.78
806.448	53.67
806.623	52.08
806.799	53.66
806.975	53.15
807.151	53.92
807.327	53.26
807.503	53.87
807.678	53.21
807.854	53.72
808.03	53.78
808.206	52.92
808.381	52.55
808.557	53.23
808.733	51.77
808.908	52.57
809.084	51.38
809.26	50.42
809.435	49.24
809.611	49.7
809.787	50.18
809.962	48.89
810.138	48.44
810.313	47.12
810.489	46.64
810.664	45.76
810.84	45.5
811.015	46.68
811.191	47.61
811.366	47.9
811.542	47.36
811.717	46.82
811.892	48.61
812.068	49.08
812.243	49.93
812.419	51.68
812.594	51.89
812.769	50.71
812.944	50.26
813.12	50.73
813.295	51.07
813.47	49.7
813.645	49.15
813.821	49.27
813.996	50.88
814.171	50.98
814.346	49.63
814.521	49.86
814.697	49.23
814.872	48.66
815.047	46.14
815.222	46.19
815.397	46.02
815.572	46.82
815.747	43.19
815.922	42.19
816.097	41.36
816.272	40.35
816.447	41.01
816.622	44.05
816.797	43.92
816.972	45.38
817.147	45.4
817.322	46.72
817.496	47.38
817.671	49.64
817.846	49.07
818.021	49.11
818.196	51.36
818.371	50.56
818.545	48.28
818.72	48.79
818.895	48.12
819.069	48.05
819.244	48.43
819.419	47.09
819.594	45.99
819.768	46.12
819.943	47.28
820.117	46.59
820.292	46.3
820.467	46.92
820.641	46.94
820.816	46.92
820.99	46.55
821.165	45.87
821.339	46.18
821.514	46.15
821.688	45.99
821.863	45.61
822.037	45.67
822.212	46.02
822.386	46.06
822.56	45.89
822.735	45.78
822.909	45.66
823.084	46.01
823.258	45.91
823.432	45.82
823.606	45.96
823.781	45.89
823.955	45.34
824.129	45.11
824.303	44.74
824.478	44.77
824.652	44.86
824.826	45.25
825	44.37
825.174	44.32
825.348	45.05
825.523	44.74
825.697	44.67
825.871	45.49
826.045	45.51
826.219	45.37
826.393	44.97
826.567	45.09
826.741	44.41
826.915	44.93
827.089	44.88
827.263	44.22
827.437	43.83
827.611	43.98
827.784	43.72
827.958	43.03
828.132	43.2
828.306	43.24
828.48	42.88
828.654	42.72
828.827	42.58
829.001	42.45
829.175	42.44
829.349	42.42
829.522	42.37
829.696	42.14
829.87	43.25
830.044	43.98
830.217	43.49
830.391	43.19
830.565	43.88
830.738	43.45
830.912	42.8
831.085	42.41
831.259	43.69
831.432	42.03
831.606	43.78
831.779	42.65
831.953	41.38
832.126	41.32
832.3	41.66
832.473	41.9
832.647	42.17
832.82	42.54
832.994	42.8
833.167	43.21
833.34	43.95
833.514	42.55
833.687	43.22
833.86	42.65
834.034	43.12
834.207	42.94
834.38	42.95
834.553	42.92
834.727	43
834.9	42.65
835.073	41.87
835.246	42.6
835.419	42.81
835.593	42.09
835.766	43.05
835.939	43.51
836.112	44.01
836.285	44.69
836.458	45.25
836.631	44.8
836.804	46.46
836.977	47.72
837.15	47.47
837.323	48.61
837.496	50.72
837.669	51.12
837.842	51.48
838.015	50.3
838.188	48.19
838.361	48.94
838.533	50.26
838.706	49.91
838.879	48.86
839.052	49.27
839.225	48.27
839.398	47.48
839.57	48.08
839.743	46.56
839.916	46.74
840.088	48.91
840.261	47.49
840.434	47.15
840.607	46.26
840.779	46.37
840.952	46.15
841.124	46.12
841.297	46.56
841.47	42.98
841.642	43.55
841.815	44.06
841.987	44.62
842.16	45.3
842.332	44.35
842.505	45.2
842.677	45.23
842.85	44.83
843.022	44.92
843.194	44.05
843.367	46.52
843.539	48.53
843.712	47.84
843.884	48.43
844.056	48.46
844.229	50.07
844.401	50.01
844.573	49.27
844.745	46.73
844.918	45.25
845.09	45.29
845.262	45.63
845.434	43.71
845.606	47.93
845.779	44.88
845.951	46.76
846.123	46.76
846.295	48.43
846.467	48.88
846.639	52.01
846.811	50.35
846.983	49.76
847.155	49.43
847.327	50.07
847.499	45.71
847.671	49.15
847.843	46.13
848.015	46.62
848.187	44.22
848.359	40.18
848.531	40.76
848.703	42.03
848.875	43.17
849.047	39.69
849.218	39.75
849.39	41.62
849.562	38.41
849.734	37.96
849.905	38.16
850.077	39.95
850.249	44.91
850.421	42.1
850.592	45.3
850.764	46.1
850.936	51.27
851.107	48.48
851.279	49.39
851.451	49.37
851.622	49.74
851.794	49.97
851.965	47.28
852.137	41.73
852.308	43.72
852.48	42.36
852.651	41.4
852.823	41.01
852.994	46.35
853.166	44.77
853.337	46.12
853.509	49.25
853.68	47.48
853.851	52.76
854.023	60.8
854.194	59.51
854.365	58.67
854.537	55.89
854.708	58.72
854.879	52.49
855.05	59.69
855.222	54.26
855.393	51.94
855.564	53.38
855.735	45.48
855.906	41.59
856.078	44.43
856.249	49.62
856.42	48.36
856.591	45.65
856.762	48.96
856.933	38.72
857.104	41.03
857.275	44.14
857.446	45.85
857.617	46.05
857.788	48.26
857.959	50.92
858.13	49.17
858.301	53.08
858.472	52.66
858.643	50.18
858.814	55.78
858.985	56.92
859.155	52.82
859.326	52.78
859.497	53.98
859.668	53.35
859.839	51.66
860.009	48.49
860.18	51.12
860.351	49.52
860.522	51.45
860.692	49.94
860.863	48.95
861.034	46.35
861.204	44.52
861.375	47.56
861.546	43.92
861.716	39.63
861.887	38.5
862.057	33.75
862.228	35.3
862.398	36.32
862.569	39.64
862.739	40.26
862.91	45.12
863.08	41.34
863.251	45.67
863.421	49.38
863.592	54.49
863.762	55.94
863.932	56.3
864.103	56.18
864.273	50.76
864.443	46.77
864.614	47.15
864.784	43.14
864.954	47.37
865.125	41.2
865.295	43.48
865.465	39.62
865.635	40.89
865.805	38.62
865.976	38.95
866.146	46.12
866.316	47.99
866.486	46.24
866.656	47.87
866.826	43.77
866.996	43.43
867.166	41.5
867.336	40.01
867.506	35.46
867.676	35.78
867.846	32.64
868.016	30.93
868.186	31.93
868.356	30.88
868.526	31.11
868.696	30.13
868.866	29.74
869.036	27.8
869.206	29.79
869.376	35.1
869.545	37.1
869.715	41.13
869.885	39.44
870.055	35.63
870.224	42.34
870.394	40.24
870.564	44.29
870.734	47.45
870.903	45.18
871.073	44.27
871.243	41.95
871.412	39.77
871.582	39.29
871.751	37.24
871.921	42.26
872.091	35.72
872.26	37.71
872.43	37.48
872.599	32.59
872.769	34.85
872.938	35.12
873.108	34.17
873.277	36.68
873.446	36.15
873.616	36.6
873.785	34.46
873.955	38.38
874.124	36.44
874.293	33.7
874.463	34.25
874.632	39.58
874.801	42.01
874.971	40.8
875.14	36.46
875.309	36.31
875.478	38.39
875.647	37.29
875.817	35.08
875.986	39.83
876.155	35.99
876.324	41.29
876.493	36.45
876.662	36.55
876.831	37.39
877	40.14
877.17	37.97
877.339	36.85
877.508	41.68
877.677	43.83
877.846	39.14
878.015	42.86
878.184	41.42
878.352	41.53
878.521	36.53
878.69	36.38
878.859	33.87
879.028	37.19
879.197	35.66
879.366	33.93
879.534	30.79
879.703	29.67
879.872	30.13
880.041	31.64
880.21	32.42
880.378	33.05
880.547	33.59
880.716	34.2
880.884	33.41
881.053	32.76
881.222	31.93
881.39	33.14
881.559	34.35
881.727	34.42
881.896	33.65
882.065	33.57
882.233	34.56
882.402	34.95
882.57	34.2
882.739	34.54
882.907	35.74
883.076	36.51
883.244	35.92
883.412	35.81
883.581	35.91
883.749	36.03
883.918	35.76
884.086	34.81
884.254	35.1
884.423	36.57
884.591	35.38
884.759	34.23
884.927	33.98
885.096	33.66
885.264	34.18
885.432	33.37
885.6	33.72
885.769	35.36
885.937	34.61
886.105	33.54
886.273	32.02
886.441	36.53
886.609	40.06
886.777	40.37
886.945	43.16
887.113	43.29
887.281	46.56
887.449	46.15
887.617	45.03
887.785	46.14
887.953	46.29
888.121	46.88
888.289	44.35
888.457	40.21
888.625	39.41
888.793	39.86
888.961	36.49
889.129	35.32
889.296	34.96
889.464	34.18
889.632	36.72
889.8	36.78
889.967	36.39
890.135	35.15
