Data from 2938829__Reflection_04.txt Node
Date: Thu Mar 12 13:12:50 EDT 2015
User: robert
Spectrometer: USB4E03002
Autoset integration time: false
Trigger mode: 4
Integration Time (sec): 1.000000E-1
Scans to average: 10
Electric dark correction enabled: false
Nonlinearity correction enabled: false
Boxcar width: 5
Stray light correction enabled: false
XAxis mode: Wavelengths
Stop averaging: false
Number of Pixels in Spectrum: 3648
>>>>>Begin Spectral Data<<<<<
177.575	-193.38
177.794	-561.33
178.014	-1469.77
178.233	-611.3
178.452	-401.34
178.672	-468.35
178.891	-687.7
179.11	-1154.88
179.33	1908.33
179.549	-1197.06
179.768	-952.38
179.987	992.37
180.207	600.98
180.426	755.09
180.645	568.66
180.864	329.96
181.084	247.8
181.303	276.64
181.522	218.4
181.741	253.98
181.96	228.35
182.179	207.96
182.398	206.74
182.618	236.14
182.837	237.41
183.056	243.6
183.275	389.3
183.494	638.57
183.713	367.07
183.932	1107.23
184.151	-702.97
184.37	-756.94
184.589	-226.47
184.808	-234.5
185.027	-1324.39
185.246	626.51
185.465	468.1
185.684	290.06
185.903	298.24
186.122	297.42
186.341	204.81
186.56	140.21
186.779	183.63
186.998	175.87
187.216	186.06
187.435	203.72
187.654	220.95
187.873	181.72
188.092	188.08
188.311	189.92
188.53	188.3
188.748	202.72
188.967	236.72
189.186	193.87
189.405	231.16
189.623	261.74
189.842	208.32
190.061	203.38
190.28	182.76
190.498	142.75
190.717	136.92
190.936	167.18
191.154	177.51
191.373	214.25
191.592	182.68
191.81	161.18
192.029	136.29
192.248	186.61
192.466	228.85
192.685	531.45
192.904	-1356.41
193.122	-3994.12
193.341	1162.22
193.559	746.32
193.778	4630.77
193.996	-463.03
194.215	-295.65
194.433	-142.18
194.652	-181.46
194.87	-350.21
195.089	-286.12
195.307	-253.89
195.526	-186.85
195.744	-220.45
195.963	-209.91
196.181	-259.64
196.399	-343.48
196.618	-666.1
196.836	-799.31
197.055	-613.07
197.273	-333.14
197.491	-526.34
197.71	-792.16
197.928	-668.79
198.146	-900.96
198.365	-850.89
198.583	-10088.89
198.801	1865.71
199.019	620
199.238	251.83
199.456	169.49
199.674	105.86
199.892	126.83
200.111	156.91
200.329	101.44
200.547	124.7
200.765	100.54
200.983	120.51
201.202	118.55
201.42	248.69
201.638	531.9
201.856	695.86
202.074	449.41
202.292	483.47
202.51	303.38
202.728	554.76
202.946	551.27
203.165	583.6
203.383	517.46
203.601	433.83
203.819	205.19
204.037	191.71
204.255	155.03
204.473	151.44
204.691	158.23
204.909	157.89
205.127	161.61
205.345	240.26
205.562	244.2
205.78	387.85
205.998	319.05
206.216	700.92
206.434	555.15
206.652	-536.27
206.87	-524.79
207.088	-285.09
207.306	-362.42
207.523	-771
207.741	-1672.73
207.959	1075
208.177	260.36
208.395	168.57
208.612	201.05
208.83	245.21
209.048	164.5
209.266	175.14
209.483	145.12
209.701	114.71
209.919	101.06
210.136	105.78
210.354	109.93
210.572	138.96
210.79	169.56
211.007	134.24
211.225	133.65
211.442	115.85
211.66	99.52
211.878	119.03
212.095	146.19
212.313	146.72
212.53	145.74
212.748	130.23
212.966	143.35
213.183	144.41
213.401	160.57
213.618	141.16
213.836	185.46
214.053	206.13
214.271	253.52
214.488	286.05
214.705	244.08
214.923	223.19
215.14	288.89
215.358	156.22
215.575	141.65
215.793	117.64
216.01	125.5
216.227	108.42
216.445	99.42
216.662	75.78
216.879	75.34
217.097	75.71
217.314	78
217.531	90.1
217.749	89.83
217.966	90.91
218.183	86.14
218.4	78.6
218.618	62.13
218.835	60.07
219.052	74.66
219.269	66.93
219.487	61.81
219.704	56.29
219.921	47.56
220.138	57.31
220.355	49
220.572	59.53
220.79	46.81
221.007	48.46
221.224	49.83
221.441	37.09
221.658	41.16
221.875	47.05
222.092	46.65
222.309	40.65
222.526	39.73
222.743	42.14
222.96	35.43
223.177	35.69
223.394	36.36
223.611	38.76
223.828	38.01
224.045	37.13
224.262	33.64
224.479	32.9
224.696	37.65
224.913	35.2
225.13	35.08
225.347	31.62
225.564	32.27
225.781	30.39
225.997	28.97
226.214	29.64
226.431	23.12
226.648	20.33
226.865	17.92
227.082	14
227.298	12.47
227.515	10.21
227.732	9.48
227.949	7.33
228.165	7.22
228.382	5.83
228.599	4.05
228.816	5.32
229.032	4.97
229.249	4.23
229.466	4.72
229.682	4.26
229.899	4.41
230.116	4.7
230.332	5.39
230.549	5.16
230.765	5.71
230.982	6.69
231.199	6.47
231.415	8.65
231.632	9.02
231.848	7.41
232.065	9.1
232.281	10.66
232.498	9.12
232.714	9.84
232.931	9.73
233.147	9.67
233.364	9.86
233.58	8.94
233.797	6.55
234.013	7.34
234.23	8.56
234.446	6.84
234.662	4.03
234.879	4.41
235.095	4.55
235.312	5.54
235.528	4.88
235.744	4.5
235.961	4.52
236.177	5.27
236.393	6.29
236.61	8.75
236.826	8.47
237.042	10.64
237.258	12.21
237.475	12.98
237.691	11.53
237.907	10.47
238.123	9.7
238.339	9.46
238.556	9.11
238.772	7.5
238.988	4.78
239.204	5.62
239.42	4.56
239.636	3.3
239.853	2.31
240.069	2.96
240.285	2.45
240.501	2.87
240.717	4.12
240.933	4.21
241.149	4.3
241.365	3.63
241.581	3.68
241.797	3.49
242.013	3.32
242.229	3.47
242.445	3.85
242.661	3.87
242.877	4.36
243.093	4.03
243.309	3.95
243.525	3.5
243.741	4.25
243.957	4.73
244.173	5.23
244.388	5.26
244.604	5.29
244.82	4.73
245.036	5.62
245.252	4.65
245.468	4.47
245.683	4.49
245.899	4.39
246.115	4.24
246.331	3.81
246.547	3.28
246.762	3.38
246.978	3.21
247.194	3.17
247.409	2.96
247.625	3.09
247.841	2.96
248.057	2.63
248.272	3
248.488	3.29
248.703	3.43
248.919	4.03
249.135	3.99
249.35	3.92
249.566	3.93
249.782	3.79
249.997	4.21
250.213	4.52
250.428	5.51
250.644	5.11
250.859	4.58
251.075	4.75
251.29	3.65
251.506	4.54
251.721	5.08
251.937	5.25
252.152	6.4
252.368	5.71
252.583	5.93
252.798	5.29
253.014	5.26
253.229	5.46
253.445	4.91
253.66	5.66
253.875	5.77
254.091	5.76
254.306	5.78
254.521	4.81
254.737	5.44
254.952	5.13
255.167	5.6
255.383	5.95
255.598	5.68
255.813	6.03
256.028	6.56
256.244	6.52
256.459	5.91
256.674	5.71
256.889	5.46
257.104	4.87
257.32	4.63
257.535	4.2
257.75	4.32
257.965	3.62
258.18	3.64
258.395	3.09
258.61	3.12
258.826	3.14
259.041	3.24
259.256	2.93
259.471	2.7
259.686	2.6
259.901	2.78
260.116	2.38
260.331	2.74
260.546	2.48
260.761	2.28
260.976	2.17
261.191	2.12
261.406	2.14
261.621	2.43
261.836	2.76
262.05	3.05
262.265	3.05
262.48	3.52
262.695	3.69
262.91	4.51
263.125	5.03
263.34	4.94
263.555	5.24
263.769	4.98
263.984	4.49
264.199	4.42
264.414	4.09
264.629	4.54
264.843	4.29
265.058	3.49
265.273	3.27
265.488	3.24
265.702	2.97
265.917	3.05
266.132	3.38
266.346	3.81
266.561	3.94
266.776	3.94
266.99	3.25
267.205	3.7
267.42	4.07
267.634	3.75
267.849	3.94
268.063	3.87
268.278	3.61
268.492	3.53
268.707	3.14
268.922	2.83
269.136	2.75
269.351	3.19
269.565	2.37
269.78	2.16
269.994	2.34
270.209	2.27
270.423	2.48
270.637	2.77
270.852	2.55
271.066	2.84
271.281	3.44
271.495	3.11
271.709	2.67
271.924	2.93
272.138	2.68
272.353	2.55
272.567	2.32
272.781	2.3
272.996	1.99
273.21	2.06
273.424	2.01
273.638	1.71
273.853	1.97
274.067	1.7
274.281	1.93
274.495	2.7
274.71	3.06
274.924	3.2
275.138	3.21
275.352	3.03
275.566	3.36
275.781	3.44
275.995	3.26
276.209	3.61
276.423	4.46
276.637	3.83
276.851	2.8
277.065	2.24
277.279	2.27
277.493	1.92
277.707	2.32
277.921	1.95
278.135	1.75
278.349	1.55
278.563	1.7
278.777	1.32
278.991	1.59
279.205	2.31
279.419	2.32
279.633	2.15
279.847	2.1
280.061	2.37
280.275	2.25
280.489	2.03
280.703	1.84
280.917	1.38
281.131	1.5
281.344	2.2
281.558	1.73
281.772	1.85
281.986	2.15
282.2	2.25
282.414	1.99
282.627	2.08
282.841	2.38
283.055	2.86
283.269	3.36
283.482	3.55
283.696	2.92
283.91	3.12
284.123	3.26
284.337	2.93
284.551	3.21
284.764	3.18
284.978	3.27
285.192	3.06
285.405	2.8
285.619	2.56
285.833	2.29
286.046	2.34
286.26	2.3
286.473	2.4
286.687	2.56
286.9	2.18
287.114	2.14
287.327	1.89
287.541	2.11
287.754	2.36
287.968	2.3
288.181	2.67
288.395	2.82
288.608	3.01
288.822	2.92
289.035	2.96
289.248	3.34
289.462	3.4
289.675	3.53
289.889	3.45
290.102	3.39
290.315	3.56
290.529	3.38
290.742	3.42
290.955	3.46
291.169	3.33
291.382	3.32
291.595	3.53
291.808	3.41
292.022	3.49
292.235	3.64
292.448	3.92
292.661	4.22
292.875	4.19
293.088	4.15
293.301	4.15
293.514	4.39
293.727	4.4
293.94	3.91
294.153	3.99
294.367	3.76
294.58	3.77
294.793	3.6
295.006	3.1
295.219	3.16
295.432	3.32
295.645	3.28
295.858	2.91
296.071	2.93
296.284	3.1
296.497	2.9
296.71	3
296.923	2.81
297.136	2.78
297.349	2.87
297.562	2.59
297.775	2.58
297.988	2.47
298.201	2.66
298.414	2.72
298.626	2.69
298.839	3.03
299.052	3.31
299.265	3.58
299.478	3.57
299.691	3.7
299.903	4.43
300.116	4.48
300.329	4.66
300.542	4.81
300.755	5.01
300.967	4.93
301.18	4.73
301.393	4.46
301.605	4.66
301.818	4.71
302.031	4.77
302.243	4.37
302.456	4.22
302.669	3.89
302.881	3.76
303.094	3.25
303.307	3.14
303.519	3.63
303.732	3.69
303.944	3.31
304.157	3.28
304.37	3.1
304.582	3.33
304.795	3.5
305.007	3.6
305.22	4.06
305.432	4.45
305.645	5.19
305.857	5.1
306.069	5.44
306.282	5.4
306.494	5.63
306.707	5.63
306.919	5.31
307.132	5.46
307.344	6.2
307.556	5.89
307.769	5.9
307.981	5.59
308.193	5.6
308.406	5.59
308.618	5.75
308.83	5.69
309.043	6.2
309.255	6.24
309.467	6.13
309.679	5.94
309.892	5.74
310.104	5.8
310.316	5.54
310.528	5.19
310.74	4.98
310.953	5.04
311.165	5.02
311.377	4.87
311.589	5.02
311.801	4.8
312.013	4.76
312.225	4.95
312.437	5
312.649	5.17
312.862	5.48
313.074	5.83
313.286	5.62
313.498	5.44
313.71	5.11
313.922	5.04
314.134	5.24
314.346	5.04
314.558	4.99
314.77	4.97
314.982	5.6
315.193	5.75
315.405	5.62
315.617	6.27
315.829	6.47
316.041	6.44
316.253	6.35
316.465	6.67
316.677	6.9
316.888	7.13
317.1	7.07
317.312	6.6
317.524	6.55
317.736	6.59
317.947	6.57
318.159	6.7
318.371	6.82
318.583	7.33
318.794	7.59
319.006	7.67
319.218	7.8
319.43	8.05
319.641	8.29
319.853	8.15
320.064	7.98
320.276	7.79
320.488	8.24
320.699	8.93
320.911	9.21
321.123	8.66
321.334	8.75
321.546	8.87
321.757	9.3
321.969	8.87
322.18	9.49
322.392	10.19
322.603	10.6
322.815	10.25
323.026	10.23
323.238	9.82
323.449	9.88
323.661	9.78
323.872	9.7
324.083	9.76
324.295	10.32
324.506	10.59
324.718	10.65
324.929	10.76
325.14	11.34
325.352	11.3
325.563	11.49
325.774	11.88
325.986	12.41
326.197	12.72
326.408	13.03
326.62	13.09
326.831	13.16
327.042	13.15
327.253	13.31
327.464	13.38
327.676	13.35
327.887	13.5
328.098	13.48
328.309	13.81
328.52	14.43
328.732	14.15
328.943	14.64
329.154	14.75
329.365	14.89
329.576	15.25
329.787	15.59
329.998	15.97
330.209	16.28
330.42	17.04
330.631	17.35
330.842	17.28
331.053	17.98
331.264	18.49
331.475	18.87
331.686	19.21
331.897	19.2
332.108	19.47
332.319	19.76
332.53	20.26
332.741	20.32
332.952	20.29
333.163	19.77
333.374	19.65
333.585	19.2
333.795	19.36
334.006	19.64
334.217	19.81
334.428	20.03
334.639	20.45
334.849	21.03
335.06	21.42
335.271	21.72
335.482	22.47
335.692	22.58
335.903	22.96
336.114	22.82
336.325	22.95
336.535	22.82
336.746	22.59
336.957	22.45
337.167	22.26
337.378	22.19
337.589	22.03
337.799	22.16
338.01	22.2
338.22	21.91
338.431	22.05
338.642	21.98
338.852	22.44
339.063	22.82
339.273	22.94
339.484	22.64
339.694	22.56
339.905	22.54
340.115	22.5
340.326	22.85
340.536	23.37
340.746	23.59
340.957	23.73
341.167	23.62
341.378	23.43
341.588	23.35
341.799	23.19
342.009	23.1
342.219	23.04
342.43	23.34
342.64	23.03
342.85	22.98
343.061	22.7
343.271	22.64
343.481	22.84
343.691	22.56
343.902	22.48
344.112	22.74
344.322	22.64
344.532	22.47
344.743	22.38
344.953	22.7
345.163	22.83
345.373	22.81
345.583	22.64
345.793	22.49
346.004	22.86
346.214	22.8
346.424	22.85
346.634	23.02
346.844	23.23
347.054	22.89
347.264	22.53
347.474	22.29
347.684	22.31
347.894	22.43
348.104	22.4
348.314	22.14
348.524	22.28
348.734	22.15
348.944	22.16
349.154	22.19
349.364	22.11
349.574	22.28
349.784	22.12
349.994	22.06
350.204	22.06
350.413	22.13
350.623	22.12
350.833	22.18
351.043	22.29
351.253	21.94
351.463	21.91
351.672	22.14
351.882	22.37
352.092	22.46
352.302	22.51
352.511	22.32
352.721	22.21
352.931	22.25
353.141	22.36
353.35	21.85
353.56	22.18
353.77	21.98
353.979	21.99
354.189	21.6
354.399	21.47
354.608	21.49
354.818	21.54
355.027	21.4
355.237	21.17
355.447	20.79
355.656	21.3
355.866	21.37
356.075	21.4
356.285	21.1
356.494	21.1
356.704	21.09
356.913	21.16
357.123	21.23
357.332	21.31
357.542	21.71
357.751	21.84
357.96	21.68
358.17	21.56
358.379	21.7
358.589	21.96
358.798	21.76
359.007	21.84
359.217	21.63
359.426	21.7
359.635	21.47
359.845	20.91
360.054	20.96
360.263	20.7
360.472	20.61
360.682	20.74
360.891	20.79
361.1	20.99
361.309	20.76
361.519	20.81
361.728	20.7
361.937	20.76
362.146	21.12
362.355	21.07
362.564	21.15
362.774	21.14
362.983	20.88
363.192	20.67
363.401	20.66
363.61	20.92
363.819	20.99
364.028	20.98
364.237	21.03
364.446	20.88
364.655	20.89
364.864	20.9
365.073	20.79
365.282	20.61
365.491	20.49
365.7	20.4
365.909	20.33
366.118	20.07
366.327	19.9
366.536	19.6
366.745	19.61
366.954	19.75
367.162	19.82
367.371	19.72
367.58	20.23
367.789	20.37
367.998	20.29
368.207	20.44
368.415	20.7
368.624	20.81
368.833	21.06
369.042	21
369.25	20.94
369.459	20.92
369.668	21.13
369.877	20.84
370.085	20.86
370.294	20.84
370.503	20.63
370.711	20.46
370.92	20.45
371.129	20.33
371.337	20.34
371.546	20.24
371.754	20.26
371.963	20.32
372.171	20.5
372.38	20.45
372.589	20.26
372.797	20.15
373.006	20.28
373.214	20.29
373.423	20.66
373.631	20.31
373.84	20.19
374.048	20.24
374.256	20.27
374.465	20.14
374.673	20.1
374.882	20.28
375.09	20.42
375.298	20.39
375.507	20.34
375.715	20.07
375.923	20.29
376.132	20.41
376.34	20.24
376.548	20.27
376.757	20.15
376.965	20.16
377.173	20.11
377.381	20
377.59	19.89
377.798	19.99
378.006	20.04
378.214	20.09
378.423	19.94
378.631	20.34
378.839	20.24
379.047	20.2
379.255	20.33
379.463	20.37
379.671	20.37
379.879	20.51
380.088	20.55
380.296	20.8
380.504	20.82
380.712	20.89
380.92	20.59
381.128	20.49
381.336	20.55
381.544	20.63
381.752	20.65
381.96	20.57
382.168	20.54
382.376	20.6
382.584	20.41
382.791	20.39
382.999	20.24
383.207	20.2
383.415	20.33
383.623	20.3
383.831	20.32
384.039	20.2
384.247	20.21
384.454	20.17
384.662	19.99
384.87	20.11
385.078	20.11
385.285	20.02
385.493	20.02
385.701	19.92
385.909	19.9
386.116	19.66
386.324	19.89
386.532	20.15
386.739	20.15
386.947	20.25
387.155	19.94
387.362	19.92
387.57	20.09
387.778	20.06
387.985	20
388.193	19.95
388.4	20.2
388.608	20.2
388.816	19.94
389.023	19.9
389.231	19.95
389.438	20.12
389.646	20.04
389.853	19.92
390.061	20.04
390.268	20.13
390.475	20.4
390.683	20.16
390.89	20.01
391.098	19.97
391.305	19.98
391.512	19.89
391.72	19.81
391.927	19.82
392.135	19.86
392.342	19.77
392.549	19.78
392.756	19.66
392.964	19.69
393.171	19.67
393.378	19.75
393.586	19.82
393.793	19.7
394	19.6
394.207	19.74
394.414	19.77
394.622	19.75
394.829	19.9
395.036	19.93
395.243	19.93
395.45	20.01
395.657	20
395.864	19.85
396.072	19.86
396.279	19.92
396.486	19.86
396.693	19.9
396.9	19.86
397.107	19.71
397.314	19.83
397.521	20.11
397.728	20.01
397.935	20.12
398.142	20.19
398.349	20.38
398.556	20.5
398.763	20.51
398.97	20.68
399.177	20.84
399.383	20.7
399.59	20.49
399.797	20.37
400.004	20.49
400.211	20.49
400.418	20.36
400.625	20.32
400.831	20.4
401.038	20.45
401.245	20.28
401.452	20.24
401.658	20.65
401.865	20.72
402.072	20.63
402.279	20.65
402.485	20.55
402.692	20.76
402.899	20.71
403.105	20.69
403.312	20.7
403.519	20.65
403.725	20.7
403.932	20.63
404.138	20.67
404.345	20.5
404.552	20.71
404.758	20.73
404.965	20.68
405.171	20.61
405.378	20.57
405.584	20.43
405.791	20.35
405.997	20.35
406.204	20.28
406.41	20.14
406.617	20.31
406.823	20.12
407.029	20.14
407.236	20.22
407.442	20.38
407.649	20.4
407.855	20.53
408.061	20.77
408.268	20.68
408.474	20.65
408.68	20.72
408.887	20.57
409.093	20.62
409.299	20.61
409.505	20.43
409.712	20.36
409.918	20.48
410.124	20.5
410.33	20.49
410.537	20.56
410.743	20.63
410.949	20.57
411.155	20.77
411.361	20.89
411.567	20.92
411.773	21.11
411.98	21.14
412.186	21.05
412.392	21.07
412.598	21.04
412.804	21.19
413.01	21.15
413.216	21.39
413.422	21.3
413.628	21.22
413.834	21.31
414.04	21.35
414.246	21.41
414.452	21.35
414.658	21.28
414.864	21.41
415.07	21.26
415.275	21.29
415.481	21.36
415.687	21.47
415.893	21.51
416.099	21.52
416.305	21.44
416.511	21.62
416.716	21.53
416.922	21.54
417.128	21.39
417.334	21.34
417.539	21.36
417.745	21.26
417.951	21.17
418.157	21
418.362	20.9
418.568	21
418.774	20.75
418.979	20.87
419.185	20.83
419.391	20.86
419.596	20.95
419.802	20.9
420.008	20.88
420.213	21.53
420.419	21.58
420.624	21.62
420.83	21.56
421.035	21.6
421.241	21.5
421.446	21.53
421.652	21.52
421.857	21.38
422.063	21.4
422.268	21.35
422.474	20.79
422.679	20.8
422.885	20.76
423.09	20.76
423.295	20.82
423.501	20.87
423.706	20.89
423.911	20.97
424.117	21.06
424.322	20.99
424.527	21.07
424.733	21.05
424.938	20.99
425.143	21.1
425.349	21.07
425.554	21.03
425.759	21.05
425.964	21.05
426.169	20.96
426.375	20.96
426.58	21.03
426.785	21.02
426.99	20.99
427.195	21.02
427.4	20.83
427.605	20.93
427.811	20.89
428.016	20.9
428.221	20.86
428.426	20.94
428.631	20.89
428.836	20.91
429.041	20.86
429.246	20.97
429.451	21.09
429.656	21.21
429.861	21.2
430.066	21.29
430.271	21.22
430.476	21.29
430.681	21.26
430.886	21.26
431.09	21.47
431.295	21.65
431.5	21.67
431.705	21.56
431.91	21.61
432.115	21.55
432.32	21.44
432.524	21.45
432.729	21.48
432.934	21.4
433.139	21.47
433.343	21.44
433.548	21.43
433.753	21.43
433.958	21.64
434.162	21.7
434.367	21.82
434.572	22.07
434.776	22.22
434.981	22.34
435.186	22.58
435.39	22.75
435.595	22.73
435.799	22.74
436.004	22.85
436.209	22.8
436.413	22.66
436.618	22.66
436.822	22.61
437.027	22.44
437.231	22.37
437.436	22.28
437.64	22.18
437.845	22.14
438.049	22.14
438.253	22.11
438.458	22.06
438.662	22.12
438.867	22.06
439.071	21.95
439.275	22.08
439.48	21.94
439.684	21.97
439.888	21.89
440.093	21.79
440.297	21.76
440.501	21.77
440.706	21.74
440.91	21.73
441.114	21.73
441.318	21.8
441.523	21.76
441.727	21.89
441.931	21.83
442.135	21.89
442.339	21.99
442.543	21.95
442.748	21.96
442.952	21.98
443.156	22.03
443.36	22.07
443.564	22.13
443.768	22.15
443.972	22.09
444.176	22.16
444.38	22.15
444.584	22.11
444.788	22.07
444.992	21.98
445.196	21.98
445.4	21.94
445.604	21.88
445.808	21.83
446.012	21.81
446.216	21.77
446.42	21.71
446.624	21.74
446.828	21.67
447.032	21.68
447.235	21.66
447.439	21.67
447.643	21.69
447.847	21.7
448.051	21.66
448.254	21.68
448.458	21.72
448.662	21.69
448.866	21.66
449.069	21.71
449.273	21.81
449.477	21.89
449.681	21.95
449.884	21.95
450.088	22.12
450.292	22.03
450.495	22.05
450.699	22.16
450.902	22.33
451.106	22.3
451.31	22.33
451.513	22.29
451.717	22.32
451.92	22.24
452.124	22.23
452.327	21.98
452.531	22.23
452.734	22.17
452.938	22.07
453.141	21.98
453.345	22.09
453.548	22.09
453.752	22.05
453.955	22.01
454.158	22.05
454.362	22.07
454.565	22.23
454.769	22.09
454.972	22.08
455.175	22.19
455.379	22.25
455.582	22.31
455.785	22.27
455.988	22.32
456.192	22.27
456.395	22.31
456.598	22.4
456.801	22.4
457.005	22.5
457.208	22.55
457.411	22.42
457.614	22.35
457.817	22.22
458.021	22.25
458.224	22.31
458.427	22.27
458.63	22.2
458.833	22.06
459.036	22.02
459.239	21.9
459.442	21.9
459.645	21.95
459.848	21.93
460.051	21.92
460.254	21.86
460.457	21.76
460.66	21.78
460.863	21.76
461.066	21.9
461.269	21.84
461.472	21.97
461.675	21.89
461.878	21.95
462.081	22
462.284	21.98
462.486	22.07
462.689	22.07
462.892	22.14
463.095	22.12
463.298	22
463.5	22.08
463.703	22.09
463.906	22.15
464.109	22.15
464.311	22.13
464.514	22.27
464.717	22.31
464.92	22.6
465.122	22.6
465.325	22.64
465.528	22.69
465.73	22.72
465.933	22.73
466.135	22.7
466.338	22.62
466.541	22.59
466.743	22.46
466.946	22.37
467.148	22.09
467.351	22.12
467.553	22.15
467.756	22.08
467.958	22.11
468.161	22.02
468.363	22.08
468.566	22.07
468.768	22.11
468.971	22.15
469.173	22.19
469.375	22.46
469.578	22.44
469.78	22.52
469.983	22.68
470.185	22.58
470.387	22.68
470.59	22.51
470.792	22.66
470.994	22.72
471.196	22.71
471.399	22.82
471.601	22.59
471.803	22.57
472.005	22.44
472.208	22.38
472.41	22.49
472.612	22.55
472.814	22.71
473.016	22.62
473.218	22.54
473.421	22.65
473.623	22.61
473.825	22.77
474.027	22.79
474.229	22.83
474.431	22.91
474.633	22.81
474.835	22.79
475.037	22.73
475.239	22.8
475.441	22.81
475.643	22.72
475.845	22.66
476.047	22.52
476.249	22.5
476.451	22.57
476.653	22.49
476.855	22.49
477.057	22.45
477.258	22.49
477.46	22.47
477.662	22.48
477.864	22.43
478.066	22.47
478.268	22.61
478.469	22.62
478.671	22.53
478.873	22.52
479.075	22.45
479.276	22.47
479.478	22.53
479.68	22.47
479.882	22.43
480.083	22.55
480.285	22.58
480.487	22.5
480.688	22.49
480.89	22.5
481.091	22.49
481.293	22.62
481.495	22.54
481.696	22.46
481.898	22.4
482.099	22.43
482.301	22.35
482.502	22.3
482.704	22.25
482.905	22.23
483.107	22.21
483.308	22.15
483.51	22.09
483.711	22.06
483.913	22.03
484.114	22.02
484.315	21.96
484.517	21.94
484.718	21.89
484.92	21.9
485.121	21.83
485.322	21.83
485.524	21.83
485.725	21.85
485.926	21.81
486.127	21.86
486.329	21.86
486.53	21.91
486.731	21.92
486.932	21.94
487.134	21.97
487.335	22.05
487.536	22.03
487.737	22.05
487.938	22.07
488.139	22.15
488.341	22.13
488.542	22.17
488.743	22.13
488.944	22.17
489.145	22.18
489.346	22.18
489.547	22.17
489.748	22.23
489.949	22.3
490.15	22.3
490.351	22.33
490.552	22.35
490.753	22.32
490.954	22.38
491.155	22.43
491.356	22.41
491.557	22.4
491.758	22.38
491.959	22.36
492.159	22.34
492.36	22.38
492.561	22.35
492.762	22.35
492.963	22.37
493.164	22.38
493.364	22.4
493.565	22.49
493.766	22.57
493.967	22.65
494.167	22.81
494.368	22.88
494.569	22.9
494.769	22.95
494.97	23.11
495.171	23.13
495.371	23.24
495.572	23.19
495.773	23.25
495.973	23.18
496.174	23.14
496.375	23
496.575	23.02
496.776	22.99
496.976	22.98
497.177	22.92
497.377	23.01
497.578	22.95
497.778	22.97
497.979	23
498.179	23.03
498.38	23.02
498.58	23.06
498.78	23.07
498.981	23.16
499.181	23.28
499.382	23.25
499.582	23.24
499.782	23.29
499.983	23.27
500.183	23.26
500.383	23.31
500.584	23.31
500.784	23.46
500.984	23.36
501.184	23.31
501.385	23.27
501.585	23.44
501.785	23.48
501.985	23.44
502.185	23.57
502.386	23.55
502.586	23.56
502.786	23.6
502.986	23.49
503.186	23.49
503.386	23.59
503.586	23.66
503.786	23.65
503.987	23.63
504.187	23.73
504.387	23.73
504.587	23.77
504.787	23.82
504.987	23.89
505.187	23.93
505.387	23.99
505.587	23.96
505.786	23.93
505.986	23.96
506.186	24.03
506.386	23.93
506.586	23.9
506.786	24.02
506.986	24.06
507.186	24.06
507.386	24.05
507.585	24.14
507.785	24.13
507.985	24.16
508.185	24.11
508.384	24.11
508.584	24.24
508.784	24.27
508.984	24.25
509.183	24.18
509.383	24.21
509.583	24.25
509.782	24.2
509.982	24.24
510.182	24.36
510.381	24.33
510.581	24.38
510.781	24.39
510.98	24.39
511.18	24.35
511.379	24.44
511.579	24.48
511.778	24.56
511.978	24.6
512.177	24.61
512.377	24.56
512.576	24.57
512.776	24.49
512.975	24.51
513.175	24.57
513.374	24.72
513.573	24.63
513.773	24.48
513.972	24.49
514.172	24.56
514.371	24.63
514.57	24.65
514.77	24.73
514.969	24.94
515.168	24.85
515.367	24.77
515.567	24.73
515.766	24.78
515.965	25.01
516.164	25
516.364	25.04
516.563	25.04
516.762	25.02
516.961	25.03
517.16	24.95
517.359	25.02
517.559	25.11
517.758	25.02
517.957	25.06
518.156	25.06
518.355	25.02
518.554	25.04
518.753	25.06
518.952	25.09
519.151	25.13
519.35	25.14
519.549	25.15
519.748	25.14
519.947	25.32
520.146	25.33
520.345	25.35
520.544	25.38
520.743	25.36
520.942	25.29
521.141	25.37
521.339	25.37
521.538	25.39
521.737	25.41
521.936	25.47
522.135	25.49
522.333	25.56
522.532	25.52
522.731	25.68
522.93	25.8
523.129	25.93
523.327	25.83
523.526	25.85
523.725	25.95
523.923	25.87
524.122	25.94
524.321	25.89
524.519	25.88
524.718	25.86
524.917	25.84
525.115	25.79
525.314	25.8
525.512	25.81
525.711	25.83
525.909	25.75
526.108	25.84
526.306	25.8
526.505	25.79
526.703	25.8
526.902	25.82
527.1	25.79
527.299	25.69
527.497	25.62
527.696	25.55
527.894	25.5
528.092	25.5
528.291	25.46
528.489	25.42
528.688	25.38
528.886	25.34
529.084	25.33
529.283	25.31
529.481	25.38
529.679	25.4
529.877	25.47
530.076	25.53
530.274	25.54
530.472	25.57
530.67	25.67
530.869	25.73
531.067	25.84
531.265	25.92
531.463	26.04
531.661	26.03
531.859	26.06
532.057	26.12
532.255	26.1
532.454	26.11
532.652	26.16
532.85	26.14
533.048	26.15
533.246	26.13
533.444	26.13
533.642	26.08
533.84	26.12
534.038	26.12
534.236	26.13
534.434	26.2
534.632	26.26
534.83	26.22
535.027	26.25
535.225	26.29
535.423	26.36
535.621	26.37
535.819	26.39
536.017	26.43
536.215	26.53
536.412	26.56
536.61	26.62
536.808	26.69
537.006	26.84
537.203	26.96
537.401	27.07
537.599	27.14
537.797	27.28
537.994	27.45
538.192	27.68
538.39	27.73
538.587	27.93
538.785	28.02
538.983	28.21
539.18	28.41
539.378	28.52
539.575	28.62
539.773	28.76
539.97	28.78
540.168	28.87
540.366	28.83
540.563	28.94
540.761	28.97
540.958	29.03
541.155	29.05
541.353	29.08
541.55	29.12
541.748	29.14
541.945	29.17
542.143	29.22
542.34	29.26
542.537	29.34
542.735	29.45
542.932	29.55
543.129	29.71
543.327	29.93
543.524	30.19
543.721	30.56
543.919	31.02
544.116	31.49
544.313	32.05
544.51	32.67
544.708	33.22
544.905	33.75
545.102	34.29
545.299	34.71
545.496	34.96
545.693	35.02
545.891	35.03
546.088	34.92
546.285	34.73
546.482	34.45
546.679	34.1
546.876	33.85
547.073	33.49
547.27	33.16
547.467	32.81
547.664	32.56
547.861	32.43
548.058	32.15
548.255	32.02
548.452	31.86
548.649	31.82
548.846	31.74
549.043	31.53
549.24	31.61
549.437	31.4
549.633	31.26
549.83	31.2
550.027	31.04
550.224	30.98
550.421	30.85
550.618	30.73
550.814	30.55
551.011	30.49
551.208	30.4
551.405	30.11
551.601	30.08
551.798	29.99
551.995	29.85
552.191	29.77
552.388	29.69
552.585	29.56
552.781	29.4
552.978	29.39
553.175	29.23
553.371	29.18
553.568	29.16
553.764	28.99
553.961	28.94
554.157	28.94
554.354	28.85
554.55	28.91
554.747	28.85
554.943	28.9
555.14	28.84
555.336	28.84
555.533	28.84
555.729	28.91
555.926	28.89
556.122	28.96
556.318	28.84
556.515	28.95
556.711	28.85
556.907	28.9
557.104	29.02
557.3	28.94
557.496	28.95
557.693	28.93
557.889	28.81
558.085	28.99
558.281	28.91
558.478	28.88
558.674	28.73
558.87	28.6
559.066	28.58
559.262	28.46
559.459	28.54
559.655	28.55
559.851	28.63
560.047	28.64
560.243	28.53
560.439	28.48
560.635	28.56
560.831	28.58
561.027	28.65
561.223	28.59
561.419	28.57
561.615	28.59
561.811	28.61
562.007	28.52
562.203	28.47
562.399	28.53
562.595	28.78
562.791	28.7
562.987	28.79
563.183	28.81
563.379	28.75
563.575	28.75
563.771	28.7
563.966	28.56
564.162	28.49
564.358	28.49
564.554	28.41
564.75	28.24
564.945	28.21
565.141	28.19
565.337	28.08
565.533	28.15
565.728	28.19
565.924	28.12
566.12	28.14
566.315	28.21
566.511	28.19
566.707	28.21
566.902	28.17
567.098	28.23
567.293	28.12
567.489	28.23
567.684	28.25
567.88	28.29
568.076	28.44
568.271	28.46
568.467	28.43
568.662	28.48
568.858	28.5
569.053	28.44
569.248	28.42
569.444	28.37
569.639	28.42
569.835	28.4
570.03	28.35
570.225	28.27
570.421	28.15
570.616	28.15
570.812	28.2
571.007	28.24
571.202	28.26
571.397	28.25
571.593	28.26
571.788	28.2
571.983	28.23
572.178	28.19
572.374	28.15
572.569	28.31
572.764	28.37
572.959	28.4
573.154	28.29
573.35	28.45
573.545	28.53
573.74	28.67
573.935	28.78
574.13	28.7
574.325	28.78
574.52	28.99
574.715	28.99
574.91	29.04
575.105	29.06
575.3	29.23
575.495	29.23
575.69	29.32
575.885	29.55
576.08	29.65
576.275	29.99
576.47	30.09
576.665	30.21
576.86	30.35
577.055	30.56
577.25	30.63
577.444	30.89
577.639	31.06
577.834	31.22
578.029	31.37
578.224	31.58
578.418	31.64
578.613	31.81
578.808	31.82
579.003	31.94
579.197	32.01
579.392	32.21
579.587	32.11
579.781	32.27
579.976	32.25
580.171	32.1
580.365	32.06
580.56	31.96
580.755	32.01
580.949	31.95
581.144	31.88
581.338	31.9
581.533	31.86
581.727	31.92
581.922	31.86
582.116	31.87
582.311	31.84
582.505	31.9
582.7	32.13
582.894	32.09
583.089	32.22
583.283	32.31
583.478	32.4
583.672	32.53
583.866	32.51
584.061	32.42
584.255	32.52
584.449	32.54
584.644	32.64
584.838	32.67
585.032	32.88
585.226	33.04
585.421	33.28
585.615	33.39
585.809	33.57
586.003	33.81
586.198	34.18
586.392	34.28
586.586	34.39
586.78	34.27
586.974	34.17
587.168	33.99
587.363	33.83
587.557	33.64
587.751	33.51
587.945	33.27
588.139	33.18
588.333	32.95
588.527	32.71
588.721	32.63
588.915	32.58
589.109	32.58
589.303	32.59
589.497	32.48
589.691	32.36
589.885	32.05
590.079	32.03
590.273	31.97
590.466	31.97
590.66	32.18
590.854	32.43
591.048	32.49
591.242	32.58
591.436	32.86
591.629	33.08
591.823	33.5
592.017	33.82
592.211	34.15
592.404	34.25
592.598	34.22
592.792	34.07
592.986	33.93
593.179	33.89
593.373	33.77
593.567	33.42
593.76	33.19
593.954	32.98
594.147	32.95
594.341	32.62
594.535	32.5
594.728	32.49
594.922	32.44
595.115	32.3
595.309	32.14
595.502	32.06
595.696	32.08
595.889	32.14
596.083	31.96
596.276	31.89
596.47	31.9
596.663	31.76
596.856	31.81
597.05	31.92
597.243	32.03
597.437	32.15
597.63	32.26
597.823	32.47
598.017	32.74
598.21	32.85
598.403	33.03
598.596	33.07
598.79	33.46
598.983	33.59
599.176	33.76
599.369	33.82
599.563	33.95
599.756	34.07
599.949	34.12
600.142	33.94
600.335	34.04
600.528	33.85
600.722	33.97
600.915	33.9
601.108	33.77
601.301	33.6
601.494	33.45
601.687	33.39
601.88	33.22
602.073	32.88
602.266	32.75
602.459	32.62
602.652	32.56
602.845	32.51
603.038	32.42
603.231	32.39
603.424	32.27
603.617	32.1
603.809	31.97
604.002	31.9
604.195	32.01
604.388	31.98
604.581	31.98
604.774	31.94
604.966	31.94
605.159	31.95
605.352	32.04
605.545	32.14
605.737	32.36
605.93	32.59
606.123	32.84
606.316	32.96
606.508	33.29
606.701	33.6
606.894	33.98
607.086	34.25
607.279	34.45
607.471	34.89
607.664	35.5
607.857	35.99
608.049	36.52
608.242	37.5
608.434	38.63
608.627	39.94
608.819	41.55
609.012	43.46
609.204	45.49
609.397	47.75
609.589	50.05
609.782	52.49
609.974	55.19
610.166	57.98
610.359	60.36
610.551	62.58
610.743	64.7
610.936	66.59
611.128	67.83
611.32	68.79
611.513	69.24
611.705	69.42
611.897	69.19
612.09	68.65
612.282	67.55
612.474	66.59
612.666	65.58
612.858	64.27
613.051	62.84
613.243	61.77
613.435	60.44
613.627	59.31
613.819	58.04
614.011	56.77
614.203	55.5
614.395	54.53
614.588	53.38
614.78	52.27
614.972	51.11
615.164	49.88
615.356	48.73
615.548	47.83
615.74	46.73
615.932	45.9
616.124	45.04
616.315	44.3
616.507	43.42
616.699	42.48
616.891	41.86
617.083	41.22
617.275	40.78
617.467	40.34
617.659	39.91
617.85	39.92
618.042	39.52
618.234	39.14
618.426	39.13
618.618	39.04
618.809	38.95
619.001	38.8
619.193	38.77
619.384	38.63
619.576	38.67
619.768	38.73
619.959	38.55
620.151	38.53
620.343	38.4
620.534	38.31
620.726	38.35
620.917	38.54
621.109	38.51
621.301	38.51
621.492	38.6
621.684	38.71
621.875	38.48
622.067	38.4
622.258	38.65
622.45	39.2
622.641	39.12
622.832	39.22
623.024	39.17
623.215	39.39
623.407	39.56
623.598	39.52
623.789	39.55
623.981	39.97
624.172	40.29
624.363	40.03
624.555	39.83
624.746	39.86
624.937	40
625.129	40.01
625.32	39.96
625.511	39.8
625.702	39.67
625.893	39.65
626.085	39.21
626.276	39.01
626.467	38.98
626.658	38.81
626.849	38.76
627.04	38.67
627.231	38.6
627.422	38.58
627.614	38.74
627.805	38.97
627.996	38.85
628.187	39.14
628.378	39.39
628.569	39.71
628.76	40.23
628.951	40.53
629.142	40.87
629.332	41.2
629.523	41.53
629.714	41.72
629.905	42.05
630.096	42.38
630.287	42.65
630.478	42.69
630.669	42.78
630.859	42.61
631.05	42.51
631.241	42.31
631.432	42.07
631.623	41.94
631.813	41.52
632.004	40.99
632.195	40.63
632.385	40.08
632.576	39.6
632.767	39.21
632.957	39
633.148	38.57
633.339	38.15
633.529	37.89
633.72	37.48
633.91	37.28
634.101	37.26
634.292	37.1
634.482	37.09
634.673	37.15
634.863	37.08
635.054	36.96
635.244	36.96
635.435	37.06
635.625	37.15
635.815	37.09
636.006	37.25
636.196	37.24
636.387	37.15
636.577	37.1
636.767	37.03
636.958	36.96
637.148	36.87
637.338	36.95
637.529	36.87
637.719	36.73
637.909	36.72
638.099	36.68
638.29	36.81
638.48	36.87
638.67	37.09
638.86	37.39
639.05	37.67
639.241	37.77
639.431	37.78
639.621	37.99
639.811	38.12
640.001	38.06
640.191	38.07
640.381	37.84
640.571	38.06
640.761	38.05
640.951	37.89
641.141	37.68
641.331	37.73
641.521	37.96
641.711	38.09
641.901	37.92
642.091	38.29
642.281	38.33
642.471	38.45
642.661	38.33
642.851	38.29
643.041	38.34
643.231	38.54
643.42	38.62
643.61	38.48
643.8	38.36
643.99	38.73
644.18	38.52
644.369	38.59
644.559	38.65
644.749	38.94
644.939	39.06
645.128	39.04
645.318	39.08
645.508	39.04
645.697	39.08
645.887	39.06
646.076	38.79
646.266	38.7
646.456	38.76
646.645	38.86
646.835	38.54
647.024	38.45
647.214	38.54
647.403	38.44
647.593	38.52
647.782	38.5
647.972	38.53
648.161	38.76
648.351	39.08
648.54	39.08
648.73	39.19
648.919	39.61
649.108	39.99
649.298	40.13
649.487	40.19
649.677	40.46
649.866	40.74
650.055	41.06
650.244	41.25
650.434	41.34
650.623	41.41
650.812	41.47
651.002	41.12
651.191	40.96
651.38	41.11
651.569	40.97
651.758	40.56
651.947	40.53
652.137	40.22
652.326	40.03
652.515	39.9
652.704	39.88
652.893	39.84
653.082	40.21
653.271	40.21
653.46	39.94
653.649	40.2
653.838	40.37
654.027	40.1
654.216	39.98
654.405	39.73
654.594	39.78
654.783	39.69
654.972	39.55
655.161	39.46
655.35	39.34
655.539	39.6
655.728	39.76
655.916	39.7
656.105	39.79
656.294	39.85
656.483	40.12
656.672	40.09
656.86	40.31
657.049	40.21
657.238	40.13
657.427	40.06
657.615	39.98
657.804	39.87
657.993	39.79
658.181	39.8
658.37	39.79
658.559	39.71
658.747	39.6
658.936	39.61
659.125	39.7
659.313	39.57
659.502	39.66
659.69	39.42
659.879	39.29
660.067	39.46
660.256	39.46
660.444	39.68
660.633	39.81
660.821	39.88
661.01	39.78
661.198	39.73
661.387	40.09
661.575	40.22
661.763	40.56
661.952	40.81
662.14	41
662.328	41.38
662.517	41.57
662.705	41.56
662.893	41.69
663.082	42.08
663.27	42.3
663.458	42.32
663.646	42.42
663.834	42.41
664.023	42.28
664.211	42.27
664.399	41.87
664.587	41.82
664.775	41.97
664.963	41.89
665.152	41.73
665.34	41.91
665.528	41.64
665.716	41.69
665.904	41.62
666.092	41.76
666.28	41.88
666.468	42.03
666.656	42.06
666.844	42.34
667.032	42.52
667.22	42.57
667.408	42.46
667.596	42.65
667.784	42.62
667.971	42.54
668.159	42.44
668.347	42.25
668.535	42.22
668.723	42.19
668.911	42.05
669.098	42.04
669.286	41.93
669.474	42.14
669.662	42.08
669.849	41.9
670.037	42.15
670.225	42.41
670.413	42.42
670.6	42.55
670.788	42.5
670.976	42.45
671.163	42.54
671.351	42.6
671.538	42.53
671.726	42.75
671.913	42.78
672.101	42.86
672.289	42.43
672.476	42.4
672.664	42.4
672.851	42.48
673.039	42.38
673.226	42.44
673.413	42.37
673.601	42.45
673.788	42.6
673.976	42.95
674.163	42.93
674.35	43.32
674.538	43.52
674.725	43.62
674.912	43.56
675.1	43.57
675.287	43.54
675.474	43.6
675.662	43.18
675.849	43.02
676.036	42.93
676.223	42.8
676.411	42.94
676.598	42.91
676.785	42.99
676.972	43.2
677.159	43.48
677.346	43.45
677.533	43.46
677.721	43.73
677.908	43.94
678.095	43.85
678.282	43.64
678.469	43.39
678.656	43.21
678.843	42.94
679.03	42.73
679.217	42.64
679.404	42.56
679.591	42.34
679.778	42.47
679.964	42.46
680.151	42.44
680.338	42.62
680.525	42.57
680.712	42.52
680.899	42.59
681.086	42.6
681.272	42.48
681.459	42.48
681.646	42.67
681.833	42.55
682.02	42.36
682.206	42.37
682.393	42.64
682.58	42.8
682.766	43.28
682.953	43.64
683.14	43.99
683.326	44.01
683.513	44.34
683.7	44.51
683.886	44.41
684.073	44.51
684.259	44.83
684.446	44.51
684.632	44.78
684.819	44.74
685.005	44.74
685.192	44.8
685.378	45.38
685.565	45.32
685.751	45.34
685.938	45.67
686.124	45.71
686.31	45.64
686.497	46.07
686.683	45.83
686.87	45.93
687.056	45.92
687.242	45.56
687.429	45.42
687.615	45.44
687.801	45.46
687.987	45.26
688.174	45.46
688.36	45
688.546	44.64
688.732	44.71
688.918	44.32
689.105	44.07
689.291	44.04
689.477	43.94
689.663	43.99
689.849	44.09
690.035	44.1
690.221	43.99
690.407	44.28
690.593	44.64
690.779	44.76
690.965	44.85
691.151	45.25
691.337	45.48
691.523	45.57
691.709	45.53
691.895	45.84
692.081	46.01
692.267	45.92
692.453	46.55
692.639	46.19
692.825	46.15
693.011	46.44
693.196	46.08
693.382	46.35
693.568	46.52
693.754	46.68
693.94	46.23
694.125	46.4
694.311	46.62
694.497	46.23
694.682	46.48
694.868	47.01
695.054	46.94
695.239	47.37
695.425	47.06
695.611	47.04
695.796	47.03
695.982	46.93
696.168	46.62
696.353	46.22
696.539	45.97
696.724	45.81
696.91	45.2
697.095	45.13
697.281	44.62
697.466	44.56
697.652	44.28
697.837	44.02
698.023	44.05
698.208	43.81
698.393	43.53
698.579	43.67
698.764	43.52
698.949	43.35
699.135	43.33
699.32	43.12
699.505	43.26
699.691	43.19
699.876	43.1
700.061	43.19
700.246	43.42
700.432	43.81
700.617	44.08
700.802	44.35
700.987	44.58
701.172	44.75
701.358	45.7
701.543	45.55
701.728	46.13
701.913	46.6
702.098	46.71
702.283	46.94
702.468	47.39
702.653	47.15
702.838	47.52
703.023	48.08
703.208	48.02
703.393	47.58
703.578	48
703.763	48.29
703.948	48.42
704.133	48.95
704.318	49.5
704.503	49.89
704.688	50.38
704.873	50.62
705.057	51.22
705.242	51.54
705.427	52.44
705.612	53.46
705.797	53.62
705.981	54.49
706.166	54.78
706.351	55.35
706.536	55.63
706.72	56.03
706.905	56.65
707.09	56.69
707.274	57.38
707.459	57.33
707.644	57.31
707.828	57.57
708.013	57.26
708.197	57.51
708.382	57.14
708.567	57.24
708.751	56.98
708.936	56.25
709.12	56.08
709.305	55.7
709.489	55.68
709.673	55.05
709.858	54.43
710.042	54.11
710.227	53.59
710.411	53.59
710.596	53.18
710.78	53.29
710.964	53.62
711.149	53.92
711.333	53.74
711.517	53.64
711.702	53.57
711.886	53.97
712.07	53.96
712.254	54
712.438	53.84
712.623	53.66
712.807	53.22
712.991	52.72
713.175	52.06
713.359	51.95
713.544	51.01
713.728	50.31
713.912	49.66
714.096	49.12
714.28	48.66
714.464	48.24
714.648	47.82
714.832	47.56
715.016	47.22
715.2	46.52
715.384	46.65
715.568	46.98
715.752	46.89
715.936	46.69
716.12	46.7
716.304	46.43
716.488	45.98
716.671	46.21
716.855	46.01
717.039	46.32
717.223	46.63
717.407	45.7
717.59	45.65
717.774	45.71
717.958	45.45
718.142	45.42
718.325	45.75
718.509	45.92
718.693	45.89
718.877	45.67
719.06	45.69
719.244	45.75
719.428	46.44
719.611	46.54
719.795	46.8
719.978	47.06
720.162	47.49
720.345	47.38
720.529	47.79
720.713	47.75
720.896	48.06
721.08	47.97
721.263	47.46
721.446	47.29
721.63	47.3
721.813	47.56
721.997	47.77
722.18	47.48
722.364	47.76
722.547	47.48
722.73	47.55
722.914	47.65
723.097	47.89
723.28	48.23
723.464	48.34
723.647	48.2
723.83	47.86
724.013	48.03
724.197	48.08
724.38	48.26
724.563	48.34
724.746	48.26
724.929	48.53
725.112	48.1
725.296	47.73
725.479	47.87
725.662	48.05
725.845	48.03
726.028	48.08
726.211	48.02
726.394	47.8
726.577	47.73
726.76	47.61
726.943	47.58
727.126	47.3
727.309	47.47
727.492	47.03
727.675	46.72
727.858	46.47
728.041	46.29
728.224	45.97
728.407	45.97
728.589	46.17
728.772	46.22
728.955	45.74
729.138	46.08
729.321	46.25
729.503	46.37
729.686	46.54
729.869	46.87
730.052	46.74
730.234	47.11
730.417	47.12
730.6	46.99
730.782	46.91
730.965	47.26
731.148	47.16
731.33	47.49
731.513	47.87
731.695	47.72
731.878	47.63
732.061	47.92
732.243	48.26
732.426	48.04
732.608	48.22
732.791	48.65
732.973	48.67
733.156	49.12
733.338	49.03
733.52	48.86
733.703	49.19
733.885	49.38
734.068	49.1
734.25	49.03
734.432	49.2
734.615	49.01
734.797	48.85
734.979	48.87
735.162	48.72
735.344	48.47
735.526	48.48
735.708	48.65
735.891	48.74
736.073	48.53
736.255	48.71
736.437	49.22
736.619	49.53
736.802	49.89
736.984	49.93
737.166	49.13
737.348	49.51
737.53	49.7
737.712	49.64
737.894	49.58
738.076	50.05
738.258	49.35
738.44	48.86
738.622	48.76
738.804	48.54
738.986	48.76
739.168	49.3
739.35	49.42
739.532	49.64
739.714	49.65
739.896	49.42
740.078	49.57
740.259	49.69
740.441	50.16
740.623	50.71
740.805	50.22
740.987	50.64
741.168	51.36
741.35	51.73
741.532	51.72
741.714	51.88
741.895	52.15
742.077	52.44
742.259	53.12
742.44	53.29
742.622	53.63
742.804	54.47
742.985	54.61
743.167	54.08
743.348	54.03
743.53	54.01
743.711	53.79
743.893	54.14
744.075	53.23
744.256	53.55
744.438	53.57
744.619	53.15
744.8	53.03
744.982	51.96
745.163	52.05
745.345	52.05
745.526	51.93
745.707	52.25
745.889	52.02
746.07	52.58
746.252	51.65
746.433	51.57
746.614	51.1
746.795	50.8
746.977	51.65
747.158	52.61
747.339	52.78
747.52	52.56
747.702	52.27
747.883	52.57
748.064	52.44
748.245	52.53
748.426	52.11
748.607	51.92
748.788	52.07
748.97	51.39
749.151	50.78
749.332	51.01
749.513	51.77
749.694	51.89
749.875	51.84
750.056	52.13
750.237	52.39
750.418	52.93
750.599	53.19
750.78	53.93
750.96	54.5
751.141	54.06
751.322	53.7
751.503	53.21
751.684	53.93
751.865	53.95
752.046	54.03
752.226	53.87
752.407	53.04
752.588	53.06
752.769	51.86
752.949	51.81
753.13	52.42
753.311	52.42
753.492	52.04
753.672	50.89
753.853	51.09
754.034	50.77
754.214	51.29
754.395	51.63
754.575	51.9
754.756	52.57
754.937	52.88
755.117	52.37
755.298	52.44
755.478	52.74
755.659	52.52
755.839	52.25
756.02	52.7
756.2	52.53
756.381	51.85
756.561	51.59
756.741	50.88
756.922	50.02
757.102	49.4
757.283	48.81
757.463	48.83
757.643	49.84
757.823	49.2
758.004	48.63
758.184	48.04
758.364	48.76
758.545	48.47
758.725	47.82
758.905	47.29
759.085	47.78
759.265	47.16
759.446	46.41
759.626	45.74
759.806	44.66
759.986	44.9
760.166	44.48
760.346	43.81
760.526	44.04
760.706	44.04
760.886	44.81
761.066	44.5
761.246	45.31
761.426	45.18
761.606	44.62
761.786	45.62
761.966	45.1
762.146	45.34
762.326	45.43
762.506	44.71
762.686	45.5
762.866	44.73
763.046	44.5
763.225	43.93
763.405	44.01
763.585	43.6
763.765	43.31
763.945	43.25
764.124	43.65
764.304	43.72
764.484	43.88
764.664	43.18
764.843	44.08
765.023	44.2
765.203	44.73
765.382	44.92
765.562	45.98
765.741	46.67
765.921	47.28
766.101	47.27
766.28	47.62
766.46	48.26
766.639	49.34
766.819	49.33
766.998	49.7
767.178	49.72
767.357	50.27
767.537	50.27
767.716	50.22
767.896	50.4
768.075	50.29
768.254	50.79
768.434	51.3
768.613	51
768.792	51.25
768.972	52.06
769.151	52.62
769.33	52.84
769.51	53.22
769.689	53
769.868	53.35
770.047	54.33
770.226	53.68
770.406	53.07
770.585	53.67
770.764	52.9
770.943	52.59
771.122	52.72
771.301	53.45
771.48	53.66
771.66	54.48
771.839	54.16
772.018	53.44
772.197	54.84
772.376	55.85
772.555	56.2
772.734	56.8
772.913	56.83
773.092	56.61
773.271	55.16
773.449	55
773.628	55.2
773.807	55.5
773.986	55.7
774.165	54.2
774.344	53.36
774.523	52.38
774.701	52.27
774.88	52.12
775.059	51.78
775.238	51.7
775.417	52.01
775.595	52.1
775.774	51.47
775.953	51.46
776.131	51.17
776.31	50.73
776.489	50.55
776.667	50.09
776.846	50.58
777.025	50.85
777.203	51.79
777.382	51.74
777.56	52.37
777.739	53.14
777.917	52.92
778.096	53.97
778.274	54.47
778.453	54.56
778.631	54.6
778.81	54.39
778.988	54.31
779.166	54.46
779.345	54.3
779.523	53.22
779.702	53.52
779.88	53.77
780.058	53.67
780.237	53.35
780.415	54.08
780.593	54.34
780.771	54.71
780.95	54.59
781.128	54.22
781.306	53.49
781.484	54.32
781.662	53.98
781.841	54.37
782.019	54.32
782.197	55.27
782.375	54.62
782.553	54.16
782.731	53.74
782.909	53.68
783.087	53.57
783.265	54.53
783.443	54.1
783.621	54.41
783.799	54.29
783.977	54.18
784.155	54.35
784.333	55.55
784.511	57.21
784.689	56.36
784.867	56.97
785.045	57
785.223	57.24
785.4	57.26
785.578	56.82
785.756	56.37
785.934	57.44
786.112	57.26
786.289	56.99
786.467	55.97
786.645	55.86
786.823	55.45
787	55.75
787.178	55.28
787.356	54.7
787.533	53.79
787.711	53.21
787.889	51.99
788.066	50.99
788.244	50.64
788.421	50.01
788.599	50.45
788.776	50.2
788.954	49.85
789.131	49.83
789.309	48.88
789.486	48.02
789.664	48.76
789.841	48.38
790.019	49.12
790.196	48.4
790.373	48.68
790.551	49.28
790.728	49.61
790.906	50.29
791.083	49.63
791.26	50.68
791.437	52.52
791.615	50.74
791.792	51.74
791.969	51.13
792.146	51.17
792.324	51.37
792.501	51.29
792.678	51.64
792.855	51.95
793.032	52.74
793.209	53.13
793.387	52.52
793.564	54.65
793.741	54.58
793.918	54.55
794.095	55.93
794.272	55.7
794.449	54.67
794.626	54.23
794.803	53.03
794.98	52.38
795.157	51.57
795.334	52.08
795.511	51.46
795.688	52.07
795.864	51.21
796.041	50.03
796.218	50.94
796.395	52.02
796.572	51.64
796.749	51.07
796.925	51.74
797.102	51.84
797.279	51.39
797.456	51.46
797.632	49.15
797.809	50.06
797.986	50.13
798.162	49.88
798.339	49.51
798.516	50.35
798.692	51.48
798.869	50.39
799.046	51.6
799.222	51.18
799.399	49.85
799.575	50.56
799.752	51.07
799.928	50.96
800.105	50.41
800.281	49.21
800.458	48.52
800.634	47.89
800.811	47.92
800.987	47.33
801.163	47.51
801.34	47.99
801.516	48.47
801.692	47.96
801.869	48.27
802.045	47.9
802.221	50.11
802.398	50.2
802.574	51.17
802.75	51.51
802.926	51.51
803.103	51.83
803.279	50.6
803.455	50.07
803.631	50.02
803.807	50.74
803.983	51.51
804.16	51.01
804.336	50
804.512	48.76
804.688	48.5
804.864	47.3
805.04	47.94
805.216	48.84
805.392	49.71
805.568	48.47
805.744	46.67
805.92	46.18
806.096	44.97
806.272	47.05
806.448	47.87
806.623	47.95
806.799	49.11
806.975	48.86
807.151	50.03
807.327	49.19
807.503	50
807.678	52
807.854	50.81
808.03	51.43
808.206	50.17
808.381	48.97
808.557	49.77
808.733	49.67
808.908	48.36
809.084	48.17
809.26	48.53
809.435	48.47
809.611	46.2
809.787	47.03
809.962	46.65
810.138	47.95
810.313	48.84
810.489	50.08
810.664	49.45
810.84	49.72
811.015	50.7
811.191	50.79
811.366	51.29
811.542	53.19
811.717	54.6
811.892	54.07
812.068	52.7
812.243	53.05
812.419	50.94
812.594	50.51
812.769	50.64
812.944	49.54
813.12	49.58
813.295	49.68
813.47	49.01
813.645	47.64
813.821	49.04
813.996	47.86
814.171	48.35
814.346	49.38
814.521	49.87
814.697	51.55
814.872	51.25
815.047	50.58
815.222	51.2
815.397	51.45
815.572	50.61
815.747	48.9
815.922	49.9
816.097	48.53
816.272	48.2
816.447	48.16
816.622	46.5
816.797	48.06
816.972	47.78
817.147	44.89
817.322	43.59
817.496	43.74
817.671	45.52
817.846	44.9
818.021	44.05
818.196	42.48
818.371	42.57
818.545	41.94
818.72	41.09
818.895	40.02
819.069	42.12
819.244	42.16
819.419	41.73
819.594	39.59
819.768	39.51
819.943	39.03
820.117	38.25
820.292	37.09
820.467	36.56
820.641	35.59
820.816	35.72
820.99	34.3
821.165	33.63
821.339	33.34
821.514	32.78
821.688	32.36
821.863	32.33
822.037	32.26
822.212	32.21
822.386	32.12
822.56	32
822.735	31.94
822.909	31.95
823.084	32
823.258	31.98
823.432	32.16
823.606	32.24
823.781	32.14
823.955	32.35
824.129	32.5
824.303	32.95
824.478	32.66
824.652	32.53
824.826	33.05
825	33.31
825.174	33.54
825.348	33.83
825.523	34.18
825.697	34.28
825.871	34.17
826.045	34.24
826.219	33.52
826.393	34.52
826.567	34.7
826.741	34.62
826.915	34.17
827.089	34.29
827.263	34.76
827.437	34.34
827.611	34.8
827.784	35
827.958	35.37
828.132	35.67
828.306	35.19
828.48	35.4
828.654	35.57
828.827	36.44
829.001	36.59
829.175	36.35
829.349	37.57
829.522	37.67
829.696	37.9
829.87	38.38
830.044	38.97
830.217	39.79
830.391	38.9
830.565	38.74
830.738	38.75
830.912	38.35
831.085	38.26
831.259	38.23
831.432	37.44
831.606	38.1
831.779	37.58
831.953	35.99
832.126	36.29
832.3	37.65
832.473	37.76
832.647	37.35
832.82	36.17
832.994	36.43
833.167	35.16
833.34	36.35
833.514	35.8
833.687	34.96
833.86	35.35
834.034	35.33
834.207	35.26
834.38	35.38
834.553	35.55
834.727	36.96
834.9	36.59
835.073	36.79
835.246	36.87
835.419	37.37
835.593	38.27
835.766	38.58
835.939	39.5
836.112	39.71
836.285	40.14
836.458	39.73
836.631	40.05
836.804	41.34
836.977	43.51
837.15	43.18
837.323	44.46
837.496	45.88
837.669	47.1
837.842	47.34
838.015	47.61
838.188	46.09
838.361	47.33
838.533	46.76
838.706	46.04
838.879	44.86
839.052	44.61
839.225	44.47
839.398	41.19
839.57	40.23
839.743	40.69
839.916	42.08
840.088	45.27
840.261	45.1
840.434	43.84
840.607	45.37
840.779	46.35
840.952	46.77
841.124	45.98
841.297	48.32
841.47	49.21
841.642	48.02
841.815	49.44
841.987	47.27
842.16	49.04
842.332	52.62
842.505	52.44
842.677	53.12
842.85	52.96
843.022	51.78
843.194	51.75
843.367	53.1
843.539	55.52
843.712	53.55
843.884	52.67
844.056	53.87
844.229	53.67
844.401	55.01
844.573	53.96
844.745	55.33
844.918	57.01
845.09	57.1
845.262	55.69
845.434	54.6
845.606	53.98
845.779	59.29
845.951	57.53
846.123	54.18
846.295	51.7
846.467	51.22
846.639	53.9
846.811	53.83
846.983	53.85
847.155	56.95
847.327	56.5
847.499	58.39
847.671	55.34
847.843	56.24
848.015	59.3
848.187	62.61
848.359	64.87
848.531	62.54
848.703	61.94
848.875	62.84
849.047	58.94
849.218	61.44
849.39	63.16
849.562	67.67
849.734	64.29
849.905	62.35
850.077	59.99
850.249	60.92
850.421	57.41
850.592	58.76
850.764	57.79
850.936	58.98
851.107	54.87
851.279	52.37
851.451	48.76
851.622	49
851.794	55.58
851.965	54.9
852.137	52.71
852.308	56.62
852.48	56.5
852.651	56.01
852.823	60.21
852.994	61.04
853.166	62.28
853.337	62.26
853.509	64.4
853.68	59.65
853.851	58.67
854.023	58.96
854.194	58.34
854.365	57.45
854.537	57
854.708	58.68
854.879	60.45
855.05	60.94
855.222	63.93
855.393	66.14
855.564	67.36
855.735	67.24
855.906	64.65
856.078	65.81
856.249	71.72
856.42	72.21
856.591	68.48
856.762	71.88
856.933	71.32
857.104	66.11
857.275	63.6
857.446	64.54
857.617	67.37
857.788	69.14
857.959	68.54
858.13	64.63
858.301	68.15
858.472	68.97
858.643	64.66
858.814	62.6
858.985	63.9
859.155	63.3
859.326	62.41
859.497	63.81
859.668	64.94
859.839	65.95
860.009	64.52
860.18	60.49
860.351	60.71
860.522	58.22
860.692	60.26
860.863	60.76
861.034	63.4
861.204	58.04
861.375	54.18
861.546	53.46
861.716	51.67
861.887	58.29
862.057	59.94
862.228	57.18
862.398	57.88
862.569	54.7
862.739	54.02
862.91	51.7
863.08	55.12
863.251	58.97
863.421	56.22
863.592	58.59
863.762	50.05
863.932	52.71
864.103	56.59
864.273	58.42
864.443	60.31
864.614	58.95
864.784	62.4
864.954	59.15
865.125	58.11
865.295	63.88
865.465	61.48
865.635	63.61
865.805	58.86
865.976	58.42
866.146	60.48
866.316	63.17
866.486	62.87
866.656	63.87
866.826	70.77
866.996	69.7
867.166	66.76
867.336	67.51
867.506	66.68
867.676	70.42
867.846	69.9
868.016	69.35
868.186	65.75
868.356	66.99
868.526	60.26
868.696	53.43
868.866	51.75
869.036	48.91
869.206	52.6
869.376	52.36
869.545	53.62
869.715	54.75
869.885	49.84
870.055	56.81
870.224	59.86
870.394	61.38
870.564	63.42
870.734	65.83
870.903	68.27
871.073	61.83
871.243	60.8
871.412	66.22
871.582	60.89
871.751	65.61
871.921	60.62
872.091	59.5
872.26	57.39
872.43	56.13
872.599	56.65
872.769	54.32
872.938	53.26
873.108	51.6
873.277	39.8
873.446	43.13
873.616	39.11
873.785	41.99
873.955	41.51
874.124	44.99
874.293	44.8
874.463	43.17
874.632	45.82
874.801	51.45
874.971	56.74
875.14	58.48
875.309	54.91
875.478	54.59
875.647	50.34
875.817	48.71
875.986	51.82
876.155	50.58
876.324	51.66
876.493	52.96
876.662	49.55
876.831	47.96
877	50.82
877.17	53.03
877.339	55.07
877.508	58.92
877.677	62.95
877.846	59.03
878.015	62.84
878.184	61.9
878.352	57.14
878.521	56.99
878.69	53.19
878.859	52.93
879.028	53.65
879.197	53.3
879.366	50.51
879.534	46.71
879.703	44.33
879.872	40.85
880.041	37.06
880.21	37.12
880.378	37.03
880.547	35.78
880.716	32.88
880.884	31.13
881.053	29.02
881.222	28.09
881.39	28.26
881.559	27.87
881.727	27.57
881.896	27.75
882.065	27.67
882.233	27.13
882.402	27.08
882.57	27.71
882.739	27.99
882.907	28.1
883.076	28
883.244	27.43
883.412	27.53
883.581	27.65
883.749	28.01
883.918	27.94
884.086	28.46
884.254	29.75
884.423	30.85
884.591	31.01
884.759	30.84
884.927	32.24
885.096	33.29
885.264	35.68
885.432	36.73
885.6	36.51
885.769	37.32
885.937	39.18
886.105	39.13
886.273	39.03
886.441	38.11
886.609	43.11
886.777	44.43
886.945	46.67
887.113	46.41
887.281	46.28
887.449	52.04
887.617	54.48
887.785	49.3
887.953	48.86
888.121	47.62
888.289	51.32
888.457	49.74
888.625	47.65
888.793	48.9
888.961	47.95
889.129	44.7
889.296	42.86
889.464	40.96
889.632	44.12
889.8	45.92
889.967	46.36
890.135	43.73
