Data from 2938709__Reflection_05.txt Node
Date: Tue Mar 17 19:42:40 EDT 2015
User: robert
Spectrometer: USB4E03002
Autoset integration time: false
Trigger mode: 4
Integration Time (sec): 1.000000E-1
Scans to average: 10
Electric dark correction enabled: false
Nonlinearity correction enabled: false
Boxcar width: 5
Stray light correction enabled: false
XAxis mode: Wavelengths
Stop averaging: false
Number of Pixels in Spectrum: 3648
>>>>>Begin Spectral Data<<<<<
177.575	161.05
177.794	158.75
178.014	175.77
178.233	162.2
178.452	152.11
178.672	167.23
178.891	188.1
179.11	213.26
179.33	179.13
179.549	309.88
179.768	305.35
179.987	425.71
180.207	-3486.96
180.426	582.91
180.645	359.63
180.864	263.22
181.084	260.97
181.303	211.44
181.522	238.11
181.741	238.79
181.96	220.14
182.179	257.31
182.398	259.06
182.618	182.8
182.837	199.11
183.056	203.61
183.275	268.71
183.494	277.33
183.713	265.98
183.932	193.21
184.151	332.2
184.37	343.91
184.589	241.1
184.808	239.37
185.027	318.29
185.246	212.98
185.465	238.41
185.684	221.11
185.903	113.3
186.122	167.74
186.341	211.82
186.56	164.81
186.779	192.68
186.998	256.6
187.216	215.68
187.435	161.9
187.654	209.21
187.873	295.06
188.092	371.92
188.311	1526.32
188.53	721.59
188.748	516.59
188.967	292
189.186	331.6
189.405	295.42
189.623	268.72
189.842	292.57
190.061	387.8
190.28	274.78
190.498	439.77
190.717	281.63
190.936	353.01
191.154	2154.55
191.373	-1361.02
191.592	626.28
191.81	1777.5
192.029	2009.09
192.248	27566.67
192.466	-1122.37
192.685	-309.5
192.904	-1181.94
193.122	-1416.92
193.341	-3057.14
193.559	15233.33
193.778	3511.11
193.996	-1747.17
194.215	-1085.19
194.433	-529.94
194.652	-1404.69
194.87	1786
195.089	802.8
195.307	855.7
195.526	2264.52
195.744	2661.54
195.963	829.03
196.181	913.16
196.399	716
196.618	3618.18
196.836	857.58
197.055	469.8
197.273	572.04
197.491	485.09
197.71	416.84
197.928	342.44
198.146	359.54
198.365	284.8
198.583	285.34
198.801	236.57
199.019	177.08
199.238	167.26
199.456	175.41
199.674	177.94
199.892	193.32
200.111	212.8
200.329	289.6
200.547	352.48
200.765	3410.53
200.983	2390.91
201.202	-689.29
201.42	-299.6
201.638	-316.59
201.856	-202.33
202.074	-141.73
202.292	-238.18
202.51	-164.55
202.728	-168.49
202.946	-366.45
203.165	1891.67
203.383	10300
203.601	-676.25
203.819	-245.98
204.037	943.24
204.255	-1133.33
204.473	1058
204.691	1004.35
204.909	515.32
205.127	402.41
205.345	632.67
205.562	-1284.44
205.78	562.6
205.998	242.69
206.216	212.91
206.434	288.4
206.652	225.27
206.87	217.16
207.088	238.81
207.306	239.35
207.523	217.97
207.741	199.19
207.959	160.74
208.177	190.95
208.395	152.76
208.612	176.8
208.83	178.53
209.048	218.05
209.266	269.72
209.483	173.17
209.701	180
209.919	394.57
210.136	479.61
210.354	1420.45
210.572	296.05
210.79	-4018.18
211.007	322.43
211.225	293.64
211.442	169.73
211.66	95.02
211.878	120.31
212.095	-10.87
212.313	5.12
212.53	-20
212.748	-39.18
212.966	-56.59
213.183	-2.79
213.401	-3.21
213.618	-8.49
213.836	-18.99
214.053	-14.4
214.271	-13.26
214.488	105.71
214.705	84.85
214.923	90.45
215.14	107.92
215.358	127.21
215.575	130.2
215.793	192.85
216.01	197.09
216.227	250.88
216.445	183.17
216.662	168.92
216.879	313.21
217.097	243.89
217.314	299.17
217.531	211.78
217.749	184.79
217.966	150.51
218.183	126.97
218.4	107.39
218.618	97.37
218.835	98.39
219.052	99.31
219.269	85.1
219.487	79.58
219.704	97.25
219.921	80
220.138	65.87
220.355	50.63
220.572	53.19
220.79	52.72
221.007	62.49
221.224	69.84
221.441	70.76
221.658	64.62
221.875	58.57
222.092	49.89
222.309	47.62
222.526	44.16
222.743	43.49
222.96	43.89
223.177	40.83
223.394	38.46
223.611	33.13
223.828	30.79
224.045	30.29
224.262	34.41
224.479	30.3
224.696	33.82
224.913	39.3
225.13	36.02
225.347	27.65
225.564	26.76
225.781	25.75
225.997	26.28
226.214	24.3
226.431	23.9
226.648	18.17
226.865	18.06
227.082	13.46
227.298	8.55
227.515	7.26
227.732	10.41
227.949	10.48
228.165	8.06
228.382	7.63
228.599	6.33
228.816	5.56
229.032	6.33
229.249	6
229.466	6.85
229.682	6.86
229.899	7.51
230.116	6.89
230.332	6.25
230.549	6.8
230.765	6.75
230.982	7.41
231.199	7.46
231.415	6.99
231.632	6.82
231.848	7
232.065	7.97
232.281	7.68
232.498	6.73
232.714	9.67
232.931	10.4
233.147	9.29
233.364	9.78
233.58	11.62
233.797	11.27
234.013	11.41
234.23	11.37
234.446	12.55
234.662	13.16
234.879	12.78
235.095	10.07
235.312	10.29
235.528	12.28
235.744	11.64
235.961	9.57
236.177	11.2
236.393	11.8
236.61	12.05
236.826	10.51
237.042	11.16
237.258	12.96
237.475	13.19
237.691	11.84
237.907	11.21
238.123	11.08
238.339	10.65
238.556	10.6
238.772	10.14
238.988	9.82
239.204	10.43
239.42	11
239.636	10.13
239.853	9.84
240.069	10.19
240.285	8.75
240.501	8.88
240.717	8.91
240.933	8.9
241.149	7.88
241.365	7.42
241.581	6.95
241.797	6.52
242.013	6.04
242.229	6
242.445	5.66
242.661	6.03
242.877	5.26
243.093	5.05
243.309	3.91
243.525	4.4
243.741	4.29
243.957	4.52
244.173	4.2
244.388	4.5
244.604	4.64
244.82	5.36
245.036	5.38
245.252	5.84
245.468	6.46
245.683	6.68
245.899	6.57
246.115	6.56
246.331	6.28
246.547	5.94
246.762	5.43
246.978	5.48
247.194	5.31
247.409	5.2
247.625	5.46
247.841	5.31
248.057	5.35
248.272	5
248.488	4.73
248.703	4.81
248.919	5.32
249.135	5.87
249.35	6.02
249.566	5.78
249.782	5.74
249.997	5.57
250.213	5.38
250.428	5.61
250.644	5.97
250.859	6.11
251.075	6.48
251.29	5.8
251.506	5.73
251.721	5.45
251.937	5.79
252.152	5.84
252.368	5.83
252.583	6.11
252.798	6.34
253.014	6.24
253.229	6.21
253.445	5.56
253.66	5.28
253.875	4.8
254.091	5.17
254.306	5.09
254.521	4.77
254.737	5.02
254.952	5.68
255.167	5.04
255.383	5.35
255.598	5.01
255.813	4.66
256.028	4.67
256.244	6.42
256.459	5.9
256.674	5.84
256.889	6.21
257.104	5.55
257.32	4.04
257.535	4.46
257.75	4.69
257.965	4.52
258.18	4.65
258.395	4.79
258.61	3.92
258.826	3.57
259.041	3.54
259.256	3.35
259.471	3.2
259.686	3.52
259.901	3.24
260.116	3.06
260.331	3.24
260.546	3.06
260.761	3
260.976	3.04
261.191	3.1
261.406	3.12
261.621	3.36
261.836	3.75
262.05	3.52
262.265	3.53
262.48	3.44
262.695	4.06
262.91	5.18
263.125	5.35
263.34	5.58
263.555	6.53
263.769	6.13
263.984	6.19
264.199	6
264.414	5.72
264.629	6.12
264.843	6.52
265.058	5.69
265.273	4.98
265.488	4.6
265.702	4.5
265.917	3.94
266.132	4.68
266.346	3.83
266.561	4.15
266.776	4.61
266.99	4.44
267.205	4.3
267.42	3.97
267.634	3.98
267.849	3.89
268.063	3.99
268.278	3.53
268.492	3.1
268.707	3.76
268.922	3.32
269.136	3.17
269.351	2.81
269.565	2.75
269.78	2.79
269.994	2.56
270.209	2.59
270.423	2.45
270.637	2.66
270.852	3.04
271.066	2.93
271.281	3.2
271.495	3.01
271.709	3.15
271.924	3.31
272.138	3.59
272.353	3.67
272.567	3.85
272.781	3.95
272.996	4
273.21	4.04
273.424	4.17
273.638	3.99
273.853	4.18
274.067	4.18
274.281	4.05
274.495	4
274.71	3.75
274.924	3.8
275.138	3.68
275.352	4.04
275.566	3.96
275.781	3.96
275.995	4.17
276.209	3.98
276.423	3.94
276.637	3.77
276.851	3.77
277.065	4.28
277.279	3.95
277.493	3.78
277.707	3.49
277.921	3.4
278.135	3.57
278.349	3.56
278.563	3.99
278.777	4.18
278.991	4.34
279.205	4.04
279.419	3.84
279.633	4.15
279.847	4.39
280.061	4.45
280.275	4.14
280.489	3.99
280.703	4.04
280.917	4.15
281.131	4.36
281.344	4.45
281.558	4.37
281.772	4.21
281.986	3.93
282.2	3.63
282.414	3.54
282.627	3.71
282.841	3.05
283.055	2.63
283.269	2.25
283.482	1.74
283.696	1.54
283.91	2.05
284.123	1.93
284.337	1.99
284.551	2.24
284.764	2.33
284.978	2.15
285.192	2.83
285.405	3.06
285.619	3.19
285.833	3.35
286.046	3.48
286.26	3.32
286.473	3.61
286.687	3.51
286.9	3.36
287.114	3.26
287.327	3.49
287.541	3.21
287.754	3.15
287.968	3.1
288.181	3.08
288.395	3.44
288.608	3.77
288.822	3.82
289.035	4.25
289.248	4.48
289.462	4.88
289.675	4.72
289.889	4.88
290.102	4.79
290.315	4.9
290.529	5.16
290.742	4.79
290.955	4.66
291.169	4.46
291.382	4.23
291.595	4.14
291.808	3.87
292.022	3.79
292.235	3.71
292.448	3.8
292.661	3.98
292.875	3.93
293.088	4.2
293.301	4.01
293.514	4.19
293.727	3.86
293.94	4.05
294.153	4
294.367	4
294.58	4.07
294.793	4.36
295.006	4.1
295.219	4.13
295.432	3.66
295.645	3.62
295.858	3.75
296.071	4.03
296.284	4.08
296.497	4.1
296.71	4.04
296.923	4.13
297.136	4.06
297.349	4.12
297.562	3.98
297.775	4.41
297.988	4.32
298.201	4.32
298.414	4.59
298.626	4.61
298.839	4.75
299.052	4.93
299.265	4.5
299.478	4.68
299.691	4.97
299.903	5.38
300.116	5.39
300.329	5.68
300.542	5.78
300.755	5.84
300.967	5.58
301.18	5.76
301.393	5.95
301.605	5.89
301.818	5.49
302.031	5.11
302.243	4.87
302.456	4.58
302.669	4.48
302.881	4.44
303.094	4.03
303.307	3.94
303.519	3.72
303.732	3.42
303.944	3.9
304.157	4.39
304.37	4.51
304.582	4.83
304.795	5.16
305.007	5.38
305.22	5.05
305.432	5.28
305.645	5.61
305.857	5.77
306.069	6.15
306.282	6.34
306.494	5.65
306.707	5.73
306.919	5.4
307.132	5.34
307.344	5.01
307.556	5.03
307.769	5.31
307.981	5.21
308.193	4.9
308.406	5.15
308.618	5.32
308.83	5.64
309.043	5.95
309.255	6.06
309.467	6.05
309.679	6.05
309.892	6.57
310.104	6.32
310.316	6.04
310.528	6.22
310.74	6.15
310.953	6.06
311.165	6.21
311.377	6.05
311.589	6
311.801	5.84
312.013	5.76
312.225	5.38
312.437	5.21
312.649	5.76
312.862	5.57
313.074	5.41
313.286	5.51
313.498	5.35
313.71	5.39
313.922	5.48
314.134	5.65
314.346	6.17
314.558	6.26
314.77	6.78
314.982	6.61
315.193	6.98
315.405	6.95
315.617	6.85
315.829	6.61
316.041	6.13
316.253	6.03
316.465	6.12
316.677	6.11
316.888	6.18
317.1	6
317.312	5.86
317.524	5.71
317.736	5.72
317.947	5.63
318.159	6.29
318.371	6.82
318.583	6.86
318.794	6.95
319.006	6.75
319.218	6.49
319.43	6.83
319.641	7.18
319.853	7.58
320.064	8.05
320.276	8.19
320.488	7.98
320.699	7.96
320.911	8.49
321.123	8.72
321.334	9.03
321.546	9.48
321.757	9.18
321.969	9.28
322.18	9.25
322.392	8.44
322.603	8.62
322.815	8.75
323.026	9.05
323.238	8.75
323.449	8.68
323.661	8.66
323.872	8.89
324.083	9.11
324.295	9.04
324.506	8.82
324.718	9.33
324.929	9.37
325.14	9.69
325.352	9.9
325.563	10.15
325.774	10.14
325.986	10.42
326.197	10.47
326.408	10.65
326.62	10.97
326.831	11.21
327.042	11.55
327.253	11.69
327.464	11.7
327.676	11.74
327.887	11.91
328.098	12.06
328.309	11.84
328.52	12.13
328.732	12.04
328.943	12.37
329.154	12.83
329.365	12.78
329.576	12.86
329.787	12.74
329.998	13.05
330.209	13.38
330.42	13.75
330.631	14.35
330.842	14.51
331.053	14.65
331.264	14.77
331.475	14.58
331.686	14.92
331.897	15.14
332.108	15.99
332.319	15.34
332.53	15.13
332.741	15.15
332.952	15.41
333.163	15.39
333.374	15.54
333.585	15.33
333.795	15.42
334.006	15.32
334.217	15.55
334.428	15.08
334.639	15.77
334.849	15.99
335.06	15.85
335.271	15.57
335.482	15.29
335.692	15.64
335.903	15.43
336.114	15.46
336.325	15.57
336.535	15.32
336.746	15.54
336.957	15.36
337.167	15.24
337.378	15.35
337.589	15.5
337.799	15.8
338.01	15.78
338.22	15.91
338.431	15.83
338.642	15.73
338.852	15.6
339.063	15.69
339.273	15.72
339.484	15.43
339.694	15.1
339.905	14.96
340.115	14.94
340.326	14.73
340.536	14.82
340.746	14.66
340.957	14.74
341.167	14.84
341.378	14.74
341.588	14.63
341.799	14.98
342.009	15.14
342.219	15.2
342.43	15.12
342.64	14.79
342.85	14.76
343.061	14.85
343.271	14.54
343.481	14.53
343.691	14.28
343.902	14.17
344.112	14.31
344.322	14.27
344.532	14.32
344.743	14.22
344.953	14.44
345.163	14.38
345.373	14.54
345.583	14.6
345.793	14.74
346.004	14.88
346.214	15.07
346.424	14.76
346.634	15.09
346.844	14.98
347.054	15.11
347.264	15.16
347.474	15.32
347.684	15.45
347.894	15.6
348.104	15.35
348.314	15.13
348.524	14.9
348.734	15.01
348.944	14.8
349.154	14.76
349.364	14.55
349.574	14.42
349.784	14.49
349.994	14.32
350.204	14.05
350.413	14.13
350.623	13.97
350.833	14.05
351.043	14.07
351.253	14.17
351.463	14.35
351.672	14.31
351.882	14.69
352.092	14.47
352.302	14.39
352.511	14.94
352.721	14.71
352.931	14.84
353.141	14.8
353.35	14.61
353.56	14.5
353.77	14.04
353.979	13.98
354.189	14.01
354.399	13.93
354.608	13.93
354.818	13.78
355.027	13.86
355.237	13.9
355.447	13.93
355.656	13.91
355.866	13.81
356.075	13.97
356.285	14.12
356.494	13.71
356.704	14.02
356.913	14.21
357.123	13.92
357.332	13.84
357.542	13.63
357.751	13.72
357.96	13.93
358.17	13.92
358.379	13.9
358.589	13.97
358.798	14.11
359.007	14.11
359.217	13.83
359.426	13.66
359.635	13.91
359.845	14.32
360.054	14.33
360.263	14.18
360.472	14.13
360.682	14.36
360.891	14.3
361.1	14.21
361.309	14.08
361.519	13.96
361.728	14.09
361.937	13.91
362.146	13.69
362.355	13.48
362.564	13.45
362.774	13.63
362.983	13.39
363.192	13.31
363.401	13.57
363.61	13.48
363.819	13.63
364.028	13.6
364.237	13.67
364.446	13.65
364.655	13.74
364.864	13.67
365.073	13.45
365.282	13.51
365.491	13.38
365.7	13.09
365.909	13.09
366.118	13.23
366.327	13.18
366.536	13.32
366.745	13.3
366.954	13.35
367.162	13.34
367.371	13.32
367.58	13.25
367.789	13.1
367.998	13.05
368.207	12.84
368.415	12.87
368.624	12.79
368.833	12.44
369.042	12.55
369.25	12.58
369.459	12.52
369.668	12.55
369.877	12.49
370.085	12.68
370.294	12.79
370.503	12.68
370.711	12.23
370.92	12.28
371.129	12.23
371.337	12.03
371.546	11.97
371.754	12.12
371.963	12.03
372.171	12.13
372.38	12.3
372.589	12.17
372.797	12.32
373.006	12.31
373.214	12.14
373.423	12.32
373.631	12.31
373.84	12.11
374.048	11.91
374.256	12.05
374.465	12.05
374.673	11.88
374.882	11.78
375.09	11.7
375.298	11.79
375.507	11.73
375.715	11.54
375.923	11.51
376.132	11.67
376.34	11.49
376.548	11.28
376.757	11.14
376.965	11.02
377.173	10.9
377.381	10.72
377.59	10.86
377.798	11.09
378.006	11.09
378.214	11.2
378.423	11.23
378.631	11.28
378.839	11.19
379.047	11.26
379.255	11.38
379.463	11.5
379.671	11.59
379.879	11.38
380.088	11.17
380.296	11.25
380.504	10.91
380.712	10.59
380.92	10.6
381.128	10.72
381.336	10.53
381.544	10.35
381.752	10.14
381.96	10.23
382.168	10.29
382.376	10.49
382.584	10.25
382.791	10.3
382.999	10.19
383.207	10.17
383.415	10.13
383.623	10.11
383.831	10.01
384.039	10.11
384.247	9.9
384.454	9.78
384.662	9.38
384.87	9.5
385.078	9.46
385.285	9.51
385.493	9.41
385.701	9.38
385.909	9.32
386.116	9.21
386.324	9.16
386.532	9.07
386.739	9.01
386.947	9.18
387.155	9.13
387.362	9.08
387.57	8.99
387.778	9.02
387.985	8.74
388.193	8.61
388.4	8.88
388.608	8.93
388.816	8.84
389.023	8.88
389.231	8.72
389.438	8.61
389.646	8.57
389.853	8.71
390.061	8.63
390.268	8.74
390.475	9
390.683	8.82
390.89	8.65
391.098	8.76
391.305	8.75
391.512	8.87
391.72	8.89
391.927	8.94
392.135	8.69
392.342	8.48
392.549	8.51
392.756	8.46
392.964	8.38
393.171	8.37
393.378	8.35
393.586	8.2
393.793	8.12
394	8.03
394.207	8.07
394.414	8.16
394.622	8.25
394.829	8.28
395.036	7.98
395.243	7.93
395.45	7.89
395.657	7.98
395.864	8.1
396.072	8.11
396.279	8.12
396.486	7.96
396.693	7.81
396.9	7.7
397.107	7.41
397.314	7.41
397.521	7.54
397.728	7.54
397.935	7.11
398.142	6.99
398.349	6.86
398.556	6.89
398.763	6.86
398.97	6.96
399.177	6.97
399.383	6.88
399.59	6.97
399.797	6.8
400.004	6.75
400.211	7.08
400.418	7.03
400.625	7.09
400.831	7.01
401.038	7.12
401.245	7.19
401.452	7.22
401.658	7.4
401.865	7.29
402.072	7.31
402.279	7.39
402.485	7.24
402.692	7.23
402.899	7.22
403.105	7.22
403.312	6.99
403.519	6.87
403.725	6.82
403.932	6.77
404.138	6.91
404.345	6.9
404.552	6.66
404.758	6.92
404.965	6.94
405.171	6.95
405.378	6.94
405.584	7.05
405.791	7.08
405.997	7.15
406.204	7.13
406.41	7.04
406.617	6.95
406.823	7.24
407.029	6.84
407.236	6.82
407.442	6.93
407.649	6.91
407.855	6.85
408.061	6.64
408.268	6.54
408.474	6.59
408.68	6.62
408.887	6.79
409.093	6.58
409.299	6.79
409.505	6.75
409.712	6.59
409.918	6.45
410.124	6.57
410.33	6.69
410.537	6.65
410.743	6.77
410.949	6.74
411.155	6.54
411.361	6.49
411.567	6.23
411.773	6.16
411.98	6.06
412.186	6.23
412.392	6.12
412.598	6.04
412.804	5.96
413.01	5.92
413.216	5.92
413.422	5.92
413.628	6.14
413.834	6.33
414.04	6.45
414.246	6.4
414.452	6.28
414.658	6.34
414.864	6.32
415.07	6.41
415.275	6.19
415.481	6.1
415.687	6.06
415.893	5.96
416.099	5.98
416.305	5.9
416.511	5.94
416.716	5.97
416.922	5.9
417.128	5.98
417.334	5.95
417.539	5.96
417.745	5.92
417.951	5.95
418.157	5.96
418.362	5.93
418.568	5.9
418.774	5.9
418.979	5.88
419.185	5.87
419.391	5.77
419.596	5.82
419.802	5.87
420.008	5.84
420.213	6.52
420.419	6.46
420.624	6.42
420.83	6.32
421.035	6.3
421.241	6.23
421.446	6.32
421.652	6.33
421.857	6.24
422.063	6.25
422.268	6.32
422.474	5.65
422.679	5.63
422.885	5.64
423.09	5.72
423.295	5.77
423.501	5.77
423.706	5.71
423.911	5.7
424.117	5.69
424.322	5.64
424.527	5.65
424.733	5.66
424.938	5.66
425.143	5.65
425.349	5.68
425.554	5.57
425.759	5.64
425.964	5.68
426.169	5.73
426.375	5.84
426.58	5.87
426.785	5.85
426.99	5.97
427.195	5.98
427.4	5.95
427.605	5.89
427.811	5.93
428.016	5.84
428.221	5.73
428.426	5.72
428.631	5.68
428.836	5.66
429.041	5.64
429.246	5.51
429.451	5.54
429.656	5.57
429.861	5.63
430.066	5.66
430.271	5.73
430.476	5.75
430.681	5.76
430.886	5.72
431.09	5.72
431.295	5.71
431.5	5.81
431.705	5.76
431.91	5.74
432.115	5.73
432.32	5.71
432.524	5.69
432.729	5.58
432.934	5.59
433.139	5.65
433.343	5.6
433.548	5.5
433.753	5.43
433.958	5.37
434.162	5.37
434.367	5.37
434.572	5.35
434.776	5.4
434.981	5.55
435.186	5.51
435.39	5.48
435.595	5.55
435.799	5.68
436.004	5.7
436.209	5.75
436.413	5.77
436.618	5.8
436.822	5.83
437.027	5.72
437.231	5.59
437.436	5.58
437.64	5.63
437.845	5.51
438.049	5.41
438.253	5.43
438.458	5.57
438.662	5.57
438.867	5.56
439.071	5.56
439.275	5.57
439.48	5.57
439.684	5.6
439.888	5.51
440.093	5.55
440.297	5.52
440.501	5.45
440.706	5.42
440.91	5.41
441.114	5.37
441.318	5.39
441.523	5.47
441.727	5.54
441.931	5.6
442.135	5.62
442.339	5.66
442.543	5.78
442.748	5.84
442.952	5.77
443.156	5.72
443.36	5.7
443.564	5.69
443.768	5.62
443.972	5.62
444.176	5.57
444.38	5.55
444.584	5.53
444.788	5.57
444.992	5.54
445.196	5.57
445.4	5.6
445.604	5.66
445.808	5.63
446.012	5.66
446.216	5.66
446.42	5.71
446.624	5.7
446.828	5.68
447.032	5.65
447.235	5.62
447.439	5.6
447.643	5.57
447.847	5.5
448.051	5.54
448.254	5.55
448.458	5.53
448.662	5.43
448.866	5.47
449.069	5.49
449.273	5.46
449.477	5.52
449.681	5.58
449.884	5.61
450.088	5.78
450.292	5.75
450.495	5.68
450.699	5.66
450.902	5.59
451.106	5.56
451.31	5.49
451.513	5.52
451.717	5.49
451.92	5.48
452.124	5.42
452.327	5.22
452.531	5.2
452.734	5.23
452.938	5.18
453.141	5.25
453.345	5.14
453.548	5.22
453.752	5.13
453.955	5.06
454.158	4.99
454.362	5
454.565	5.13
454.769	5.12
454.972	5.09
455.175	5.14
455.379	5.13
455.582	5.34
455.785	5.32
455.988	5.45
456.192	5.47
456.395	5.44
456.598	5.48
456.801	5.45
457.005	5.44
457.208	5.48
457.411	5.45
457.614	5.51
457.817	5.45
458.021	5.45
458.224	5.41
458.427	5.42
458.63	5.39
458.833	5.37
459.036	5.27
459.239	5.33
459.442	5.3
459.645	5.39
459.848	5.38
460.051	5.28
460.254	5.34
460.457	5.35
460.66	5.39
460.863	5.43
461.066	5.44
461.269	5.55
461.472	5.53
461.675	5.62
461.878	5.53
462.081	5.48
462.284	5.6
462.486	5.56
462.689	5.56
462.892	5.6
463.095	5.63
463.298	5.64
463.5	5.58
463.703	5.61
463.906	5.46
464.109	5.54
464.311	5.6
464.514	5.59
464.717	5.6
464.92	5.61
465.122	5.58
465.325	5.62
465.528	5.65
465.73	5.73
465.933	5.72
466.135	5.78
466.338	5.69
466.541	5.73
466.743	5.66
466.946	5.68
467.148	5.73
467.351	5.65
467.553	5.63
467.756	5.63
467.958	5.66
468.161	5.65
468.363	5.66
468.566	5.64
468.768	5.56
468.971	5.59
469.173	5.54
469.375	5.43
469.578	5.44
469.78	5.39
469.983	5.41
470.185	5.37
470.387	5.4
470.59	5.5
470.792	5.53
470.994	5.6
471.196	5.62
471.399	5.69
471.601	5.77
471.803	5.84
472.005	5.9
472.208	5.88
472.41	5.84
472.612	5.81
472.814	5.67
473.016	5.76
473.218	5.82
473.421	5.9
473.623	5.89
473.825	5.92
474.027	5.84
474.229	5.78
474.431	5.85
474.633	5.84
474.835	5.91
475.037	5.93
475.239	5.96
475.441	5.86
475.643	5.85
475.845	5.74
476.047	5.72
476.249	5.78
476.451	5.8
476.653	5.74
476.855	5.71
477.057	5.74
477.258	5.8
477.46	5.76
477.662	5.75
477.864	5.67
478.066	5.74
478.268	5.74
478.469	5.72
478.671	5.79
478.873	5.79
479.075	5.83
479.276	5.7
479.478	5.56
479.68	5.57
479.882	5.64
480.083	5.68
480.285	5.61
480.487	5.64
480.688	5.67
480.89	5.66
481.091	5.62
481.293	5.66
481.495	5.68
481.696	5.73
481.898	5.68
482.099	5.6
482.301	5.54
482.502	5.53
482.704	5.5
482.905	5.42
483.107	5.38
483.308	5.37
483.51	5.33
483.711	5.34
483.913	5.33
484.114	5.32
484.315	5.31
484.517	5.32
484.718	5.33
484.92	5.33
485.121	5.36
485.322	5.39
485.524	5.41
485.725	5.39
485.926	5.38
486.127	5.39
486.329	5.4
486.53	5.42
486.731	5.41
486.932	5.43
487.134	5.4
487.335	5.41
487.536	5.4
487.737	5.42
487.938	5.44
488.139	5.43
488.341	5.44
488.542	5.44
488.743	5.48
488.944	5.5
489.145	5.5
489.346	5.52
489.547	5.53
489.748	5.52
489.949	5.56
490.15	5.57
490.351	5.58
490.552	5.57
490.753	5.54
490.954	5.51
491.155	5.51
491.356	5.49
491.557	5.53
491.758	5.53
491.959	5.56
492.159	5.48
492.36	5.53
492.561	5.55
492.762	5.56
492.963	5.6
493.164	5.69
493.364	5.71
493.565	5.71
493.766	5.69
493.967	5.73
494.167	5.71
494.368	5.81
494.569	5.8
494.769	5.85
494.97	5.87
495.171	5.93
495.371	5.91
495.572	5.96
495.773	6.07
495.973	6.16
496.174	6.12
496.375	6.14
496.575	6.23
496.776	6.22
496.976	6.19
497.177	6.23
497.377	6.22
497.578	6.23
497.778	6.24
497.979	6.26
498.179	6.29
498.38	6.32
498.58	6.36
498.78	6.35
498.981	6.41
499.181	6.41
499.382	6.43
499.582	6.48
499.782	6.44
499.983	6.58
500.183	6.57
500.383	6.55
500.584	6.58
500.784	6.62
500.984	6.61
501.184	6.63
501.385	6.74
501.585	6.74
501.785	6.77
501.985	6.9
502.185	6.77
502.386	6.89
502.586	6.98
502.786	7.01
502.986	6.96
503.186	7.04
503.386	7.05
503.586	7.1
503.786	7.14
503.987	7.25
504.187	7.24
504.387	7.35
504.587	7.3
504.787	7.31
504.987	7.44
505.187	7.54
505.387	7.64
505.587	7.72
505.786	7.74
505.986	7.86
506.186	7.81
506.386	7.84
506.586	7.88
506.786	7.91
506.986	7.93
507.186	7.93
507.386	7.94
507.585	7.95
507.785	7.97
507.985	8.07
508.185	8.08
508.384	8.12
508.584	8.19
508.784	8.28
508.984	8.32
509.183	8.42
509.383	8.48
509.583	8.56
509.782	8.63
509.982	8.79
510.182	8.88
510.381	8.94
510.581	9.04
510.781	9.11
510.98	9.15
511.18	9.28
511.379	9.37
511.579	9.46
511.778	9.61
511.978	9.69
512.177	9.67
512.377	9.7
512.576	9.8
512.776	9.94
512.975	10.04
513.175	10.08
513.374	10.13
513.573	10.16
513.773	10.22
513.972	10.22
514.172	10.34
514.371	10.44
514.57	10.53
514.77	10.57
514.969	10.57
515.168	10.66
515.367	10.78
515.567	10.88
515.766	10.98
515.965	11.04
516.164	11.09
516.364	11.11
516.563	11.23
516.762	11.4
516.961	11.55
517.16	11.62
517.359	11.72
517.559	11.86
517.758	11.91
517.957	12.08
518.156	12.17
518.355	12.29
518.554	12.36
518.753	12.42
518.952	12.45
519.151	12.5
519.35	12.58
519.549	12.66
519.748	12.7
519.947	12.9
520.146	12.9
520.345	13
520.544	13.15
520.743	13.26
520.942	13.42
521.141	13.6
521.339	13.77
521.538	13.93
521.737	14.08
521.936	14.16
522.135	14.21
522.333	14.39
522.532	14.5
522.731	14.62
522.93	14.84
523.129	14.91
523.327	14.95
523.526	14.97
523.725	15.07
523.923	15.13
524.122	15.3
524.321	15.35
524.519	15.45
524.718	15.58
524.917	15.67
525.115	15.74
525.314	15.85
525.512	15.95
525.711	16.12
525.909	16.24
526.108	16.33
526.306	16.4
526.505	16.54
526.703	16.63
526.902	16.71
527.1	16.79
527.299	16.88
527.497	16.98
527.696	17.03
527.894	17.1
528.092	17.2
528.291	17.24
528.489	17.3
528.688	17.37
528.886	17.43
529.084	17.49
529.283	17.57
529.481	17.63
529.679	17.68
529.877	17.82
530.076	17.92
530.274	17.98
530.472	18.12
530.67	18.21
530.869	18.37
531.067	18.49
531.265	18.69
531.463	18.82
531.661	19.02
531.859	19.15
532.057	19.18
532.255	19.32
532.454	19.43
532.652	19.53
532.85	19.6
533.048	19.64
533.246	19.71
533.444	19.72
533.642	19.78
533.84	19.79
534.038	19.85
534.236	19.95
534.434	20
534.632	20.06
534.83	20.12
535.027	20.29
535.225	20.39
535.423	20.48
535.621	20.59
535.819	20.73
536.017	20.82
536.215	20.97
536.412	21.07
536.61	21.16
536.808	21.21
537.006	21.36
537.203	21.4
537.401	21.53
537.599	21.68
537.797	21.81
537.994	21.82
538.192	21.95
538.39	22.05
538.587	22.25
538.785	22.4
538.983	22.64
539.18	22.75
539.378	22.93
539.575	23.07
539.773	23.15
539.97	23.27
540.168	23.42
540.366	23.56
540.563	23.67
540.761	23.73
540.958	23.75
541.155	23.78
541.353	23.8
541.55	23.84
541.748	23.92
541.945	24.01
542.143	24.07
542.34	24.13
542.537	24.13
542.735	24.23
542.932	24.34
543.129	24.53
543.327	24.67
543.524	24.83
543.721	25.04
543.919	25.24
544.116	25.46
544.313	25.77
544.51	26.07
544.708	26.42
544.905	26.65
545.102	26.84
545.299	27.06
545.496	27.29
545.693	27.46
545.891	27.51
546.088	27.53
546.285	27.52
546.482	27.4
546.679	27.29
546.876	27.2
547.073	27.18
547.27	27.06
547.467	26.92
547.664	26.8
547.861	26.86
548.058	26.85
548.255	26.85
548.452	26.8
548.649	26.84
548.846	26.79
549.043	26.8
549.24	26.7
549.437	26.77
549.633	26.76
549.83	26.81
550.027	26.71
550.224	26.68
550.421	26.65
550.618	26.72
550.814	26.64
551.011	26.68
551.208	26.61
551.405	26.53
551.601	26.44
551.798	26.43
551.995	26.39
552.191	26.39
552.388	26.44
552.585	26.35
552.781	26.32
552.978	26.37
553.175	26.45
553.371	26.49
553.568	26.63
553.764	26.62
553.961	26.63
554.157	26.7
554.354	26.66
554.55	26.55
554.747	26.63
554.943	26.62
555.14	26.62
555.336	26.53
555.533	26.6
555.729	26.54
555.926	26.7
556.122	26.79
556.318	26.69
556.515	26.74
556.711	26.9
556.907	26.85
557.104	26.95
557.3	26.96
557.496	27.07
557.693	27.14
557.889	27.21
558.085	27.1
558.281	27.04
558.478	27.08
558.674	27.11
558.87	27.13
559.066	27.23
559.262	27.17
559.459	27.25
559.655	27.31
559.851	27.29
560.047	27.27
560.243	27.5
560.439	27.54
560.635	27.64
560.831	27.59
561.027	27.56
561.223	27.55
561.419	27.59
561.615	27.44
561.811	27.5
562.007	27.42
562.203	27.36
562.399	27.18
562.595	27.15
562.791	27.12
562.987	27.18
563.183	27.36
563.379	27.37
563.575	27.48
563.771	27.62
563.966	27.53
564.162	27.6
564.358	27.74
564.554	27.82
564.75	27.87
564.945	27.94
565.141	27.93
565.337	27.77
565.533	27.84
565.728	27.85
565.924	27.85
566.12	27.83
566.315	27.93
566.511	27.88
566.707	27.95
566.902	28.02
567.098	28.02
567.293	28.06
567.489	28.07
567.684	28.04
567.88	27.96
568.076	28.05
568.271	28.21
568.467	28.28
568.662	28.35
568.858	28.35
569.053	28.38
569.248	28.39
569.444	28.58
569.639	28.63
569.835	28.6
570.03	28.66
570.225	28.65
570.421	28.58
570.616	28.46
570.812	28.56
571.007	28.6
571.202	28.65
571.397	28.71
571.593	28.64
571.788	28.78
571.983	28.83
572.178	28.87
572.374	28.79
572.569	28.85
572.764	28.86
572.959	28.77
573.154	28.67
573.35	28.64
573.545	28.61
573.74	28.58
573.935	28.53
574.13	28.64
574.325	28.62
574.52	28.82
574.715	28.88
574.91	28.93
575.105	29.05
575.3	29.21
575.495	29.26
575.69	29.37
575.885	29.51
576.08	29.58
576.275	29.64
576.47	29.87
576.665	29.95
576.86	30.09
577.055	30.22
577.25	30.32
577.444	30.52
577.639	30.67
577.834	30.74
578.029	30.73
578.224	30.79
578.418	30.72
578.613	30.73
578.808	30.7
579.003	30.62
579.197	30.67
579.392	30.74
579.587	30.65
579.781	30.55
579.976	30.59
580.171	30.59
580.365	30.54
580.56	30.59
580.755	30.58
580.949	30.74
581.144	30.74
581.338	30.76
581.533	30.73
581.727	30.67
581.922	30.75
582.116	30.81
582.311	30.92
582.505	30.96
582.7	31.07
582.894	31.11
583.089	31.03
583.283	31.18
583.478	31.3
583.672	31.27
583.866	31.36
584.061	31.51
584.255	31.44
584.449	31.5
584.644	31.72
584.838	31.73
585.032	31.79
585.226	31.96
585.421	31.9
585.615	31.96
585.809	31.96
586.003	32.13
586.198	32.06
586.392	32.27
586.586	32.37
586.78	32.4
586.974	32.37
587.168	32.39
587.363	32.31
587.557	32.24
587.751	32.17
587.945	32.28
588.139	32.22
588.333	32.23
588.527	31.99
588.721	31.82
588.915	31.59
589.109	31.71
589.303	31.66
589.497	31.58
589.691	31.68
589.885	31.56
590.079	31.45
590.273	31.41
590.466	31.52
590.66	31.69
590.854	31.82
591.048	32.01
591.242	32.07
591.436	32.23
591.629	32.39
591.823	32.41
592.017	32.53
592.211	32.77
592.404	32.84
592.598	32.81
592.792	32.76
592.986	32.75
593.179	32.8
593.373	32.71
593.567	32.58
593.76	32.44
593.954	32.46
594.147	32.51
594.341	32.4
594.535	32.37
594.728	32.15
594.922	32.14
595.115	32.05
595.309	31.98
595.502	32.02
595.696	31.95
595.889	31.93
596.083	31.94
596.276	31.86
596.47	31.79
596.663	31.71
596.856	31.85
597.05	31.9
597.243	31.91
597.437	31.95
597.63	32.08
597.823	32.22
598.017	32.3
598.21	32.34
598.403	32.45
598.596	32.64
598.79	32.74
598.983	32.88
599.176	32.98
599.369	33.06
599.563	33.03
599.756	32.81
599.949	32.79
600.142	32.77
600.335	32.83
600.528	32.82
600.722	32.66
600.915	32.67
601.108	32.47
601.301	32.41
601.494	32.38
601.687	32.4
601.88	32.45
602.073	32.42
602.266	32.29
602.459	32.16
602.652	32.03
602.845	32.03
603.038	31.93
603.231	32.04
603.424	31.98
603.617	32.02
603.809	32.07
604.002	31.99
604.195	31.95
604.388	32.06
604.581	32.08
604.774	32.2
604.966	32.29
605.159	32.37
605.352	32.46
605.545	32.58
605.737	32.64
605.93	32.65
606.123	32.78
606.316	32.95
606.508	33.12
606.701	33.28
606.894	33.45
607.086	33.64
607.279	33.81
607.471	33.88
607.664	33.98
607.857	34.21
608.049	34.53
608.242	34.99
608.434	35.48
608.627	36.06
608.819	36.84
609.012	37.63
609.204	38.41
609.397	39.29
609.589	40.35
609.782	41.52
609.974	42.78
610.166	44.12
610.359	45.29
610.551	46.41
610.743	47.32
610.936	48.14
611.128	48.88
611.32	49.43
611.513	49.84
611.705	49.96
611.897	49.85
612.09	49.46
612.282	48.86
612.474	48.37
612.666	47.62
612.858	46.93
613.051	46.2
613.243	45.36
613.435	44.69
613.627	44.08
613.819	43.7
614.011	43.17
614.203	42.51
614.395	42.04
614.588	41.39
614.78	40.91
614.972	40.33
615.164	39.76
615.356	39.19
615.548	38.74
615.74	38.38
615.932	37.77
616.124	37.44
616.315	37.32
616.507	36.79
616.699	36.46
616.891	36.22
617.083	36.08
617.275	35.8
617.467	35.53
617.659	35.39
617.85	35.15
618.042	34.9
618.234	34.79
618.426	34.58
618.618	34.65
618.809	34.56
619.001	34.41
619.193	34.58
619.384	34.48
619.576	34.67
619.768	34.54
619.959	34.54
620.151	34.67
620.343	34.62
620.534	34.7
620.726	34.43
620.917	34.49
621.109	34.5
621.301	34.3
621.492	34.37
621.684	34.34
621.875	34.49
622.067	34.38
622.258	34.35
622.45	34.36
622.641	34.25
622.832	34.55
623.024	34.63
623.215	34.59
623.407	34.75
623.598	34.9
623.789	34.72
623.981	34.66
624.172	34.69
624.363	34.84
624.555	34.78
624.746	34.81
624.937	34.82
625.129	34.75
625.32	34.85
625.511	34.72
625.702	34.78
625.893	34.91
626.085	34.92
626.276	34.98
626.467	34.9
626.658	35.09
626.849	34.9
627.04	34.95
627.231	35.09
627.422	35.03
627.614	35.07
627.805	34.96
627.996	35.09
628.187	35.24
628.378	35.5
628.569	35.49
628.76	35.41
628.951	35.73
629.142	35.81
629.332	35.74
629.523	36.08
629.714	36.14
629.905	36.38
630.096	36.35
630.287	36.31
630.478	36.18
630.669	36.3
630.859	36.34
631.05	36.29
631.241	36.23
631.432	36.01
631.623	35.71
631.813	35.56
632.004	35.19
632.195	35.04
632.385	34.9
632.576	34.81
632.767	34.56
632.957	34.41
633.148	34.08
633.339	33.91
633.529	34.02
633.72	33.97
633.91	33.94
634.101	33.89
634.292	33.81
634.482	33.74
634.673	33.51
634.863	33.45
635.054	33.31
635.244	33.36
635.435	33.22
635.625	32.94
635.815	32.88
636.006	32.63
636.196	32.72
636.387	32.87
636.577	32.86
636.767	32.99
636.958	32.93
637.148	32.94
637.338	32.98
637.529	33.07
637.719	33.44
637.909	33.49
638.099	33.75
638.29	33.6
638.48	33.31
638.67	33.17
638.86	33.05
639.05	32.85
639.241	33.08
639.431	32.97
639.621	33
639.811	32.75
640.001	32.74
640.191	32.66
640.381	32.79
640.571	33.15
640.761	33.16
640.951	33.1
641.141	33.53
641.331	33.32
641.521	33.42
641.711	33.3
641.901	33.23
642.091	33.08
642.281	33.12
642.471	32.9
642.661	32.7
642.851	32.99
643.041	32.99
643.231	32.8
643.42	32.76
643.61	32.51
643.8	32.52
643.99	32.62
644.18	32.62
644.369	32.75
644.559	32.8
644.749	32.87
644.939	32.62
645.128	32.61
645.318	32.68
645.508	32.82
645.697	33.13
645.887	32.99
646.076	32.96
646.266	32.99
646.456	32.82
646.645	33.04
646.835	32.95
647.024	33.13
647.214	33.24
647.403	33.3
647.593	33.26
647.782	33.49
647.972	33.82
648.161	33.89
648.351	34.14
648.54	34.34
648.73	34.41
648.919	34.44
649.108	34.34
649.298	34.29
649.487	34.42
649.677	34.55
649.866	34.3
650.055	34.38
650.244	34.5
650.434	34.45
650.623	34.39
650.812	34.17
651.002	34.23
651.191	34.3
651.38	34.2
651.569	34.09
651.758	33.98
651.947	34.02
652.137	34.08
652.326	33.9
652.515	33.8
652.704	33.76
652.893	33.77
653.082	33.87
653.271	33.92
653.46	34.1
653.649	34.05
653.838	34.07
654.027	34.2
654.216	33.8
654.405	33.81
654.594	33.91
654.783	33.87
654.972	33.85
655.161	33.76
655.35	33.73
655.539	33.52
655.728	33.22
655.916	33.03
656.105	32.76
656.294	32.87
656.483	32.78
656.672	32.78
656.86	32.71
657.049	32.84
657.238	32.99
657.427	32.97
657.615	33.12
657.804	33.31
657.993	33.27
658.181	33.36
658.37	33.4
658.559	33.45
658.747	33.38
658.936	33.46
659.125	33.71
659.313	33.69
659.502	33.64
659.69	33.68
659.879	33.62
660.067	33.71
660.256	33.82
660.444	33.87
660.633	34.04
660.821	33.97
661.01	34.1
661.198	33.9
661.387	33.68
661.575	33.8
661.763	33.84
661.952	34.08
662.14	34.08
662.328	33.86
662.517	33.94
662.705	33.86
662.893	34
663.082	34.18
663.27	33.9
663.458	33.88
663.646	33.82
663.834	33.51
664.023	33.4
664.211	33.57
664.399	33.65
664.587	33.58
664.775	33.4
664.963	33.51
665.152	33.3
665.34	33.69
665.528	33.75
665.716	33.7
665.904	34.08
666.092	33.92
666.28	33.83
666.468	33.86
666.656	33.95
666.844	34.05
667.032	34.19
667.22	34.17
667.408	34.21
667.596	34.37
667.784	34.3
667.971	33.94
668.159	34.24
668.347	34.41
668.535	34.44
668.723	34.3
668.911	34.51
669.098	34.2
669.286	34.15
669.474	33.81
669.662	33.63
669.849	33.86
670.037	33.98
670.225	33.92
670.413	33.86
670.6	33.79
670.788	33.67
670.976	33.36
671.163	33.49
671.351	33.44
671.538	33.4
671.726	33.4
671.913	33.31
672.101	33.45
672.289	33.44
672.476	33.17
672.664	33.22
672.851	33.16
673.039	33.4
673.226	33.26
673.413	33.41
673.601	33.48
673.788	33.36
673.976	33.25
674.163	33.2
674.35	33.29
674.538	33.36
674.725	33.3
674.912	33.43
675.1	33.4
675.287	33.5
675.474	33.11
675.662	33.16
675.849	33.29
676.036	33.41
676.223	33.46
676.411	33.43
676.598	33.51
676.785	33.4
676.972	33.41
677.159	33.19
677.346	33.02
677.533	33.28
677.721	33.19
677.908	33.3
678.095	33.17
678.282	33.03
678.469	32.86
678.656	32.96
678.843	33.04
679.03	32.93
679.217	33.15
679.404	33.3
679.591	33.04
679.778	33.15
679.964	33.11
680.151	32.98
680.338	33.2
680.525	33.12
680.712	32.95
680.899	32.99
681.086	33.17
681.272	33.09
681.459	32.95
681.646	33.3
681.833	33.04
682.02	33.11
682.206	33.15
682.393	32.92
682.58	33.07
682.766	33.08
682.953	33.29
683.14	33.28
683.326	33.07
683.513	32.96
683.7	32.64
683.886	32.83
684.073	32.63
684.259	32.75
684.446	32.74
684.632	32.78
684.819	32.94
685.005	32.83
685.192	32.77
685.378	32.83
685.565	32.82
685.751	33.22
685.938	33.42
686.124	33.58
686.31	33.5
686.497	33.78
686.683	33.85
686.87	33.87
687.056	33.87
687.242	33.94
687.429	34.18
687.615	34.63
687.801	34.76
687.987	34.77
688.174	34.62
688.36	34.75
688.546	34.73
688.732	34.71
688.918	34.83
689.105	34.69
689.291	34.72
689.477	34.6
689.663	34.23
689.849	33.97
690.035	33.83
690.221	34.07
690.407	33.88
690.593	34.01
690.779	33.82
690.965	33.37
691.151	33.23
691.337	33.1
691.523	33.18
691.709	33.43
691.895	33.64
692.081	33.66
692.267	33.36
692.453	33.48
692.639	33.3
692.825	33.36
693.011	33.43
693.196	33.42
693.382	33.53
693.568	33.58
693.754	33.26
693.94	32.99
694.125	33.08
694.311	33.13
694.497	33.45
694.682	33.6
694.868	33.66
695.054	33.84
695.239	34.36
695.425	34.03
695.611	34.12
695.796	34.22
695.982	34.41
696.168	34.46
696.353	34.65
696.539	34.19
696.724	34
696.91	33.74
697.095	33.63
697.281	33.46
697.466	33.52
697.652	33.23
697.837	33.2
698.023	32.92
698.208	32.87
698.393	32.84
698.579	32.94
698.764	32.86
698.949	32.84
699.135	33.03
699.32	32.8
699.505	33.03
699.691	33.24
699.876	33.32
700.061	33.47
700.246	33.27
700.432	33.05
700.617	33
700.802	32.9
700.987	33.01
701.172	32.92
701.358	33.12
701.543	32.94
701.728	32.6
701.913	32.71
702.098	32.94
702.283	32.93
702.468	32.98
702.653	32.82
702.838	33.05
703.023	33.41
703.208	33.53
703.393	33.49
703.578	33.69
703.763	34.17
703.948	34.26
704.133	34
704.318	34.62
704.503	35.07
704.688	35.87
704.873	36.28
705.057	36.35
705.242	36.68
705.427	36.93
705.612	37.14
705.797	37.33
705.981	37.28
706.166	37.64
706.351	37.72
706.536	37.75
706.72	37.43
706.905	37.67
707.09	37.92
707.274	37.97
707.459	38.16
707.644	37.94
707.828	38
708.013	38.15
708.197	38.2
708.382	38.4
708.567	37.95
708.751	37.91
708.936	37.74
709.12	37.74
709.305	37.69
709.489	37.48
709.673	37.55
709.858	37.65
710.042	37.78
710.227	37.82
710.411	37.39
710.596	37.79
710.78	37.98
710.964	37.91
711.149	37.68
711.333	37.34
711.517	37.32
711.702	37.26
711.886	37.09
712.07	36.91
712.254	36.84
712.438	36.89
712.623	36.75
712.807	36.6
712.991	36.44
713.175	36.19
713.359	36.07
713.544	35.98
713.728	35.48
713.912	34.89
714.096	34.99
714.28	34.78
714.464	34.27
714.648	34.04
714.832	33.37
715.016	33.08
715.2	33.17
715.384	32.97
715.568	32.73
715.752	32.89
715.936	33.08
716.12	32.66
716.304	32.47
716.488	32.52
716.671	32.6
716.855	32.97
717.039	32.82
717.223	32.63
717.407	32.53
717.59	32.56
717.774	32.7
717.958	32.81
718.142	32.61
718.325	32.47
718.509	32.43
718.693	32.23
718.877	32.32
719.06	32.47
719.244	32.55
719.428	32.74
719.611	32.7
719.795	32.56
719.978	32.25
720.162	32.32
720.345	32.3
720.529	32.47
720.713	32.33
720.896	32.06
721.08	32.46
721.263	32.42
721.446	32.42
721.63	32.75
721.813	32.97
721.997	33.04
722.18	33.08
722.364	33.21
722.547	32.99
722.73	33.24
722.914	33.71
723.097	32.85
723.28	32.88
723.464	33.02
723.647	32.84
723.83	32.54
724.013	32.77
724.197	32.67
724.38	32.48
724.563	32.94
724.746	33.28
724.929	32.76
725.112	33.39
725.296	33.81
725.479	34.09
725.662	34.22
725.845	34.21
726.028	34.46
726.211	34.91
726.394	35.24
726.577	35.04
726.76	34.7
726.943	34.74
727.126	34.35
727.309	34.05
727.492	33.65
727.675	33.29
727.858	33.09
728.041	32.72
728.224	32.73
728.407	32.6
728.589	32.79
728.772	33.04
728.955	33.15
729.138	33.24
729.321	33.11
729.503	33.22
729.686	33.32
729.869	33.34
730.052	33.17
730.234	32.82
730.417	32.67
730.6	32.2
730.782	31.73
730.965	31.53
731.148	32.05
731.33	31.85
731.513	31.51
731.695	31.73
731.878	31.81
732.061	32
732.243	31.85
732.426	31.99
732.608	32.13
732.791	32.58
732.973	32.51
733.156	32
733.338	31.74
733.52	31.42
733.703	31.17
733.885	31.38
734.068	31.32
734.25	31.82
734.432	31.82
734.615	32.21
734.797	31.91
734.979	32.71
735.162	32.69
735.344	32.94
735.526	33.25
735.708	33.43
735.891	33.26
736.073	33.3
736.255	33.06
736.437	32.62
736.619	32.52
736.802	32.08
736.984	31.69
737.166	32.18
737.348	32.2
737.53	32.36
737.712	31.97
737.894	32.07
738.076	32.11
738.258	32.08
738.44	32.57
738.622	32.5
738.804	32.77
738.986	32.3
739.168	31.84
739.35	32.33
739.532	32.41
739.714	33.17
739.896	33.77
740.078	33.41
740.259	33.05
740.441	32.82
740.623	32.89
740.805	33.76
740.987	33.87
741.168	33.89
741.35	32.94
741.532	32.96
741.714	32.54
741.895	31.91
742.077	32.45
742.259	32.74
742.44	33.01
742.622	33.42
742.804	33.08
742.985	33.18
743.167	33.59
743.348	34.55
743.53	34.36
743.711	34.19
743.893	34.17
744.075	34.06
744.256	33.29
744.438	33.04
744.619	32.58
744.8	32.08
744.982	32.27
745.163	31.59
745.345	31.85
745.526	31.82
745.707	31.15
745.889	30.62
746.07	30.03
746.252	30.58
746.433	30.93
746.614	30.62
746.795	30.84
746.977	30.7
747.158	31.27
747.339	31.17
747.52	31.49
747.702	31.47
747.883	32.19
748.064	32.38
748.245	32.41
748.426	32.25
748.607	32.88
748.788	32.6
748.97	31.91
749.151	30.96
749.332	30.76
749.513	30.46
749.694	31.32
749.875	30.66
750.056	30.92
750.237	30.54
750.418	30.53
750.599	29.24
750.78	29.09
750.96	30.12
751.141	30.87
751.322	30.72
751.503	30.89
751.684	30.46
751.865	30.9
752.046	30.6
752.226	30.98
752.407	30.53
752.588	30.79
752.769	30.87
752.949	30.54
753.13	30.55
753.311	30.35
753.492	30.09
753.672	30.43
753.853	30.01
754.034	30.29
754.214	31.02
754.395	31.37
754.575	32.37
754.756	32.84
754.937	33.58
755.117	33.49
755.298	33.77
755.478	34.04
755.659	34.29
755.839	34.98
756.02	34.7
756.2	34.19
756.381	34.01
756.561	33.27
756.741	33.06
756.922	32.32
757.102	32.66
757.283	32.73
757.463	32.73
757.643	32.54
757.823	32.15
758.004	32.15
758.184	31.95
758.364	32.46
758.545	33.15
758.725	33.23
758.905	33.07
759.085	32.37
759.265	31.88
759.446	32.19
759.626	32
759.806	32.25
759.986	32.6
760.166	32.6
760.346	31.81
760.526	31.77
760.706	31.5
760.886	31.88
761.066	32.83
761.246	32.64
761.426	32.24
761.606	31.87
761.786	31.95
761.966	31.52
762.146	31.22
762.326	31.44
762.506	30.98
762.686	30.82
762.866	30.82
763.046	30.46
763.225	30.52
763.405	30.69
763.585	30.85
763.765	30.61
763.945	30.72
764.124	31.1
764.304	31.24
764.484	31.42
764.664	31.82
764.843	31.62
765.023	31.67
765.203	31.62
765.382	31.73
765.562	31.74
765.741	32.08
765.921	32.35
766.101	32.3
766.28	32.34
766.46	32.36
766.639	32.32
766.819	32.7
766.998	32.95
767.178	33.24
767.357	33.43
767.537	33.67
767.716	33.74
767.896	33.45
768.075	33.09
768.254	32.5
768.434	32.65
768.613	32.28
768.792	32.1
768.972	31.67
769.151	32.14
769.33	31.4
769.51	32.1
769.689	31.72
769.868	31.83
770.047	32.55
770.226	33.07
770.406	32.86
770.585	33.07
770.764	32.56
770.943	33.55
771.122	33
771.301	33.37
771.48	32.44
771.66	33.06
771.839	32.9
772.018	32.83
772.197	31.98
772.376	32.73
772.555	32.16
772.734	32.33
772.913	31.61
773.092	31.41
773.271	31.63
773.449	31.87
773.628	30.98
773.807	30.89
773.986	30.22
774.165	30.33
774.344	30.26
774.523	31.28
774.701	31.1
774.88	30.82
775.059	31.4
775.238	31.78
775.417	31.44
775.595	32.87
775.774	33.55
775.953	34.22
776.131	34.75
776.31	33.78
776.489	33.24
776.667	34.72
776.846	33.99
777.025	34.04
777.203	33.01
777.382	32.98
777.56	32.21
777.739	31.99
777.917	30.81
778.096	31.11
778.274	31.12
778.453	31.19
778.631	29.34
778.81	29.1
778.988	28.64
779.166	27.89
779.345	28.93
779.523	28.7
779.702	28.91
779.88	29.89
780.058	29.74
780.237	30.51
780.415	30.73
780.593	31.86
780.771	32.46
780.95	32.72
781.128	33.88
781.306	33.14
781.484	33.13
781.662	32.62
781.841	32.53
782.019	31.92
782.197	31.1
782.375	30.88
782.553	30.28
782.731	30.83
782.909	30.56
783.087	30.39
783.265	30.14
783.443	29.76
783.621	29.7
783.799	29.53
783.977	30.45
784.155	30.78
784.333	30.68
784.511	31.98
784.689	31.34
784.867	31.55
785.045	31.55
785.223	31.91
785.4	32.28
785.578	30.83
785.756	31.11
785.934	31.54
786.112	32.3
786.289	32.76
786.467	30.85
786.645	31.64
786.823	31.95
787	31.97
787.178	31.24
787.356	30.61
787.533	32.13
787.711	31.58
787.889	30.06
788.066	29
788.244	29.22
788.421	29.93
788.599	29.9
788.776	29.88
788.954	30.56
789.131	31.39
789.309	31.32
789.486	31.7
789.664	31.97
789.841	32.99
790.019	32.66
790.196	32.47
790.373	32.3
790.551	32.45
790.728	32.91
790.906	33.04
791.083	33.16
791.26	33.43
791.437	33.36
791.615	33.67
791.792	32.86
791.969	32.72
792.146	32.22
792.324	32.72
792.501	33.08
792.678	32.7
792.855	31.71
793.032	32.2
793.209	32.91
793.387	32.6
793.564	33.27
793.741	34.41
793.918	35.31
794.095	35.11
794.272	34.55
794.449	33.75
794.626	33.31
794.803	33.86
794.98	32.91
795.157	31.85
795.334	31.49
795.511	30.65
795.688	30.38
795.864	30.28
796.041	30.34
796.218	30.38
796.395	30.19
796.572	29.86
796.749	29.27
796.925	29.21
797.102	30.37
797.279	30.58
797.456	29.61
797.632	29.37
797.809	29.47
797.986	30.54
798.162	30.52
798.339	30.93
798.516	30.73
798.692	31.06
798.869	31.34
799.046	31.27
799.222	31.16
799.399	32.4
799.575	32.54
799.752	33.02
799.928	31.51
800.105	32.2
800.281	31.31
800.458	31.71
800.634	31.85
800.811	32.38
800.987	31.39
801.163	30.85
801.34	31.23
801.516	30.81
801.692	30.96
801.869	31.36
802.045	31.57
802.221	32.4
802.398	31.79
802.574	31.87
802.75	32.18
802.926	33.28
803.103	33.45
803.279	33.13
803.455	33.52
803.631	31.98
803.807	32.56
803.983	32.8
804.16	33.02
804.336	33.77
804.512	32.85
804.688	32.24
804.864	32.44
805.04	33.3
805.216	33.44
805.392	33.61
805.568	34.62
805.744	35.03
805.92	34.37
806.096	33.91
806.272	34.42
806.448	35.52
806.623	35.62
806.799	34.63
806.975	35.31
807.151	33.46
807.327	32.55
807.503	31.76
807.678	30.63
807.854	31.36
808.03	30.85
808.206	30.6
808.381	29.72
808.557	29.29
808.733	28.75
808.908	27.64
809.084	29.39
809.26	30.33
809.435	31.31
809.611	32.81
809.787	31.31
809.962	30.91
810.138	31.33
810.313	32.2
810.489	32.35
810.664	32.58
810.84	32.18
811.015	33.35
811.191	33.49
811.366	33.3
811.542	32.08
811.717	33.04
811.892	34.71
812.068	33.72
812.243	32.29
812.419	32.65
812.594	33.64
812.769	33.64
812.944	31.35
813.12	30.35
813.295	30.48
813.47	30.83
813.645	30.63
813.821	29.7
813.996	30.27
814.171	31.27
814.346	31.53
814.521	31.16
814.697	32.13
814.872	32.95
815.047	33.51
815.222	33.48
815.397	34.23
815.572	34.31
815.747	35.87
815.922	36.67
816.097	37.28
816.272	36.48
816.447	35.73
816.622	35.62
816.797	35.05
816.972	34.94
817.147	34.25
817.322	32.66
817.496	32.3
817.671	31.14
817.846	30.58
818.021	29.5
818.196	29.51
818.371	30.11
818.545	29.88
818.72	30.33
818.895	31.29
819.069	30.25
819.244	31.18
819.419	31.33
819.594	30
819.768	29.52
819.943	29.08
820.117	29.65
820.292	29.71
820.467	29.9
820.641	29.49
820.816	29.01
820.99	29.24
821.165	29.13
821.339	28.83
821.514	29.03
821.688	28.76
821.863	28.66
822.037	28.37
822.212	28.2
822.386	28.04
822.56	27.99
822.735	27.99
822.909	28.02
823.084	27.75
823.258	27.65
823.432	27.67
823.606	27.59
823.781	27.61
823.955	27.57
824.129	27.39
824.303	27.29
824.478	27.26
824.652	27.29
824.826	27.31
825	27.54
825.174	27.82
825.348	28.04
825.523	28.31
825.697	28.79
825.871	28.74
826.045	29.06
826.219	28.67
826.393	28.83
826.567	28.39
826.741	28.33
826.915	27.79
827.089	27.85
827.263	27.69
827.437	27.89
827.611	27.58
827.784	27.61
827.958	27.25
828.132	27.49
828.306	27.42
828.48	27.37
828.654	27.48
828.827	28.29
829.001	27.97
829.175	28.14
829.349	28.02
829.522	28.17
829.696	27.77
829.87	29.26
830.044	29.61
830.217	30.2
830.391	30.15
830.565	29.88
830.738	29.79
830.912	29.7
831.085	29.42
831.259	31.04
831.432	30.76
831.606	31.74
831.779	30.71
831.953	31.57
832.126	30.99
832.3	32.15
832.473	31.98
832.647	31.41
832.82	31.51
832.994	31.43
833.167	30.32
833.34	30.32
833.514	30.02
833.687	29.86
833.86	29.45
834.034	28.51
834.207	28.1
834.38	28.49
834.553	29.02
834.727	29.1
834.9	28.44
835.073	28.34
835.246	28.1
835.419	28.52
835.593	28.46
835.766	28.6
835.939	28.84
836.112	29.49
836.285	29
836.458	28.52
836.631	28.93
836.804	29.82
836.977	29.42
837.15	29.68
837.323	29.03
837.496	29.41
837.669	29.3
837.842	32.03
838.015	29.99
838.188	30.01
838.361	30.33
838.533	31.35
838.706	31.38
838.879	33.97
839.052	34.12
839.225	34.48
839.398	34.17
839.57	33.88
839.743	33.91
839.916	33.31
840.088	35.14
840.261	35.04
840.434	32.2
840.607	32.25
840.779	30.37
840.952	31.03
841.124	30.72
841.297	30.97
841.47	32.26
841.642	30.59
841.815	34.11
841.987	33.65
842.16	33.07
842.332	36.44
842.505	36.74
842.677	37.3
842.85	35.6
843.022	36.98
843.194	38.78
843.367	37.4
843.539	38.21
843.712	36.11
843.884	36.97
844.056	37.62
844.229	35.32
844.401	37.12
844.573	39.14
844.745	42.83
844.918	46.21
845.09	44.35
845.262	45.27
845.434	45.9
845.606	47.74
845.779	48.18
845.951	47.78
846.123	43.44
846.295	43.6
846.467	40.99
846.639	39.57
846.811	37.09
846.983	35.68
847.155	35.28
847.327	33.38
847.499	32.29
847.671	30.9
847.843	30.94
848.015	38.23
848.187	38.03
848.359	38.63
848.531	39.32
848.703	38.16
848.875	39.87
849.047	39.32
849.218	41.33
849.39	43.79
849.562	43
849.734	44.36
849.905	42.08
850.077	41.94
850.249	40.23
850.421	35.67
850.592	34.67
850.764	33.56
850.936	34.71
851.107	32.46
851.279	28.58
851.451	26.12
851.622	22.32
851.794	19.36
851.965	15.04
852.137	18.91
852.308	22.14
852.48	21.37
852.651	22.57
852.823	20.61
852.994	21.11
853.166	26.97
853.337	28.44
853.509	25.79
853.68	28.73
853.851	33.21
854.023	30.58
854.194	29.7
854.365	29.13
854.537	27.04
854.708	31.03
854.879	30.78
855.05	28.56
855.222	27.91
855.393	29.2
855.564	30.18
855.735	30.39
855.906	34.68
856.078	36.84
856.249	37.15
856.42	38.12
856.591	37.32
856.762	37.65
856.933	36.72
857.104	35.15
857.275	40.68
857.446	39.17
857.617	38.22
857.788	33.38
857.959	34.72
858.13	35.7
858.301	39.04
858.472	38.16
858.643	37.21
858.814	36.5
858.985	36.76
859.155	33.85
859.326	34.34
859.497	34.06
859.668	36.33
859.839	31.93
860.009	32.75
860.18	30.03
860.351	30.67
860.522	32.47
860.692	33.61
860.863	37.88
861.034	38.11
861.204	38.65
861.375	39.24
861.546	43.75
861.716	47.32
861.887	45.26
862.057	45.59
862.228	48.62
862.398	48.8
862.569	49.29
862.739	50.34
862.91	51.16
863.08	49.83
863.251	49.19
863.421	45.92
863.592	47.64
863.762	48.9
863.932	49.57
864.103	46.25
864.273	46.33
864.443	46.23
864.614	41.82
864.784	44.04
864.954	41.41
865.125	40.52
865.295	37.31
865.465	34.12
865.635	36.11
865.805	32.63
865.976	31.1
866.146	33.9
866.316	32.02
866.486	37.48
866.656	36.02
866.826	39.41
866.996	38.89
867.166	44
867.336	44.13
867.506	46.22
867.676	48.5
867.846	51.91
868.016	48.49
868.186	46.18
868.356	43.94
868.526	46.09
868.696	43.37
868.866	45.81
869.036	43.58
869.206	44.69
869.376	42.16
869.545	44.08
869.715	38.31
869.885	41.08
870.055	45.92
870.224	47.96
870.394	46.7
870.564	48.66
870.734	48.5
870.903	47.73
871.073	49.55
871.243	49.18
871.412	45.97
871.582	48.6
871.751	44.7
871.921	48.38
872.091	46.21
872.26	42.29
872.43	40.8
872.599	40.35
872.769	39.18
872.938	37.94
873.108	34.67
873.277	33.52
873.446	33.15
873.616	34.04
873.785	34.42
873.955	35.38
874.124	38.84
874.293	40.58
874.463	41.58
874.632	43.08
874.801	41.27
874.971	44.46
875.14	47.37
875.309	49.99
875.478	52.13
875.647	46.79
875.817	49.06
875.986	45.42
876.155	43.54
876.324	42.95
876.493	42.52
876.662	47.18
876.831	49.38
877	51.1
877.17	50.52
877.339	50.27
877.508	51.23
877.677	50.65
877.846	53.43
878.015	53.87
878.184	53.6
878.352	54.25
878.521	51.48
878.69	48.06
878.859	46.41
879.028	44.39
879.197	42.3
879.366	41.14
879.534	39.03
879.703	37.2
879.872	36.43
880.041	33.9
880.21	28.8
880.378	27.58
880.547	26.94
880.716	25.34
880.884	25.4
881.053	25.49
881.222	25.8
881.39	24.86
881.559	24.72
881.727	24.73
881.896	24.52
882.065	26.13
882.233	25.84
882.402	25.15
882.57	25.83
882.739	25.55
882.907	25.64
883.076	25.92
883.244	26.42
883.412	26.65
883.581	26.13
883.749	26.4
883.918	26.48
884.086	27.2
884.254	28.64
884.423	28.43
884.591	29.4
884.759	29.85
884.927	28.29
885.096	26.48
885.264	26.64
885.432	28.65
885.6	29.55
885.769	28.57
885.937	28.53
886.105	30.24
886.273	32.26
886.441	33.14
886.609	34.43
886.777	38.4
886.945	43.57
887.113	44.55
887.281	42.68
887.449	44.04
887.617	48.74
887.785	48.7
887.953	48.33
888.121	44.53
888.289	41.11
888.457	38.82
888.625	38.84
888.793	35.44
888.961	35.2
889.129	34.65
889.296	33.15
889.464	28.56
889.632	26.64
889.8	22.26
889.967	26.64
890.135	28.98
