Data from 2938743__Reflection_01.txt Node
Date: Sun Mar 15 11:57:56 EDT 2015
User: robert
Spectrometer: USB4E03002
Autoset integration time: false
Trigger mode: 4
Integration Time (sec): 1.000000E-1
Scans to average: 10
Electric dark correction enabled: false
Nonlinearity correction enabled: false
Boxcar width: 5
Stray light correction enabled: false
XAxis mode: Wavelengths
Stop averaging: false
Number of Pixels in Spectrum: 3648
>>>>>Begin Spectral Data<<<<<
177.575	677.2
177.794	520.37
178.014	870.29
178.233	1031.33
178.452	1282.61
178.672	1983.11
178.891	2175.19
179.11	-6500
179.33	-1661.45
179.549	-1530.77
179.768	-2001.4
179.987	-3749.35
180.207	-1079.57
180.426	-5986.54
180.645	-4722.39
180.864	-44028.57
181.084	2698.21
181.303	-14519.05
181.522	1701.04
181.741	1483.64
181.96	2486.18
182.179	724.11
182.398	668.19
182.618	457.86
182.837	475.27
183.056	422.19
183.275	462.31
183.494	563.02
183.713	446.41
183.932	390.92
184.151	349.14
184.37	339.14
184.589	520.5
184.808	516.31
185.027	566.36
185.246	598.51
185.465	529.23
185.684	586.63
185.903	503.32
186.122	480.8
186.341	760.58
186.56	1255.06
186.779	958.39
186.998	855.46
187.216	1013.48
187.435	1871.97
187.654	1738.1
187.873	5662
188.092	1791.98
188.311	1306.93
188.53	1903.85
188.748	1737.16
188.967	1344.83
189.186	1554.81
189.405	1321.32
189.623	1754.97
189.842	1133.1
190.061	1146.55
190.28	1145.79
190.498	2144.16
190.717	1715
190.936	2637.3
191.154	1793.3
191.373	1516.36
191.592	699.79
191.81	601.92
192.029	512.3
192.248	557.12
192.466	782.33
192.685	662.67
192.904	492.07
193.122	637.53
193.341	690.84
193.559	540.99
193.778	609.05
193.996	1346.08
194.215	1962.88
194.433	-9351.85
194.652	2950
194.87	2059.23
195.089	3130.23
195.307	5460.38
195.526	2008.23
195.744	4089.61
195.963	-3233.68
196.181	-7672.09
196.399	-6310
196.618	-2611.2
196.836	-2825
197.055	-1333.33
197.273	-1619.9
197.491	-1884.75
197.71	-6150
197.928	-3323.47
198.146	-2744.92
198.365	-3071.56
198.583	-5648.28
198.801	10091.18
199.019	2129.01
199.238	1141.42
199.456	775.74
199.674	1103.27
199.892	1432.34
200.111	1646.63
200.329	1929.82
200.547	732.4
200.765	527.85
200.983	508.77
201.202	495.51
201.42	583.83
201.638	534.09
201.856	650.72
202.074	453.47
202.292	354.86
202.51	442.91
202.728	410.03
202.946	506.07
203.165	652.58
203.383	646.19
203.601	658.39
203.819	603.79
204.037	632.7
204.255	502.25
204.473	423.97
204.691	457.07
204.909	406.56
205.127	439.19
205.345	385.94
205.562	353.85
205.78	499.71
205.998	612.77
206.216	749.46
206.434	730.69
206.652	1006.78
206.87	2656.25
207.088	9911.76
207.306	1611.42
207.523	2205.06
207.741	2247.92
207.959	2664.46
208.177	961.89
208.395	685.84
208.612	562.81
208.83	642.52
209.048	703.24
209.266	499.67
209.483	498.67
209.701	582.24
209.919	670.49
210.136	544.76
210.354	487.3
210.572	745.39
210.79	681.71
211.007	542.08
211.225	472.79
211.442	403.23
211.66	423.87
211.878	481.39
212.095	319.41
212.313	280.58
212.53	306.37
212.748	338.52
212.966	295.31
213.183	284.04
213.401	303.25
213.618	310.51
213.836	300.14
214.053	318.35
214.271	288.78
214.488	471.47
214.705	410.1
214.923	436.85
215.14	375.06
215.358	371.89
215.575	437.91
215.793	352.11
216.01	340.1
216.227	325.28
216.445	320.4
216.662	349.54
216.879	324.54
217.097	339.44
217.314	314.81
217.531	290.96
217.749	271.61
217.966	257.24
218.183	326.8
218.4	326.66
218.618	361.96
218.835	355.64
219.052	278.08
219.269	271.96
219.487	269.37
219.704	278.12
219.921	309.19
220.138	300.38
220.355	241.26
220.572	208.28
220.79	200.8
221.007	186.66
221.224	172.28
221.441	178.74
221.658	169.88
221.875	155.42
222.092	144.75
222.309	138.01
222.526	137.99
222.743	139.06
222.96	139.61
223.177	143.2
223.394	141.86
223.611	143.46
223.828	138.67
224.045	133.89
224.262	133.37
224.479	132.62
224.696	118.94
224.913	115.96
225.13	109.15
225.347	99.12
225.564	86.06
225.781	85.5
225.997	82.99
226.214	76.45
226.431	73.33
226.648	71.65
226.865	64.49
227.082	60.63
227.298	53.59
227.515	49.15
227.732	45.03
227.949	42.59
228.165	37.43
228.382	34.56
228.599	32.89
228.816	29.06
229.032	26.39
229.249	25.54
229.466	25.48
229.682	24.63
229.899	24.15
230.116	24.15
230.332	24.09
230.549	24.46
230.765	25.14
230.982	27.06
231.199	29.99
231.415	32.64
231.632	34.75
231.848	36.36
232.065	38.45
232.281	40.07
232.498	41.72
232.714	41.57
232.931	43.24
233.147	44.06
233.364	42.74
233.58	41.92
233.797	41.74
234.013	43.48
234.23	42.57
234.446	42.88
234.662	43.87
234.879	44.2
235.095	45.69
235.312	45.23
235.528	45.54
235.744	47.53
235.961	47.95
236.177	47.69
236.393	44.84
236.61	45.69
236.826	44.52
237.042	45.02
237.258	45.17
237.475	45.23
237.691	46.2
237.907	46.7
238.123	45.59
238.339	44.56
238.556	45.25
238.772	44.45
238.988	40.89
239.204	41.68
239.42	39.74
239.636	36.37
239.853	36.09
240.069	35.32
240.285	32.59
240.501	30.43
240.717	29.1
240.933	26.33
241.149	25.45
241.365	23.99
241.581	22.36
241.797	21.62
242.013	21.19
242.229	19.53
242.445	18.18
242.661	18.18
242.877	18.21
243.093	18.5
243.309	19.21
243.525	19.55
243.741	20.84
243.957	22.1
244.173	22.16
244.388	22.32
244.604	22.42
244.82	23.54
245.036	22.22
245.252	21.77
245.468	20.85
245.683	19.75
245.899	18.54
246.115	17.33
246.331	15.49
246.547	14.65
246.762	14.24
246.978	14.18
247.194	14.03
247.409	13.94
247.625	13.68
247.841	13.39
248.057	13.27
248.272	13.42
248.488	13.1
248.703	13.34
248.919	14.1
249.135	14.95
249.35	16
249.566	15.74
249.782	16.58
249.997	17.44
250.213	17.69
250.428	18.2
250.644	18.28
250.859	19.66
251.075	20.6
251.29	20.14
251.506	19.41
251.721	18.33
251.937	18.22
252.152	17.98
252.368	17.09
252.583	17.76
252.798	18.57
253.014	18.69
253.229	18.69
253.445	19.3
253.66	20.02
253.875	21.44
254.091	22.33
254.306	23.5
254.521	24.94
254.737	27.08
254.952	27.4
255.167	27.17
255.383	27.24
255.598	27.06
255.813	25.87
256.028	25.12
256.244	23.9
256.459	23.29
256.674	22.67
256.889	21.15
257.104	20.14
257.32	19.36
257.535	18.15
257.75	17.15
257.965	16.57
258.18	15.66
258.395	14.47
258.61	13.47
258.826	12.52
259.041	11.89
259.256	11.09
259.471	10.6
259.686	10.04
259.901	9.67
260.116	9.47
260.331	9.32
260.546	9.38
260.761	9.64
260.976	9.65
261.191	9.91
261.406	10.38
261.621	11.31
261.836	11.55
262.05	12.27
262.265	13.59
262.48	14.62
262.695	15.51
262.91	16.55
263.125	17.61
263.34	18.46
263.555	19.41
263.769	19.39
263.984	19.49
264.199	20.16
264.414	20.04
264.629	19.92
264.843	19.32
265.058	18.67
265.273	17.59
265.488	16.76
265.702	16.75
265.917	16.21
266.132	15.91
266.346	16.01
266.561	15.75
266.776	16.13
266.99	15.58
267.205	15.27
267.42	15.21
267.634	15.45
267.849	15.38
268.063	15.29
268.278	15.01
268.492	14.98
268.707	14.24
268.922	13.87
269.136	13.83
269.351	13.81
269.565	13.91
269.78	13.39
269.994	13.4
270.209	13.42
270.423	13.04
270.637	12.96
270.852	12.12
271.066	11.95
271.281	11.8
271.495	11.08
271.709	10.65
271.924	11.03
272.138	11.39
272.353	11.28
272.567	11.3
272.781	11.52
272.996	11.77
273.21	12.35
273.424	13.03
273.638	13.55
273.853	14.02
274.067	14.27
274.281	14.41
274.495	14.01
274.71	14.52
274.924	14.64
275.138	14.53
275.352	14.36
275.566	14.69
275.781	14.23
275.995	14.28
276.209	14.38
276.423	14.29
276.637	14.03
276.851	14.18
277.065	13.54
277.279	13.43
277.493	13.12
277.707	13.12
277.921	12.94
278.135	13
278.349	12.75
278.563	12.94
278.777	13
278.991	12.74
279.205	12.74
279.419	12.76
279.633	12.66
279.847	12.67
280.061	12.67
280.275	12.18
280.489	11.8
280.703	11.6
280.917	11.05
281.131	11.49
281.344	11.56
281.558	11.77
281.772	12
281.986	11.99
282.2	12.33
282.414	12.39
282.627	12.69
282.841	12.9
283.055	13.36
283.269	13.39
283.482	12.95
283.696	12.95
283.91	12.75
284.123	12.19
284.337	11.68
284.551	11.18
284.764	10.85
284.978	10.44
285.192	10.17
285.405	9.61
285.619	9.74
285.833	9.67
286.046	9.41
286.26	9.3
286.473	9.43
286.687	9.79
286.9	9.83
287.114	9.7
287.327	9.77
287.541	10.02
287.754	10.52
287.968	10.12
288.181	9.88
288.395	9.86
288.608	10.37
288.822	10.06
289.035	9.97
289.248	9.99
289.462	10.2
289.675	10.58
289.889	10.42
290.102	9.51
290.315	9.89
290.529	10.28
290.742	10.54
290.955	10.53
291.169	10.6
291.382	10.9
291.595	11.03
291.808	10.84
292.022	11.22
292.235	11.29
292.448	11.75
292.661	11.3
292.875	11.3
293.088	11.36
293.301	10.86
293.514	11.01
293.727	10.88
293.94	11.23
294.153	11.31
294.367	10.59
294.58	10.89
294.793	10.96
295.006	10.93
295.219	10.8
295.432	10.61
295.645	10.61
295.858	10.81
296.071	10.44
296.284	9.96
296.497	10.17
296.71	10.06
296.923	9.54
297.136	9.44
297.349	9.52
297.562	9.37
297.775	9.24
297.988	9.55
298.201	9.59
298.414	9.93
298.626	9.96
298.839	9.84
299.052	10.28
299.265	10.79
299.478	11.04
299.691	11.58
299.903	12.09
300.116	12.16
300.329	11.97
300.542	11.7
300.755	11.64
300.967	12.1
301.18	12.15
301.393	12
301.605	12.11
301.818	12.23
302.031	12.34
302.243	12.51
302.456	12.84
302.669	13
302.881	13.64
303.094	13.66
303.307	13.38
303.519	13.55
303.732	13.68
303.944	13.42
304.157	13.67
304.37	13.52
304.582	13.14
304.795	13.09
305.007	13.01
305.22	12.68
305.432	12.98
305.645	13.37
305.857	13.59
306.069	14.02
306.282	13.88
306.494	12.95
306.707	12.98
306.919	12.99
307.132	12.64
307.344	12.54
307.556	12.3
307.769	12.1
307.981	11.82
308.193	11.36
308.406	10.79
308.618	10.82
308.83	10.89
309.043	10.74
309.255	10.64
309.467	11.07
309.679	10.9
309.892	10.75
310.104	10.3
310.316	10.17
310.528	10.38
310.74	10.42
310.953	10.62
311.165	11.07
311.377	10.89
311.589	10.85
311.801	10.45
312.013	10.68
312.225	10.9
312.437	11.25
312.649	11.37
312.862	11.07
313.074	11.04
313.286	11.11
313.498	11.06
313.71	11.3
313.922	11.66
314.134	12.5
314.346	12.89
314.558	13.12
314.77	12.86
314.982	13.3
315.193	13.92
315.405	14.32
315.617	13.87
315.829	14.14
316.041	14.63
316.253	14.46
316.465	14.4
316.677	13.99
316.888	14.22
317.1	14.4
317.312	14.48
317.524	14.3
317.736	14.44
317.947	15.27
318.159	15.23
318.371	14.9
318.583	15.54
318.794	15.11
319.006	15.27
319.218	15.06
319.43	14.93
319.641	14.62
319.853	15.32
320.064	15.25
320.276	15.66
320.488	15.81
320.699	16.29
320.911	16.35
321.123	16.65
321.334	16.89
321.546	16.97
321.757	17.34
321.969	18.08
322.18	17.82
322.392	17.75
322.603	17.53
322.815	17.61
323.026	17.39
323.238	16.67
323.449	16.46
323.661	16.44
323.872	16.55
324.083	16.65
324.295	16.18
324.506	16.35
324.718	16.18
324.929	15.78
325.14	15.7
325.352	15.76
325.563	15.87
325.774	15.98
325.986	15.63
326.197	15.43
326.408	15.73
326.62	15.97
326.831	15.56
327.042	16.15
327.253	16.91
327.464	17
327.676	17.28
327.887	17.69
328.098	18.13
328.309	18.68
328.52	19.09
328.732	19.19
328.943	19.23
329.154	19.64
329.365	19.61
329.576	19.49
329.787	19.79
329.998	19.67
330.209	20.04
330.42	20.16
330.631	19.9
330.842	19.91
331.053	20.17
331.264	20.39
331.475	20.36
331.686	20.26
331.897	20.26
332.108	19.76
332.319	19.53
332.53	19.4
332.741	19.25
332.952	19.5
333.163	19.5
333.374	18.72
333.585	18.6
333.795	18.68
334.006	18.65
334.217	18.37
334.428	18.54
334.639	18.65
334.849	18.5
335.06	18.32
335.271	18.34
335.482	18.71
335.692	19.01
335.903	19.19
336.114	19.15
336.325	19.1
336.535	19.32
336.746	19.54
336.957	19.49
337.167	19.2
337.378	19.19
337.589	19.3
337.799	18.99
338.01	19.11
338.22	18.93
338.431	18.82
338.642	18.35
338.852	18.3
339.063	18.16
339.273	18.16
339.484	18.29
339.694	18.74
339.905	18.62
340.115	18.38
340.326	18.57
340.536	18.33
340.746	17.96
340.957	18.85
341.167	18.66
341.378	18.4
341.588	18.23
341.799	18
342.009	17.56
342.219	17.53
342.43	17.57
342.64	17.24
342.85	17.28
343.061	17.51
343.271	16.98
343.481	17.18
343.691	17.32
343.902	17.09
344.112	17.62
344.322	17.64
344.532	17.78
344.743	17.62
344.953	17.47
345.163	17.46
345.373	17.26
345.583	17.28
345.793	16.81
346.004	16.76
346.214	16.85
346.424	16.39
346.634	16.44
346.844	15.78
347.054	16.14
347.264	16.29
347.474	16.44
347.684	16.6
347.894	16.18
348.104	16.32
348.314	16.48
348.524	17.07
348.734	16.91
348.944	16.94
349.154	17.15
349.364	16.67
349.574	16.38
349.784	16.32
349.994	16.29
350.204	16.93
350.413	16.95
350.623	16.88
350.833	16.59
351.043	16.62
351.253	16.32
351.463	16.32
351.672	16.57
351.882	16.86
352.092	16.53
352.302	16.66
352.511	16.39
352.721	15.91
352.931	16.01
353.141	15.78
353.35	15.89
353.56	15.87
353.77	16.24
353.979	16.06
354.189	15.88
354.399	15.97
354.608	15.91
354.818	15.71
355.027	16.24
355.237	15.99
355.447	15.73
355.656	15.67
355.866	15.75
356.075	15.4
356.285	15.13
356.494	15.11
356.704	15.03
356.913	14.96
357.123	14.94
357.332	14.76
357.542	14.7
357.751	14.74
357.96	15.04
358.17	14.86
358.379	14.67
358.589	14.86
358.798	14.79
359.007	14.98
359.217	14.93
359.426	14.87
359.635	14.62
359.845	14.54
360.054	14.6
360.263	14.24
360.472	14.11
360.682	14.25
360.891	14.02
361.1	13.94
361.309	13.45
361.519	13.1
361.728	13.05
361.937	13.14
362.146	13.18
362.355	12.95
362.564	13.22
362.774	13.16
362.983	12.95
363.192	13.01
363.401	12.96
363.61	13.1
363.819	13.53
364.028	13.63
364.237	13.61
364.446	13.67
364.655	13.93
364.864	13.91
365.073	14.41
365.282	14.74
365.491	14.99
365.7	15.08
365.909	15.19
366.118	15.23
366.327	15.21
366.536	15.41
366.745	15.22
366.954	15.39
367.162	15.29
367.371	14.86
367.58	14.68
367.789	14.53
367.998	14.66
368.207	14.86
368.415	14.47
368.624	14.26
368.833	14.08
369.042	14.2
369.25	14.16
369.459	14.19
369.668	14.5
369.877	14.48
370.085	14.59
370.294	14.38
370.503	14.03
370.711	14.34
370.92	14.46
371.129	14.7
371.337	14.74
371.546	14.8
371.754	14.87
371.963	14.84
372.171	14.81
372.38	14.64
372.589	14.67
372.797	14.99
373.006	14.77
373.214	14.8
373.423	14.64
373.631	14.5
373.84	14.22
374.048	14.16
374.256	14.11
374.465	13.92
374.673	13.95
374.882	14.02
375.09	13.74
375.298	13.72
375.507	13.75
375.715	13.48
375.923	13.47
376.132	13.5
376.34	13.31
376.548	13.17
376.757	13.45
376.965	13.53
377.173	13.49
377.381	13.66
377.59	13.64
377.798	13.75
378.006	13.76
378.214	13.79
378.423	13.81
378.631	13.59
378.839	13.53
379.047	13.53
379.255	13.35
379.463	13.39
379.671	13.35
379.879	13.32
380.088	13.1
380.296	13.03
380.504	12.76
380.712	12.83
380.92	12.91
381.128	13.21
381.336	13.17
381.544	13.25
381.752	13.33
381.96	13.27
382.168	13.3
382.376	13.41
382.584	13.79
382.791	14.19
382.999	14.15
383.207	14.16
383.415	14.12
383.623	13.9
383.831	13.79
384.039	13.63
384.247	13.71
384.454	13.61
384.662	13.72
384.87	13.74
385.078	13.66
385.285	13.41
385.493	13.56
385.701	13.3
385.909	13.43
386.116	13.42
386.324	13.5
386.532	13.48
386.739	13.6
386.947	13.38
387.155	13.39
387.362	13.17
387.57	13.23
387.778	13.25
387.985	13.32
388.193	13.29
388.4	13.51
388.608	13.62
388.816	13.62
389.023	13.52
389.231	13.49
389.438	13.4
389.646	13.42
389.853	13.34
390.061	13.19
390.268	13.01
390.475	13
390.683	12.98
390.89	12.67
391.098	12.66
391.305	12.62
391.512	12.57
391.72	12.27
391.927	12.07
392.135	12.05
392.342	11.9
392.549	11.91
392.756	11.77
392.964	11.64
393.171	11.73
393.378	11.31
393.586	11.14
393.793	11.23
394	11.36
394.207	11.41
394.414	11.31
394.622	11.31
394.829	11.49
395.036	11.43
395.243	11.3
395.45	11.2
395.657	11.47
395.864	11.63
396.072	11.47
396.279	11.4
396.486	11.56
396.693	11.74
396.9	11.76
397.107	11.6
397.314	11.91
397.521	11.78
397.728	11.79
397.935	11.83
398.142	11.82
398.349	11.92
398.556	11.95
398.763	11.86
398.97	11.98
399.177	11.92
399.383	11.85
399.59	11.68
399.797	11.75
400.004	11.67
400.211	11.62
400.418	11.77
400.625	11.81
400.831	11.77
401.038	11.82
401.245	11.73
401.452	11.85
401.658	11.84
401.865	12.03
402.072	12.23
402.279	12.48
402.485	12.68
402.692	12.45
402.899	12.28
403.105	12.33
403.312	12.22
403.519	11.93
403.725	11.83
403.932	11.92
404.138	11.76
404.345	11.56
404.552	11.34
404.758	11.07
404.965	11
405.171	10.96
405.378	10.85
405.584	10.98
405.791	11.25
405.997	11.23
406.204	11.17
406.41	11.23
406.617	11.53
406.823	11.55
407.029	11.78
407.236	11.97
407.442	12.04
407.649	12.19
407.855	12.11
408.061	12.24
408.268	12.29
408.474	12.42
408.68	12.42
408.887	12.18
409.093	12.21
409.299	11.91
409.505	11.74
409.712	11.83
409.918	11.68
410.124	11.68
410.33	11.48
410.537	11.53
410.743	11.34
410.949	11.23
411.155	11.36
411.361	11.32
411.567	11.39
411.773	11.56
411.98	11.47
412.186	11.62
412.392	11.57
412.598	11.51
412.804	11.74
413.01	11.71
413.216	11.67
413.422	11.55
413.628	11.63
413.834	11.73
414.04	11.61
414.246	11.48
414.452	11.38
414.658	11.38
414.864	11.43
415.07	11.23
415.275	11.41
415.481	11.3
415.687	11.23
415.893	11.11
416.099	10.98
416.305	11.05
416.511	11.1
416.716	10.92
416.922	10.84
417.128	10.6
417.334	10.5
417.539	10.38
417.745	10.32
417.951	10.24
418.157	10.26
418.362	10.16
418.568	10.05
418.774	10.01
418.979	10.04
419.185	9.97
419.391	9.88
419.596	9.8
419.802	9.82
420.008	9.83
420.213	9.14
420.419	9.08
420.624	9.03
420.83	9.04
421.035	8.94
421.241	8.93
421.446	8.89
421.652	8.95
421.857	8.93
422.063	8.76
422.268	8.73
422.474	9.26
422.679	9.21
422.885	9.4
423.09	9.41
423.295	9.37
423.501	9.39
423.706	9.43
423.911	9.45
424.117	9.46
424.322	9.59
424.527	9.65
424.733	9.68
424.938	9.75
425.143	9.65
425.349	9.57
425.554	9.67
425.759	9.67
425.964	9.82
426.169	9.91
426.375	9.89
426.58	9.9
426.785	10.03
426.99	10.11
427.195	10.21
427.4	10.32
427.605	10.53
427.811	10.67
428.016	10.69
428.221	10.48
428.426	10.54
428.631	10.67
428.836	10.68
429.041	10.59
429.246	10.76
429.451	10.81
429.656	10.67
429.861	10.67
430.066	10.57
430.271	10.61
430.476	10.73
430.681	10.61
430.886	10.7
431.09	10.77
431.295	10.73
431.5	10.7
431.705	10.6
431.91	10.68
432.115	10.48
432.32	10.43
432.524	10.44
432.729	10.46
432.934	10.42
433.139	10.46
433.343	10.38
433.548	10.43
433.753	10.35
433.958	10.37
434.162	10.27
434.367	10.29
434.572	10.4
434.776	10.29
434.981	10.29
435.186	10.32
435.39	10.22
435.595	10.26
435.799	10.23
436.004	10.28
436.209	10.24
436.413	10.34
436.618	10.38
436.822	10.35
437.027	10.49
437.231	10.43
437.436	10.45
437.64	10.38
437.845	10.33
438.049	10.3
438.253	10.16
438.458	10.21
438.662	10.19
438.867	10.23
439.071	10.18
439.275	10.07
439.48	10.05
439.684	10.04
439.888	10.07
440.093	10.06
440.297	10.08
440.501	10.15
440.706	10.1
440.91	10.1
441.114	10.06
441.318	10.08
441.523	10.14
441.727	10.19
441.931	10.27
442.135	10.27
442.339	10.29
442.543	10.29
442.748	10.35
442.952	10.35
443.156	10.36
443.36	10.45
443.564	10.44
443.768	10.31
443.972	10.3
444.176	10.25
444.38	10.18
444.584	10.11
444.788	10.04
444.992	10.06
445.196	9.98
445.4	9.92
445.604	9.76
445.808	9.77
446.012	9.86
446.216	9.8
446.42	9.73
446.624	9.81
446.828	9.9
447.032	9.9
447.235	9.78
447.439	9.87
447.643	9.83
447.847	9.9
448.051	9.85
448.254	9.81
448.458	9.82
448.662	9.9
448.866	9.81
449.069	9.75
449.273	9.8
449.477	9.9
449.681	9.9
449.884	10
450.088	10.05
450.292	10.04
450.495	10.19
450.699	10.17
450.902	10.14
451.106	10.1
451.31	10.16
451.513	10.12
451.717	10.12
451.92	10.21
452.124	10.27
452.327	10.24
452.531	10.34
452.734	10.24
452.938	10.25
453.141	10.22
453.345	10.36
453.548	10.4
453.752	10.48
453.955	10.52
454.158	10.46
454.362	10.46
454.565	10.61
454.769	10.6
454.972	10.63
455.175	10.78
455.379	10.82
455.582	10.8
455.785	10.73
455.988	10.77
456.192	10.77
456.395	10.68
456.598	10.63
456.801	10.4
457.005	10.4
457.208	10.46
457.411	10.42
457.614	10.33
457.817	10.3
458.021	10.22
458.224	10.08
458.427	9.94
458.63	9.87
458.833	9.9
459.036	10.07
459.239	10.07
459.442	9.96
459.645	9.9
459.848	9.91
460.051	9.87
460.254	9.84
460.457	9.89
460.66	9.91
460.863	9.98
461.066	9.91
461.269	9.77
461.472	9.8
461.675	9.81
461.878	9.83
462.081	9.89
462.284	9.96
462.486	10.08
462.689	10.1
462.892	10.31
463.095	10.35
463.298	10.38
463.5	10.43
463.703	10.36
463.906	10.36
464.109	10.52
464.311	10.57
464.514	10.59
464.717	10.64
464.92	10.69
465.122	10.55
465.325	10.58
465.528	10.74
465.73	10.85
465.933	10.88
466.135	10.89
466.338	10.7
466.541	10.64
466.743	10.57
466.946	10.52
467.148	10.34
467.351	10.36
467.553	10.42
467.756	10.45
467.958	10.45
468.161	10.42
468.363	10.55
468.566	10.6
468.768	10.62
468.971	10.7
469.173	10.67
469.375	10.8
469.578	10.75
469.78	10.81
469.983	10.76
470.185	10.68
470.387	10.84
470.59	10.78
470.792	10.82
470.994	10.86
471.196	10.86
471.399	10.81
471.601	10.74
471.803	10.83
472.005	10.77
472.208	10.67
472.41	10.79
472.612	10.73
472.814	10.74
473.016	10.68
473.218	10.76
473.421	10.74
473.623	10.82
473.825	10.89
474.027	10.87
474.229	10.89
474.431	10.95
474.633	10.87
474.835	10.82
475.037	10.85
475.239	10.96
475.441	10.9
475.643	10.91
475.845	10.81
476.047	10.87
476.249	10.86
476.451	10.78
476.653	10.75
476.855	10.67
477.057	10.66
477.258	10.59
477.46	10.48
477.662	10.48
477.864	10.42
478.066	10.43
478.268	10.23
478.469	10.09
478.671	10.05
478.873	9.98
479.075	9.95
479.276	9.91
479.478	9.81
479.68	9.87
479.882	9.86
480.083	9.86
480.285	9.79
480.487	9.81
480.688	9.86
480.89	9.92
481.091	9.97
481.293	9.89
481.495	9.88
481.696	9.85
481.898	9.68
482.099	9.58
482.301	9.54
482.502	9.51
482.704	9.43
482.905	9.37
483.107	9.25
483.308	9.18
483.51	9.18
483.711	9.13
483.913	9.09
484.114	9.12
484.315	9.08
484.517	9.05
484.718	9.05
484.92	9.09
485.121	9.1
485.322	9.1
485.524	9.12
485.725	9.11
485.926	9.12
486.127	9.14
486.329	9.1
486.53	9.14
486.731	9.17
486.932	9.14
487.134	9.15
487.335	9.08
487.536	9.1
487.737	9.08
487.938	9.11
488.139	9.09
488.341	9.13
488.542	9.2
488.743	9.22
488.944	9.22
489.145	9.24
489.346	9.29
489.547	9.39
489.748	9.45
489.949	9.46
490.15	9.45
490.351	9.45
490.552	9.44
490.753	9.39
490.954	9.42
491.155	9.41
491.356	9.4
491.557	9.35
491.758	9.35
491.959	9.32
492.159	9.34
492.36	9.43
492.561	9.51
492.762	9.51
492.963	9.55
493.164	9.57
493.364	9.67
493.565	9.69
493.766	9.73
493.967	9.81
494.167	9.94
494.368	9.99
494.569	9.93
494.769	9.95
494.97	9.98
495.171	9.98
495.371	9.94
495.572	9.94
495.773	10.04
495.973	10.12
496.174	10.02
496.375	9.96
496.575	9.99
496.776	10
496.976	9.95
497.177	10.03
497.377	10.06
497.578	10.03
497.778	10.01
497.979	10.07
498.179	10.09
498.38	10.12
498.58	10.15
498.78	10.18
498.981	10.2
499.181	10.21
499.382	10.23
499.582	10.29
499.782	10.35
499.983	10.45
500.183	10.41
500.383	10.42
500.584	10.51
500.784	10.56
500.984	10.61
501.184	10.63
501.385	10.67
501.585	10.58
501.785	10.49
501.985	10.63
502.185	10.6
502.386	10.66
502.586	10.57
502.786	10.6
502.986	10.6
503.186	10.57
503.386	10.69
503.586	10.78
503.786	10.82
503.987	10.88
504.187	10.72
504.387	10.72
504.587	10.7
504.787	10.89
504.987	10.76
505.187	10.83
505.387	10.86
505.587	10.76
505.786	10.77
505.986	10.81
506.186	10.83
506.386	11.03
506.586	11.09
506.786	11.06
506.986	10.98
507.186	11.05
507.386	11.02
507.585	10.96
507.785	11.02
507.985	10.99
508.185	11.01
508.384	11.01
508.584	10.84
508.784	10.83
508.984	10.82
509.183	10.82
509.383	10.89
509.583	10.87
509.782	10.97
509.982	10.92
510.182	11.03
510.381	11
510.581	10.91
510.781	10.97
510.98	11.03
511.18	11.13
511.379	11.15
511.579	11.12
511.778	11.22
511.978	11.13
512.177	11.2
512.377	11.03
512.576	11.05
512.776	11.24
512.975	11.36
513.175	11.36
513.374	11.35
513.573	11.32
513.773	11.38
513.972	11.37
514.172	11.43
514.371	11.48
514.57	11.57
514.77	11.7
514.969	11.6
515.168	11.6
515.367	11.58
515.567	11.7
515.766	11.82
515.965	11.81
516.164	11.76
516.364	11.8
516.563	11.73
516.762	11.72
516.961	11.7
517.16	11.71
517.359	11.65
517.559	11.72
517.758	11.6
517.957	11.58
518.156	11.57
518.355	11.64
518.554	11.66
518.753	11.65
518.952	11.68
519.151	11.62
519.35	11.65
519.549	11.68
519.748	11.67
519.947	11.74
520.146	11.71
520.345	11.7
520.544	11.74
520.743	11.78
520.942	11.91
521.141	12.02
521.339	12.2
521.538	12.31
521.737	12.32
521.936	12.35
522.135	12.39
522.333	12.48
522.532	12.49
522.731	12.45
522.93	12.5
523.129	12.49
523.327	12.4
523.526	12.37
523.725	12.41
523.923	12.38
524.122	12.35
524.321	12.31
524.519	12.36
524.718	12.37
524.917	12.44
525.115	12.42
525.314	12.5
525.512	12.53
525.711	12.48
525.909	12.45
526.108	12.42
526.306	12.43
526.505	12.45
526.703	12.42
526.902	12.38
527.1	12.31
527.299	12.29
527.497	12.21
527.696	12.18
527.894	12.22
528.092	12.18
528.291	12.23
528.489	12.22
528.688	12.22
528.886	12.23
529.084	12.29
529.283	12.32
529.481	12.33
529.679	12.36
529.877	12.44
530.076	12.44
530.274	12.51
530.472	12.63
530.67	12.7
530.869	12.76
531.067	12.86
531.265	12.87
531.463	12.94
531.661	12.98
531.859	13.07
532.057	13.08
532.255	13.2
532.454	13.27
532.652	13.26
532.85	13.29
533.048	13.27
533.246	13.29
533.444	13.36
533.642	13.39
533.84	13.4
534.038	13.48
534.236	13.52
534.434	13.52
534.632	13.5
534.83	13.49
535.027	13.51
535.225	13.62
535.423	13.59
535.621	13.58
535.819	13.59
536.017	13.7
536.215	13.71
536.412	13.73
536.61	13.75
536.808	13.81
537.006	13.83
537.203	13.97
537.401	13.98
537.599	14.09
537.797	14.24
537.994	14.44
538.192	14.48
538.39	14.51
538.587	14.64
538.785	14.78
538.983	14.82
539.18	14.94
539.378	14.9
539.575	14.93
539.773	14.97
539.97	14.92
540.168	14.84
540.366	14.82
540.563	14.85
540.761	14.81
540.958	14.75
541.155	14.73
541.353	14.74
541.55	14.77
541.748	14.79
541.945	14.8
542.143	14.83
542.34	14.92
542.537	14.98
542.735	15.03
542.932	15.06
543.129	15.14
543.327	15.27
543.524	15.37
543.721	15.44
543.919	15.56
544.116	15.63
544.313	15.75
544.51	15.79
544.708	15.87
544.905	15.92
545.102	16.12
545.299	16.21
545.496	16.26
545.693	16.38
545.891	16.35
546.088	16.49
546.285	16.54
546.482	16.56
546.679	16.61
546.876	16.73
547.073	16.81
547.27	16.76
547.467	16.89
547.664	16.9
547.861	16.97
548.058	17.21
548.255	17.17
548.452	17.29
548.649	17.42
548.846	17.53
549.043	17.59
549.24	17.65
549.437	17.72
549.633	17.7
549.83	17.94
550.027	17.98
550.224	18.02
550.421	18.16
550.618	18.19
550.814	18.3
551.011	18.28
551.208	18.32
551.405	18.41
551.601	18.63
551.798	18.75
551.995	18.6
552.191	18.63
552.388	18.6
552.585	18.56
552.781	18.67
552.978	18.62
553.175	18.71
553.371	18.73
553.568	18.76
553.764	18.79
553.961	18.68
554.157	18.78
554.354	18.86
554.55	18.95
554.747	19.03
554.943	18.98
555.14	19.18
555.336	19.32
555.533	19.41
555.729	19.53
555.926	19.55
556.122	19.66
556.318	19.87
556.515	20.02
556.711	20.03
556.907	20.14
557.104	20.35
557.3	20.37
557.496	20.34
557.693	20.43
557.889	20.65
558.085	20.73
558.281	20.98
558.478	20.97
558.674	20.89
558.87	21.13
559.066	21.16
559.262	21.27
559.459	21.24
559.655	21.41
559.851	21.52
560.047	21.56
560.243	21.63
560.439	21.6
560.635	21.73
560.831	21.82
561.027	21.82
561.223	21.82
561.419	21.84
561.615	21.95
561.811	21.97
562.007	21.9
562.203	21.74
562.399	21.89
562.595	21.86
562.791	21.92
562.987	22.11
563.183	22.2
563.379	22.27
563.575	22.24
563.771	22.36
563.966	22.44
564.162	22.72
564.358	22.89
564.554	22.69
564.75	22.89
564.945	22.73
565.141	22.63
565.337	22.72
565.533	22.8
565.728	22.8
565.924	22.73
566.12	22.74
566.315	22.62
566.511	22.7
566.707	22.89
566.902	22.79
567.098	22.99
567.293	23.11
567.489	23.05
567.684	23.16
567.88	23.35
568.076	23.5
568.271	23.59
568.467	23.69
568.662	23.68
568.858	23.77
569.053	23.98
569.248	23.95
569.444	24.07
569.639	24.07
569.835	24.1
570.03	24.12
570.225	24.16
570.421	24.14
570.616	24.24
570.812	24.33
571.007	24.27
571.202	24.23
571.397	24.31
571.593	24.3
571.788	24.38
571.983	24.46
572.178	24.55
572.374	24.6
572.569	24.78
572.764	24.81
572.959	24.86
573.154	25.06
573.35	25.09
573.545	25.24
573.74	25.26
573.935	25.36
574.13	25.39
574.325	25.44
574.52	25.61
574.715	25.74
574.91	25.79
575.105	25.87
575.3	25.93
575.495	26.14
575.69	26.13
575.885	26.28
576.08	26.4
576.275	26.47
576.47	26.54
576.665	26.59
576.86	26.75
577.055	26.85
577.25	26.9
577.444	26.94
577.639	27.05
577.834	27.11
578.029	27.34
578.224	27.26
578.418	27.43
578.613	27.61
578.808	27.68
579.003	27.59
579.197	27.52
579.392	27.53
579.587	27.6
579.781	27.51
579.976	27.72
580.171	27.54
580.365	27.82
580.56	28.04
580.755	28.07
580.949	27.97
581.144	27.95
581.338	28.05
581.533	28.26
581.727	28.46
581.922	28.67
582.116	28.61
582.311	28.79
582.505	28.77
582.7	28.67
582.894	28.81
583.089	29.01
583.283	29.15
583.478	29.26
583.672	29.27
583.866	29.32
584.061	29.31
584.255	29.27
584.449	29.26
584.644	29.38
584.838	29.31
585.032	29.14
585.226	29.26
585.421	29.3
585.615	29.48
585.809	29.53
586.003	29.6
586.198	29.59
586.392	29.92
586.586	29.98
586.78	29.94
586.974	30.08
587.168	30.16
587.363	29.97
587.557	29.98
587.751	29.81
587.945	29.78
588.139	29.88
588.333	29.9
588.527	29.78
588.721	29.68
588.915	29.74
589.109	29.93
589.303	30.02
589.497	30.07
589.691	29.95
589.885	30.06
590.079	30.05
590.273	29.81
590.466	29.89
590.66	29.88
590.854	30.02
591.048	30.09
591.242	30.03
591.436	30.1
591.629	30.2
591.823	30.45
592.017	30.56
592.211	30.71
592.404	30.79
592.598	30.69
592.792	30.83
592.986	30.74
593.179	30.69
593.373	30.62
593.567	30.54
593.76	30.7
593.954	30.35
594.147	30.29
594.341	30.19
594.535	30.17
594.728	30.33
594.922	30.04
595.115	30.09
595.309	30.09
595.502	30.17
595.696	30.18
595.889	30.05
596.083	30.19
596.276	30.15
596.47	30.07
596.663	30.02
596.856	29.89
597.05	29.99
597.243	30.03
597.437	30.06
597.63	29.91
597.823	29.73
598.017	29.74
598.21	29.8
598.403	29.8
598.596	29.98
598.79	30.17
598.983	30.38
599.176	30.51
599.369	30.55
599.563	30.58
599.756	30.79
599.949	31.06
600.142	31.23
600.335	31.24
600.528	31.16
600.722	31.28
600.915	31.16
601.108	31.16
601.301	31.21
601.494	31.05
601.687	30.9
601.88	30.77
602.073	30.59
602.266	30.43
602.459	30.32
602.652	30.46
602.845	30.32
603.038	30.34
603.231	30.22
603.424	30.07
603.617	30.07
603.809	30.13
604.002	30.2
604.195	30.23
604.388	30.22
604.581	30.42
604.774	30.32
604.966	30.34
605.159	30.32
605.352	30.21
605.545	30.36
605.737	30.45
605.93	30.55
606.123	30.53
606.316	30.59
606.508	30.68
606.701	30.73
606.894	30.99
607.086	31.16
607.279	31.21
607.471	31.41
607.664	31.51
607.857	31.64
608.049	31.87
608.242	32.18
608.434	32.57
608.627	32.87
608.819	33.04
609.012	33.47
609.204	33.89
609.397	34.6
609.589	35.47
609.782	36.08
609.974	36.93
610.166	37.63
610.359	38.32
610.551	39.06
610.743	39.61
610.936	40.22
611.128	40.63
611.32	41.13
611.513	41.29
611.705	41.24
611.897	41.36
612.09	41.24
612.282	40.98
612.474	40.54
612.666	40.13
612.858	39.78
613.051	39.59
613.243	39.25
613.435	38.85
613.627	38.56
613.819	38.31
614.011	38.31
614.203	38
614.395	37.88
614.588	37.91
614.78	37.67
614.972	37.49
615.164	37.15
615.356	36.66
615.548	36.5
615.74	36.19
615.932	35.9
616.124	35.31
616.315	34.89
616.507	34.6
616.699	34.21
616.891	34.18
617.083	33.93
617.275	33.95
617.467	33.94
617.659	33.73
617.85	33.7
618.042	33.7
618.234	33.74
618.426	33.68
618.618	33.65
618.809	33.59
619.001	33.31
619.193	33.55
619.384	33.48
619.576	33.64
619.768	33.55
619.959	33.77
620.151	33.75
620.343	33.76
620.534	33.81
620.726	33.79
620.917	33.74
621.109	33.96
621.301	33.73
621.492	33.65
621.684	33.87
621.875	34.1
622.067	33.98
622.258	34.07
622.45	34.13
622.641	34.25
622.832	34.43
623.024	34.56
623.215	34.44
623.407	34.62
623.598	34.69
623.789	34.41
623.981	34.04
624.172	33.8
624.363	33.75
624.555	33.67
624.746	33.54
624.937	33.16
625.129	33.09
625.32	33.13
625.511	32.95
625.702	32.86
625.893	32.85
626.085	32.9
626.276	32.88
626.467	32.79
626.658	32.74
626.849	32.87
627.04	32.98
627.231	33.08
627.422	33.03
627.614	33.11
627.805	33.24
627.996	33.33
628.187	33.5
628.378	33.67
628.569	33.81
628.76	33.91
628.951	33.83
629.142	33.9
629.332	33.91
629.523	33.96
629.714	33.98
629.905	33.99
630.096	34.11
630.287	34.07
630.478	34.11
630.669	34.1
630.859	34.08
631.05	34.24
631.241	34.44
631.432	34.39
631.623	34.42
631.813	34.35
632.004	34.13
632.195	34.1
632.385	34.12
632.576	34.21
632.767	34.24
632.957	34.06
633.148	33.96
633.339	33.7
633.529	33.46
633.72	33.29
633.91	33.2
634.101	33.2
634.292	33.04
634.482	32.85
634.673	32.57
634.863	32.43
635.054	32.67
635.244	32.64
635.435	32.66
635.625	32.82
635.815	32.92
636.006	32.99
636.196	33.11
636.387	33.07
636.577	33.09
636.767	33.23
636.958	33.23
637.148	33.14
637.338	33.15
637.529	33.2
637.719	33.27
637.909	33.24
638.099	33.14
638.29	32.93
638.48	33
638.67	32.97
638.86	32.84
639.05	32.79
639.241	32.78
639.431	32.98
639.621	32.98
639.811	32.86
640.001	32.69
640.191	32.7
640.381	32.96
640.571	32.98
640.761	33.27
640.951	33.4
641.141	33.29
641.331	33.29
641.521	33.24
641.711	33.59
641.901	33.45
642.091	33.73
642.281	33.96
642.471	34
642.661	34.29
642.851	34.32
643.041	34.5
643.231	34.48
643.42	34.47
643.61	34.36
643.8	34.07
643.99	34.44
644.18	34.26
644.369	34.33
644.559	34.2
644.749	33.76
644.939	33.61
645.128	33.49
645.318	33.52
645.508	33.53
645.697	33.61
645.887	33.43
646.076	33.37
646.266	33.35
646.456	33.28
646.645	33.5
646.835	33.92
647.024	33.83
647.214	33.73
647.403	33.88
647.593	33.89
647.782	33.97
647.972	34.03
648.161	34.23
648.351	34.39
648.54	34.51
648.73	34.55
648.919	34.37
649.108	34.37
649.298	34.64
649.487	34.72
649.677	34.9
649.866	34.69
650.055	34.76
650.244	34.67
650.434	34.66
650.623	34.7
650.812	34.71
651.002	34.38
651.191	34.42
651.38	34.29
651.569	34.16
651.758	34.09
651.947	34.1
652.137	33.88
652.326	33.71
652.515	33.75
652.704	33.73
652.893	33.62
653.082	34.12
653.271	34.47
653.46	34.5
653.649	34.55
653.838	34.33
654.027	34.45
654.216	34.78
654.405	34.92
654.594	34.88
654.783	34.68
654.972	34.52
655.161	34.34
655.35	34.11
655.539	34.35
655.728	34.53
655.916	34.51
656.105	34.45
656.294	34.34
656.483	34.33
656.672	34.37
656.86	34.54
657.049	34.67
657.238	34.48
657.427	34.36
657.615	33.89
657.804	33.56
657.993	33.52
658.181	33.41
658.37	33.42
658.559	33.14
658.747	32.94
658.936	32.79
659.125	32.39
659.313	32.31
659.502	32.42
659.69	32.5
659.879	32.46
660.067	32.61
660.256	32.6
660.444	32.73
660.633	33.01
660.821	33.35
661.01	33.51
661.198	34.07
661.387	34.53
661.575	34.69
661.763	34.85
661.952	35.13
662.14	35.43
662.328	35.79
662.517	35.58
662.705	35.58
662.893	35.48
663.082	35.48
663.27	35.55
663.458	35.47
663.646	35.46
663.834	35.59
664.023	35.86
664.211	35.37
664.399	35.15
664.587	35.63
664.775	35.45
664.963	35.71
665.152	35.91
665.34	35.95
665.528	35.82
665.716	35.89
665.904	35.89
666.092	35.73
666.28	36
666.468	36.05
666.656	35.76
666.844	36.11
667.032	36.17
667.22	36.22
667.408	36.07
667.596	36.17
667.784	35.84
667.971	35.96
668.159	35.98
668.347	35.85
668.535	35.88
668.723	35.76
668.911	35.59
669.098	35.27
669.286	35.06
669.474	34.88
669.662	34.85
669.849	35.08
670.037	34.83
670.225	34.84
670.413	34.87
670.6	34.91
670.788	35.02
670.976	35.2
671.163	35.13
671.351	35.25
671.538	35.7
671.726	35.97
671.913	35.93
672.101	36.01
672.289	35.87
672.476	35.98
672.664	35.97
672.851	36.13
673.039	36.1
673.226	36.32
673.413	36.08
673.601	35.69
673.788	35.47
673.976	35.52
674.163	35.59
674.35	35.82
674.538	35.84
674.725	35.98
674.912	35.98
675.1	36.16
675.287	36.49
675.474	36.94
675.662	37.04
675.849	37.06
676.036	37.04
676.223	37.04
676.411	37.02
676.598	36.84
676.785	36.54
676.972	36.6
677.159	36.46
677.346	36.01
677.533	35.85
677.721	35.46
677.908	35.3
678.095	35.05
678.282	35.06
678.469	34.73
678.656	34.84
678.843	34.77
679.03	34.55
679.217	34.37
679.404	34.42
679.591	34.08
679.778	34.41
679.964	34.37
680.151	34.53
680.338	34.3
680.525	34.35
680.712	34.47
680.899	34.78
681.086	35.08
681.272	35.26
681.459	35.43
681.646	35.85
681.833	35.96
682.02	36.03
682.206	35.97
682.393	36.25
682.58	36.31
682.766	36.45
682.953	36.33
683.14	36.1
683.326	36.32
683.513	36.25
683.7	36.42
683.886	36.35
684.073	36.49
684.259	36.7
684.446	36.76
684.632	37.07
684.819	36.78
685.005	36.74
685.192	36.86
685.378	36.65
685.565	36.82
685.751	36.5
685.938	36.6
686.124	36.42
686.31	36.61
686.497	36.54
686.683	36.61
686.87	36.92
687.056	37.07
687.242	37.01
687.429	37
687.615	36.95
687.801	37.17
687.987	37.36
688.174	37.82
688.36	37.59
688.546	37.73
688.732	37.46
688.918	37.18
689.105	37.34
689.291	37.49
689.477	37.45
689.663	37.54
689.849	37.32
690.035	37.17
690.221	37.27
690.407	37.61
690.593	37.57
690.779	37.93
690.965	37.94
691.151	37.95
691.337	38.02
691.523	38.2
691.709	38.22
691.895	38.36
692.081	38.3
692.267	38.07
692.453	37.7
692.639	37.77
692.825	37.54
693.011	37.72
693.196	37.53
693.382	37.62
693.568	37.42
693.754	37.05
693.94	37.25
694.125	37.34
694.311	37.12
694.497	37.66
694.682	37.72
694.868	37.45
695.054	37.46
695.239	37.68
695.425	37.35
695.611	37.42
695.796	37.38
695.982	37.21
696.168	37.27
696.353	36.94
696.539	36.69
696.724	36.26
696.91	36.11
697.095	35.69
697.281	35.35
697.466	35.13
697.652	34.77
697.837	34.47
698.023	34.23
698.208	33.9
698.393	34.1
698.579	33.8
698.764	33.8
698.949	34.02
699.135	33.94
699.32	34.09
699.505	34.23
699.691	34.41
699.876	34.72
700.061	34.86
700.246	35.23
700.432	35.23
700.617	35.24
700.802	35.52
700.987	35.87
701.172	36.6
701.358	36.79
701.543	37.2
701.728	37.49
701.913	38.04
702.098	38.35
702.283	38.72
702.468	38.9
702.653	39.58
702.838	39.94
703.023	40.21
703.208	40.13
703.393	39.78
703.578	40.18
703.763	40.74
703.948	40.79
704.133	41.11
704.318	41.23
704.503	41.99
704.688	42.06
704.873	42.16
705.057	42.39
705.242	42.98
705.427	43.74
705.612	43.56
705.797	43.19
705.981	43.37
706.166	43.35
706.351	43.35
706.536	43.21
706.72	43.26
706.905	43.17
707.09	42.97
707.274	42.4
707.459	42.19
707.644	42.21
707.828	42.64
708.013	42.33
708.197	42.45
708.382	42.2
708.567	42
708.751	41.84
708.936	41.85
709.12	41.78
709.305	42
709.489	41.72
709.673	41.43
709.858	41.32
710.042	41.13
710.227	40.78
710.411	40.81
710.596	41.03
710.78	40.87
710.964	40.69
711.149	40.31
711.333	40.08
711.517	40.47
711.702	40.33
711.886	39.95
712.07	40.03
712.254	39.96
712.438	39.66
712.623	39.2
712.807	39.44
712.991	39.7
713.175	39.91
713.359	39.94
713.544	39.75
713.728	40.15
713.912	40.29
714.096	40.3
714.28	40.28
714.464	40.07
714.648	39.97
714.832	39.64
715.016	39.3
715.2	39.45
715.384	39.28
715.568	39.12
715.752	38.48
715.936	38.32
716.12	38.02
716.304	38.52
716.488	38.84
716.671	38.95
716.855	39.22
717.039	39.45
717.223	38.61
717.407	38.9
717.59	39.02
717.774	39.17
717.958	38.68
718.142	38.89
718.325	38.26
718.509	38.62
718.693	39.02
718.877	38.54
719.06	38.48
719.244	39.26
719.428	39.07
719.611	39.04
719.795	39.53
719.978	40.52
720.162	40.81
720.345	41.06
720.529	40.57
720.713	40.35
720.896	40.9
721.08	41.28
721.263	41.23
721.446	41.38
721.63	41.43
721.813	41.59
721.997	41.11
722.18	41.19
722.364	41.05
722.547	41.46
722.73	41.54
722.914	41.68
723.097	41.06
723.28	41.58
723.464	41.38
723.647	41.83
723.83	41.39
724.013	41.58
724.197	41.68
724.38	41.75
724.563	41.47
724.746	41.61
724.929	41.59
725.112	41.8
725.296	41.8
725.479	41.64
725.662	41.27
725.845	41.3
726.028	40.8
726.211	40.55
726.394	40.73
726.577	40.15
726.76	40.21
726.943	39.67
727.126	39.56
727.309	38.77
727.492	38.99
727.675	38.93
727.858	39.05
728.041	39.16
728.224	39.49
728.407	39.33
728.589	39.53
728.772	39.04
728.955	39.28
729.138	39.22
729.321	39.71
729.503	39.87
729.686	39.42
729.869	39.41
730.052	39.44
730.234	38.87
730.417	39.33
730.6	39.23
730.782	39.17
730.965	38.91
731.148	38.96
731.33	38.3
731.513	38.33
731.695	38.73
731.878	38.79
732.061	39.31
732.243	39.54
732.426	39.16
732.608	39.5
732.791	39.52
732.973	39.32
733.156	39.85
733.338	40.38
733.52	40.64
733.703	40.23
733.885	40.02
734.068	40
734.25	40.05
734.432	39.99
734.615	39.89
734.797	40.16
734.979	40.56
735.162	40.13
735.344	39.94
735.526	39.41
735.708	40.08
735.891	40.77
736.073	40.88
736.255	40.69
736.437	41.1
736.619	40.9
736.802	40.77
736.984	40.59
737.166	40.99
737.348	40.89
737.53	41.74
737.712	41.8
737.894	41.51
738.076	41.75
738.258	41.46
738.44	40.98
738.622	41.16
738.804	41.37
738.986	41.98
739.168	41.27
739.35	41.81
739.532	41.99
739.714	41.92
739.896	42.15
740.078	41.9
740.259	42.56
740.441	42.98
740.623	43.14
740.805	43.28
740.987	43.32
741.168	44.16
741.35	44.34
741.532	44.17
741.714	44.62
741.895	44.94
742.077	45.44
742.259	45.76
742.44	46.16
742.622	46.68
742.804	47.1
742.985	47.74
743.167	47.43
743.348	46.82
743.53	46.24
743.711	46.65
743.893	46.27
744.075	46.05
744.256	46.27
744.438	46.27
744.619	46.35
744.8	46.96
744.982	46.69
745.163	47.1
745.345	48.06
745.526	48.77
745.707	48.26
745.889	48.51
746.07	48.48
746.252	47.86
746.433	48.21
746.614	48
746.795	46.67
746.977	47.12
747.158	46.45
747.339	46.35
747.52	45.87
747.702	45.76
747.883	45.41
748.064	44.9
748.245	45.13
748.426	44.55
748.607	44.49
748.788	44.77
748.97	44.25
749.151	44.89
749.332	44.82
749.513	44.9
749.694	45.37
749.875	45.37
750.056	45.75
750.237	45.88
750.418	45.35
750.599	45.74
750.78	45.73
750.96	46.07
751.141	45.49
751.322	45.32
751.503	45.6
751.684	44.88
751.865	44.85
752.046	45.19
752.226	45.04
752.407	45.05
752.588	44.47
752.769	44.48
752.949	44.59
753.13	45.03
753.311	44.42
753.492	43.87
753.672	44.26
753.853	44.93
754.034	44.87
754.214	44.75
754.395	44.38
754.575	44.99
754.756	45.48
754.937	45.03
755.117	45.49
755.298	46.47
755.478	46.48
755.659	45.95
755.839	45.75
756.02	45.27
756.2	45.39
756.381	46.18
756.561	46.18
756.741	46.63
756.922	46.62
757.102	46.34
757.283	45.93
757.463	46.84
757.643	47.36
757.823	46.31
758.004	46.34
758.184	45.89
758.364	46.29
758.545	46.22
758.725	45.73
758.905	45.66
759.085	44.91
759.265	44.29
759.446	43.73
759.626	43.74
759.806	43.76
759.986	44.29
760.166	44.54
760.346	43.29
760.526	42.84
760.706	42.25
760.886	41.72
761.066	41.53
761.246	41.27
761.426	41.08
761.606	40.07
761.786	40.03
761.966	39.06
762.146	39.03
762.326	38.87
762.506	38.35
762.686	38.04
762.866	37.83
763.046	37.8
763.225	37.6
763.405	37.15
763.585	37.32
763.765	37.27
763.945	36.82
764.124	36.49
764.304	36.85
764.484	37.32
764.664	37.68
764.843	37.76
765.023	38.11
765.203	38.45
765.382	39.08
765.562	39.67
765.741	40.44
765.921	41.27
766.101	42.3
766.28	42.78
766.46	42.84
766.639	43.18
766.819	43.96
766.998	44.37
767.178	45.19
767.357	45.25
767.537	45.51
767.716	45.69
767.896	46.88
768.075	46.5
768.254	46.6
768.434	46.49
768.613	46.47
768.792	46.61
768.972	46.69
769.151	47.04
769.33	48.17
769.51	48.58
769.689	47.98
769.868	47.89
770.047	48.26
770.226	48.47
770.406	49.35
770.585	49.91
770.764	49.28
770.943	49.77
771.122	49.54
771.301	49.22
771.48	49.35
771.66	50.43
771.839	50.15
772.018	50.27
772.197	51.12
772.376	51.12
772.555	51.29
772.734	51.82
772.913	52.03
773.092	51.57
773.271	51.21
773.449	51.13
773.628	50.81
773.807	51.15
773.986	51.53
774.165	51.18
774.344	51.79
774.523	52.14
774.701	52.36
774.88	51.53
775.059	51.88
775.238	51.88
775.417	51.41
775.595	51.21
775.774	50.88
775.953	50.36
776.131	50.26
776.31	49.41
776.489	49.07
776.667	49.56
776.846	49.95
777.025	50.7
777.203	50.65
777.382	51.81
777.56	51.79
777.739	52.22
777.917	52.91
778.096	52.54
778.274	53.69
778.453	53.57
778.631	52.07
778.81	52.61
778.988	52.82
779.166	52.54
779.345	51.26
779.523	51.29
779.702	51.37
779.88	51.65
780.058	52.38
780.237	51.8
780.415	52.03
780.593	53.86
780.771	54.66
780.95	53.71
781.128	55
781.306	55.57
781.484	56.98
781.662	56.88
781.841	56.62
782.019	56.55
782.197	56.2
782.375	55.37
782.553	54.59
782.731	53.82
782.909	54.26
783.087	53.5
783.265	53.9
783.443	53.62
783.621	53.26
783.799	52.68
783.977	53.13
784.155	53.46
784.333	54.97
784.511	55.76
784.689	55.67
784.867	54.96
785.045	55.54
785.223	55.66
785.4	54.37
785.578	55.73
785.756	56.4
785.934	55.78
786.112	56.79
786.289	56.46
786.467	55.65
786.645	54.94
786.823	55.5
787	55.57
787.178	53.76
787.356	53.92
787.533	51.88
787.711	51.3
787.889	51.1
788.066	50.73
788.244	50.24
788.421	50.53
788.599	50.33
788.776	50.61
788.954	50.21
789.131	51.13
789.309	51.34
789.486	51.42
789.664	52.53
789.841	52.53
790.019	51.85
790.196	52.3
790.373	52.7
790.551	53.72
790.728	53.83
790.906	54.02
791.083	54.31
791.26	54.14
791.437	55.17
791.615	54.01
791.792	54.32
791.969	55.11
792.146	54.52
792.324	55.11
792.501	55.38
792.678	55
792.855	55.21
793.032	55.41
793.209	56.13
793.387	57.39
793.564	57.96
793.741	58.94
793.918	58.92
794.095	59.1
794.272	58.4
794.449	58.06
794.626	59.02
794.803	59.17
794.98	59.5
795.157	58.4
795.334	56.52
795.511	56.26
795.688	55.8
795.864	55.39
796.041	55.37
796.218	55.71
796.395	55.95
796.572	53.44
796.749	52.61
796.925	51.7
797.102	53.72
797.279	53.97
797.456	53.9
797.632	53.16
797.809	52.67
797.986	52.49
798.162	51.94
798.339	51.16
798.516	52.57
798.692	51.94
798.869	52.78
799.046	52.4
799.222	53.35
799.399	53.14
799.575	53.28
799.752	54.4
799.928	54.74
800.105	54.85
800.281	54.9
800.458	54.66
800.634	56.84
800.811	57.15
800.987	56.66
801.163	56.26
801.34	56.94
801.516	55.94
801.692	55.7
801.869	55.27
802.045	54.93
802.221	55.79
802.398	55.91
802.574	54.82
802.75	55.18
802.926	56.33
803.103	56.82
803.279	57.26
803.455	57.87
803.631	57.95
803.807	58.12
803.983	59.75
804.16	61.11
804.336	61.38
804.512	62.95
804.688	63.45
804.864	62.09
805.04	62.08
805.216	62.55
805.392	65.3
805.568	66.16
805.744	67.22
805.92	66.5
806.096	64.31
806.272	66.34
806.448	66.54
806.623	66.23
806.799	65.28
806.975	65.8
807.151	63.93
807.327	62.85
807.503	61.62
807.678	61.72
807.854	61.08
808.03	61.27
808.206	60.94
808.381	59.04
808.557	59.12
808.733	60.31
808.908	58.78
809.084	60.32
809.26	60.06
809.435	59.42
809.611	58.78
809.787	60.47
809.962	61.25
810.138	59.76
810.313	60.13
810.489	58.82
810.664	59.15
810.84	58.74
811.015	60.2
811.191	58.52
811.366	59.17
811.542	60.35
811.717	58.04
811.892	58.3
812.068	60.18
812.243	60.01
812.419	60.95
812.594	60.79
812.769	62.68
812.944	61.39
813.12	62.78
813.295	64.61
813.47	64.18
813.645	67.22
813.821	67.12
813.996	66.04
814.171	66.43
814.346	65.2
814.521	65.04
814.697	63.01
814.872	62.24
815.047	62.87
815.222	62.18
815.397	62.03
815.572	61.36
815.747	62.43
815.922	61.9
816.097	62.13
816.272	64.27
816.447	64.31
816.622	65.47
816.797	66.85
816.972	64.99
817.147	65.14
817.322	64.88
817.496	62.8
817.671	61.48
817.846	60.62
818.021	61.23
818.196	60.02
818.371	59.98
818.545	58.99
818.72	56.64
818.895	56.56
819.069	54.78
819.244	54.06
819.419	52.94
819.594	52.74
819.768	51.7
819.943	48.54
820.117	46.51
820.292	43.92
820.467	42.54
820.641	40.7
820.816	39.19
820.99	37.59
821.165	35.82
821.339	34.71
821.514	33.85
821.688	33.17
821.863	32.76
822.037	31.98
822.212	31.34
822.386	30.97
822.56	30.8
822.735	30.52
822.909	30.31
823.084	30.46
823.258	30.65
823.432	30.33
823.606	30.36
823.781	30.64
823.955	31.25
824.129	31.99
824.303	32.57
824.478	33.45
824.652	34.16
824.826	34.81
825	35.64
825.174	36.33
825.348	37.39
825.523	38.26
825.697	38.23
825.871	38.22
826.045	38.29
826.219	37.99
826.393	37.87
826.567	37.72
826.741	37.98
826.915	37.81
827.089	37.85
827.263	37.49
827.437	37.67
827.611	38.07
827.784	38.75
827.958	38.59
828.132	38.99
828.306	39.1
828.48	39.72
828.654	39.79
828.827	40.11
829.001	40.79
829.175	41.46
829.349	42.2
829.522	42.84
829.696	44.17
829.87	45.34
830.044	46.55
830.217	47.79
830.391	48.08
830.565	48.9
830.738	50.42
830.912	52.19
831.085	53.29
831.259	54.11
831.432	53.75
831.606	52.22
831.779	52.89
831.953	51.86
832.126	51.46
832.3	52.71
832.473	52.34
832.647	49.34
832.82	47.82
832.994	46.84
833.167	45.48
833.34	45.19
833.514	44.73
833.687	44.67
833.86	44
834.034	42.76
834.207	41.48
834.38	41.51
834.553	42.37
834.727	42.6
834.9	43.18
835.073	44.16
835.246	44.84
835.419	45.92
835.593	46.38
835.766	47.9
835.939	50.07
836.112	52.23
836.285	55.06
836.458	56.7
836.631	58.3
836.804	61.21
836.977	63.68
837.15	66.65
837.323	66.16
837.496	67.18
837.669	68.75
837.842	70.04
838.015	71.13
838.188	70.36
838.361	73.18
838.533	70.58
838.706	69.5
838.879	67.54
839.052	67.97
839.225	72.24
839.398	71.31
839.57	71.13
839.743	71.48
839.916	70.1
840.088	70.58
840.261	70.96
840.434	73.92
840.607	73.99
840.779	75.33
840.952	74.4
841.124	74.22
841.297	76.02
841.47	75.89
841.642	77.31
841.815	80.21
841.987	81.87
842.16	81.7
842.332	82.87
842.505	83.38
842.677	83.09
842.85	84.92
843.022	85.13
843.194	86.24
843.367	90.61
843.539	91.52
843.712	88.97
843.884	85.46
844.056	89.68
844.229	90.86
844.401	90.36
844.573	93.48
844.745	94.94
844.918	96.77
845.09	98.75
845.262	97.08
845.434	97.58
845.606	102.08
845.779	107.99
845.951	105.11
846.123	103.46
846.295	104.09
846.467	101.57
846.639	101.82
846.811	100.63
846.983	100.21
847.155	102.93
847.327	104.57
847.499	108.51
847.671	107.75
847.843	111.78
848.015	114.03
848.187	118.67
848.359	122.3
848.531	120.35
848.703	121.71
848.875	128.86
849.047	127.2
849.218	126.57
849.39	125.13
849.562	123.22
849.734	120.02
849.905	122.1
850.077	119.21
850.249	117.56
850.421	121.41
850.592	120.67
850.764	117.22
850.936	121.62
851.107	119.54
851.279	119.13
851.451	125.09
851.622	123.88
851.794	123.41
851.965	125.06
852.137	126.03
852.308	128.48
852.48	128.06
852.651	123.49
852.823	117.34
852.994	118.97
853.166	117.59
853.337	113.7
853.509	113.07
853.68	109.09
853.851	107.12
854.023	106.19
854.194	103.1
854.365	105.77
854.537	107.88
854.708	106.03
854.879	106.93
855.05	109.4
855.222	109.1
855.393	107.96
855.564	111.29
855.735	113.11
855.906	114.89
856.078	111.7
856.249	108.73
856.42	105.87
856.591	108.83
856.762	104.86
856.933	100.27
857.104	104.17
857.275	105.2
857.446	105.41
857.617	106.46
857.788	105.49
857.959	106.97
858.13	109.33
858.301	116.67
858.472	117.1
858.643	122.92
858.814	128.19
858.985	122.63
859.155	127.48
859.326	128.48
859.497	126.22
859.668	129.35
859.839	134.6
860.009	137.17
860.18	131.3
860.351	125.39
860.522	129.53
860.692	125.67
860.863	128.98
861.034	130.33
861.204	131.47
861.375	133.38
861.546	130.63
861.716	130.62
861.887	129.3
862.057	129.17
862.228	129.77
862.398	127.17
862.569	129.44
862.739	126.73
862.91	120.31
863.08	121.28
863.251	121.7
863.421	121.95
863.592	121.11
863.762	115.41
863.932	119.97
864.103	121.73
864.273	119.25
864.443	117.26
864.614	117.67
864.784	114.46
864.954	113.46
865.125	112.53
865.295	114.35
865.465	114.56
865.635	120.62
865.805	119.85
865.976	124.93
866.146	124.99
866.316	130.53
866.486	136.98
866.656	144.66
866.826	139.88
866.996	144.09
867.166	141.84
867.336	140.21
867.506	138.66
867.676	135.23
867.846	135.74
868.016	140.22
868.186	140.8
868.356	133.7
868.526	134.96
868.696	142.98
868.866	137.83
869.036	133.84
869.206	134.23
869.376	128.94
869.545	130.29
869.715	136.85
869.885	124.66
870.055	118.46
870.224	126.34
870.394	125.56
870.564	121.76
870.734	119.84
870.903	123.05
871.073	121.06
871.243	124.25
871.412	122.97
871.582	115.34
871.751	122.41
871.921	122.87
872.091	116.53
872.26	114.67
872.43	114.49
872.599	116.9
872.769	115.28
872.938	117.35
873.108	120.59
873.277	120.45
873.446	113.45
873.616	111.43
873.785	112.94
873.955	112.72
874.124	116.95
874.293	114.56
874.463	112.85
874.632	115.56
874.801	110.1
874.971	106.71
875.14	110.18
875.309	115.71
875.478	117.85
875.647	116.54
875.817	114.59
875.986	110.74
876.155	108.64
876.324	115.22
876.493	117.51
876.662	119.12
876.831	117.8
877	116.9
877.17	116.97
877.339	114.14
877.508	113.44
877.677	116.9
877.846	118.63
878.015	120.9
878.184	112.92
878.352	108.15
878.521	105.69
878.69	104.27
878.859	103.17
879.028	101.88
879.197	100.14
879.366	97.12
879.534	92.93
879.703	88.89
879.872	87
880.041	85.5
880.21	80.57
880.378	75.33
880.547	70.4
880.716	65.43
880.884	60.51
881.053	56.94
881.222	54.26
881.39	52.21
881.559	48.6
881.727	45.72
881.896	42.88
882.065	41.33
882.233	40.62
882.402	40.53
882.57	39.81
882.739	39.98
882.907	38.72
883.076	38.97
883.244	39.57
883.412	41.06
883.581	42.76
883.749	43.89
883.918	46.05
884.086	48.41
884.254	49.68
884.423	51.9
884.591	53.49
884.759	58.67
884.927	62.36
885.096	63.88
885.264	67.4
885.432	68.54
885.6	73.76
885.769	76.55
885.937	75.67
886.105	78.81
886.273	80.17
886.441	84.08
886.609	86.19
886.777	87.96
886.945	91.59
887.113	92.46
887.281	97.65
887.449	98.24
887.617	99.31
887.785	102.32
887.953	105.27
888.121	112.28
888.289	118.02
888.457	117.18
888.625	113.47
888.793	115.61
888.961	114.4
889.129	111.97
889.296	111.48
889.464	111.56
889.632	114.48
889.8	115.82
889.967	114.56
890.135	106.74
