Data from 2938748__Reflection_02.txt Node
Date: Sun Mar 15 11:25:03 EDT 2015
User: robert
Spectrometer: USB4E03002
Autoset integration time: false
Trigger mode: 4
Integration Time (sec): 1.000000E-1
Scans to average: 10
Electric dark correction enabled: false
Nonlinearity correction enabled: false
Boxcar width: 5
Stray light correction enabled: false
XAxis mode: Wavelengths
Stop averaging: false
Number of Pixels in Spectrum: 3648
>>>>>Begin Spectral Data<<<<<
177.575	382.3
177.794	346.9
178.014	309.35
178.233	301.83
178.452	288.38
178.672	274.11
178.891	255.82
179.11	255.61
179.33	227.08
179.549	217.17
179.768	217.63
179.987	210.68
180.207	208.2
180.426	201.84
180.645	199.62
180.864	200.37
181.084	189.24
181.303	190.64
181.522	177.08
181.741	181.03
181.96	175.96
182.179	186.59
182.398	182.45
182.618	172.61
182.837	182.56
183.056	173.57
183.275	167.54
183.494	170.34
183.713	163.84
183.932	165.01
184.151	170.95
184.37	181.73
184.589	171.78
184.808	178.11
185.027	183.95
185.246	173
185.465	177.7
185.684	177.84
185.903	178.33
186.122	172.38
186.341	177.78
186.56	174.2
186.779	159.55
186.998	159.07
187.216	162.02
187.435	167.56
187.654	169.3
187.873	170.25
188.092	164.98
188.311	168.74
188.53	183.19
188.748	184.05
188.967	173.47
189.186	187.22
189.405	186.83
189.623	179.57
189.842	174.31
190.061	181.09
190.28	172.32
190.498	179.07
190.717	184.55
190.936	175.63
191.154	158.04
191.373	168.6
191.592	171.02
191.81	168.36
192.029	174.37
192.248	173.81
192.466	175.77
192.685	176.5
192.904	176.19
193.122	175.09
193.341	181.69
193.559	200.96
193.778	205.42
193.996	195.98
194.215	204.11
194.433	196.13
194.652	191.74
194.87	189.67
195.089	194.46
195.307	196.67
195.526	189.01
195.744	185.7
195.963	179.78
196.181	166.8
196.399	165.56
196.618	161.08
196.836	156.25
197.055	162.05
197.273	161.56
197.491	170.38
197.71	169.77
197.928	172.72
198.146	172.3
198.365	169.5
198.583	175.52
198.801	181.65
199.019	190.59
199.238	209.94
199.456	207.69
199.674	204.11
199.892	202.32
200.111	212.28
200.329	205.58
200.547	201.23
200.765	216.23
200.983	218.91
201.202	196.13
201.42	193.23
201.638	179.39
201.856	175.75
202.074	170.48
202.292	161.35
202.51	157.27
202.728	164
202.946	171.97
203.165	163.41
203.383	154.78
203.601	161.35
203.819	163.05
204.037	171.05
204.255	174.61
204.473	169.28
204.691	174.23
204.909	168.97
205.127	171.23
205.345	156.17
205.562	150.35
205.78	163.58
205.998	165.06
206.216	167.39
206.434	170.42
206.652	172.47
206.87	180.63
207.088	175.12
207.306	174.87
207.523	170.48
207.741	170.36
207.959	175.95
208.177	163.73
208.395	167.9
208.612	169.85
208.83	158.66
209.048	158.24
209.266	157.74
209.483	152.45
209.701	152.27
209.919	156.14
210.136	158.88
210.354	169.52
210.572	168.6
210.79	171.74
211.007	167.44
211.225	167.34
211.442	161.96
211.66	157.84
211.878	167.59
212.095	181.33
212.313	174.7
212.53	177.16
212.748	159.56
212.966	150.79
213.183	142.22
213.401	135.4
213.618	134.37
213.836	137.19
214.053	139
214.271	144.34
214.488	147.43
214.705	143.54
214.923	149.54
215.14	152.21
215.358	163.39
215.575	167.48
215.793	170.72
216.01	170.33
216.227	165
216.445	172.91
216.662	163.14
216.879	155.2
217.097	156.36
217.314	149.63
217.531	152.28
217.749	150.72
217.966	149.31
218.183	154.78
218.4	153.57
218.618	151.89
218.835	147.49
219.052	143.08
219.269	141.8
219.487	138.77
219.704	136.81
219.921	132.51
220.138	133.14
220.355	135.19
220.572	126.96
220.79	129.84
221.007	124.59
221.224	124.98
221.441	125.06
221.658	123.06
221.875	125.24
222.092	128.7
222.309	127.2
222.526	121.39
222.743	121.77
222.96	117.35
223.177	110.86
223.394	115.24
223.611	111.64
223.828	113.17
224.045	113.39
224.262	110.91
224.479	108.21
224.696	104.92
224.913	101.24
225.13	91.74
225.347	91.04
225.564	88.85
225.781	86.54
225.997	82.46
226.214	78.86
226.431	73.67
226.648	69.1
226.865	59.35
227.082	56.49
227.298	51.36
227.515	48.17
227.732	45.07
227.949	41.41
228.165	37.6
228.382	36.08
228.599	33.16
228.816	31.54
229.032	30.41
229.249	30.73
229.466	29.34
229.682	28.62
229.899	28.98
230.116	29.61
230.332	30.78
230.549	31.63
230.765	32.27
230.982	34.05
231.199	34.81
231.415	36.74
231.632	38.21
231.848	41.42
232.065	44.34
232.281	44.92
232.498	44.19
232.714	44.54
232.931	46.49
233.147	46.81
233.364	47.86
233.58	46.94
233.797	45.13
234.013	46.44
234.23	44.65
234.446	43.64
234.662	43.91
234.879	45.72
235.095	45.83
235.312	44.9
235.528	45.67
235.744	44.66
235.961	46.17
236.177	46.78
236.393	46.73
236.61	48.37
236.826	49.04
237.042	50.04
237.258	49.63
237.475	49.57
237.691	51.34
237.907	48.91
238.123	49.09
238.339	49.31
238.556	50.09
238.772	49.2
238.988	46.46
239.204	44.93
239.42	42.54
239.636	40.57
239.853	38.93
240.069	36.27
240.285	35.71
240.501	33.43
240.717	31.45
240.933	28.41
241.149	26.11
241.365	24.57
241.581	22.84
241.797	21.91
242.013	20.88
242.229	19.93
242.445	19.23
242.661	18.55
242.877	18.52
243.093	18.15
243.309	19.56
243.525	19.67
243.741	20.56
243.957	22.19
244.173	22.51
244.388	23.45
244.604	23.66
244.82	24.04
245.036	23.85
245.252	22.37
245.468	21.37
245.683	19.16
245.899	18.54
246.115	17.34
246.331	15.85
246.547	14.75
246.762	13.69
246.978	13.46
247.194	12.7
247.409	12.25
247.625	12.11
247.841	11.63
248.057	11.85
248.272	12
248.488	12.51
248.703	13.06
248.919	13.7
249.135	14.49
249.35	15.27
249.566	16.8
249.782	18.27
249.997	20.81
250.213	22.85
250.428	23.25
250.644	23.27
250.859	23.21
251.075	22.94
251.29	22.28
251.506	22.45
251.721	22
251.937	21.56
252.152	21.01
252.368	19.59
252.583	19.87
252.798	20.18
253.014	20.69
253.229	20.76
253.445	21.37
253.66	23.23
253.875	22.85
254.091	23.74
254.306	24.82
254.521	24.93
254.737	26.18
254.952	25.72
255.167	25.73
255.383	25.56
255.598	26.47
255.813	26.35
256.028	26.9
256.244	27.97
256.459	28.19
256.674	27.43
256.889	27.44
257.104	26.43
257.32	25.94
257.535	25.08
257.75	23.13
257.965	21.26
258.18	19.06
258.395	17.06
258.61	14.93
258.826	13.56
259.041	12.13
259.256	11.08
259.471	10.46
259.686	9.89
259.901	9.6
260.116	9.59
260.331	9.41
260.546	9.79
260.761	9.72
260.976	10.23
261.191	10.46
261.406	11.55
261.621	12.65
261.836	13.63
262.05	14.66
262.265	15.62
262.48	16.89
262.695	17.86
262.91	18.78
263.125	19.92
263.34	20.42
263.555	21.19
263.769	21.03
263.984	20.86
264.199	20.72
264.414	21
264.629	20.43
264.843	19.94
265.058	20.05
265.273	19.7
265.488	18.96
265.702	19
265.917	17.9
266.132	17.84
266.346	17.38
266.561	17.01
266.776	16.41
266.99	16.63
267.205	16.4
267.42	16.09
267.634	15.87
267.849	15.72
268.063	15.29
268.278	15.83
268.492	15.71
268.707	15.98
268.922	15.69
269.136	15.56
269.351	15.15
269.565	15.21
269.78	14.82
269.994	14.64
270.209	14.56
270.423	14.48
270.637	14.33
270.852	13.62
271.066	13.01
271.281	12.73
271.495	12.4
271.709	12.42
271.924	11.94
272.138	12.19
272.353	12.31
272.567	12.13
272.781	11.89
272.996	11.73
273.21	12.12
273.424	12.47
273.638	12.84
273.853	12.96
274.067	13.28
274.281	13.56
274.495	13.67
274.71	13.74
274.924	14.09
275.138	14.47
275.352	14.6
275.566	14.27
275.781	14.75
275.995	14.58
276.209	14.97
276.423	14.75
276.637	14.86
276.851	14.76
277.065	14.78
277.279	14.67
277.493	15.22
277.707	15.55
277.921	16.24
278.135	15.56
278.349	15.55
278.563	15.18
278.777	15.11
278.991	15.25
279.205	15.52
279.419	15.62
279.633	15.53
279.847	15.07
280.061	14.6
280.275	13.49
280.489	13.51
280.703	13.44
280.917	13.16
281.131	13.01
281.344	12.74
281.558	12.48
281.772	12.22
281.986	12.07
282.2	11.74
282.414	11.55
282.627	11.99
282.841	11.79
283.055	11.7
283.269	12.07
283.482	12.23
283.696	12.24
283.91	12.35
284.123	12.04
284.337	12.04
284.551	12.07
284.764	11.92
284.978	11.85
285.192	11.9
285.405	11.77
285.619	11.53
285.833	11.06
286.046	10.86
286.26	10.85
286.473	10.9
286.687	11.08
286.9	11.13
287.114	11.58
287.327	11.57
287.541	11.87
287.754	12.11
287.968	11.98
288.181	12.12
288.395	12.3
288.608	11.89
288.822	11.84
289.035	11.5
289.248	11.03
289.462	10.64
289.675	10.54
289.889	10.28
290.102	10.36
290.315	10.52
290.529	10.34
290.742	10.52
290.955	10.79
291.169	11.03
291.382	11.11
291.595	11.57
291.808	11.81
292.022	12.25
292.235	12.43
292.448	12.5
292.661	13.06
292.875	13.19
293.088	13
293.301	12.87
293.514	12.89
293.727	12.53
293.94	12.38
294.153	12.38
294.367	11.98
294.58	11.63
294.793	11.24
295.006	11.07
295.219	11.11
295.432	11.1
295.645	10.71
295.858	9.88
296.071	10
296.284	9.99
296.497	9.34
296.71	9.31
296.923	9.31
297.136	9.3
297.349	8.92
297.562	8.81
297.775	8.81
297.988	9
298.201	9.67
298.414	9.65
298.626	9.51
298.839	10.18
299.052	10.11
299.265	10.07
299.478	10.32
299.691	10.48
299.903	10.85
300.116	10.61
300.329	10.85
300.542	10.54
300.755	11.05
300.967	11.46
301.18	11.08
301.393	11.5
301.605	11.9
301.818	12.09
302.031	12.44
302.243	12.65
302.456	13.13
302.669	12.99
302.881	13.51
303.094	13.27
303.307	12.77
303.519	13.23
303.732	13.03
303.944	12.82
304.157	12.73
304.37	12.58
304.582	12.5
304.795	12.49
305.007	12.54
305.22	12.12
305.432	12.13
305.645	12.49
305.857	12.03
306.069	12.04
306.282	12.11
306.494	12.29
306.707	12.26
306.919	12.3
307.132	11.96
307.344	12.03
307.556	12.2
307.769	12.64
307.981	12.51
308.193	12.66
308.406	12.3
308.618	12.24
308.83	12.03
309.043	11.57
309.255	11.19
309.467	11.1
309.679	11.13
309.892	10.82
310.104	10.3
310.316	10.43
310.528	10.32
310.74	10.58
310.953	10.44
311.165	10.42
311.377	10.7
311.589	11.05
311.801	11.34
312.013	11.17
312.225	11.69
312.437	11.99
312.649	12.05
312.862	12.48
313.074	12.55
313.286	13.24
313.498	13.44
313.71	13.81
313.922	14.17
314.134	14.43
314.346	14.51
314.558	14.1
314.77	14.13
314.982	14.08
315.193	14.13
315.405	14.13
315.617	13.58
315.829	13.49
316.041	13.39
316.253	13.51
316.465	13.94
316.677	14.32
316.888	15.24
317.1	15.37
317.312	16
317.524	15.87
317.736	16.12
317.947	16.41
318.159	16.98
318.371	17.09
318.583	16.88
318.794	16.22
319.006	16.53
319.218	16.07
319.43	16
319.641	15.89
319.853	16.26
320.064	16.66
320.276	17.19
320.488	16.9
320.699	16.93
320.911	17.04
321.123	17.66
321.334	16.93
321.546	17.51
321.757	17.81
321.969	17.74
322.18	16.99
322.392	17.22
322.603	17.06
322.815	17.51
323.026	18.01
323.238	17.8
323.449	17.21
323.661	17.65
323.872	17.03
324.083	16.74
324.295	16.72
324.506	17.2
324.718	16.81
324.929	17.04
325.14	16.88
325.352	16.69
325.563	16.94
325.774	17.46
325.986	17.58
326.197	17.79
326.408	18.1
326.62	17.99
326.831	17.96
327.042	18.2
327.253	17.86
327.464	18.09
327.676	18.07
327.887	18.06
328.098	18.28
328.309	18.46
328.52	18.89
328.732	19.2
328.943	19.74
329.154	20.31
329.365	20.27
329.576	20.7
329.787	20.41
329.998	21.08
330.209	21.28
330.42	21.42
330.631	21.5
330.842	21.56
331.053	21.4
331.264	21.3
331.475	22.01
331.686	22.84
331.897	23.11
332.108	23.35
332.319	23.44
332.53	23.88
332.741	23.74
332.952	23.66
333.163	23.94
333.374	24.08
333.585	24.52
333.795	23.94
334.006	24.05
334.217	23.74
334.428	23.98
334.639	23.8
334.849	23.47
335.06	23.32
335.271	23.52
335.482	23.5
335.692	23.54
335.903	23.77
336.114	23.69
336.325	23.65
336.535	24.08
336.746	24.38
336.957	24.65
337.167	25.17
337.378	25.69
337.589	25.76
337.799	25.36
338.01	25.45
338.22	25.02
338.431	25.23
338.642	24.44
338.852	24.18
339.063	23.88
339.273	23.28
339.484	22.54
339.694	22.04
339.905	22.03
340.115	22.14
340.326	22.07
340.536	22.28
340.746	22.16
340.957	22.69
341.167	22.75
341.378	22.92
341.588	22.87
341.799	23.26
342.009	23.26
342.219	23.13
342.43	23.16
342.64	23.26
342.85	22.8
343.061	22.73
343.271	22.54
343.481	22.71
343.691	22.49
343.902	22.65
344.112	22.67
344.322	22.4
344.532	22.28
344.743	22.28
344.953	22.12
345.163	22.13
345.373	22.32
345.583	22.34
345.793	21.87
346.004	21.87
346.214	21.93
346.424	21.78
346.634	21.89
346.844	21.85
347.054	22.19
347.264	22.38
347.474	22.68
347.684	22.41
347.894	22.67
348.104	22.92
348.314	22.8
348.524	22.85
348.734	22.51
348.944	22.83
349.154	22.83
349.364	22.17
349.574	22.18
349.784	22.15
349.994	22.3
350.204	21.97
350.413	22.06
350.623	22.16
350.833	21.83
351.043	22.14
351.253	21.92
351.463	21.86
351.672	22.02
351.882	21.65
352.092	21.56
352.302	21.55
352.511	21.45
352.721	21.4
352.931	21.27
353.141	21.15
353.35	20.92
353.56	21.19
353.77	20.97
353.979	20.91
354.189	20.97
354.399	20.9
354.608	20.81
354.818	20.85
355.027	20.57
355.237	20.51
355.447	20.6
355.656	20.7
355.866	20.51
356.075	20.48
356.285	20.36
356.494	20.21
356.704	20.25
356.913	20.12
357.123	19.94
357.332	19.96
357.542	20.04
357.751	19.91
357.96	19.64
358.17	19.33
358.379	19.54
358.589	19.48
358.798	19.66
359.007	19.41
359.217	19.31
359.426	19.19
359.635	19.14
359.845	18.93
360.054	18.76
360.263	18.77
360.472	18.87
360.682	18.48
360.891	18.58
361.1	18.32
361.309	18.31
361.519	18.29
361.728	18.2
361.937	18.01
362.146	17.99
362.355	18
362.564	18.14
362.774	17.92
362.983	18.38
363.192	18.25
363.401	18.26
363.61	18.2
363.819	18.22
364.028	18.35
364.237	18.27
364.446	18.22
364.655	18.37
364.864	18.24
365.073	18.56
365.282	18.21
365.491	18.21
365.7	18.27
365.909	18.3
366.118	18.28
366.327	18.23
366.536	18.59
366.745	18.45
366.954	18.59
367.162	18.55
367.371	18.39
367.58	18.29
367.789	18.43
367.998	18.28
368.207	18.58
368.415	18.5
368.624	18.73
368.833	18.64
369.042	18.96
369.25	18.92
369.459	18.97
369.668	19.11
369.877	19.16
370.085	19.02
370.294	18.87
370.503	18.73
370.711	18.67
370.92	18.25
371.129	18.25
371.337	18.1
371.546	18.02
371.754	17.62
371.963	17.52
372.171	17.68
372.38	17.66
372.589	18.07
372.797	18.13
373.006	18.21
373.214	18.78
373.423	18.71
373.631	18.66
373.84	18.66
374.048	19.17
374.256	19.06
374.465	19.18
374.673	19.2
374.882	19.12
375.09	18.88
375.298	18.75
375.507	18.25
375.715	18.15
375.923	18.09
376.132	18.1
376.34	18.05
376.548	17.85
376.757	17.65
376.965	17.54
377.173	17.35
377.381	17.57
377.59	17.58
377.798	17.77
378.006	17.86
378.214	17.75
378.423	17.79
378.631	17.61
378.839	17.81
379.047	17.82
379.255	17.82
379.463	17.85
379.671	17.74
379.879	17.83
380.088	18
380.296	18.07
380.504	18.25
380.712	18.33
380.92	18.22
381.128	18.22
381.336	18
381.544	18.03
381.752	18.06
381.96	17.95
382.168	17.95
382.376	17.84
382.584	17.88
382.791	17.9
382.999	17.62
383.207	17.82
383.415	18
383.623	18.05
383.831	18.04
384.039	18.24
384.247	18.06
384.454	17.88
384.662	17.73
384.87	17.4
385.078	17.45
385.285	17.3
385.493	17.13
385.701	17.13
385.909	17.01
386.116	17
386.324	16.82
386.532	16.86
386.739	17.03
386.947	16.97
387.155	17.26
387.362	17.25
387.57	17.43
387.778	17.42
387.985	17.36
388.193	17.4
388.4	17.53
388.608	17.32
388.816	17.39
389.023	17.35
389.231	17.2
389.438	17.04
389.646	16.91
389.853	16.77
390.061	16.8
390.268	16.58
390.475	16.53
390.683	16.39
390.89	16.37
391.098	16.37
391.305	16.17
391.512	16.27
391.72	16.17
391.927	15.99
392.135	16.14
392.342	16.14
392.549	16.14
392.756	16.11
392.964	16.1
393.171	16.17
393.378	16.1
393.586	16.2
393.793	16.31
394	16.2
394.207	16.44
394.414	16.42
394.622	16.5
394.829	16.56
395.036	16.68
395.243	16.77
395.45	16.64
395.657	16.77
395.864	16.71
396.072	16.76
396.279	16.97
396.486	16.95
396.693	16.83
396.9	16.67
397.107	16.87
397.314	16.8
397.521	16.61
397.728	16.6
397.935	16.61
398.142	16.49
398.349	16.38
398.556	16.43
398.763	16.23
398.97	16.32
399.177	16.45
399.383	16.16
399.59	16.06
399.797	16.28
400.004	16.42
400.211	16.22
400.418	16.46
400.625	16.46
400.831	16.47
401.038	16.72
401.245	16.91
401.452	16.67
401.658	16.67
401.865	16.67
402.072	16.51
402.279	16.49
402.485	16.51
402.692	16.29
402.899	16.39
403.105	16.34
403.312	16.1
403.519	15.76
403.725	15.81
403.932	15.71
404.138	15.95
404.345	15.87
404.552	15.8
404.758	15.96
404.965	16.09
405.171	15.85
405.378	15.76
405.584	15.86
405.791	15.97
405.997	16.02
406.204	16.21
406.41	16.07
406.617	16.14
406.823	16.25
407.029	16.16
407.236	16.39
407.442	16.42
407.649	16.58
407.855	16.5
408.061	16.49
408.268	16.51
408.474	16.42
408.68	16.49
408.887	16.41
409.093	16.44
409.299	16.43
409.505	16.1
409.712	16.27
409.918	16.08
410.124	16.05
410.33	16.1
410.537	16.13
410.743	16.28
410.949	16.38
411.155	16.44
411.361	16.4
411.567	16.35
411.773	16.57
411.98	16.56
412.186	16.61
412.392	16.71
412.598	16.67
412.804	16.74
413.01	16.51
413.216	16.41
413.422	16.55
413.628	16.55
413.834	16.53
414.04	16.37
414.246	16.31
414.452	16.22
414.658	16.15
414.864	16.12
415.07	15.95
415.275	15.93
415.481	15.88
415.687	15.77
415.893	15.76
416.099	15.78
416.305	15.53
416.511	15.43
416.716	15.33
416.922	15.23
417.128	15.11
417.334	14.82
417.539	14.86
417.745	14.79
417.951	14.74
418.157	14.56
418.362	14.4
418.568	14.38
418.774	14.3
418.979	14.36
419.185	14.27
419.391	14.15
419.596	14.13
419.802	14.08
420.008	13.98
420.213	14.32
420.419	14.37
420.624	14.32
420.83	14.26
421.035	14.18
421.241	14.16
421.446	14.2
421.652	14.23
421.857	14.35
422.063	14.25
422.268	14.25
422.474	13.87
422.679	13.78
422.885	13.9
423.09	13.99
423.295	13.97
423.501	13.9
423.706	13.83
423.911	13.77
424.117	13.71
424.322	13.72
424.527	13.74
424.733	13.64
424.938	13.73
425.143	13.78
425.349	13.85
425.554	13.94
425.759	14.05
425.964	14.11
426.169	14.24
426.375	14.34
426.58	14.53
426.785	14.66
426.99	14.88
427.195	14.86
427.4	14.69
427.605	14.75
427.811	14.88
428.016	15.02
428.221	15.17
428.426	15.43
428.631	15.49
428.836	15.45
429.041	15.34
429.246	15.37
429.451	15.47
429.656	15.63
429.861	15.71
430.066	15.77
430.271	15.6
430.476	15.61
430.681	15.36
430.886	15.35
431.09	15.34
431.295	15.32
431.5	15.28
431.705	15.12
431.91	15.03
432.115	14.88
432.32	14.72
432.524	14.76
432.729	14.6
432.934	14.63
433.139	14.68
433.343	14.69
433.548	14.7
433.753	14.72
433.958	14.8
434.162	14.93
434.367	15.03
434.572	15.18
434.776	15.25
434.981	15.42
435.186	15.46
435.39	15.45
435.595	15.43
435.799	15.53
436.004	15.44
436.209	15.52
436.413	15.44
436.618	15.29
436.822	15.15
437.027	15.09
437.231	15.05
437.436	14.98
437.64	14.9
437.845	15.01
438.049	14.97
438.253	14.98
438.458	14.97
438.662	14.89
438.867	14.92
439.071	15.03
439.275	14.86
439.48	14.85
439.684	14.84
439.888	14.77
440.093	14.63
440.297	14.53
440.501	14.47
440.706	14.48
440.91	14.57
441.114	14.57
441.318	14.59
441.523	14.74
441.727	14.63
441.931	14.76
442.135	14.85
442.339	14.89
442.543	15.03
442.748	15.14
442.952	15.08
443.156	15.14
443.36	15.17
443.564	15.06
443.768	15.02
443.972	15.07
444.176	15.02
444.38	14.98
444.584	14.91
444.788	14.84
444.992	14.68
445.196	14.59
445.4	14.37
445.604	14.35
445.808	14.32
446.012	14.17
446.216	14.08
446.42	13.96
446.624	13.95
446.828	13.95
447.032	13.88
447.235	13.94
447.439	13.99
447.643	14.09
447.847	14.06
448.051	14.06
448.254	14.23
448.458	14.4
448.662	14.53
448.866	14.52
449.069	14.7
449.273	14.89
449.477	14.97
449.681	15.04
449.884	15.17
450.088	15.28
450.292	15.25
450.495	15.28
450.699	15.37
450.902	15.43
451.106	15.59
451.31	15.44
451.513	15.41
451.717	15.42
451.92	15.39
452.124	15.34
452.327	15.38
452.531	15.48
452.734	15.43
452.938	15.32
453.141	15.4
453.345	15.35
453.548	15.46
453.752	15.48
453.955	15.52
454.158	15.46
454.362	15.47
454.565	15.48
454.769	15.51
454.972	15.59
455.175	15.73
455.379	15.75
455.582	15.7
455.785	15.6
455.988	15.62
456.192	15.54
456.395	15.73
456.598	15.6
456.801	15.48
457.005	15.52
457.208	15.42
457.411	15.29
457.614	15.12
457.817	15.08
458.021	15.07
458.224	14.92
458.427	14.88
458.63	14.71
458.833	14.67
459.036	14.55
459.239	14.41
459.442	14.36
459.645	14.27
459.848	14.15
460.051	14.16
460.254	14.16
460.457	14.17
460.66	14.22
460.863	14.32
461.066	14.42
461.269	14.5
461.472	14.62
461.675	14.73
461.878	14.9
462.081	15.1
462.284	15.21
462.486	15.2
462.689	15.35
462.892	15.43
463.095	15.48
463.298	15.49
463.5	15.65
463.703	15.7
463.906	15.84
464.109	15.72
464.311	15.69
464.514	15.74
464.717	15.78
464.92	15.73
465.122	15.76
465.325	15.84
465.528	15.9
465.73	15.92
465.933	15.9
466.135	15.77
466.338	15.87
466.541	15.79
466.743	15.79
466.946	15.78
467.148	15.99
467.351	15.85
467.553	15.75
467.756	15.75
467.958	15.69
468.161	15.6
468.363	15.7
468.566	15.63
468.768	15.75
468.971	15.65
469.173	15.78
469.375	15.6
469.578	15.51
469.78	15.51
469.983	15.52
470.185	15.52
470.387	15.56
470.59	15.55
470.792	15.7
470.994	15.77
471.196	15.9
471.399	15.81
471.601	15.84
471.803	16.05
472.005	16.12
472.208	16.12
472.41	16.09
472.612	16.19
472.814	16.14
473.016	16.11
473.218	16.18
473.421	16.13
473.623	16.32
473.825	16.42
474.027	16.4
474.229	16.41
474.431	16.38
474.633	16.43
474.835	16.31
475.037	16.35
475.239	16.35
475.441	16.27
475.643	16.26
475.845	16.03
476.047	15.98
476.249	15.84
476.451	15.74
476.653	15.71
476.855	15.6
477.057	15.6
477.258	15.51
477.46	15.47
477.662	15.51
477.864	15.45
478.066	15.49
478.268	15.48
478.469	15.6
478.671	15.57
478.873	15.57
479.075	15.62
479.276	15.61
479.478	15.63
479.68	15.55
479.882	15.47
480.083	15.43
480.285	15.47
480.487	15.36
480.688	15.24
480.89	15.19
481.091	15.06
481.293	14.87
481.495	14.74
481.696	14.57
481.898	14.37
482.099	14.15
482.301	13.97
482.502	13.72
482.704	13.54
482.905	13.39
483.107	13.24
483.308	13.14
483.51	13.07
483.711	13
483.913	12.93
484.114	12.88
484.315	12.86
484.517	12.86
484.718	12.89
484.92	12.91
485.121	12.94
485.322	12.98
485.524	13.04
485.725	13.07
485.926	13.14
486.127	13.18
486.329	13.22
486.53	13.25
486.731	13.26
486.932	13.23
487.134	13.25
487.335	13.22
487.536	13.23
487.737	13.23
487.938	13.24
488.139	13.21
488.341	13.26
488.542	13.34
488.743	13.37
488.944	13.45
489.145	13.49
489.346	13.54
489.547	13.66
489.748	13.72
489.949	13.78
490.15	13.83
490.351	13.83
490.552	13.83
490.753	13.74
490.954	13.71
491.155	13.68
491.356	13.69
491.557	13.69
491.758	13.7
491.959	13.72
492.159	13.75
492.36	13.83
492.561	13.92
492.762	13.98
492.963	14.13
493.164	14.32
493.364	14.38
493.565	14.54
493.766	14.67
493.967	14.79
494.167	14.91
494.368	15.03
494.569	15.09
494.769	15.19
494.97	15.25
495.171	15.27
495.371	15.3
495.572	15.47
495.773	15.47
495.973	15.45
496.174	15.45
496.375	15.46
496.575	15.44
496.776	15.49
496.976	15.57
497.177	15.49
497.377	15.51
497.578	15.44
497.778	15.42
497.979	15.46
498.179	15.57
498.38	15.55
498.58	15.62
498.78	15.61
498.981	15.6
499.181	15.54
499.382	15.74
499.582	15.86
499.782	16.02
499.983	16.14
500.183	16.12
500.383	16.07
500.584	16.17
500.784	16.21
500.984	16.29
501.184	16.35
501.385	16.49
501.585	16.52
501.785	16.55
501.985	16.52
502.185	16.48
502.386	16.55
502.586	16.69
502.786	16.77
502.986	16.63
503.186	16.7
503.386	16.76
503.586	16.76
503.786	16.84
503.987	16.8
504.187	16.8
504.387	16.83
504.587	16.84
504.787	16.8
504.987	16.78
505.187	16.94
505.387	16.98
505.587	16.9
505.786	16.9
505.986	16.84
506.186	16.86
506.386	16.83
506.586	16.88
506.786	16.88
506.986	16.91
507.186	16.93
507.386	16.94
507.585	16.89
507.785	16.93
507.985	16.87
508.185	16.78
508.384	16.82
508.584	16.81
508.784	16.8
508.984	16.84
509.183	16.85
509.383	16.8
509.583	16.77
509.782	16.79
509.982	16.8
510.182	16.81
510.381	16.92
510.581	16.94
510.781	17.01
510.98	17.08
511.18	17
511.379	17.03
511.579	17.1
511.778	17.08
511.978	17.07
512.177	17.1
512.377	17.18
512.576	17.1
512.776	17.1
512.975	17.14
513.175	17.12
513.374	17.19
513.573	17.24
513.773	17.26
513.972	17.36
514.172	17.46
514.371	17.55
514.57	17.57
514.77	17.65
514.969	17.63
515.168	17.63
515.367	17.67
515.567	17.72
515.766	17.66
515.965	17.69
516.164	17.69
516.364	17.6
516.563	17.43
516.762	17.33
516.961	17.25
517.16	17.21
517.359	17.08
517.559	16.93
517.758	16.88
517.957	16.83
518.156	16.76
518.355	16.7
518.554	16.74
518.753	16.74
518.952	16.72
519.151	16.81
519.35	16.85
519.549	16.97
519.748	17.11
519.947	17.21
520.146	17.33
520.345	17.44
520.544	17.57
520.743	17.65
520.942	17.73
521.141	17.97
521.339	18.05
521.538	18.19
521.737	18.28
521.936	18.39
522.135	18.44
522.333	18.48
522.532	18.56
522.731	18.6
522.93	18.63
523.129	18.79
523.327	18.72
523.526	18.62
523.725	18.62
523.923	18.47
524.122	18.3
524.321	18.19
524.519	18.09
524.718	17.95
524.917	17.87
525.115	17.74
525.314	17.63
525.512	17.56
525.711	17.53
525.909	17.42
526.108	17.39
526.306	17.34
526.505	17.33
526.703	17.23
526.902	17.16
527.1	16.98
527.299	16.87
527.497	16.77
527.696	16.71
527.894	16.62
528.092	16.57
528.291	16.54
528.489	16.51
528.688	16.43
528.886	16.45
529.084	16.47
529.283	16.54
529.481	16.61
529.679	16.71
529.877	16.8
530.076	16.92
530.274	17.04
530.472	17.14
530.67	17.26
530.869	17.44
531.067	17.56
531.265	17.65
531.463	17.76
531.661	17.82
531.859	17.91
532.057	17.92
532.255	17.94
532.454	17.94
532.652	17.9
532.85	17.92
533.048	17.89
533.246	17.86
533.444	17.82
533.642	17.84
533.84	17.92
534.038	17.94
534.236	17.93
534.434	18.05
534.632	18.14
534.83	18.27
535.027	18.34
535.225	18.47
535.423	18.63
535.621	18.76
535.819	18.85
536.017	18.89
536.215	18.93
536.412	19.08
536.61	19.1
536.808	19.21
537.006	19.25
537.203	19.41
537.401	19.49
537.599	19.54
537.797	19.6
537.994	19.73
538.192	19.89
538.39	20.04
538.587	20.08
538.785	20.12
538.983	20.03
539.18	20.1
539.378	19.99
539.575	19.99
539.773	19.92
539.97	19.85
540.168	19.76
540.366	19.7
540.563	19.55
540.761	19.48
540.958	19.43
541.155	19.36
541.353	19.32
541.55	19.35
541.748	19.29
541.945	19.32
542.143	19.38
542.34	19.41
542.537	19.42
542.735	19.52
542.932	19.68
543.129	19.83
543.327	20.08
543.524	20.26
543.721	20.41
543.919	20.63
544.116	20.83
544.313	20.99
544.51	21.18
544.708	21.34
544.905	21.47
545.102	21.56
545.299	21.59
545.496	21.65
545.693	21.79
545.891	21.84
546.088	21.91
546.285	21.97
546.482	22
546.679	21.96
546.876	21.99
547.073	22.04
547.27	22.11
547.467	22.22
547.664	22.39
547.861	22.43
548.058	22.57
548.255	22.67
548.452	22.8
548.649	23.01
548.846	23.28
549.043	23.4
549.24	23.64
549.437	23.69
549.633	23.92
549.83	23.89
550.027	24
550.224	24.11
550.421	24.25
550.618	24.3
550.814	24.31
551.011	24.26
551.208	24.44
551.405	24.38
551.601	24.52
551.798	24.39
551.995	24.32
552.191	24.33
552.388	24.25
552.585	24.21
552.781	24.15
552.978	24.15
553.175	24.35
553.371	24.33
553.568	24.53
553.764	24.57
553.961	24.65
554.157	24.78
554.354	24.88
554.55	25.03
554.747	25.15
554.943	25.25
555.14	25.39
555.336	25.43
555.533	25.48
555.729	25.37
555.926	25.34
556.122	25.39
556.318	25.44
556.515	25.5
556.711	25.59
556.907	25.53
557.104	25.58
557.3	25.59
557.496	25.56
557.693	25.69
557.889	25.71
558.085	25.64
558.281	25.77
558.478	25.8
558.674	25.79
558.87	25.66
559.066	25.75
559.262	25.88
559.459	25.83
559.655	25.84
559.851	25.79
560.047	26.08
560.243	26.16
560.439	26.07
560.635	26.05
560.831	26.05
561.027	26.15
561.223	26.14
561.419	26.07
561.615	26.12
561.811	26.06
562.007	26.03
562.203	25.83
562.399	25.91
562.595	26.05
562.791	26.2
562.987	26.25
563.183	26.27
563.379	26.28
563.575	26.35
563.771	26.24
563.966	26.12
564.162	26.11
564.358	25.96
564.554	25.82
564.75	25.66
564.945	25.44
565.141	25.22
565.337	25.1
565.533	25.04
565.728	24.82
565.924	24.7
566.12	24.66
566.315	24.64
566.511	24.66
566.707	24.68
566.902	24.68
567.098	24.86
567.293	25.09
567.489	25.07
567.684	25.14
567.88	25.18
568.076	25.36
568.271	25.51
568.467	25.58
568.662	25.59
568.858	25.66
569.053	25.65
569.248	25.52
569.444	25.44
569.639	25.51
569.835	25.53
570.03	25.54
570.225	25.47
570.421	25.39
570.616	25.39
570.812	25.38
571.007	25.22
571.202	25.3
571.397	25.27
571.593	25.19
571.788	25.24
571.983	25.22
572.178	25.27
572.374	25.37
572.569	25.38
572.764	25.36
572.959	25.32
573.154	25.44
573.35	25.37
573.545	25.41
573.74	25.43
573.935	25.29
574.13	25.27
574.325	25.19
574.52	25.31
574.715	25.39
574.91	25.32
575.105	25.54
575.3	25.55
575.495	25.66
575.69	25.72
575.885	25.76
576.08	25.91
576.275	25.87
576.47	26.03
576.665	25.97
576.86	26.13
577.055	26.39
577.25	26.43
577.444	26.57
577.639	26.74
577.834	26.77
578.029	26.92
578.224	27.04
578.418	27.34
578.613	27.52
578.808	27.67
579.003	27.71
579.197	27.74
579.392	27.78
579.587	27.99
579.781	28.04
579.976	28.27
580.171	28.29
580.365	28.17
580.56	28.24
580.755	28.24
580.949	28.28
581.144	28.37
581.338	28.45
581.533	28.65
581.727	28.51
581.922	28.63
582.116	28.6
582.311	28.72
582.505	28.97
582.7	28.89
582.894	29.03
583.089	29.07
583.283	29.11
583.478	29.19
583.672	29.05
583.866	29.03
584.061	28.9
584.255	28.9
584.449	28.99
584.644	29.08
584.838	29.07
585.032	29.06
585.226	28.98
585.421	29.11
585.615	29.04
585.809	29.1
586.003	29.22
586.198	29.25
586.392	29.37
586.586	29.24
586.78	29.22
586.974	29.33
587.168	29.23
587.363	29.31
587.557	29.05
587.751	29.06
587.945	28.9
588.139	28.79
588.333	28.66
588.527	28.45
588.721	28.34
588.915	28.18
589.109	28.08
589.303	28.09
589.497	27.96
589.691	27.93
589.885	27.95
590.079	28.04
590.273	27.97
590.466	28.08
590.66	28.13
590.854	28.24
591.048	28.38
591.242	28.49
591.436	28.67
591.629	28.69
591.823	28.77
592.017	28.86
592.211	28.91
592.404	29.2
592.598	29.07
592.792	29.15
592.986	29.11
593.179	29.1
593.373	29.02
593.567	28.74
593.76	28.76
593.954	28.78
594.147	28.51
594.341	28.33
594.535	28.18
594.728	28.18
594.922	28.1
595.115	28.13
595.309	27.98
595.502	27.78
595.696	27.69
595.889	27.49
596.083	27.43
596.276	27.42
596.47	27.39
596.663	27.36
596.856	27.26
597.05	27.21
597.243	27.24
597.437	27.41
597.63	27.65
597.823	27.85
598.017	28.18
598.21	28.24
598.403	28.42
598.596	28.72
598.79	28.83
598.983	29.29
599.176	29.47
599.369	29.66
599.563	29.73
599.756	29.92
599.949	30.22
600.142	30.02
600.335	30.15
600.528	30.29
600.722	30.28
600.915	30.36
601.108	30.32
601.301	30.4
601.494	30.15
601.687	30.04
601.88	29.69
602.073	29.24
602.266	29.27
602.459	29.13
602.652	28.85
602.845	28.6
603.038	28.57
603.231	28.27
603.424	27.95
603.617	27.84
603.809	27.73
604.002	27.62
604.195	27.73
604.388	27.58
604.581	27.51
604.774	27.49
604.966	27.5
605.159	27.39
605.352	27.65
605.545	27.95
605.737	28.11
605.93	28.36
606.123	28.76
606.316	29.08
606.508	29.36
606.701	29.63
606.894	29.98
607.086	30.28
607.279	30.38
607.471	30.13
607.664	30.18
607.857	30.26
608.049	30.25
608.242	30.13
608.434	29.99
608.627	30.13
608.819	30.19
609.012	30.21
609.204	30.27
609.397	30.65
609.589	31.14
609.782	31.4
609.974	31.74
610.166	32.22
610.359	32.91
610.551	33.3
610.743	33.85
610.936	34.32
611.128	34.84
611.32	35.27
611.513	35.61
611.705	35.87
611.897	36.07
612.09	36.44
612.282	36.44
612.474	36.24
612.666	36.31
612.858	36.1
613.051	36.15
613.243	36.22
613.435	36.05
613.627	35.78
613.819	35.67
614.011	35.83
614.203	35.66
614.395	35.65
614.588	35.51
614.78	35.46
614.972	35.48
615.164	35.26
615.356	35.04
615.548	35.09
615.74	35.03
615.932	35.12
616.124	35.02
616.315	34.96
616.507	34.83
616.699	34.88
616.891	34.86
617.083	34.78
617.275	34.63
617.467	34.47
617.659	34.51
617.85	34.6
618.042	34.49
618.234	34.23
618.426	33.94
618.618	34
618.809	33.78
619.001	33.68
619.193	33.7
619.384	33.81
619.576	33.92
619.768	33.84
619.959	33.85
620.151	33.83
620.343	33.86
620.534	34.02
620.726	34.05
620.917	34.3
621.109	34.37
621.301	34.5
621.492	34.53
621.684	34.57
621.875	34.7
622.067	34.89
622.258	35.05
622.45	34.9
622.641	35.05
622.832	34.96
623.024	34.89
623.215	34.99
623.407	34.89
623.598	35.15
623.789	35.05
623.981	34.99
624.172	34.75
624.363	34.74
624.555	34.65
624.746	34.32
624.937	34.2
625.129	34.1
625.32	33.92
625.511	33.85
625.702	33.38
625.893	33.32
626.085	33.12
626.276	33.1
626.467	32.83
626.658	32.88
626.849	32.93
627.04	32.87
627.231	32.75
627.422	32.63
627.614	32.65
627.805	32.76
627.996	32.8
628.187	32.76
628.378	32.61
628.569	32.79
628.76	32.98
628.951	33.13
629.142	33.13
629.332	33.35
629.523	33.71
629.714	33.93
629.905	34.32
630.096	34.54
630.287	35.02
630.478	35.28
630.669	35.24
630.859	35.41
631.05	35.58
631.241	35.85
631.432	35.87
631.623	35.82
631.813	35.63
632.004	35.41
632.195	35.39
632.385	34.98
632.576	34.95
632.767	34.95
632.957	34.67
633.148	34.53
633.339	34.44
633.529	34.28
633.72	34.26
633.91	34.26
634.101	34.07
634.292	33.96
634.482	33.99
634.673	34.08
634.863	34.03
635.054	34.23
635.244	34.22
635.435	34.23
635.625	34.46
635.815	34.33
636.006	34.6
636.196	34.89
636.387	35.03
636.577	35.35
636.767	35.58
636.958	35.64
637.148	35.71
637.338	35.93
637.529	36.24
637.719	36.44
637.909	36.62
638.099	36.53
638.29	36.45
638.48	36.36
638.67	36.47
638.86	36.43
639.05	36.84
639.241	37.1
639.431	37.13
639.621	37.1
639.811	37.16
640.001	37.16
640.191	37.27
640.381	37.4
640.571	37.78
640.761	37.78
640.951	37.71
641.141	37.58
641.331	37.48
641.521	37.51
641.711	37.5
641.901	37.51
642.091	37.58
642.281	37.56
642.471	37.62
642.661	37.62
642.851	37.68
643.041	37.78
643.231	38.07
643.42	38.13
643.61	38.18
643.8	38.16
643.99	38.33
644.18	38.45
644.369	38.58
644.559	38.78
644.749	38.67
644.939	38.66
645.128	38.63
645.318	38.39
645.508	38.19
645.697	38.42
645.887	38.52
646.076	38.37
646.266	38.53
646.456	38.47
646.645	38.23
646.835	38.4
647.024	38.29
647.214	38.45
647.403	38.54
647.593	38.83
647.782	38.6
647.972	38.48
648.161	38.46
648.351	38.29
648.54	38.33
648.73	38.49
648.919	38.28
649.108	38.37
649.298	38.16
649.487	38.26
649.677	38.06
649.866	38.07
650.055	38.27
650.244	38.4
650.434	38.35
650.623	38.55
650.812	38.56
651.002	38.33
651.191	38.32
651.38	38.4
651.569	38.36
651.758	38.44
651.947	38.42
652.137	38.23
652.326	38.27
652.515	38.39
652.704	38.25
652.893	38.28
653.082	38.78
653.271	38.73
653.46	38.77
653.649	38.63
653.838	38.6
654.027	38.62
654.216	38.73
654.405	38.8
654.594	38.87
654.783	38.77
654.972	38.7
655.161	38.48
655.35	38.37
655.539	38.52
655.728	38.37
655.916	38.37
656.105	38.3
656.294	38.29
656.483	37.99
656.672	37.53
656.86	37.55
657.049	37.27
657.238	36.95
657.427	36.97
657.615	36.8
657.804	36.62
657.993	36.29
658.181	35.95
658.37	35.79
658.559	35.51
658.747	35.54
658.936	35.41
659.125	35.51
659.313	35.66
659.502	35.77
659.69	35.84
659.879	36.04
660.067	36.28
660.256	36.66
660.444	36.82
660.633	37.34
660.821	37.78
661.01	38.13
661.198	38.56
661.387	38.81
661.575	39.12
661.763	39.31
661.952	39.66
662.14	39.93
662.328	40.22
662.517	40.43
662.705	40.41
662.893	40.85
663.082	40.96
663.27	41.17
663.458	41.48
663.646	41.52
663.834	41.64
664.023	41.76
664.211	41.9
664.399	41.87
664.587	41.89
664.775	42.19
664.963	41.92
665.152	42.18
665.34	42.12
665.528	42.04
665.716	42.6
665.904	42.72
666.092	42.82
666.28	42.79
666.468	42.78
666.656	43.15
666.844	43.29
667.032	43.43
667.22	43.34
667.408	43.23
667.596	43.08
667.784	42.4
667.971	42.35
668.159	42.08
668.347	42.15
668.535	42.19
668.723	41.74
668.911	41.61
669.098	41.42
669.286	41.35
669.474	41.55
669.662	41.82
669.849	42.1
670.037	42.33
670.225	42.48
670.413	42.58
670.6	42.83
670.788	43.2
670.976	43.31
671.163	43.34
671.351	43.59
671.538	43.73
671.726	43.79
671.913	43.97
672.101	43.75
672.289	44.19
672.476	44.23
672.664	44.34
672.851	44.38
673.039	44.49
673.226	44.69
673.413	44.56
673.601	44.46
673.788	44.39
673.976	44.33
674.163	44.29
674.35	44.22
674.538	44.4
674.725	44.73
674.912	44.85
675.1	44.64
675.287	44.64
675.474	44.74
675.662	44.81
675.849	45.07
676.036	45.01
676.223	45.16
676.411	45.34
676.598	45.15
676.785	44.66
676.972	44.8
677.159	45.02
677.346	44.86
677.533	44.74
677.721	44.53
677.908	44.24
678.095	44.18
678.282	44.14
678.469	43.66
678.656	43.46
678.843	43.14
679.03	42.47
679.217	42.28
679.404	42.03
679.591	41.8
679.778	41.77
679.964	41.52
680.151	41.21
680.338	41.02
680.525	41.1
680.712	41.13
680.899	41.34
681.086	41.91
681.272	41.88
681.459	42.22
681.646	42.41
681.833	42.33
682.02	42.61
682.206	43
682.393	43.41
682.58	43.57
682.766	43.79
682.953	43.94
683.14	44
683.326	44.62
683.513	45
683.7	45.26
683.886	45.71
684.073	45.8
684.259	46.06
684.446	46.05
684.632	46.21
684.819	46.46
685.005	46.7
685.192	46.69
685.378	46.23
685.565	45.97
685.751	45.94
685.938	45.64
686.124	45.46
686.31	45.08
686.497	44.78
686.683	44.46
686.87	44.2
687.056	44.09
687.242	43.9
687.429	44.04
687.615	44.15
687.801	44.28
687.987	44.51
688.174	44.75
688.36	45.04
688.546	45.41
688.732	45.76
688.918	45.86
689.105	45.89
689.291	45.97
689.477	46.16
689.663	46.26
689.849	46.06
690.035	46.27
690.221	46.51
690.407	46.96
690.593	47
690.779	47.16
690.965	47.29
691.151	47.6
691.337	47.88
691.523	47.81
691.709	48
691.895	48.37
692.081	48.29
692.267	48.41
692.453	48.4
692.639	48.52
692.825	48.27
693.011	48.38
693.196	48.26
693.382	48.29
693.568	48.37
693.754	48.47
693.94	48.74
694.125	49.1
694.311	49.33
694.497	49.19
694.682	49.16
694.868	49.46
695.054	49.79
695.239	50.19
695.425	50.28
695.611	50.7
695.796	50.37
695.982	50.19
696.168	49.89
696.353	49.14
696.539	48.51
696.724	47.88
696.91	47.12
697.095	46.65
697.281	45.76
697.466	44.95
697.652	44.1
697.837	43.38
698.023	42.57
698.208	41.9
698.393	41.76
698.579	41.9
698.764	41.76
698.949	41.76
699.135	41.43
699.32	41.48
699.505	41.79
699.691	42.13
699.876	42.59
700.061	43.23
700.246	43.77
700.432	44.35
700.617	44.47
700.802	45.24
700.987	45.95
701.172	46.86
701.358	47.78
701.543	48.59
701.728	49.1
701.913	49.72
702.098	50.33
702.283	51.09
702.468	51.73
702.653	52.46
702.838	53.01
703.023	53.78
703.208	54.26
703.393	54.63
703.578	54.97
703.763	55.56
703.948	56.1
704.133	56.42
704.318	56.75
704.503	57.15
704.688	57.45
704.873	57.81
705.057	57.99
705.242	57.98
705.427	57.94
705.612	57.86
705.797	57.81
705.981	58.21
706.166	58.26
706.351	58.3
706.536	58.06
706.72	57.86
706.905	57.56
707.09	57.49
707.274	57.48
707.459	57.52
707.644	57.38
707.828	57.48
708.013	57.17
708.197	57.11
708.382	57.38
708.567	57.42
708.751	57.3
708.936	57.04
709.12	57.04
709.305	56.77
709.489	56.9
709.673	56.8
709.858	56.29
710.042	55.92
710.227	55.83
710.411	55.55
710.596	55.09
710.78	54.98
710.964	55.09
711.149	54.67
711.333	54.64
711.517	54.18
711.702	54.61
711.886	54.72
712.07	54.72
712.254	54.78
712.438	54.61
712.623	54.49
712.807	54.73
712.991	54.96
713.175	55.13
713.359	55.22
713.544	55.63
713.728	55.37
713.912	55.18
714.096	55.65
714.28	55.28
714.464	55.14
714.648	54.79
714.832	54.4
715.016	54.07
715.2	53.56
715.384	53.42
715.568	52.7
715.752	51.9
715.936	51.67
716.12	51.11
716.304	50.86
716.488	50.51
716.671	50.55
716.855	50.93
717.039	50.61
717.223	50.96
717.407	50.7
717.59	51
717.774	51.54
717.958	51.4
718.142	51.06
718.325	51.22
718.509	51.46
718.693	52.01
718.877	51.6
719.06	52.33
719.244	52.1
719.428	52.82
719.611	53.44
719.795	53.69
719.978	54.84
720.162	55.68
720.345	56.54
720.529	57.17
720.713	58.02
720.896	58.56
721.08	58.4
721.263	59.02
721.446	59.11
721.63	59.14
721.813	58.98
721.997	58.62
722.18	58.7
722.364	58.55
722.547	58.4
722.73	57.55
722.914	57.84
723.097	57.67
723.28	57.49
723.464	57.29
723.647	57.14
723.83	57.58
724.013	57.79
724.197	57.75
724.38	57.81
724.563	57.59
724.746	57.92
724.929	58
725.112	58.3
725.296	58
725.479	57.59
725.662	57.61
725.845	57.31
726.028	56.93
726.211	56.5
726.394	56.4
726.577	56.25
726.76	55.88
726.943	54.79
727.126	54.49
727.309	54.47
727.492	54.74
727.675	54.23
727.858	53.77
728.041	53.83
728.224	53.68
728.407	53.45
728.589	53.39
728.772	53.76
728.955	54.38
729.138	54.4
729.321	54.47
729.503	54.2
729.686	54.5
729.869	54.47
730.052	54.18
730.234	55.03
730.417	54.64
730.6	54.69
730.782	54.61
730.965	54.41
731.148	54.46
731.33	55.1
731.513	55.37
731.695	55.23
731.878	55.67
732.061	55.4
732.243	55.34
732.426	55.72
732.608	56.23
732.791	56.66
732.973	57.25
733.156	57.98
733.338	57.68
733.52	57.81
733.703	58.2
733.885	58.79
734.068	59.87
734.25	59.61
734.432	60.25
734.615	60.56
734.797	60.91
734.979	61.08
735.162	60.98
735.344	61.55
735.526	61.95
735.708	62.24
735.891	62.52
736.073	62.43
736.255	62.86
736.437	62.55
736.619	62.5
736.802	62.44
736.984	62.66
737.166	63.23
737.348	63.27
737.53	63.25
737.712	63.64
737.894	63.9
738.076	64.17
738.258	64.45
738.44	64.86
738.622	65.55
738.804	65.57
738.986	65.78
739.168	65.46
739.35	65.61
739.532	66.06
739.714	66.27
739.896	65.93
740.078	66.52
740.259	67.08
740.441	67.59
740.623	67.82
740.805	68.24
740.987	68.69
741.168	69.16
741.35	69.48
741.532	69.43
741.714	69.3
741.895	69.68
742.077	69.43
742.259	69.25
742.44	69.07
742.622	68.99
742.804	69.16
742.985	69.08
743.167	69.53
743.348	69.6
743.53	69.9
743.711	70.06
743.893	70.33
744.075	70.86
744.256	71.37
744.438	71.85
744.619	72.07
744.8	72.51
744.982	73.33
745.163	73.71
745.345	73.41
745.526	73.64
745.707	73.52
745.889	74.2
746.07	74.41
746.252	75.31
746.433	75.28
746.614	75.41
746.795	74.39
746.977	73.49
747.158	72.86
747.339	72.92
747.52	73.21
747.702	74.45
747.883	74.5
748.064	74.37
748.245	73.31
748.426	72.89
748.607	72.54
748.788	73.35
748.97	73.44
749.151	73.34
749.332	73.72
749.513	73.85
749.694	72.96
749.875	72.23
750.056	72.05
750.237	72.41
750.418	73.16
750.599	73.45
750.78	73.5
750.96	73.79
751.141	74.12
751.322	73.72
751.503	72.95
751.684	73.58
751.865	73.8
752.046	73.69
752.226	73.62
752.407	73.87
752.588	73.74
752.769	73.53
752.949	73.92
753.13	73.95
753.311	74.59
753.492	75.02
753.672	75.15
753.853	75.47
754.034	74.87
754.214	74.32
754.395	74
754.575	74.31
754.756	74.27
754.937	73.98
755.117	74.97
755.298	75.01
755.478	75.8
755.659	75.5
755.839	76.03
756.02	77.29
756.2	77.42
756.381	77.33
756.561	76.78
756.741	76.49
756.922	76.26
757.102	75.16
757.283	74.37
757.463	73.23
757.643	72.54
757.823	70.87
758.004	69.43
758.184	68.75
758.364	67.67
758.545	66.4
758.725	65.08
758.905	62.62
759.085	60.75
759.265	59.31
759.446	57.47
759.626	56.2
759.806	54.72
759.986	53.99
760.166	52.67
760.346	52.23
760.526	51.91
760.706	51.12
760.886	51.67
761.066	52.4
761.246	52.95
761.426	53.48
761.606	53.03
761.786	53.14
761.966	53.25
762.146	53.41
762.326	52.75
762.506	52.14
762.686	52.05
762.866	51.56
763.046	49.97
763.225	49.34
763.405	48.9
763.585	49.06
763.765	48.74
763.945	48.32
764.124	48.54
764.304	49.01
764.484	50.05
764.664	51.05
764.843	51.97
765.023	53.55
765.203	55.01
765.382	56.31
765.562	57.48
765.741	59.13
765.921	60.48
766.101	61.41
766.28	62.61
766.46	63.76
766.639	64.82
766.819	65.45
766.998	66.94
767.178	68.23
767.357	68.89
767.537	70.14
767.716	71.82
767.896	72.42
768.075	73.86
768.254	74.86
768.434	75.52
768.613	75.55
768.792	77.02
768.972	77.03
769.151	76.87
769.33	78.15
769.51	79.44
769.689	79.46
769.868	80.2
770.047	80.81
770.226	81.44
770.406	81.55
770.585	82.59
770.764	83.49
770.943	84.54
771.122	85.11
771.301	85.52
771.48	84.43
771.66	84.83
771.839	85.03
772.018	85.27
772.197	84.68
772.376	85.01
772.555	84.48
772.734	83.77
772.913	83.54
773.092	82.82
773.271	82.91
773.449	83.69
773.628	82.61
773.807	82.64
773.986	82.72
774.165	83.21
774.344	84.27
774.523	84.67
774.701	85.27
774.88	84.95
775.059	87.12
775.238	87.26
775.417	87.65
775.595	89.13
775.774	89.84
775.953	89.64
776.131	90.33
776.31	89.31
776.489	88.79
776.667	87.93
776.846	88.48
777.025	87.87
777.203	87.13
777.382	86.93
777.56	85.6
777.739	86.5
777.917	87.08
778.096	86.3
778.274	86.04
778.453	87.2
778.631	88.25
778.81	88.13
778.988	87.69
779.166	88.58
779.345	88.01
779.523	88.6
779.702	88.77
779.88	88.38
780.058	88.91
780.237	89.69
780.415	90.09
780.593	90.39
780.771	90.34
780.95	90.57
781.128	90.85
781.306	91.27
781.484	91.58
781.662	90.73
781.841	89.82
782.019	89.66
782.197	89.76
782.375	89.24
782.553	88.8
782.731	89.66
782.909	90.07
783.087	90.47
783.265	90.95
783.443	90.89
783.621	91.31
783.799	92.38
783.977	92.97
784.155	92.99
784.333	92.11
784.511	92.2
784.689	91.22
784.867	89.78
785.045	88.7
785.223	88.2
785.4	88.32
785.578	87.93
785.756	88.1
785.934	87.44
786.112	86.85
786.289	85.87
786.467	85.28
786.645	85.04
786.823	84.96
787	83.58
787.178	83.67
787.356	83.29
787.533	82.61
787.711	81.19
787.889	81.07
788.066	80.27
788.244	80.69
788.421	79.95
788.599	78.96
788.776	79.36
788.954	79.81
789.131	79.09
789.309	78.87
789.486	78.64
789.664	79.09
789.841	79.14
790.019	81.02
790.196	82.14
790.373	82.1
790.551	84.21
790.728	83.65
790.906	84.16
791.083	84.14
791.26	85.11
791.437	85.42
791.615	84.8
791.792	85.75
791.969	84.03
792.146	84.05
792.324	85.43
792.501	85
792.678	85.66
792.855	85.42
793.032	86.86
793.209	86.78
793.387	86.81
793.564	88.19
793.741	86.92
793.918	86.68
794.095	86.78
794.272	86.11
794.449	86.25
794.626	85.97
794.803	86.09
794.98	85.86
795.157	85.72
795.334	86.24
795.511	85.78
795.688	85.47
795.864	86.87
796.041	86.28
796.218	86.4
796.395	86.36
796.572	85.42
796.749	85.31
796.925	84.19
797.102	85.08
797.279	84.11
797.456	83.65
797.632	83.76
797.809	82.85
797.986	82.74
798.162	82.47
798.339	82.12
798.516	83.22
798.692	83.38
798.869	83.89
799.046	82.46
799.222	83.61
799.399	83.34
799.575	83.87
799.752	84.98
799.928	85.21
800.105	85.43
800.281	85.33
800.458	85.57
800.634	85
800.811	85.25
800.987	85.79
801.163	85.82
801.34	87.75
801.516	87.72
801.692	87.53
801.869	87.59
802.045	88.01
802.221	88.94
802.398	90.19
802.574	91.4
802.75	92.82
802.926	91.83
803.103	92.65
803.279	91.01
803.455	92.06
803.631	90.2
803.807	90.45
803.983	91.33
804.16	91.28
804.336	89.75
804.512	88.84
804.688	87.88
804.864	89.65
805.04	88.36
805.216	88.72
805.392	88.01
805.568	89.89
805.744	89.49
805.92	87.53
806.096	85.84
806.272	85.17
806.448	85.53
806.623	84.76
806.799	85.13
806.975	85.14
807.151	84.75
807.327	83.31
807.503	82.79
807.678	84.23
807.854	85.15
808.03	86.25
808.206	85.74
808.381	86.21
808.557	86.48
808.733	84.49
808.908	84.56
809.084	84.61
809.26	86.17
809.435	86.58
809.611	85.8
809.787	85.34
809.962	84.4
810.138	85.96
810.313	86.11
810.489	87.14
810.664	90.1
810.84	88.56
811.015	88.37
811.191	88.75
811.366	88.08
811.542	87.73
811.717	87.77
811.892	88.94
812.068	89.39
812.243	89.85
812.419	89.22
812.594	87.48
812.769	88.17
812.944	88.92
813.12	85.62
813.295	85.87
813.47	85.7
813.645	86.49
813.821	85.13
813.996	83.82
814.171	82.74
814.346	81.87
814.521	81.27
814.697	83.22
814.872	83.37
815.047	84.51
815.222	83.66
815.397	82.33
815.572	80.36
815.747	81.22
815.922	80.61
816.097	80.34
816.272	80.23
816.447	80.59
816.622	79.83
816.797	79.43
816.972	78.88
817.147	79.64
817.322	79.99
817.496	80.71
817.671	78.43
817.846	78.66
818.021	77.68
818.196	77.37
818.371	76.5
818.545	74.65
818.72	73.95
818.895	75.45
819.069	73.22
819.244	72.62
819.419	71.69
819.594	70.68
819.768	68.48
819.943	66.68
820.117	64.23
820.292	61.67
820.467	58.62
820.641	55.15
820.816	51.53
820.99	48.62
821.165	45.81
821.339	42.74
821.514	41.07
821.688	39.64
821.863	38.22
822.037	36.88
822.212	35.89
822.386	35.51
822.56	35.29
822.735	34.98
822.909	35.07
823.084	35.02
823.258	35.4
823.432	35.69
823.606	35.87
823.781	36.42
823.955	37
824.129	37.57
824.303	38.07
824.478	38.62
824.652	39.38
824.826	40.19
825	41.22
825.174	42.19
825.348	43.12
825.523	43.8
825.697	44.2
825.871	45.3
826.045	45.74
826.219	45.92
826.393	46.13
826.567	45.94
826.741	45.3
826.915	44.81
827.089	44.44
827.263	43.97
827.437	43.9
827.611	43.78
827.784	43.31
827.958	43.44
828.132	43.59
828.306	43.9
828.48	44.63
828.654	45.74
828.827	46.7
829.001	48.75
829.175	50.03
829.349	52.18
829.522	54.34
829.696	56.94
829.87	59.5
830.044	62.1
830.217	64
830.391	66.9
830.565	68.85
830.738	70.49
830.912	70.83
831.085	72.75
831.259	73.54
831.432	74.53
831.606	74.14
831.779	73.15
831.953	72.02
832.126	71.26
832.3	68.12
832.473	67.58
832.647	65.87
832.82	64.41
832.994	63.56
833.167	61.55
833.34	58.92
833.514	58.12
833.687	56.86
833.86	56.18
834.034	55.25
834.207	54.86
834.38	53.68
834.553	54.32
834.727	54.38
834.9	54.02
835.073	54.17
835.246	55.4
835.419	55.33
835.593	57.25
835.766	57.53
835.939	58.58
836.112	60.72
836.285	62.05
836.458	63.82
836.631	65.4
836.804	68.76
836.977	71.74
837.15	73.98
837.323	77.61
837.496	79.26
837.669	84.06
837.842	86.24
838.015	87.91
838.188	91.24
838.361	91.79
838.533	92.05
838.706	90.94
838.879	88.64
839.052	88.99
839.225	90.09
839.398	89.4
839.57	87.99
839.743	86.84
839.916	85.72
840.088	85.01
840.261	85.04
840.434	86.16
840.607	85.69
840.779	87.76
840.952	87.55
841.124	85.63
841.297	86.25
841.47	85.2
841.642	86.82
841.815	87.76
841.987	88.97
842.16	89.3
842.332	90.9
842.505	93.42
842.677	94.63
842.85	95.5
843.022	99.06
843.194	99.17
843.367	101.51
843.539	103.04
843.712	105.63
843.884	107.11
844.056	109.42
844.229	109.59
844.401	109.79
844.573	108.15
844.745	110.01
844.918	108.19
845.09	108.25
845.262	111.8
845.434	113.46
845.606	113.76
845.779	115.27
845.951	113.64
846.123	114.98
846.295	113.43
846.467	114.39
846.639	112.88
846.811	115.13
846.983	116.8
847.155	115.2
847.327	116.89
847.499	117.66
847.671	117.81
847.843	119.26
848.015	119.91
848.187	122.13
848.359	123.87
848.531	125.1
848.703	125.23
848.875	127.9
849.047	129.11
849.218	127.58
849.39	128.43
849.562	127.57
849.734	133.44
849.905	131.49
850.077	135.55
850.249	135.27
850.421	138.77
850.592	136.64
850.764	134.09
850.936	133.57
851.107	132.2
851.279	129.81
851.451	128.45
851.622	126.82
851.794	125.06
851.965	121.37
852.137	120.46
852.308	116.79
852.48	119.04
852.651	118.37
852.823	115.35
852.994	115.66
853.166	115.23
853.337	112.73
853.509	114.52
853.68	117.36
853.851	118.93
854.023	118.6
854.194	121.36
854.365	118.61
854.537	121.12
854.708	121.95
854.879	120.22
855.05	122.56
855.222	123.25
855.393	117.45
855.564	116.55
855.735	114.82
855.906	118.84
856.078	117.25
856.249	118.08
856.42	114.89
856.591	116.04
856.762	118.08
856.933	115.19
857.104	118.63
857.275	121.38
857.446	127.48
857.617	126.35
857.788	122.64
857.959	122.56
858.13	123.48
858.301	125.07
858.472	123.35
858.643	124.17
858.814	128.96
858.985	129.06
859.155	127.63
859.326	123.9
859.497	124.11
859.668	126.44
859.839	125.37
860.009	128.65
860.18	128.95
860.351	127.78
860.522	125.1
860.692	121.11
860.863	119.91
861.034	121.6
861.204	120.87
861.375	122.9
861.546	122.21
861.716	125.64
861.887	122.86
862.057	125.49
862.228	126.7
862.398	130.8
862.569	130.72
862.739	133.76
862.91	130.77
863.08	133.28
863.251	130.1
863.421	127.93
863.592	124.92
863.762	126.35
863.932	122.83
864.103	124.91
864.273	119.91
864.443	119.86
864.614	117.8
864.784	119.43
864.954	116.09
865.125	121.36
865.295	125.85
865.465	126.08
865.635	125.02
865.805	127.01
865.976	127.52
866.146	130.63
866.316	130.55
866.486	132.81
866.656	133.35
866.826	134.02
866.996	131.9
867.166	128.67
867.336	131.26
867.506	131.17
867.676	128.22
867.846	129.09
868.016	131.23
868.186	129.02
868.356	125.77
868.526	126.09
868.696	122.24
868.866	120.95
869.036	123.69
869.206	121.55
869.376	121.51
869.545	124.72
869.715	121.25
869.885	116.4
870.055	120.16
870.224	120.5
870.394	116.88
870.564	120.24
870.734	125.49
870.903	123.78
871.073	124.25
871.243	124.03
871.412	121.35
871.582	118.97
871.751	120.99
871.921	118.19
872.091	116.84
872.26	118.21
872.43	119.54
872.599	115.77
872.769	116.73
872.938	117.35
873.108	114.45
873.277	115.38
873.446	116.78
873.616	119.42
873.785	120.88
873.955	123.75
874.124	124.42
874.293	124.02
874.463	122.3
874.632	119.54
874.801	119.62
874.971	122.14
875.14	124.44
875.309	125.7
875.478	123.66
875.647	124.13
875.817	123.49
875.986	125.5
876.155	122.76
876.324	127.58
876.493	128.16
876.662	126.88
876.831	123.21
877	120.37
877.17	119.83
877.339	118.59
877.508	116.74
877.677	113.77
877.846	109.92
878.015	106.99
878.184	102.26
878.352	99.4
878.521	97.49
878.69	100.55
878.859	100.21
879.028	98.65
879.197	94.49
879.366	90.2
879.534	90.32
879.703	86.88
879.872	85.08
880.041	83.19
880.21	78.63
880.378	74.58
880.547	69.12
880.716	63.42
880.884	59.75
881.053	57.92
881.222	56.06
881.39	53.39
881.559	51.23
881.727	49.51
881.896	47.34
882.065	46.41
882.233	44.96
882.402	44.06
882.57	43.61
882.739	43.06
882.907	43.04
883.076	42.69
883.244	42.24
883.412	42.64
883.581	42.28
883.749	42.52
883.918	43.45
884.086	44.41
884.254	45.86
884.423	48.49
884.591	50.16
884.759	50.85
884.927	52.84
885.096	55.63
885.264	58.49
885.432	62.97
885.6	65.48
885.769	66.92
885.937	70.5
886.105	71.9
886.273	71.76
886.441	74.85
886.609	79.08
886.777	79.35
886.945	78.23
887.113	79.04
887.281	80.01
887.449	82.67
887.617	87.71
887.785	89.31
887.953	92.3
888.121	94.34
888.289	95.52
888.457	99.08
888.625	104.02
888.793	108.38
888.961	111.47
889.129	110.34
889.296	112.85
889.464	111.89
889.632	112.68
889.8	112.27
889.967	114.72
890.135	115.29
