Data from 2938791__Reflection_04.txt Node
Date: Fri Mar 13 11:20:39 EDT 2015
User: robert
Spectrometer: USB4E03002
Autoset integration time: false
Trigger mode: 4
Integration Time (sec): 1.000000E-1
Scans to average: 10
Electric dark correction enabled: false
Nonlinearity correction enabled: false
Boxcar width: 5
Stray light correction enabled: false
XAxis mode: Wavelengths
Stop averaging: false
Number of Pixels in Spectrum: 3648
>>>>>Begin Spectral Data<<<<<
177.575	-385
177.794	-4835.71
178.014	-688.7
178.233	-553.3
178.452	-364.29
178.672	-289.16
178.891	-323.37
179.11	-342.68
179.33	-337.69
179.549	-435.19
179.768	-469.12
179.987	-711.03
180.207	-425.06
180.426	-706.99
180.645	-1325.64
180.864	-5256.1
181.084	1617.16
181.303	2478.65
181.522	1245.2
181.741	3045.95
181.96	1224.43
182.179	598.54
182.398	541.49
182.618	461.92
182.837	503.92
183.056	368.46
183.275	359.51
183.494	388.89
183.713	374.56
183.932	379.22
184.151	356.84
184.37	411.89
184.589	492.9
184.808	600
185.027	591.74
185.246	612.77
185.465	2164.1
185.684	1109.75
185.903	1311.33
186.122	1406.7
186.341	4750.98
186.56	2022.41
186.779	2774.7
186.998	1343.1
187.216	-3267.19
187.435	-800.39
187.654	-886.45
187.873	-1157.95
188.092	-2957.97
188.311	16284.62
188.53	-2593.83
188.748	7275
188.967	-1154.36
189.186	-1379.65
189.405	-691.57
189.623	-2520.59
189.842	5695.74
190.061	2011.54
190.28	3000
190.498	-1605.29
190.717	-1189.91
190.936	-950
191.154	-585.02
191.373	-1616.11
191.592	-1241.28
191.81	-958.57
192.029	-756.8
192.248	-771.08
192.466	-3030.99
192.685	-15157.14
192.904	-769.38
193.122	-3730.91
193.341	878.8
193.559	493.33
193.778	609.28
193.996	492.05
194.215	582.32
194.433	578.51
194.652	493.3
194.87	924.1
195.089	709.73
195.307	373.66
195.526	414.02
195.744	486.82
195.963	426.35
196.181	376.41
196.399	427.71
196.618	350.91
196.836	404.51
197.055	483.36
197.273	507.72
197.491	587.96
197.71	546.34
197.928	844.71
198.146	856.59
198.365	7893.75
198.583	-4656.6
198.801	-1866.67
199.019	-1873.44
199.238	-4374
199.456	1504.7
199.674	766.9
199.892	610.13
200.111	1001.72
200.329	862.87
200.547	770.67
200.765	509.9
200.983	455.71
201.202	463.57
201.42	621.41
201.638	683.54
201.856	1135.71
202.074	1431.21
202.292	-3603.23
202.51	13587.5
202.728	7575.86
202.946	-2796.1
203.165	-2791.25
203.383	4515.38
203.601	1839.26
203.819	3978.18
204.037	837.05
204.255	874.8
204.473	1017.05
204.691	577
204.909	521.37
205.127	521.73
205.345	586.59
205.562	731.94
205.78	910.53
205.998	865.96
206.216	551.73
206.434	886.69
206.652	558.7
206.87	613.25
207.088	576.89
207.306	821.05
207.523	671.88
207.741	519.03
207.959	470.3
208.177	658.44
208.395	673.6
208.612	966.15
208.83	665.68
209.048	744.16
209.266	894.76
209.483	786.67
209.701	888.63
209.919	1367.27
210.136	1076.68
210.354	914.23
210.572	666.4
210.79	505.56
211.007	515.87
211.225	582.69
211.442	604.3
211.66	444.2
211.878	495.61
212.095	-1163.11
212.313	-3160.64
212.53	-1958
212.748	-1397.07
212.966	-2417.95
213.183	-1689.16
213.401	-2420.54
213.618	5234.55
213.836	-17152.94
214.053	-9106.45
214.271	10580.77
214.488	261.16
214.705	262.65
214.923	225.2
215.14	240.52
215.358	271.12
215.575	296.28
215.793	305.52
216.01	449.45
216.227	405.96
216.445	443.45
216.662	505.44
216.879	664.15
217.097	562.08
217.314	500.22
217.531	325.99
217.749	283.55
217.966	249.95
218.183	215.44
218.4	207.72
218.618	212.03
218.835	190.69
219.052	180.72
219.269	161.78
219.487	166.03
219.704	181.71
219.921	190.61
220.138	188.82
220.355	198.89
220.572	196.69
220.79	172.07
221.007	165.81
221.224	174.79
221.441	170.47
221.658	169.75
221.875	165.89
222.092	155.31
222.309	144.85
222.526	136.33
222.743	125.63
222.96	120.33
223.177	122
223.394	116.27
223.611	105.95
223.828	101.49
224.045	96.76
224.262	90.41
224.479	89.56
224.696	91.49
224.913	89.76
225.13	88.47
225.347	79.34
225.564	73.79
225.781	70.03
225.997	64.66
226.214	60.34
226.431	52.9
226.648	48.86
226.865	43.41
227.082	37.08
227.298	32.43
227.515	27.72
227.732	25.53
227.949	23.75
228.165	21.39
228.382	20.15
228.599	19.88
228.816	19.8
229.032	18.31
229.249	17.69
229.466	17.21
229.682	17.78
229.899	18.18
230.116	18.33
230.332	18.34
230.549	18.86
230.765	20.83
230.982	20.34
231.199	21.9
231.415	24.32
231.632	26.19
231.848	28.12
232.065	29.21
232.281	29.89
232.498	29.9
232.714	29.66
232.931	30.23
233.147	29.15
233.364	28.85
233.58	28.04
233.797	28.44
234.013	28.51
234.23	28.58
234.446	28.26
234.662	26.66
234.879	28.8
235.095	28.44
235.312	28.57
235.528	29.14
235.744	29.59
235.961	29.01
236.177	26.63
236.393	26.58
236.61	25.71
236.826	24.67
237.042	26.87
237.258	26.01
237.475	26.96
237.691	27.69
237.907	27.04
238.123	28.24
238.339	30.07
238.556	31.57
238.772	30.61
238.988	30.69
239.204	29.99
239.42	28.16
239.636	26.12
239.853	24.26
240.069	21.51
240.285	20.71
240.501	19.26
240.717	18.73
240.933	17.29
241.149	16.17
241.365	14.82
241.581	14.43
241.797	14.64
242.013	13.82
242.229	14.02
242.445	13.99
242.661	13.32
242.877	13.18
243.093	12.5
243.309	12.16
243.525	12.43
243.741	12.29
243.957	12.27
244.173	12.65
244.388	13.58
244.604	13.58
244.82	13.57
245.036	13.18
245.252	12.88
245.468	12.24
245.683	12.07
245.899	11.23
246.115	11.31
246.331	10.63
246.547	9.82
246.762	9.41
246.978	9.02
247.194	8.68
247.409	8.82
247.625	8.48
247.841	8.35
248.057	8.56
248.272	8.71
248.488	8.86
248.703	9.25
248.919	9.35
249.135	9.55
249.35	10.73
249.566	12
249.782	12.41
249.997	13.63
250.213	14.46
250.428	14.82
250.644	16.01
250.859	15.5
251.075	14.82
251.29	15.32
251.506	14.91
251.721	13.92
251.937	13.24
252.152	13.24
252.368	13.23
252.583	13.03
252.798	12.48
253.014	11.86
253.229	12.16
253.445	13
253.66	12.63
253.875	13.45
254.091	13.81
254.306	14.35
254.521	15.86
254.737	16.73
254.952	16.63
255.167	17.3
255.383	17.11
255.598	17.22
255.813	17.13
256.028	17.56
256.244	16.52
256.459	16.86
256.674	16.09
256.889	13.81
257.104	12.54
257.32	12.34
257.535	11.43
257.75	10.66
257.965	10.08
258.18	9.77
258.395	9.2
258.61	9.01
258.826	8.14
259.041	7.75
259.256	7.68
259.471	7.4
259.686	7.19
259.901	7.2
260.116	7.26
260.331	7.1
260.546	7.19
260.761	7.2
260.976	7.14
261.191	7.04
261.406	7.26
261.621	7.35
261.836	7.17
262.05	7.63
262.265	7.93
262.48	8.1
262.695	8.51
262.91	8.81
263.125	8.65
263.34	8.66
263.555	9.92
263.769	10.28
263.984	10.35
264.199	11.3
264.414	11.2
264.629	11.24
264.843	11.76
265.058	12.16
265.273	11.62
265.488	10.83
265.702	10.71
265.917	10.11
266.132	9.89
266.346	9.75
266.561	9.45
266.776	9.26
266.99	9.5
267.205	9.36
267.42	9.19
267.634	8.76
267.849	9.46
268.063	9.91
268.278	9.48
268.492	9.83
268.707	10.14
268.922	9.98
269.136	10.15
269.351	9.6
269.565	9.27
269.78	8.74
269.994	8.36
270.209	8.44
270.423	7.68
270.637	7.62
270.852	7.03
271.066	6.76
271.281	7.14
271.495	6.96
271.709	7.08
271.924	6.94
272.138	7.05
272.353	7.38
272.567	7.26
272.781	7.95
272.996	8.13
273.21	8.45
273.424	8.19
273.638	7.71
273.853	7.82
274.067	7.81
274.281	8.19
274.495	8.26
274.71	8.61
274.924	8.58
275.138	8.51
275.352	8.29
275.566	8.26
275.781	8.69
275.995	9.37
276.209	9.57
276.423	9.65
276.637	9.71
276.851	9.85
277.065	9.74
277.279	9.53
277.493	9.4
277.707	10
277.921	9.63
278.135	9.6
278.349	9.2
278.563	9.12
278.777	8.95
278.991	8.39
279.205	8.37
279.419	8.33
279.633	8.26
279.847	8.18
280.061	8.19
280.275	7.98
280.489	8.15
280.703	8.46
280.917	8.07
281.131	8.32
281.344	8.43
281.558	8.37
281.772	8.13
281.986	8.24
282.2	8.2
282.414	8.06
282.627	8.25
282.841	8.15
283.055	8.06
283.269	8.3
283.482	7.9
283.696	8.01
283.91	8.04
284.123	7.73
284.337	7.65
284.551	7.52
284.764	7.22
284.978	6.85
285.192	6.57
285.405	6.49
285.619	6.27
285.833	6.44
286.046	6.05
286.26	5.79
286.473	6.25
286.687	6.16
286.9	6.27
287.114	6.37
287.327	6.62
287.541	7.1
287.754	7.05
287.968	7.4
288.181	7.3
288.395	7.72
288.608	7.99
288.822	7.65
289.035	7.54
289.248	7.26
289.462	7.06
289.675	7
289.889	6.91
290.102	6.7
290.315	6.36
290.529	6.46
290.742	6.52
290.955	6.44
291.169	6.64
291.382	7.18
291.595	7.46
291.808	7.79
292.022	8.18
292.235	8.21
292.448	8.38
292.661	8.78
292.875	8.75
293.088	8.45
293.301	8.38
293.514	8.1
293.727	7.61
293.94	7.7
294.153	7.43
294.367	7.25
294.58	7.04
294.793	7.08
295.006	6.88
295.219	6.92
295.432	6.82
295.645	6.76
295.858	6.85
296.071	6.89
296.284	6.45
296.497	6.36
296.71	6.15
296.923	6.41
297.136	6.5
297.349	6.5
297.562	6.44
297.775	6.26
297.988	6.43
298.201	6.56
298.414	6.65
298.626	6.74
298.839	6.7
299.052	6.79
299.265	6.64
299.478	6.54
299.691	6.99
299.903	7.19
300.116	7.84
300.329	7.84
300.542	7.8
300.755	7.92
300.967	8.41
301.18	8.84
301.393	9.15
301.605	9.03
301.818	9.15
302.031	8.57
302.243	8.47
302.456	8.43
302.669	8.71
302.881	8.61
303.094	8.85
303.307	8.5
303.519	8.34
303.732	8.76
303.944	8.79
304.157	8.99
304.37	8.97
304.582	9.13
304.795	9.33
305.007	8.92
305.22	9.39
305.432	9.15
305.645	9.39
305.857	9.65
306.069	9.37
306.282	9.2
306.494	9
306.707	9.31
306.919	9.16
307.132	8.81
307.344	8.96
307.556	9.01
307.769	9.2
307.981	8.83
308.193	8.62
308.406	8.31
308.618	8.34
308.83	8.25
309.043	8
309.255	7.7
309.467	7.78
309.679	7.44
309.892	7.13
310.104	6.76
310.316	7.14
310.528	7.14
310.74	7.06
310.953	6.98
311.165	6.99
311.377	7.2
311.589	7.6
311.801	7.58
312.013	8.05
312.225	7.8
312.437	8.17
312.649	8.27
312.862	8.28
313.074	8.78
313.286	9.16
313.498	9.48
313.71	9.53
313.922	9.5
314.134	9.76
314.346	9.6
314.558	10.21
314.77	10.21
314.982	10.14
315.193	10.4
315.405	10.39
315.617	10.72
315.829	10.65
316.041	10.99
316.253	11.2
316.465	11.04
316.677	11.32
316.888	11.24
317.1	11.68
317.312	11.71
317.524	12.02
317.736	12.03
317.947	12.45
318.159	12.52
318.371	12.35
318.583	12.16
318.794	12.7
319.006	12.76
319.218	12.72
319.43	12.58
319.641	12.67
319.853	12.54
320.064	12.63
320.276	12.05
320.488	12.24
320.699	11.54
320.911	11.87
321.123	11.45
321.334	11.26
321.546	11.3
321.757	11.36
321.969	11.49
322.18	11.83
322.392	11.57
322.603	11.94
322.815	11.62
323.026	12.57
323.238	12.58
323.449	12.09
323.661	12.53
323.872	12.59
324.083	12.64
324.295	12.39
324.506	11.87
324.718	11.8
324.929	11.79
325.14	11.88
325.352	11.71
325.563	11.92
325.774	12.28
325.986	11.85
326.197	12.17
326.408	12.13
326.62	12.32
326.831	12.31
327.042	12.79
327.253	12.91
327.464	13.2
327.676	13.02
327.887	13.07
328.098	13.37
328.309	13.59
328.52	13.61
328.732	13.56
328.943	13.6
329.154	14.07
329.365	14.27
329.576	14.15
329.787	14.08
329.998	14.79
330.209	14.48
330.42	14.48
330.631	14.9
330.842	14.45
331.053	14.81
331.264	15.15
331.475	15.42
331.686	15.08
331.897	15.05
332.108	15.26
332.319	15.21
332.53	15.42
332.741	15.44
332.952	15.52
333.163	15.48
333.374	15.25
333.585	15
333.795	14.82
334.006	14.8
334.217	14.63
334.428	14.4
334.639	14.39
334.849	14.1
335.06	14.3
335.271	13.95
335.482	14.63
335.692	14.49
335.903	14.61
336.114	14.22
336.325	14.35
336.535	14.55
336.746	14.39
336.957	14.33
337.167	14.79
337.378	14.69
337.589	14.71
337.799	14.23
338.01	14.46
338.22	14.35
338.431	14.49
338.642	14.49
338.852	14.24
339.063	14.46
339.273	14.45
339.484	13.88
339.694	13.71
339.905	13.83
340.115	13.91
340.326	13.75
340.536	13.89
340.746	14.09
340.957	14.19
341.167	14.25
341.378	14.17
341.588	14.26
341.799	14.71
342.009	14.76
342.219	14.47
342.43	14.58
342.64	14.73
342.85	14.63
343.061	14.51
343.271	14.4
343.481	14.38
343.691	14.3
343.902	14.05
344.112	13.89
344.322	13.77
344.532	14.08
344.743	13.69
344.953	13.43
345.163	13.14
345.373	13.01
345.583	12.96
345.793	13.18
346.004	13.34
346.214	13.52
346.424	13.71
346.634	13.82
346.844	13.54
347.054	13.93
347.264	14.02
347.474	13.8
347.684	13.96
347.894	13.83
348.104	13.62
348.314	13.46
348.524	13.24
348.734	13.08
348.944	13.28
349.154	13.21
349.364	13.15
349.574	12.9
349.784	13.34
349.994	13.27
350.204	13.37
350.413	13.39
350.623	13.54
350.833	13.67
351.043	13.49
351.253	13.18
351.463	13.34
351.672	13.35
351.882	13.56
352.092	13.29
352.302	13.14
352.511	12.98
352.721	12.96
352.931	12.8
353.141	12.48
353.35	12.62
353.56	12.65
353.77	12.59
353.979	12.33
354.189	12.34
354.399	12.53
354.608	12.76
354.818	12.64
355.027	12.68
355.237	12.59
355.447	12.76
355.656	12.5
355.866	12.46
356.075	12.42
356.285	12.68
356.494	12.72
356.704	12.77
356.913	12.62
357.123	12.42
357.332	12.41
357.542	12.29
357.751	12.3
357.96	12.46
358.17	12.32
358.379	12.48
358.589	12.28
358.798	12.05
359.007	12.01
359.217	12.15
359.426	12.18
359.635	12
359.845	12
360.054	11.71
360.263	11.5
360.472	11.47
360.682	11.23
360.891	11.27
361.1	11.17
361.309	10.92
361.519	10.82
361.728	10.84
361.937	10.78
362.146	10.88
362.355	10.89
362.564	10.98
362.774	11.14
362.983	10.99
363.192	10.98
363.401	11.01
363.61	11.16
363.819	11.13
364.028	11.26
364.237	11.43
364.446	11.31
364.655	11.43
364.864	11.28
365.073	11.25
365.282	11.24
365.491	11.24
365.7	11.32
365.909	11.28
366.118	11.42
366.327	11.46
366.536	11.37
366.745	11.59
366.954	11.46
367.162	11.58
367.371	11.48
367.58	11.79
367.789	11.66
367.998	11.82
368.207	11.81
368.415	11.53
368.624	11.79
368.833	11.77
369.042	11.69
369.25	11.88
369.459	12.06
369.668	12.18
369.877	11.84
370.085	11.91
370.294	11.85
370.503	11.91
370.711	11.71
370.92	11.39
371.129	11.46
371.337	11.24
371.546	11.11
371.754	10.97
371.963	10.62
372.171	10.75
372.38	10.96
372.589	10.86
372.797	10.85
373.006	11.08
373.214	11.14
373.423	10.97
373.631	11.01
373.84	11.06
374.048	10.94
374.256	11.14
374.465	11.11
374.673	10.78
374.882	10.92
375.09	10.93
375.298	10.84
375.507	10.75
375.715	10.77
375.923	10.69
376.132	10.59
376.34	10.5
376.548	10.37
376.757	10.36
376.965	10.6
377.173	10.27
377.381	10.21
377.59	10.5
377.798	10.45
378.006	10.46
378.214	10.44
378.423	10.55
378.631	10.53
378.839	10.55
379.047	10.52
379.255	10.41
379.463	10.79
379.671	10.61
379.879	10.33
380.088	10.33
380.296	10.3
380.504	10.34
380.712	10
380.92	10.27
381.128	10.4
381.336	10.28
381.544	10.05
381.752	9.82
381.96	9.93
382.168	9.86
382.376	9.67
382.584	9.7
382.791	9.86
382.999	9.99
383.207	9.84
383.415	9.76
383.623	9.9
383.831	9.85
384.039	9.73
384.247	9.7
384.454	9.79
384.662	10.11
384.87	10.04
385.078	9.91
385.285	9.84
385.493	9.67
385.701	9.69
385.909	9.65
386.116	9.65
386.324	9.48
386.532	9.42
386.739	9.3
386.947	9.22
387.155	9.25
387.362	9.18
387.57	9.17
387.778	9.32
387.985	9.26
388.193	9.33
388.4	9.33
388.608	9.8
388.816	9.91
389.023	10.12
389.231	10.07
389.438	9.89
389.646	9.93
389.853	10.01
390.061	9.89
390.268	9.93
390.475	9.77
390.683	9.79
390.89	9.48
391.098	9.36
391.305	9.22
391.512	9.1
391.72	9.27
391.927	9.23
392.135	9.3
392.342	9.38
392.549	9.18
392.756	9.17
392.964	8.97
393.171	9.04
393.378	9.08
393.586	8.97
393.793	8.8
394	8.82
394.207	8.84
394.414	8.87
394.622	8.76
394.829	8.94
395.036	8.96
395.243	9.2
395.45	9.24
395.657	9.32
395.864	9.34
396.072	9.67
396.279	9.58
396.486	9.5
396.693	9.56
396.9	9.83
397.107	9.84
397.314	9.99
397.521	9.88
397.728	9.73
397.935	9.58
398.142	9.56
398.349	9.51
398.556	9.4
398.763	9.42
398.97	9.25
399.177	8.98
399.383	9.01
399.59	8.99
399.797	9.13
400.004	9.06
400.211	9.19
400.418	9.25
400.625	9.19
400.831	9.19
401.038	9.24
401.245	9.15
401.452	9.18
401.658	9.01
401.865	9.06
402.072	8.89
402.279	8.88
402.485	8.66
402.692	8.63
402.899	8.57
403.105	8.54
403.312	8.42
403.519	8.34
403.725	8.43
403.932	8.35
404.138	8.1
404.345	8.16
404.552	8.16
404.758	8.31
404.965	8.09
405.171	8.15
405.378	8.16
405.584	8.17
405.791	8.29
405.997	8.2
406.204	8.33
406.41	8.35
406.617	8.32
406.823	8.49
407.029	8.38
407.236	8.64
407.442	8.69
407.649	8.8
407.855	8.97
408.061	9.05
408.268	9.05
408.474	9.09
408.68	9.07
408.887	9.13
409.093	8.97
409.299	9.08
409.505	9.16
409.712	9.02
409.918	8.89
410.124	8.7
410.33	8.58
410.537	8.56
410.743	8.53
410.949	8.65
411.155	8.54
411.361	8.51
411.567	8.41
411.773	8.26
411.98	8.27
412.186	8.23
412.392	8.37
412.598	8.48
412.804	8.35
413.01	8.35
413.216	8.46
413.422	8.38
413.628	8.56
413.834	8.58
414.04	8.62
414.246	8.64
414.452	8.5
414.658	8.36
414.864	8.17
415.07	8.17
415.275	8
415.481	7.82
415.687	7.78
415.893	7.68
416.099	7.56
416.305	7.52
416.511	7.49
416.716	7.57
416.922	7.56
417.128	7.54
417.334	7.47
417.539	7.52
417.745	7.34
417.951	7.34
418.157	7.29
418.362	7.32
418.568	7.25
418.774	7.15
418.979	7.13
419.185	7.05
419.391	7.06
419.596	7.01
419.802	6.95
420.008	7.01
420.213	7.63
420.419	7.57
420.624	7.53
420.83	7.53
421.035	7.54
421.241	7.52
421.446	7.48
421.652	7.4
421.857	7.35
422.063	7.31
422.268	7.25
422.474	6.69
422.679	6.7
422.885	6.64
423.09	6.59
423.295	6.48
423.501	6.49
423.706	6.55
423.911	6.58
424.117	6.62
424.322	6.58
424.527	6.61
424.733	6.56
424.938	6.58
425.143	6.58
425.349	6.55
425.554	6.63
425.759	6.71
425.964	6.74
426.169	6.75
426.375	6.89
426.58	7.04
426.785	6.98
426.99	7.11
427.195	7.26
427.4	7.35
427.605	7.43
427.811	7.51
428.016	7.5
428.221	7.63
428.426	7.62
428.631	7.48
428.836	7.44
429.041	7.59
429.246	7.41
429.451	7.22
429.656	7.25
429.861	7.3
430.066	7.22
430.271	7.16
430.476	6.98
430.681	7.02
430.886	7.2
431.09	7.27
431.295	7.24
431.5	7.37
431.705	7.41
431.91	7.39
432.115	7.39
432.32	7.51
432.524	7.5
432.729	7.59
432.934	7.54
433.139	7.4
433.343	7.33
433.548	7.33
433.753	7.32
433.958	7.32
434.162	7.38
434.367	7.38
434.572	7.34
434.776	7.32
434.981	7.26
435.186	7.4
435.39	7.52
435.595	7.51
435.799	7.48
436.004	7.49
436.209	7.47
436.413	7.39
436.618	7.29
436.822	7.14
437.027	7.15
437.231	7.1
437.436	7.02
437.64	6.93
437.845	6.93
438.049	7.04
438.253	6.97
438.458	6.92
438.662	6.88
438.867	6.98
439.071	7.1
439.275	7.05
439.48	7
439.684	6.9
439.888	6.88
440.093	6.87
440.297	6.77
440.501	6.73
440.706	6.7
440.91	6.7
441.114	6.68
441.318	6.62
441.523	6.68
441.727	6.7
441.931	6.81
442.135	6.86
442.339	6.9
442.543	7.03
442.748	7.08
442.952	7.17
443.156	7.21
443.36	7.14
443.564	7.17
443.768	7.17
443.972	7.15
444.176	7.1
444.38	7.07
444.584	7
444.788	6.87
444.992	6.86
445.196	6.74
445.4	6.73
445.604	6.78
445.808	6.83
446.012	6.77
446.216	6.79
446.42	6.78
446.624	6.7
446.828	6.63
447.032	6.62
447.235	6.65
447.439	6.74
447.643	6.75
447.847	6.72
448.051	6.68
448.254	6.72
448.458	6.72
448.662	6.68
448.866	6.76
449.069	6.96
449.273	7.01
449.477	6.98
449.681	6.97
449.884	7.01
450.088	7.21
450.292	7.2
450.495	7.15
450.699	7.16
450.902	7.24
451.106	7.26
451.31	7.29
451.513	7.39
451.717	7.36
451.92	7.31
452.124	7.29
452.327	7.1
452.531	7.17
452.734	7.24
452.938	7.31
453.141	7.34
453.345	7.38
453.548	7.31
453.752	7.17
453.955	7.31
454.158	7.35
454.362	7.29
454.565	7.25
454.769	7.17
454.972	7.18
455.175	7.17
455.379	7.18
455.582	7.09
455.785	7.07
455.988	7.09
456.192	7.04
456.395	7.03
456.598	7.1
456.801	7.23
457.005	7.23
457.208	7.22
457.411	7.28
457.614	7.21
457.817	7.22
458.021	7.17
458.224	7.17
458.427	6.99
458.63	7.01
458.833	6.94
459.036	6.88
459.239	6.78
459.442	6.65
459.645	6.54
459.848	6.52
460.051	6.53
460.254	6.55
460.457	6.54
460.66	6.66
460.863	6.59
461.066	6.61
461.269	6.56
461.472	6.71
461.675	6.8
461.878	6.93
462.081	6.99
462.284	7.06
462.486	7.03
462.689	7.07
462.892	7.08
463.095	7.04
463.298	7.06
463.5	7.2
463.703	7.11
463.906	7.13
464.109	7.06
464.311	7.06
464.514	6.97
464.717	6.96
464.92	6.96
465.122	6.9
465.325	7.12
465.528	7.06
465.73	7.09
465.933	7.13
466.135	7.14
466.338	7
466.541	6.97
466.743	6.97
466.946	7.03
467.148	7.05
467.351	7.06
467.553	7.03
467.756	6.99
467.958	6.83
468.161	6.92
468.363	7.02
468.566	7.09
468.768	7.15
468.971	7.11
469.173	7.02
469.375	6.94
469.578	7.16
469.78	7.06
469.983	7.12
470.185	7.18
470.387	7.14
470.59	6.99
470.792	7.06
470.994	7.09
471.196	7.1
471.399	7.12
471.601	7.24
471.803	7.04
472.005	7
472.208	7.05
472.41	7.13
472.612	7.13
472.814	7.15
473.016	7.15
473.218	7.17
473.421	7.13
473.623	7.22
473.825	7.17
474.027	7.16
474.229	7.17
474.431	7.12
474.633	7.03
474.835	7.01
475.037	7.03
475.239	6.9
475.441	6.81
475.643	6.88
475.845	6.8
476.047	6.71
476.249	6.73
476.451	6.83
476.653	6.82
476.855	6.88
477.057	6.85
477.258	6.74
477.46	6.75
477.662	6.76
477.864	6.74
478.066	6.84
478.268	6.89
478.469	6.89
478.671	6.8
478.873	6.86
479.075	6.77
479.276	6.71
479.478	6.85
479.68	6.85
479.882	6.83
480.083	6.82
480.285	6.73
480.487	6.76
480.688	6.66
480.89	6.61
481.091	6.57
481.293	6.54
481.495	6.52
481.696	6.44
481.898	6.4
482.099	6.33
482.301	6.25
482.502	6.2
482.704	6.11
482.905	6.09
483.107	6.03
483.308	6
483.51	5.96
483.711	5.95
483.913	5.92
484.114	5.91
484.315	5.89
484.517	5.88
484.718	5.85
484.92	5.84
485.121	5.86
485.322	5.9
485.524	5.88
485.725	5.89
485.926	5.92
486.127	5.92
486.329	5.92
486.53	5.94
486.731	5.92
486.932	5.94
487.134	5.94
487.335	5.89
487.536	5.85
487.737	5.83
487.938	5.83
488.139	5.81
488.341	5.83
488.542	5.84
488.743	5.83
488.944	5.83
489.145	5.82
489.346	5.88
489.547	5.89
489.748	5.93
489.949	6.02
490.15	6.03
490.351	6.02
490.552	5.98
490.753	5.99
490.954	6
491.155	6.04
491.356	6.1
491.557	6.07
491.758	6.1
491.959	6.11
492.159	6.06
492.36	6.08
492.561	6.11
492.762	6.18
492.963	6.22
493.164	6.2
493.364	6.21
493.565	6.2
493.766	6.19
493.967	6.2
494.167	6.26
494.368	6.38
494.569	6.45
494.769	6.51
494.97	6.55
495.171	6.61
495.371	6.7
495.572	6.68
495.773	6.7
495.973	6.76
496.174	6.82
496.375	6.78
496.575	6.7
496.776	6.78
496.976	6.75
497.177	6.68
497.377	6.57
497.578	6.58
497.778	6.61
497.979	6.67
498.179	6.65
498.38	6.63
498.58	6.7
498.78	6.73
498.981	6.71
499.181	6.71
499.382	6.81
499.582	6.92
499.782	6.99
499.983	7.04
500.183	7.07
500.383	7.14
500.584	7.11
500.784	7.11
500.984	7.15
501.184	7.13
501.385	7.11
501.585	7.06
501.785	7.01
501.985	6.94
502.185	6.99
502.386	6.92
502.586	6.89
502.786	6.99
502.986	6.98
503.186	7
503.386	6.97
503.586	7.02
503.786	7.07
503.987	7.06
504.187	7.09
504.387	7.06
504.587	7.13
504.787	7.12
504.987	7.13
505.187	7.2
505.387	7.14
505.587	7.08
505.786	6.97
505.986	6.9
506.186	6.98
506.386	6.97
506.586	7.03
506.786	6.99
506.986	7.05
507.186	6.98
507.386	6.97
507.585	7.03
507.785	7.13
507.985	7.3
508.185	7.31
508.384	7.28
508.584	7.25
508.784	7.16
508.984	7.25
509.183	7.26
509.383	7.24
509.583	7.23
509.782	7.18
509.982	7.2
510.182	7.1
510.381	7.14
510.581	7.21
510.781	7.23
510.98	7.33
511.18	7.26
511.379	7.21
511.579	7.3
511.778	7.28
511.978	7.31
512.177	7.3
512.377	7.35
512.576	7.33
512.776	7.26
512.975	7.31
513.175	7.37
513.374	7.43
513.573	7.44
513.773	7.57
513.972	7.67
514.172	7.77
514.371	7.89
514.57	7.98
514.77	8.08
514.969	8.1
515.168	8.16
515.367	8.1
515.567	8.12
515.766	8.15
515.965	8.03
516.164	7.92
516.364	7.86
516.563	7.7
516.762	7.68
516.961	7.56
517.16	7.58
517.359	7.62
517.559	7.65
517.758	7.62
517.957	7.6
518.156	7.65
518.355	7.69
518.554	7.63
518.753	7.69
518.952	7.67
519.151	7.76
519.35	7.75
519.549	7.7
519.748	7.7
519.947	7.78
520.146	7.83
520.345	7.85
520.544	7.95
520.743	8.07
520.942	8.07
521.141	8.09
521.339	8.19
521.538	8.27
521.737	8.28
521.936	8.23
522.135	8.21
522.333	8.26
522.532	8.27
522.731	8.25
522.93	8.2
523.129	8.26
523.327	8.32
523.526	8.25
523.725	8.25
523.923	8.21
524.122	8.28
524.321	8.29
524.519	8.27
524.718	8.23
524.917	8.22
525.115	8.24
525.314	8.21
525.512	8.23
525.711	8.15
525.909	8.17
526.108	8.21
526.306	8.11
526.505	8.11
526.703	8.09
526.902	8.08
527.1	8
527.299	8
527.497	8.01
527.696	7.99
527.894	8.01
528.092	7.97
528.291	7.98
528.489	8.07
528.688	8.05
528.886	8.06
529.084	8.07
529.283	8.13
529.481	8.14
529.679	8.17
529.877	8.21
530.076	8.25
530.274	8.32
530.472	8.38
530.67	8.41
530.869	8.47
531.067	8.54
531.265	8.6
531.463	8.67
531.661	8.73
531.859	8.78
532.057	8.82
532.255	8.85
532.454	8.88
532.652	8.86
532.85	8.84
533.048	8.88
533.246	8.9
533.444	8.94
533.642	8.97
533.84	8.97
534.038	8.99
534.236	9.02
534.434	9.06
534.632	9.06
534.83	9.17
535.027	9.21
535.225	9.19
535.423	9.23
535.621	9.25
535.819	9.24
536.017	9.32
536.215	9.31
536.412	9.35
536.61	9.33
536.808	9.37
537.006	9.37
537.203	9.41
537.401	9.57
537.599	9.59
537.797	9.63
537.994	9.75
538.192	9.84
538.39	9.95
538.587	9.96
538.785	10.02
538.983	10.1
539.18	10.12
539.378	10.16
539.575	10.13
539.773	10.17
539.97	10.16
540.168	10.17
540.366	10.13
540.563	10.08
540.761	10.09
540.958	10.1
541.155	10.13
541.353	10.14
541.55	10.14
541.748	10.12
541.945	10.09
542.143	10.16
542.34	10.19
542.537	10.26
542.735	10.32
542.932	10.36
543.129	10.49
543.327	10.49
543.524	10.61
543.721	10.69
543.919	10.81
544.116	10.98
544.313	11.04
544.51	11.1
544.708	11.16
544.905	11.32
545.102	11.44
545.299	11.47
545.496	11.57
545.693	11.64
545.891	11.72
546.088	11.81
546.285	11.87
546.482	11.87
546.679	11.94
546.876	11.93
547.073	11.9
547.27	11.87
547.467	11.84
547.664	11.87
547.861	11.82
548.058	11.86
548.255	11.9
548.452	11.9
548.649	12.07
548.846	12.2
549.043	12.26
549.24	12.44
549.437	12.52
549.633	12.76
549.83	12.95
550.027	13.15
550.224	13.2
550.421	13.24
550.618	13.23
550.814	13.25
551.011	13.17
551.208	13.37
551.405	13.37
551.601	13.54
551.798	13.46
551.995	13.39
552.191	13.43
552.388	13.55
552.585	13.6
552.781	13.7
552.978	13.77
553.175	13.84
553.371	13.84
553.568	13.8
553.764	13.75
553.961	13.84
554.157	13.88
554.354	13.97
554.55	13.99
554.747	14.03
554.943	14.16
555.14	14.25
555.336	14.34
555.533	14.37
555.729	14.53
555.926	14.7
556.122	14.84
556.318	14.99
556.515	14.94
556.711	15.01
556.907	15.24
557.104	15.37
557.3	15.46
557.496	15.56
557.693	15.62
557.889	15.71
558.085	15.8
558.281	15.83
558.478	15.94
558.674	15.98
558.87	15.99
559.066	15.94
559.262	16.02
559.459	16.08
559.655	16.15
559.851	16.24
560.047	16.3
560.243	16.47
560.439	16.56
560.635	16.61
560.831	16.69
561.027	16.83
561.223	16.89
561.419	16.79
561.615	16.81
561.811	17
562.007	17.06
562.203	17.22
562.399	17.15
562.595	17.16
562.791	17.36
562.987	17.43
563.183	17.48
563.379	17.5
563.575	17.61
563.771	17.66
563.966	17.57
564.162	17.68
564.358	17.66
564.554	17.79
564.75	17.9
564.945	17.82
565.141	17.89
565.337	17.92
565.533	18
565.728	18
565.924	18.1
566.12	18.05
566.315	17.99
566.511	18.04
566.707	18
566.902	17.97
567.098	18.11
567.293	18.18
567.489	18.27
567.684	18.34
567.88	18.32
568.076	18.29
568.271	18.5
568.467	18.68
568.662	18.59
568.858	18.77
569.053	18.86
569.248	18.81
569.444	18.83
569.639	18.8
569.835	18.83
570.03	19.05
570.225	19.07
570.421	19.01
570.616	18.99
570.812	19.08
571.007	19.04
571.202	19.07
571.397	19.08
571.593	19.14
571.788	19.25
571.983	19.35
572.178	19.38
572.374	19.53
572.569	19.72
572.764	19.87
572.959	19.99
573.154	20.13
573.35	20.25
573.545	20.41
573.74	20.44
573.935	20.49
574.13	20.4
574.325	20.44
574.52	20.5
574.715	20.54
574.91	20.56
575.105	20.73
575.3	20.7
575.495	20.82
575.69	20.85
575.885	20.96
576.08	21.1
576.275	21.37
576.47	21.46
576.665	21.53
576.86	21.51
577.055	21.59
577.25	21.62
577.444	21.8
577.639	21.84
577.834	21.95
578.029	22.12
578.224	22.27
578.418	22.35
578.613	22.56
578.808	22.79
579.003	23.03
579.197	23.09
579.392	23.12
579.587	23.1
579.781	23.15
579.976	23.18
580.171	23.16
580.365	23.06
580.56	23.03
580.755	23.1
580.949	22.93
581.144	22.96
581.338	23.04
581.533	23.13
581.727	23.3
581.922	23.19
582.116	23.36
582.311	23.39
582.505	23.47
582.7	23.47
582.894	23.4
583.089	23.54
583.283	23.46
583.478	23.45
583.672	23.57
583.866	23.46
584.061	23.71
584.255	23.59
584.449	23.77
584.644	23.87
584.838	24.13
585.032	24.21
585.226	24.26
585.421	24.32
585.615	24.4
585.809	24.25
586.003	24.3
586.198	24.44
586.392	24.65
586.586	24.64
586.78	24.68
586.974	24.58
587.168	24.58
587.363	24.59
587.557	24.65
587.751	24.66
587.945	24.62
588.139	24.72
588.333	24.59
588.527	24.52
588.721	24.38
588.915	24.24
589.109	24.14
589.303	24.14
589.497	24.03
589.691	23.9
589.885	23.82
590.079	23.89
590.273	23.9
590.466	24.03
590.66	24.03
590.854	24.37
591.048	24.38
591.242	24.53
591.436	24.57
591.629	24.76
591.823	24.88
592.017	25.18
592.211	25.21
592.404	25.19
592.598	25.02
592.792	24.92
592.986	24.64
593.179	24.66
593.373	24.53
593.567	24.59
593.76	24.5
593.954	24.53
594.147	24.38
594.341	24.43
594.535	24.55
594.728	24.56
594.922	24.45
595.115	24.55
595.309	24.52
595.502	24.57
595.696	24.5
595.889	24.41
596.083	24.34
596.276	24.26
596.47	24.3
596.663	24.22
596.856	24.34
597.05	24.5
597.243	24.41
597.437	24.62
597.63	24.63
597.823	24.6
598.017	24.76
598.21	24.93
598.403	25.09
598.596	25.08
598.79	25.21
598.983	25.18
599.176	25.16
599.369	25.29
599.563	25.36
599.756	25.54
599.949	25.73
600.142	25.73
600.335	25.81
600.528	25.79
600.722	25.87
600.915	25.83
601.108	25.91
601.301	25.94
601.494	26.05
601.687	25.87
601.88	25.73
602.073	25.58
602.266	25.62
602.459	25.46
602.652	25.41
602.845	25.25
603.038	25.15
603.231	25.05
603.424	25.13
603.617	24.95
603.809	24.95
604.002	24.98
604.195	24.96
604.388	25.04
604.581	24.98
604.774	24.95
604.966	24.99
605.159	24.95
605.352	24.95
605.545	25.05
605.737	25.08
605.93	25.07
606.123	25.13
606.316	25.36
606.508	25.28
606.701	25.39
606.894	25.59
607.086	25.73
607.279	25.98
607.471	26.12
607.664	26
607.857	26.2
608.049	26.42
608.242	26.58
608.434	26.66
608.627	26.92
608.819	27.22
609.012	27.55
609.204	28.09
609.397	28.54
609.589	29.14
609.782	29.83
609.974	30.51
610.166	31.14
610.359	31.82
610.551	32.43
610.743	32.95
610.936	33.55
611.128	33.91
611.32	34.29
611.513	34.44
611.705	34.36
611.897	34.28
612.09	34.12
612.282	33.94
612.474	33.65
612.666	33.49
612.858	33.34
613.051	32.89
613.243	32.47
613.435	31.92
613.627	31.75
613.819	31.6
614.011	31.51
614.203	31.33
614.395	31.02
614.588	30.66
614.78	30.32
614.972	30.08
615.164	30.13
615.356	30.08
615.548	29.95
615.74	29.78
615.932	29.66
616.124	29.6
616.315	29.38
616.507	29.36
616.699	29.29
616.891	29.14
617.083	28.95
617.275	28.66
617.467	28.63
617.659	28.63
617.85	28.5
618.042	28.26
618.234	27.96
618.426	27.98
618.618	27.77
618.809	27.7
619.001	28
619.193	27.95
619.384	28.15
619.576	28.32
619.768	28.26
619.959	28.35
620.151	28.49
620.343	28.57
620.534	28.55
620.726	28.53
620.917	28.74
621.109	28.62
621.301	28.75
621.492	28.67
621.684	28.55
621.875	28.51
622.067	28.49
622.258	28.5
622.45	28.56
622.641	28.47
622.832	28.6
623.024	28.6
623.215	28.49
623.407	28.45
623.598	28.39
623.789	28.37
623.981	28.43
624.172	28.41
624.363	28.37
624.555	28.29
624.746	28.22
624.937	28.27
625.129	28.22
625.32	28.18
625.511	28.08
625.702	27.98
625.893	27.95
626.085	27.87
626.276	27.81
626.467	27.83
626.658	27.79
626.849	27.75
627.04	27.53
627.231	27.47
627.422	27.54
627.614	27.62
627.805	27.68
627.996	27.52
628.187	27.77
628.378	27.69
628.569	27.67
628.76	27.85
628.951	28.08
629.142	28.43
629.332	28.48
629.523	28.75
629.714	28.87
629.905	29.16
630.096	29.42
630.287	29.23
630.478	29.42
630.669	29.49
630.859	29.47
631.05	29.45
631.241	29.33
631.432	29.28
631.623	28.99
631.813	28.8
632.004	28.44
632.195	28.16
632.385	28.11
632.576	28.14
632.767	28.04
632.957	28.03
633.148	27.93
633.339	27.76
633.529	27.73
633.72	27.75
633.91	27.68
634.101	27.84
634.292	27.89
634.482	27.93
634.673	27.81
634.863	27.78
635.054	27.69
635.244	27.75
635.435	27.88
635.625	27.75
635.815	27.75
636.006	27.99
636.196	27.92
636.387	28.08
636.577	28.01
636.767	28.04
636.958	28.24
637.148	28.21
637.338	28.24
637.529	28.24
637.719	28.43
637.909	28.49
638.099	28.31
638.29	28.42
638.48	28.63
638.67	28.85
638.86	28.86
639.05	28.69
639.241	28.98
639.431	28.85
639.621	28.83
639.811	28.91
640.001	28.9
640.191	28.9
640.381	28.85
640.571	28.86
640.761	28.82
640.951	28.95
641.141	28.9
641.331	28.63
641.521	28.9
641.711	29.1
641.901	29.14
642.091	29.15
642.281	29.31
642.471	29.33
642.661	29
642.851	29.03
643.041	29.18
643.231	29.28
643.42	29.46
643.61	29.36
643.8	29.43
643.99	29.44
644.18	29.31
644.369	29.41
644.559	29.49
644.749	29.8
644.939	29.58
645.128	29.31
645.318	29.23
645.508	29.24
645.697	29.06
645.887	28.84
646.076	28.64
646.266	28.77
646.456	28.85
646.645	28.73
646.835	28.59
647.024	28.71
647.214	28.98
647.403	29.1
647.593	28.92
647.782	29.27
647.972	29.23
648.161	29.28
648.351	29.28
648.54	29.15
648.73	29.16
648.919	29.21
649.108	29.35
649.298	29.41
649.487	29.54
649.677	29.72
649.866	29.53
650.055	29.55
650.244	29.6
650.434	29.43
650.623	29.36
650.812	29.47
651.002	29.35
651.191	29.15
651.38	29.08
651.569	29.16
651.758	29.03
651.947	29.03
652.137	29
652.326	29.07
652.515	29.12
652.704	28.96
652.893	29.05
653.082	29.2
653.271	29.18
653.46	29.21
653.649	29.3
653.838	29.34
654.027	29.41
654.216	29.41
654.405	29.55
654.594	29.71
654.783	29.93
654.972	29.96
655.161	29.98
655.35	30.1
655.539	29.8
655.728	29.51
655.916	29.45
656.105	29.33
656.294	29.44
656.483	29.25
656.672	29.27
656.86	29.13
657.049	28.94
657.238	28.69
657.427	28.66
657.615	28.58
657.804	28.49
657.993	28.42
658.181	28.39
658.37	28.17
658.559	28.19
658.747	28.13
658.936	28.16
659.125	27.64
659.313	27.84
659.502	27.89
659.69	27.98
659.879	28.07
660.067	28.17
660.256	28.27
660.444	28.41
660.633	28.46
660.821	28.47
661.01	28.64
661.198	29.26
661.387	29.09
661.575	29.29
661.763	29.38
661.952	29.51
662.14	29.55
662.328	29.53
662.517	29.64
662.705	29.76
662.893	29.87
663.082	29.69
663.27	29.85
663.458	30.12
663.646	29.91
663.834	30.1
664.023	30.14
664.211	30.22
664.399	30.42
664.587	30.48
664.775	30.42
664.963	30.64
665.152	30.78
665.34	30.61
665.528	30.66
665.716	30.92
665.904	30.99
666.092	31.19
666.28	31.24
666.468	31.24
666.656	31.28
666.844	31.3
667.032	31.26
667.22	31.3
667.408	31.34
667.596	31.21
667.784	31.07
667.971	30.73
668.159	30.43
668.347	30.35
668.535	30.3
668.723	30.22
668.911	30.18
669.098	30.14
669.286	30.11
669.474	29.89
669.662	29.99
669.849	30.07
670.037	30.39
670.225	30.43
670.413	30.67
670.6	30.84
670.788	30.92
670.976	31.06
671.163	30.97
671.351	31.14
671.538	31.77
671.726	31.86
671.913	31.93
672.101	31.81
672.289	31.83
672.476	31.62
672.664	31.5
672.851	31.65
673.039	31.58
673.226	31.68
673.413	31.45
673.601	31.13
673.788	31.35
673.976	31.2
674.163	31.12
674.35	31.19
674.538	31.33
674.725	31.57
674.912	31.48
675.1	31.6
675.287	31.53
675.474	31.63
675.662	32.02
675.849	31.8
676.036	31.95
676.223	32.34
676.411	32.41
676.598	32.49
676.785	32.26
676.972	32.53
677.159	32.33
677.346	32.45
677.533	32.54
677.721	32.01
677.908	31.57
678.095	31.21
678.282	31.24
678.469	30.98
678.656	30.62
678.843	30.63
679.03	30.33
679.217	30.56
679.404	30.62
679.591	30.44
679.778	30.32
679.964	30.54
680.151	30.65
680.338	30.19
680.525	30.55
680.712	30.66
680.899	30.6
681.086	30.78
681.272	30.53
681.459	30.39
681.646	30.52
681.833	30.75
682.02	30.73
682.206	31.11
682.393	31.31
682.58	31.13
682.766	31.43
682.953	31.45
683.14	31.01
683.326	31.48
683.513	31.75
683.7	31.73
683.886	31.92
684.073	31.95
684.259	31.42
684.446	31.74
684.632	31.78
684.819	31.77
685.005	31.75
685.192	31.92
685.378	31.56
685.565	31.28
685.751	31.33
685.938	31.41
686.124	31.52
686.31	32.09
686.497	31.75
686.683	31.71
686.87	31.52
687.056	31.75
687.242	31.99
687.429	32.08
687.615	32.33
687.801	32.26
687.987	32.03
688.174	32.09
688.36	31.9
688.546	32.16
688.732	31.99
688.918	32.13
689.105	32.02
689.291	32.12
689.477	32.24
689.663	32.21
689.849	32.31
690.035	32.55
690.221	32.67
690.407	32.47
690.593	32.33
690.779	32.57
690.965	32.53
691.151	32.73
691.337	32.59
691.523	32.66
691.709	32.5
691.895	32.91
692.081	32.86
692.267	32.7
692.453	33.01
692.639	32.97
692.825	32.86
693.011	32.89
693.196	32.85
693.382	32.74
693.568	32.59
693.754	32.66
693.94	32.46
694.125	32.35
694.311	32.53
694.497	32.44
694.682	32.52
694.868	32.75
695.054	32.81
695.239	32.91
695.425	33.13
695.611	33.1
695.796	32.83
695.982	32.54
696.168	32.41
696.353	31.9
696.539	31.82
696.724	31.52
696.91	31.41
697.095	31
697.281	30.67
697.466	30.43
697.652	30.33
697.837	30.06
698.023	29.96
698.208	29.97
698.393	30.13
698.579	29.94
698.764	30.09
698.949	29.89
699.135	29.9
699.32	29.64
699.505	29.42
699.691	29.37
699.876	29.58
700.061	29.63
700.246	29.58
700.432	29.59
700.617	29.88
700.802	30.02
700.987	30.22
701.172	30.52
701.358	31.15
701.543	31.57
701.728	31.96
701.913	32.44
702.098	32.77
702.283	33.37
702.468	33.44
702.653	33.5
702.838	33.72
703.023	34.12
703.208	34.54
703.393	34.71
703.578	34.82
703.763	35.02
703.948	35.22
704.133	35.36
704.318	35.11
704.503	35.42
704.688	35.89
704.873	36.06
705.057	36.22
705.242	36.24
705.427	36.29
705.612	36.76
705.797	36.78
705.981	36.55
706.166	36.91
706.351	37.1
706.536	37.24
706.72	37.01
706.905	36.9
707.09	36.65
707.274	36.68
707.459	36.85
707.644	36.94
707.828	36.98
708.013	37.42
708.197	37.08
708.382	37.09
708.567	37.09
708.751	37.07
708.936	37.06
709.12	37.25
709.305	37.17
709.489	36.84
709.673	36.72
709.858	36.35
710.042	36.19
710.227	36.4
710.411	36.4
710.596	36.5
710.78	36.33
710.964	36.18
711.149	36.09
711.333	35.99
711.517	36.03
711.702	36.14
711.886	36.04
712.07	35.49
712.254	35.08
712.438	34.92
712.623	34.91
712.807	34.77
712.991	35.24
713.175	34.93
713.359	34.65
713.544	34.75
713.728	34.55
713.912	34.66
714.096	34.49
714.28	34.35
714.464	34.11
714.648	33.87
714.832	33.69
715.016	33.05
715.2	33.05
715.384	33.3
715.568	33.34
715.752	33.15
715.936	33.35
716.12	33.38
716.304	33.46
716.488	33.64
716.671	33.74
716.855	34
717.039	33.99
717.223	33.91
717.407	33.43
717.59	33.28
717.774	33.34
717.958	33.1
718.142	33.54
718.325	33.62
718.509	33.65
718.693	33.24
718.877	33.11
719.06	32.68
719.244	33.11
719.428	33.79
719.611	33.92
719.795	34.05
719.978	34.57
720.162	34.54
720.345	34.61
720.529	34.66
720.713	34.98
720.896	35.01
721.08	35.96
721.263	35.97
721.446	35.87
721.63	35.94
721.813	36.27
721.997	36.23
722.18	36.58
722.364	36.66
722.547	36.78
722.73	36.81
722.914	37.34
723.097	37.09
723.28	37.34
723.464	37.45
723.647	37.29
723.83	36.61
724.013	36.63
724.197	36.64
724.38	36.49
724.563	36.45
724.746	36.51
724.929	36.19
725.112	36.38
725.296	35.76
725.479	35.59
725.662	35.35
725.845	35.49
726.028	35.05
726.211	35.03
726.394	35.06
726.577	35.43
726.76	35.36
726.943	35.37
727.126	34.85
727.309	35.2
727.492	35.18
727.675	35.53
727.858	35.51
728.041	35.52
728.224	34.87
728.407	34.89
728.589	34.6
728.772	34.32
728.955	34.22
729.138	34.32
729.321	33.95
729.503	33.9
729.686	33.49
729.869	33.82
730.052	33.65
730.234	33.85
730.417	34.45
730.6	34.31
730.782	34.48
730.965	34.53
731.148	34.61
731.33	34.73
731.513	34.55
731.695	35
731.878	34.78
732.061	35.26
732.243	35.63
732.426	35.29
732.608	35.59
732.791	35.79
732.973	35.89
733.156	36.3
733.338	36.09
733.52	36.46
733.703	36.25
733.885	36.23
734.068	36.14
734.25	36.36
734.432	36.55
734.615	36.63
734.797	36.49
734.979	36.59
735.162	36.35
735.344	37.1
735.526	37.08
735.708	37.51
735.891	37.86
736.073	38.04
736.255	38.4
736.437	38.62
736.619	38.35
736.802	38.67
736.984	39.01
737.166	40.07
737.348	39.6
737.53	39.64
737.712	39.43
737.894	38.83
738.076	38.57
738.258	37.9
738.44	37.53
738.622	37.23
738.804	37.06
738.986	37.32
739.168	36.12
739.35	36.47
739.532	36.64
739.714	36.71
739.896	37.28
740.078	37.19
740.259	37.13
740.441	37.06
740.623	37.56
740.805	38.22
740.987	37.85
741.168	38.5
741.35	38.62
741.532	38.22
741.714	38.76
741.895	38.6
742.077	38.98
742.259	39.32
742.44	39.62
742.622	39.27
742.804	39.36
742.985	40.07
743.167	39.78
743.348	40.03
743.53	40.81
743.711	40.35
743.893	40.89
744.075	41.16
744.256	41.31
744.438	41.49
744.619	42.34
744.8	41.81
744.982	41.43
745.163	42.16
745.345	41.89
745.526	41.84
745.707	41.92
745.889	41.82
746.07	42.22
746.252	42.32
746.433	41.95
746.614	41.61
746.795	41.44
746.977	41.62
747.158	41.25
747.339	41.29
747.52	41.32
747.702	41.27
747.883	40.8
748.064	40.23
748.245	40.26
748.426	40.34
748.607	41.22
748.788	41.39
748.97	41.23
749.151	40.84
749.332	41.13
749.513	41.44
749.694	41.69
749.875	42.43
750.056	42.44
750.237	42.96
750.418	43.27
750.599	42.05
750.78	42.04
750.96	42
751.141	42.49
751.322	42.79
751.503	42.16
751.684	42.05
751.865	41.83
752.046	41.67
752.226	40.68
752.407	40.72
752.588	40.84
752.769	41
752.949	40.73
753.13	40.91
753.311	39.64
753.492	39.76
753.672	39.46
753.853	39.76
754.034	40.46
754.214	40.57
754.395	39.98
754.575	40.29
754.756	40.67
754.937	41.04
755.117	41.2
755.298	42.4
755.478	43.04
755.659	43.58
755.839	43.35
756.02	42.66
756.2	42.58
756.381	43.01
756.561	42.93
756.741	42.18
756.922	41.95
757.102	41.53
757.283	41.57
757.463	41.08
757.643	41.03
757.823	40.74
758.004	40.7
758.184	40.79
758.364	40.78
758.545	40.4
758.725	39.75
758.905	39.61
759.085	39.64
759.265	38.9
759.446	38.61
759.626	37.54
759.806	38.22
759.986	38.23
760.166	38.33
760.346	37.79
760.526	38.06
760.706	38.78
760.886	38.52
761.066	38.43
761.246	38.55
761.426	38.25
761.606	38.46
761.786	37.38
761.966	36.42
762.146	35.42
762.326	35.49
762.506	35.44
762.686	34.83
762.866	34.44
763.046	33.75
763.225	33.68
763.405	33.56
763.585	33.52
763.765	33.46
763.945	33.72
764.124	34.1
764.304	33.86
764.484	33.81
764.664	34.28
764.843	34.74
765.023	35.13
765.203	35.1
765.382	35.43
765.562	35.9
765.741	36.16
765.921	36.86
766.101	37.65
766.28	38.5
766.46	38.8
766.639	39.25
766.819	39.49
766.998	39.76
767.178	40.1
767.357	40.44
767.537	40.49
767.716	41.61
767.896	41.56
768.075	41.84
768.254	42.3
768.434	42.36
768.613	42.75
768.792	43.29
768.972	44.11
769.151	44.01
769.33	44.45
769.51	44.45
769.689	44.17
769.868	44.28
770.047	44.26
770.226	43.77
770.406	44.15
770.585	44.53
770.764	44.54
770.943	43.98
771.122	45.24
771.301	44.89
771.48	45.44
771.66	45.48
771.839	46.17
772.018	46.17
772.197	46.32
772.376	46.64
772.555	46.3
772.734	46.11
772.913	46.84
773.092	46.03
773.271	46.5
773.449	46.76
773.628	47.08
773.807	47.39
773.986	47.49
774.165	47.83
774.344	47.9
774.523	47.89
774.701	48.08
774.88	48.69
775.059	49.63
775.238	49.45
775.417	48.4
775.595	47.66
775.774	47.51
775.953	47.96
776.131	48.1
776.31	47.67
776.489	48.15
776.667	48.65
776.846	48.4
777.025	47.16
777.203	47.19
777.382	47.6
777.56	47.84
777.739	47.09
777.917	46.38
778.096	45.9
778.274	45.32
778.453	44.56
778.631	44.62
778.81	43.31
778.988	43.74
779.166	43.72
779.345	44.61
779.523	44.83
779.702	46.36
779.88	46.16
780.058	46.94
780.237	48.54
780.415	48.64
780.593	47.86
780.771	49.18
780.95	49.51
781.128	49.71
781.306	49.61
781.484	48.74
781.662	46.93
781.841	48.14
782.019	47
782.197	46.14
782.375	46.71
782.553	47.43
782.731	47.63
782.909	48.37
783.087	48.56
783.265	48.94
783.443	50.72
783.621	51.65
783.799	50.73
783.977	51.96
784.155	52.71
784.333	52.4
784.511	52.35
784.689	51.51
784.867	51.05
785.045	51.34
785.223	50.66
785.4	49.77
785.578	50.09
785.756	51.14
785.934	50.01
786.112	49.38
786.289	49.6
786.467	48.91
786.645	49.61
786.823	49.64
787	48.54
787.178	47.92
787.356	47.2
787.533	46.83
787.711	45.97
787.889	46.37
788.066	45.79
788.244	45.27
788.421	44.73
788.599	43.13
788.776	42.89
788.954	42.91
789.131	42.55
789.309	43.73
789.486	43.88
789.664	44.04
789.841	44.37
790.019	44.82
790.196	45.13
790.373	45.2
790.551	46.35
790.728	46.13
790.906	47.09
791.083	49.19
791.26	48.62
791.437	48.29
791.615	47.93
791.792	47.99
791.969	48.22
792.146	48.25
792.324	49.39
792.501	49.11
792.678	49.53
792.855	49.14
793.032	48.34
793.209	48.98
793.387	48.31
793.564	48.39
793.741	47.75
793.918	47.72
794.095	46.17
794.272	46.66
794.449	46.95
794.626	46.52
794.803	46.71
794.98	47.2
795.157	46.73
795.334	48.09
795.511	48.61
795.688	48.8
795.864	48.5
796.041	50.31
796.218	50.2
796.395	49.46
796.572	48.51
796.749	48.49
796.925	47.11
797.102	47.02
797.279	46.66
797.456	45.88
797.632	45.79
797.809	45.99
797.986	45.89
798.162	46.01
798.339	46.75
798.516	48.08
798.692	48.51
798.869	49.91
799.046	50.18
799.222	50
799.399	50.2
799.575	50.92
799.752	50.82
799.928	50.14
800.105	49.34
800.281	48.73
800.458	49.24
800.634	48.73
800.811	48.13
800.987	47.93
801.163	47.4
801.34	48.3
801.516	47.93
801.692	48.21
801.869	48.02
802.045	48.19
802.221	47.95
802.398	47.19
802.574	46.92
802.75	47.87
802.926	48.39
803.103	48.26
803.279	47.85
803.455	47.78
803.631	48.02
803.807	49.32
803.983	50.32
804.16	52.4
804.336	51.69
804.512	52.64
804.688	52.66
804.864	52.44
805.04	53.33
805.216	52.9
805.392	53.48
805.568	53.22
805.744	52.11
805.92	51.79
806.096	50.5
806.272	51.6
806.448	51.38
806.623	50.84
806.799	50.4
806.975	50.69
807.151	51.5
807.327	52.22
807.503	53.11
807.678	54.74
807.854	52.94
808.03	53.38
808.206	53.72
808.381	53.72
808.557	52.97
808.733	53.36
808.908	54.59
809.084	53.31
809.26	52.55
809.435	52.78
809.611	52.23
809.787	53.3
809.962	53.64
810.138	54.19
810.313	54.3
810.489	55.01
810.664	55.53
810.84	54.25
811.015	55.24
811.191	55.33
811.366	55.11
811.542	55.07
811.717	56.27
811.892	55.66
812.068	55.61
812.243	55.33
812.419	55.76
812.594	54.37
812.769	55.26
812.944	55.79
813.12	54.34
813.295	53.46
813.47	53.83
813.645	53.11
813.821	53.35
813.996	52.4
814.171	53.44
814.346	52.37
814.521	53.61
814.697	54.26
814.872	54.4
815.047	55.62
815.222	57.18
815.397	54.94
815.572	55.18
815.747	54.18
815.922	53.75
816.097	53.09
816.272	53.16
816.447	53.96
816.622	53.67
816.797	53.04
816.972	52.86
817.147	51.76
817.322	52.32
817.496	50.58
817.671	51.74
817.846	52.44
818.021	50.11
818.196	49.56
818.371	47.73
818.545	46.47
818.72	45.66
818.895	46.73
819.069	44.25
819.244	44.35
819.419	43.76
819.594	42.24
819.768	40.02
819.943	40.34
820.117	38.79
820.292	38.58
820.467	37.31
820.641	36.09
820.816	34.3
820.99	33.72
821.165	31.98
821.339	31.65
821.514	30.96
821.688	30.7
821.863	30.02
822.037	29.86
822.212	29.15
822.386	28.71
822.56	28.4
822.735	28.25
822.909	28.27
823.084	28.34
823.258	28.24
823.432	28.39
823.606	28.21
823.781	28.41
823.955	28.3
824.129	29.03
824.303	29.42
824.478	29.75
824.652	30.01
824.826	30.61
825	31.64
825.174	32.14
825.348	32.41
825.523	33.1
825.697	33.71
825.871	34.58
826.045	33.82
826.219	34.35
826.393	34.5
826.567	34.24
826.741	34.24
826.915	33.86
827.089	33.81
827.263	33.8
827.437	33.97
827.611	33.78
827.784	34.1
827.958	34.26
828.132	33.95
828.306	34.44
828.48	35.14
828.654	35.33
828.827	36.08
829.001	36.75
829.175	37.79
829.349	39.13
829.522	40.27
829.696	40.47
829.87	41.24
830.044	42.84
830.217	43.46
830.391	43.89
830.565	44.13
830.738	44.61
830.912	45.18
831.085	44.59
831.259	45.01
831.432	44.27
831.606	45.17
831.779	45.03
831.953	44.18
832.126	42.94
832.3	43.21
832.473	43.11
832.647	41.61
832.82	41.12
832.994	40.28
833.167	39.72
833.34	39.94
833.514	39.43
833.687	39.24
833.86	38.23
834.034	38.86
834.207	38.56
834.38	38.21
834.553	38.76
834.727	38.87
834.9	39.09
835.073	38.95
835.246	39.09
835.419	38.95
835.593	39.87
835.766	41.11
835.939	41.06
836.112	41.18
836.285	42.38
836.458	43.27
836.631	44.25
836.804	46.24
836.977	47.3
837.15	47.95
837.323	50.19
837.496	51.33
837.669	53.22
837.842	54.81
838.015	56.34
838.188	58.01
838.361	59.45
838.533	60.28
838.706	58.73
838.879	57.14
839.052	58.71
839.225	58.36
839.398	58.98
839.57	58
839.743	58.73
839.916	58.64
840.088	56.41
840.261	54.93
840.434	55.25
840.607	56.32
840.779	57.57
840.952	56.1
841.124	56.02
841.297	54.41
841.47	56.68
841.642	55.77
841.815	56.26
841.987	57.42
842.16	59.37
842.332	59.99
842.505	64.02
842.677	66.87
842.85	69.76
843.022	70.54
843.194	74.59
843.367	75.29
843.539	79.85
843.712	79.51
843.884	81.49
844.056	81.31
844.229	79.7
844.401	77.12
844.573	77.69
844.745	78.95
844.918	82.32
845.09	79.93
845.262	79.32
845.434	80.45
845.606	83.52
845.779	86.85
845.951	87.29
846.123	86.51
846.295	89.67
846.467	89.19
846.639	89.85
846.811	87.31
846.983	89.56
847.155	89.17
847.327	87.37
847.499	88.06
847.671	87.4
847.843	87.28
848.015	90.84
848.187	87.22
848.359	85.22
848.531	82.29
848.703	82.56
848.875	85.62
849.047	83.23
849.218	84.13
849.39	83.05
849.562	80.2
849.734	84.7
849.905	81.82
850.077	83.36
850.249	84.76
850.421	86.79
850.592	88.32
850.764	86.52
850.936	87.77
851.107	88.54
851.279	91.08
851.451	93.14
851.622	87.29
851.794	94.58
851.965	97.49
852.137	99.64
852.308	101
852.48	100.36
852.651	96.54
852.823	99.08
852.994	97.43
853.166	98.34
853.337	97.58
853.509	100.96
853.68	97.6
853.851	92.59
854.023	93.03
854.194	92.33
854.365	88.92
854.537	95.54
854.708	90.38
854.879	94.22
855.05	93.13
855.222	93.25
855.393	92.85
855.564	90.95
855.735	93.55
855.906	94.61
856.078	96.02
856.249	96.97
856.42	91.13
856.591	94.72
856.762	91.66
856.933	92.75
857.104	96.48
857.275	96.58
857.446	97.79
857.617	99.16
857.788	97.9
857.959	97.04
858.13	100.11
858.301	101.72
858.472	99.43
858.643	96.39
858.814	94.33
858.985	92.94
859.155	98.07
859.326	100.92
859.497	97.63
859.668	95.04
859.839	97.58
860.009	98.19
860.18	100.09
860.351	104.09
860.522	110.28
860.692	107.3
860.863	104.23
861.034	102.78
861.204	103.39
861.375	102.72
861.546	106.91
861.716	108.2
861.887	104.61
862.057	104.33
862.228	103.48
862.398	99.36
862.569	100.99
862.739	104.98
862.91	106.91
863.08	99.22
863.251	96.37
863.421	93.63
863.592	87.13
863.762	89.72
863.932	88.85
864.103	87.85
864.273	88.84
864.443	88.88
864.614	86.39
864.784	80.5
864.954	85.24
865.125	87.81
865.295	88.91
865.465	93.72
865.635	96.65
865.805	98.52
865.976	99.34
866.146	101.56
866.316	105
866.486	107.79
866.656	111.14
866.826	116.87
866.996	122.25
867.166	122.86
867.336	121.89
867.506	121.69
867.676	120.8
867.846	125.68
868.016	123.34
868.186	118.36
868.356	113.69
868.526	111.23
868.696	106.47
868.866	105.24
869.036	109.07
869.206	115.03
869.376	106.86
869.545	107.4
869.715	104.68
869.885	106.85
870.055	112.09
870.224	112.98
870.394	114.17
870.564	112.97
870.734	112.89
870.903	112.55
871.073	108.18
871.243	108.73
871.412	106.18
871.582	106.81
871.751	105.63
871.921	99.75
872.091	99.7
872.26	98.33
872.43	99.44
872.599	98.76
872.769	99.37
872.938	94.65
873.108	92.94
873.277	94.45
873.446	92.12
873.616	93.19
873.785	95.48
873.955	95.02
874.124	95.8
874.293	93.61
874.463	91.89
874.632	88.19
874.801	91.86
874.971	99.23
875.14	101.29
875.309	98.42
875.478	101.1
875.647	99.46
875.817	104.58
875.986	102.73
876.155	106.7
876.324	104.35
876.493	103.46
876.662	102.04
876.831	99.95
877	97.66
877.17	101.43
877.339	97.85
877.508	99.9
877.677	95.91
877.846	97.93
878.015	93.51
878.184	94.85
878.352	96.11
878.521	93.76
878.69	93.63
878.859	88.8
879.028	85.88
879.197	82.1
879.366	79.21
879.534	75.21
879.703	71.97
879.872	65.64
880.041	61.29
880.21	56.6
880.378	53.29
880.547	49.37
880.716	49.05
880.884	45.64
881.053	42.51
881.222	39.91
881.39	38.03
881.559	35.4
881.727	34.33
881.896	33.59
882.065	33.12
882.233	32.51
882.402	31.51
882.57	31.74
882.739	31.8
882.907	32.11
883.076	32.83
883.244	33.27
883.412	33.89
883.581	34.58
883.749	35.42
883.918	35.66
884.086	36.36
884.254	38.75
884.423	39.12
884.591	39.83
884.759	41.38
884.927	41.79
885.096	42.39
885.264	43.23
885.432	45.24
885.6	47.66
885.769	51.48
885.937	54.72
886.105	56.98
886.273	59.13
886.441	64.32
886.609	67.73
886.777	70.91
886.945	74.65
887.113	80.55
887.281	81.13
887.449	81.32
887.617	83.51
887.785	82.54
887.953	83.33
888.121	81.85
888.289	81.67
888.457	83.12
888.625	85.8
888.793	88.5
888.961	87.65
889.129	95.89
889.296	96.83
889.464	94.29
889.632	99.31
889.8	96.34
889.967	101.11
890.135	105.57
