Data from 2938736__Reflection_01.txt Node
Date: Sun Mar 15 18:15:45 EDT 2015
User: robert
Spectrometer: USB4E03002
Autoset integration time: false
Trigger mode: 4
Integration Time (sec): 1.000000E-1
Scans to average: 10
Electric dark correction enabled: false
Nonlinearity correction enabled: false
Boxcar width: 5
Stray light correction enabled: false
XAxis mode: Wavelengths
Stop averaging: false
Number of Pixels in Spectrum: 3648
>>>>>Begin Spectral Data<<<<<
177.575	240.91
177.794	228.29
178.014	164.05
178.233	200
178.452	209.91
178.672	232.55
178.891	204.59
179.11	229.35
179.33	-510.17
179.549	-566.67
179.768	-8360
179.987	-1109.68
180.207	-1520
180.426	-268.79
180.645	-475
180.864	2381.25
181.084	549.28
181.303	560.47
181.522	270
181.741	162.29
181.96	273.37
182.179	237.36
182.398	228.18
182.618	313.7
182.837	392.31
183.056	512.43
183.275	687.2
183.494	1570.21
183.713	2816.67
183.932	-663.92
184.151	-368.57
184.37	-273.53
184.589	-321.88
184.808	-74.4
185.027	-210.67
185.246	378.13
185.465	368.18
185.684	85.25
185.903	84.27
186.122	112.46
186.341	87.97
186.56	86.42
186.779	70.77
186.998	66.17
187.216	71.13
187.435	78.19
187.654	87.98
187.873	94.46
188.092	102.82
188.311	101.77
188.53	81.15
188.748	96.74
188.967	86.52
189.186	74.88
189.405	128.9
189.623	159.85
189.842	184.24
190.061	144.02
190.28	150.2
190.498	169.02
190.717	167.81
190.936	167.08
191.154	178.07
191.373	274.82
191.592	377.33
191.81	242.86
192.029	197.24
192.248	207.01
192.466	226.96
192.685	172.07
192.904	181.61
193.122	318.23
193.341	253.52
193.559	168.68
193.778	153.86
193.996	154.63
194.215	126.53
194.433	112.16
194.652	82.55
194.87	66.89
195.089	62.23
195.307	88.15
195.526	69.26
195.744	107.69
195.963	142.75
196.181	540
196.399	4214.29
196.618	-2075
196.836	-4900
197.055	-296.59
197.273	-183.33
197.491	-98.62
197.71	-23.28
197.928	-97.26
198.146	-133.79
198.365	-337.29
198.583	157.14
198.801	39.41
199.019	-12.33
199.238	-87.05
199.456	14.41
199.674	11.7
199.892	1.88
200.111	49.53
200.329	67.53
200.547	50.57
200.765	22.09
200.983	120.28
201.202	438.98
201.42	316.18
201.638	-10100
201.856	-296.05
202.074	-4533.33
202.292	526.47
202.51	241.3
202.728	200
202.946	-334.69
203.165	-630.95
203.383	586.05
203.601	-346.81
203.819	-226.32
204.037	-170.79
204.255	-43.92
204.473	-54.89
204.691	-47.8
204.909	-20.53
205.127	10.88
205.345	24.17
205.562	42.21
205.78	59.35
205.998	79.01
206.216	-61.4
206.434	-280.36
206.652	-132.69
206.87	5.36
207.088	-27.21
207.306	104.84
207.523	436.17
207.741	245.35
207.959	83.33
208.177	149.04
208.395	131.9
208.612	70.49
208.83	73.21
209.048	92.43
209.266	71.86
209.483	68.07
209.701	97.39
209.919	60.84
210.136	61.24
210.354	90.72
210.572	90.44
210.79	112.7
211.007	91.75
211.225	76.14
211.442	77.4
211.66	74.69
211.878	74.68
212.095	-14.25
212.313	-19.08
212.53	-13.04
212.748	-34.39
212.966	-49.76
213.183	-51.16
213.401	-14.04
213.618	-25.85
213.836	-32.38
214.053	-39.34
214.271	-68.38
214.488	88.83
214.705	120.24
214.923	76.84
215.14	88.96
215.358	121.15
215.575	76.57
215.793	103.85
216.01	104.38
216.227	107.82
216.445	96.23
216.662	105.98
216.879	70.77
217.097	21.89
217.314	31.59
217.531	31.27
217.749	35.51
217.966	38.85
218.183	7.31
218.4	-0.62
218.618	-37.79
218.835	-61.28
219.052	-48.16
219.269	-56.88
219.487	-32.88
219.704	-34.57
219.921	-46.8
220.138	-24.42
220.355	-7.69
220.572	-12.72
220.79	2.33
221.007	25.14
221.224	22
221.441	31.23
221.658	37.12
221.875	42.25
222.092	46.71
222.309	42.24
222.526	41.58
222.743	35.38
222.96	38.26
223.177	34.98
223.394	37.7
223.611	43.58
223.828	38.83
224.045	38.98
224.262	34.35
224.479	28.38
224.696	30.94
224.913	20.79
225.13	23.25
225.347	25.81
225.564	23.55
225.781	20
225.997	17.2
226.214	12.5
226.431	10.43
226.648	9.05
226.865	6.76
227.082	5.38
227.298	6.5
227.515	4.94
227.732	3.9
227.949	5.01
228.165	4.86
228.382	3.59
228.599	4.81
228.816	5.18
229.032	5.27
229.249	5.83
229.466	6.49
229.682	6.26
229.899	5.43
230.116	3.96
230.332	2.35
230.549	2.24
230.765	3.02
230.982	1.87
231.199	0.3
231.415	0.09
231.632	-0.79
231.848	-2.45
232.065	-4.03
232.281	-2.38
232.498	-0.08
232.714	3.07
232.931	2.71
233.147	3.32
233.364	4.31
233.58	5.58
233.797	4
234.013	4.27
234.23	6.76
234.446	7.36
234.662	7.83
234.879	7.02
235.095	5.65
235.312	3.63
235.528	2.7
235.744	2.52
235.961	3.16
236.177	5.85
236.393	6.54
236.61	5.62
236.826	5.39
237.042	5.56
237.258	8.16
237.475	8.33
237.691	9.79
237.907	9.48
238.123	6.57
238.339	2.86
238.556	2.06
238.772	2.48
238.988	2.32
239.204	4.65
239.42	6.1
239.636	3.73
239.853	2.78
240.069	2.19
240.285	2.51
240.501	3.31
240.717	5.61
240.933	4.36
241.149	3.99
241.365	3.56
241.581	2.85
241.797	3.2
242.013	3.18
242.229	3.74
242.445	3.92
242.661	3.53
242.877	3.84
243.093	3.33
243.309	4.07
243.525	4.02
243.741	4.01
243.957	4.43
244.173	2.67
244.388	3.09
244.604	3.2
244.82	3.76
245.036	4.03
245.252	4.75
245.468	5.16
245.683	5.33
245.899	4.83
246.115	4.64
246.331	4.61
246.547	5.1
246.762	4.9
246.978	4.74
247.194	4.42
247.409	4.53
247.625	4.44
247.841	4.15
248.057	3.99
248.272	4.05
248.488	4.08
248.703	4.05
248.919	4.33
249.135	4.47
249.35	4.31
249.566	5.02
249.782	4.98
249.997	4.28
250.213	4.66
250.428	4.69
250.644	4.34
250.859	4.7
251.075	4.58
251.29	3.94
251.506	4.24
251.721	4.56
251.937	3.84
252.152	3.87
252.368	3.64
252.583	3.64
252.798	3.53
253.014	4
253.229	4.25
253.445	4.34
253.66	4.39
253.875	4.13
254.091	3.48
254.306	4.06
254.521	4.23
254.737	5.46
254.952	4.9
255.167	4.58
255.383	5.52
255.598	5.66
255.813	5.39
256.028	4.7
256.244	4.26
256.459	5.22
256.674	5.28
256.889	5.56
257.104	5.26
257.32	5.44
257.535	5.11
257.75	4.83
257.965	4.72
258.18	4.19
258.395	4.4
258.61	4.45
258.826	3.83
259.041	3.61
259.256	3.67
259.471	3.55
259.686	3.11
259.901	3.36
260.116	3.31
260.331	3.18
260.546	3.51
260.761	3.33
260.976	3.19
261.191	3.56
261.406	3.51
261.621	3.09
261.836	2.59
262.05	2.63
262.265	2.3
262.48	2.23
262.695	1.77
262.91	0.87
263.125	0.54
263.34	0.94
263.555	1.54
263.769	0.9
263.984	0.82
264.199	1.46
264.414	1.59
264.629	1.42
264.843	1.63
265.058	2.23
265.273	2.73
265.488	3.31
265.702	2.43
265.917	0.83
266.132	1.77
266.346	1.81
266.561	2.29
266.776	3.12
266.99	3.57
267.205	3.19
267.42	2.95
267.634	2.53
267.849	2.21
268.063	3
268.278	3.78
268.492	3.02
268.707	3.59
268.922	3.34
269.136	2.89
269.351	2.58
269.565	2.8
269.78	3.05
269.994	3.16
270.209	2.96
270.423	2.73
270.637	2.49
270.852	3.16
271.066	3.22
271.281	3.11
271.495	3.17
271.709	2.99
271.924	3.12
272.138	3.01
272.353	3.3
272.567	3.53
272.781	3.45
272.996	3.25
273.21	3.1
273.424	2.65
273.638	2.83
273.853	3.08
274.067	3.06
274.281	2.59
274.495	2.38
274.71	2.79
274.924	3.06
275.138	3.11
275.352	3.65
275.566	3.08
275.781	2.97
275.995	2.57
276.209	2.07
276.423	2.18
276.637	2.41
276.851	2.64
277.065	2.39
277.279	1.87
277.493	1.91
277.707	1.35
277.921	1.71
278.135	1.9
278.349	1.94
278.563	2.35
278.777	2.32
278.991	2.09
279.205	2.23
279.419	1.64
279.633	2.16
279.847	1.39
280.061	1.47
280.275	1.6
280.489	1.81
280.703	1.88
280.917	1.83
281.131	1.96
281.344	2.59
281.558	2.5
281.772	2.94
281.986	2.81
282.2	3.01
282.414	3.35
282.627	3.6
282.841	3.34
283.055	3.24
283.269	3.27
283.482	3.6
283.696	3.03
283.91	2.95
284.123	2.48
284.337	2.3
284.551	2.73
284.764	2.5
284.978	2.54
285.192	2.84
285.405	2.97
285.619	2.45
285.833	2.35
286.046	2.37
286.26	2.5
286.473	2.83
286.687	2.97
286.9	3
287.114	3.01
287.327	2.97
287.541	2.7
287.754	2.45
287.968	3.06
288.181	3.06
288.395	3.18
288.608	2.63
288.822	2.35
289.035	2.53
289.248	2.15
289.462	2.2
289.675	2.23
289.889	2.46
290.102	2.66
290.315	2.46
290.529	2.32
290.742	2.66
290.955	3.33
291.169	3.66
291.382	3.56
291.595	3.69
291.808	3.6
292.022	3.28
292.235	2.98
292.448	3.52
292.661	3.46
292.875	3.69
293.088	3.4
293.301	3.27
293.514	3.09
293.727	2.95
293.94	3.25
294.153	3.18
294.367	3.03
294.58	3.12
294.793	2.67
295.006	2.72
295.219	2.48
295.432	2.87
295.645	2.89
295.858	2.91
296.071	2.81
296.284	2.87
296.497	3.07
296.71	3.23
296.923	3.5
297.136	3.36
297.349	3.54
297.562	3.64
297.775	3.45
297.988	3.58
298.201	3.45
298.414	3.86
298.626	3.68
298.839	3.63
299.052	3.86
299.265	3.63
299.478	3.83
299.691	3.51
299.903	3.2
300.116	2.91
300.329	3.04
300.542	3.14
300.755	2.88
300.967	3.2
301.18	3.52
301.393	3.22
301.605	3.23
301.818	3.08
302.031	3.1
302.243	3.57
302.456	4.07
302.669	3.91
302.881	4.04
303.094	4.09
303.307	3.59
303.519	3.47
303.732	3.92
303.944	3.92
304.157	4.12
304.37	4.28
304.582	4.15
304.795	3.73
305.007	3.43
305.22	3.12
305.432	2.9
305.645	3.09
305.857	3.19
306.069	3.03
306.282	2.88
306.494	3.15
306.707	3.24
306.919	3.24
307.132	3.13
307.344	3.15
307.556	3.62
307.769	3.97
307.981	3.93
308.193	3.53
308.406	3.51
308.618	3.83
308.83	3.76
309.043	4.02
309.255	4.08
309.467	4.08
309.679	4.12
309.892	3.98
310.104	3.77
310.316	4.04
310.528	4.27
310.74	4.03
310.953	3.82
311.165	3.85
311.377	3.59
311.589	3.56
311.801	3.98
312.013	4.06
312.225	4.33
312.437	4.31
312.649	4.15
312.862	4.32
313.074	4.55
313.286	4.79
313.498	4.76
313.71	5.1
313.922	5.51
314.134	4.94
314.346	4.78
314.558	4.67
314.77	5.23
314.982	5.13
315.193	4.83
315.405	5.1
315.617	5.1
315.829	4.63
316.041	4.19
316.253	4.16
316.465	4.83
316.677	5.23
316.888	5.06
317.1	4.74
317.312	4.86
317.524	4.75
317.736	4.69
317.947	4.71
318.159	5.45
318.371	6
318.583	5.64
318.794	5.55
319.006	5.54
319.218	5.97
319.43	5.94
319.641	6.26
319.853	6.39
320.064	6.18
320.276	6.31
320.488	6.28
320.699	5.86
320.911	6.34
321.123	6.19
321.334	6.07
321.546	5.71
321.757	5.96
321.969	5.82
322.18	6.12
322.392	6.33
322.603	6.48
322.815	6.38
323.026	6.38
323.238	6.1
323.449	6.03
323.661	6.19
323.872	6.09
324.083	6.33
324.295	6.12
324.506	6.11
324.718	6.17
324.929	6.18
325.14	6.21
325.352	6.23
325.563	6.71
325.774	6.76
325.986	7.13
326.197	7.5
326.408	7.16
326.62	7.46
326.831	7.53
327.042	7.96
327.253	8.16
327.464	8.31
327.676	8.69
327.887	8.55
328.098	8.56
328.309	8.28
328.52	7.99
328.732	7.97
328.943	7.98
329.154	8.36
329.365	7.86
329.576	7.42
329.787	7.63
329.998	8.02
330.209	7.86
330.42	8.05
330.631	8.05
330.842	8.47
331.053	8.69
331.264	9.13
331.475	8.79
331.686	9.24
331.897	9.42
332.108	9.36
332.319	8.84
332.53	8.64
332.741	8.75
332.952	9.45
333.163	9.68
333.374	9.7
333.585	9.38
333.795	9.24
334.006	9.14
334.217	9.4
334.428	9.53
334.639	9.61
334.849	9.59
335.06	9.7
335.271	8.93
335.482	8.64
335.692	8.98
335.903	9.07
336.114	9.31
336.325	9.36
336.535	9.17
336.746	8.95
336.957	8.92
337.167	9.36
337.378	9.42
337.589	9.56
337.799	9.48
338.01	9.16
338.22	9.57
338.431	9.42
338.642	9.21
338.852	9.5
339.063	9.68
339.273	9.62
339.484	9.29
339.694	9.23
339.905	9.07
340.115	9.09
340.326	9.21
340.536	8.81
340.746	8.86
340.957	8.74
341.167	8.35
341.378	7.95
341.588	7.85
341.799	8.08
342.009	7.98
342.219	8.17
342.43	8.03
342.64	7.67
342.85	7.85
343.061	7.92
343.271	8.05
343.481	8.41
343.691	8.78
343.902	9.13
344.112	9.08
344.322	8.83
344.532	8.53
344.743	8.63
344.953	8.66
345.163	8.64
345.373	8.51
345.583	8.59
345.793	8.22
346.004	7.92
346.214	7.74
346.424	7.7
346.634	7.97
346.844	8.07
347.054	7.95
347.264	8.13
347.474	7.79
347.684	7.99
347.894	7.88
348.104	8.09
348.314	8.07
348.524	8.25
348.734	8.01
348.944	7.72
349.154	7.99
349.364	7.89
349.574	7.73
349.784	7.78
349.994	7.4
350.204	7.16
350.413	6.98
350.623	7.17
350.833	6.97
351.043	7
351.253	7.21
351.463	7.14
351.672	7.59
351.882	7.99
352.092	8.09
352.302	8.32
352.511	8.36
352.721	8.36
352.931	8.08
353.141	8.03
353.35	8.1
353.56	7.92
353.77	7.77
353.979	7.65
354.189	7.45
354.399	7.07
354.608	7.28
354.818	7.56
355.027	7.57
355.237	7.71
355.447	7.86
355.656	7.87
355.866	7.93
356.075	8.46
356.285	8.28
356.494	7.94
356.704	8.16
356.913	7.87
357.123	7.84
357.332	7.89
357.542	8.02
357.751	8.19
357.96	8.22
358.17	8.26
358.379	7.9
358.589	8.13
358.798	8.24
359.007	8.35
359.217	8.23
359.426	7.98
359.635	8.02
359.845	7.81
360.054	7.53
360.263	7.56
360.472	7.58
360.682	7.7
360.891	7.42
361.1	7.46
361.309	7.37
361.519	7.6
361.728	7.53
361.937	7.56
362.146	7.54
362.355	7.7
362.564	7.66
362.774	7.64
362.983	7.54
363.192	7.61
363.401	7.85
363.61	7.87
363.819	8.03
364.028	8.28
364.237	8.21
364.446	8.25
364.655	7.94
364.864	8.09
365.073	8.17
365.282	8.04
365.491	8.19
365.7	8.08
365.909	8.09
366.118	7.92
366.327	7.81
366.536	7.79
366.745	7.8
366.954	7.9
367.162	7.5
367.371	7.38
367.58	7.52
367.789	7.46
367.998	7.59
368.207	7.74
368.415	7.48
368.624	7.6
368.833	7.76
369.042	7.78
369.25	7.72
369.459	7.93
369.668	7.99
369.877	7.69
370.085	7.55
370.294	7.28
370.503	7.02
370.711	7.16
370.92	7.18
371.129	7.16
371.337	6.93
371.546	6.93
371.754	6.88
371.963	7
372.171	6.87
372.38	6.9
372.589	6.89
372.797	7.13
373.006	7.25
373.214	7.17
373.423	6.91
373.631	7.08
373.84	7.16
374.048	7.15
374.256	6.86
374.465	7.25
374.673	7.31
374.882	7.24
375.09	7.09
375.298	7.12
375.507	6.86
375.715	6.92
375.923	7.02
376.132	7.07
376.34	6.9
376.548	6.91
376.757	6.75
376.965	6.76
377.173	6.78
377.381	6.92
377.59	6.71
377.798	6.92
378.006	6.98
378.214	6.89
378.423	6.55
378.631	6.53
378.839	6.49
379.047	6.62
379.255	6.58
379.463	6.53
379.671	6.56
379.879	6.51
380.088	6.53
380.296	6.63
380.504	6.65
380.712	6.83
380.92	6.98
381.128	6.96
381.336	6.64
381.544	6.24
381.752	6.14
381.96	5.78
382.168	5.82
382.376	5.64
382.584	5.38
382.791	5.47
382.999	5.66
383.207	5.62
383.415	5.54
383.623	5.67
383.831	6.08
384.039	6.32
384.247	6.58
384.454	6.61
384.662	6.57
384.87	6.41
385.078	6.37
385.285	6.14
385.493	6.42
385.701	6.43
385.909	6.31
386.116	6.27
386.324	6.32
386.532	6.2
386.739	6.14
386.947	6.25
387.155	6.32
387.362	6.16
387.57	6.12
387.778	6.19
387.985	6.13
388.193	6.2
388.4	6.12
388.608	5.87
388.816	5.96
389.023	5.76
389.231	5.52
389.438	5.44
389.646	5.55
389.853	5.56
390.061	5.12
390.268	5.17
390.475	5.23
390.683	5.39
390.89	5.52
391.098	5.27
391.305	5.27
391.512	5.47
391.72	5.53
391.927	5.44
392.135	5.4
392.342	5.39
392.549	5.37
392.756	5.27
392.964	4.94
393.171	4.88
393.378	5.02
393.586	4.95
393.793	4.77
394	4.79
394.207	4.73
394.414	4.76
394.622	4.74
394.829	4.73
395.036	4.67
395.243	4.61
395.45	4.63
395.657	4.46
395.864	4.71
396.072	4.99
396.279	5.04
396.486	5.14
396.693	5.22
396.9	5.38
397.107	5.06
397.314	5.12
397.521	5.28
397.728	5.24
397.935	5.2
398.142	5.21
398.349	4.85
398.556	4.77
398.763	4.72
398.97	4.83
399.177	4.81
399.383	5.07
399.59	4.98
399.797	4.95
400.004	4.98
400.211	5.01
400.418	4.75
400.625	4.92
400.831	4.93
401.038	4.87
401.245	4.7
401.452	4.52
401.658	4.58
401.865	4.7
402.072	4.73
402.279	4.64
402.485	4.59
402.692	4.78
402.899	4.57
403.105	4.55
403.312	4.63
403.519	4.55
403.725	4.49
403.932	4.46
404.138	4.38
404.345	4.3
404.552	4.37
404.758	4.43
404.965	4.28
405.171	4.29
405.378	4.25
405.584	4.21
405.791	4.31
405.997	4.48
406.204	4.41
406.41	4.48
406.617	4.67
406.823	4.63
407.029	4.6
407.236	4.59
407.442	4.73
407.649	4.71
407.855	4.76
408.061	4.72
408.268	4.5
408.474	4.5
408.68	4.47
408.887	4.52
409.093	4.45
409.299	4.37
409.505	4.35
409.712	4.38
409.918	4.54
410.124	4.41
410.33	4.37
410.537	4.62
410.743	4.7
410.949	4.8
411.155	4.63
411.361	4.54
411.567	4.65
411.773	4.66
411.98	4.64
412.186	4.54
412.392	4.65
412.598	4.62
412.804	4.71
413.01	4.62
413.216	4.45
413.422	4.42
413.628	4.39
413.834	4.24
414.04	4.28
414.246	4.35
414.452	4.29
414.658	4.26
414.864	4.42
415.07	4.15
415.275	4.23
415.481	4.26
415.687	4.18
415.893	4.2
416.099	4.25
416.305	4.23
416.511	4.12
416.716	4.14
416.922	4.06
417.128	3.94
417.334	3.91
417.539	3.88
417.745	3.86
417.951	3.94
418.157	3.87
418.362	3.91
418.568	3.88
418.774	3.93
418.979	3.92
419.185	3.9
419.391	3.87
419.596	3.93
419.802	3.85
420.008	3.77
420.213	3.81
420.419	3.86
420.624	3.78
420.83	3.77
421.035	3.69
421.241	3.67
421.446	3.62
421.652	3.56
421.857	3.52
422.063	3.5
422.268	3.54
422.474	3.5
422.679	3.56
422.885	3.62
423.09	3.62
423.295	3.62
423.501	3.54
423.706	3.58
423.911	3.59
424.117	3.63
424.322	3.68
424.527	3.74
424.733	3.75
424.938	3.66
425.143	3.65
425.349	3.59
425.554	3.56
425.759	3.74
425.964	3.77
426.169	3.81
426.375	3.78
426.58	3.75
426.785	3.65
426.99	3.57
427.195	3.61
427.4	3.66
427.605	3.76
427.811	3.88
428.016	3.72
428.221	3.69
428.426	3.71
428.631	3.69
428.836	3.84
429.041	3.93
429.246	4.06
429.451	4.1
429.656	3.92
429.861	3.84
430.066	3.89
430.271	3.92
430.476	3.85
430.681	3.86
430.886	3.93
431.09	3.87
431.295	3.84
431.5	3.79
431.705	3.74
431.91	3.84
432.115	3.84
432.32	3.67
432.524	3.66
432.729	3.73
432.934	3.8
433.139	3.77
433.343	3.77
433.548	3.79
433.753	3.71
433.958	3.73
434.162	3.82
434.367	3.84
434.572	3.92
434.776	3.96
434.981	3.94
435.186	3.81
435.39	3.71
435.595	3.7
435.799	3.72
436.004	3.71
436.209	3.68
436.413	3.66
436.618	3.66
436.822	3.69
437.027	3.67
437.231	3.68
437.436	3.65
437.64	3.79
437.845	3.73
438.049	3.62
438.253	3.65
438.458	3.61
438.662	3.48
438.867	3.57
439.071	3.52
439.275	3.46
439.48	3.47
439.684	3.59
439.888	3.47
440.093	3.42
440.297	3.46
440.501	3.55
440.706	3.59
440.91	3.6
441.114	3.62
441.318	3.63
441.523	3.74
441.727	3.64
441.931	3.57
442.135	3.69
442.339	3.83
442.543	3.83
442.748	3.77
442.952	3.73
443.156	3.69
443.36	3.56
443.564	3.54
443.768	3.49
443.972	3.5
444.176	3.52
444.38	3.42
444.584	3.32
444.788	3.27
444.992	3.3
445.196	3.33
445.4	3.4
445.604	3.46
445.808	3.38
446.012	3.32
446.216	3.34
446.42	3.29
446.624	3.35
446.828	3.43
447.032	3.48
447.235	3.42
447.439	3.35
447.643	3.32
447.847	3.33
448.051	3.43
448.254	3.43
448.458	3.5
448.662	3.47
448.866	3.43
449.069	3.33
449.273	3.29
449.477	3.36
449.681	3.44
449.884	3.54
450.088	3.5
450.292	3.45
450.495	3.44
450.699	3.44
450.902	3.47
451.106	3.41
451.31	3.43
451.513	3.53
451.717	3.38
451.92	3.47
452.124	3.4
452.327	3.4
452.531	3.5
452.734	3.54
452.938	3.53
453.141	3.51
453.345	3.6
453.548	3.71
453.752	3.69
453.955	3.88
454.158	3.76
454.362	3.81
454.565	3.82
454.769	3.82
454.972	3.81
455.175	3.75
455.379	3.8
455.582	3.84
455.785	3.72
455.988	3.62
456.192	3.42
456.395	3.48
456.598	3.46
456.801	3.29
457.005	3.3
457.208	3.24
457.411	3.24
457.614	3.25
457.817	3.23
458.021	3.27
458.224	3.29
458.427	3.31
458.63	3.28
458.833	3.18
459.036	3.27
459.239	3.24
459.442	3.25
459.645	3.29
459.848	3.31
460.051	3.27
460.254	3.27
460.457	3.25
460.66	3.31
460.863	3.29
461.066	3.36
461.269	3.35
461.472	3.37
461.675	3.38
461.878	3.4
462.081	3.43
462.284	3.39
462.486	3.42
462.689	3.43
462.892	3.39
463.095	3.42
463.298	3.45
463.5	3.5
463.703	3.37
463.906	3.41
464.109	3.4
464.311	3.46
464.514	3.59
464.717	3.51
464.92	3.56
465.122	3.67
465.325	3.7
465.528	3.6
465.73	3.59
465.933	3.58
466.135	3.66
466.338	3.66
466.541	3.61
466.743	3.58
466.946	3.65
467.148	3.65
467.351	3.59
467.553	3.57
467.756	3.69
467.958	3.75
468.161	3.91
468.363	3.86
468.566	3.86
468.768	3.87
468.971	3.88
469.173	3.92
469.375	3.83
469.578	3.78
469.78	3.74
469.983	3.61
470.185	3.64
470.387	3.52
470.59	3.51
470.792	3.56
470.994	3.46
471.196	3.52
471.399	3.41
471.601	3.43
471.803	3.54
472.005	3.65
472.208	3.75
472.41	3.76
472.612	3.77
472.814	3.77
473.016	3.72
473.218	3.8
473.421	3.68
473.623	3.65
473.825	3.74
474.027	3.72
474.229	3.69
474.431	3.58
474.633	3.46
474.835	3.54
475.037	3.6
475.239	3.55
475.441	3.47
475.643	3.51
475.845	3.6
476.047	3.52
476.249	3.54
476.451	3.44
476.653	3.47
476.855	3.48
477.057	3.41
477.258	3.45
477.46	3.41
477.662	3.45
477.864	3.44
478.066	3.36
478.268	3.37
478.469	3.45
478.671	3.42
478.873	3.48
479.075	3.51
479.276	3.53
479.478	3.46
479.68	3.49
479.882	3.42
480.083	3.42
480.285	3.49
480.487	3.46
480.688	3.32
480.89	3.35
481.091	3.33
481.293	3.37
481.495	3.37
481.696	3.32
481.898	3.38
482.099	3.39
482.301	3.42
482.502	3.42
482.704	3.42
482.905	3.4
483.107	3.37
483.308	3.37
483.51	3.35
483.711	3.34
483.913	3.33
484.114	3.32
484.315	3.34
484.517	3.33
484.718	3.32
484.92	3.31
485.121	3.35
485.322	3.4
485.524	3.39
485.725	3.39
485.926	3.37
486.127	3.41
486.329	3.39
486.53	3.38
486.731	3.38
486.932	3.39
487.134	3.41
487.335	3.37
487.536	3.36
487.737	3.38
487.938	3.38
488.139	3.39
488.341	3.38
488.542	3.38
488.743	3.41
488.944	3.39
489.145	3.41
489.346	3.42
489.547	3.42
489.748	3.43
489.949	3.41
490.15	3.42
490.351	3.43
490.552	3.4
490.753	3.4
490.954	3.35
491.155	3.35
491.356	3.32
491.557	3.34
491.758	3.33
491.959	3.34
492.159	3.37
492.36	3.37
492.561	3.38
492.762	3.42
492.963	3.43
493.164	3.39
493.364	3.37
493.565	3.4
493.766	3.41
493.967	3.42
494.167	3.41
494.368	3.44
494.569	3.48
494.769	3.47
494.97	3.47
495.171	3.49
495.371	3.51
495.572	3.61
495.773	3.55
495.973	3.53
496.174	3.6
496.375	3.58
496.575	3.53
496.776	3.52
496.976	3.57
497.177	3.5
497.377	3.51
497.578	3.59
497.778	3.49
497.979	3.51
498.179	3.53
498.38	3.5
498.58	3.42
498.78	3.38
498.981	3.35
499.181	3.33
499.382	3.39
499.582	3.43
499.782	3.43
499.983	3.46
500.183	3.42
500.383	3.38
500.584	3.47
500.784	3.56
500.984	3.53
501.184	3.53
501.385	3.57
501.585	3.61
501.785	3.6
501.985	3.64
502.185	3.63
502.386	3.73
502.586	3.72
502.786	3.63
502.986	3.71
503.186	3.8
503.386	3.87
503.586	3.86
503.786	3.91
503.987	3.91
504.187	3.92
504.387	3.99
504.587	3.93
504.787	4.01
504.987	4
505.187	3.87
505.387	3.88
505.587	3.95
505.786	3.99
505.986	3.91
506.186	3.97
506.386	4.04
506.586	4.11
506.786	4.19
506.986	4.16
507.186	4.18
507.386	4.28
507.585	4.34
507.785	4.2
507.985	4.14
508.185	4.19
508.384	4.24
508.584	4.23
508.784	4.16
508.984	4.18
509.183	4.22
509.383	4.23
509.583	4.23
509.782	4.21
509.982	4.27
510.182	4.31
510.381	4.29
510.581	4.24
510.781	4.27
510.98	4.31
511.18	4.3
511.379	4.31
511.579	4.38
511.778	4.48
511.978	4.54
512.177	4.54
512.377	4.58
512.576	4.58
512.776	4.48
512.975	4.44
513.175	4.48
513.374	4.51
513.573	4.54
513.773	4.55
513.972	4.44
514.172	4.35
514.371	4.46
514.57	4.47
514.77	4.59
514.969	4.72
515.168	4.84
515.367	4.89
515.567	4.84
515.766	4.84
515.965	4.88
516.164	4.99
516.364	5.12
516.563	5.21
516.762	5.18
516.961	5.23
517.16	5.25
517.359	5.28
517.559	5.32
517.758	5.41
517.957	5.41
518.156	5.42
518.355	5.47
518.554	5.51
518.753	5.5
518.952	5.61
519.151	5.55
519.35	5.6
519.549	5.62
519.748	5.64
519.947	5.69
520.146	5.79
520.345	5.82
520.544	5.77
520.743	5.9
520.942	5.9
521.141	5.83
521.339	6.07
521.538	6.1
521.737	6.19
521.936	6.23
522.135	6.21
522.333	6.3
522.532	6.38
522.731	6.51
522.93	6.5
523.129	6.64
523.327	6.79
523.526	6.74
523.725	6.78
523.923	6.78
524.122	6.84
524.321	7
524.519	7.03
524.718	7.02
524.917	7.03
525.115	7
525.314	6.98
525.512	7.03
525.711	7.06
525.909	7.18
526.108	7.24
526.306	7.28
526.505	7.3
526.703	7.34
526.902	7.4
527.1	7.49
527.299	7.58
527.497	7.61
527.696	7.62
527.894	7.69
528.092	7.68
528.291	7.73
528.489	7.79
528.688	7.76
528.886	7.81
529.084	7.88
529.283	7.9
529.481	7.95
529.679	8.04
529.877	8.1
530.076	8.2
530.274	8.29
530.472	8.34
530.67	8.38
530.869	8.53
531.067	8.6
531.265	8.66
531.463	8.76
531.661	8.79
531.859	8.81
532.057	8.9
532.255	8.9
532.454	8.96
532.652	9
532.85	9.03
533.048	9.11
533.246	9.15
533.444	9.2
533.642	9.22
533.84	9.32
534.038	9.38
534.236	9.41
534.434	9.45
534.632	9.48
534.83	9.51
535.027	9.6
535.225	9.63
535.423	9.75
535.621	9.77
535.819	9.92
536.017	9.97
536.215	10.03
536.412	10.12
536.61	10.23
536.808	10.32
537.006	10.47
537.203	10.6
537.401	10.72
537.599	10.77
537.797	10.93
537.994	10.91
538.192	11.03
538.39	11.11
538.587	11.18
538.785	11.27
538.983	11.37
539.18	11.46
539.378	11.47
539.575	11.55
539.773	11.63
539.97	11.68
540.168	11.78
540.366	11.78
540.563	11.83
540.761	11.91
540.958	11.93
541.155	11.98
541.353	11.99
541.55	12.08
541.748	12.13
541.945	12.18
542.143	12.19
542.34	12.27
542.537	12.38
542.735	12.48
542.932	12.53
543.129	12.58
543.327	12.75
543.524	12.94
543.721	13.13
543.919	13.29
544.116	13.52
544.313	13.79
544.51	14.01
544.708	14.2
544.905	14.46
545.102	14.72
545.299	14.97
545.496	15.11
545.693	15.22
545.891	15.23
546.088	15.22
546.285	15.2
546.482	15.17
546.679	15.18
546.876	15.14
547.073	15.05
547.27	14.99
547.467	14.93
547.664	14.82
547.861	14.77
548.058	14.77
548.255	14.84
548.452	14.87
548.649	14.91
548.846	14.86
549.043	14.87
549.24	14.87
549.437	14.91
549.633	14.93
549.83	14.91
550.027	14.93
550.224	14.84
550.421	14.78
550.618	14.85
550.814	14.89
551.011	14.89
551.208	14.94
551.405	15.01
551.601	14.93
551.798	14.93
551.995	14.94
552.191	14.8
552.388	14.8
552.585	14.9
552.781	14.81
552.978	14.86
553.175	14.88
553.371	14.9
553.568	14.83
553.764	14.99
553.961	14.98
554.157	15.08
554.354	15.2
554.55	15.34
554.747	15.27
554.943	15.31
555.14	15.23
555.336	15.21
555.533	15.24
555.729	15.25
555.926	15.16
556.122	15.2
556.318	15.08
556.515	15.12
556.711	15.03
556.907	15.11
557.104	15.06
557.3	15.02
557.496	14.96
557.693	14.96
557.889	14.98
558.085	14.98
558.281	15.12
558.478	15.33
558.674	15.36
558.87	15.55
559.066	15.58
559.262	15.61
559.459	15.79
559.655	16
559.851	16.07
560.047	16.19
560.243	16.26
560.439	16.28
560.635	16.16
560.831	16.23
561.027	16.18
561.223	16.19
561.419	16.4
561.615	16.46
561.811	16.42
562.007	16.49
562.203	16.55
562.399	16.65
562.595	16.58
562.791	16.71
562.987	16.52
563.183	16.51
563.379	16.54
563.575	16.48
563.771	16.48
563.966	16.57
564.162	16.48
564.358	16.5
564.554	16.5
564.75	16.57
564.945	16.6
565.141	16.77
565.337	16.86
565.533	16.87
565.728	17.01
565.924	16.92
566.12	16.87
566.315	16.95
566.511	16.94
566.707	16.91
566.902	16.89
567.098	16.97
567.293	17.09
567.489	17.11
567.684	17.21
567.88	17.25
568.076	17.41
568.271	17.5
568.467	17.52
568.662	17.51
568.858	17.55
569.053	17.69
569.248	17.58
569.444	17.58
569.639	17.71
569.835	17.65
570.03	17.53
570.225	17.47
570.421	17.46
570.616	17.5
570.812	17.64
571.007	17.63
571.202	17.63
571.397	17.66
571.593	17.61
571.788	17.54
571.983	17.68
572.178	17.65
572.374	17.7
572.569	17.74
572.764	17.75
572.959	17.66
573.154	17.75
573.35	17.76
573.545	17.83
573.74	17.89
573.935	17.92
574.13	17.87
574.325	17.99
574.52	18.09
574.715	18.09
574.91	18.08
575.105	18.22
575.3	18.29
575.495	18.22
575.69	18.31
575.885	18.39
576.08	18.47
576.275	18.59
576.47	18.68
576.665	18.69
576.86	18.78
577.055	19
577.25	19.11
577.444	19.3
577.639	19.59
577.834	19.76
578.029	19.9
578.224	20.08
578.418	20.18
578.613	20.24
578.808	20.32
579.003	20.49
579.197	20.55
579.392	20.61
579.587	20.55
579.781	20.48
579.976	20.43
580.171	20.42
580.365	20.25
580.56	20.33
580.755	20.33
580.949	20.44
581.144	20.25
581.338	20.24
581.533	20.24
581.727	20.44
581.922	20.47
582.116	20.58
582.311	20.34
582.505	20.44
582.7	20.37
582.894	20.4
583.089	20.39
583.283	20.59
583.478	20.54
583.672	20.52
583.866	20.42
584.061	20.47
584.255	20.55
584.449	20.93
584.644	20.99
584.838	21.02
585.032	21.04
585.226	21.04
585.421	21.16
585.615	21.37
585.809	21.42
586.003	21.52
586.198	21.58
586.392	21.52
586.586	21.55
586.78	21.58
586.974	21.61
587.168	21.62
587.363	21.61
587.557	21.42
587.751	21.26
587.945	21.25
588.139	21.14
588.333	21.05
588.527	21.01
588.721	20.98
588.915	20.94
589.109	20.88
589.303	20.9
589.497	20.98
589.691	21.01
589.885	20.98
590.079	20.86
590.273	20.98
590.466	21.13
590.66	21.16
590.854	21.2
591.048	21.2
591.242	21.35
591.436	21.3
591.629	21.34
591.823	21.54
592.017	21.84
592.211	21.98
592.404	21.75
592.598	21.78
592.792	21.83
592.986	21.83
593.179	21.71
593.373	21.63
593.567	21.69
593.76	21.64
593.954	21.53
594.147	21.4
594.341	21.3
594.535	21.45
594.728	21.32
594.922	21.19
595.115	21.06
595.309	21.15
595.502	21.09
595.696	21.08
595.889	20.96
596.083	20.83
596.276	20.71
596.47	20.69
596.663	20.57
596.856	20.58
597.05	20.65
597.243	20.6
597.437	20.57
597.63	20.67
597.823	20.75
598.017	20.9
598.21	20.94
598.403	21.09
598.596	21.23
598.79	21.49
598.983	21.62
599.176	21.64
599.369	21.71
599.563	21.8
599.756	21.86
599.949	21.84
600.142	21.7
600.335	21.86
600.528	21.73
600.722	21.54
600.915	21.16
601.108	21.09
601.301	21.06
601.494	21.23
601.687	21.18
601.88	21.05
602.073	20.92
602.266	20.97
602.459	20.96
602.652	20.94
602.845	21.09
603.038	21.16
603.231	21.08
603.424	21.09
603.617	20.79
603.809	20.74
604.002	20.64
604.195	20.78
604.388	20.73
604.581	20.66
604.774	20.7
604.966	20.69
605.159	20.75
605.352	20.77
605.545	20.76
605.737	21.03
605.93	21.11
606.123	21.26
606.316	21.18
606.508	21.21
606.701	21.31
606.894	21.48
607.086	21.57
607.279	21.74
607.471	21.87
607.664	22.03
607.857	22.18
608.049	22.46
608.242	22.81
608.434	23.29
608.627	23.98
608.819	24.69
609.012	25.29
609.204	26.15
609.397	27.11
609.589	28.3
609.782	29.43
609.974	30.65
610.166	31.83
610.359	33.01
610.551	34.02
610.743	34.86
610.936	35.59
611.128	36.3
611.32	36.8
611.513	36.99
611.705	36.9
611.897	36.83
612.09	36.44
612.282	36.16
612.474	35.66
612.666	35.01
612.858	34.38
613.051	33.74
613.243	33.06
613.435	32.44
613.627	32.11
613.819	31.65
614.011	30.97
614.203	30.66
614.395	29.88
614.588	29.36
614.78	29
614.972	28.46
615.164	28.06
615.356	27.73
615.548	27.33
615.74	26.69
615.932	26.18
616.124	25.91
616.315	25.33
616.507	25.21
616.699	24.72
616.891	24.24
617.083	24.06
617.275	23.89
617.467	23.6
617.659	23.48
617.85	23.19
618.042	23.26
618.234	23.17
618.426	22.95
618.618	22.94
618.809	22.91
619.001	23.04
619.193	23.04
619.384	22.8
619.576	22.64
619.768	22.58
619.959	22.73
620.151	22.72
620.343	22.74
620.534	22.86
620.726	22.84
620.917	22.9
621.109	22.86
621.301	22.94
621.492	23.34
621.684	23.76
621.875	23.8
622.067	23.77
622.258	23.8
622.45	23.92
622.641	23.93
622.832	23.93
623.024	24.09
623.215	24.3
623.407	24.19
623.598	24.07
623.789	23.78
623.981	23.68
624.172	23.72
624.363	23.68
624.555	23.66
624.746	23.8
624.937	23.95
625.129	23.83
625.32	23.94
625.511	23.88
625.702	23.84
625.893	23.85
626.085	23.75
626.276	23.88
626.467	23.86
626.658	23.8
626.849	23.8
627.04	23.64
627.231	23.78
627.422	23.47
627.614	23.57
627.805	23.35
627.996	23.37
628.187	23.52
628.378	23.38
628.569	23.24
628.76	23.41
628.951	23.47
629.142	23.6
629.332	23.61
629.523	23.88
629.714	24.19
629.905	24.53
630.096	24.65
630.287	24.72
630.478	24.8
630.669	25.04
630.859	24.82
631.05	24.6
631.241	24.37
631.432	24.3
631.623	24.13
631.813	23.69
632.004	23.56
632.195	23.34
632.385	23.17
632.576	22.89
632.767	22.69
632.957	22.68
633.148	22.76
633.339	22.51
633.529	22.34
633.72	22.21
633.91	22.33
634.101	22.25
634.292	22.21
634.482	22.28
634.673	22.39
634.863	22.41
635.054	22.49
635.244	22.48
635.435	22.56
635.625	22.71
635.815	22.6
636.006	22.46
636.196	22.36
636.387	22.61
636.577	22.51
636.767	22.37
636.958	22.34
637.148	22.29
637.338	22.21
637.529	22.27
637.719	22.11
637.909	22.32
638.099	22.45
638.29	22.43
638.48	22.44
638.67	22.31
638.86	22.44
639.05	22.37
639.241	22.29
639.431	22.11
639.621	22.02
639.811	22
640.001	22.08
640.191	22
640.381	21.95
640.571	21.76
640.761	21.91
640.951	21.82
641.141	21.87
641.331	21.84
641.521	21.99
641.711	22.13
641.901	21.93
642.091	21.83
642.281	21.8
642.471	21.98
642.661	21.87
642.851	21.82
643.041	22.17
643.231	22.16
643.42	22.15
643.61	22.12
643.8	22.26
643.99	22.55
644.18	22.21
644.369	22.3
644.559	21.94
644.749	22.11
644.939	22.05
645.128	21.66
645.318	21.72
645.508	21.94
645.697	21.93
645.887	22.08
646.076	22.12
646.266	22.54
646.456	22.49
646.645	22.92
646.835	22.92
647.024	23.11
647.214	23.06
647.403	23.25
647.593	23.14
647.782	23.4
647.972	23.23
648.161	23.23
648.351	23.03
648.54	23.09
648.73	23.05
648.919	23.25
649.108	23.05
649.298	23.26
649.487	23.25
649.677	23.49
649.866	23.17
650.055	23.12
650.244	23.15
650.434	23.27
650.623	23.19
650.812	23.11
651.002	22.87
651.191	23.11
651.38	23.28
651.569	23.26
651.758	22.85
651.947	22.95
652.137	23.09
652.326	22.98
652.515	23.13
652.704	23.05
652.893	23.12
653.082	23.29
653.271	23.21
653.46	22.92
653.649	22.79
653.838	23.01
654.027	23.11
654.216	22.97
654.405	23.01
654.594	22.75
654.783	22.88
654.972	22.66
655.161	22.84
655.35	23.01
655.539	23.11
655.728	23.02
655.916	22.98
656.105	22.82
656.294	22.53
656.483	22.45
656.672	22.6
656.86	22.64
657.049	22.68
657.238	22.08
657.427	21.92
657.615	21.85
657.804	21.93
657.993	21.8
658.181	21.87
658.37	22.09
658.559	22.16
658.747	22.2
658.936	22.06
659.125	22.15
659.313	22.41
659.502	22.44
659.69	22.54
659.879	22.55
660.067	22.61
660.256	22.53
660.444	22.35
660.633	22.47
660.821	22.33
661.01	22.28
661.198	22.5
661.387	22.69
661.575	22.73
661.763	22.72
661.952	23.02
662.14	22.98
662.328	23.11
662.517	23.39
662.705	23.27
662.893	23.57
663.082	23.83
663.27	23.63
663.458	23.68
663.646	23.7
663.834	23.54
664.023	23.44
664.211	23.42
664.399	23.41
664.587	23.57
664.775	23.61
664.963	23.35
665.152	23.3
665.34	23.37
665.528	23.29
665.716	23.37
665.904	23.55
666.092	23.3
666.28	23.5
666.468	23.41
666.656	23.52
666.844	23.62
667.032	23.61
667.22	23.71
667.408	23.81
667.596	23.43
667.784	23.14
667.971	23.04
668.159	23.06
668.347	23.1
668.535	23.24
668.723	23.01
668.911	22.81
669.098	22.48
669.286	22.53
669.474	22.2
669.662	22.43
669.849	22.46
670.037	22.52
670.225	22.6
670.413	22.54
670.6	22.59
670.788	22.56
670.976	22.7
671.163	23.05
671.351	22.85
671.538	22.86
671.726	22.78
671.913	22.86
672.101	22.53
672.289	22.7
672.476	22.83
672.664	23.09
672.851	22.93
673.039	23.16
673.226	23.22
673.413	23.2
673.601	23.22
673.788	23.25
673.976	23.32
674.163	23.54
674.35	23.44
674.538	23.24
674.725	23.16
674.912	23.28
675.1	22.97
675.287	22.96
675.474	23.11
675.662	23.56
675.849	23.64
676.036	23.57
676.223	23.81
676.411	23.62
676.598	23.59
676.785	23.46
676.972	23.66
677.159	23.66
677.346	23.91
677.533	23.76
677.721	23.34
677.908	23.45
678.095	23.43
678.282	23.39
678.469	23.53
678.656	23.3
678.843	22.95
679.03	22.89
679.217	22.99
679.404	22.85
679.591	23.02
679.778	22.93
679.964	22.71
680.151	22.65
680.338	22.4
680.525	22.32
680.712	22.63
680.899	22.96
681.086	22.9
681.272	22.76
681.459	22.64
681.646	22.69
681.833	22.85
682.02	22.84
682.206	22.83
682.393	23.3
682.58	23.33
682.766	23.34
682.953	23.26
683.14	23.09
683.326	23.39
683.513	23.59
683.7	23.25
683.886	23.21
684.073	23.22
684.259	23.29
684.446	22.76
684.632	22.85
684.819	22.81
685.005	22.82
685.192	23.12
685.378	22.81
685.565	22.67
685.751	22.77
685.938	22.91
686.124	23.11
686.31	23.41
686.497	23.66
686.683	23.67
686.87	23.73
687.056	23.67
687.242	23.66
687.429	24.04
687.615	24.2
687.801	24.13
687.987	24.33
688.174	24.17
688.36	24.11
688.546	24.34
688.732	24.46
688.918	24.18
689.105	24.26
689.291	23.98
689.477	23.63
689.663	23.74
689.849	24.09
690.035	24.25
690.221	23.96
690.407	23.71
690.593	23.3
690.779	23.16
690.965	23.63
691.151	23.44
691.337	23.83
691.523	23.93
691.709	23.73
691.895	23.86
692.081	23.65
692.267	23.9
692.453	24.29
692.639	24.21
692.825	24.27
693.011	24.02
693.196	24
693.382	23.99
693.568	24.18
693.754	23.98
693.94	23.58
694.125	23.66
694.311	23.96
694.497	23.41
694.682	23.78
694.868	23.48
695.054	23.63
695.239	23.87
695.425	23.59
695.611	23.42
695.796	23.05
695.982	23.16
696.168	22.71
696.353	22.66
696.539	22.82
696.724	22.83
696.91	22.86
697.095	22.69
697.281	22.37
697.466	22.47
697.652	22.35
697.837	22.82
698.023	22.53
698.208	22.64
698.393	22.55
698.579	22.74
698.764	22.72
698.949	22.8
699.135	22.73
699.32	22.98
699.505	23
699.691	22.99
699.876	22.65
700.061	22.75
700.246	22.7
700.432	22.85
700.617	22.71
700.802	22.77
700.987	23.09
701.172	22.92
701.358	23.06
701.543	23.12
701.728	23.41
701.913	23.89
702.098	24.01
702.283	24.31
702.468	24.07
702.653	24.26
702.838	24.32
703.023	24.2
703.208	24.64
703.393	24.42
703.578	24.4
703.763	24.41
703.948	24.52
704.133	25.09
704.318	24.93
704.503	25.2
704.688	25.19
704.873	25.36
705.057	25.58
705.242	26.05
705.427	26.52
705.612	26.88
705.797	27.13
705.981	27.62
706.166	27.65
706.351	27.94
706.536	28.36
706.72	28.55
706.905	28.93
707.09	29.33
707.274	29.25
707.459	29.63
707.644	29.82
707.828	29.72
708.013	29.53
708.197	29.48
708.382	30.09
708.567	29.83
708.751	30.15
708.936	29.8
709.12	29.55
709.305	29.6
709.489	29.36
709.673	29.01
709.858	29.11
710.042	28.75
710.227	28.96
710.411	28.42
710.596	28.5
710.78	28.59
710.964	28.73
711.149	28.69
711.333	28.77
711.517	28.49
711.702	28.58
711.886	28.46
712.07	28.52
712.254	27.89
712.438	28.05
712.623	28.16
712.807	27.57
712.991	27.28
713.175	26.93
713.359	26.53
713.544	26.33
713.728	26.16
713.912	25.85
714.096	25.66
714.28	25.72
714.464	25.18
714.648	24.69
714.832	24.93
715.016	24.8
715.2	24.39
715.384	24.21
715.568	24.08
715.752	23.6
715.936	23.5
716.12	23.1
716.304	22.92
716.488	23.1
716.671	23.01
716.855	22.67
717.039	22.36
717.223	22.31
717.407	22.7
717.59	22.67
717.774	22.95
717.958	23.34
718.142	23.61
718.325	23.49
718.509	23.49
718.693	23.72
718.877	23.38
719.06	23.48
719.244	23.99
719.428	23.53
719.611	23.56
719.795	23.3
719.978	23.14
720.162	23.63
720.345	24.04
720.529	23.87
720.713	24.28
720.896	23.82
721.08	24.14
721.263	23.91
721.446	24.14
721.63	24.14
721.813	24.56
721.997	23.91
722.18	23.55
722.364	23.79
722.547	23.61
722.73	23.08
722.914	24.15
723.097	24.04
723.28	24.26
723.464	24.19
723.647	24.4
723.83	23.95
724.013	24.63
724.197	24.68
724.38	24.73
724.563	24.64
724.746	24.79
724.929	24.45
725.112	23.96
725.296	23.74
725.479	23.63
725.662	23.33
725.845	23.13
726.028	22.75
726.211	22.87
726.394	22.25
726.577	22.24
726.76	22.14
726.943	21.97
727.126	22.51
727.309	22.51
727.492	22.57
727.675	22.72
727.858	23.19
728.041	23.84
728.224	24.21
728.407	24.09
728.589	24.54
728.772	24.52
728.955	24.49
729.138	24.53
729.321	24.41
729.503	24.2
729.686	23.75
729.869	23.73
730.052	23.35
730.234	22.83
730.417	23.07
730.6	22.63
730.782	22.61
730.965	22.93
731.148	22.61
731.33	22.34
731.513	22.54
731.695	22.97
731.878	22.78
732.061	22.75
732.243	22.62
732.426	22.59
732.608	22.56
732.791	22.9
732.973	22.65
733.156	22.93
733.338	23.53
733.52	23.3
733.703	23.5
733.885	23.67
734.068	23.31
734.25	23.86
734.432	24.27
734.615	24.35
734.797	24.19
734.979	23.97
735.162	23.68
735.344	23.74
735.526	23.94
735.708	23.96
735.891	23.91
736.073	24.64
736.255	24.77
736.437	24.53
736.619	24.55
736.802	24.16
736.984	24.61
737.166	24.59
737.348	24.73
737.53	24.9
737.712	24.15
737.894	24.36
738.076	23.89
738.258	23.6
738.44	23.36
738.622	24.02
738.804	24.44
738.986	24.66
739.168	24.97
739.35	24.57
739.532	24.26
739.714	25.1
739.896	24.88
740.078	25.08
740.259	25
740.441	25.57
740.623	25.69
740.805	26.3
740.987	26.04
741.168	26.17
741.35	26.72
741.532	27.68
741.714	27.55
741.895	27.67
742.077	28.02
742.259	27.6
742.44	27.66
742.622	27.25
742.804	26.46
742.985	27.24
743.167	26.65
743.348	26.23
743.53	25.27
743.711	24.79
743.893	24.98
744.075	25.13
744.256	25.15
744.438	24.75
744.619	25.11
744.8	25.12
744.982	23.79
745.163	24.45
745.345	24.03
745.526	24.2
745.707	24.83
745.889	25.41
746.07	25.05
746.252	26.05
746.433	25.96
746.614	25.85
746.795	26.17
746.977	27.2
747.158	27.59
747.339	28.46
747.52	28.04
747.702	27.82
747.883	27.1
748.064	27.53
748.245	27.15
748.426	27.6
748.607	27.76
748.788	27.26
748.97	26.64
749.151	25.79
749.332	25.3
749.513	25.48
749.694	25.42
749.875	25.57
750.056	25.72
750.237	25.42
750.418	24.94
750.599	24.36
750.78	25.25
750.96	25.62
751.141	25.62
751.322	26.03
751.503	26.01
751.684	26.31
751.865	27.12
752.046	26.34
752.226	26.1
752.407	26.65
752.588	26.45
752.769	26.29
752.949	26.78
753.13	27.05
753.311	26.24
753.492	26.52
753.672	26.57
753.853	25.6
754.034	25.67
754.214	25.61
754.395	24.92
754.575	25.89
754.756	25.46
754.937	25.41
755.117	26.35
755.298	26.36
755.478	25.73
755.659	25.42
755.839	25.83
756.02	25.66
756.2	25.99
756.381	26.35
756.561	26.13
756.741	26.29
756.922	25.69
757.102	24.54
757.283	25.71
757.463	26.4
757.643	26.05
757.823	25.88
758.004	26.6
758.184	26.83
758.364	26.54
758.545	26.3
758.725	26.07
758.905	25.48
759.085	24.64
759.265	23.21
759.446	23.28
759.626	23.46
759.806	23.35
759.986	22.39
760.166	21.99
760.346	22.39
760.526	21.61
760.706	21.08
760.886	21.45
761.066	22.09
761.246	22.59
761.426	22.26
761.606	22.49
761.786	21.73
761.966	21.95
762.146	22.71
762.326	22.75
762.506	23.18
762.686	23.77
762.866	23.68
763.046	23.53
763.225	23.72
763.405	23.75
763.585	23.62
763.765	24.32
763.945	24.28
764.124	23.95
764.304	24
764.484	23.98
764.664	23.52
764.843	23.54
765.023	24.14
765.203	23.73
765.382	23.5
765.562	23.89
765.741	23.77
765.921	24
766.101	23.55
766.28	23.02
766.46	23.31
766.639	24.62
766.819	24.5
766.998	24.49
767.178	25.31
767.357	26.47
767.537	26.46
767.716	27.28
767.896	27.57
768.075	28.07
768.254	28.47
768.434	28.11
768.613	27.7
768.792	27.65
768.972	27.12
769.151	27.25
769.33	26.63
769.51	26.59
769.689	26.74
769.868	27.04
770.047	28.01
770.226	27.73
770.406	27.64
770.585	27.46
770.764	27.96
770.943	28.1
771.122	27.43
771.301	27.33
771.48	27.31
771.66	26.78
771.839	26.96
772.018	26.19
772.197	27.05
772.376	27.85
772.555	27.89
772.734	28.42
772.913	27.74
773.092	28.37
773.271	29.5
773.449	29.12
773.628	28.55
773.807	27.48
773.986	26.91
774.165	26.76
774.344	26.63
774.523	26.86
774.701	25.76
774.88	27.18
775.059	27.63
775.238	27.15
775.417	26.53
775.595	27.1
775.774	26.97
775.953	27.82
776.131	28.04
776.31	27.49
776.489	26.5
776.667	27.06
776.846	26.84
777.025	25.51
777.203	24.7
777.382	25.78
777.56	25.24
777.739	25.46
777.917	25.82
778.096	24.51
778.274	25.03
778.453	24.95
778.631	24.84
778.81	25.38
778.988	26.37
779.166	26.93
779.345	26.98
779.523	26.95
779.702	27.2
779.88	26.32
780.058	27.2
780.237	26.21
780.415	26.44
780.593	26.73
780.771	26.55
780.95	25.91
781.128	26.49
781.306	26.51
781.484	26.05
781.662	25.78
781.841	26.3
782.019	27.1
782.197	27.76
782.375	28.4
782.553	28.51
782.731	27.79
782.909	27.97
783.087	27.8
783.265	27.57
783.443	28.07
783.621	28.54
783.799	27.43
783.977	26.28
784.155	27.08
784.333	26.7
784.511	27.67
784.689	27.47
784.867	27.25
785.045	26.3
785.223	26.24
785.4	26.18
785.578	26.31
785.756	26.86
785.934	26.25
786.112	25.38
786.289	25.6
786.467	24.94
786.645	25.11
786.823	24.4
787	24.84
787.178	24.24
787.356	23.84
787.533	23
787.711	22.34
787.889	22.91
788.066	22.16
788.244	22.75
788.421	21.58
788.599	21.26
788.776	20.99
788.954	20.57
789.131	21.44
789.309	21.66
789.486	22.77
789.664	23.19
789.841	22.39
790.019	23.71
790.196	22.8
790.373	23.28
790.551	24.08
790.728	25.68
790.906	25.44
791.083	24.32
791.26	25.38
791.437	24.72
791.615	25.52
791.792	26.96
791.969	25.88
792.146	26.45
792.324	26.55
792.501	26.77
792.678	25.63
792.855	25.45
793.032	27.26
793.209	27.04
793.387	27.81
793.564	26.41
793.741	26.74
793.918	26.34
794.095	26.06
794.272	27.34
794.449	25.96
794.626	27.13
794.803	27.73
794.98	25.91
795.157	24.38
795.334	23.45
795.511	22.67
795.688	22.99
795.864	24.32
796.041	24.37
796.218	23.37
796.395	24.05
796.572	23.41
796.749	23.1
796.925	23.84
797.102	24.65
797.279	24.78
797.456	27.06
797.632	26.82
797.809	26.35
797.986	26.56
798.162	26.62
798.339	25.82
798.516	26.1
798.692	25.85
798.869	26.15
799.046	27.85
799.222	27.46
799.399	27.79
799.575	26.61
799.752	27.23
799.928	26.32
800.105	25.94
800.281	26.65
800.458	25.58
800.634	26.27
800.811	25.59
800.987	23.76
801.163	24.43
801.34	22.93
801.516	23.64
801.692	23.88
801.869	26
802.045	26.48
802.221	27.55
802.398	29.03
802.574	26.96
802.75	27.63
802.926	28.49
803.103	28.37
803.279	28.51
803.455	28.34
803.631	27.84
803.807	26.8
803.983	28.13
804.16	27.17
804.336	26.87
804.512	29.74
804.688	30.01
804.864	29.32
805.04	29.43
805.216	28.91
805.392	29.15
805.568	28.3
805.744	28.84
805.92	27.42
806.096	27.73
806.272	27.2
806.448	27.28
806.623	26.6
806.799	27.93
806.975	27.29
807.151	28.06
807.327	28.33
807.503	27.14
807.678	25.3
807.854	25.73
808.03	25.43
808.206	26.1
808.381	26.62
808.557	27.7
808.733	26.62
808.908	27.88
809.084	27.57
809.26	27.34
809.435	29.76
809.611	29.78
809.787	28.5
809.962	30.01
810.138	30.39
810.313	28.89
810.489	29.08
810.664	29.13
810.84	27.93
811.015	28.39
811.191	29.45
811.366	27.6
811.542	28.23
811.717	27.8
811.892	26.2
812.068	25.57
812.243	26.36
812.419	25.41
812.594	24.29
812.769	23.57
812.944	22.77
813.12	20
813.295	20.02
813.47	17.53
813.645	19.46
813.821	18.78
813.996	18.43
814.171	18.11
814.346	18.68
814.521	18.56
814.697	18.99
814.872	18.18
815.047	19.11
815.222	19.83
815.397	21.52
815.572	20.17
815.747	21.13
815.922	22.28
816.097	23.06
816.272	23.1
816.447	25.73
816.622	27.2
816.797	29.66
816.972	31.14
817.147	31.81
817.322	31.35
817.496	32.09
817.671	32
817.846	31.34
818.021	28.46
818.196	27.21
818.371	24.36
818.545	23.61
818.72	22.16
818.895	21.61
819.069	21.69
819.244	21.48
819.419	20.47
819.594	20.32
819.768	20.03
819.943	20.56
820.117	21.16
820.292	22.44
820.467	21.65
820.641	21.45
820.816	21.24
820.99	20.2
821.165	20.39
821.339	21.36
821.514	21.78
821.688	21.83
821.863	22.24
822.037	21.92
822.212	21.58
822.386	21.95
822.56	21.84
822.735	21.77
822.909	21.89
823.084	22.02
823.258	21.62
823.432	21.01
823.606	20.67
823.781	20.51
823.955	20.52
824.129	20.81
824.303	20.3
824.478	20.59
824.652	20.81
824.826	20.81
825	20.74
825.174	21.29
825.348	22.15
825.523	22.65
825.697	22.84
825.871	23.26
826.045	23.02
826.219	24.18
826.393	24.52
826.567	24.72
826.741	25.02
826.915	24.93
827.089	24.88
827.263	24.76
827.437	24.73
827.611	24.61
827.784	24.88
827.958	24.39
828.132	24
828.306	23.51
828.48	22.97
828.654	23.32
828.827	23.69
829.001	23.21
829.175	23
829.349	23.42
829.522	22.78
829.696	22.11
829.87	22.7
830.044	22.61
830.217	22.34
830.391	21.42
830.565	21.56
830.738	19.91
830.912	19.62
831.085	20.06
831.259	20.21
831.432	20.68
831.606	20.73
831.779	21.2
831.953	21.4
832.126	23.49
832.3	24.98
832.473	24.16
832.647	25.78
832.82	26.05
832.994	26.63
833.167	26
833.34	25.84
833.514	25.44
833.687	25.52
833.86	25.18
834.034	23.47
834.207	23.42
834.38	24.12
834.553	24.25
834.727	23.97
834.9	22.79
835.073	22.21
835.246	21.91
835.419	22.05
835.593	22.5
835.766	22.69
835.939	24.18
836.112	23.8
836.285	22.54
836.458	21.14
836.631	21.48
836.804	21.61
836.977	23.06
837.15	23.17
837.323	23.09
837.496	22.95
837.669	22.74
837.842	23.06
838.015	23.83
838.188	24.08
838.361	25.15
838.533	25.35
838.706	27.89
838.879	27.16
839.052	27.83
839.225	29.53
839.398	29.55
839.57	30.01
839.743	28.37
839.916	29.16
840.088	30.78
840.261	29.46
840.434	27.91
840.607	27
840.779	28.56
840.952	28.72
841.124	26.24
841.297	24.91
841.47	23.96
841.642	27.03
841.815	28.19
841.987	26.19
842.16	28.08
842.332	29.73
842.505	29.22
842.677	26.22
842.85	27.61
843.022	30.11
843.194	29.41
843.367	32.05
843.539	26.47
843.712	22.64
843.884	25.34
844.056	25.86
844.229	27.83
844.401	28.29
844.573	28.51
844.745	27.85
844.918	28.53
845.09	30.72
845.262	27.64
845.434	29.32
845.606	30.78
845.779	28.27
845.951	23.46
846.123	25.02
846.295	25.94
846.467	31.47
846.639	29.94
846.811	27.41
846.983	25.19
847.155	25.6
847.327	25.88
847.499	26.16
847.671	23.96
847.843	28.9
848.015	29.21
848.187	33.66
848.359	28.64
848.531	32.45
848.703	34.87
848.875	35.77
849.047	31.29
849.218	33.13
849.39	32.43
849.562	34.94
849.734	31.93
849.905	29.67
850.077	26.4
850.249	27.68
850.421	25.58
850.592	27.79
850.764	27.82
850.936	33.47
851.107	32.22
851.279	31.64
851.451	33.47
851.622	33.31
851.794	35.07
851.965	33.11
852.137	34.21
852.308	37.62
852.48	35.17
852.651	36.89
852.823	39.71
852.994	40.03
853.166	35.23
853.337	33.96
853.509	38.35
853.68	35.65
853.851	36.7
854.023	36.53
854.194	36.11
854.365	33.01
854.537	30.73
854.708	30.37
854.879	31.4
855.05	37.8
855.222	33.75
855.393	31.51
855.564	29.71
855.735	31.93
855.906	31.15
856.078	28.28
856.249	32.09
856.42	35.4
856.591	32.74
856.762	33.09
856.933	33.5
857.104	34.69
857.275	36.44
857.446	39.98
857.617	39.8
857.788	46.78
857.959	46.69
858.13	47.22
858.301	43.96
858.472	44.5
858.643	45.47
858.814	45.35
858.985	49.54
859.155	46.15
859.326	40.68
859.497	40.59
859.668	31.06
859.839	31.69
860.009	30.11
860.18	28.26
860.351	28.77
860.522	24.25
860.692	21.71
860.863	19.12
861.034	20.66
861.204	26.55
861.375	21.62
861.546	30.21
861.716	28.98
861.887	31.13
862.057	39.03
862.228	39
862.398	42.77
862.569	41.89
862.739	45.71
862.91	44.57
863.08	46.07
863.251	50.55
863.421	51.1
863.592	49.28
863.762	45.41
863.932	41.7
864.103	43.24
864.273	45.74
864.443	46.39
864.614	40.57
864.784	40.68
864.954	40.03
865.125	35.36
865.295	33.06
865.465	42.47
865.635	45.68
865.805	46.61
865.976	49.32
866.146	47.46
866.316	45.13
866.486	46.91
866.656	47.52
866.826	52.45
866.996	54.08
867.166	52.72
867.336	45.23
867.506	51.35
867.676	49.52
867.846	44.69
868.016	43.02
868.186	47.02
868.356	47.05
868.526	47
868.696	40.99
868.866	44.67
869.036	41.95
869.206	45.42
869.376	39.6
869.545	32.76
869.715	32.22
869.885	30.78
870.055	30.76
870.224	30.42
870.394	29.06
870.564	29.91
870.734	28.57
870.903	31.55
871.073	29.91
871.243	26.61
871.412	31.27
871.582	33.25
871.751	36.97
871.921	32.82
872.091	27
872.26	36.2
872.43	39.52
872.599	33.5
872.769	32.76
872.938	31.62
873.108	36.83
873.277	41.77
873.446	36.55
873.616	31.85
873.785	36.1
873.955	38.11
874.124	33.93
874.293	30.31
874.463	32.93
874.632	34
874.801	39.81
874.971	34.65
875.14	37.92
875.309	37.43
875.478	40.29
875.647	37.8
875.817	40.42
875.986	41.98
876.155	39.51
876.324	39.16
876.493	33.88
876.662	32.43
876.831	31.95
877	28.95
877.17	34.39
877.339	33.24
877.508	35.23
877.677	35.33
877.846	29.47
878.015	29.41
878.184	29
878.352	34.02
878.521	31
878.69	33.52
878.859	32.44
879.028	28.52
879.197	25.05
879.366	23.18
879.534	22.3
879.703	23.07
879.872	26.93
880.041	27.61
880.21	24.45
880.378	25.58
880.547	24.22
880.716	23.29
880.884	22.79
881.053	23.37
881.222	24.24
881.39	23.73
881.559	23.54
881.727	22.31
881.896	21.83
882.065	20.86
882.233	20.68
882.402	21.11
882.57	20.48
882.739	20.93
882.907	20.81
883.076	19.69
883.244	20.02
883.412	20.54
883.581	20.22
883.749	19.86
883.918	20.69
884.086	20.17
884.254	19.01
884.423	18.97
884.591	19.01
884.759	20.16
884.927	20.28
885.096	20.61
885.264	20.32
885.432	22.42
885.6	24.32
885.769	26.18
885.937	28.61
886.105	30
886.273	34.5
886.441	35.07
886.609	36.75
886.777	37.82
886.945	36.85
887.113	36.13
887.281	34.54
887.449	32.31
887.617	30.62
887.785	27.98
887.953	29.26
888.121	28.32
888.289	31.05
888.457	27.35
888.625	28.64
888.793	28.29
888.961	32.38
889.129	30.67
889.296	35.5
889.464	37.97
889.632	38.45
889.8	40.97
889.967	38.57
890.135	34.66
