Data from 2938744__Reflection_03.txt Node
Date: Sun Mar 15 11:53:03 EDT 2015
User: robert
Spectrometer: USB4E03002
Autoset integration time: false
Trigger mode: 4
Integration Time (sec): 1.000000E-1
Scans to average: 10
Electric dark correction enabled: false
Nonlinearity correction enabled: false
Boxcar width: 5
Stray light correction enabled: false
XAxis mode: Wavelengths
Stop averaging: false
Number of Pixels in Spectrum: 3648
>>>>>Begin Spectral Data<<<<<
177.575	544.4
177.794	433.6
178.014	696.23
178.233	834.76
178.452	1022.71
178.672	1563.51
178.891	1745.86
179.11	-5109.3
179.33	-1292.17
179.549	-1107.69
179.768	-1606.29
179.987	-3066.23
180.207	-833.69
180.426	-5017.31
180.645	-3785.07
180.864	-35942.86
181.084	2325.89
181.303	-12200
181.522	1460.1
181.741	1304.67
181.96	2288.62
182.179	656.25
182.398	602.91
182.618	438.53
182.837	442.94
183.056	412.66
183.275	454.41
183.494	500.35
183.713	422.78
183.932	380.31
184.151	325.65
184.37	309.13
184.589	459
184.808	470.72
185.027	501.31
185.246	513.81
185.465	444.23
185.684	471.87
185.903	443.35
186.122	376.22
186.341	587.5
186.56	1005.67
186.779	797.1
186.998	694.99
187.216	807.09
187.435	1517.83
187.654	1486.31
187.873	4990
188.092	1731.48
188.311	1220.35
188.53	1916.67
188.748	1731.69
188.967	1342.67
189.186	1490.38
189.405	1230.62
189.623	1671.73
189.842	1109.66
190.061	1107.59
190.28	1053.2
190.498	1875.97
190.717	1461
190.936	2174.6
191.154	1453.63
191.373	1322.9
191.592	657.49
191.81	557.84
192.029	466.24
192.248	499.84
192.466	685.35
192.685	609.38
192.904	471.49
193.122	645.31
193.341	717.08
193.559	544.59
193.778	578.88
193.996	1162.25
194.215	1803.03
194.433	-8444.44
194.652	2592.05
194.87	1855.38
195.089	2659.3
195.307	4415.09
195.526	1699.37
195.744	3535.06
195.963	-3004.21
196.181	-6565.12
196.399	-5902
196.618	-2452.8
196.836	-2593.97
197.055	-1183.33
197.273	-1421.84
197.491	-1670.06
197.71	-5219.64
197.928	-2759.18
198.146	-2111.86
198.365	-2236.7
198.583	-4510.34
198.801	7876.47
199.019	1648.15
199.238	898.38
199.456	648.3
199.674	915.69
199.892	1199.57
200.111	1403.11
200.329	1610.53
200.547	643.84
200.765	476.11
200.983	447.85
201.202	419.28
201.42	485.67
201.638	449.16
201.856	524.09
202.074	371.41
202.292	299.03
202.51	375.77
202.728	333.05
202.946	419.79
203.165	520.96
203.383	521.95
203.601	516.97
203.819	489.83
204.037	504.35
204.255	431.74
204.473	350.9
204.691	382.88
204.909	354.5
205.127	382.01
205.345	312.8
205.562	295.34
205.78	402.44
205.998	506.47
206.216	605.45
206.434	623.17
206.652	855.16
206.87	2312.5
207.088	8852.94
207.306	1402.28
207.523	2039.87
207.741	2209.72
207.959	2585.95
208.177	973.78
208.395	688.76
208.612	565.84
208.83	591.32
209.048	607.41
209.266	441.2
209.483	403.83
209.701	484.69
209.919	516.39
210.136	412.43
210.354	369.05
210.572	538.25
210.79	507.32
211.007	427.68
211.225	388.3
211.442	341.22
211.66	368.57
211.878	433.06
212.095	286.52
212.313	255.78
212.53	282.47
212.748	303.93
212.966	270.86
213.183	253.78
213.401	260.06
213.618	263.21
213.836	245.74
214.053	246.36
214.271	226.32
214.488	345.34
214.705	304.31
214.923	310.03
215.14	287.47
215.358	276.07
215.575	346.54
215.793	290.54
216.01	283.8
216.227	280.15
216.445	273.98
216.662	292.73
216.879	271.42
217.097	282.74
217.314	275.47
217.531	249.15
217.749	235.21
217.966	217.28
218.183	257.55
218.4	252.03
218.618	265.1
218.835	260.95
219.052	212.82
219.269	220.15
219.487	229.07
219.704	226.82
219.921	253.56
220.138	248.4
220.355	199.93
220.572	178.94
220.79	179.03
221.007	169.18
221.224	158.22
221.441	158.33
221.658	147.94
221.875	135.61
222.092	124.19
222.309	112.95
222.526	113.64
222.743	116.62
222.96	117.56
223.177	115.77
223.394	110.52
223.611	111.26
223.828	112.12
224.045	103.67
224.262	102.92
224.479	101.89
224.696	96.76
224.913	95.27
225.13	86.83
225.347	80.43
225.564	71.26
225.781	68.75
225.997	63.51
226.214	60.24
226.431	56.68
226.648	50.72
226.865	46.83
227.082	42.54
227.298	37.09
227.515	32.01
227.732	28.34
227.949	26.5
228.165	24.23
228.382	22.86
228.599	20.77
228.816	19.09
229.032	18.92
229.249	18.38
229.466	18.32
229.682	17.71
229.899	19.17
230.116	19.75
230.332	20.57
230.549	21.07
230.765	22.68
230.982	23.75
231.199	25.16
231.415	24.76
231.632	26.2
231.848	27.06
232.065	28.59
232.281	26.98
232.498	26.84
232.714	28.53
232.931	32.59
233.147	33.07
233.364	32.37
233.58	31.26
233.797	32.12
234.013	31.82
234.23	30.36
234.446	29
234.662	30.54
234.879	31.4
235.095	31.41
235.312	28.98
235.528	27.77
235.744	29.59
235.961	30.16
236.177	30.78
236.393	32.33
236.61	35.97
236.826	36.58
237.042	36.69
237.258	35.84
237.475	34.25
237.691	33.82
237.907	34.21
238.123	31.08
238.339	32.06
238.556	32.37
238.772	30.76
238.988	29.47
239.204	31.13
239.42	30.77
239.636	29.7
239.853	29.06
240.069	28.22
240.285	25.75
240.501	25.15
240.717	23.32
240.933	20.83
241.149	18.61
241.365	16.47
241.581	14.05
241.797	13.08
242.013	12.53
242.229	11.27
242.445	10.86
242.661	10.78
242.877	10.76
243.093	10.62
243.309	11.35
243.525	12.17
243.741	13.15
243.957	14.39
244.173	14.16
244.388	14.57
244.604	15.03
244.82	15.29
245.036	14.75
245.252	14.29
245.468	13.56
245.683	12.17
245.899	11.15
246.115	9.49
246.331	8.43
246.547	8.57
246.762	8.13
246.978	7.92
247.194	7.79
247.409	7.77
247.625	7.54
247.841	7.62
248.057	7.81
248.272	8.12
248.488	8.43
248.703	8.78
248.919	9.23
249.135	10.15
249.35	11.06
249.566	11.56
249.782	12.34
249.997	13.03
250.213	13.26
250.428	13.63
250.644	13.45
250.859	14.48
251.075	14.11
251.29	13.74
251.506	13.23
251.721	13.2
251.937	12.8
252.152	12.78
252.368	11.93
252.583	12.51
252.798	12.75
253.014	12.98
253.229	13.05
253.445	13.95
253.66	15.06
253.875	15.78
254.091	16.35
254.306	17.58
254.521	17.88
254.737	19.91
254.952	21.16
255.167	21.12
255.383	20.81
255.598	21.28
255.813	21.37
256.028	20.14
256.244	19.21
256.459	18.14
256.674	16.96
256.889	15.23
257.104	15.15
257.32	13.7
257.535	13.23
257.75	12.99
257.965	11.26
258.18	10
258.395	9.23
258.61	8.29
258.826	7.64
259.041	7.03
259.256	7.14
259.471	6.49
259.686	5.87
259.901	5.38
260.116	4.91
260.331	5.17
260.546	5.3
260.761	5.41
260.976	5.6
261.191	5.99
261.406	6.42
261.621	6.69
261.836	6.99
262.05	7.68
262.265	9.09
262.48	9.9
262.695	10.14
262.91	10.65
263.125	11.31
263.34	12.01
263.555	12.85
263.769	13.21
263.984	13.9
264.199	14.23
264.414	14.11
264.629	13.69
264.843	13.84
265.058	13.9
265.273	13.55
265.488	12.85
265.702	12.47
265.917	11.18
266.132	10.81
266.346	10.35
266.561	10.37
266.776	10.35
266.99	10.64
267.205	10.38
267.42	10.24
267.634	10.44
267.849	10.26
268.063	10.35
268.278	10.71
268.492	10.72
268.707	10.62
268.922	10.72
269.136	10.43
269.351	10.05
269.565	9.83
269.78	8.97
269.994	8.58
270.209	8.48
270.423	8.53
270.637	8.37
270.852	7.85
271.066	7.48
271.281	7.4
271.495	6.99
271.709	6.59
271.924	7.07
272.138	7.54
272.353	7.53
272.567	7.82
272.781	7.81
272.996	7.64
273.21	7.83
273.424	8.25
273.638	8
273.853	8.58
274.067	8.45
274.281	8.39
274.495	8.39
274.71	8.54
274.924	8.69
275.138	8.74
275.352	9.23
275.566	9.78
275.781	9.53
275.995	9.78
276.209	10.24
276.423	10.73
276.637	10.29
276.851	10.55
277.065	10.53
277.279	10.53
277.493	10.26
277.707	10.03
277.921	10.16
278.135	10.2
278.349	9.83
278.563	9.54
278.777	9.87
278.991	9.75
279.205	9.61
279.419	9.97
279.633	9.78
279.847	9.29
280.061	9.31
280.275	8.61
280.489	8.78
280.703	8.59
280.917	8.23
281.131	7.35
281.344	7.56
281.558	7.6
281.772	7.35
281.986	7.27
282.2	7.63
282.414	7.55
282.627	7.36
282.841	7.23
283.055	7.62
283.269	7.95
283.482	7.89
283.696	7.83
283.91	7.63
284.123	7.26
284.337	6.97
284.551	6.81
284.764	6.73
284.978	6.8
285.192	6.67
285.405	6.63
285.619	6.4
285.833	6.47
286.046	6.49
286.26	6.49
286.473	6.73
286.687	6.72
286.9	6.94
287.114	6.91
287.327	7.05
287.541	6.73
287.754	6.9
287.968	7.08
288.181	7.1
288.395	6.63
288.608	6.76
288.822	6.53
289.035	6.59
289.248	6.53
289.462	6.48
289.675	6.29
289.889	6.62
290.102	6.02
290.315	6.1
290.529	6.34
290.742	6.66
290.955	6.72
291.169	6.76
291.382	7.09
291.595	7.43
291.808	7.31
292.022	8.12
292.235	8.04
292.448	8.24
292.661	7.83
292.875	8.06
293.088	8.57
293.301	8.53
293.514	8.61
293.727	8.13
293.94	7.73
294.153	8
294.367	7.46
294.58	7.89
294.793	7.91
295.006	7.97
295.219	7.69
295.432	7.22
295.645	7.16
295.858	7.04
296.071	7.09
296.284	6.65
296.497	6.55
296.71	6.56
296.923	6.26
297.136	5.89
297.349	5.83
297.562	5.62
297.775	5.55
297.988	5.81
298.201	6.17
298.414	6.41
298.626	6.78
298.839	6.84
299.052	6.91
299.265	7.28
299.478	7.82
299.691	8.29
299.903	8.79
300.116	8.92
300.329	8.72
300.542	8.29
300.755	8.13
300.967	8.04
301.18	8.32
301.393	8.68
301.605	8.51
301.818	8.67
302.031	8.59
302.243	8.79
302.456	9.01
302.669	8.78
302.881	9.2
303.094	9.4
303.307	9.82
303.519	9.59
303.732	9.12
303.944	9.25
304.157	9.39
304.37	9.42
304.582	9.08
304.795	8.81
305.007	8.8
305.22	8.9
305.432	9.01
305.645	8.58
305.857	8.91
306.069	9.1
306.282	8.89
306.494	8.33
306.707	8.46
306.919	8.51
307.132	8.63
307.344	8.47
307.556	8.02
307.769	7.81
307.981	7.91
308.193	7.42
308.406	7
308.618	6.84
308.83	6.95
309.043	6.94
309.255	6.71
309.467	6.84
309.679	6.82
309.892	6.77
310.104	6.82
310.316	6.52
310.528	6.6
310.74	6.55
310.953	6.69
311.165	6.82
311.377	6.6
311.589	6.74
311.801	6.85
312.013	6.92
312.225	7.06
312.437	7.23
312.649	7.57
312.862	7.61
313.074	8.14
313.286	8.22
313.498	8.23
313.71	8.49
313.922	8.51
314.134	8.94
314.346	9.48
314.558	9.55
314.77	9.23
314.982	9.55
315.193	9.99
315.405	9.62
315.617	9.53
315.829	9.89
316.041	9.86
316.253	9.99
316.465	9.82
316.677	9.87
316.888	10.29
317.1	10.17
317.312	10.39
317.524	10.37
317.736	11.35
317.947	11.9
318.159	11.86
318.371	12.29
318.583	12.58
318.794	12.46
319.006	11.82
319.218	11.53
319.43	11.94
319.641	11.67
319.853	12.22
320.064	12.05
320.276	12.01
320.488	11.8
320.699	11.76
320.911	12.04
321.123	12.02
321.334	12.78
321.546	13.01
321.757	12.93
321.969	13.36
322.18	13.13
322.392	13.38
322.603	13.35
322.815	14.01
323.026	13.77
323.238	13.4
323.449	13.37
323.661	13.55
323.872	13.82
324.083	13.68
324.295	13.88
324.506	14.12
324.718	13.81
324.929	13.86
325.14	13.74
325.352	14.07
325.563	14.32
325.774	14.38
325.986	14.15
326.197	13.97
326.408	15.07
326.62	15.06
326.831	14.88
327.042	15.58
327.253	16.17
327.464	16.81
327.676	17.78
327.887	18.32
328.098	19.18
328.309	20.24
328.52	21.36
328.732	21.48
328.943	21.97
329.154	22.33
329.365	22.39
329.576	23.16
329.787	23.64
329.998	23.47
330.209	23.67
330.42	23.82
330.631	23.74
330.842	24.22
331.053	24.77
331.264	24.77
331.475	25.49
331.686	26.05
331.897	26.15
332.108	26.24
332.319	26.24
332.53	27.06
332.741	27.61
332.952	28.33
333.163	27.76
333.374	27.21
333.585	27.78
333.795	28.15
334.006	28.09
334.217	28.43
334.428	28.18
334.639	28.68
334.849	28.75
335.06	28.78
335.271	28.81
335.482	29.62
335.692	30.22
335.903	30.54
336.114	30.08
336.325	30.38
336.535	30.38
336.746	30.78
336.957	30.98
337.167	31.15
337.378	31.53
337.589	31.43
337.799	31.24
338.01	31.52
338.22	31.59
338.431	32.16
338.642	32.14
338.852	32.3
339.063	32.62
339.273	32.49
339.484	32.06
339.694	32.04
339.905	32.01
340.115	32.42
340.326	32.4
340.536	32.35
340.746	32.21
340.957	32.48
341.167	32.34
341.378	31.96
341.588	32.07
341.799	32.53
342.009	32.3
342.219	32.52
342.43	32.03
342.64	31.72
342.85	31.76
343.061	31.69
343.271	31.35
343.481	31.36
343.691	31.63
343.902	31.35
344.112	31.37
344.322	31.5
344.532	31.19
344.743	31.48
344.953	31.81
345.163	31.71
345.373	32.02
345.583	32
345.793	31.91
346.004	31.99
346.214	32.1
346.424	31.59
346.634	31.56
346.844	31.75
347.054	31.61
347.264	31.66
347.474	31.42
347.684	31.16
347.894	31.17
348.104	31.27
348.314	31.17
348.524	31.52
348.734	31.59
348.944	31.82
349.154	31.56
349.364	31.24
349.574	31.04
349.784	31.54
349.994	31.77
350.204	31.95
350.413	31.86
350.623	31.83
350.833	31.47
351.043	31.65
351.253	31.28
351.463	31.41
351.672	31.89
351.882	32.02
352.092	31.54
352.302	31.29
352.511	31.43
352.721	31
352.931	30.73
353.141	30.6
353.35	30.31
353.56	30.31
353.77	30.88
353.979	30.39
354.189	30.25
354.399	30.31
354.608	30.43
354.818	30.16
355.027	30.41
355.237	30.54
355.447	30.35
355.656	30.49
355.866	30.56
356.075	29.94
356.285	30.33
356.494	30.3
356.704	30.2
356.913	30.04
357.123	29.86
357.332	29.78
357.542	29.69
357.751	29.62
357.96	29.63
358.17	29.63
358.379	29.65
358.589	29.53
358.798	29.36
359.007	29.73
359.217	29.51
359.426	29.67
359.635	29.7
359.845	29.75
360.054	29.76
360.263	29.8
360.472	29.56
360.682	29.39
360.891	29.08
361.1	29.28
361.309	28.86
361.519	28.72
361.728	28.76
361.937	28.81
362.146	28.84
362.355	28.76
362.564	28.78
362.774	28.57
362.983	28.47
363.192	28.53
363.401	28.17
363.61	28.24
363.819	28.41
364.028	28.4
364.237	28.29
364.446	28.06
364.655	28.48
364.864	28.42
365.073	28.79
365.282	29.15
365.491	29.16
365.7	28.99
365.909	29.11
366.118	29.27
366.327	29.01
366.536	29.08
366.745	29.2
366.954	29.13
367.162	28.93
367.371	28.7
367.58	28.55
367.789	28.56
367.998	28.94
368.207	28.98
368.415	28.88
368.624	28.91
368.833	28.78
369.042	28.77
369.25	28.82
369.459	29.16
369.668	29.46
369.877	29.27
370.085	29.34
370.294	29.3
370.503	29.1
370.711	29.14
370.92	29.19
371.129	29.36
371.337	29.37
371.546	29.28
371.754	28.97
371.963	28.81
372.171	29.03
372.38	29.06
372.589	29.03
372.797	29.04
373.006	28.9
373.214	28.84
373.423	28.64
373.631	28.56
373.84	28.52
374.048	28.71
374.256	28.94
374.465	28.8
374.673	28.83
374.882	28.78
375.09	28.84
375.298	29.05
375.507	29.09
375.715	29.11
375.923	29.15
376.132	29.24
376.34	29.08
376.548	29.08
376.757	29.09
376.965	28.96
377.173	28.9
377.381	28.74
377.59	28.46
377.798	28.34
378.006	28.15
378.214	28.28
378.423	28.07
378.631	27.85
378.839	27.53
379.047	27.62
379.255	27.45
379.463	27.72
379.671	27.65
379.879	27.71
380.088	27.72
380.296	27.79
380.504	27.47
380.712	27.58
380.92	28.04
381.128	28.26
381.336	27.89
381.544	27.89
381.752	27.67
381.96	27.91
382.168	27.91
382.376	28.15
382.584	28.13
382.791	28.29
382.999	28.19
383.207	27.7
383.415	27.88
383.623	28.03
383.831	28.09
384.039	28.16
384.247	28.08
384.454	28.18
384.662	28.15
384.87	28.44
385.078	28.16
385.285	27.96
385.493	28.17
385.701	27.84
385.909	27.92
386.116	28.14
386.324	28.2
386.532	28.08
386.739	28.06
386.947	28.09
387.155	27.91
387.362	28.05
387.57	28.29
387.778	28.33
387.985	28.18
388.193	28.38
388.4	28.31
388.608	28.27
388.816	28.51
389.023	28.47
389.231	28.28
389.438	28.28
389.646	28.52
389.853	28.7
390.061	28.58
390.268	28.78
390.475	28.55
390.683	28.49
390.89	28.22
391.098	28.09
391.305	28.02
391.512	27.92
391.72	27.9
391.927	27.68
392.135	27.32
392.342	27.37
392.549	27.4
392.756	27.25
392.964	27.11
393.171	27.23
393.378	26.93
393.586	26.92
393.793	26.93
394	26.99
394.207	27.12
394.414	27.36
394.622	27.3
394.829	27.41
395.036	27.45
395.243	27.48
395.45	27.37
395.657	27.59
395.864	27.73
396.072	27.9
396.279	27.81
396.486	27.89
396.693	27.67
396.9	27.64
397.107	27.41
397.314	27.58
397.521	27.62
397.728	27.82
397.935	27.97
398.142	27.64
398.349	27.49
398.556	27.57
398.763	27.43
398.97	27.64
399.177	27.72
399.383	27.71
399.59	27.55
399.797	27.63
400.004	27.41
400.211	27.31
400.418	27.64
400.625	27.72
400.831	27.68
401.038	27.52
401.245	27.28
401.452	27.4
401.658	27.48
401.865	27.71
402.072	27.78
402.279	28.03
402.485	28.31
402.692	28.16
402.899	28.09
403.105	28.04
403.312	28.08
403.519	28.15
403.725	28.02
403.932	27.95
404.138	27.84
404.345	27.53
404.552	27.43
404.758	27.26
404.965	27.35
405.171	27.35
405.378	27.46
405.584	27.63
405.791	27.73
405.997	27.86
406.204	27.95
406.41	28.05
406.617	28.28
406.823	28.42
407.029	28.52
407.236	28.58
407.442	28.68
407.649	28.82
407.855	28.74
408.061	28.86
408.268	28.69
408.474	28.67
408.68	28.67
408.887	28.67
409.093	28.56
409.299	28.48
409.505	28.28
409.712	28.22
409.918	28.12
410.124	28.28
410.33	27.97
410.537	28.13
410.743	28.16
410.949	28.15
411.155	28.34
411.361	28.48
411.567	28.47
411.773	28.53
411.98	28.53
412.186	28.47
412.392	28.31
412.598	28.35
412.804	28.45
413.01	28.57
413.216	28.49
413.422	28.4
413.628	28.4
413.834	28.54
414.04	28.54
414.246	28.38
414.452	28.47
414.658	28.51
414.864	28.71
415.07	28.56
415.275	28.29
415.481	28.28
415.687	28.13
415.893	27.95
416.099	27.95
416.305	28.05
416.511	28.12
416.716	28.04
416.922	27.92
417.128	27.76
417.334	27.77
417.539	27.79
417.745	27.79
417.951	27.74
418.157	27.8
418.362	27.73
418.568	27.72
418.774	27.8
418.979	27.71
419.185	27.78
419.391	27.76
419.596	27.68
419.802	27.69
420.008	27.7
420.213	27.17
420.419	27.14
420.624	27.05
420.83	27.02
421.035	26.98
421.241	26.92
421.446	26.79
421.652	26.78
421.857	26.71
422.063	26.76
422.268	26.74
422.474	27.17
422.679	27.17
422.885	27.24
423.09	27.24
423.295	27.23
423.501	27.36
423.706	27.38
423.911	27.34
424.117	27.36
424.322	27.37
424.527	27.31
424.733	27.35
424.938	27.37
425.143	27.32
425.349	27.27
425.554	27.24
425.759	27.22
425.964	27.33
426.169	27.48
426.375	27.57
426.58	27.59
426.785	27.73
426.99	27.82
427.195	27.97
427.4	28.11
427.605	28.22
427.811	28.48
428.016	28.46
428.221	28.25
428.426	28.29
428.631	28.32
428.836	28.21
429.041	28.23
429.246	28.35
429.451	28.43
429.656	28.37
429.861	28.44
430.066	28.37
430.271	28.47
430.476	28.74
430.681	28.6
430.886	28.71
431.09	28.76
431.295	28.83
431.5	28.84
431.705	28.71
431.91	28.65
432.115	28.6
432.32	28.48
432.524	28.5
432.729	28.46
432.934	28.56
433.139	28.58
433.343	28.61
433.548	28.52
433.753	28.51
433.958	28.4
434.162	28.44
434.367	28.48
434.572	28.53
434.776	28.46
434.981	28.55
435.186	28.57
435.39	28.44
435.595	28.46
435.799	28.41
436.004	28.38
436.209	28.45
436.413	28.45
436.618	28.4
436.822	28.41
437.027	28.53
437.231	28.34
437.436	28.35
437.64	28.3
437.845	28.36
438.049	28.42
438.253	28.43
438.458	28.42
438.662	28.4
438.867	28.37
439.071	28.41
439.275	28.29
439.48	28.33
439.684	28.34
439.888	28.34
440.093	28.31
440.297	28.31
440.501	28.23
440.706	28.24
440.91	28.25
441.114	28.29
441.318	28.19
441.523	28.2
441.727	28.27
441.931	28.24
442.135	28.24
442.339	28.25
442.543	28.27
442.748	28.34
442.952	28.35
443.156	28.46
443.36	28.51
443.564	28.53
443.768	28.64
443.972	28.55
444.176	28.58
444.38	28.61
444.584	28.57
444.788	28.49
444.992	28.45
445.196	28.43
445.4	28.39
445.604	28.35
445.808	28.3
446.012	28.29
446.216	28.27
446.42	28.13
446.624	28.17
446.828	28.2
447.032	28.17
447.235	28.14
447.439	28.2
447.643	28.15
447.847	28.17
448.051	28.31
448.254	28.16
448.458	28.21
448.662	28.35
448.866	28.31
449.069	28.28
449.273	28.41
449.477	28.46
449.681	28.56
449.884	28.64
450.088	28.6
450.292	28.51
450.495	28.69
450.699	28.69
450.902	28.64
451.106	28.75
451.31	28.81
451.513	28.8
451.717	28.91
451.92	28.75
452.124	28.72
452.327	28.7
452.531	28.81
452.734	28.73
452.938	28.76
453.141	28.76
453.345	28.58
453.548	28.53
453.752	28.46
453.955	28.46
454.158	28.48
454.362	28.42
454.565	28.56
454.769	28.55
454.972	28.64
455.175	28.77
455.379	28.84
455.582	28.93
455.785	28.94
455.988	29.02
456.192	29.01
456.395	28.96
456.598	29.03
456.801	28.93
457.005	28.94
457.208	28.99
457.411	28.87
457.614	28.96
457.817	29.01
458.021	29
458.224	28.87
458.427	28.66
458.63	28.67
458.833	28.68
459.036	28.66
459.239	28.58
459.442	28.44
459.645	28.45
459.848	28.36
460.051	28.33
460.254	28.24
460.457	28.22
460.66	28.23
460.863	28.21
461.066	28.13
461.269	28.16
461.472	28.25
461.675	28.18
461.878	28.07
462.081	28.05
462.284	28.14
462.486	28.27
462.689	28.35
462.892	28.42
463.095	28.41
463.298	28.59
463.5	28.54
463.703	28.43
463.906	28.59
464.109	28.66
464.311	28.79
464.514	28.8
464.717	28.81
464.92	28.88
465.122	28.97
465.325	29.15
465.528	29.16
465.73	29.34
465.933	29.33
466.135	29.28
466.338	29.27
466.541	29.24
466.743	29.17
466.946	29.16
467.148	28.99
467.351	28.91
467.553	28.87
467.756	28.9
467.958	28.9
468.161	28.86
468.363	28.94
468.566	28.93
468.768	28.82
468.971	28.71
469.173	28.68
469.375	28.77
469.578	28.74
469.78	28.71
469.983	28.51
470.185	28.35
470.387	28.41
470.59	28.42
470.792	28.59
470.994	28.58
471.196	28.64
471.399	28.6
471.601	28.61
471.803	28.84
472.005	28.82
472.208	28.83
472.41	28.95
472.612	28.99
472.814	29.09
473.016	29
473.218	29.15
473.421	29.25
473.623	29.2
473.825	29.25
474.027	29.06
474.229	29.18
474.431	29.19
474.633	29.19
474.835	29.1
475.037	28.98
475.239	29.14
475.441	29.12
475.643	29.1
475.845	29.16
476.047	29.17
476.249	29.33
476.451	29.17
476.653	29.23
476.855	29.11
477.057	29.13
477.258	29.18
477.46	29.13
477.662	29.12
477.864	29.06
478.066	28.97
478.268	28.99
478.469	28.95
478.671	28.95
478.873	28.89
479.075	28.81
479.276	28.81
479.478	28.72
479.68	28.6
479.882	28.61
480.083	28.63
480.285	28.73
480.487	28.62
480.688	28.49
480.89	28.52
481.091	28.41
481.293	28.36
481.495	28.3
481.696	28.24
481.898	28.2
482.099	28.07
482.301	27.97
482.502	27.87
482.704	27.82
482.905	27.82
483.107	27.7
483.308	27.68
483.51	27.66
483.711	27.61
483.913	27.61
484.114	27.57
484.315	27.54
484.517	27.53
484.718	27.48
484.92	27.48
485.121	27.46
485.322	27.51
485.524	27.55
485.725	27.53
485.926	27.59
486.127	27.57
486.329	27.56
486.53	27.61
486.731	27.64
486.932	27.66
487.134	27.67
487.335	27.59
487.536	27.64
487.737	27.55
487.938	27.62
488.139	27.56
488.341	27.59
488.542	27.62
488.743	27.56
488.944	27.55
489.145	27.55
489.346	27.54
489.547	27.63
489.748	27.61
489.949	27.67
490.15	27.68
490.351	27.7
490.552	27.68
490.753	27.68
490.954	27.73
491.155	27.75
491.356	27.79
491.557	27.82
491.758	27.84
491.959	27.82
492.159	27.8
492.36	27.85
492.561	27.86
492.762	27.86
492.963	27.92
493.164	27.97
493.364	28.02
493.565	28.06
493.766	28.04
493.967	28.15
494.167	28.27
494.368	28.35
494.569	28.31
494.769	28.43
494.97	28.53
495.171	28.51
495.371	28.55
495.572	28.62
495.773	28.72
495.973	28.82
496.174	28.69
496.375	28.6
496.575	28.65
496.776	28.69
496.976	28.67
497.177	28.62
497.377	28.7
497.578	28.63
497.778	28.62
497.979	28.67
498.179	28.66
498.38	28.78
498.58	28.84
498.78	28.89
498.981	29.03
499.181	29.04
499.382	29.08
499.582	29.06
499.782	29.12
499.983	29.18
500.183	29.09
500.383	29.12
500.584	29.09
500.784	29.08
500.984	29.02
501.184	28.93
501.385	29.01
501.585	29.01
501.785	29.02
501.985	29.08
502.185	28.99
502.386	29.02
502.586	29
502.786	29.01
502.986	29.03
503.186	29.14
503.386	29.21
503.586	29.24
503.786	29.2
503.987	29.32
504.187	29.34
504.387	29.35
504.587	29.39
504.787	29.46
504.987	29.5
505.187	29.57
505.387	29.55
505.587	29.5
505.786	29.49
505.986	29.68
506.186	29.62
506.386	29.75
506.586	29.78
506.786	29.74
506.986	29.71
507.186	29.67
507.386	29.68
507.585	29.66
507.785	29.66
507.985	29.68
508.185	29.63
508.384	29.63
508.584	29.48
508.784	29.5
508.984	29.51
509.183	29.57
509.383	29.65
509.583	29.69
509.782	29.72
509.982	29.71
510.182	29.81
510.381	29.76
510.581	29.77
510.781	29.74
510.98	29.81
511.18	29.9
511.379	29.85
511.579	29.82
511.778	29.85
511.978	29.8
512.177	29.92
512.377	29.77
512.576	29.82
512.776	29.76
512.975	29.98
513.175	29.97
513.374	29.99
513.573	30.01
513.773	30.07
513.972	30.02
514.172	30.1
514.371	30.08
514.57	30.15
514.77	30.22
514.969	30.31
515.168	30.23
515.367	30.17
515.567	30.22
515.766	30.39
515.965	30.4
516.164	30.42
516.364	30.39
516.563	30.37
516.762	30.39
516.961	30.31
517.16	30.36
517.359	30.33
517.559	30.41
517.758	30.33
517.957	30.29
518.156	30.27
518.355	30.27
518.554	30.31
518.753	30.28
518.952	30.25
519.151	30.3
519.35	30.23
519.549	30.17
519.748	30.14
519.947	30.09
520.146	30.07
520.345	30.01
520.544	29.99
520.743	30.01
520.942	30.07
521.141	30.06
521.339	30.12
521.538	30.17
521.737	30.12
521.936	30.21
522.135	30.33
522.333	30.3
522.532	30.4
522.731	30.46
522.93	30.52
523.129	30.53
523.327	30.55
523.526	30.54
523.725	30.59
523.923	30.7
524.122	30.62
524.321	30.6
524.519	30.53
524.718	30.44
524.917	30.44
525.115	30.35
525.314	30.28
525.512	30.32
525.711	30.25
525.909	30.24
526.108	30.25
526.306	30.26
526.505	30.22
526.703	30.25
526.902	30.26
527.1	30.13
527.299	30.12
527.497	30.11
527.696	30.05
527.894	30.02
528.092	29.96
528.291	29.94
528.489	29.87
528.688	29.84
528.886	29.81
529.084	29.84
529.283	29.87
529.481	29.82
529.679	29.75
529.877	29.74
530.076	29.73
530.274	29.77
530.472	29.77
530.67	29.77
530.869	29.81
531.067	29.86
531.265	29.85
531.463	29.9
531.661	29.94
531.859	29.99
532.057	30.05
532.255	30.14
532.454	30.17
532.652	30.2
532.85	30.3
533.048	30.32
533.246	30.3
533.444	30.3
533.642	30.29
533.84	30.36
534.038	30.42
534.236	30.4
534.434	30.37
534.632	30.27
534.83	30.26
535.027	30.27
535.225	30.32
535.423	30.36
535.621	30.35
535.819	30.41
536.017	30.44
536.215	30.45
536.412	30.45
536.61	30.43
536.808	30.51
537.006	30.55
537.203	30.53
537.401	30.51
537.599	30.49
537.797	30.57
537.994	30.59
538.192	30.66
538.39	30.65
538.587	30.72
538.785	30.92
538.983	30.93
539.18	31.05
539.378	31.19
539.575	31.31
539.773	31.39
539.97	31.4
540.168	31.38
540.366	31.42
540.563	31.54
540.761	31.55
540.958	31.52
541.155	31.5
541.353	31.43
541.55	31.36
541.748	31.26
541.945	31.26
542.143	31.22
542.34	31.25
542.537	31.19
542.735	31.16
542.932	31.16
543.129	31.19
543.327	31.36
543.524	31.53
543.721	31.68
543.919	31.89
544.116	32.02
544.313	32.25
544.51	32.44
544.708	32.65
544.905	32.78
545.102	33.07
545.299	33.25
545.496	33.31
545.693	33.36
545.891	33.34
546.088	33.29
546.285	33.19
546.482	33.06
546.679	33.02
546.876	33.02
547.073	32.89
547.27	32.71
547.467	32.69
547.664	32.58
547.861	32.47
548.058	32.52
548.255	32.48
548.452	32.68
548.649	32.78
548.846	32.8
549.043	32.75
549.24	32.81
549.437	32.95
549.633	32.84
549.83	32.95
550.027	33.07
550.224	33.05
550.421	33.17
550.618	32.94
550.814	32.86
551.011	32.76
551.208	32.71
551.405	32.77
551.601	32.67
551.798	32.62
551.995	32.54
552.191	32.4
552.388	32.35
552.585	32.39
552.781	32.4
552.978	32.37
553.175	32.4
553.371	32.38
553.568	32.39
553.764	32.29
553.961	32.27
554.157	32.3
554.354	32.23
554.55	32.2
554.747	32.03
554.943	32.16
555.14	32.31
555.336	32.38
555.533	32.38
555.729	32.35
555.926	32.5
556.122	32.61
556.318	32.57
556.515	32.71
556.711	32.76
556.907	32.84
557.104	32.88
557.3	32.72
557.496	32.8
557.693	32.95
557.889	33.1
558.085	32.97
558.281	33.06
558.478	32.97
558.674	33.06
558.87	33.12
559.066	33.2
559.262	33.19
559.459	33.25
559.655	33.13
559.851	33.17
560.047	33.13
560.243	33.27
560.439	33.05
560.635	33.22
560.831	33.12
561.027	33.07
561.223	33.02
561.419	33.03
561.615	33.02
561.811	33.07
562.007	32.93
562.203	33.01
562.399	32.95
562.595	33.05
562.791	33.07
562.987	33.21
563.183	33.26
563.379	33.25
563.575	33.23
563.771	33.34
563.966	33.23
564.162	33.25
564.358	33.07
564.554	32.84
564.75	32.83
564.945	32.67
565.141	32.51
565.337	32.48
565.533	32.37
565.728	32.3
565.924	32.23
566.12	32.21
566.315	32.14
566.511	32.2
566.707	32.38
566.902	32.25
567.098	32.34
567.293	32.44
567.489	32.29
567.684	32.37
567.88	32.46
568.076	32.38
568.271	32.35
568.467	32.45
568.662	32.43
568.858	32.38
569.053	32.55
569.248	32.54
569.444	32.39
569.639	32.4
569.835	32.5
570.03	32.51
570.225	32.58
570.421	32.62
570.616	32.56
570.812	32.51
571.007	32.4
571.202	32.27
571.397	32.22
571.593	32.26
571.788	32.27
571.983	32.15
572.178	32.07
572.374	32.04
572.569	31.98
572.764	31.94
572.959	31.94
573.154	32.05
573.35	32.07
573.545	32.12
573.74	32.15
573.935	32.08
574.13	32.03
574.325	32.04
574.52	32.12
574.715	32.2
574.91	32.29
575.105	32.39
575.3	32.46
575.495	32.63
575.69	32.58
575.885	32.73
576.08	32.81
576.275	32.92
576.47	32.98
576.665	33.01
576.86	33.26
577.055	33.28
577.25	33.29
577.444	33.33
577.639	33.43
577.834	33.58
578.029	33.56
578.224	33.62
578.418	33.71
578.613	33.9
578.808	33.94
579.003	33.7
579.197	33.87
579.392	33.82
579.587	33.87
579.781	33.75
579.976	33.82
580.171	33.79
580.365	34.04
580.56	34.14
580.755	34
580.949	33.93
581.144	34.1
581.338	34.12
581.533	34.19
581.727	34.16
581.922	34.28
582.116	34.26
582.311	34.3
582.505	34.36
582.7	34.31
582.894	34.43
583.089	34.62
583.283	34.57
583.478	34.58
583.672	34.64
583.866	34.93
584.061	34.9
584.255	34.92
584.449	35.02
584.644	35.03
584.838	35.02
585.032	35
585.226	34.98
585.421	34.86
585.615	34.89
585.809	34.91
586.003	35.01
586.198	35.05
586.392	35.21
586.586	35.2
586.78	35.1
586.974	35.11
587.168	35.11
587.363	35.06
587.557	35.21
587.751	35.21
587.945	35.1
588.139	34.84
588.333	34.8
588.527	34.7
588.721	34.55
588.915	34.42
589.109	34.37
589.303	34.33
589.497	34.45
589.691	34.34
589.885	34.25
590.079	34.31
590.273	34.35
590.466	34.35
590.66	34.36
590.854	34.53
591.048	34.72
591.242	34.87
591.436	35.1
591.629	35.03
591.823	35.27
592.017	35.33
592.211	35.32
592.404	35.38
592.598	35.42
592.792	35.47
592.986	35.54
593.179	35.63
593.373	35.45
593.567	35.27
593.76	35.22
593.954	35.05
594.147	35.05
594.341	35.02
594.535	34.85
594.728	34.84
594.922	34.69
595.115	34.45
595.309	34.19
595.502	34.2
595.696	34.19
595.889	34.23
596.083	34.29
596.276	34.27
596.47	34.29
596.663	34.32
596.856	34.15
597.05	34.17
597.243	34.44
597.437	34.61
597.63	34.8
597.823	34.76
598.017	34.73
598.21	34.69
598.403	34.72
598.596	34.8
598.79	34.95
598.983	35.19
599.176	35.27
599.369	35.2
599.563	35.18
599.756	35.22
599.949	35.33
600.142	35.51
600.335	35.46
600.528	35.4
600.722	35.43
600.915	35.38
601.108	35.23
601.301	35.2
601.494	34.93
601.687	34.91
601.88	34.74
602.073	34.53
602.266	34.45
602.459	34.51
602.652	34.54
602.845	34.52
603.038	34.45
603.231	34.37
603.424	34.26
603.617	34.32
603.809	34.13
604.002	34.05
604.195	34.22
604.388	34.2
604.581	34.21
604.774	34.13
604.966	34.06
605.159	34.06
605.352	34.08
605.545	34.19
605.737	34.25
605.93	34.38
606.123	34.38
606.316	34.42
606.508	34.7
606.701	34.85
606.894	35.05
607.086	35.38
607.279	35.55
607.471	35.75
607.664	36.13
607.857	36.39
608.049	36.87
608.242	37.52
608.434	38.11
608.627	38.48
608.819	39.09
609.012	39.98
609.204	40.75
609.397	41.66
609.589	42.77
609.782	43.75
609.974	45.05
610.166	46.26
610.359	47.31
610.551	48.29
610.743	49.34
610.936	50.15
611.128	50.65
611.32	51.26
611.513	51.55
611.705	51.75
611.897	51.79
612.09	51.32
612.282	50.78
612.474	50.13
612.666	49.51
612.858	48.63
613.051	48.13
613.243	47.69
613.435	46.99
613.627	46.62
613.819	46.15
614.011	45.84
614.203	45.5
614.395	45.13
614.588	44.95
614.78	44.42
614.972	44.19
615.164	43.71
615.356	43.02
615.548	42.57
615.74	42.03
615.932	41.61
616.124	40.97
616.315	40.7
616.507	40.56
616.699	40.09
616.891	40.02
617.083	39.65
617.275	39.37
617.467	39.39
617.659	39.38
617.85	39.21
618.042	39
618.234	38.81
618.426	38.48
618.618	38.34
618.809	38.24
619.001	38
619.193	38.24
619.384	38.06
619.576	37.91
619.768	37.69
619.959	37.79
620.151	37.7
620.343	37.79
620.534	37.66
620.726	37.73
620.917	37.84
621.109	37.83
621.301	37.64
621.492	38
621.684	38.14
621.875	38.48
622.067	38.55
622.258	38.77
622.45	38.82
622.641	38.99
622.832	38.85
623.024	38.86
623.215	39.08
623.407	39.23
623.598	39.21
623.789	39.38
623.981	39.08
624.172	39.11
624.363	39.13
624.555	39.15
624.746	39.09
624.937	38.87
625.129	38.8
625.32	38.8
625.511	38.69
625.702	38.55
625.893	38.35
626.085	38.29
626.276	37.99
626.467	37.74
626.658	37.52
626.849	37.62
627.04	37.62
627.231	37.5
627.422	37.4
627.614	37.29
627.805	37.32
627.996	37.32
628.187	37.57
628.378	37.79
628.569	38.01
628.76	38.32
628.951	38.52
629.142	38.68
629.332	39.08
629.523	39.27
629.714	39.51
629.905	39.7
630.096	39.86
630.287	39.94
630.478	40.1
630.669	40.25
630.859	40.22
631.05	40.14
631.241	40.11
631.432	39.76
631.623	39.36
631.813	39.4
632.004	39.22
632.195	39.14
632.385	38.78
632.576	38.4
632.767	38.01
632.957	37.78
633.148	37.54
633.339	37.42
633.529	37.45
633.72	37.67
633.91	37.54
634.101	37.39
634.292	37.22
634.482	37.1
634.673	36.91
634.863	37.04
635.054	37.14
635.244	37.09
635.435	37.23
635.625	37.28
635.815	37.24
636.006	36.94
636.196	36.85
636.387	36.86
636.577	36.95
636.767	37.35
636.958	37.26
637.148	37.26
637.338	37.47
637.529	37.52
637.719	37.38
637.909	37.24
638.099	37.41
638.29	37.55
638.48	37.46
638.67	37.37
638.86	37.4
639.05	37.35
639.241	37.35
639.431	37.23
639.621	37.07
639.811	37.19
640.001	37.17
640.191	37.28
640.381	37.42
640.571	37.56
640.761	37.87
640.951	37.76
641.141	37.77
641.331	37.82
641.521	37.94
641.711	38.24
641.901	38.29
642.091	38.71
642.281	38.91
642.471	38.82
642.661	38.99
642.851	38.99
643.041	39.12
643.231	39.18
643.42	39.2
643.61	39.08
643.8	38.85
643.99	38.87
644.18	38.5
644.369	38.44
644.559	38.39
644.749	38.34
644.939	38.38
645.128	38.34
645.318	38.37
645.508	38.29
645.697	38.38
645.887	38.25
646.076	38.24
646.266	38.52
646.456	38.46
646.645	38.68
646.835	38.73
647.024	38.63
647.214	38.5
647.403	38.36
647.593	38.58
647.782	38.58
647.972	38.68
648.161	38.65
648.351	38.51
648.54	38.64
648.73	38.48
648.919	38.46
649.108	38.45
649.298	38.58
649.487	38.75
649.677	38.56
649.866	38.68
650.055	38.66
650.244	38.81
650.434	38.8
650.623	38.62
650.812	38.71
651.002	38.62
651.191	38.82
651.38	39.03
651.569	39.11
651.758	39.26
651.947	39.16
652.137	39.13
652.326	38.96
652.515	39
652.704	39.16
652.893	39.19
653.082	39.26
653.271	39.33
653.46	39.15
653.649	39.31
653.838	39.29
654.027	39.31
654.216	39.48
654.405	39.55
654.594	39.69
654.783	39.35
654.972	39.37
655.161	39.37
655.35	39.09
655.539	39.12
655.728	39.18
655.916	38.89
656.105	38.79
656.294	38.67
656.483	38.79
656.672	38.71
656.86	38.79
657.049	38.57
657.238	38.47
657.427	38.59
657.615	38.44
657.804	38.13
657.993	38.07
658.181	37.99
658.37	37.96
658.559	37.66
658.747	37.4
658.936	37.45
659.125	37.55
659.313	37.38
659.502	37.26
659.69	37.22
659.879	37.1
660.067	37.34
660.256	37.26
660.444	37.39
660.633	37.61
660.821	37.72
661.01	37.96
661.198	37.94
661.387	38.39
661.575	38.56
661.763	38.71
661.952	39.03
662.14	39.15
662.328	39.6
662.517	39.76
662.705	39.94
662.893	40.09
663.082	40.14
663.27	40.03
663.458	40.05
663.646	40.23
663.834	40.33
664.023	40.49
664.211	40.46
664.399	40.37
664.587	40.48
664.775	40.27
664.963	40.45
665.152	40.36
665.34	40.64
665.528	40.54
665.716	40.51
665.904	40.45
666.092	40.38
666.28	40.25
666.468	40.22
666.656	40.37
666.844	40.66
667.032	40.68
667.22	40.63
667.408	40.86
667.596	41.23
667.784	40.92
667.971	40.94
668.159	41.05
668.347	41.05
668.535	41.2
668.723	40.71
668.911	40.45
669.098	40.44
669.286	40.53
669.474	40.09
669.662	39.79
669.849	40.09
670.037	40.42
670.225	40.18
670.413	40.08
670.6	40.04
670.788	40.53
670.976	40.84
671.163	40.93
671.351	40.81
671.538	41.45
671.726	41.46
671.913	41.28
672.101	41.18
672.289	41.22
672.476	41.49
672.664	41.47
672.851	41.25
673.039	41.24
673.226	41.4
673.413	41.45
673.601	41.05
673.788	40.97
673.976	41.01
674.163	41.05
674.35	41.11
674.538	41.13
674.725	41.48
674.912	41.64
675.1	41.92
675.287	41.82
675.474	41.88
675.662	41.83
675.849	42.1
676.036	42.37
676.223	42.33
676.411	42.48
676.598	42.53
676.785	42.22
676.972	41.89
677.159	41.48
677.346	41.14
677.533	41.2
677.721	41.33
677.908	41.08
678.095	40.79
678.282	40.71
678.469	40.5
678.656	40.31
678.843	40.15
679.03	40.19
679.217	40.07
679.404	40.33
679.591	40.15
679.778	39.94
679.964	40.03
680.151	40.06
680.338	39.99
680.525	39.96
680.712	40.03
680.899	40.17
681.086	40.31
681.272	40.51
681.459	40.36
681.646	40.64
681.833	40.72
682.02	40.58
682.206	40.6
682.393	40.79
682.58	40.69
682.766	40.82
682.953	40.98
683.14	40.82
683.326	40.82
683.513	41
683.7	40.92
683.886	41.05
684.073	41.44
684.259	41.43
684.446	41.35
684.632	41.87
684.819	41.8
685.005	41.63
685.192	41.96
685.378	41.99
685.565	42.01
685.751	41.9
685.938	41.87
686.124	41.76
686.31	42.31
686.497	42.33
686.683	42.18
686.87	42.22
687.056	42.19
687.242	42.08
687.429	42.19
687.615	42.47
687.801	42.57
687.987	42.7
688.174	42.77
688.36	42.34
688.546	42.52
688.732	42.53
688.918	42.5
689.105	42.69
689.291	42.66
689.477	42.72
689.663	42.44
689.849	42.45
690.035	42.56
690.221	42.75
690.407	43.34
690.593	43.36
690.779	43.44
690.965	43.89
691.151	43.94
691.337	44.21
691.523	44.2
691.709	44.5
691.895	44.44
692.081	44.49
692.267	44.56
692.453	44.24
692.639	44.24
692.825	44.12
693.011	43.79
693.196	43.88
693.382	43.74
693.568	43.73
693.754	43.51
693.94	43.87
694.125	43.9
694.311	43.67
694.497	43.51
694.682	44.01
694.868	44.2
695.054	44.38
695.239	44.47
695.425	44.44
695.611	44.43
695.796	44.26
695.982	43.79
696.168	43.61
696.353	43.57
696.539	43.54
696.724	42.96
696.91	42.51
697.095	42.34
697.281	41.61
697.466	41.28
697.652	41
697.837	40.64
698.023	40.83
698.208	40.89
698.393	40.53
698.579	40.35
698.764	40.13
698.949	40.42
699.135	40.34
699.32	40.65
699.505	40.86
699.691	40.84
699.876	41.13
700.061	41.15
700.246	41
700.432	41.58
700.617	41.77
700.802	42.11
700.987	42.24
701.172	42.7
701.358	42.95
701.543	43.38
701.728	43.63
701.913	44.47
702.098	44.83
702.283	45.58
702.468	45.43
702.653	45.65
702.838	46.12
703.023	46.63
703.208	46.59
703.393	46.95
703.578	47.12
703.763	47.98
703.948	47.55
704.133	47.64
704.318	47.81
704.503	48.45
704.688	49.09
704.873	49.4
705.057	49.55
705.242	50.18
705.427	50.48
705.612	50.6
705.797	50.53
705.981	51.39
706.166	52.18
706.351	51.82
706.536	52.06
706.72	51.76
706.905	51.49
707.09	51.41
707.274	51.21
707.459	51.04
707.644	51.42
707.828	51.47
708.013	50.91
708.197	50.38
708.382	50.3
708.567	50.02
708.751	50.11
708.936	49.9
709.12	50.05
709.305	49.66
709.489	49.6
709.673	49.13
709.858	49.29
710.042	49.38
710.227	49.29
710.411	49.6
710.596	49.66
710.78	49.25
710.964	49.18
711.149	49.2
711.333	49.29
711.517	49.56
711.702	49.04
711.886	48.88
712.07	48.43
712.254	48.29
712.438	48.08
712.623	47.93
712.807	47.97
712.991	47.98
713.175	47.52
713.359	47.31
713.544	46.69
713.728	46.88
713.912	46.67
714.096	46.75
714.28	46.42
714.464	46.11
714.648	45.58
714.832	45.56
715.016	45.18
715.2	45.23
715.384	45.42
715.568	45.5
715.752	45.23
715.936	45.47
716.12	45.31
716.304	45.75
716.488	45.88
716.671	45.87
716.855	45.62
717.039	45.74
717.223	45.42
717.407	45.1
717.59	45.13
717.774	45.32
717.958	44.96
718.142	44.77
718.325	44.12
718.509	43.91
718.693	44.32
718.877	44.72
719.06	45.01
719.244	45.43
719.428	45.59
719.611	45.83
719.795	46.14
719.978	46.31
720.162	47.29
720.345	47.31
720.529	47.55
720.713	47.9
720.896	48.1
721.08	48.2
721.263	48.44
721.446	48.88
721.63	49.21
721.813	49.17
721.997	49.29
722.18	48.81
722.364	49
722.547	48.9
722.73	48.78
722.914	48.34
723.097	48.64
723.28	48.49
723.464	47.95
723.647	47.66
723.83	47.36
724.013	47.22
724.197	47.18
724.38	47.53
724.563	47.59
724.746	47.88
724.929	48.5
725.112	48.02
725.296	47.84
725.479	47.71
725.662	47.78
725.845	48.34
726.028	47.91
726.211	48.1
726.394	48.04
726.577	48.01
726.76	47.66
726.943	46.73
727.126	46.87
727.309	46.74
727.492	46.72
727.675	46.45
727.858	46.78
728.041	46.8
728.224	46.85
728.407	46.6
728.589	46.75
728.772	46.55
728.955	47.29
729.138	47.29
729.321	47.75
729.503	48.08
729.686	47.92
729.869	47.12
730.052	47.39
730.234	47.25
730.417	47.4
730.6	47.19
730.782	47.14
730.965	46.62
731.148	46.59
731.33	45.82
731.513	45.95
731.695	46.18
731.878	46.92
732.061	47.12
732.243	47.23
732.426	47.48
732.608	47.53
732.791	47.85
732.973	47.96
733.156	48.36
733.338	48.94
733.52	49.03
733.703	49.04
733.885	48.86
734.068	48.76
734.25	48.71
734.432	48.57
734.615	49.23
734.797	49.5
734.979	49.43
735.162	49.69
735.344	49.66
735.526	49.34
735.708	49.92
735.891	50.98
736.073	50.98
736.255	51.16
736.437	51.18
736.619	50.56
736.802	50.04
736.984	50.94
737.166	50.84
737.348	50.6
737.53	51.06
737.712	50.95
737.894	50.4
738.076	50.38
738.258	50.41
738.44	50.41
738.622	50.58
738.804	51.18
738.986	50.69
739.168	50.12
739.35	50.87
739.532	51.01
739.714	50.72
739.896	50.41
740.078	50.71
740.259	50.69
740.441	51.1
740.623	51.1
740.805	50.83
740.987	51.52
741.168	51.99
741.35	51.5
741.532	51.54
741.714	52.11
741.895	52.36
742.077	52.76
742.259	53.16
742.44	53.32
742.622	54.2
742.804	54.86
742.985	54.67
743.167	55.03
743.348	55.06
743.53	55.27
743.711	55.74
743.893	55.73
744.075	55.29
744.256	55.05
744.438	55.43
744.619	55.63
744.8	55.8
744.982	56.28
745.163	56.59
745.345	57.71
745.526	58.31
745.707	58.06
745.889	57.89
746.07	58.48
746.252	58.16
746.433	58.22
746.614	57.41
746.795	56.55
746.977	56.47
747.158	56.25
747.339	56.04
747.52	55.93
747.702	55.82
747.883	56.52
748.064	56.5
748.245	56.89
748.426	57.12
748.607	57.31
748.788	57.54
748.97	56.92
749.151	56.88
749.332	56.54
749.513	56.16
749.694	55.82
749.875	56.33
750.056	56.41
750.237	56.76
750.418	56.55
750.599	56.53
750.78	56.73
750.96	57.35
751.141	57.76
751.322	57.18
751.503	56.97
751.684	57.24
751.865	56.82
752.046	56.43
752.226	56.35
752.407	55.66
752.588	56.13
752.769	56.61
752.949	56.69
753.13	56.49
753.311	56.65
753.492	56.6
753.672	56.29
753.853	56.16
754.034	56.54
754.214	56.83
754.395	56.5
754.575	56.8
754.756	56.32
754.937	56.56
755.117	56.95
755.298	57.64
755.478	58.13
755.659	58.08
755.839	57.21
756.02	56.39
756.2	56.14
756.381	56.86
756.561	57.49
756.741	57.36
756.922	56.9
757.102	56.8
757.283	56.72
757.463	56.94
757.643	57.81
757.823	57.75
758.004	58.03
758.184	56.93
758.364	56.83
758.545	55.03
758.725	54.55
758.905	53.6
759.085	52.3
759.265	51.49
759.446	50.67
759.626	50.27
759.806	50.18
759.986	49.68
760.166	49.99
760.346	48.91
760.526	49.26
760.706	49.1
760.886	48.88
761.066	49.01
761.246	49.1
761.426	48.7
761.606	48.33
761.786	47.98
761.966	47.75
762.146	47.11
762.326	47.44
762.506	47.05
762.686	46.28
762.866	46.53
763.046	45.91
763.225	45.95
763.405	45.82
763.585	45.54
763.765	45.43
763.945	45.42
764.124	45.94
764.304	45.83
764.484	45.88
764.664	46.69
764.843	46.24
765.023	47.28
765.203	47.45
765.382	47.74
765.562	48.06
765.741	48.62
765.921	49.66
766.101	49.96
766.28	51.01
766.46	51.81
766.639	52.18
766.819	53.26
766.998	53.51
767.178	53.72
767.357	54.97
767.537	55.81
767.716	56.79
767.896	57.1
768.075	57.02
768.254	56.5
768.434	56.78
768.613	56.6
768.792	57.59
768.972	57.35
769.151	58.15
769.33	58.38
769.51	58.26
769.689	58.3
769.868	58.2
770.047	58.96
770.226	59.91
770.406	60.35
770.585	61.26
770.764	61
770.943	62.11
771.122	61.93
771.301	60.81
771.48	61.14
771.66	61.47
771.839	61.77
772.018	61.95
772.197	62.3
772.376	61.62
772.555	62.85
772.734	62.74
772.913	62.94
773.092	63.14
773.271	64.09
773.449	64.61
773.628	65.15
773.807	65.65
773.986	66.71
774.165	66.02
774.344	67.44
774.523	66.56
774.701	66.6
774.88	66.34
775.059	65.87
775.238	66.12
775.417	66.5
775.595	65.9
775.774	65.24
775.953	64.45
776.131	65.06
776.31	64.36
776.489	64.9
776.667	64.94
776.846	64.36
777.025	64.03
777.203	63.6
777.382	63.19
777.56	63.52
777.739	64.37
777.917	65.36
778.096	65.05
778.274	65.15
778.453	65.01
778.631	64.95
778.81	65.66
778.988	67.22
779.166	67.63
779.345	68.15
779.523	67.31
779.702	67.77
779.88	66.74
780.058	67.1
780.237	67.61
780.415	67.56
780.593	68.35
780.771	68.06
780.95	67.12
781.128	67.72
781.306	66.42
781.484	66.52
781.662	65.49
781.841	65.23
782.019	65.62
782.197	63.49
782.375	62.64
782.553	61.9
782.731	61.04
782.909	62.12
783.087	62.53
783.265	62.99
783.443	63.36
783.621	63
783.799	64.04
783.977	63.93
784.155	65.99
784.333	67.39
784.511	68.48
784.689	69.73
784.867	68.94
785.045	67.36
785.223	67.13
785.4	66.45
785.578	67.06
785.756	67.3
785.934	67.2
786.112	67.71
786.289	66.59
786.467	65.93
786.645	65.84
786.823	65.58
787	65.85
787.178	65.19
787.356	64.04
787.533	63.12
787.711	62.24
787.889	62.54
788.066	61.47
788.244	61.73
788.421	60.48
788.599	59.02
788.776	59.43
788.954	59.54
789.131	59.87
789.309	61.85
789.486	62.49
789.664	62.35
789.841	61.89
790.019	62.07
790.196	63.09
790.373	64.62
790.551	67.17
790.728	66.79
790.906	67.46
791.083	67.45
791.26	67.5
791.437	67.34
791.615	67.33
791.792	66.83
791.969	67.07
792.146	66.38
792.324	67.39
792.501	66.5
792.678	66.12
792.855	64.69
793.032	65.17
793.209	65.11
793.387	66.12
793.564	66.8
793.741	67.18
793.918	68
794.095	67.14
794.272	65.84
794.449	65.22
794.626	65.73
794.803	67.83
794.98	68.38
795.157	67.72
795.334	66.3
795.511	66.08
795.688	65.67
795.864	64.85
796.041	64.03
796.218	63.69
796.395	65.13
796.572	64.56
796.749	63.79
796.925	62.68
797.102	62.7
797.279	62.99
797.456	62.57
797.632	63
797.809	62.58
797.986	63.19
798.162	63.63
798.339	60.85
798.516	61.53
798.692	60.83
798.869	62.26
799.046	63.59
799.222	63.82
799.399	63.52
799.575	63.87
799.752	64.93
799.928	65.35
800.105	65.55
800.281	67.07
800.458	67.25
800.634	67.92
800.811	67.53
800.987	67.21
801.163	66.84
801.34	67.79
801.516	66.87
801.692	65.75
801.869	66.23
802.045	66.06
802.221	66.32
802.398	66.23
802.574	66.65
802.75	67.34
802.926	68.52
803.103	70.48
803.279	70.08
803.455	70.61
803.631	71.12
803.807	71.37
803.983	72.34
804.16	72.77
804.336	73.2
804.512	73.12
804.688	73.06
804.864	70.65
805.04	69.9
805.216	71.5
805.392	73.09
805.568	74.76
805.744	73.44
805.92	73.7
806.096	73.53
806.272	72.52
806.448	74
806.623	73.3
806.799	74.12
806.975	74.01
807.151	73.07
807.327	72.99
807.503	71.12
807.678	73.66
807.854	73.75
808.03	74.06
808.206	75.63
808.381	73.73
808.557	73.99
808.733	74.11
808.908	73.81
809.084	73.87
809.26	73.16
809.435	73.44
809.611	70.67
809.787	71.25
809.962	71.88
810.138	70.37
810.313	70.87
810.489	71.78
810.664	71.4
810.84	69.97
811.015	70.46
811.191	70.34
811.366	70.02
811.542	71.59
811.717	69.69
811.892	68.64
812.068	69.76
812.243	68.18
812.419	68.16
812.594	68.13
812.769	68.63
812.944	68.43
813.12	69.27
813.295	70.88
813.47	70.74
813.645	71.73
813.821	72.72
813.996	74.34
814.171	76.24
814.346	75.73
814.521	75.52
814.697	77.58
814.872	77.31
815.047	76.34
815.222	75.15
815.397	75.05
815.572	75.22
815.747	74.43
815.922	72.58
816.097	72.72
816.272	72.47
816.447	74.42
816.622	73.67
816.797	73.74
816.972	72.87
817.147	72.64
817.322	72.8
817.496	71.22
817.671	70.16
817.846	68.83
818.021	68.29
818.196	68.79
818.371	66.61
818.545	65.6
818.72	64.75
818.895	64.15
819.069	61.81
819.244	60.35
819.419	60.35
819.594	61.18
819.768	60.45
819.943	58.2
820.117	55.5
820.292	53.42
820.467	51.49
820.641	49.73
820.816	47.61
820.99	46.9
821.165	45.51
821.339	44.12
821.514	42.71
821.688	41.99
821.863	41.13
822.037	40.66
822.212	40.23
822.386	39.72
822.56	39.08
822.735	39.09
822.909	38.71
823.084	38.94
823.258	39.04
823.432	38.95
823.606	38.79
823.781	39.18
823.955	39.51
824.129	40.04
824.303	40.91
824.478	42.21
824.652	42.8
824.826	43.97
825	44.17
825.174	44.76
825.348	45.96
825.523	47.27
825.697	47.58
825.871	48.21
826.045	48.38
826.219	48.87
826.393	48.07
826.567	48.12
826.741	47.7
826.915	47.64
827.089	47.35
827.263	47.12
827.437	46.91
827.611	47.49
827.784	47.9
827.958	47.42
828.132	46.79
828.306	47.23
828.48	47.74
828.654	47.95
828.827	48.79
829.001	49.99
829.175	50.28
829.349	51.08
829.522	51.22
829.696	52.34
829.87	54.03
830.044	55.7
830.217	57.55
830.391	58.31
830.565	59.52
830.738	60.81
830.912	61.81
831.085	61.73
831.259	62.97
831.432	62.84
831.606	61.5
831.779	61.79
831.953	60.57
832.126	58.71
832.3	59.38
832.473	58.39
832.647	57
832.82	55.56
832.994	56
833.167	53.89
833.34	53.84
833.514	53.27
833.687	53.1
833.86	52.52
834.034	52.32
834.207	51.63
834.38	51.46
834.553	51.26
834.727	50.84
834.9	51.66
835.073	52.48
835.246	52.79
835.419	53.67
835.593	53.39
835.766	54.79
835.939	56.82
836.112	59.09
836.285	61.54
836.458	62.09
836.631	63.57
836.804	63.58
836.977	65.18
837.15	67.74
837.323	69.02
837.496	72.17
837.669	75.64
837.842	76.65
838.015	76.05
838.188	75.7
838.361	78.37
838.533	79.02
838.706	82.88
838.879	83.78
839.052	83.95
839.225	84.92
839.398	83.74
839.57	81.65
839.743	80.04
839.916	77.98
840.088	80.93
840.261	82.05
840.434	84.46
840.607	82.5
840.779	81.95
840.952	81.56
841.124	81.54
841.297	80.9
841.47	80.33
841.642	82.57
841.815	85.06
841.987	83.78
842.16	84.93
842.332	83.64
842.505	83.74
842.677	85.2
842.85	85.34
843.022	84.37
843.194	86.01
843.367	88.8
843.539	88.44
843.712	88.32
843.884	88.8
844.056	90.99
844.229	92.69
844.401	93.5
844.573	93.93
844.745	95.8
844.918	98.47
845.09	102.14
845.262	101.74
845.434	105.03
845.606	107.56
845.779	108.06
845.951	108.53
846.123	107.89
846.295	108.09
846.467	106.34
846.639	104.92
846.811	105.99
846.983	104.49
847.155	108.39
847.327	109.28
847.499	112.49
847.671	111.01
847.843	109.51
848.015	112.94
848.187	115.26
848.359	117.75
848.531	120.25
848.703	119.72
848.875	124.9
849.047	118.73
849.218	114.41
849.39	113.28
849.562	116.98
849.734	116.24
849.905	119.26
850.077	120.22
850.249	120.25
850.421	121.69
850.592	120.9
850.764	119.57
850.936	127.36
851.107	133.1
851.279	135.37
851.451	137.95
851.622	135.34
851.794	132.31
851.965	130.97
852.137	131.72
852.308	134.44
852.48	135.14
852.651	135.29
852.823	127.79
852.994	124.53
853.166	120.87
853.337	112.9
853.509	113.82
853.68	109.58
853.851	108.33
854.023	109.07
854.194	107.02
854.365	110.78
854.537	108.8
854.708	108.19
854.879	109
855.05	111.47
855.222	114.13
855.393	114.71
855.564	117.49
855.735	118.71
855.906	120.55
856.078	117.73
856.249	110.07
856.42	107.6
856.591	110.64
856.762	106.72
856.933	105.71
857.104	109.54
857.275	109.69
857.446	112.45
857.617	115.45
857.788	109.87
857.959	109.27
858.13	112.67
858.301	119.74
858.472	119.78
858.643	125.02
858.814	124.63
858.985	120.2
859.155	123.98
859.326	127.28
859.497	124.59
859.668	129.7
859.839	138.26
860.009	143.16
860.18	138.14
860.351	130.94
860.522	137.19
860.692	138.46
860.863	142.31
861.034	142.5
861.204	140.78
861.375	141.28
861.546	136.69
861.716	130.59
861.887	128.36
862.057	129.14
862.228	133.22
862.398	133
862.569	136.45
862.739	132.22
862.91	124.84
863.08	120.21
863.251	119.91
863.421	124.3
863.592	124.01
863.762	122.7
863.932	124.55
864.103	121.33
864.273	120.49
864.443	114.4
864.614	115.53
864.784	114.86
864.954	119.19
865.125	122.32
865.295	119.86
865.465	118.69
865.635	116.11
865.805	118.64
865.976	123.39
866.146	121.25
866.316	125.11
866.486	127.32
866.656	136.73
866.826	136.5
866.996	134.63
867.166	129.66
867.336	131.71
867.506	134.85
867.676	125.16
867.846	122.04
868.016	123.6
868.186	123.76
868.356	127.27
868.526	124.74
868.696	124.86
868.866	123.16
869.036	124.9
869.206	125.65
869.376	120.44
869.545	126.73
869.715	135.56
869.885	126.87
870.055	126.67
870.224	128.36
870.394	127.92
870.564	129.85
870.734	127.38
870.903	134.13
871.073	130.83
871.243	136.38
871.412	129.57
871.582	123.34
871.751	123.24
871.921	121.52
872.091	116.27
872.26	110.76
872.43	106.98
872.599	107.22
872.769	102.24
872.938	104.05
873.108	104.17
873.277	109.49
873.446	110.27
873.616	116.01
873.785	114.76
873.955	114.51
874.124	122.5
874.293	122.43
874.463	121.09
874.632	122.74
874.801	122.92
874.971	122.04
875.14	125.39
875.309	128.89
875.478	127.12
875.647	125
875.817	126.33
875.986	120.96
876.155	122.76
876.324	127.74
876.493	131.96
876.662	127.03
876.831	119.59
877	115.74
877.17	112.03
877.339	112.97
877.508	113.76
877.677	114.57
877.846	111.78
878.015	111.01
878.184	105.22
878.352	104.32
878.521	103.76
878.69	105.96
878.859	103.76
879.028	102.3
879.197	98.7
879.366	95.14
879.534	88.85
879.703	87.01
879.872	84.33
880.041	82.64
880.21	75.67
880.378	70.78
880.547	66.32
880.716	61.55
880.884	59.21
881.053	56.21
881.222	54.72
881.39	51.56
881.559	49.39
881.727	47.15
881.896	45.69
882.065	45.37
882.233	45.13
882.402	44.91
882.57	45.4
882.739	44.89
882.907	44.53
883.076	43.5
883.244	44.53
883.412	46.52
883.581	46.95
883.749	47.57
883.918	48.01
884.086	49.63
884.254	50.35
884.423	50.13
884.591	51.92
884.759	55.62
884.927	60.23
885.096	62.85
885.264	64.01
885.432	65.09
885.6	67.72
885.769	71.56
885.937	71.46
886.105	74.83
886.273	78.38
886.441	79.33
886.609	78.66
886.777	78.54
886.945	83.39
887.113	83.53
887.281	88.29
887.449	91.43
887.617	93.7
887.785	98.25
887.953	101.6
888.121	106.67
888.289	113.85
888.457	113.22
888.625	111.37
888.793	111.05
888.961	110.63
889.129	112.47
889.296	114.27
889.464	112.47
889.632	112.12
889.8	113.76
889.967	116.68
890.135	107.54
