Data from 2938717__Reflection_01.txt Node
Date: Tue Mar 17 18:48:21 EDT 2015
User: robert
Spectrometer: USB4E03002
Autoset integration time: false
Trigger mode: 4
Integration Time (sec): 1.000000E-1
Scans to average: 10
Electric dark correction enabled: false
Nonlinearity correction enabled: false
Boxcar width: 5
Stray light correction enabled: false
XAxis mode: Wavelengths
Stop averaging: false
Number of Pixels in Spectrum: 3648
>>>>>Begin Spectral Data<<<<<
177.575	118.89
177.794	87.78
178.014	-362.5
178.233	-1178.57
178.452	252.99
178.672	384.88
178.891	173.57
179.11	183.79
179.33	195.87
179.549	291.61
179.768	341.5
179.987	310.13
180.207	349.09
180.426	1270
180.645	521.24
180.864	-700
181.084	-3466.67
181.303	-113.06
181.522	-108.92
181.741	-130.41
181.96	-139.63
182.179	-148.47
182.398	-215.53
182.618	-352.07
182.837	-4431.25
183.056	-258.77
183.275	1154.69
183.494	1756.1
183.713	700
183.932	-2009.76
184.151	1346.38
184.37	421.84
184.589	265.96
184.808	253.63
185.027	274.44
185.246	304.31
185.465	205.59
185.684	226.32
185.903	199.36
186.122	156.21
186.341	139.02
186.56	116.74
186.779	109.16
186.998	131.41
187.216	171.03
187.435	143.81
187.654	139.17
187.873	117.84
188.092	148.64
188.311	217.75
188.53	217.12
188.748	377.27
188.967	293.71
189.186	1748.28
189.405	-3390
189.623	256.97
189.842	465.49
190.061	321.43
190.28	676.04
190.498	1637.5
190.717	294.59
190.936	427.59
191.154	202.59
191.373	361.11
191.592	280.38
191.81	377.78
192.029	375.42
192.248	171.33
192.466	209.2
192.685	141.93
192.904	182.91
193.122	194.9
193.341	153.16
193.559	218.88
193.778	194.75
193.996	165.99
194.215	148.51
194.433	196.77
194.652	298.45
194.87	302.63
195.089	392.11
195.307	346.94
195.526	379.21
195.744	217.88
195.963	217.72
196.181	384.38
196.399	-367.44
196.618	-34.35
196.836	72.19
197.055	10
197.273	-52.23
197.491	-154
197.71	-396.3
197.928	262.2
198.146	217.28
198.365	90.83
198.583	69.16
198.801	90.89
199.019	115.73
199.238	115.86
199.456	123.36
199.674	100.33
199.892	86.67
200.111	88.13
200.329	93.81
200.547	100.63
200.765	119.65
200.983	152.88
201.202	64.18
201.42	59.15
201.638	91.45
201.856	17.56
202.074	37.86
202.292	161.22
202.51	166.07
202.728	422.73
202.946	411.9
203.165	410.2
203.383	180
203.601	206.82
203.819	116.14
204.037	99.59
204.255	102.99
204.473	106.02
204.691	82.77
204.909	70.54
205.127	44.44
205.345	26.55
205.562	13.62
205.78	26.69
205.998	-1.14
206.216	41.28
206.434	27.62
206.652	6.22
206.87	2.34
207.088	-53.52
207.306	-31.53
207.523	52.28
207.741	70.07
207.959	110.32
208.177	135.15
208.395	145.21
208.612	13.16
208.83	75.18
209.048	149.21
209.266	91.01
209.483	198.24
209.701	139
209.919	196.61
210.136	93.23
210.354	73.65
210.572	28.14
210.79	59.85
211.007	61.45
211.225	68.43
211.442	70.2
211.66	71.69
211.878	62.59
212.095	47.88
212.313	51.72
212.53	124.62
212.748	98.02
212.966	123.56
213.183	144.1
213.401	126.54
213.618	116.7
213.836	83.39
214.053	88.29
214.271	79.81
214.488	90.52
214.705	74.58
214.923	74.88
215.14	59.15
215.358	72.97
215.575	90.22
215.793	112.5
216.01	73.02
216.227	83.91
216.445	102.8
216.662	112.39
216.879	110.67
217.097	141.52
217.314	84.81
217.531	95.88
217.749	93.87
217.966	65.93
218.183	62.16
218.4	74.55
218.618	60.95
218.835	39.48
219.052	15.4
219.269	13.79
219.487	8.88
219.704	30.12
219.921	32.19
220.138	22.91
220.355	39.08
220.572	36.75
220.79	37.66
221.007	41.45
221.224	43.88
221.441	44.33
221.658	48.34
221.875	44.58
222.092	39.1
222.309	33.49
222.526	27.06
222.743	25.89
222.96	23.55
223.177	16.63
223.394	16
223.611	13.11
223.828	13.57
224.045	9.67
224.262	15.7
224.479	15.9
224.696	17.29
224.913	19.73
225.13	19.83
225.347	17.98
225.564	17.97
225.781	17.56
225.997	14.54
226.214	15.56
226.431	14.31
226.648	10.6
226.865	9.55
227.082	9.33
227.298	9.32
227.515	7.84
227.732	7.5
227.949	7.23
228.165	8.13
228.382	9.31
228.599	8.85
228.816	7.86
229.032	8.09
229.249	7.45
229.466	7.1
229.682	6.46
229.899	7.07
230.116	6.16
230.332	6.95
230.549	5.6
230.765	5.02
230.982	4.71
231.199	4.11
231.415	4.53
231.632	6.14
231.848	6.11
232.065	7.32
232.281	6.82
232.498	7.79
232.714	7.54
232.931	8.12
233.147	9.79
233.364	9.87
233.58	10.29
233.797	9.23
234.013	8.83
234.23	8.27
234.446	6.51
234.662	6.51
234.879	7.24
235.095	7.73
235.312	7.23
235.528	7.23
235.744	6.65
235.961	8.98
236.177	9.25
236.393	9.61
236.61	10.05
236.826	12.34
237.042	11.52
237.258	10.43
237.475	10
237.691	11.37
237.907	10.1
238.123	10.53
238.339	10.72
238.556	9.69
238.772	8.59
238.988	8.44
239.204	6.65
239.42	7.83
239.636	7.46
239.853	7.87
240.069	7.15
240.285	7.13
240.501	6.58
240.717	6.02
240.933	6.85
241.149	6.77
241.365	6.41
241.581	6.73
241.797	6.37
242.013	6.65
242.229	6.21
242.445	6.24
242.661	5.84
242.877	6.31
243.093	5.94
243.309	5.76
243.525	5.59
243.741	5.88
243.957	5.43
244.173	5.16
244.388	5.8
244.604	5.76
244.82	5.24
245.036	5.87
245.252	5.2
245.468	5.26
245.683	5.34
245.899	5.38
246.115	5.29
246.331	5.52
246.547	5.79
246.762	5.42
246.978	5.39
247.194	5.3
247.409	5.01
247.625	4.99
247.841	5.11
248.057	4.76
248.272	4.48
248.488	4.47
248.703	4.7
248.919	4.55
249.135	4.7
249.35	4.67
249.566	5.13
249.782	5.47
249.997	5.62
250.213	5.42
250.428	6.17
250.644	7
250.859	6.98
251.075	5.59
251.29	4.86
251.506	4.8
251.721	4.51
251.937	4.41
252.152	4.31
252.368	4.58
252.583	4.03
252.798	3.67
253.014	3.35
253.229	3.38
253.445	3.98
253.66	4.93
253.875	5.21
254.091	5.46
254.306	5.93
254.521	5.23
254.737	5.01
254.952	5.46
255.167	5.97
255.383	6.53
255.598	6.06
255.813	6.07
256.028	5.76
256.244	5.47
256.459	5.19
256.674	4.37
256.889	5.2
257.104	6.1
257.32	6.61
257.535	5.77
257.75	5.43
257.965	5.55
258.18	5.33
258.395	5.12
258.61	4.78
258.826	4.4
259.041	4.43
259.256	4.17
259.471	3.98
259.686	3.9
259.901	3.9
260.116	3.78
260.331	3.78
260.546	4.05
260.761	4.28
260.976	4.27
261.191	4.81
261.406	5.17
261.621	5.11
261.836	4.89
262.05	4.59
262.265	4.56
262.48	4.65
262.695	4.35
262.91	3.86
263.125	3.75
263.34	3.96
263.555	3.03
263.769	2.28
263.984	2.48
264.199	2.87
264.414	3.01
264.629	3.79
264.843	3.92
265.058	4.06
265.273	4.28
265.488	4.19
265.702	4.24
265.917	4.74
266.132	4.59
266.346	4.57
266.561	4.51
266.776	4.61
266.99	4.54
267.205	4.88
267.42	5.03
267.634	4.58
267.849	4.03
268.063	3.98
268.278	3.95
268.492	4.05
268.707	3.74
268.922	3.91
269.136	3.77
269.351	3.83
269.565	3.5
269.78	2.93
269.994	3.31
270.209	3.38
270.423	3.07
270.637	3.07
270.852	3.46
271.066	3.98
271.281	3.87
271.495	4.42
271.709	4.07
271.924	3.95
272.138	4.32
272.353	4.46
272.567	4
272.781	4.23
272.996	3.82
273.21	3.73
273.424	3.22
273.638	2.95
273.853	2.67
274.067	2.68
274.281	3.14
274.495	3.31
274.71	2.85
274.924	3.65
275.138	3.23
275.352	3.43
275.566	3.36
275.781	3.33
275.995	3.33
276.209	3.23
276.423	3.36
276.637	2.99
276.851	2.72
277.065	2.87
277.279	2.73
277.493	2.53
277.707	2.49
277.921	2.42
278.135	2.92
278.349	2.96
278.563	2.91
278.777	2.74
278.991	2.55
279.205	2.87
279.419	2.78
279.633	2.53
279.847	3.35
280.061	3.53
280.275	3.46
280.489	3.36
280.703	3.09
280.917	2.83
281.131	2.81
281.344	2.94
281.558	2.54
281.772	2.87
281.986	2.93
282.2	2.5
282.414	2.46
282.627	2.14
282.841	2.13
283.055	2.45
283.269	2.52
283.482	2.48
283.696	2.36
283.91	2.43
284.123	2.18
284.337	2.27
284.551	2.28
284.764	2.5
284.978	2.96
285.192	3.11
285.405	3
285.619	3.13
285.833	3.33
286.046	3.37
286.26	3.62
286.473	4.14
286.687	3.95
286.9	4.15
287.114	4.18
287.327	4.17
287.541	4.23
287.754	4.17
287.968	4.2
288.181	4
288.395	4.11
288.608	3.78
288.822	3.69
289.035	3.94
289.248	3.87
289.462	3.81
289.675	3.85
289.889	3.79
290.102	3.83
290.315	3.96
290.529	3.87
290.742	3.93
290.955	4.1
291.169	3.94
291.382	4.42
291.595	4.75
291.808	4.48
292.022	4.34
292.235	4.15
292.448	4.54
292.661	4.52
292.875	4.73
293.088	4.84
293.301	4.94
293.514	4.55
293.727	4.36
293.94	4.07
294.153	4.26
294.367	4.07
294.58	4.13
294.793	3.86
295.006	3.71
295.219	3.87
295.432	3.43
295.645	3.53
295.858	3.7
296.071	3.36
296.284	3.5
296.497	3.56
296.71	3.65
296.923	3.73
297.136	3.87
297.349	3.78
297.562	3.99
297.775	4.35
297.988	4.38
298.201	4.59
298.414	4.84
298.626	4.64
298.839	4.9
299.052	4.86
299.265	4.97
299.478	4.77
299.691	5.34
299.903	5.29
300.116	4.86
300.329	4.81
300.542	4.77
300.755	4.51
300.967	4.82
301.18	4.78
301.393	4.95
301.605	4.79
301.818	5.1
302.031	4.6
302.243	4.35
302.456	4.57
302.669	4.66
302.881	4.41
303.094	4.68
303.307	4.81
303.519	4.98
303.732	5.12
303.944	5.43
304.157	5.52
304.37	5.54
304.582	5.58
304.795	5.76
305.007	5.96
305.22	6.14
305.432	6.27
305.645	6.14
305.857	6.1
306.069	6.16
306.282	6.12
306.494	5.94
306.707	6.02
306.919	6.08
307.132	6.2
307.344	5.79
307.556	5.72
307.769	5.63
307.981	5.52
308.193	5.44
308.406	5.32
308.618	5.3
308.83	5.4
309.043	5.47
309.255	5.29
309.467	5.29
309.679	5.75
309.892	5.73
310.104	5.38
310.316	5.21
310.528	5.34
310.74	5.1
310.953	5.08
311.165	5.22
311.377	5.18
311.589	5.6
311.801	5.56
312.013	5.32
312.225	5.44
312.437	5.99
312.649	6.64
312.862	6.45
313.074	7.09
313.286	7.24
313.498	7.15
313.71	7.77
313.922	7.69
314.134	7.61
314.346	7.84
314.558	7.99
314.77	7.71
314.982	7.56
315.193	7.6
315.405	7.46
315.617	7.62
315.829	7.68
316.041	7.4
316.253	7.15
316.465	7.39
316.677	7.3
316.888	7.43
317.1	7.88
317.312	7.72
317.524	7.99
317.736	8.12
317.947	8.38
318.159	8.75
318.371	8.68
318.583	8.66
318.794	8.57
319.006	8.7
319.218	8.67
319.43	8.34
319.641	8.66
319.853	8.39
320.064	8.3
320.276	7.91
320.488	7.14
320.699	7.07
320.911	7.73
321.123	7.57
321.334	7.76
321.546	7.73
321.757	8.18
321.969	8.35
322.18	8.3
322.392	8.35
322.603	8.55
322.815	9.13
323.026	9.28
323.238	9.2
323.449	9.77
323.661	9.68
323.872	9.93
324.083	9.78
324.295	9.44
324.506	10.22
324.718	10.54
324.929	10.57
325.14	10.68
325.352	10.83
325.563	10.94
325.774	11.12
325.986	10.84
326.197	10.73
326.408	10.73
326.62	10.95
326.831	10.85
327.042	10.44
327.253	10.59
327.464	10.62
327.676	10.59
327.887	10.3
328.098	10.58
328.309	11.36
328.52	11.81
328.732	11.75
328.943	11.91
329.154	11.58
329.365	11.83
329.576	11.93
329.787	12.13
329.998	12.31
330.209	12.72
330.42	12.68
330.631	12.25
330.842	12.34
331.053	12.97
331.264	12.7
331.475	12.75
331.686	13.08
331.897	13.03
332.108	12.66
332.319	12.9
332.53	12.86
332.741	12.71
332.952	13.06
333.163	12.63
333.374	12.37
333.585	12.86
333.795	13.34
334.006	13.2
334.217	13.17
334.428	13.8
334.639	14
334.849	14.35
335.06	14.08
335.271	14.13
335.482	14.63
335.692	14.6
335.903	14.85
336.114	14.81
336.325	14.85
336.535	15.06
336.746	15.14
336.957	15.1
337.167	15.11
337.378	15.63
337.589	15.55
337.799	15.39
338.01	15.42
338.22	15.29
338.431	15.4
338.642	15.9
338.852	15.77
339.063	15.53
339.273	15.31
339.484	15.12
339.694	14.99
339.905	15.09
340.115	15.12
340.326	15.23
340.536	15.18
340.746	14.6
340.957	14.21
341.167	14.37
341.378	14.59
341.588	14.79
341.799	14.96
342.009	14.85
342.219	14.62
342.43	14.71
342.64	14.68
342.85	14.38
343.061	15.07
343.271	15.13
343.481	15.04
343.691	14.82
343.902	14.71
344.112	14.52
344.322	14.48
344.532	14.29
344.743	14.03
344.953	14.24
345.163	14.62
345.373	14.38
345.583	14.35
345.793	14.18
346.004	14.18
346.214	14.1
346.424	14.1
346.634	14.18
346.844	14.51
347.054	14.32
347.264	14.06
347.474	13.85
347.684	13.62
347.894	13.62
348.104	13.86
348.314	13.86
348.524	13.88
348.734	13.49
348.944	13.34
349.154	13.46
349.364	13.77
349.574	13.68
349.784	13.92
349.994	14.06
350.204	13.95
350.413	14.14
350.623	14.19
350.833	14.28
351.043	14.52
351.253	14.65
351.463	14.44
351.672	14.34
351.882	14.64
352.092	14.4
352.302	14.25
352.511	14.06
352.721	13.71
352.931	13.55
353.141	13.48
353.35	13.61
353.56	13.59
353.77	13.57
353.979	13.75
354.189	13.55
354.399	13.48
354.608	13.39
354.818	13.49
355.027	13.74
355.237	13.81
355.447	13.78
355.656	13.77
355.866	13.79
356.075	13.64
356.285	13.58
356.494	13.53
356.704	13.48
356.913	13.79
357.123	13.97
357.332	13.8
357.542	13.91
357.751	13.84
357.96	13.9
358.17	13.67
358.379	13.76
358.589	13.65
358.798	13.64
359.007	13.58
359.217	13.49
359.426	13.31
359.635	13.09
359.845	12.84
360.054	12.84
360.263	12.67
360.472	12.68
360.682	12.5
360.891	12.8
361.1	12.7
361.309	12.84
361.519	12.94
361.728	12.92
361.937	13.13
362.146	13.24
362.355	13.3
362.564	13.26
362.774	13.36
362.983	13.64
363.192	13.34
363.401	13.49
363.61	13.44
363.819	13.08
364.028	13.1
364.237	12.9
364.446	12.85
364.655	12.71
364.864	12.78
365.073	12.83
365.282	12.73
365.491	12.83
365.7	12.77
365.909	12.67
366.118	12.75
366.327	12.75
366.536	12.62
366.745	12.55
366.954	12.54
367.162	12.71
367.371	12.51
367.58	12.51
367.789	12.25
367.998	12.06
368.207	11.98
368.415	12.26
368.624	12.27
368.833	12.43
369.042	12.2
369.25	12.23
369.459	12.15
369.668	12.19
369.877	11.87
370.085	12.04
370.294	12.03
370.503	11.83
370.711	11.49
370.92	11.43
371.129	11.56
371.337	11.75
371.546	11.62
371.754	11.55
371.963	11.61
372.171	11.73
372.38	11.54
372.589	11.59
372.797	11.72
373.006	11.7
373.214	11.53
373.423	11.5
373.631	11.49
373.84	11.42
374.048	11.33
374.256	11.27
374.465	11.33
374.673	11.45
374.882	11.51
375.09	11.55
375.298	11.68
375.507	11.6
375.715	11.5
375.923	11.39
376.132	11.44
376.34	11.29
376.548	11.35
376.757	11.36
376.965	11.35
377.173	11.24
377.381	11.34
377.59	11.2
377.798	11.29
378.006	11.29
378.214	11.27
378.423	11.23
378.631	11.39
378.839	11.31
379.047	11.38
379.255	11.27
379.463	11.29
379.671	11.09
379.879	10.99
380.088	11.04
380.296	11.08
380.504	11.09
380.712	10.93
380.92	10.87
381.128	10.61
381.336	10.37
381.544	10.32
381.752	10.33
381.96	10.26
382.168	10.26
382.376	10.28
382.584	10
382.791	10.04
382.999	10.24
383.207	10
383.415	10.14
383.623	10
383.831	9.98
384.039	9.85
384.247	9.95
384.454	9.82
384.662	9.62
384.87	9.65
385.078	9.51
385.285	9.69
385.493	9.66
385.701	9.47
385.909	9.45
386.116	9.41
386.324	9.42
386.532	9.36
386.739	9.58
386.947	9.93
387.155	10.08
387.362	10.13
387.57	9.87
387.778	9.87
387.985	9.97
388.193	10.04
388.4	9.93
388.608	9.82
388.816	9.62
389.023	9.46
389.231	8.99
389.438	8.83
389.646	8.84
389.853	8.64
390.061	8.83
390.268	8.66
390.475	8.73
390.683	8.74
390.89	8.75
391.098	8.81
391.305	8.87
391.512	9.08
391.72	9.03
391.927	8.89
392.135	8.97
392.342	8.93
392.549	8.94
392.756	8.91
392.964	8.99
393.171	9.15
393.378	9.01
393.586	9.06
393.793	8.91
394	8.87
394.207	8.78
394.414	8.66
394.622	8.55
394.829	8.62
395.036	8.54
395.243	8.51
395.45	8.36
395.657	8.47
395.864	8.49
396.072	8.77
396.279	8.87
396.486	8.86
396.693	9.18
396.9	9.18
397.107	9.35
397.314	9.29
397.521	9.31
397.728	9.35
397.935	9.44
398.142	9.25
398.349	9.15
398.556	8.79
398.763	8.89
398.97	8.74
399.177	8.67
399.383	8.42
399.59	8.37
399.797	8.21
400.004	8.16
400.211	8.19
400.418	8.15
400.625	7.82
400.831	8.02
401.038	8.22
401.245	8.21
401.452	8.32
401.658	8.41
401.865	8.39
402.072	8.53
402.279	8.43
402.485	8.23
402.692	8.29
402.899	8.42
403.105	8.44
403.312	8.38
403.519	8.18
403.725	8.16
403.932	8.19
404.138	8.26
404.345	8.17
404.552	8.32
404.758	8.22
404.965	8.16
405.171	8.05
405.378	8.11
405.584	7.89
405.791	8.04
405.997	8.05
406.204	8.18
406.41	8.14
406.617	8.09
406.823	8
407.029	8.23
407.236	8.26
407.442	8.38
407.649	8.37
407.855	8.57
408.061	8.6
408.268	8.5
408.474	8.09
408.68	8.26
408.887	8.32
409.093	8.38
409.299	8.4
409.505	8.31
409.712	8.45
409.918	8.43
410.124	8.37
410.33	8.3
410.537	8.41
410.743	8.65
410.949	8.6
411.155	8.72
411.361	8.66
411.567	8.63
411.773	8.65
411.98	8.6
412.186	8.54
412.392	8.49
412.598	8.57
412.804	8.53
413.01	8.46
413.216	8.34
413.422	8.08
413.628	7.97
413.834	7.75
414.04	7.76
414.246	7.57
414.452	7.55
414.658	7.63
414.864	7.57
415.07	7.49
415.275	7.54
415.481	7.53
415.687	7.62
415.893	7.67
416.099	7.94
416.305	8
416.511	8.08
416.716	8.16
416.922	8.08
417.128	8.24
417.334	8.2
417.539	8.13
417.745	8.16
417.951	8.13
418.157	8.22
418.362	8.03
418.568	8.05
418.774	8.03
418.979	8.06
419.185	8.07
419.391	7.94
419.596	8.01
419.802	8.05
420.008	8.12
420.213	8.14
420.419	8.11
420.624	8.14
420.83	8.13
421.035	8.13
421.241	8.07
421.446	8.13
421.652	8.16
421.857	8.12
422.063	8.14
422.268	8.11
422.474	8.12
422.679	8.04
422.885	8.1
423.09	7.98
423.295	7.92
423.501	7.87
423.706	7.85
423.911	7.81
424.117	7.85
424.322	7.8
424.527	7.76
424.733	7.72
424.938	7.78
425.143	7.7
425.349	7.79
425.554	7.84
425.759	7.86
425.964	7.83
426.169	7.78
426.375	7.67
426.58	7.78
426.785	7.82
426.99	7.91
427.195	7.91
427.4	7.99
427.605	7.95
427.811	8.03
428.016	8.2
428.221	8.25
428.426	8.28
428.631	8.44
428.836	8.39
429.041	8.42
429.246	8.44
429.451	8.48
429.656	8.46
429.861	8.43
430.066	8.43
430.271	8.27
430.476	8.16
430.681	8.23
430.886	8.14
431.09	8.16
431.295	8.09
431.5	8.05
431.705	8.06
431.91	8.05
432.115	8.12
432.32	8.04
432.524	8.19
432.729	8.26
432.934	8.31
433.139	8.32
433.343	8.36
433.548	8.37
433.753	8.3
433.958	8.29
434.162	8.34
434.367	8.43
434.572	8.51
434.776	8.49
434.981	8.46
435.186	8.53
435.39	8.65
435.595	8.47
435.799	8.48
436.004	8.52
436.209	8.46
436.413	8.53
436.618	8.4
436.822	8.4
437.027	8.43
437.231	8.46
437.436	8.32
437.64	8.25
437.845	8.37
438.049	8.49
438.253	8.47
438.458	8.46
438.662	8.35
438.867	8.46
439.071	8.36
439.275	8.42
439.48	8.44
439.684	8.46
439.888	8.48
440.093	8.41
440.297	8.3
440.501	8.36
440.706	8.4
440.91	8.41
441.114	8.39
441.318	8.47
441.523	8.38
441.727	8.38
441.931	8.37
442.135	8.35
442.339	8.4
442.543	8.43
442.748	8.49
442.952	8.54
443.156	8.5
443.36	8.45
443.564	8.44
443.768	8.38
443.972	8.39
444.176	8.45
444.38	8.55
444.584	8.54
444.788	8.52
444.992	8.42
445.196	8.45
445.4	8.5
445.604	8.54
445.808	8.52
446.012	8.55
446.216	8.57
446.42	8.55
446.624	8.47
446.828	8.44
447.032	8.49
447.235	8.45
447.439	8.4
447.643	8.43
447.847	8.36
448.051	8.32
448.254	8.31
448.458	8.32
448.662	8.29
448.866	8.22
449.069	8.27
449.273	8.26
449.477	8.3
449.681	8.29
449.884	8.24
450.088	8.28
450.292	8.36
450.495	8.35
450.699	8.23
450.902	8.22
451.106	8.31
451.31	8.25
451.513	8.15
451.717	8.18
451.92	8.14
452.124	8.14
452.327	8.26
452.531	8.18
452.734	8.34
452.938	8.38
453.141	8.43
453.345	8.37
453.548	8.49
453.752	8.66
453.955	8.7
454.158	8.63
454.362	8.63
454.565	8.59
454.769	8.65
454.972	8.53
455.175	8.63
455.379	8.65
455.582	8.62
455.785	8.53
455.988	8.39
456.192	8.39
456.395	8.43
456.598	8.45
456.801	8.4
457.005	8.38
457.208	8.36
457.411	8.26
457.614	8.21
457.817	8.27
458.021	8.26
458.224	8.27
458.427	8.22
458.63	8.2
458.833	8.25
459.036	8.21
459.239	8.31
459.442	8.33
459.645	8.3
459.848	8.3
460.051	8.35
460.254	8.44
460.457	8.46
460.66	8.5
460.863	8.48
461.066	8.38
461.269	8.45
461.472	8.32
461.675	8.33
461.878	8.35
462.081	8.44
462.284	8.37
462.486	8.28
462.689	8.23
462.892	8.19
463.095	8.22
463.298	8.29
463.5	8.24
463.703	8.27
463.906	8.22
464.109	8.26
464.311	8.2
464.514	8.26
464.717	8.3
464.92	8.28
465.122	8.36
465.325	8.47
465.528	8.49
465.73	8.57
465.933	8.6
466.135	8.59
466.338	8.58
466.541	8.48
466.743	8.44
466.946	8.49
467.148	8.51
467.351	8.47
467.553	8.44
467.756	8.42
467.958	8.38
468.161	8.42
468.363	8.55
468.566	8.63
468.768	8.6
468.971	8.7
469.173	8.61
469.375	8.67
469.578	8.76
469.78	8.82
469.983	8.82
470.185	8.83
470.387	8.81
470.59	8.77
470.792	8.64
470.994	8.8
471.196	8.75
471.399	8.73
471.601	8.74
471.803	8.75
472.005	8.68
472.208	8.7
472.41	8.71
472.612	8.71
472.814	8.77
473.016	8.84
473.218	8.78
473.421	8.75
473.623	8.79
473.825	8.71
474.027	8.62
474.229	8.7
474.431	8.68
474.633	8.66
474.835	8.65
475.037	8.57
475.239	8.59
475.441	8.63
475.643	8.71
475.845	8.63
476.047	8.6
476.249	8.6
476.451	8.6
476.653	8.67
476.855	8.75
477.057	8.69
477.258	8.63
477.46	8.59
477.662	8.49
477.864	8.53
478.066	8.61
478.268	8.63
478.469	8.65
478.671	8.61
478.873	8.57
479.075	8.49
479.276	8.53
479.478	8.56
479.68	8.58
479.882	8.57
480.083	8.43
480.285	8.38
480.487	8.47
480.688	8.44
480.89	8.41
481.091	8.37
481.293	8.32
481.495	8.26
481.696	8.19
481.898	8.17
482.099	8.18
482.301	8.15
482.502	8.09
482.704	8.02
482.905	7.99
483.107	7.96
483.308	7.94
483.51	7.96
483.711	7.97
483.913	7.99
484.114	7.98
484.315	7.98
484.517	7.96
484.718	7.98
484.92	8.01
485.121	8.03
485.322	8.07
485.524	8.1
485.725	8.09
485.926	8.1
486.127	8.13
486.329	8.1
486.53	8.1
486.731	8.14
486.932	8.19
487.134	8.19
487.335	8.2
487.536	8.21
487.737	8.2
487.938	8.2
488.139	8.2
488.341	8.17
488.542	8.2
488.743	8.24
488.944	8.26
489.145	8.25
489.346	8.24
489.547	8.22
489.748	8.18
489.949	8.2
490.15	8.2
490.351	8.16
490.552	8.18
490.753	8.21
490.954	8.15
491.155	8.2
491.356	8.23
491.557	8.2
491.758	8.19
491.959	8.22
492.159	8.26
492.36	8.28
492.561	8.31
492.762	8.37
492.963	8.31
493.164	8.37
493.364	8.34
493.565	8.3
493.766	8.41
493.967	8.52
494.167	8.53
494.368	8.5
494.569	8.54
494.769	8.63
494.97	8.62
495.171	8.75
495.371	8.73
495.572	8.75
495.773	8.79
495.973	8.73
496.174	8.69
496.375	8.7
496.575	8.69
496.776	8.72
496.976	8.65
497.177	8.64
497.377	8.65
497.578	8.67
497.778	8.66
497.979	8.66
498.179	8.71
498.38	8.73
498.58	8.81
498.78	8.79
498.981	8.74
499.181	8.86
499.382	8.85
499.582	8.85
499.782	8.88
499.983	8.87
500.183	8.85
500.383	8.85
500.584	8.85
500.784	8.83
500.984	8.98
501.184	9.03
501.385	9
501.585	9.03
501.785	9.05
501.985	9.05
502.185	9.17
502.386	9.26
502.586	9.33
502.786	9.37
502.986	9.36
503.186	9.35
503.386	9.33
503.586	9.32
503.786	9.43
503.987	9.43
504.187	9.49
504.387	9.41
504.587	9.46
504.787	9.47
504.987	9.48
505.187	9.58
505.387	9.58
505.587	9.67
505.786	9.69
505.986	9.61
506.186	9.59
506.386	9.65
506.586	9.67
506.786	9.65
506.986	9.65
507.186	9.62
507.386	9.59
507.585	9.69
507.785	9.74
507.985	9.84
508.185	9.9
508.384	9.99
508.584	10.05
508.784	10.18
508.984	10.19
509.183	10.22
509.383	10.3
509.583	10.32
509.782	10.29
509.982	10.3
510.182	10.31
510.381	10.37
510.581	10.43
510.781	10.44
510.98	10.42
511.18	10.55
511.379	10.64
511.579	10.73
511.778	10.74
511.978	10.81
512.177	10.89
512.377	10.91
512.576	10.93
512.776	10.92
512.975	10.92
513.175	10.91
513.374	10.93
513.573	10.91
513.773	10.91
513.972	11.06
514.172	11.09
514.371	11.08
514.57	11.18
514.77	11.17
514.969	11.28
515.168	11.38
515.367	11.48
515.567	11.55
515.766	11.63
515.965	11.73
516.164	11.77
516.364	11.81
516.563	11.96
516.762	11.99
516.961	12.12
517.16	12.12
517.359	12.18
517.559	12.26
517.758	12.26
517.957	12.28
518.156	12.29
518.355	12.37
518.554	12.43
518.753	12.49
518.952	12.53
519.151	12.55
519.35	12.67
519.549	12.67
519.748	12.78
519.947	12.84
520.146	12.93
520.345	13.06
520.544	13.11
520.743	13.15
520.942	13.14
521.141	13.24
521.339	13.35
521.538	13.39
521.737	13.52
521.936	13.47
522.135	13.58
522.333	13.7
522.532	13.76
522.731	13.81
522.93	13.93
523.129	14.04
523.327	14.04
523.526	14.11
523.725	14.14
523.923	14.25
524.122	14.32
524.321	14.36
524.519	14.34
524.718	14.37
524.917	14.43
525.115	14.42
525.314	14.5
525.512	14.6
525.711	14.62
525.909	14.7
526.108	14.74
526.306	14.72
526.505	14.79
526.703	14.82
526.902	14.87
527.1	14.92
527.299	14.99
527.497	15.01
527.696	15.06
527.894	15.06
528.092	15.09
528.291	15.12
528.489	15.22
528.688	15.26
528.886	15.36
529.084	15.38
529.283	15.44
529.481	15.5
529.679	15.58
529.877	15.64
530.076	15.75
530.274	15.82
530.472	15.86
530.67	15.95
530.869	16.02
531.067	16.09
531.265	16.23
531.463	16.28
531.661	16.36
531.859	16.4
532.057	16.48
532.255	16.56
532.454	16.62
532.652	16.75
532.85	16.81
533.048	16.82
533.246	16.88
533.444	16.91
533.642	16.94
533.84	17.04
534.038	17.1
534.236	17.14
534.434	17.17
534.632	17.24
534.83	17.28
535.027	17.33
535.225	17.47
535.423	17.52
535.621	17.61
535.819	17.71
536.017	17.68
536.215	17.73
536.412	17.82
536.61	17.9
536.808	17.98
537.006	18.04
537.203	18.02
537.401	18.04
537.599	18.17
537.797	18.2
537.994	18.28
538.192	18.44
538.39	18.55
538.587	18.63
538.785	18.76
538.983	18.85
539.18	18.89
539.378	19.01
539.575	19.2
539.773	19.17
539.97	19.19
540.168	19.33
540.366	19.38
540.563	19.4
540.761	19.41
540.958	19.44
541.155	19.46
541.353	19.57
541.55	19.65
541.748	19.62
541.945	19.67
542.143	19.76
542.34	19.76
542.537	19.81
542.735	19.92
542.932	19.96
543.129	20.07
543.327	20.23
543.524	20.32
543.721	20.47
543.919	20.7
544.116	20.8
544.313	21
544.51	21.17
544.708	21.34
544.905	21.49
545.102	21.79
545.299	21.85
545.496	21.88
545.693	21.94
545.891	21.99
546.088	21.95
546.285	22
546.482	21.98
546.679	21.99
546.876	21.95
547.073	21.86
547.27	21.71
547.467	21.71
547.664	21.72
547.861	21.75
548.058	21.74
548.255	21.71
548.452	21.64
548.649	21.68
548.846	21.64
549.043	21.66
549.24	21.73
549.437	21.83
549.633	21.82
549.83	21.78
550.027	21.73
550.224	21.54
550.421	21.6
550.618	21.77
550.814	21.69
551.011	21.6
551.208	21.59
551.405	21.53
551.601	21.46
551.798	21.5
551.995	21.55
552.191	21.53
552.388	21.71
552.585	21.63
552.781	21.6
552.978	21.67
553.175	21.74
553.371	21.73
553.568	21.78
553.764	21.83
553.961	21.84
554.157	21.77
554.354	21.79
554.55	21.77
554.747	21.89
554.943	21.82
555.14	21.8
555.336	21.83
555.533	21.85
555.729	21.91
555.926	21.94
556.122	21.86
556.318	21.96
556.515	21.98
556.711	21.95
556.907	22.07
557.104	22.1
557.3	22.19
557.496	22.23
557.693	22.29
557.889	22.23
558.085	22.25
558.281	22.37
558.478	22.32
558.674	22.3
558.87	22.34
559.066	22.19
559.262	22.17
559.459	22.17
559.655	22.19
559.851	22.21
560.047	22.19
560.243	22.26
560.439	22.26
560.635	22.41
560.831	22.54
561.027	22.51
561.223	22.63
561.419	22.7
561.615	22.68
561.811	22.67
562.007	22.68
562.203	22.83
562.399	22.75
562.595	22.76
562.791	22.61
562.987	22.56
563.183	22.65
563.379	22.49
563.575	22.58
563.771	22.53
563.966	22.6
564.162	22.6
564.358	22.57
564.554	22.71
564.75	22.74
564.945	22.9
565.141	22.95
565.337	23.06
565.533	23.09
565.728	23.05
565.924	23.2
566.12	23.16
566.315	23.09
566.511	23.08
566.707	22.99
566.902	22.92
567.098	22.87
567.293	22.86
567.489	22.75
567.684	22.79
567.88	22.8
568.076	22.62
568.271	22.72
568.467	22.76
568.662	22.87
568.858	22.97
569.053	23.08
569.248	23.1
569.444	23.03
569.639	23.1
569.835	23.06
570.03	23.11
570.225	23.13
570.421	23.06
570.616	23.08
570.812	23.01
571.007	22.98
571.202	23.02
571.397	23.05
571.593	23.07
571.788	23.02
571.983	23.13
572.178	23.18
572.374	23.29
572.569	23.28
572.764	23.33
572.959	23.43
573.154	23.42
573.35	23.33
573.545	23.36
573.74	23.43
573.935	23.52
574.13	23.47
574.325	23.32
574.52	23.36
574.715	23.48
574.91	23.51
575.105	23.37
575.3	23.44
575.495	23.57
575.69	23.57
575.885	23.55
576.08	23.66
576.275	23.77
576.47	23.98
576.665	23.98
576.86	24
577.055	24.07
577.25	24.26
577.444	24.38
577.639	24.39
577.834	24.45
578.029	24.55
578.224	24.55
578.418	24.58
578.613	24.68
578.808	24.79
579.003	24.82
579.197	24.88
579.392	24.88
579.587	24.8
579.781	24.92
579.976	24.98
580.171	25.09
580.365	25
580.56	24.96
580.755	25.05
580.949	25.08
581.144	25.13
581.338	25.13
581.533	25.19
581.727	25.28
581.922	25.23
582.116	25.18
582.311	25.13
582.505	25.24
582.7	25.44
582.894	25.18
583.089	25.11
583.283	25
583.478	24.99
583.672	25.13
583.866	25.14
584.061	25.13
584.255	25.26
584.449	25.3
584.644	25.34
584.838	25.2
585.032	25.42
585.226	25.48
585.421	25.67
585.615	25.88
585.809	25.69
586.003	25.82
586.198	26.05
586.392	26.13
586.586	26.26
586.78	26.25
586.974	26.43
587.168	26.37
587.363	26.43
587.557	26.41
587.751	26.2
587.945	26.27
588.139	26.15
588.333	26.09
588.527	25.99
588.721	26.01
588.915	25.97
589.109	25.85
589.303	25.87
589.497	25.83
589.691	25.82
589.885	25.85
590.079	25.9
590.273	25.88
590.466	25.82
590.66	25.9
590.854	25.87
591.048	25.98
591.242	26.07
591.436	26.15
591.629	26.23
591.823	26.3
592.017	26.45
592.211	26.52
592.404	26.58
592.598	26.6
592.792	26.47
592.986	26.4
593.179	26.35
593.373	26.27
593.567	26.11
593.76	26.16
593.954	26.08
594.147	25.93
594.341	25.91
594.535	25.87
594.728	25.89
594.922	25.92
595.115	26.02
595.309	26.05
595.502	26
595.696	26.14
595.889	26.01
596.083	25.99
596.276	26.1
596.47	25.99
596.663	25.96
596.856	26
597.05	26.07
597.243	26.12
597.437	26.04
597.63	26.13
597.823	26.09
598.017	26.13
598.21	26.11
598.403	26.1
598.596	26.21
598.79	26.26
598.983	26.28
599.176	26.19
599.369	26.04
599.563	26.28
599.756	26.41
599.949	26.5
600.142	26.42
600.335	26.61
600.528	26.66
600.722	26.7
600.915	26.76
601.108	26.67
601.301	26.86
601.494	26.83
601.687	26.77
601.88	26.65
602.073	26.49
602.266	26.62
602.459	26.34
602.652	26.27
602.845	26.19
603.038	26.14
603.231	26.11
603.424	25.96
603.617	25.92
603.809	25.87
604.002	25.85
604.195	25.92
604.388	25.92
604.581	25.95
604.774	25.98
604.966	25.88
605.159	25.96
605.352	26.02
605.545	26.07
605.737	26.23
605.93	26.16
606.123	26.23
606.316	26.19
606.508	26.32
606.701	26.56
606.894	26.71
607.086	27.04
607.279	27.14
607.471	27.34
607.664	27.5
607.857	27.64
608.049	28.09
608.242	28.22
608.434	28.69
608.627	28.86
608.819	29.38
609.012	29.9
609.204	30.6
609.397	31.25
609.589	32.08
609.782	32.99
609.974	33.82
610.166	34.71
610.359	35.83
610.551	36.7
610.743	37.68
610.936	38.45
611.128	39
611.32	39.31
611.513	39.73
611.705	39.8
611.897	39.74
612.09	39.57
612.282	39.35
612.474	39.02
612.666	38.66
612.858	38.23
613.051	37.48
613.243	37.08
613.435	36.67
613.627	36.16
613.819	35.92
614.011	35.39
614.203	35.02
614.395	34.37
614.588	33.72
614.78	33.24
614.972	32.83
615.164	32.59
615.356	32.16
615.548	31.56
615.74	31.2
615.932	30.57
616.124	30.3
616.315	29.97
616.507	29.69
616.699	29.52
616.891	29.17
617.083	28.94
617.275	28.81
617.467	28.56
617.659	28.62
617.85	28.46
618.042	28.45
618.234	28.44
618.426	28.51
618.618	28.45
618.809	28.43
619.001	28.69
619.193	28.56
619.384	28.45
619.576	28.52
619.768	28.57
619.959	28.6
620.151	28.65
620.343	28.64
620.534	28.83
620.726	28.93
620.917	28.88
621.109	28.77
621.301	28.96
621.492	29.06
621.684	29.19
621.875	29.24
622.067	29.09
622.258	28.9
622.45	28.97
622.641	28.79
622.832	28.84
623.024	28.77
623.215	28.77
623.407	28.8
623.598	28.83
623.789	28.79
623.981	28.52
624.172	28.73
624.363	28.82
624.555	28.82
624.746	28.82
624.937	28.7
625.129	28.72
625.32	28.55
625.511	28.33
625.702	28.25
625.893	28.19
626.085	28.26
626.276	27.98
626.467	27.98
626.658	27.96
626.849	27.93
627.04	27.92
627.231	27.85
627.422	28
627.614	28.09
627.805	28.12
627.996	28.17
628.187	28.29
628.378	28.5
628.569	28.66
628.76	28.73
628.951	28.86
629.142	29.08
629.332	29.39
629.523	29.37
629.714	29.55
629.905	29.64
630.096	29.69
630.287	29.68
630.478	29.87
630.669	30.01
630.859	29.98
631.05	29.9
631.241	29.77
631.432	29.62
631.623	29.72
631.813	29.51
632.004	29.28
632.195	28.99
632.385	28.82
632.576	28.66
632.767	28.28
632.957	28.23
633.148	27.97
633.339	27.83
633.529	27.82
633.72	27.59
633.91	27.72
634.101	27.79
634.292	27.9
634.482	27.75
634.673	27.64
634.863	27.59
635.054	27.61
635.244	27.92
635.435	27.9
635.625	27.74
635.815	27.6
636.006	27.4
636.196	27.41
636.387	27.49
636.577	27.72
636.767	27.75
636.958	27.92
637.148	27.8
637.338	27.53
637.529	27.65
637.719	27.66
637.909	27.85
638.099	27.97
638.29	27.91
638.48	27.75
638.67	27.67
638.86	27.56
639.05	27.51
639.241	27.57
639.431	27.67
639.621	27.52
639.811	27.67
640.001	27.73
640.191	27.6
640.381	27.68
640.571	27.63
640.761	27.66
640.951	27.7
641.141	27.63
641.331	27.63
641.521	27.6
641.711	27.68
641.901	27.55
642.091	27.4
642.281	27.73
642.471	27.49
642.661	27.82
642.851	27.94
643.041	27.88
643.231	27.81
643.42	27.76
643.61	27.9
643.8	27.85
643.99	28.06
644.18	28.17
644.369	27.92
644.559	28.08
644.749	27.79
644.939	27.67
645.128	27.89
645.318	28.09
645.508	28.24
645.697	28.06
645.887	28.27
646.076	28.11
646.266	27.98
646.456	27.99
646.645	28.26
646.835	28.32
647.024	28.46
647.214	28.44
647.403	28.54
647.593	28.56
647.782	28.71
647.972	28.42
648.161	28.69
648.351	28.89
648.54	29.07
648.73	28.98
648.919	29.09
649.108	29.04
649.298	29.05
649.487	28.95
649.677	28.85
649.866	28.92
650.055	29.25
650.244	28.99
650.434	28.95
650.623	28.88
650.812	28.74
651.002	28.67
651.191	28.83
651.38	28.91
651.569	28.84
651.758	28.88
651.947	28.93
652.137	28.87
652.326	28.97
652.515	29.08
652.704	29.01
652.893	29.12
653.082	29.34
653.271	29.29
653.46	29.22
653.649	29.46
653.838	29.48
654.027	29.33
654.216	29.25
654.405	29.25
654.594	29.18
654.783	29.22
654.972	29.28
655.161	29.04
655.35	28.9
655.539	28.7
655.728	28.43
655.916	28.4
656.105	28.31
656.294	28.2
656.483	28.03
656.672	28.13
656.86	28.03
657.049	28.1
657.238	28.17
657.427	28.05
657.615	28.05
657.804	28.12
657.993	28.33
658.181	28.49
658.37	28.55
658.559	28.51
658.747	28.27
658.936	28.41
659.125	28.31
659.313	28.32
659.502	28.4
659.69	28.51
659.879	28.63
660.067	28.35
660.256	28.12
660.444	28.18
660.633	28.19
660.821	28.24
661.01	28.32
661.198	28.32
661.387	28.27
661.575	28.52
661.763	28.46
661.952	28.43
662.14	28.6
662.328	28.77
662.517	28.8
662.705	29.03
662.893	29.4
663.082	29.21
663.27	29.07
663.458	29.31
663.646	29.16
663.834	29.2
664.023	29.18
664.211	29.31
664.399	29.51
664.587	29.55
664.775	29.63
664.963	29.47
665.152	29.42
665.34	29.73
665.528	29.72
665.716	29.82
665.904	30.05
666.092	29.85
666.28	29.81
666.468	29.67
666.656	29.73
666.844	29.78
667.032	29.97
667.22	30.02
667.408	29.78
667.596	29.68
667.784	29.45
667.971	29.41
668.159	29.63
668.347	29.55
668.535	29.38
668.723	29.3
668.911	29.16
669.098	29.01
669.286	29.19
669.474	29.27
669.662	29.51
669.849	29.62
670.037	29.69
670.225	29.73
670.413	29.82
670.6	29.91
670.788	30.09
670.976	30.05
671.163	29.98
671.351	30.16
671.538	30.14
671.726	29.86
671.913	29.68
672.101	29.76
672.289	29.61
672.476	29.66
672.664	29.85
672.851	29.5
673.039	29.39
673.226	29.45
673.413	29.07
673.601	29.21
673.788	29.42
673.976	29.64
674.163	29.27
674.35	29.17
674.538	28.9
674.725	29.06
674.912	29.22
675.1	29.43
675.287	29.39
675.474	29.75
675.662	29.74
675.849	29.26
676.036	29.23
676.223	29.43
676.411	29.53
676.598	29.51
676.785	29.2
676.972	28.99
677.159	28.85
677.346	28.9
677.533	28.8
677.721	28.75
677.908	29.13
678.095	29.05
678.282	29
678.469	29.17
678.656	29.41
678.843	29.52
679.03	29.73
679.217	30.04
679.404	30.14
679.591	29.95
679.778	30.03
679.964	29.99
680.151	30.21
680.338	30.29
680.525	30.16
680.712	30.17
680.899	30.19
681.086	30.25
681.272	30.19
681.459	30.22
681.646	30.31
681.833	30.22
682.02	30.17
682.206	29.94
682.393	30.1
682.58	30.09
682.766	30.13
682.953	30.16
683.14	30.2
683.326	30.21
683.513	30.09
683.7	30.29
683.886	30.53
684.073	30.9
684.259	31.03
684.446	31.02
684.632	31.29
684.819	31.18
685.005	31.39
685.192	31.14
685.378	31.22
685.565	31.38
685.751	31.14
685.938	31.06
686.124	30.79
686.31	30.89
686.497	30.88
686.683	31.05
686.87	31.1
687.056	31.04
687.242	31.45
687.429	31.12
687.615	30.74
687.801	30.7
687.987	30.56
688.174	30.69
688.36	30.3
688.546	30.29
688.732	30.12
688.918	30.12
689.105	30.06
689.291	29.83
689.477	29.95
689.663	29.99
689.849	30.14
690.035	30.16
690.221	30.27
690.407	30.71
690.593	30.63
690.779	30.88
690.965	30.76
691.151	30.93
691.337	31.17
691.523	31.5
691.709	31.73
691.895	31.94
692.081	31.94
692.267	31.52
692.453	31.46
692.639	31.42
692.825	31.23
693.011	30.97
693.196	30.87
693.382	30.73
693.568	30.53
693.754	30.57
693.94	30.53
694.125	30.52
694.311	30.48
694.497	30.37
694.682	30.34
694.868	30.15
695.054	30.66
695.239	30.31
695.425	30.23
695.611	29.84
695.796	30.05
695.982	29.91
696.168	30.01
696.353	30.37
696.539	30.57
696.724	30.6
696.91	30.67
697.095	30.63
697.281	30.48
697.466	30.46
697.652	30.58
697.837	30.3
698.023	30.14
698.208	29.91
698.393	29.64
698.579	29.52
698.764	29.43
698.949	29.23
699.135	29.15
699.32	29.38
699.505	29.49
699.691	29.5
699.876	29.55
700.061	29.69
700.246	29.99
700.432	30.18
700.617	30.42
700.802	30.47
700.987	30.79
701.172	30.75
701.358	30.75
701.543	30.47
701.728	30.38
701.913	30.68
702.098	31.01
702.283	31.07
702.468	31.04
702.653	30.9
702.838	31.24
703.023	31.44
703.208	31.84
703.393	31.79
703.578	32.18
703.763	32.52
703.948	32.58
704.133	32.63
704.318	32.59
704.503	32.92
704.688	33.22
704.873	33.23
705.057	33.4
705.242	33.38
705.427	33.84
705.612	34.05
705.797	34.31
705.981	34.36
706.166	34.49
706.351	34.56
706.536	34.91
706.72	34.81
706.905	35.01
707.09	34.66
707.274	34.74
707.459	34.86
707.644	34.68
707.828	34.8
708.013	34.93
708.197	34.9
708.382	34.93
708.567	34.81
708.751	34.38
708.936	34.03
709.12	34.1
709.305	34.18
709.489	34.26
709.673	34.55
709.858	34.25
710.042	34.18
710.227	34
710.411	34.02
710.596	33.99
710.78	34.09
710.964	34.27
711.149	34.21
711.333	34.16
711.517	34.08
711.702	33.84
711.886	33.94
712.07	33.94
712.254	33.79
712.438	33.62
712.623	33.52
712.807	33.63
712.991	33.66
713.175	33.77
713.359	33.71
713.544	33.15
713.728	33.25
713.912	33.01
714.096	32.71
714.28	32.25
714.464	31.95
714.648	31.57
714.832	31.46
715.016	31.39
715.2	31.28
715.384	31.31
715.568	31.42
715.752	31.08
715.936	30.99
716.12	31.04
716.304	31.24
716.488	31.29
716.671	31.59
716.855	31.86
717.039	31.59
717.223	31.38
717.407	31.36
717.59	31.31
717.774	31.48
717.958	31.4
718.142	31.17
718.325	31.24
718.509	31.34
718.693	30.95
718.877	30.92
719.06	30.95
719.244	31.32
719.428	30.9
719.611	31.21
719.795	30.93
719.978	31.42
720.162	31.62
720.345	31.92
720.529	32.03
720.713	32.23
720.896	32.17
721.08	32.41
721.263	32
721.446	32.14
721.63	32.34
721.813	32.82
721.997	32.61
722.18	32.15
722.364	31.74
722.547	31.92
722.73	31.86
722.914	31.75
723.097	31.47
723.28	31.5
723.464	31.57
723.647	31.24
723.83	31.01
724.013	31
724.197	31.38
724.38	32.03
724.563	32.06
724.746	32.35
724.929	32.63
725.112	32.7
725.296	33.13
725.479	32.42
725.662	32.82
725.845	32.7
726.028	32.47
726.211	32.73
726.394	32.65
726.577	32.81
726.76	32.46
726.943	32.23
727.126	32.77
727.309	32.64
727.492	32.79
727.675	32.15
727.858	31.98
728.041	32.46
728.224	32.01
728.407	31.76
728.589	31.69
728.772	31.59
728.955	31.69
729.138	30.91
729.321	30.9
729.503	31.24
729.686	31.64
729.869	31.98
730.052	31.6
730.234	31.62
730.417	31.51
730.6	31.14
730.782	31.08
730.965	31.21
731.148	31.84
731.33	31.61
731.513	31.49
731.695	31.26
731.878	30.51
732.061	30.83
732.243	30.7
732.426	30.54
732.608	30.6
732.791	31.1
732.973	31.22
733.156	31.17
733.338	31.36
733.52	31.7
733.703	31.49
733.885	32.19
734.068	32.33
734.25	32.76
734.432	33.3
734.615	33.41
734.797	33.41
734.979	33.23
735.162	33.23
735.344	33.1
735.526	32.93
735.708	33.01
735.891	32.91
736.073	32.27
736.255	32.25
736.437	32.24
736.619	32.52
736.802	32.27
736.984	32.13
737.166	32.39
737.348	32.8
737.53	32.72
737.712	33.13
737.894	33.32
738.076	33.34
738.258	33.61
738.44	33.59
738.622	33.53
738.804	33.77
738.986	34.2
739.168	33.72
739.35	33.24
739.532	33.72
739.714	33.7
739.896	33.55
740.078	34.04
740.259	33.18
740.441	33.14
740.623	33.12
740.805	32.57
740.987	32.06
741.168	32.08
741.35	32.37
741.532	32.3
741.714	32.17
741.895	32.28
742.077	32.17
742.259	32.99
742.44	32.83
742.622	33.11
742.804	33.53
742.985	33.44
743.167	33.99
743.348	34.32
743.53	34.61
743.711	34.6
743.893	34.63
744.075	34.29
744.256	33.82
744.438	33.39
744.619	32.56
744.8	32.94
744.982	33.26
745.163	32.95
745.345	32.25
745.526	32.04
745.707	31.99
745.889	31.98
746.07	32.81
746.252	33.32
746.433	34.08
746.614	34.37
746.795	34.05
746.977	34.21
747.158	33.64
747.339	34.04
747.52	33.72
747.702	33.78
747.883	33.61
748.064	33.22
748.245	33.7
748.426	33.64
748.607	33.84
748.788	33.87
748.97	33.78
749.151	34.06
749.332	34.33
749.513	35.08
749.694	35.31
749.875	35.67
750.056	35.33
750.237	35.34
750.418	35.29
750.599	35.59
750.78	35.78
750.96	36.05
751.141	36.12
751.322	35.73
751.503	35.27
751.684	35.14
751.865	35.71
752.046	36.07
752.226	35.38
752.407	35.32
752.588	35.09
752.769	34.68
752.949	34.34
753.13	34.58
753.311	34.71
753.492	34.53
753.672	34.73
753.853	34.2
754.034	33.6
754.214	33.56
754.395	33.24
754.575	32.8
754.756	33.34
754.937	33.23
755.117	33.13
755.298	32.71
755.478	32.7
755.659	32.53
755.839	32.75
756.02	33.43
756.2	33.03
756.381	34.08
756.561	34.75
756.741	34.39
756.922	33.98
757.102	33.95
757.283	34.83
757.463	34.55
757.643	34.59
757.823	34.5
758.004	34.18
758.184	34.81
758.364	34.62
758.545	34.31
758.725	34.06
758.905	34.39
759.085	34.77
759.265	34.17
759.446	34.77
759.626	34.92
759.806	34.79
759.986	34.62
760.166	34.74
760.346	34.17
760.526	33.9
760.706	34.78
760.886	34.81
761.066	34.23
761.246	34.63
761.426	33.91
761.606	33.35
761.786	33.07
761.966	33.51
762.146	32.89
762.326	32.7
762.506	32.91
762.686	32.47
762.866	32.08
763.046	32.48
763.225	32.11
763.405	32.37
763.585	32.35
763.765	32.69
763.945	32.43
764.124	32.49
764.304	32.21
764.484	32.35
764.664	32.42
764.843	32.56
765.023	32.36
765.203	32.23
765.382	32.67
765.562	32.82
765.741	32.43
765.921	32.76
766.101	33.23
766.28	33.79
766.46	33.36
766.639	32.86
766.819	32.93
766.998	32.82
767.178	33.8
767.357	33.28
767.537	33.94
767.716	34.24
767.896	34.16
768.075	34.31
768.254	34.68
768.434	35.15
768.613	36.43
768.792	37.14
768.972	37.51
769.151	36.88
769.33	37.01
769.51	36.87
769.689	36.8
769.868	36.46
770.047	35.42
770.226	35.1
770.406	34.79
770.585	33.58
770.764	33.55
770.943	34.04
771.122	33.77
771.301	33.24
771.48	33.46
771.66	33.31
771.839	33.91
772.018	34.86
772.197	35.03
772.376	35.35
772.555	36.15
772.734	36.51
772.913	35.85
773.092	36.51
773.271	37.05
773.449	36.52
773.628	37.11
773.807	36.53
773.986	36.57
774.165	36.87
774.344	36.6
774.523	35.79
774.701	34.88
774.88	35.03
775.059	34.97
775.238	35.64
775.417	35.49
775.595	34.12
775.774	34.25
775.953	33.83
776.131	32.98
776.31	32.93
776.489	32.59
776.667	33.14
776.846	32.27
777.025	31.43
777.203	30.8
777.382	31
777.56	31.86
777.739	32.88
777.917	33.84
778.096	35.16
778.274	35.15
778.453	36.74
778.631	36.74
778.81	37.82
778.988	38.17
779.166	38.3
779.345	38.28
779.523	38.53
779.702	37.68
779.88	37.39
780.058	36.91
780.237	38.32
780.415	36.73
780.593	36.88
780.771	36.53
780.95	36.53
781.128	36.06
781.306	35.9
781.484	35.84
781.662	36.34
781.841	35.33
782.019	35.06
782.197	33.63
782.375	34.35
782.553	33.96
782.731	33.87
782.909	34.85
783.087	35.34
783.265	35.48
783.443	35.54
783.621	36.02
783.799	37.15
783.977	36.84
784.155	37.19
784.333	37.05
784.511	37.55
784.689	37.73
784.867	37.07
785.045	36.94
785.223	37.27
785.4	36.4
785.578	35.62
785.756	35.02
785.934	34.32
786.112	34.92
786.289	34.96
786.467	34.54
786.645	34.51
786.823	34.74
787	34.97
787.178	34.7
787.356	35.41
787.533	35.29
787.711	35.61
787.889	36.17
788.066	35.54
788.244	36.36
788.421	36.41
788.599	36.98
788.776	35.65
788.954	35.18
789.131	34.2
789.309	34.2
789.486	34.15
789.664	34.32
789.841	34.23
790.019	34.51
790.196	33.91
790.373	33.68
790.551	32.67
790.728	33.93
790.906	33.97
791.083	34.48
791.26	34.93
791.437	35.12
791.615	34.58
791.792	34.6
791.969	33.72
792.146	34.16
792.324	34.73
792.501	34.36
792.678	34.2
792.855	34.77
793.032	35.39
793.209	34.5
793.387	34.97
793.564	34.91
793.741	35.01
793.918	36.09
794.095	36.08
794.272	35.49
794.449	36.09
794.626	36.64
794.803	36.33
794.98	36.46
795.157	36.54
795.334	35.14
795.511	36.13
795.688	37.02
795.864	36.91
796.041	37.05
796.218	36.66
796.395	37.41
796.572	37.27
796.749	36.99
796.925	36.55
797.102	37.32
797.279	38.24
797.456	37.69
797.632	37.06
797.809	37.53
797.986	36.58
798.162	36.15
798.339	34.85
798.516	34.46
798.692	34.4
798.869	35.29
799.046	33.09
799.222	32.49
799.399	32.24
799.575	31.53
799.752	30.76
799.928	31.31
800.105	33.37
800.281	33.63
800.458	33.48
800.634	33.6
800.811	33.49
800.987	35.14
801.163	35.3
801.34	35.17
801.516	35.89
801.692	35.78
801.869	37.2
802.045	36.07
802.221	37.03
802.398	38
802.574	38.02
802.75	38.02
802.926	38.07
803.103	37.63
803.279	37.77
803.455	37.75
803.631	38.55
803.807	37.51
803.983	36.52
804.16	36.01
804.336	35.24
804.512	34.47
804.688	32.64
804.864	32.76
805.04	33.66
805.216	34.47
805.392	34.57
805.568	34.24
805.744	32.9
805.92	33.01
806.096	33.08
806.272	33.51
806.448	34.44
806.623	35.63
806.799	35.51
806.975	35.86
807.151	34.89
807.327	34.38
807.503	34.08
807.678	33.9
807.854	35.24
808.03	35.45
808.206	35.06
808.381	34.35
808.557	36.46
808.733	36.36
808.908	35.39
809.084	35.63
809.26	37.1
809.435	37.87
809.611	38.6
809.787	37.55
809.962	37.94
810.138	38.14
810.313	39.24
810.489	37.21
810.664	37.66
810.84	38.81
811.015	39.42
811.191	39.07
811.366	37.84
811.542	38.03
811.717	39.71
811.892	38.59
812.068	37.62
812.243	36.41
812.419	36.21
812.594	36.28
812.769	35.63
812.944	35.03
813.12	33.73
813.295	33.06
813.47	32.24
813.645	32.25
813.821	32.79
813.996	34.35
814.171	35.68
814.346	35
814.521	35.01
814.697	34.03
814.872	33.8
815.047	34.26
815.222	35.4
815.397	36.01
815.572	34.91
815.747	35.5
815.922	35.77
816.097	35.03
816.272	37.06
816.447	37.09
816.622	37.5
816.797	35.73
816.972	35.45
817.147	35.88
817.322	35.65
817.496	36.16
817.671	34.81
817.846	34.31
818.021	34.81
818.196	34.35
818.371	33.43
818.545	34.98
818.72	37.18
818.895	37.21
819.069	36.73
819.244	36.26
819.419	35.95
819.594	35.96
819.768	35.38
819.943	34.87
820.117	33.06
820.292	33.34
820.467	32.22
820.641	31.48
820.816	30.9
820.99	30.56
821.165	30.36
821.339	30.4
821.514	30.28
821.688	29.87
821.863	29.78
822.037	30.02
822.212	30.01
822.386	30.02
822.56	29.81
822.735	29.77
822.909	29.69
823.084	29.96
823.258	29.79
823.432	29.73
823.606	30.15
823.781	30.38
823.955	30.5
824.129	30.39
824.303	30.06
824.478	30.48
824.652	30.97
824.826	31.35
825	30.98
825.174	31.27
825.348	31.55
825.523	31
825.697	30.67
825.871	31.07
826.045	31.34
826.219	31.85
826.393	31.56
826.567	31.29
826.741	31.44
826.915	31.53
827.089	31.47
827.263	31.38
827.437	31.88
827.611	31.81
827.784	31.63
827.958	31.71
828.132	31.63
828.306	31.93
828.48	32.14
828.654	32.31
828.827	32.56
829.001	32.85
829.175	33.23
829.349	33.68
829.522	34.48
829.696	34.78
829.87	35.31
830.044	35.87
830.217	36.88
830.391	37.73
830.565	37.97
830.738	38.36
830.912	38.23
831.085	39.06
831.259	39.39
831.432	39.14
831.606	38.23
831.779	37.08
831.953	36.82
832.126	35.82
832.3	35.16
832.473	34.8
832.647	35.44
832.82	34.56
832.994	33.55
833.167	33.42
833.34	33.52
833.514	34.2
833.687	33.49
833.86	33.13
834.034	33.32
834.207	32.86
834.38	33.01
834.553	32.6
834.727	32.67
834.9	33.38
835.073	32.41
835.246	31.89
835.419	31.62
835.593	32.56
835.766	33.47
835.939	33.46
836.112	34.38
836.285	33.73
836.458	33.52
836.631	34.77
836.804	34.43
836.977	35.68
837.15	37.19
837.323	36.55
837.496	37.78
837.669	37.52
837.842	36.72
838.015	35.68
838.188	36.68
838.361	37.03
838.533	35.33
838.706	33.65
838.879	33.81
839.052	33.89
839.225	34.26
839.398	34.9
839.57	33.87
839.743	34.32
839.916	35.92
840.088	35.34
840.261	36.86
840.434	37.54
840.607	38.64
840.779	37.3
840.952	38.85
841.124	40.03
841.297	39.09
841.47	39.88
841.642	39.73
841.815	37.2
841.987	36.88
842.16	34.66
842.332	35.57
842.505	35.74
842.677	37.88
842.85	35.46
843.022	33.95
843.194	32.9
843.367	33.67
843.539	33.77
843.712	34.3
843.884	35.12
844.056	36.77
844.229	34.97
844.401	35.93
844.573	36.67
844.745	36.72
844.918	38.67
845.09	37.14
845.262	38.65
845.434	39.15
845.606	42.61
845.779	43.2
845.951	42.68
846.123	43.88
846.295	45.45
846.467	46.19
846.639	44.92
846.811	43.79
846.983	45.4
847.155	42.21
847.327	42.31
847.499	40.25
847.671	40.25
847.843	43.28
848.015	42.04
848.187	43.16
848.359	39.78
848.531	39.47
848.703	40.4
848.875	40.68
849.047	42.08
849.218	40.21
849.39	42.36
849.562	42.65
849.734	40.13
849.905	42
850.077	38.04
850.249	40.5
850.421	39.59
850.592	40.87
850.764	40.11
850.936	39.84
851.107	41.16
851.279	41.76
851.451	42.92
851.622	44.02
851.794	42.27
851.965	43.39
852.137	42.65
852.308	46.52
852.48	44.17
852.651	46.06
852.823	46.87
852.994	47.86
853.166	47.39
853.337	44.07
853.509	40.93
853.68	43.85
853.851	42.45
854.023	43.82
854.194	42.55
854.365	42.05
854.537	41.94
854.708	43.59
854.879	45.64
855.05	43.9
855.222	45.52
855.393	47.42
855.564	46.62
855.735	46.54
855.906	46.01
856.078	42.2
856.249	43.92
856.42	41.12
856.591	41.88
856.762	36.85
856.933	37.89
857.104	39.3
857.275	37.91
857.446	35.69
857.617	37.53
857.788	37.27
857.959	40.82
858.13	42.76
858.301	41.5
858.472	38.69
858.643	41.99
858.814	40.8
858.985	38.12
859.155	38.01
859.326	38.2
859.497	38.02
859.668	37.39
859.839	35.65
860.009	33.84
860.18	33.77
860.351	31.83
860.522	33.2
860.692	36.25
860.863	37.99
861.034	40.29
861.204	45.85
861.375	44.72
861.546	43.26
861.716	46.27
861.887	46.04
862.057	49.7
862.228	54.74
862.398	56.42
862.569	50.87
862.739	54.78
862.91	56.35
863.08	51.11
863.251	48.81
863.421	48.39
863.592	41.63
863.762	38.68
863.932	38.58
864.103	35.99
864.273	33.21
864.443	37.74
864.614	31.19
864.784	27.77
864.954	26.6
865.125	32.97
865.295	33.02
865.465	34.39
865.635	37.31
865.805	34.3
865.976	34.87
866.146	30.77
866.316	31.82
866.486	33.07
866.656	31.71
866.826	33.59
866.996	33.07
867.166	34.57
867.336	32.62
867.506	34.44
867.676	31.14
867.846	30.34
868.016	36.24
868.186	34.82
868.356	36.3
868.526	37.66
868.696	34.88
868.866	37
869.036	37.66
869.206	41.57
869.376	37.03
869.545	40.79
869.715	40.77
869.885	35.24
870.055	36.65
870.224	38.28
870.394	37.23
870.564	41.29
870.734	33.3
870.903	32.76
871.073	31.49
871.243	37
871.412	38.32
871.582	38.4
871.751	39.87
871.921	37.52
872.091	33.93
872.26	35.92
872.43	35.48
872.599	36.69
872.769	35.69
872.938	36.84
873.108	34.82
873.277	35.32
873.446	35.18
873.616	35.33
873.785	35.84
873.955	34.27
874.124	35.98
874.293	31.95
874.463	33.4
874.632	33.43
874.801	32.53
874.971	31.29
875.14	31.23
875.309	32.33
875.478	33.56
875.647	35.62
875.817	33.23
875.986	34.25
876.155	33.93
876.324	33.89
876.493	38.18
876.662	38.79
876.831	41.82
877	45.18
877.17	40.89
877.339	37.14
877.508	36.28
877.677	42.91
877.846	39.91
878.015	40.63
878.184	41.22
878.352	36.85
878.521	40.72
878.69	36.74
878.859	33.19
879.028	37.39
879.197	40.49
879.366	35.83
879.534	33.7
879.703	32.14
879.872	31.04
880.041	30.85
880.21	31.23
880.378	28.68
880.547	30
880.716	29.82
880.884	30.28
881.053	31.15
881.222	32.31
881.39	31.28
881.559	31.05
881.727	31.82
881.896	31.23
882.065	30.89
882.233	30.58
882.402	29.93
882.57	30.55
882.739	30.28
882.907	29.86
883.076	29.55
883.244	29.5
883.412	29.99
883.581	29.46
883.749	29.15
883.918	29.55
884.086	30.27
884.254	30.44
884.423	30.68
884.591	30.74
884.759	30.67
884.927	31.07
885.096	30.99
885.264	31.14
885.432	31.9
885.6	32.96
885.769	33.17
885.937	33.03
886.105	34.29
886.273	33.09
886.441	32.34
886.609	30.64
886.777	30.27
886.945	33.76
887.113	32.96
887.281	34.41
887.449	34.72
887.617	31.27
887.785	31.33
887.953	31
888.121	31.78
888.289	33.51
888.457	35.61
888.625	35.48
888.793	37.34
888.961	43.3
889.129	40.93
889.296	43.31
889.464	48.29
889.632	51.11
889.8	51.36
889.967	52.53
890.135	53
