Data from 2938764__Reflection_02.txt Node
Date: Fri Mar 13 16:27:48 EDT 2015
User: robert
Spectrometer: USB4E03002
Autoset integration time: false
Trigger mode: 4
Integration Time (sec): 1.000000E-1
Scans to average: 10
Electric dark correction enabled: false
Nonlinearity correction enabled: false
Boxcar width: 5
Stray light correction enabled: false
XAxis mode: Wavelengths
Stop averaging: false
Number of Pixels in Spectrum: 3648
>>>>>Begin Spectral Data<<<<<
177.575	-331.25
177.794	-2169.23
178.014	-366.67
178.233	-154.55
178.452	-129.36
178.672	-75.18
178.891	-14.65
179.11	-21.66
179.33	-24.47
179.549	-104.89
179.768	-97.62
179.987	-85.5
180.207	-45.51
180.426	-67.52
180.645	-392.22
180.864	-1457.14
181.084	548.31
181.303	594.25
181.522	160.18
181.741	185.62
181.96	157.45
182.179	123.01
182.398	126.86
182.618	48.54
182.837	61.24
183.056	39
183.275	2.16
183.494	16.39
183.713	-8.64
183.932	19.59
184.151	25.6
184.37	25.55
184.589	22.06
184.808	19.13
185.027	40.66
185.246	26.51
185.465	16.5
185.684	31.67
185.903	4.1
186.122	24.82
186.341	-45.41
186.56	-348.94
186.779	-144.14
186.998	135.79
187.216	478.79
187.435	-223.81
187.654	1760
187.873	164
188.092	-3350
188.311	-169.61
188.53	-18.67
188.748	1.31
188.967	38.7
189.186	26.65
189.405	37.07
189.623	46.68
189.842	-1.53
190.061	-54.9
190.28	0.37
190.498	-48.15
190.717	-21.07
190.936	-25.41
191.154	62.01
191.373	36.73
191.592	41.67
191.81	34.87
192.029	82.67
192.248	285.47
192.466	78.03
192.685	95.91
192.904	109.73
193.122	134.65
193.341	133.64
193.559	117.53
193.778	132.86
193.996	122.22
194.215	-268.29
194.433	465.52
194.652	18.31
194.87	-7.07
195.089	-89.47
195.307	228.57
195.526	-476.47
195.744	292.08
195.963	153.11
196.181	125.43
196.399	155.49
196.618	117.09
196.836	105.07
197.055	76.6
197.273	104.1
197.491	138.34
197.71	127.52
197.928	104.58
198.146	103.89
198.365	85.4
198.583	87.89
198.801	66.9
199.019	81.79
199.238	101.62
199.456	114.9
199.674	102.31
199.892	93.2
200.111	93.66
200.329	99.53
200.547	105.11
200.765	120
200.983	139.63
201.202	152.3
201.42	141.27
201.638	95.06
201.856	57.63
202.074	60.43
202.292	84.24
202.51	71.18
202.728	69.02
202.946	55.38
203.165	66.52
203.383	70.59
203.601	76.57
203.819	65.42
204.037	80.15
204.255	93.88
204.473	93.92
204.691	62.53
204.909	58.48
205.127	54.85
205.345	60.42
205.562	78.47
205.78	52.38
205.998	70.2
206.216	106.57
206.434	80.34
206.652	65.76
206.87	129.2
207.088	109.74
207.306	404.76
207.523	189.57
207.741	173.48
207.959	143.46
208.177	162.81
208.395	94.41
208.612	66.91
208.83	95.13
209.048	114.13
209.266	76.59
209.483	94.69
209.701	86.56
209.919	120.52
210.136	123.62
210.354	143.02
210.572	145.08
210.79	128.04
211.007	152.72
211.225	135.96
211.442	156.82
211.66	158.01
211.878	124.34
212.095	122.86
212.313	103.14
212.53	93.03
212.748	79.01
212.966	88.73
213.183	108.07
213.401	101.29
213.618	87.48
213.836	69.7
214.053	64.96
214.271	71.18
214.488	93.17
214.705	81.94
214.923	108.65
215.14	95.55
215.358	69.16
215.575	63.23
215.793	52.1
216.01	53.21
216.227	42.41
216.445	72.65
216.662	52.03
216.879	37.28
217.097	51.96
217.314	50.18
217.531	49.3
217.749	39.83
217.966	36.23
218.183	34.12
218.4	24.37
218.618	19.34
218.835	7.77
219.052	19.98
219.269	24.25
219.487	17.58
219.704	19.21
219.921	16.72
220.138	23.43
220.355	18.06
220.572	21.88
220.79	34.14
221.007	46.06
221.224	45.49
221.441	38.67
221.658	30.01
221.875	29.38
222.092	27.36
222.309	34.13
222.526	32.91
222.743	23.9
222.96	25.1
223.177	21.26
223.394	18.67
223.611	16.37
223.828	16.37
224.045	16.22
224.262	8
224.479	6.21
224.696	4.6
224.913	5.62
225.13	10.63
225.347	14.68
225.564	10.81
225.781	9.23
225.997	7.81
226.214	7.18
226.431	11.29
226.648	11.45
226.865	11.4
227.082	9.25
227.298	7.43
227.515	6.84
227.732	5.16
227.949	4.91
228.165	4.37
228.382	4.48
228.599	4.92
228.816	4.57
229.032	4.7
229.249	4.28
229.466	4.84
229.682	4.95
229.899	5.8
230.116	4.8
230.332	5.44
230.549	5.72
230.765	5.88
230.982	6.4
231.199	7.04
231.415	7.91
231.632	8.47
231.848	8.05
232.065	8.47
232.281	8.36
232.498	9.07
232.714	8.04
232.931	7.73
233.147	8.82
233.364	6.07
233.58	3.94
233.797	1.78
234.013	2.12
234.23	2.92
234.446	3.03
234.662	2.15
234.879	2.5
235.095	2.49
235.312	2.47
235.528	1.17
235.744	2.01
235.961	2.9
236.177	4.8
236.393	4.57
236.61	4.22
236.826	5.17
237.042	6.05
237.258	6.91
237.475	9.03
237.691	10.08
237.907	9.99
238.123	10
238.339	9.81
238.556	10.3
238.772	9.73
238.988	9.05
239.204	8.98
239.42	7.96
239.636	7.16
239.853	5.4
240.069	5.43
240.285	5.05
240.501	5.38
240.717	5.1
240.933	5.22
241.149	4.9
241.365	4.73
241.581	4.66
241.797	4.62
242.013	4.84
242.229	4.62
242.445	4.08
242.661	4.41
242.877	4.83
243.093	4.56
243.309	4.03
243.525	3.92
243.741	4.7
243.957	4.6
244.173	4.78
244.388	5.13
244.604	5.97
244.82	6.2
245.036	6.43
245.252	5.5
245.468	6.09
245.683	6.45
245.899	6.32
246.115	5.38
246.331	5.35
246.547	5.06
246.762	4.38
246.978	4.72
247.194	4.69
247.409	4.69
247.625	4.77
247.841	4.68
248.057	4.28
248.272	4.15
248.488	4.14
248.703	4.08
248.919	3.99
249.135	4.15
249.35	3.52
249.566	3.78
249.782	3.02
249.997	2.68
250.213	2.72
250.428	3.38
250.644	4.57
250.859	4.74
251.075	4.08
251.29	3.93
251.506	4.24
251.721	4.1
251.937	3.44
252.152	3.89
252.368	4.09
252.583	3.89
252.798	4.15
253.014	3.29
253.229	4.13
253.445	4.75
253.66	5.7
253.875	6.13
254.091	5.91
254.306	6.62
254.521	7.17
254.737	8.13
254.952	6.69
255.167	5.59
255.383	5.84
255.598	5.58
255.813	5.15
256.028	4.86
256.244	3.89
256.459	3.81
256.674	3.17
256.889	2.75
257.104	2.83
257.32	3.82
257.535	3.59
257.75	2.87
257.965	2.18
258.18	2.2
258.395	2.6
258.61	2.51
258.826	2.93
259.041	2.8
259.256	2.98
259.471	2.72
259.686	2.85
259.901	2.75
260.116	3.16
260.331	3.41
260.546	3.29
260.761	2.86
260.976	3.05
261.191	2.67
261.406	3.25
261.621	3.14
261.836	2.99
262.05	3.27
262.265	3.34
262.48	3.04
262.695	2.73
262.91	3.3
263.125	3.35
263.34	3.56
263.555	3.79
263.769	3.16
263.984	2.78
264.199	3.37
264.414	3.19
264.629	3.6
264.843	3.54
265.058	3.7
265.273	3.45
265.488	3.52
265.702	3.46
265.917	3.8
266.132	4.31
266.346	5.09
266.561	4.79
266.776	4.31
266.99	4.1
267.205	3.96
267.42	3.62
267.634	4.01
267.849	4.48
268.063	4.65
268.278	4.27
268.492	3.57
268.707	3.16
268.922	2.92
269.136	2.81
269.351	3.07
269.565	2.82
269.78	2.92
269.994	2.55
270.209	2.5
270.423	2.01
270.637	2.14
270.852	2.55
271.066	2.23
271.281	2.17
271.495	2.32
271.709	1.8
271.924	1.89
272.138	2.07
272.353	1.76
272.567	1.34
272.781	1.88
272.996	1.81
273.21	1.8
273.424	1.84
273.638	1.84
273.853	1.43
274.067	2.16
274.281	2.51
274.495	2.3
274.71	1.99
274.924	1.96
275.138	1.39
275.352	1.46
275.566	0.96
275.781	1.01
275.995	0.83
276.209	1.47
276.423	1.36
276.637	1.29
276.851	1.47
277.065	1.79
277.279	1.91
277.493	1.87
277.707	1.82
277.921	1.69
278.135	1.61
278.349	1.74
278.563	1.92
278.777	1.84
278.991	2.03
279.205	2.15
279.419	2.1
279.633	2.72
279.847	3.02
280.061	3.39
280.275	3.69
280.489	3.9
280.703	4.27
280.917	3.87
281.131	3.69
281.344	3.42
281.558	3.24
281.772	3.66
281.986	3.01
282.2	3.13
282.414	3.06
282.627	3.17
282.841	3.04
283.055	3.12
283.269	3
283.482	2.89
283.696	3.04
283.91	2.89
284.123	2.56
284.337	2.51
284.551	2.37
284.764	2.43
284.978	2.38
285.192	2.08
285.405	1.84
285.619	1.75
285.833	1.91
286.046	1.97
286.26	1.75
286.473	1.94
286.687	2.34
286.9	2.26
287.114	2.19
287.327	2.12
287.541	2.22
287.754	2.44
287.968	2.66
288.181	2.7
288.395	2.14
288.608	2.6
288.822	2.59
289.035	2.4
289.248	2.25
289.462	2.34
289.675	2.19
289.889	2.47
290.102	2.14
290.315	2.24
290.529	2.21
290.742	2.53
290.955	2.47
291.169	2.24
291.382	1.85
291.595	1.62
291.808	1.62
292.022	1.75
292.235	1.44
292.448	1.82
292.661	1.23
292.875	1.17
293.088	1.55
293.301	1.22
293.514	1.51
293.727	1.79
293.94	2.29
294.153	2.25
294.367	1.94
294.58	2.06
294.793	1.79
295.006	2.3
295.219	2.04
295.432	1.69
295.645	1.83
295.858	1.71
296.071	1.58
296.284	1.72
296.497	1.79
296.71	2.17
296.923	2.36
297.136	2.59
297.349	2.69
297.562	2.95
297.775	3.14
297.988	3.36
298.201	3.35
298.414	3.68
298.626	3.62
298.839	3.49
299.052	3.25
299.265	3.34
299.478	3.01
299.691	2.94
299.903	2.68
300.116	2.66
300.329	2.47
300.542	2.38
300.755	2.14
300.967	1.99
301.18	2.08
301.393	2.59
301.605	2.19
301.818	2.24
302.031	2.16
302.243	2.4
302.456	2.34
302.669	2.4
302.881	2.9
303.094	2.75
303.307	2.99
303.519	2.75
303.732	2.62
303.944	3
304.157	3.16
304.37	3.04
304.582	2.86
304.795	2.93
305.007	3.15
305.22	3.06
305.432	3.19
305.645	3.2
305.857	3.59
306.069	3.53
306.282	3.24
306.494	3.23
306.707	3.67
306.919	4.05
307.132	3.91
307.344	3.57
307.556	3.63
307.769	4.32
307.981	3.93
308.193	3.55
308.406	3.33
308.618	3.71
308.83	3.77
309.043	3.47
309.255	3.53
309.467	3.54
309.679	3.56
309.892	3.6
310.104	3.08
310.316	3.61
310.528	3.77
310.74	3.8
310.953	3.59
311.165	3.94
311.377	3.91
311.589	3.58
311.801	3.76
312.013	3.74
312.225	3.91
312.437	4.37
312.649	4.03
312.862	4.09
313.074	4.24
313.286	4.59
313.498	4.57
313.71	4.69
313.922	5.25
314.134	4.88
314.346	5.01
314.558	4.64
314.77	4.57
314.982	4.55
315.193	4.36
315.405	4.28
315.617	3.76
315.829	3.61
316.041	3.97
316.253	3.34
316.465	3.81
316.677	4.18
316.888	4.5
317.1	4.49
317.312	4.68
317.524	5.18
317.736	5.41
317.947	5.76
318.159	5.93
318.371	5.72
318.583	6.22
318.794	6
319.006	6.23
319.218	5.92
319.43	5.58
319.641	5.66
319.853	5.6
320.064	5.72
320.276	5.75
320.488	5.42
320.699	5.46
320.911	5.77
321.123	6.04
321.334	5.65
321.546	6.11
321.757	6.64
321.969	6.65
322.18	6.81
322.392	6.93
322.603	6.91
322.815	7.68
323.026	7.43
323.238	7.24
323.449	7.22
323.661	7.33
323.872	7.35
324.083	7.51
324.295	7.9
324.506	8.09
324.718	8.06
324.929	8.39
325.14	8.42
325.352	9.09
325.563	9.29
325.774	9.86
325.986	10.31
326.197	10.64
326.408	10.63
326.62	10.83
326.831	10.82
327.042	11.32
327.253	11.76
327.464	11.65
327.676	11.75
327.887	12.06
328.098	12.14
328.309	12.39
328.52	12.64
328.732	12.87
328.943	12.97
329.154	13.01
329.365	13.16
329.576	13.51
329.787	13.84
329.998	13.94
330.209	14.13
330.42	14.32
330.631	14.54
330.842	14.68
331.053	15.47
331.264	15.77
331.475	16.2
331.686	16.8
331.897	17.06
332.108	17.1
332.319	17.66
332.53	17.76
332.741	17.92
332.952	18.06
333.163	18.07
333.374	18.14
333.585	18.63
333.795	19.08
334.006	18.79
334.217	18.75
334.428	19.2
334.639	19.48
334.849	19.33
335.06	19.43
335.271	19.48
335.482	20.07
335.692	19.93
335.903	19.87
336.114	19.93
336.325	20.47
336.535	20.47
336.746	20.54
336.957	20.28
337.167	20.54
337.378	20.92
337.589	21.24
337.799	21.2
338.01	21.52
338.22	21.19
338.431	21.13
338.642	20.96
338.852	20.98
339.063	21.07
339.273	21.22
339.484	21.61
339.694	21.42
339.905	21.52
340.115	21.37
340.326	21.18
340.536	21.61
340.746	21.58
340.957	21.78
341.167	21.99
341.378	21.92
341.588	21.9
341.799	21.59
342.009	21.52
342.219	21.52
342.43	21.17
342.64	21.23
342.85	21.07
343.061	21.05
343.271	20.67
343.481	20.41
343.691	20.51
343.902	20.51
344.112	20.69
344.322	20.73
344.532	20.43
344.743	20.65
344.953	20.69
345.163	20.44
345.373	20.54
345.583	20.66
345.793	20.7
346.004	20.63
346.214	20.67
346.424	20.66
346.634	20.63
346.844	21.01
347.054	21.2
347.264	20.99
347.474	21.43
347.684	21.32
347.894	21.61
348.104	21.71
348.314	21.9
348.524	21.76
348.734	21.72
348.944	21.58
349.154	21.37
349.364	21.1
349.574	21.11
349.784	21.35
349.994	21.24
350.204	20.99
350.413	20.96
350.623	20.73
350.833	20.68
351.043	20.81
351.253	21.05
351.463	20.87
351.672	21.02
351.882	21.1
352.092	20.53
352.302	20.88
352.511	20.84
352.721	20.85
352.931	20.84
353.141	21.06
353.35	21.07
353.56	21.07
353.77	20.96
353.979	20.92
354.189	21.01
354.399	21.23
354.608	21.1
354.818	21.3
355.027	21.31
355.237	21.19
355.447	20.93
355.656	20.8
355.866	20.74
356.075	20.84
356.285	20.81
356.494	20.73
356.704	20.62
356.913	20.82
357.123	20.5
357.332	20.31
357.542	20.44
357.751	20.56
357.96	20.54
358.17	20.26
358.379	20.25
358.589	20.36
358.798	20.39
359.007	20.32
359.217	20.11
359.426	20.21
359.635	20.17
359.845	20.15
360.054	20.04
360.263	20.13
360.472	20.47
360.682	20.5
360.891	20.35
361.1	20.19
361.309	20.47
361.519	20.53
361.728	20.47
361.937	20.55
362.146	20.4
362.355	20.43
362.564	20.44
362.774	20.3
362.983	20.16
363.192	20.16
363.401	20.1
363.61	19.9
363.819	20.03
364.028	20.06
364.237	19.88
364.446	20.19
364.655	20
364.864	19.82
365.073	19.85
365.282	20.08
365.491	20.18
365.7	20.34
365.909	20.37
366.118	19.86
366.327	19.82
366.536	20.01
366.745	19.69
366.954	20.09
367.162	19.98
367.371	19.85
367.58	19.81
367.789	19.69
367.998	19.44
368.207	19.38
368.415	19.48
368.624	19.68
368.833	19.45
369.042	19.28
369.25	19.19
369.459	19.36
369.668	19.17
369.877	18.94
370.085	18.86
370.294	18.95
370.503	18.72
370.711	18.53
370.92	18.05
371.129	18.24
371.337	18.39
371.546	18.24
371.754	18.01
371.963	18.19
372.171	18.25
372.38	18.16
372.589	18.29
372.797	18.35
373.006	18.42
373.214	18.77
373.423	18.9
373.631	18.85
373.84	18.73
374.048	18.76
374.256	18.77
374.465	18.7
374.673	18.72
374.882	18.87
375.09	19.01
375.298	18.9
375.507	18.96
375.715	18.84
375.923	18.88
376.132	18.78
376.34	18.69
376.548	18.67
376.757	18.47
376.965	18.47
377.173	18.26
377.381	17.99
377.59	18.14
377.798	18.16
378.006	17.98
378.214	17.69
378.423	17.76
378.631	17.74
378.839	17.61
379.047	17.71
379.255	17.87
379.463	17.87
379.671	17.94
379.879	17.84
380.088	17.64
380.296	17.64
380.504	17.9
380.712	17.95
380.92	17.98
381.128	17.9
381.336	17.91
381.544	17.77
381.752	17.74
381.96	17.81
382.168	17.81
382.376	17.57
382.584	17.68
382.791	17.51
382.999	17.38
383.207	17.6
383.415	17.8
383.623	17.94
383.831	17.7
384.039	17.81
384.247	17.74
384.454	17.8
384.662	17.85
384.87	17.63
385.078	17.57
385.285	17.52
385.493	17.5
385.701	17.29
385.909	17.11
386.116	17.14
386.324	16.95
386.532	17.03
386.739	17.1
386.947	17.06
387.155	16.97
387.362	17.16
387.57	17.18
387.778	16.93
387.985	17.05
388.193	17.09
388.4	17.01
388.608	16.92
388.816	16.49
389.023	16.37
389.231	16.51
389.438	16.63
389.646	16.46
389.853	16.26
390.061	16.33
390.268	16.36
390.475	16.42
390.683	16.6
390.89	16.64
391.098	16.97
391.305	16.83
391.512	16.77
391.72	16.74
391.927	16.7
392.135	16.77
392.342	16.54
392.549	16.44
392.756	16.28
392.964	16.17
393.171	16.14
393.378	16.01
393.586	15.98
393.793	15.8
394	15.92
394.207	16.14
394.414	16.25
394.622	16.29
394.829	16.29
395.036	16.27
395.243	16.23
395.45	16.19
395.657	16.27
395.864	16.4
396.072	16.38
396.279	16.17
396.486	15.99
396.693	15.91
396.9	16
397.107	16.23
397.314	16.25
397.521	16.06
397.728	16.19
397.935	16.07
398.142	16.09
398.349	16.22
398.556	16.15
398.763	16.18
398.97	16.14
399.177	16.23
399.383	15.9
399.59	15.9
399.797	16.08
400.004	16
400.211	16.01
400.418	15.89
400.625	15.81
400.831	15.93
401.038	15.68
401.245	15.73
401.452	15.52
401.658	15.68
401.865	15.63
402.072	15.53
402.279	15.56
402.485	15.45
402.692	15.58
402.899	15.65
403.105	15.51
403.312	15.66
403.519	15.72
403.725	15.74
403.932	15.67
404.138	15.79
404.345	15.85
404.552	15.69
404.758	15.67
404.965	15.56
405.171	15.45
405.378	15.59
405.584	15.66
405.791	15.55
405.997	15.68
406.204	15.56
406.41	15.55
406.617	15.59
406.823	15.7
407.029	15.72
407.236	15.52
407.442	15.45
407.649	15.45
407.855	15.31
408.061	15.39
408.268	15.21
408.474	15.33
408.68	15.33
408.887	15.28
409.093	15.26
409.299	15.47
409.505	15.54
409.712	15.71
409.918	15.67
410.124	15.78
410.33	15.88
410.537	15.93
410.743	15.77
410.949	15.55
411.155	15.53
411.361	15.47
411.567	15.21
411.773	15.36
411.98	15.33
412.186	15.4
412.392	15.39
412.598	15.07
412.804	15.15
413.01	15.29
413.216	15.51
413.422	15.5
413.628	15.66
413.834	15.76
414.04	15.61
414.246	15.55
414.452	15.37
414.658	15.23
414.864	15.39
415.07	15.32
415.275	15.29
415.481	15.4
415.687	15.53
415.893	15.38
416.099	15.42
416.305	15.37
416.511	15.47
416.716	15.52
416.922	15.52
417.128	15.46
417.334	15.45
417.539	15.53
417.745	15.55
417.951	15.44
418.157	15.46
418.362	15.45
418.568	15.6
418.774	15.64
418.979	15.58
419.185	15.67
419.391	15.73
419.596	15.68
419.802	15.65
420.008	15.52
420.213	16.15
420.419	16.18
420.624	16.13
420.83	16.11
421.035	16.02
421.241	16
421.446	15.96
421.652	15.89
421.857	15.95
422.063	15.91
422.268	15.95
422.474	15.37
422.679	15.35
422.885	15.13
423.09	15.1
423.295	15.12
423.501	15.18
423.706	15.22
423.911	15.17
424.117	15.15
424.322	15.14
424.527	15.06
424.733	15.05
424.938	15.09
425.143	15.22
425.349	15.31
425.554	15.29
425.759	15.3
425.964	15.25
426.169	15.43
426.375	15.45
426.58	15.39
426.785	15.43
426.99	15.49
427.195	15.39
427.4	15.52
427.605	15.34
427.811	15.31
428.016	15.35
428.221	15.31
428.426	15.19
428.631	15.11
428.836	15.25
429.041	15.23
429.246	15.25
429.451	15.22
429.656	15.2
429.861	15.2
430.066	15.26
430.271	15.21
430.476	15.24
430.681	15.24
430.886	15.2
431.09	15.15
431.295	15.2
431.5	15.07
431.705	15.13
431.91	15.2
432.115	15.16
432.32	15.2
432.524	15.16
432.729	15.23
432.934	15.32
433.139	15.47
433.343	15.44
433.548	15.45
433.753	15.44
433.958	15.51
434.162	15.6
434.367	15.81
434.572	15.73
434.776	15.79
434.981	15.71
435.186	15.7
435.39	15.64
435.595	15.83
435.799	15.78
436.004	15.85
436.209	15.78
436.413	15.67
436.618	15.58
436.822	15.63
437.027	15.7
437.231	15.78
437.436	15.78
437.64	15.81
437.845	15.75
438.049	15.8
438.253	15.83
438.458	15.9
438.662	15.88
438.867	15.9
439.071	15.92
439.275	15.94
439.48	15.89
439.684	15.93
439.888	15.91
440.093	15.9
440.297	15.88
440.501	15.93
440.706	15.88
440.91	15.87
441.114	15.89
441.318	15.82
441.523	15.75
441.727	15.83
441.931	15.84
442.135	15.86
442.339	15.86
442.543	15.88
442.748	15.84
442.952	15.85
443.156	15.89
443.36	15.85
443.564	15.98
443.768	16.05
443.972	15.99
444.176	15.99
444.38	15.91
444.584	15.9
444.788	15.89
444.992	15.97
445.196	15.97
445.4	15.94
445.604	15.96
445.808	15.94
446.012	15.85
446.216	15.92
446.42	15.86
446.624	15.94
446.828	15.93
447.032	15.97
447.235	15.86
447.439	15.88
447.643	15.89
447.847	15.91
448.051	15.9
448.254	15.92
448.458	15.87
448.662	15.84
448.866	15.78
449.069	15.81
449.273	15.69
449.477	15.78
449.681	15.79
449.884	15.79
450.088	15.74
450.292	15.61
450.495	15.58
450.699	15.54
450.902	15.64
451.106	15.63
451.31	15.51
451.513	15.66
451.717	15.66
451.92	15.6
452.124	15.55
452.327	15.51
452.531	15.63
452.734	15.7
452.938	15.72
453.141	15.68
453.345	15.66
453.548	15.73
453.752	15.66
453.955	15.66
454.158	15.65
454.362	15.69
454.565	15.71
454.769	15.72
454.972	15.63
455.175	15.65
455.379	15.59
455.582	15.68
455.785	15.72
455.988	15.78
456.192	15.76
456.395	15.85
456.598	15.9
456.801	15.84
457.005	15.79
457.208	15.93
457.411	15.86
457.614	15.86
457.817	15.81
458.021	15.74
458.224	15.67
458.427	15.65
458.63	15.56
458.833	15.59
459.036	15.68
459.239	15.7
459.442	15.55
459.645	15.54
459.848	15.55
460.051	15.58
460.254	15.59
460.457	15.59
460.66	15.63
460.863	15.64
461.066	15.55
461.269	15.49
461.472	15.55
461.675	15.72
461.878	15.76
462.081	15.76
462.284	15.78
462.486	15.75
462.689	15.81
462.892	15.69
463.095	15.71
463.298	15.78
463.5	15.74
463.703	15.69
463.906	15.63
464.109	15.63
464.311	15.64
464.514	15.57
464.717	15.6
464.92	15.59
465.122	15.69
465.325	15.79
465.528	15.75
465.73	15.91
465.933	15.89
466.135	15.83
466.338	15.8
466.541	15.83
466.743	15.82
466.946	15.93
467.148	15.94
467.351	15.92
467.553	15.86
467.756	15.9
467.958	15.79
468.161	15.74
468.363	15.89
468.566	15.95
468.768	15.99
468.971	16.09
469.173	16.17
469.375	16.19
469.578	16.24
469.78	16.22
469.983	16.28
470.185	16.35
470.387	16.49
470.59	16.32
470.792	16.3
470.994	16.33
471.196	16.37
471.399	16.29
471.601	16.19
471.803	16.23
472.005	16.31
472.208	16.26
472.41	16.3
472.612	16.21
472.814	16.29
473.016	16.27
473.218	16.16
473.421	16.07
473.623	16.04
473.825	16.13
474.027	16.04
474.229	16
474.431	15.99
474.633	15.95
474.835	15.99
475.037	15.99
475.239	16.03
475.441	16.06
475.643	16.11
475.845	16.09
476.047	16.02
476.249	16.1
476.451	16.08
476.653	16.07
476.855	16.1
477.057	16.07
477.258	16
477.46	15.91
477.662	15.93
477.864	15.85
478.066	15.88
478.268	15.93
478.469	15.83
478.671	15.84
478.873	15.84
479.075	15.8
479.276	15.77
479.478	15.78
479.68	15.94
479.882	15.94
480.083	15.96
480.285	15.92
480.487	15.9
480.688	15.98
480.89	15.99
481.091	15.93
481.293	15.96
481.495	16.01
481.696	16.03
481.898	15.96
482.099	15.97
482.301	15.97
482.502	15.92
482.704	15.85
482.905	15.83
483.107	15.78
483.308	15.83
483.51	15.8
483.711	15.77
483.913	15.8
484.114	15.78
484.315	15.76
484.517	15.72
484.718	15.75
484.92	15.79
485.121	15.79
485.322	15.82
485.524	15.8
485.725	15.82
485.926	15.83
486.127	15.81
486.329	15.86
486.53	15.86
486.731	15.92
486.932	15.91
487.134	15.86
487.335	15.88
487.536	15.88
487.737	15.88
487.938	15.9
488.139	15.94
488.341	15.93
488.542	15.91
488.743	15.96
488.944	16.01
489.145	16.05
489.346	16.12
489.547	16.12
489.748	16.18
489.949	16.19
490.15	16.14
490.351	16.14
490.552	16.11
490.753	16.1
490.954	16.07
491.155	16.04
491.356	16.04
491.557	16.07
491.758	16.11
491.959	16.08
492.159	16.08
492.36	16.15
492.561	16.18
492.762	16.23
492.963	16.26
493.164	16.29
493.364	16.32
493.565	16.33
493.766	16.39
493.967	16.32
494.167	16.36
494.368	16.48
494.569	16.43
494.769	16.43
494.97	16.42
495.171	16.53
495.371	16.61
495.572	16.66
495.773	16.71
495.973	16.68
496.174	16.84
496.375	16.8
496.575	16.8
496.776	16.81
496.976	16.84
497.177	16.89
497.377	16.9
497.578	16.88
497.778	16.86
497.979	16.84
498.179	16.9
498.38	16.89
498.58	17.04
498.78	17.01
498.981	17.12
499.181	17.11
499.382	17.1
499.582	17.06
499.782	17.19
499.983	17.26
500.183	17.36
500.383	17.34
500.584	17.34
500.784	17.32
500.984	17.44
501.184	17.47
501.385	17.53
501.585	17.6
501.785	17.67
501.985	17.69
502.185	17.77
502.386	17.85
502.586	17.9
502.786	17.97
502.986	18.04
503.186	18.07
503.386	18.05
503.586	18.13
503.786	18.13
503.987	18.2
504.187	18.28
504.387	18.28
504.587	18.32
504.787	18.3
504.987	18.36
505.187	18.41
505.387	18.44
505.587	18.54
505.786	18.63
505.986	18.82
506.186	18.91
506.386	18.92
506.586	18.98
506.786	18.98
506.986	19.08
507.186	19.1
507.386	19.17
507.585	19.23
507.785	19.26
507.985	19.2
508.185	19.21
508.384	19.3
508.584	19.33
508.784	19.43
508.984	19.45
509.183	19.58
509.383	19.64
509.583	19.61
509.782	19.64
509.982	19.7
510.182	19.83
510.381	19.86
510.581	19.82
510.781	19.8
510.98	19.89
511.18	20.08
511.379	20.03
511.579	20.09
511.778	20.28
511.978	20.33
512.177	20.42
512.377	20.57
512.576	20.65
512.776	20.78
512.975	20.92
513.175	20.93
513.374	20.96
513.573	21.12
513.773	21.18
513.972	21.16
514.172	21.3
514.371	21.42
514.57	21.39
514.77	21.44
514.969	21.49
515.168	21.57
515.367	21.65
515.567	21.68
515.766	21.74
515.965	21.89
516.164	22.03
516.364	22.08
516.563	22.11
516.762	22.28
516.961	22.35
517.16	22.46
517.359	22.51
517.559	22.65
517.758	22.76
517.957	22.78
518.156	22.78
518.355	22.82
518.554	22.9
518.753	22.97
518.952	23.01
519.151	23.15
519.35	23.22
519.549	23.32
519.748	23.35
519.947	23.42
520.146	23.54
520.345	23.68
520.544	23.85
520.743	23.96
520.942	24.03
521.141	24.17
521.339	24.24
521.538	24.37
521.737	24.49
521.936	24.69
522.135	24.79
522.333	24.93
522.532	25.03
522.731	25.07
522.93	25.21
523.129	25.32
523.327	25.35
523.526	25.5
523.725	25.61
523.923	25.68
524.122	25.76
524.321	25.87
524.519	25.86
524.718	25.9
524.917	25.98
525.115	25.98
525.314	26.14
525.512	26.2
525.711	26.26
525.909	26.35
526.108	26.42
526.306	26.44
526.505	26.54
526.703	26.67
526.902	26.74
527.1	26.81
527.299	26.88
527.497	26.92
527.696	26.99
527.894	27.05
528.092	27.05
528.291	27.1
528.489	27.15
528.688	27.13
528.886	27.16
529.084	27.21
529.283	27.25
529.481	27.31
529.679	27.35
529.877	27.41
530.076	27.43
530.274	27.49
530.472	27.54
530.67	27.66
530.869	27.81
531.067	27.92
531.265	28.04
531.463	28.17
531.661	28.25
531.859	28.34
532.057	28.4
532.255	28.46
532.454	28.58
532.652	28.7
532.85	28.75
533.048	28.82
533.246	28.9
533.444	28.99
533.642	29.02
533.84	29.07
534.038	29.11
534.236	29.13
534.434	29.24
534.632	29.28
534.83	29.32
535.027	29.41
535.225	29.44
535.423	29.55
535.621	29.66
535.819	29.79
536.017	29.9
536.215	29.99
536.412	30.12
536.61	30.26
536.808	30.4
537.006	30.46
537.203	30.56
537.401	30.75
537.599	30.86
537.797	30.97
537.994	31.12
538.192	31.31
538.39	31.5
538.587	31.77
538.785	31.9
538.983	32.01
539.18	32.23
539.378	32.32
539.575	32.56
539.773	32.65
539.97	32.73
540.168	32.85
540.366	32.92
540.563	32.97
540.761	33.04
540.958	33.09
541.155	33.19
541.353	33.2
541.55	33.29
541.748	33.23
541.945	33.33
542.143	33.41
542.34	33.45
542.537	33.58
542.735	33.76
542.932	33.87
543.129	34.08
543.327	34.36
543.524	34.77
543.721	35.14
543.919	35.6
544.116	35.93
544.313	36.42
544.51	36.84
544.708	37.25
544.905	37.6
545.102	38.04
545.299	38.31
545.496	38.53
545.693	38.65
545.891	38.59
546.088	38.52
546.285	38.39
546.482	38.16
546.679	38.06
546.876	37.88
547.073	37.64
547.27	37.28
547.467	36.96
547.664	36.63
547.861	36.38
548.058	36.29
548.255	36.11
548.452	36.13
548.649	35.99
548.846	35.9
549.043	35.74
549.24	35.72
549.437	35.76
549.633	35.8
549.83	35.74
550.027	35.57
550.224	35.42
550.421	35.34
550.618	35.11
550.814	35.05
551.011	34.82
551.208	34.65
551.405	34.62
551.601	34.41
551.798	34.35
551.995	34.29
552.191	34.22
552.388	34.13
552.585	33.92
552.781	33.9
552.978	33.78
553.175	33.77
553.371	33.86
553.568	33.75
553.764	33.71
553.961	33.71
554.157	33.63
554.354	33.59
554.55	33.65
554.747	33.72
554.943	33.74
555.14	33.79
555.336	33.77
555.533	33.68
555.729	33.61
555.926	33.75
556.122	33.61
556.318	33.77
556.515	33.87
556.711	33.76
556.907	33.8
557.104	33.74
557.3	33.78
557.496	33.76
557.693	33.82
557.889	33.87
558.085	33.89
558.281	33.97
558.478	33.98
558.674	33.99
558.87	34.03
559.066	34.02
559.262	34.11
559.459	34.08
559.655	34.03
559.851	34.08
560.047	34.08
560.243	33.97
560.439	33.92
560.635	33.63
560.831	33.58
561.027	33.52
561.223	33.53
561.419	33.48
561.615	33.45
561.811	33.62
562.007	33.5
562.203	33.6
562.399	33.56
562.595	33.64
562.791	33.86
562.987	33.8
563.183	33.85
563.379	33.85
563.575	33.92
563.771	33.99
563.966	33.79
564.162	33.9
564.358	33.81
564.554	33.82
564.75	33.89
564.945	33.71
565.141	33.79
565.337	33.79
565.533	33.89
565.728	33.78
565.924	33.72
566.12	33.88
566.315	33.82
566.511	33.84
566.707	33.87
566.902	33.77
567.098	33.86
567.293	33.79
567.489	33.81
567.684	33.78
567.88	33.87
568.076	33.97
568.271	33.96
568.467	33.97
568.662	33.94
568.858	33.98
569.053	33.95
569.248	33.92
569.444	33.97
569.639	33.98
569.835	33.91
570.03	33.88
570.225	33.9
570.421	33.76
570.616	33.82
570.812	33.91
571.007	33.81
571.202	33.88
571.397	33.89
571.593	33.82
571.788	33.7
571.983	33.67
572.178	33.67
572.374	33.68
572.569	33.7
572.764	33.63
572.959	33.55
573.154	33.57
573.35	33.49
573.545	33.54
573.74	33.67
573.935	33.77
574.13	33.84
574.325	33.83
574.52	33.8
574.715	33.93
574.91	34.06
575.105	34.21
575.3	34.34
575.495	34.54
575.69	34.62
575.885	34.7
576.08	34.85
576.275	35.1
576.47	35.4
576.665	35.58
576.86	35.8
577.055	36.02
577.25	36.09
577.444	36.33
577.639	36.47
577.834	36.78
578.029	36.96
578.224	37.12
578.418	37.27
578.613	37.27
578.808	37.37
579.003	37.44
579.197	37.49
579.392	37.57
579.587	37.59
579.781	37.58
579.976	37.48
580.171	37.51
580.365	37.46
580.56	37.39
580.755	37.42
580.949	37.35
581.144	37.3
581.338	37.29
581.533	37.23
581.727	37.12
581.922	37.15
582.116	37.15
582.311	37.19
582.505	37.28
582.7	37.31
582.894	37.35
583.089	37.4
583.283	37.49
583.478	37.49
583.672	37.47
583.866	37.71
584.061	37.74
584.255	37.73
584.449	37.89
584.644	37.93
584.838	37.97
585.032	38.07
585.226	38.18
585.421	38.29
585.615	38.39
585.809	38.72
586.003	38.87
586.198	38.98
586.392	39.24
586.586	39.14
586.78	39.22
586.974	39.22
587.168	39.18
587.363	39.1
587.557	38.9
587.751	38.86
587.945	38.6
588.139	38.39
588.333	38.31
588.527	38.06
588.721	37.97
588.915	37.75
589.109	37.53
589.303	37.46
589.497	37.39
589.691	37.43
589.885	37.35
590.079	37.37
590.273	37.43
590.466	37.44
590.66	37.61
590.854	37.68
591.048	37.84
591.242	38.1
591.436	38.25
591.629	38.42
591.823	38.42
592.017	38.63
592.211	38.82
592.404	38.66
592.598	38.85
592.792	38.86
592.986	38.72
593.179	38.76
593.373	38.57
593.567	38.48
593.76	38.44
593.954	38.32
594.147	38.02
594.341	37.81
594.535	37.76
594.728	37.48
594.922	37.25
595.115	37.12
595.309	36.96
595.502	36.86
595.696	36.82
595.889	36.63
596.083	36.56
596.276	36.46
596.47	36.45
596.663	36.5
596.856	36.61
597.05	36.67
597.243	36.9
597.437	36.93
597.63	36.98
597.823	37.04
598.017	37.16
598.21	37.34
598.403	37.65
598.596	37.8
598.79	37.86
598.983	37.89
599.176	37.94
599.369	37.82
599.563	37.93
599.756	38.04
599.949	38.01
600.142	38.01
600.335	37.97
600.528	37.91
600.722	37.86
600.915	37.78
601.108	37.73
601.301	37.81
601.494	37.9
601.687	37.75
601.88	37.77
602.073	37.73
602.266	37.73
602.459	37.72
602.652	37.42
602.845	37.18
603.038	37.13
603.231	37.12
603.424	36.87
603.617	36.77
603.809	36.71
604.002	36.63
604.195	36.51
604.388	36.58
604.581	36.49
604.774	36.54
604.966	36.72
605.159	36.74
605.352	36.66
605.545	36.83
605.737	36.85
605.93	36.98
606.123	37.17
606.316	37.41
606.508	37.46
606.701	37.8
606.894	38.15
607.086	38.32
607.279	38.65
607.471	39.03
607.664	39.36
607.857	39.91
608.049	40.56
608.242	41.32
608.434	42.35
608.627	43.53
608.819	44.85
609.012	46.39
609.204	48.12
609.397	49.86
609.589	51.93
609.782	54.15
609.974	56.35
610.166	58.52
610.359	60.66
610.551	62.5
610.743	64.23
610.936	65.76
611.128	67.05
611.32	67.98
611.513	68.64
611.705	68.72
611.897	68.4
612.09	67.84
612.282	66.96
612.474	65.78
612.666	64.51
612.858	63.18
613.051	61.73
613.243	60.29
613.435	59.09
613.627	58
613.819	57.09
614.011	56.17
614.203	55.34
614.395	54.56
614.588	53.66
614.78	52.77
614.972	52.14
615.164	51.37
615.356	50.43
615.548	49.51
615.74	48.7
615.932	47.79
616.124	47.03
616.315	46.11
616.507	45.44
616.699	44.83
616.891	44.48
617.083	43.85
617.275	43.52
617.467	43.21
617.659	42.84
617.85	42.45
618.042	42.22
618.234	42.08
618.426	42.01
618.618	41.9
618.809	41.9
619.001	41.73
619.193	41.51
619.384	41.38
619.576	41.46
619.768	41.43
619.959	41.4
620.151	41.43
620.343	41.45
620.534	41.4
620.726	41.37
620.917	41.54
621.109	41.43
621.301	41.65
621.492	41.51
621.684	41.56
621.875	41.63
622.067	41.76
622.258	41.73
622.45	41.73
622.641	41.88
622.832	42.04
623.024	41.85
623.215	42.1
623.407	41.95
623.598	42.04
623.789	42.09
623.981	42.11
624.172	42.07
624.363	42.07
624.555	41.99
624.746	41.72
624.937	41.45
625.129	41.36
625.32	41.12
625.511	41.24
625.702	41.1
625.893	40.81
626.085	40.58
626.276	40.43
626.467	40.47
626.658	40.51
626.849	40.46
627.04	40.58
627.231	40.53
627.422	40.54
627.614	40.54
627.805	40.82
627.996	40.96
628.187	41.21
628.378	41.39
628.569	41.47
628.76	41.44
628.951	41.95
629.142	42.23
629.332	42.67
629.523	43.06
629.714	43.34
629.905	43.5
630.096	43.66
630.287	43.91
630.478	44.03
630.669	44.06
630.859	44.28
631.05	43.91
631.241	43.7
631.432	43.27
631.623	42.77
631.813	42.37
632.004	42.04
632.195	41.68
632.385	41.08
632.576	40.83
632.767	40.36
632.957	39.99
633.148	39.82
633.339	39.52
633.529	39.26
633.72	39.35
633.91	39.15
634.101	38.88
634.292	38.78
634.482	38.67
634.673	38.53
634.863	38.6
635.054	38.55
635.244	38.37
635.435	38.47
635.625	38.48
635.815	38.4
636.006	38.25
636.196	38.25
636.387	38.39
636.577	38.56
636.767	38.62
636.958	38.63
637.148	38.59
637.338	38.77
637.529	38.38
637.719	38.48
637.909	38.51
638.099	38.68
638.29	38.75
638.48	38.75
638.67	38.81
638.86	38.97
639.05	39.01
639.241	39.2
639.431	39.27
639.621	39.54
639.811	39.39
640.001	39.39
640.191	39.37
640.381	39.36
640.571	39.12
640.761	39.07
640.951	38.87
641.141	38.85
641.331	38.52
641.521	38.52
641.711	38.49
641.901	38.54
642.091	38.59
642.281	38.76
642.471	38.96
642.661	39.13
642.851	39.24
643.041	39.13
643.231	38.96
643.42	39.03
643.61	38.96
643.8	38.92
643.99	39.23
644.18	39.02
644.369	38.85
644.559	38.7
644.749	38.5
644.939	38.31
645.128	38.34
645.318	38.5
645.508	38.75
645.697	38.79
645.887	38.95
646.076	38.65
646.266	38.66
646.456	38.67
646.645	38.76
646.835	39.15
647.024	39.16
647.214	39.21
647.403	39.2
647.593	39.12
647.782	39.06
647.972	38.89
648.161	39
648.351	39.15
648.54	39.22
648.73	39.25
648.919	39.29
649.108	39.36
649.298	39.5
649.487	39.52
649.677	39.77
649.866	39.94
650.055	40
650.244	40.23
650.434	40.4
650.623	40.57
650.812	40.55
651.002	40.4
651.191	40.56
651.38	40.43
651.569	40.26
651.758	40.13
651.947	40.04
652.137	40.1
652.326	40.15
652.515	40.06
652.704	39.87
652.893	39.88
653.082	39.9
653.271	39.76
653.46	39.87
653.649	40.08
653.838	40.13
654.027	40.16
654.216	40.13
654.405	39.87
654.594	39.87
654.783	39.75
654.972	39.75
655.161	39.49
655.35	39.64
655.539	39.49
655.728	39.47
655.916	39.38
656.105	39.36
656.294	39.31
656.483	39.4
656.672	39.49
656.86	39.6
657.049	39.4
657.238	39.56
657.427	39.26
657.615	39.35
657.804	39.24
657.993	38.96
658.181	38.88
658.37	38.71
658.559	38.48
658.747	38.4
658.936	38.3
659.125	38.29
659.313	38.38
659.502	38.44
659.69	38.24
659.879	38.27
660.067	38.52
660.256	38.52
660.444	38.77
660.633	39.16
660.821	39.17
661.01	39.3
661.198	39.44
661.387	39.51
661.575	39.65
661.763	39.86
661.952	39.79
662.14	39.73
662.328	40.06
662.517	40.1
662.705	39.71
662.893	39.78
663.082	39.88
663.27	39.9
663.458	39.84
663.646	39.94
663.834	40.27
664.023	40.65
664.211	40.97
664.399	40.6
664.587	40.32
664.775	40.41
664.963	40.5
665.152	40.31
665.34	40.38
665.528	40.08
665.716	40.11
665.904	39.78
666.092	39.72
666.28	39.4
666.468	39.42
666.656	39.39
666.844	39.35
667.032	39.21
667.22	39.37
667.408	39.47
667.596	39.59
667.784	39.43
667.971	39.45
668.159	39.23
668.347	39.25
668.535	39.38
668.723	39.55
668.911	39.79
669.098	39.82
669.286	39.93
669.474	39.66
669.662	39.72
669.849	39.76
670.037	39.65
670.225	39.78
670.413	39.74
670.6	39.6
670.788	39.59
670.976	39.44
671.163	39.39
671.351	39.33
671.538	39.34
671.726	39.1
671.913	39.26
672.101	39.73
672.289	39.81
672.476	39.83
672.664	40
672.851	40.1
673.039	40.17
673.226	40.12
673.413	40.03
673.601	40.13
673.788	40.59
673.976	40.39
674.163	39.94
674.35	39.98
674.538	39.87
674.725	39.62
674.912	39.78
675.1	39.97
675.287	40.09
675.474	40.13
675.662	40.12
675.849	40.18
676.036	40.04
676.223	40.23
676.411	40.3
676.598	40.37
676.785	40.44
676.972	40.28
677.159	40.1
677.346	39.75
677.533	39.56
677.721	39.41
677.908	39.14
678.095	39.25
678.282	39.08
678.469	38.75
678.656	38.7
678.843	38.82
679.03	38.69
679.217	38.55
679.404	38.82
679.591	38.8
679.778	38.93
679.964	38.84
680.151	38.74
680.338	38.68
680.525	38.74
680.712	38.72
680.899	38.66
681.086	38.73
681.272	38.79
681.459	38.59
681.646	38.77
681.833	38.86
682.02	39.06
682.206	39.08
682.393	39.19
682.58	39.34
682.766	39.46
682.953	39.43
683.14	39.49
683.326	39.89
683.513	40.09
683.7	40.1
683.886	39.86
684.073	39.84
684.259	39.89
684.446	40
684.632	40.15
684.819	40.4
685.005	40.6
685.192	40.68
685.378	40.62
685.565	40.57
685.751	40.44
685.938	40.42
686.124	40.49
686.31	40.69
686.497	40.81
686.683	40.46
686.87	40.3
687.056	40.12
687.242	40.02
687.429	39.79
687.615	39.75
687.801	39.79
687.987	40.04
688.174	39.93
688.36	39.88
688.546	39.9
688.732	39.96
688.918	39.85
689.105	40.17
689.291	40.24
689.477	40.27
689.663	40.44
689.849	40.72
690.035	40.91
690.221	40.85
690.407	40.7
690.593	40.48
690.779	40.37
690.965	40.5
691.151	40.17
691.337	40.23
691.523	40.12
691.709	40.05
691.895	39.82
692.081	39.68
692.267	39.77
692.453	40
692.639	40.12
692.825	40.45
693.011	40.42
693.196	40.61
693.382	40.69
693.568	40.76
693.754	40.73
693.94	40.71
694.125	40.59
694.311	40.53
694.497	40.3
694.682	40.05
694.868	39.93
695.054	40.16
695.239	40.16
695.425	40.04
695.611	40.08
695.796	40.04
695.982	40.19
696.168	39.93
696.353	39.7
696.539	39.63
696.724	39.92
696.91	39.64
697.095	39.32
697.281	39.18
697.466	38.81
697.652	38.71
697.837	38.59
698.023	38.23
698.208	38.12
698.393	38.15
698.579	38
698.764	37.6
698.949	37.42
699.135	37.45
699.32	37.26
699.505	37.48
699.691	37.36
699.876	37.39
700.061	37.51
700.246	37.74
700.432	37.58
700.617	37.9
700.802	38.11
700.987	38.53
701.172	38.47
701.358	38.83
701.543	38.74
701.728	38.79
701.913	39.14
702.098	39.18
702.283	39.53
702.468	40.02
702.653	39.72
702.838	39.93
703.023	39.9
703.208	40.2
703.393	40.35
703.578	40.8
703.763	41.19
703.948	40.95
704.133	41.6
704.318	41.38
704.503	41.69
704.688	42.18
704.873	42.44
705.057	43.43
705.242	44.01
705.427	44.23
705.612	44.54
705.797	44.91
705.981	45.19
706.166	45.38
706.351	46.47
706.536	46.78
706.72	47.03
706.905	47.5
707.09	47.44
707.274	47.42
707.459	47.38
707.644	47.52
707.828	47.47
708.013	48.02
708.197	47.82
708.382	47.22
708.567	47.15
708.751	47.13
708.936	46.84
709.12	46.15
709.305	45.84
709.489	45.76
709.673	45.37
709.858	45.19
710.042	44.92
710.227	44.87
710.411	44.65
710.596	44.61
710.78	44.68
710.964	44.83
711.149	44.92
711.333	44.81
711.517	44.83
711.702	45.05
711.886	45.2
712.07	45.26
712.254	44.97
712.438	44.79
712.623	44.36
712.807	44.06
712.991	43.48
713.175	43.27
713.359	43.15
713.544	42.92
713.728	42.45
713.912	41.6
714.096	41.06
714.28	40.85
714.464	40.55
714.648	40.75
714.832	40.48
715.016	40.62
715.2	40.51
715.384	40.07
715.568	39.57
715.752	39.03
715.936	39.37
716.12	38.81
716.304	38.57
716.488	38.6
716.671	38.06
716.855	37.91
717.039	37.52
717.223	37.22
717.407	37.26
717.59	37.35
717.774	37.67
717.958	37.58
718.142	37.9
718.325	37.97
718.509	38.06
718.693	38.2
718.877	38.06
719.06	38.32
719.244	38.31
719.428	38.18
719.611	38.21
719.795	38.64
719.978	38.38
720.162	38.56
720.345	38.82
720.529	39.2
720.713	38.95
720.896	38.97
721.08	38.7
721.263	38.98
721.446	39.1
721.63	39.4
721.813	39.17
721.997	39.35
722.18	39.21
722.364	39.47
722.547	39.13
722.73	39
722.914	39.56
723.097	39.47
723.28	39.58
723.464	39.3
723.647	38.99
723.83	38.47
724.013	39.11
724.197	39.07
724.38	38.63
724.563	38.69
724.746	39.06
724.929	38.94
725.112	39.31
725.296	38.99
725.479	39.14
725.662	39.02
725.845	39.3
726.028	38.48
726.211	38.54
726.394	38.29
726.577	37.37
726.76	37.16
726.943	36.74
727.126	36.22
727.309	36.45
727.492	36.16
727.675	36.5
727.858	36.76
728.041	36.55
728.224	36.6
728.407	36.47
728.589	37.36
728.772	37.78
728.955	37.9
729.138	38.37
729.321	38.72
729.503	39.14
729.686	38.84
729.869	38.66
730.052	38.59
730.234	38.31
730.417	38.48
730.6	38.36
730.782	38.17
730.965	37.84
731.148	37.39
731.33	37
731.513	37.09
731.695	37.21
731.878	37.06
732.061	37.45
732.243	37.51
732.426	37.74
732.608	37.68
732.791	37.65
732.973	38.24
733.156	38.78
733.338	38.93
733.52	39.01
733.703	39.03
733.885	39.2
734.068	39.11
734.25	39.43
734.432	39.93
734.615	40.34
734.797	40.72
734.979	41.07
735.162	41.01
735.344	40.73
735.526	40.81
735.708	40.61
735.891	40.96
736.073	41.37
736.255	40.7
736.437	40.02
736.619	39.47
736.802	38.95
736.984	38.59
737.166	38.43
737.348	38.62
737.53	38.98
737.712	39.67
737.894	39.53
738.076	39.22
738.258	39.62
738.44	40.04
738.622	40.01
738.804	40.54
738.986	40.43
739.168	40.58
739.35	40.63
739.532	40.28
739.714	40.38
739.896	40.35
740.078	40.81
740.259	41.29
740.441	41.35
740.623	41.93
740.805	42.04
740.987	42.33
741.168	42.05
741.35	42.3
741.532	42.4
741.714	41.87
741.895	42
742.077	41.76
742.259	41.54
742.44	41.29
742.622	40.98
742.804	40.38
742.985	40.16
743.167	41.01
743.348	40.52
743.53	41.01
743.711	41.21
743.893	41.29
744.075	41.15
744.256	41.01
744.438	41.26
744.619	41.63
744.8	42.3
744.982	42.58
745.163	42.04
745.345	42.52
745.526	41.45
745.707	41.36
745.889	41.5
746.07	42.27
746.252	41.81
746.433	41.45
746.614	41.46
746.795	40.93
746.977	40.96
747.158	41.18
747.339	41.2
747.52	41.67
747.702	41.48
747.883	41
748.064	41.34
748.245	41.94
748.426	42.49
748.607	42.32
748.788	42.04
748.97	42.2
749.151	42.15
749.332	42.04
749.513	42.62
749.694	42.61
749.875	42.6
750.056	41.29
750.237	41.81
750.418	41.49
750.599	41.53
750.78	41.75
750.96	41.24
751.141	41.32
751.322	41.17
751.503	40.89
751.684	41.58
751.865	41.7
752.046	42.43
752.226	42.32
752.407	42.95
752.588	42.97
752.769	43.76
752.949	43.38
753.13	43.56
753.311	44.24
753.492	44.19
753.672	44.26
753.853	44.54
754.034	44.65
754.214	44.09
754.395	43.35
754.575	42.69
754.756	42.33
754.937	42.88
755.117	43.06
755.298	42
755.478	41.92
755.659	41.22
755.839	41.04
756.02	40.57
756.2	40.99
756.381	40.99
756.561	41.65
756.741	41.34
756.922	41.35
757.102	41.44
757.283	42.03
757.463	41.64
757.643	41.74
757.823	41.85
758.004	41.09
758.184	40.37
758.364	39.84
758.545	38.97
758.725	38.57
758.905	38.11
759.085	37.1
759.265	36.81
759.446	36.65
759.626	36.48
759.806	35.74
759.986	36.56
760.166	36.47
760.346	36.8
760.526	37.34
760.706	37.2
760.886	37.06
761.066	37.46
761.246	37
761.426	36.98
761.606	36.72
761.786	37.01
761.966	35.99
762.146	36.37
762.326	36.37
762.506	35.96
762.686	36.05
762.866	36.27
763.046	35.68
763.225	35.78
763.405	35.95
763.585	35.92
763.765	35.9
763.945	36.32
764.124	35.88
764.304	35.58
764.484	35.94
764.664	36.24
764.843	36.08
765.023	36.66
765.203	36.97
765.382	37.12
765.562	37.81
765.741	37.6
765.921	37.64
766.101	37.7
766.28	38.67
766.46	38.73
766.639	38.41
766.819	38.33
766.998	38.12
767.178	38.16
767.357	38.18
767.537	38.13
767.716	38.77
767.896	38.85
768.075	39.23
768.254	39.19
768.434	39.68
768.613	39.87
768.792	40.41
768.972	40.95
769.151	40.79
769.33	41.01
769.51	41.5
769.689	41.85
769.868	42.64
770.047	44.55
770.226	44.01
770.406	43.98
770.585	45.11
770.764	45.32
770.943	45.07
771.122	45.46
771.301	45.83
771.48	45.71
771.66	45.57
771.839	45.65
772.018	44.41
772.197	44.46
772.376	44.6
772.555	44.12
772.734	43.45
772.913	42.93
773.092	43.44
773.271	42.5
773.449	42.15
773.628	41.72
773.807	40.81
773.986	40.56
774.165	41.03
774.344	40.97
774.523	40.64
774.701	41.14
774.88	42.25
775.059	43
775.238	43.15
775.417	43.11
775.595	43.57
775.774	44.25
775.953	44.12
776.131	43.9
776.31	43.6
776.489	43.45
776.667	43.7
776.846	43.41
777.025	41.88
777.203	42.52
777.382	42.57
777.56	42.74
777.739	42.58
777.917	42.97
778.096	43.42
778.274	43.92
778.453	44.17
778.631	44.56
778.81	43.7
778.988	44.33
779.166	43.98
779.345	44.5
779.523	44.42
779.702	45.04
779.88	45.47
780.058	45
780.237	44.37
780.415	44.31
780.593	43.29
780.771	44.47
780.95	44.05
781.128	44.17
781.306	43.56
781.484	43.63
781.662	43.12
781.841	43.03
782.019	42.93
782.197	43.84
782.375	43.52
782.553	44.12
782.731	43.59
782.909	43.53
783.087	43.7
783.265	44.4
783.443	44.36
783.621	44.53
783.799	44.75
783.977	43.96
784.155	42.31
784.333	43.43
784.511	42.84
784.689	42.87
784.867	42.7
785.045	42.21
785.223	41.31
785.4	40.47
785.578	40.09
785.756	39.14
785.934	40.57
786.112	41.47
786.289	40.75
786.467	41.69
786.645	42.09
786.823	42.99
787	43.2
787.178	42.96
787.356	42.88
787.533	43.2
787.711	42.97
787.889	43.06
788.066	42.81
788.244	42.26
788.421	42.09
788.599	41.34
788.776	40.34
788.954	40.1
789.131	39.23
789.309	40.05
789.486	39.46
789.664	38.68
789.841	37.32
790.019	37
790.196	36.56
790.373	35.47
790.551	36.58
790.728	37.81
790.906	37.71
791.083	37.66
791.26	37.11
791.437	37.49
791.615	38.28
791.792	38.87
791.969	38.92
792.146	40.46
792.324	41.47
792.501	40.19
792.678	39.67
792.855	39.16
793.032	40.4
793.209	40.93
793.387	40.57
793.564	41.31
793.741	42.33
793.918	43.19
794.095	42.21
794.272	42.77
794.449	43.5
794.626	43.12
794.803	43.71
794.98	44.04
795.157	43.24
795.334	43.8
795.511	43.22
795.688	41.33
795.864	39.99
796.041	40.18
796.218	39.93
796.395	38.88
796.572	39.31
796.749	39.05
796.925	38.5
797.102	39.12
797.279	39.53
797.456	39.87
797.632	41.37
797.809	41.85
797.986	42.12
798.162	41.06
798.339	41.76
798.516	41.31
798.692	41.6
798.869	41.44
799.046	40.98
799.222	40.12
799.399	40.38
799.575	40.38
799.752	41.06
799.928	40.7
800.105	40.77
800.281	41.66
800.458	42.11
800.634	42.11
800.811	42.6
800.987	42.21
801.163	41.44
801.34	41.74
801.516	41.8
801.692	41.21
801.869	41.11
802.045	41.47
802.221	39.99
802.398	39.35
802.574	39.64
802.75	38.64
802.926	38.83
803.103	41.29
803.279	40.46
803.455	40.01
803.631	41.05
803.807	41.45
803.983	41.2
804.16	40.49
804.336	39.61
804.512	38.79
804.688	39.79
804.864	39.62
805.04	37.81
805.216	37.02
805.392	36.88
805.568	35.58
805.744	35.32
805.92	35.19
806.096	36.52
806.272	38.65
806.448	39.34
806.623	38.62
806.799	39.52
806.975	39.1
807.151	40.3
807.327	40.77
807.503	40.5
807.678	41.17
807.854	41.96
808.03	42.24
808.206	41.29
808.381	40.85
808.557	42.72
808.733	42.6
808.908	42.45
809.084	42.39
809.26	42.46
809.435	41.94
809.611	40.9
809.787	40.42
809.962	39.72
810.138	40.01
810.313	39.56
810.489	38.64
810.664	37.98
810.84	38.02
811.015	37.57
811.191	36.3
811.366	36.23
811.542	36.28
811.717	36.16
811.892	37.05
812.068	36.14
812.243	35.95
812.419	35.4
812.594	34.97
812.769	34.61
812.944	33.3
813.12	33.06
813.295	33.56
813.47	33.61
813.645	33.63
813.821	31.94
813.996	31.9
814.171	33.2
814.346	33.19
814.521	33.34
814.697	34.69
814.872	36.32
815.047	37.5
815.222	37.4
815.397	37.39
815.572	37.81
815.747	39.31
815.922	39.93
816.097	39.78
816.272	39.34
816.447	39.4
816.622	39.97
816.797	40.08
816.972	39.02
817.147	39.34
817.322	39.43
817.496	40.68
817.671	40.3
817.846	39.14
818.021	38.42
818.196	38.48
818.371	37.47
818.545	35.76
818.72	35.85
818.895	35.29
819.069	34.5
819.244	34.34
819.419	33.35
819.594	32.95
819.768	33.77
819.943	32.88
820.117	32.25
820.292	32.45
820.467	32.6
820.641	31.83
820.816	31.81
820.99	31.69
821.165	31.57
821.339	30.85
821.514	30.51
821.688	30.66
821.863	30.8
822.037	30.83
822.212	30.81
822.386	30.57
822.56	30.68
822.735	30.67
822.909	30.79
823.084	30.83
823.258	30.82
823.432	30.83
823.606	30.51
823.781	30.28
823.955	30.47
824.129	30.36
824.303	30.43
824.478	30.41
824.652	30.55
824.826	30.26
825	30.08
825.174	30.94
825.348	31.27
825.523	31.63
825.697	32.11
825.871	32.15
826.045	31.89
826.219	31.87
826.393	31.83
826.567	31.84
826.741	32.48
826.915	32.55
827.089	31.59
827.263	31.74
827.437	31.72
827.611	31.58
827.784	31.6
827.958	31.96
828.132	32.03
828.306	32.06
828.48	31.86
828.654	31.57
828.827	31.36
829.001	32.18
829.175	32.03
829.349	31.96
829.522	31.94
829.696	32.2
829.87	32.43
830.044	32.54
830.217	32.78
830.391	32.97
830.565	33.55
830.738	34.53
830.912	34.44
831.085	34.38
831.259	34.58
831.432	35.53
831.606	35.05
831.779	35.32
831.953	35.55
832.126	35.26
832.3	35.05
832.473	34.13
832.647	34.88
832.82	34.17
832.994	33.79
833.167	33.81
833.34	33.71
833.514	33.9
833.687	33.58
833.86	32.88
834.034	32.7
834.207	32.35
834.38	32.77
834.553	31.55
834.727	31.7
834.9	32.03
835.073	30.99
835.246	31.28
835.419	30.6
835.593	30.37
835.766	31.53
835.939	31.98
836.112	32.89
836.285	33.07
836.458	33.26
836.631	32.71
836.804	32.24
836.977	34.67
837.15	34.03
837.323	35.03
837.496	36.23
837.669	34.86
837.842	33.81
838.015	34.52
838.188	33.85
838.361	34.37
838.533	36.63
838.706	37.12
838.879	36.44
839.052	36.56
839.225	36.34
839.398	35.88
839.57	37.96
839.743	37.74
839.916	37.39
840.088	37.39
840.261	36.2
840.434	36.71
840.607	37.42
840.779	37.97
840.952	38.08
841.124	37.89
841.297	38.27
841.47	37.33
841.642	38.55
841.815	37.04
841.987	37.31
842.16	37.97
842.332	35.63
842.505	35.68
842.677	34.33
842.85	34.58
843.022	35.35
843.194	35.26
843.367	36.39
843.539	35.14
843.712	37.54
843.884	37.89
844.056	42.32
844.229	45.48
844.401	46.23
844.573	47.83
844.745	46.91
844.918	46.59
845.09	47.47
845.262	47.92
845.434	48.57
845.606	45.05
845.779	45.49
845.951	42.79
846.123	42.18
846.295	43.62
846.467	40.69
846.639	41.02
846.811	41.88
846.983	42.5
847.155	41.57
847.327	39.36
847.499	46.09
847.671	46.62
847.843	46.36
848.015	47.28
848.187	47.13
848.359	50.88
848.531	49.9
848.703	49.93
848.875	47.41
849.047	46.09
849.218	48.88
849.39	46.99
849.562	43.8
849.734	46.7
849.905	43.79
850.077	41.28
850.249	41.85
850.421	40.39
850.592	41.08
850.764	42.83
850.936	43.56
851.107	44.41
851.279	42.61
851.451	44.78
851.622	44.49
851.794	46.77
851.965	50.3
852.137	49.25
852.308	54.33
852.48	52.98
852.651	53.86
852.823	54.15
852.994	54.25
853.166	53.52
853.337	54.99
853.509	52.12
853.68	51.11
853.851	47.12
854.023	46.84
854.194	43.62
854.365	42.61
854.537	40.36
854.708	42.83
854.879	42.11
855.05	42.21
855.222	38.29
855.393	37.57
855.564	38.31
855.735	35.22
855.906	34.16
856.078	37.68
856.249	41.59
856.42	43.32
856.591	41.01
856.762	43.81
856.933	44.32
857.104	47.07
857.275	48.85
857.446	49.43
857.617	53.98
857.788	52.09
857.959	50.86
858.13	46.48
858.301	45.88
858.472	46.67
858.643	41.87
858.814	41.14
858.985	41.69
859.155	39.32
859.326	37.65
859.497	38.15
859.668	37.1
859.839	37.76
860.009	40.16
860.18	41.97
860.351	43.34
860.522	43.33
860.692	39.45
860.863	38.8
861.034	42.61
861.204	40.62
861.375	36.37
861.546	39.31
861.716	38.79
861.887	37.28
862.057	36.31
862.228	35.6
862.398	38.1
862.569	44.58
862.739	45.01
862.91	41.16
863.08	40.79
863.251	42.47
863.421	40.86
863.592	41.73
863.762	42.65
863.932	40.26
864.103	36.75
864.273	35.31
864.443	33.39
864.614	31.75
864.784	34.88
864.954	37.59
865.125	39.59
865.295	43.64
865.465	43.46
865.635	41.28
865.805	47.2
865.976	48.55
866.146	52.59
866.316	51.63
866.486	52.21
866.656	49.36
866.826	51.28
866.996	51.3
867.166	48.98
867.336	46.99
867.506	46.3
867.676	39.94
867.846	40.71
868.016	36.75
868.186	35.48
868.356	39
868.526	40.99
868.696	35.46
868.866	33.76
869.036	39.3
869.206	39.42
869.376	40.58
869.545	40.12
869.715	38.45
869.885	38.56
870.055	43.82
870.224	42.75
870.394	44.01
870.564	44.94
870.734	43.59
870.903	37.66
871.073	32.89
871.243	37.38
871.412	38.3
871.582	42.33
871.751	40.87
871.921	38.37
872.091	37.48
872.26	33.34
872.43	32.08
872.599	31.41
872.769	36.7
872.938	44.32
873.108	45.55
873.277	49.94
873.446	44.82
873.616	45.33
873.785	45
873.955	42.45
874.124	43.54
874.293	46.54
874.463	47.24
874.632	44.36
874.801	40.73
874.971	38.36
875.14	36.6
875.309	36.5
875.478	35.92
875.647	33.72
875.817	35.29
875.986	37.08
876.155	37.44
876.324	35.97
876.493	34.99
876.662	31.67
876.831	34.35
877	34.05
877.17	34.91
877.339	39.37
877.508	41.74
877.677	40.39
877.846	38.55
878.015	36.53
878.184	34.87
878.352	34.87
878.521	39.99
878.69	39.84
878.859	35.35
879.028	36.1
879.197	30.49
879.366	28.28
879.534	28.98
879.703	27.17
879.872	27.64
880.041	31.64
880.21	30.9
880.378	29.11
880.547	27.29
880.716	28.99
880.884	29.43
881.053	30.36
881.222	29.7
881.39	29.53
881.559	30.44
881.727	30.3
881.896	28.78
882.065	28.19
882.233	28.28
882.402	27.83
882.57	27.09
882.739	26.69
882.907	26.6
883.076	27.11
883.244	26.64
883.412	26.4
883.581	25.75
883.749	26.03
883.918	26.5
884.086	26.48
884.254	27.42
884.423	27.96
884.591	27.63
884.759	27.42
884.927	27.32
885.096	28.69
885.264	29.08
885.432	30
885.6	31.35
885.769	30.52
885.937	31.6
886.105	31.59
886.273	33.51
886.441	34.5
886.609	33.53
886.777	34.17
886.945	35.62
887.113	35.76
887.281	33.92
887.449	33.77
887.617	35.43
887.785	35.32
887.953	36.28
888.121	36.25
888.289	34.34
888.457	37.78
888.625	39.1
888.793	35.94
888.961	36.72
889.129	40.48
889.296	42.48
889.464	43.83
889.632	43.67
889.8	42.77
889.967	40.44
890.135	47.67
