Data from 2938714__Reflection_02.txt Node
Date: Tue Mar 17 19:11:08 EDT 2015
User: robert
Spectrometer: USB4E03002
Autoset integration time: false
Trigger mode: 4
Integration Time (sec): 1.000000E-1
Scans to average: 10
Electric dark correction enabled: false
Nonlinearity correction enabled: false
Boxcar width: 5
Stray light correction enabled: false
XAxis mode: Wavelengths
Stop averaging: false
Number of Pixels in Spectrum: 3648
>>>>>Begin Spectral Data<<<<<
177.575	244.44
177.794	260.57
178.014	289.53
178.233	538.77
178.452	565.27
178.672	879.87
178.891	1801.23
179.11	2345.9
179.33	2476.67
179.549	-1248.51
179.768	-1970.31
179.987	-377.14
180.207	-222
180.426	-210.26
180.645	-427.49
180.864	-409.49
181.084	-397.67
181.303	-511.63
181.522	-318.11
181.741	-189.42
181.96	-335.29
182.179	-307.27
182.398	-444.59
182.618	-517.65
182.837	-479.68
183.056	-376.8
183.275	-341.07
183.494	-1140.54
183.713	-880.75
183.932	-935.54
184.151	-943.95
184.37	-1372.48
184.589	-3029.09
184.808	2867.8
185.027	-1425.45
185.246	-1200
185.465	-1326.55
185.684	-1193.64
185.903	-329.4
186.122	-321.24
186.341	-279.9
186.56	-1345
186.779	-500.4
186.998	-342.69
187.216	-289.65
187.435	-538.12
187.654	-657.84
187.873	-502.9
188.092	-1141.35
188.311	1488.1
188.53	1264.58
188.748	2947.83
188.967	-485.22
189.186	-705.23
189.405	-1207.61
189.623	-901.53
189.842	-1026.02
190.061	-348.06
190.28	-635.68
190.498	-422.57
190.717	-333.85
190.936	-314.51
191.154	-828.06
191.373	-2436
191.592	-3205.13
191.81	2956.1
192.029	1405.68
192.248	-3302.94
192.466	1497.22
192.685	-5205
192.904	3616.67
193.122	538.43
193.341	986.36
193.559	452.56
193.778	670.51
193.996	430.61
194.215	419.67
194.433	340.18
194.652	225.58
194.87	226.43
195.089	228.88
195.307	200
195.526	331.74
195.744	300.35
195.963	358.2
196.181	297.84
196.399	371.67
196.618	583.64
196.836	928.25
197.055	18575
197.273	1902.86
197.491	22033.33
197.71	-327.8
197.928	-119800
198.146	898
198.365	-2954.05
198.583	18928.57
198.801	1800
199.019	2240
199.238	2953.13
199.456	634.08
199.674	535.11
199.892	548.62
200.111	285.32
200.329	725.35
200.547	1340.79
200.765	571.5
200.983	2570
201.202	-3746.87
201.42	6883.33
201.638	976.8
201.856	-4866.67
202.074	1092.92
202.292	513.95
202.51	1226.79
202.728	412.23
202.946	389.28
203.165	453.97
203.383	305.27
203.601	241.35
203.819	237.75
204.037	317.04
204.255	244.01
204.473	291.49
204.691	346.97
204.909	345.52
205.127	344.72
205.345	344.38
205.562	269.54
205.78	363.57
205.998	474.58
206.216	477.36
206.434	343.37
206.652	338.59
206.87	738.69
207.088	401.63
207.306	460.46
207.523	7381.25
207.741	1996.72
207.959	3489.19
208.177	663.05
208.395	513.13
208.612	448
208.83	1388.89
209.048	-3538.24
209.266	3619.35
209.483	-4342.86
209.701	1119.82
209.919	284.68
210.136	271.79
210.354	288.73
210.572	313.31
210.79	284.62
211.007	362.11
211.225	216.05
211.442	222.63
211.66	203.17
211.878	204.98
212.095	235.81
212.313	325.85
212.53	348.57
212.748	270.05
212.966	222.3
213.183	225.74
213.401	215.66
213.618	274.51
213.836	279.74
214.053	293.68
214.271	323.05
214.488	297.41
214.705	257.46
214.923	251.03
215.14	267.49
215.358	400
215.575	415.11
215.793	1654.84
216.01	761.18
216.227	338.51
216.445	296.36
216.662	243.07
216.879	253.05
217.097	266.9
217.314	293.84
217.531	261.1
217.749	234.17
217.966	200.25
218.183	161.87
218.4	155.32
218.618	145.31
218.835	138.58
219.052	133.17
219.269	125.42
219.487	116.61
219.704	104.52
219.921	101.88
220.138	94.57
220.355	103.76
220.572	88.78
220.79	74.2
221.007	83.33
221.224	77.99
221.441	81.81
221.658	74.15
221.875	78.22
222.092	78.19
222.309	67.52
222.526	69.77
222.743	68.85
222.96	70.4
223.177	71.03
223.394	67.46
223.611	68.89
223.828	60.29
224.045	58.83
224.262	53.22
224.479	50.38
224.696	51.82
224.913	50.43
225.13	47.38
225.347	37.13
225.564	34.72
225.781	31.24
225.997	24.5
226.214	24.37
226.431	23.05
226.648	19.65
226.865	17.74
227.082	14.62
227.298	12.13
227.515	11.71
227.732	13.2
227.949	12.04
228.165	11.22
228.382	10.52
228.599	9.8
228.816	10.44
229.032	10.44
229.249	10.57
229.466	10.36
229.682	10.43
229.899	10.08
230.116	9.17
230.332	9.62
230.549	10.35
230.765	12.38
230.982	12.81
231.199	13.12
231.415	14.65
231.632	14.82
231.848	16.33
232.065	16.96
232.281	17.82
232.498	17.75
232.714	17.4
232.931	18.8
233.147	17.23
233.364	18.59
233.58	16.88
233.797	16.67
234.013	16.04
234.23	14.53
234.446	14.51
234.662	14.03
234.879	16
235.095	16.45
235.312	14.62
235.528	13.96
235.744	14.18
235.961	15.38
236.177	14.01
236.393	16.68
236.61	17.62
236.826	18.34
237.042	18.77
237.258	19.03
237.475	18.74
237.691	19.9
237.907	20.74
238.123	17.89
238.339	18.59
238.556	20.28
238.772	16.98
238.988	16.94
239.204	16.03
239.42	15.62
239.636	14.25
239.853	14.11
240.069	13.85
240.285	13.4
240.501	12.91
240.717	11.19
240.933	10.49
241.149	10.33
241.365	9.91
241.581	9.53
241.797	9.06
242.013	8.77
242.229	8.63
242.445	7.94
242.661	6.97
242.877	7.38
243.093	7.46
243.309	7.19
243.525	7.11
243.741	7.57
243.957	7.51
244.173	7.66
244.388	8.37
244.604	8.33
244.82	8.7
245.036	9.41
245.252	9.51
245.468	9.32
245.683	8.76
245.899	8.64
246.115	7.64
246.331	7.65
246.547	7.31
246.762	6.72
246.978	6.29
247.194	6.28
247.409	6.02
247.625	5.67
247.841	5.46
248.057	5.53
248.272	5.49
248.488	5.71
248.703	5.49
248.919	5.61
249.135	5.87
249.35	6.36
249.566	6.82
249.782	7.57
249.997	8.02
250.213	8.31
250.428	8.4
250.644	8.11
250.859	8.15
251.075	8.27
251.29	7.94
251.506	8.1
251.721	7.47
251.937	6.84
252.152	6.25
252.368	5.86
252.583	5.84
252.798	4.91
253.014	5.45
253.229	5.58
253.445	5.6
253.66	6.22
253.875	5.06
254.091	5.28
254.306	4.88
254.521	4.88
254.737	4.69
254.952	4.68
255.167	6.09
255.383	5.91
255.598	5.74
255.813	6.2
256.028	5.3
256.244	6.82
256.459	6.98
256.674	5.77
256.889	6.01
257.104	6.18
257.32	6.35
257.535	6.26
257.75	6.32
257.965	5.91
258.18	5.91
258.395	5.76
258.61	5.48
258.826	5.31
259.041	5.69
259.256	5.5
259.471	5.5
259.686	5.38
259.901	5.34
260.116	5.04
260.331	5.22
260.546	4.82
260.761	5.16
260.976	5.14
261.191	5.29
261.406	5.59
261.621	6.15
261.836	6.29
262.05	6.38
262.265	6.61
262.48	7.02
262.695	6.74
262.91	7.32
263.125	6.94
263.34	7.03
263.555	6.97
263.769	6.95
263.984	5.86
264.199	5.76
264.414	5.3
264.629	5.25
264.843	5.45
265.058	5.7
265.273	5.3
265.488	5.13
265.702	4.84
265.917	4.55
266.132	4.32
266.346	4.22
266.561	4.42
266.776	4.94
266.99	4.76
267.205	4.77
267.42	4.73
267.634	5.17
267.849	5.36
268.063	5.62
268.278	5.72
268.492	5.46
268.707	5.61
268.922	5.56
269.136	5.38
269.351	5.94
269.565	5.35
269.78	5.45
269.994	4.96
270.209	4.88
270.423	4.66
270.637	5.01
270.852	4.77
271.066	4.87
271.281	5.05
271.495	4.95
271.709	4.62
271.924	4.73
272.138	4.88
272.353	4.83
272.567	4.67
272.781	4.58
272.996	4.43
273.21	4.93
273.424	4.88
273.638	4.43
273.853	4.44
274.067	4.44
274.281	4.66
274.495	4.6
274.71	4.55
274.924	5.09
275.138	4.91
275.352	5.06
275.566	4.81
275.781	5.18
275.995	5.42
276.209	5.93
276.423	5.87
276.637	6.08
276.851	5.54
277.065	5.92
277.279	5.26
277.493	5.96
277.707	6.39
277.921	6.61
278.135	6.01
278.349	5.96
278.563	5.23
278.777	5.13
278.991	5.1
279.205	5.41
279.419	5.12
279.633	5.48
279.847	5.28
280.061	4.33
280.275	4.46
280.489	4.87
280.703	4.93
280.917	5.34
281.131	5.5
281.344	5.2
281.558	4.94
281.772	4.89
281.986	5.01
282.2	4.63
282.414	5.28
282.627	4.87
282.841	4.86
283.055	4.58
283.269	4.63
283.482	4.72
283.696	4.97
283.91	5.11
284.123	5.19
284.337	4.97
284.551	5.01
284.764	4.68
284.978	4.6
285.192	4.71
285.405	4.84
285.619	4.48
285.833	4.37
286.046	4.04
286.26	4.11
286.473	4.2
286.687	4.37
286.9	4.47
287.114	4.45
287.327	4.54
287.541	4.41
287.754	4.54
287.968	4.63
288.181	4.63
288.395	5.02
288.608	5.2
288.822	5.14
289.035	5.16
289.248	4.96
289.462	4.8
289.675	4.89
289.889	4.82
290.102	4.69
290.315	4.78
290.529	4.53
290.742	4.26
290.955	4.31
291.169	4.42
291.382	4.12
291.595	4.27
291.808	4.51
292.022	4.86
292.235	5.21
292.448	5.16
292.661	5.27
292.875	5.33
293.088	5.55
293.301	5.62
293.514	5.36
293.727	5.47
293.94	5.26
294.153	5.04
294.367	4.42
294.58	4.37
294.793	4.63
295.006	4.4
295.219	4.55
295.432	4.29
295.645	4.11
295.858	4.19
296.071	4.18
296.284	4.55
296.497	4.56
296.71	4.78
296.923	4.58
297.136	4.52
297.349	4.66
297.562	4.57
297.775	4.82
297.988	4.84
298.201	4.93
298.414	5.2
298.626	5
298.839	5.3
299.052	5.73
299.265	5.99
299.478	6.23
299.691	6.18
299.903	6.61
300.116	6.59
300.329	6.73
300.542	6.63
300.755	6.65
300.967	6.93
301.18	6.62
301.393	6.3
301.605	6.18
301.818	5.89
302.031	6.29
302.243	6
302.456	6.07
302.669	5.82
302.881	6.05
303.094	5.87
303.307	5.66
303.519	5.85
303.732	5.64
303.944	5.81
304.157	6.08
304.37	6.08
304.582	6.38
304.795	6.53
305.007	6.72
305.22	6.89
305.432	6.68
305.645	6.97
305.857	7.11
306.069	7.57
306.282	7.74
306.494	7.73
306.707	7.65
306.919	7.7
307.132	7.47
307.344	7.38
307.556	7.54
307.769	7.91
307.981	7.89
308.193	7.72
308.406	7.57
308.618	7.22
308.83	7.21
309.043	7.04
309.255	7.12
309.467	7.08
309.679	7.11
309.892	6.86
310.104	7.02
310.316	7
310.528	7.22
310.74	7.2
310.953	7.17
311.165	7.18
311.377	7.23
311.589	7.03
311.801	7.11
312.013	7.68
312.225	7.67
312.437	7.61
312.649	7.73
312.862	7.76
313.074	7.76
313.286	8.01
313.498	7.8
313.71	7.84
313.922	7.62
314.134	7.54
314.346	6.88
314.558	7.3
314.77	7.36
314.982	7.78
315.193	7.63
315.405	7.45
315.617	7.38
315.829	7.48
316.041	7.67
316.253	7.9
316.465	8.47
316.677	8.59
316.888	8.32
317.1	8.22
317.312	7.57
317.524	7.65
317.736	8.11
317.947	8.2
318.159	8.84
318.371	8.94
318.583	9.32
318.794	8.94
319.006	9.03
319.218	9.11
319.43	8.81
319.641	9.34
319.853	9.31
320.064	9
320.276	9.41
320.488	9.33
320.699	9.38
320.911	9.03
321.123	9.27
321.334	9.34
321.546	9.54
321.757	10.14
321.969	9.93
322.18	10.18
322.392	10.17
322.603	9.67
322.815	9.48
323.026	9.33
323.238	9.4
323.449	9.41
323.661	9.28
323.872	9.12
324.083	8.57
324.295	8.63
324.506	8.57
324.718	8.73
324.929	9.02
325.14	9.07
325.352	8.91
325.563	8.98
325.774	8.84
325.986	9.07
326.197	9.29
326.408	9.62
326.62	9.55
326.831	9.8
327.042	9.81
327.253	10.02
327.464	10.12
327.676	10.53
327.887	10.77
328.098	10.98
328.309	11.13
328.52	10.93
328.732	11.02
328.943	11.29
329.154	11.04
329.365	11.22
329.576	11.32
329.787	11.52
329.998	11.38
330.209	11.26
330.42	11.57
330.631	11.32
330.842	11.9
331.053	12.03
331.264	11.65
331.475	12
331.686	12.29
331.897	11.86
332.108	12
332.319	12.46
332.53	12.53
332.741	12.17
332.952	12.5
333.163	12.15
333.374	12.06
333.585	12.43
333.795	12.27
334.006	12.07
334.217	12.01
334.428	11.78
334.639	11.76
334.849	11.72
335.06	11.8
335.271	11.78
335.482	12.11
335.692	12.1
335.903	11.87
336.114	11.73
336.325	11.7
336.535	11.77
336.746	11.85
336.957	11.64
337.167	11.69
337.378	11.53
337.589	11.37
337.799	11.06
338.01	11.19
338.22	11.3
338.431	11.38
338.642	11.43
338.852	11.58
339.063	11.59
339.273	11.77
339.484	12.02
339.694	12.27
339.905	12.09
340.115	12.11
340.326	12.04
340.536	12.28
340.746	12.39
340.957	12.56
341.167	12.22
341.378	12.18
341.588	11.92
341.799	11.57
342.009	11.55
342.219	11.65
342.43	11.67
342.64	11.61
342.85	11.28
343.061	11.48
343.271	11.02
343.481	11.44
343.691	11.14
343.902	11.27
344.112	11.31
344.322	11.36
344.532	11.24
344.743	11.11
344.953	11.08
345.163	11.46
345.373	11.15
345.583	11.14
345.793	11.18
346.004	11.66
346.214	11.46
346.424	11.29
346.634	10.9
346.844	10.94
347.054	10.9
347.264	11.11
347.474	10.68
347.684	10.62
347.894	10.93
348.104	10.71
348.314	10.43
348.524	10.2
348.734	10.4
348.944	10.69
349.154	10.72
349.364	10.99
349.574	10.88
349.784	10.81
349.994	10.98
350.204	10.99
350.413	11.15
350.623	10.84
350.833	11.13
351.043	10.92
351.253	10.82
351.463	10.91
351.672	10.67
351.882	10.68
352.092	10.96
352.302	10.99
352.511	11.02
352.721	10.79
352.931	11.11
353.141	11.3
353.35	11.19
353.56	11.25
353.77	11.17
353.979	11.52
354.189	11.55
354.399	11.32
354.608	11.2
354.818	11
355.027	11
355.237	10.95
355.447	10.73
355.656	10.85
355.866	10.82
356.075	10.69
356.285	10.51
356.494	10.58
356.704	10.61
356.913	10.53
357.123	10.38
357.332	10.28
357.542	10.05
357.751	10.02
357.96	10.17
358.17	10.12
358.379	10.29
358.589	10.26
358.798	10.17
359.007	10.18
359.217	10.22
359.426	10.22
359.635	10.26
359.845	10.39
360.054	10.57
360.263	10.38
360.472	10.3
360.682	10.27
360.891	10.32
361.1	9.95
361.309	9.87
361.519	9.85
361.728	9.87
361.937	9.84
362.146	9.86
362.355	9.71
362.564	9.8
362.774	9.86
362.983	9.76
363.192	9.73
363.401	9.87
363.61	9.97
363.819	10.12
364.028	10.15
364.237	10.12
364.446	10.08
364.655	10.03
364.864	10.04
365.073	10.12
365.282	10.03
365.491	9.76
365.7	9.89
365.909	9.81
366.118	9.49
366.327	9.58
366.536	9.71
366.745	9.71
366.954	9.65
367.162	9.49
367.371	9.3
367.58	9.35
367.789	9.58
367.998	9.68
368.207	9.92
368.415	9.96
368.624	9.9
368.833	9.69
369.042	9.65
369.25	9.63
369.459	9.69
369.668	9.64
369.877	9.84
370.085	9.47
370.294	9.28
370.503	9.07
370.711	9.13
370.92	8.99
371.129	9.12
371.337	8.96
371.546	8.79
371.754	8.76
371.963	8.99
372.171	8.68
372.38	8.78
372.589	8.58
372.797	8.44
373.006	8.18
373.214	8.32
373.423	8.13
373.631	8.19
373.84	8.14
374.048	7.98
374.256	7.64
374.465	7.74
374.673	7.41
374.882	7.44
375.09	7.32
375.298	7.16
375.507	7.12
375.715	7.19
375.923	7.11
376.132	7.25
376.34	7.18
376.548	7.38
376.757	7.3
376.965	7.56
377.173	7.76
377.381	7.76
377.59	8.09
377.798	7.77
378.006	7.84
378.214	7.8
378.423	7.87
378.631	8.09
378.839	8.08
379.047	8.08
379.255	8.15
379.463	7.86
379.671	7.96
379.879	7.61
380.088	7.87
380.296	7.86
380.504	8.06
380.712	7.88
380.92	8.09
381.128	8.03
381.336	8.05
381.544	7.77
381.752	7.9
381.96	7.75
382.168	7.91
382.376	7.85
382.584	7.74
382.791	7.47
382.999	7.34
383.207	6.85
383.415	6.7
383.623	6.59
383.831	6.51
384.039	6.31
384.247	6.38
384.454	6.33
384.662	6.47
384.87	6.4
385.078	6.44
385.285	6.47
385.493	6.65
385.701	6.58
385.909	6.37
386.116	6.47
386.324	6.74
386.532	6.59
386.739	6.52
386.947	6.52
387.155	6.42
387.362	6.46
387.57	6.49
387.778	6.23
387.985	6.45
388.193	6.65
388.4	6.59
388.608	6.49
388.816	6.34
389.023	6.15
389.231	5.89
389.438	5.88
389.646	5.68
389.853	5.44
390.061	5.55
390.268	5.14
390.475	5.03
390.683	5.1
390.89	4.9
391.098	5.2
391.305	5.48
391.512	5.43
391.72	5.45
391.927	5.41
392.135	5.61
392.342	5.64
392.549	5.71
392.756	5.51
392.964	5.34
393.171	5.27
393.378	5.11
393.586	4.98
393.793	5.09
394	5.04
394.207	5.08
394.414	5.01
394.622	4.97
394.829	4.97
395.036	5.21
395.243	5.4
395.45	5.43
395.657	5.49
395.864	5.58
396.072	5.48
396.279	5.39
396.486	5.39
396.693	5.42
396.9	5.3
397.107	5.34
397.314	5.38
397.521	5.27
397.728	5.29
397.935	5.28
398.142	5.13
398.349	5.08
398.556	5.19
398.763	5.19
398.97	5.1
399.177	5.15
399.383	5.06
399.59	5.09
399.797	5.09
400.004	5.16
400.211	5.06
400.418	5.2
400.625	5.18
400.831	5.03
401.038	5.1
401.245	5.04
401.452	5.12
401.658	5.11
401.865	5.02
402.072	5.11
402.279	5.13
402.485	5.06
402.692	4.93
402.899	4.95
403.105	5
403.312	4.77
403.519	4.84
403.725	4.71
403.932	4.86
404.138	4.85
404.345	4.61
404.552	4.46
404.758	4.55
404.965	4.58
405.171	4.43
405.378	4.57
405.584	4.82
405.791	4.81
405.997	4.83
406.204	4.72
406.41	4.55
406.617	4.65
406.823	4.66
407.029	4.53
407.236	4.42
407.442	4.61
407.649	4.61
407.855	4.44
408.061	4.51
408.268	4.38
408.474	4.38
408.68	4.44
408.887	4.48
409.093	4.43
409.299	4.55
409.505	4.43
409.712	4.26
409.918	4.12
410.124	4.11
410.33	4.09
410.537	4.15
410.743	4.13
410.949	4.21
411.155	4.13
411.361	4.22
411.567	4.09
411.773	4.21
411.98	4.31
412.186	4.24
412.392	4.21
412.598	4.07
412.804	4.09
413.01	4.2
413.216	4.18
413.422	4.22
413.628	4.26
413.834	4.47
414.04	4.58
414.246	4.43
414.452	4.39
414.658	4.45
414.864	4.5
415.07	4.43
415.275	4.28
415.481	4.06
415.687	4.01
415.893	3.93
416.099	3.79
416.305	3.69
416.511	3.72
416.716	3.77
416.922	3.67
417.128	3.68
417.334	3.69
417.539	3.7
417.745	3.8
417.951	3.7
418.157	3.68
418.362	3.7
418.568	3.66
418.774	3.7
418.979	3.69
419.185	3.73
419.391	3.7
419.596	3.69
419.802	3.7
420.008	3.66
420.213	3.12
420.419	3.16
420.624	3.09
420.83	3.16
421.035	3.13
421.241	3.16
421.446	3.12
421.652	3.08
421.857	3.03
422.063	2.98
422.268	3.06
422.474	3.6
422.679	3.59
422.885	3.65
423.09	3.64
423.295	3.7
423.501	3.61
423.706	3.64
423.911	3.66
424.117	3.79
424.322	3.83
424.527	3.77
424.733	3.82
424.938	3.77
425.143	3.73
425.349	3.72
425.554	3.74
425.759	3.8
425.964	3.75
426.169	3.77
426.375	3.73
426.58	3.65
426.785	3.63
426.99	3.59
427.195	3.65
427.4	3.58
427.605	3.59
427.811	3.59
428.016	3.56
428.221	3.63
428.426	3.64
428.631	3.62
428.836	3.78
429.041	3.83
429.246	3.91
429.451	3.86
429.656	3.96
429.861	3.97
430.066	3.81
430.271	3.8
430.476	3.86
430.681	3.8
430.886	3.8
431.09	3.72
431.295	3.83
431.5	3.7
431.705	3.62
431.91	3.57
432.115	3.54
432.32	3.58
432.524	3.54
432.729	3.42
432.934	3.4
433.139	3.39
433.343	3.4
433.548	3.31
433.753	3.34
433.958	3.42
434.162	3.38
434.367	3.36
434.572	3.33
434.776	3.41
434.981	3.5
435.186	3.7
435.39	3.76
435.595	3.67
435.799	3.67
436.004	3.69
436.209	3.72
436.413	3.82
436.618	3.83
436.822	3.91
437.027	3.8
437.231	3.67
437.436	3.54
437.64	3.45
437.845	3.54
438.049	3.49
438.253	3.51
438.458	3.51
438.662	3.51
438.867	3.62
439.071	3.57
439.275	3.65
439.48	3.74
439.684	3.71
439.888	3.76
440.093	3.76
440.297	3.75
440.501	3.73
440.706	3.73
440.91	3.75
441.114	3.68
441.318	3.67
441.523	3.7
441.727	3.73
441.931	3.68
442.135	3.67
442.339	3.66
442.543	3.62
442.748	3.55
442.952	3.53
443.156	3.44
443.36	3.39
443.564	3.49
443.768	3.39
443.972	3.31
444.176	3.45
444.38	3.41
444.584	3.37
444.788	3.56
444.992	3.63
445.196	3.59
445.4	3.59
445.604	3.56
445.808	3.53
446.012	3.56
446.216	3.57
446.42	3.52
446.624	3.51
446.828	3.55
447.032	3.4
447.235	3.41
447.439	3.47
447.643	3.5
447.847	3.55
448.051	3.52
448.254	3.52
448.458	3.48
448.662	3.51
448.866	3.54
449.069	3.48
449.273	3.55
449.477	3.56
449.681	3.55
449.884	3.55
450.088	3.51
450.292	3.6
450.495	3.55
450.699	3.59
450.902	3.55
451.106	3.6
451.31	3.58
451.513	3.55
451.717	3.49
451.92	3.42
452.124	3.46
452.327	3.41
452.531	3.28
452.734	3.37
452.938	3.35
453.141	3.37
453.345	3.37
453.548	3.4
453.752	3.46
453.955	3.58
454.158	3.71
454.362	3.68
454.565	3.69
454.769	3.66
454.972	3.68
455.175	3.74
455.379	3.71
455.582	3.75
455.785	3.76
455.988	3.74
456.192	3.64
456.395	3.6
456.598	3.63
456.801	3.76
457.005	3.83
457.208	3.77
457.411	3.78
457.614	3.84
457.817	3.73
458.021	3.75
458.224	3.71
458.427	3.57
458.63	3.58
458.833	3.52
459.036	3.4
459.239	3.37
459.442	3.38
459.645	3.27
459.848	3.18
460.051	3.15
460.254	3.16
460.457	3.13
460.66	3.2
460.863	3.19
461.066	3.17
461.269	3.23
461.472	3.29
461.675	3.31
461.878	3.43
462.081	3.54
462.284	3.66
462.486	3.65
462.689	3.74
462.892	3.92
463.095	3.88
463.298	4.05
463.5	4.04
463.703	4.09
463.906	4.12
464.109	4.14
464.311	4.16
464.514	4.05
464.717	4.15
464.92	4.06
465.122	4.06
465.325	4
465.528	4.07
465.73	4.18
465.933	4.06
466.135	3.97
466.338	3.97
466.541	3.95
466.743	3.97
466.946	3.79
467.148	3.84
467.351	3.78
467.553	3.88
467.756	3.74
467.958	3.64
468.161	3.69
468.363	3.68
468.566	3.58
468.768	3.48
468.971	3.5
469.173	3.68
469.375	3.67
469.578	3.61
469.78	3.48
469.983	3.53
470.185	3.52
470.387	3.58
470.59	3.58
470.792	3.69
470.994	3.89
471.196	3.87
471.399	3.71
471.601	3.82
471.803	3.73
472.005	3.8
472.208	3.8
472.41	3.87
472.612	3.89
472.814	3.94
473.016	3.9
473.218	3.73
473.421	3.74
473.623	3.81
473.825	3.72
474.027	3.91
474.229	3.89
474.431	3.9
474.633	3.86
474.835	3.79
475.037	3.83
475.239	3.84
475.441	3.89
475.643	3.91
475.845	3.96
476.047	4
476.249	3.88
476.451	3.88
476.653	3.87
476.855	3.82
477.057	3.81
477.258	3.76
477.46	3.79
477.662	3.84
477.864	3.81
478.066	3.78
478.268	3.77
478.469	3.88
478.671	3.87
478.873	3.79
479.075	3.85
479.276	3.89
479.478	3.91
479.68	3.9
479.882	3.81
480.083	3.82
480.285	3.78
480.487	3.82
480.688	3.76
480.89	3.78
481.091	3.77
481.293	3.8
481.495	3.74
481.696	3.68
481.898	3.62
482.099	3.61
482.301	3.59
482.502	3.57
482.704	3.49
482.905	3.46
483.107	3.45
483.308	3.44
483.51	3.41
483.711	3.4
483.913	3.41
484.114	3.4
484.315	3.4
484.517	3.37
484.718	3.35
484.92	3.36
485.121	3.35
485.322	3.31
485.524	3.31
485.725	3.33
485.926	3.31
486.127	3.31
486.329	3.31
486.53	3.34
486.731	3.35
486.932	3.4
487.134	3.38
487.335	3.38
487.536	3.41
487.737	3.41
487.938	3.39
488.139	3.4
488.341	3.39
488.542	3.4
488.743	3.35
488.944	3.39
489.145	3.36
489.346	3.39
489.547	3.38
489.748	3.4
489.949	3.42
490.15	3.4
490.351	3.4
490.552	3.43
490.753	3.44
490.954	3.48
491.155	3.46
491.356	3.46
491.557	3.47
491.758	3.5
491.959	3.52
492.159	3.5
492.36	3.53
492.561	3.53
492.762	3.51
492.963	3.45
493.164	3.46
493.364	3.49
493.565	3.54
493.766	3.6
493.967	3.67
494.167	3.62
494.368	3.69
494.569	3.69
494.769	3.73
494.97	3.76
495.171	3.9
495.371	3.87
495.572	3.85
495.773	3.8
495.973	3.76
496.174	3.62
496.375	3.64
496.575	3.72
496.776	3.76
496.976	3.81
497.177	3.89
497.377	3.93
497.578	4
497.778	4.04
497.979	4.07
498.179	4.08
498.38	4.16
498.58	4.21
498.78	4.2
498.981	4.19
499.181	4.21
499.382	4.21
499.582	4.12
499.782	4.17
499.983	4.21
500.183	4.27
500.383	4.3
500.584	4.28
500.784	4.24
500.984	4.24
501.184	4.22
501.385	4.26
501.585	4.2
501.785	4.22
501.985	4.25
502.185	4.19
502.386	4.14
502.586	4.23
502.786	4.36
502.986	4.42
503.186	4.39
503.386	4.46
503.586	4.51
503.786	4.65
503.987	4.64
504.187	4.65
504.387	4.79
504.587	4.84
504.787	4.92
504.987	4.87
505.187	4.9
505.387	4.94
505.587	4.96
505.786	4.95
505.986	4.96
506.186	5.07
506.386	5.12
506.586	5.16
506.786	5.22
506.986	5.16
507.186	5.2
507.386	5.23
507.585	5.32
507.785	5.34
507.985	5.38
508.185	5.4
508.384	5.46
508.584	5.5
508.784	5.53
508.984	5.59
509.183	5.73
509.383	5.79
509.583	5.88
509.782	5.97
509.982	6.05
510.182	6.12
510.381	6.13
510.581	6.17
510.781	6.21
510.98	6.26
511.18	6.33
511.379	6.39
511.579	6.46
511.778	6.46
511.978	6.43
512.177	6.44
512.377	6.49
512.576	6.58
512.776	6.66
512.975	6.72
513.175	6.78
513.374	6.81
513.573	6.87
513.773	6.97
513.972	7.12
514.172	7.26
514.371	7.4
514.57	7.5
514.77	7.68
514.969	7.74
515.168	7.81
515.367	7.91
515.567	8
515.766	8.09
515.965	8.15
516.164	8.22
516.364	8.29
516.563	8.4
516.762	8.5
516.961	8.53
517.16	8.58
517.359	8.63
517.559	8.67
517.758	8.79
517.957	8.83
518.156	8.91
518.355	8.93
518.554	9
518.753	8.99
518.952	9.05
519.151	9.14
519.35	9.16
519.549	9.23
519.748	9.28
519.947	9.38
520.146	9.43
520.345	9.47
520.544	9.59
520.743	9.73
520.942	9.84
521.141	9.93
521.339	9.96
521.538	10.14
521.737	10.24
521.936	10.35
522.135	10.42
522.333	10.46
522.532	10.58
522.731	10.77
522.93	10.77
523.129	10.92
523.327	10.98
523.526	11.07
523.725	11.15
523.923	11.29
524.122	11.38
524.321	11.48
524.519	11.62
524.718	11.63
524.917	11.6
525.115	11.75
525.314	11.78
525.512	11.88
525.711	11.95
525.909	12.01
526.108	12.09
526.306	12.16
526.505	12.21
526.703	12.27
526.902	12.39
527.1	12.48
527.299	12.54
527.497	12.6
527.696	12.62
527.894	12.7
528.092	12.72
528.291	12.76
528.489	12.81
528.688	12.84
528.886	12.91
529.084	12.92
529.283	12.99
529.481	13.01
529.679	13.08
529.877	13.18
530.076	13.23
530.274	13.34
530.472	13.41
530.67	13.51
530.869	13.64
531.067	13.72
531.265	13.86
531.463	13.93
531.661	14.08
531.859	14.14
532.057	14.21
532.255	14.27
532.454	14.33
532.652	14.4
532.85	14.47
533.048	14.46
533.246	14.54
533.444	14.61
533.642	14.67
533.84	14.73
534.038	14.79
534.236	14.84
534.434	14.93
534.632	15.03
534.83	15.14
535.027	15.23
535.225	15.4
535.423	15.47
535.621	15.55
535.819	15.68
536.017	15.74
536.215	15.87
536.412	15.98
536.61	16.04
536.808	16.13
537.006	16.19
537.203	16.3
537.401	16.4
537.599	16.5
537.797	16.66
537.994	16.77
538.192	16.94
538.39	17.05
538.587	17.13
538.785	17.29
538.983	17.5
539.18	17.69
539.378	17.81
539.575	17.99
539.773	18.11
539.97	18.22
540.168	18.32
540.366	18.4
540.563	18.49
540.761	18.63
540.958	18.73
541.155	18.77
541.353	18.88
541.55	18.96
541.748	18.99
541.945	19.02
542.143	19.12
542.34	19.19
542.537	19.25
542.735	19.4
542.932	19.5
543.129	19.61
543.327	19.87
543.524	20.06
543.721	20.27
543.919	20.57
544.116	20.96
544.313	21.29
544.51	21.65
544.708	22.06
544.905	22.38
545.102	22.74
545.299	22.99
545.496	23.07
545.693	23.17
545.891	23.29
546.088	23.23
546.285	23.17
546.482	23.04
546.679	22.86
546.876	22.72
547.073	22.59
547.27	22.47
547.467	22.4
547.664	22.26
547.861	22.16
548.058	21.95
548.255	22.03
548.452	22.05
548.649	22.05
548.846	22.11
549.043	22.09
549.24	22.06
549.437	21.97
549.633	21.88
549.83	22.01
550.027	21.95
550.224	22.07
550.421	22.04
550.618	21.96
550.814	21.8
551.011	21.76
551.208	21.68
551.405	21.58
551.601	21.56
551.798	21.6
551.995	21.55
552.191	21.59
552.388	21.54
552.585	21.48
552.781	21.49
552.978	21.53
553.175	21.52
553.371	21.61
553.568	21.68
553.764	21.84
553.961	21.83
554.157	21.84
554.354	21.88
554.55	21.95
554.747	22.03
554.943	22.02
555.14	22.14
555.336	22.18
555.533	22.18
555.729	22.23
555.926	22.23
556.122	22.3
556.318	22.24
556.515	22.14
556.711	22.25
556.907	22.25
557.104	22.36
557.3	22.36
557.496	22.43
557.693	22.52
557.889	22.56
558.085	22.55
558.281	22.57
558.478	22.6
558.674	22.77
558.87	22.69
559.066	22.78
559.262	22.77
559.459	22.77
559.655	22.84
559.851	22.8
560.047	22.79
560.243	22.73
560.439	22.65
560.635	22.73
560.831	22.73
561.027	22.72
561.223	22.67
561.419	22.64
561.615	22.63
561.811	22.76
562.007	22.76
562.203	22.91
562.399	23.04
562.595	23.2
562.791	23.31
562.987	23.32
563.183	23.45
563.379	23.61
563.575	23.74
563.771	23.86
563.966	23.75
564.162	23.82
564.358	23.87
564.554	23.82
564.75	23.72
564.945	23.79
565.141	23.89
565.337	23.92
565.533	23.88
565.728	23.79
565.924	23.83
566.12	23.94
566.315	23.99
566.511	24.01
566.707	24.1
566.902	24.2
567.098	24.24
567.293	24.21
567.489	24.27
567.684	24.27
567.88	24.43
568.076	24.39
568.271	24.42
568.467	24.47
568.662	24.38
568.858	24.35
569.053	24.23
569.248	24.13
569.444	24.24
569.639	24.24
569.835	24.28
570.03	24.24
570.225	24.21
570.421	24.12
570.616	24.15
570.812	24.24
571.007	24.26
571.202	24.47
571.397	24.58
571.593	24.55
571.788	24.54
571.983	24.59
572.178	24.58
572.374	24.73
572.569	24.83
572.764	24.85
572.959	24.79
573.154	24.9
573.35	24.95
573.545	24.95
573.74	24.89
573.935	24.98
574.13	25.02
574.325	25.17
574.52	25.31
574.715	25.42
574.91	25.59
575.105	25.78
575.3	25.86
575.495	26
575.69	26.19
575.885	26.39
576.08	26.54
576.275	26.68
576.47	26.86
576.665	26.83
576.86	26.94
577.055	26.99
577.25	27.07
577.444	27.23
577.639	27.34
577.834	27.53
578.029	27.77
578.224	27.93
578.418	28.09
578.613	28.15
578.808	28.4
579.003	28.54
579.197	28.65
579.392	28.69
579.587	28.65
579.781	28.61
579.976	28.48
580.171	28.41
580.365	28.33
580.56	28.3
580.755	28.25
580.949	28.26
581.144	28.14
581.338	28.06
581.533	28.11
581.727	28.27
581.922	28.35
582.116	28.44
582.311	28.65
582.505	28.71
582.7	28.69
582.894	28.71
583.089	28.58
583.283	28.71
583.478	28.79
583.672	28.86
583.866	28.73
584.061	28.7
584.255	28.74
584.449	28.71
584.644	28.62
584.838	28.7
585.032	28.96
585.226	29.05
585.421	29.14
585.615	29.28
585.809	29.34
586.003	29.6
586.198	29.77
586.392	29.8
586.586	29.99
586.78	30.21
586.974	30.38
587.168	30.22
587.363	30.23
587.557	30.04
587.751	30.04
587.945	30.06
588.139	29.91
588.333	29.84
588.527	29.81
588.721	29.45
588.915	29.36
589.109	29.07
589.303	29.01
589.497	28.92
589.691	29.04
589.885	29.07
590.079	28.86
590.273	28.92
590.466	28.99
590.66	29.04
590.854	29.21
591.048	29.41
591.242	29.62
591.436	29.79
591.629	30.02
591.823	30.14
592.017	30.17
592.211	30.5
592.404	30.66
592.598	30.61
592.792	30.47
592.986	30.32
593.179	30.09
593.373	30.22
593.567	30.05
593.76	29.85
593.954	29.75
594.147	29.6
594.341	29.46
594.535	29.43
594.728	29.42
594.922	29.44
595.115	29.5
595.309	29.49
595.502	29.41
595.696	29.35
595.889	29.42
596.083	29.48
596.276	29.5
596.47	29.54
596.663	29.57
596.856	29.46
597.05	29.63
597.243	29.59
597.437	29.65
597.63	29.71
597.823	29.94
598.017	30.01
598.21	30.01
598.403	30.19
598.596	30.33
598.79	30.3
598.983	30.43
599.176	30.32
599.369	30.52
599.563	30.56
599.756	30.45
599.949	30.4
600.142	30.37
600.335	30.29
600.528	30.13
600.722	30.12
600.915	30.06
601.108	29.95
601.301	29.95
601.494	29.87
601.687	29.88
601.88	29.91
602.073	29.86
602.266	29.85
602.459	29.99
602.652	29.99
602.845	29.83
603.038	29.82
603.231	29.84
603.424	29.82
603.617	29.81
603.809	29.73
604.002	29.68
604.195	29.79
604.388	29.73
604.581	29.68
604.774	29.74
604.966	29.77
605.159	29.84
605.352	30.04
605.545	30.09
605.737	30.16
605.93	30.3
606.123	30.38
606.316	30.48
606.508	30.74
606.701	30.98
606.894	31.24
607.086	31.32
607.279	31.46
607.471	31.67
607.664	32.1
607.857	32.53
608.049	33.04
608.242	33.71
608.434	34.41
608.627	35.25
608.819	36.25
609.012	37.36
609.204	38.91
609.397	40.48
609.589	42.18
609.782	43.97
609.974	45.8
610.166	47.61
610.359	49.37
610.551	51.09
610.743	52.61
610.936	53.86
611.128	54.88
611.32	55.74
611.513	56.01
611.705	55.95
611.897	55.55
612.09	54.99
612.282	54.4
612.474	53.63
612.666	52.6
612.858	51.64
613.051	50.78
613.243	49.81
613.435	48.75
613.627	47.98
613.819	47.26
614.011	46.86
614.203	46.02
614.395	45.3
614.588	44.37
614.78	43.7
614.972	42.84
615.164	41.92
615.356	41.21
615.548	40.33
615.74	39.8
615.932	39.08
616.124	38.02
616.315	37.44
616.507	36.69
616.699	36.31
616.891	35.81
617.083	35.38
617.275	35.19
617.467	34.81
617.659	34.61
617.85	34.21
618.042	34.17
618.234	34.07
618.426	34.01
618.618	34.17
618.809	34.06
619.001	33.92
619.193	34.07
619.384	33.78
619.576	33.78
619.768	33.87
619.959	34.02
620.151	33.71
620.343	33.84
620.534	33.87
620.726	33.68
620.917	33.66
621.109	33.81
621.301	33.75
621.492	33.97
621.684	34.25
621.875	34.28
622.067	34.14
622.258	34.44
622.45	34.43
622.641	34.6
622.832	34.65
623.024	34.7
623.215	34.75
623.407	34.8
623.598	34.93
623.789	34.75
623.981	34.78
624.172	34.88
624.363	34.9
624.555	34.97
624.746	34.92
624.937	34.94
625.129	34.91
625.32	34.91
625.511	34.83
625.702	34.53
625.893	34.38
626.085	34.3
626.276	34.3
626.467	34.07
626.658	33.83
626.849	33.8
627.04	33.73
627.231	33.91
627.422	33.76
627.614	33.69
627.805	33.89
627.996	34.04
628.187	34.22
628.378	34.21
628.569	34.54
628.76	34.99
628.951	35.09
629.142	35.27
629.332	35.36
629.523	35.82
629.714	36.3
629.905	36.49
630.096	36.85
630.287	37.01
630.478	37.22
630.669	37.14
630.859	37
631.05	36.88
631.241	36.88
631.432	36.68
631.623	36.47
631.813	35.96
632.004	35.88
632.195	35.42
632.385	35.02
632.576	34.55
632.767	34.34
632.957	34.13
633.148	33.87
633.339	33.54
633.529	33.47
633.72	33.1
633.91	33.01
634.101	32.62
634.292	32.5
634.482	32.5
634.673	32.83
634.863	32.8
635.054	32.8
635.244	32.77
635.435	32.86
635.625	32.76
635.815	32.81
636.006	32.79
636.196	32.97
636.387	32.99
636.577	32.94
636.767	32.61
636.958	32.61
637.148	32.71
637.338	32.7
637.529	32.7
637.719	32.77
637.909	32.78
638.099	32.74
638.29	32.51
638.48	32.59
638.67	32.62
638.86	32.71
639.05	32.75
639.241	32.7
639.431	32.76
639.621	32.68
639.811	32.47
640.001	32.42
640.191	32.54
640.381	32.91
640.571	32.92
640.761	32.95
640.951	32.88
641.141	32.84
641.331	32.76
641.521	32.81
641.711	33.03
641.901	33.22
642.091	33.23
642.281	33.31
642.471	32.96
642.661	32.82
642.851	32.96
643.041	33.01
643.231	32.96
643.42	32.94
643.61	33.1
643.8	33.04
643.99	33.09
644.18	33.19
644.369	32.86
644.559	33.28
644.749	33.37
644.939	33.24
645.128	33.17
645.318	33.35
645.508	33.41
645.697	33.3
645.887	33.35
646.076	33.23
646.266	33.49
646.456	33.71
646.645	33.32
646.835	33.42
647.024	33.43
647.214	33.59
647.403	33.47
647.593	33.43
647.782	33.61
647.972	33.64
648.161	33.74
648.351	33.5
648.54	33.77
648.73	33.87
648.919	33.89
649.108	33.91
649.298	34.09
649.487	34.14
649.677	34.25
649.866	34.3
650.055	34.55
650.244	34.57
650.434	34.7
650.623	34.54
650.812	34.61
651.002	34.77
651.191	34.81
651.38	34.67
651.569	34.86
651.758	34.9
651.947	34.85
652.137	34.61
652.326	34.48
652.515	34.44
652.704	34.56
652.893	34.62
653.082	34.55
653.271	34.45
653.46	34.2
653.649	34.17
653.838	34.05
654.027	34.08
654.216	33.99
654.405	34.16
654.594	33.8
654.783	33.58
654.972	33.54
655.161	33.53
655.35	33.58
655.539	33.68
655.728	33.6
655.916	33.49
656.105	33.22
656.294	33.39
656.483	33.1
656.672	33.41
656.86	33.46
657.049	33.49
657.238	33.7
657.427	33.68
657.615	33.87
657.804	33.81
657.993	34.04
658.181	34.03
658.37	33.89
658.559	33.86
658.747	33.73
658.936	33.73
659.125	33.66
659.313	33.38
659.502	33.33
659.69	33.24
659.879	33.24
660.067	33.35
660.256	33.5
660.444	33.63
660.633	34.07
660.821	34.39
661.01	34.64
661.198	34.67
661.387	34.93
661.575	35.2
661.763	35.4
661.952	35.56
662.14	35.22
662.328	35.33
662.517	35.29
662.705	35.13
662.893	35.06
663.082	34.89
663.27	35
663.458	34.84
663.646	35.02
663.834	34.83
664.023	34.91
664.211	35.33
664.399	35.23
664.587	35.37
664.775	35.32
664.963	35.15
665.152	35.15
665.34	34.92
665.528	34.82
665.716	34.45
665.904	34.74
666.092	34.77
666.28	34.41
666.468	34.36
666.656	34.35
666.844	34.37
667.032	34.51
667.22	34.92
667.408	34.96
667.596	34.99
667.784	35.09
667.971	34.94
668.159	34.78
668.347	35.01
668.535	35.23
668.723	35.02
668.911	35.02
669.098	35.09
669.286	34.78
669.474	35.02
669.662	34.97
669.849	34.86
670.037	34.86
670.225	34.82
670.413	34.59
670.6	34.35
670.788	34.69
670.976	34.56
671.163	34.64
671.351	34.65
671.538	34.54
671.726	35.03
671.913	34.97
672.101	34.95
672.289	34.88
672.476	34.96
672.664	35.27
672.851	35.06
673.039	35.15
673.226	34.86
673.413	34.73
673.601	34.55
673.788	34.11
673.976	34.11
674.163	34.08
674.35	34.27
674.538	34.31
674.725	34.08
674.912	34.19
675.1	34.34
675.287	34.53
675.474	34.46
675.662	34.84
675.849	34.73
676.036	35.01
676.223	35.16
676.411	35.05
676.598	34.94
676.785	35.02
676.972	35.13
677.159	35.05
677.346	34.83
677.533	35.11
677.721	34.94
677.908	35.05
678.095	34.8
678.282	34.84
678.469	34.9
678.656	35.04
678.843	34.93
679.03	34.86
679.217	34.84
679.404	35.03
679.591	34.93
679.778	34.97
679.964	35.07
680.151	35.12
680.338	34.97
680.525	34.81
680.712	34.74
680.899	34.83
681.086	34.86
681.272	34.83
681.459	34.73
681.646	34.65
681.833	34.56
682.02	34.38
682.206	34.42
682.393	34.33
682.58	34.47
682.766	34.59
682.953	34.53
683.14	34.37
683.326	34.61
683.513	35.02
683.7	35.04
683.886	35.16
684.073	35.6
684.259	35.77
684.446	36.16
684.632	36.05
684.819	36.11
685.005	36.09
685.192	36.16
685.378	36.11
685.565	35.95
685.751	36.13
685.938	36.01
686.124	35.75
686.31	35.98
686.497	35.81
686.683	35.96
686.87	36.21
687.056	36.21
687.242	36.26
687.429	36.29
687.615	36.29
687.801	36.3
687.987	36.51
688.174	36.47
688.36	36.25
688.546	36.26
688.732	36.35
688.918	35.94
689.105	35.94
689.291	35.92
689.477	35.74
689.663	35.77
689.849	35.53
690.035	35.41
690.221	35.61
690.407	35.73
690.593	35.91
690.779	36.01
690.965	36.08
691.151	36.22
691.337	36.25
691.523	36.27
691.709	36.23
691.895	36.43
692.081	36.56
692.267	36.62
692.453	36.15
692.639	35.95
692.825	35.74
693.011	35.69
693.196	35.84
693.382	35.93
693.568	35.86
693.754	36
693.94	36.09
694.125	35.73
694.311	35.68
694.497	36.09
694.682	36.21
694.868	36.08
695.054	36.09
695.239	35.86
695.425	35.63
695.611	36.05
695.796	35.92
695.982	35.7
696.168	35.87
696.353	35.42
696.539	35.22
696.724	35.1
696.91	35.13
697.095	35.18
697.281	35.08
697.466	35.02
697.652	34.63
697.837	34.45
698.023	34.52
698.208	34.46
698.393	34.49
698.579	34.51
698.764	34.52
698.949	34.52
699.135	34.44
699.32	34.51
699.505	34.42
699.691	34.49
699.876	34.42
700.061	34.39
700.246	34.4
700.432	34.5
700.617	34.37
700.802	34.35
700.987	34.46
701.172	34.49
701.358	34.34
701.543	34.92
701.728	34.89
701.913	35.12
702.098	35.3
702.283	35.47
702.468	35.65
702.653	35.82
702.838	36.15
703.023	36.34
703.208	36.69
703.393	36.97
703.578	36.64
703.763	37.15
703.948	37.36
704.133	37.51
704.318	37.43
704.503	37.38
704.688	37.97
704.873	38.03
705.057	38.25
705.242	38.6
705.427	39.22
705.612	39.39
705.797	39.82
705.981	40.36
706.166	40.53
706.351	41.32
706.536	41.97
706.72	41.86
706.905	41.91
707.09	42.17
707.274	42.17
707.459	42.32
707.644	42.62
707.828	42.38
708.013	42.26
708.197	42.23
708.382	42.07
708.567	42.05
708.751	41.8
708.936	41.73
709.12	41.37
709.305	41.17
709.489	40.43
709.673	40.04
709.858	39.99
710.042	39.8
710.227	39.42
710.411	39.33
710.596	39.08
710.78	39.25
710.964	39.43
711.149	39.98
711.333	40.03
711.517	40.32
711.702	40.73
711.886	40.53
712.07	40.2
712.254	40.29
712.438	40.06
712.623	39.61
712.807	39.51
712.991	39.07
713.175	38.24
713.359	38.12
713.544	37.57
713.728	36.99
713.912	36.5
714.096	36.42
714.28	36.24
714.464	36.03
714.648	36.05
714.832	35.45
715.016	35.52
715.2	35.58
715.384	35.48
715.568	35.51
715.752	35.6
715.936	35.8
716.12	36
716.304	35.96
716.488	35.85
716.671	36.15
716.855	36.56
717.039	36.25
717.223	36.07
717.407	35.72
717.59	36
717.774	35.72
717.958	35.67
718.142	35.6
718.325	35.75
718.509	35.82
718.693	35.6
718.877	35.27
719.06	35.48
719.244	35.59
719.428	35.74
719.611	35.64
719.795	35.86
719.978	35.67
720.162	35.73
720.345	36.05
720.529	36.49
720.713	36.39
720.896	36.56
721.08	36.62
721.263	36.72
721.446	37
721.63	36.88
721.813	36.66
721.997	36.93
722.18	36.81
722.364	37.08
722.547	37.05
722.73	37.04
722.914	37.45
723.097	37.19
723.28	36.74
723.464	36.72
723.647	36.09
723.83	36.44
724.013	36.67
724.197	36.67
724.38	35.86
724.563	35.94
724.746	36.08
724.929	35.91
725.112	35.82
725.296	36.45
725.479	36.22
725.662	36.48
725.845	36.31
726.028	36.11
726.211	35.99
726.394	36.07
726.577	35.8
726.76	35.8
726.943	35.84
727.126	36.1
727.309	35.94
727.492	36.03
727.675	36.15
727.858	36.29
728.041	35.64
728.224	35.95
728.407	36
728.589	35.73
728.772	35.6
728.955	35.86
729.138	36.08
729.321	35.98
729.503	36.06
729.686	36.43
729.869	36.45
730.052	37.2
730.234	36.93
730.417	37.31
730.6	37.58
730.782	37.56
730.965	36.72
731.148	36.84
731.33	36.71
731.513	36.52
731.695	36.21
731.878	36.1
732.061	36.18
732.243	36.33
732.426	36.04
732.608	36
732.791	35.99
732.973	36.39
733.156	35.93
733.338	35.99
733.52	36.09
733.703	36.41
733.885	36.43
734.068	36.08
734.25	35.56
734.432	35.52
734.615	35.42
734.797	35.45
734.979	35.48
735.162	35.41
735.344	35.41
735.526	35.32
735.708	35.34
735.891	35.74
736.073	35.68
736.255	36.36
736.437	36.82
736.619	36.72
736.802	36.42
736.984	36.56
737.166	37.17
737.348	37.56
737.53	37.43
737.712	37.34
737.894	37.09
738.076	37.3
738.258	37.14
738.44	36.38
738.622	36.36
738.804	36.62
738.986	36.65
739.168	35.98
739.35	35.64
739.532	35.5
739.714	36.07
739.896	35.52
740.078	35.3
740.259	35.51
740.441	35.73
740.623	35.88
740.805	35.62
740.987	35.76
741.168	36.23
741.35	36.65
741.532	36.74
741.714	36.04
741.895	36.18
742.077	35.98
742.259	36
742.44	36.11
742.622	35.66
742.804	35.94
742.985	35.41
743.167	35.11
743.348	35.24
743.53	35.12
743.711	35.2
743.893	35.71
744.075	36.46
744.256	36.59
744.438	36.91
744.619	37.25
744.8	37.94
744.982	38.16
745.163	38.71
745.345	38.68
745.526	39.16
745.707	39.29
745.889	39.77
746.07	39.64
746.252	39.22
746.433	39.22
746.614	39.61
746.795	39.07
746.977	39.24
747.158	38.49
747.339	38.26
747.52	37.84
747.702	37.39
747.883	36.97
748.064	36.49
748.245	36.43
748.426	36.15
748.607	36.13
748.788	36.26
748.97	36.26
749.151	36.7
749.332	36.44
749.513	36.96
749.694	37.18
749.875	37.41
750.056	37.73
750.237	37.21
750.418	36.74
750.599	36.35
750.78	36.2
750.96	35.8
751.141	35.67
751.322	35.68
751.503	35.37
751.684	35.25
751.865	34.89
752.046	34.89
752.226	35.27
752.407	36
752.588	35.81
752.769	36.7
752.949	37.01
753.13	37.2
753.311	37.47
753.492	37.64
753.672	37.77
753.853	37.56
754.034	38.05
754.214	38.1
754.395	37.79
754.575	38.23
754.756	38.07
754.937	38.1
755.117	38.2
755.298	37.69
755.478	37.95
755.659	37.8
755.839	38
756.02	37.81
756.2	38.08
756.381	38.48
756.561	38.6
756.741	37.81
756.922	37.85
757.102	37.26
757.283	37.23
757.463	37.06
757.643	37.46
757.823	37.11
758.004	36.64
758.184	36.6
758.364	36.38
758.545	36.49
758.725	36.7
758.905	36.63
759.085	36.89
759.265	36.67
759.446	36.13
759.626	35.57
759.806	36.21
759.986	36.51
760.166	36.8
760.346	36.77
760.526	36.39
760.706	36.64
760.886	36.47
761.066	36.95
761.246	37.49
761.426	37.43
761.606	37.58
761.786	37.05
761.966	37.06
762.146	36.64
762.326	36.3
762.506	36.2
762.686	36.08
762.866	35.96
763.046	35.44
763.225	35.34
763.405	35.36
763.585	35.02
763.765	35.29
763.945	35.28
764.124	35.13
764.304	35.19
764.484	35.52
764.664	35.45
764.843	35.64
765.023	35.71
765.203	35.67
765.382	35.47
765.562	35.87
765.741	35.75
765.921	35.94
766.101	36.11
766.28	35.92
766.46	35.37
766.639	35.37
766.819	35.4
766.998	35.21
767.178	35.48
767.357	36.02
767.537	36.12
767.716	35.53
767.896	35.6
768.075	36.17
768.254	36.88
768.434	37.3
768.613	37.11
768.792	37.04
768.972	37.72
769.151	37.13
769.33	36.91
769.51	37.06
769.689	37.42
769.868	37.53
770.047	37.65
770.226	37.88
770.406	38.19
770.585	37.95
770.764	37.58
770.943	37.69
771.122	38.19
771.301	38.7
771.48	38.56
771.66	39.55
771.839	39.53
772.018	39.38
772.197	38.7
772.376	38.35
772.555	39.95
772.734	41.08
772.913	40.33
773.092	40.57
773.271	40.03
773.449	39.79
773.628	39.43
773.807	39.12
773.986	38.96
774.165	38.62
774.344	38.75
774.523	37.58
774.701	37.09
774.88	37.28
775.059	37.25
775.238	36.98
775.417	37.13
775.595	37.44
775.774	37.94
775.953	36.8
776.131	37.29
776.31	36.91
776.489	37.72
776.667	37.25
776.846	37.66
777.025	37.64
777.203	38.42
777.382	39.13
777.56	38.52
777.739	37.68
777.917	38.51
778.096	38.75
778.274	38.73
778.453	38.02
778.631	38.31
778.81	37.74
778.988	38.57
779.166	38.03
779.345	37.14
779.523	36.88
779.702	37.39
779.88	37.46
780.058	37.63
780.237	38.04
780.415	38.49
780.593	39.05
780.771	39.4
780.95	38.68
781.128	38.55
781.306	38.27
781.484	38.96
781.662	39.41
781.841	38.73
782.019	38.41
782.197	39.36
782.375	38.38
782.553	37.55
782.731	37.77
782.909	37.31
783.087	38.35
783.265	39.48
783.443	38.83
783.621	38.46
783.799	39.34
783.977	39.1
784.155	38.09
784.333	38.85
784.511	39.94
784.689	40.24
784.867	40.57
785.045	40.85
785.223	40.8
785.4	41.27
785.578	40.36
785.756	40.28
785.934	40.96
786.112	41.95
786.289	40.93
786.467	39.54
786.645	37.97
786.823	38.34
787	38.48
787.178	38.36
787.356	37.96
787.533	38.23
787.711	38.18
787.889	36.66
788.066	35.25
788.244	35.57
788.421	36.19
788.599	37.37
788.776	36.33
788.954	36.29
789.131	36.37
789.309	35.39
789.486	35.46
789.664	34.95
789.841	36.3
790.019	36.12
790.196	36.4
790.373	36.81
790.551	37.14
790.728	38.06
790.906	37.2
791.083	37.98
791.26	39.6
791.437	39.92
791.615	40.52
791.792	40.51
791.969	41.55
792.146	41.01
792.324	40.36
792.501	40.66
792.678	41.08
792.855	42.37
793.032	40.86
793.209	40.6
793.387	40.65
793.564	40.91
793.741	41.16
793.918	41.7
794.095	42.66
794.272	42.85
794.449	40.65
794.626	39.69
794.803	39.26
794.98	39.79
795.157	39.97
795.334	39.83
795.511	40.21
795.688	40.51
795.864	39.63
796.041	38.63
796.218	38.17
796.395	40.03
796.572	40.68
796.749	40.59
796.925	39.86
797.102	39.69
797.279	39.86
797.456	39.33
797.632	38.44
797.809	38.17
797.986	39.52
798.162	40.32
798.339	39.76
798.516	39.98
798.692	40.38
798.869	41.3
799.046	41.78
799.222	42.13
799.399	42.25
799.575	42.03
799.752	42.9
799.928	42.87
800.105	42.63
800.281	42.84
800.458	42.89
800.634	42.87
800.811	42.58
800.987	41.63
801.163	41.43
801.34	41.44
801.516	42.39
801.692	42.17
801.869	41.49
802.045	41.01
802.221	40.62
802.398	40.5
802.574	39.77
802.75	40.26
802.926	40.76
803.103	41.27
803.279	41.65
803.455	39.74
803.631	39.79
803.807	40.27
803.983	40.56
804.16	40.96
804.336	40.17
804.512	39.83
804.688	39.43
804.864	39.93
805.04	38.49
805.216	38.15
805.392	39.03
805.568	39.31
805.744	39.61
805.92	40.76
806.096	42.41
806.272	43.69
806.448	44.59
806.623	45.14
806.799	44.95
806.975	45.08
807.151	44.26
807.327	45.34
807.503	44.56
807.678	43.8
807.854	43.49
808.03	41.92
808.206	41.69
808.381	41.01
808.557	39.93
808.733	38.85
808.908	38.95
809.084	40.68
809.26	40.08
809.435	39.76
809.611	40.84
809.787	40.59
809.962	40.72
810.138	40.34
810.313	41.05
810.489	41.03
810.664	41.97
810.84	42.55
811.015	43.32
811.191	44.53
811.366	44.78
811.542	43.1
811.717	42.77
811.892	41.78
812.068	41.1
812.243	39.54
812.419	39.26
812.594	39.67
812.769	38.46
812.944	35.14
813.12	34.38
813.295	35.23
813.47	36.56
813.645	36.18
813.821	38.33
813.996	38.71
814.171	40.6
814.346	42.33
814.521	43.2
814.697	42.46
814.872	43.63
815.047	44.35
815.222	44.11
815.397	42.98
815.572	44.06
815.747	42.54
815.922	42.3
816.097	42.38
816.272	41.99
816.447	40.9
816.622	43.45
816.797	43.06
816.972	40.34
817.147	40.61
817.322	41.47
817.496	40.37
817.671	40.43
817.846	41.48
818.021	40.7
818.196	40.96
818.371	40.2
818.545	38.16
818.72	38.02
818.895	39.15
819.069	37.53
819.244	37.57
819.419	37.65
819.594	37.7
819.768	35.8
819.943	34.98
820.117	34.4
820.292	34.11
820.467	33.74
820.641	32.95
820.816	32.65
820.99	32.82
821.165	32.13
821.339	31.6
821.514	31.58
821.688	31.62
821.863	31.57
822.037	31.3
822.212	31.12
822.386	31.16
822.56	31.38
822.735	31.19
822.909	31.05
823.084	30.88
823.258	30.86
823.432	30.67
823.606	30.55
823.781	30.54
823.955	30.25
824.129	30.36
824.303	30.41
824.478	30.35
824.652	30.36
824.826	30.66
825	31.23
825.174	31.84
825.348	31.57
825.523	31.9
825.697	32.28
825.871	32.91
826.045	33.09
826.219	33.17
826.393	32.86
826.567	32.77
826.741	32.31
826.915	31.96
827.089	31.95
827.263	32.38
827.437	32.85
827.611	32.6
827.784	32.8
827.958	32.95
828.132	32.5
828.306	33.09
828.48	33.42
828.654	34.32
828.827	34.57
829.001	34.56
829.175	35.26
829.349	34.32
829.522	34.96
829.696	35.36
829.87	35.49
830.044	36.78
830.217	37.08
830.391	37.77
830.565	37.68
830.738	37.76
830.912	37.8
831.085	37.73
831.259	39.77
831.432	39.3
831.606	38.75
831.779	37.85
831.953	37.72
832.126	36.93
832.3	37.3
832.473	35.84
832.647	36.68
832.82	35.89
832.994	35.13
833.167	34.24
833.34	33.95
833.514	33.61
833.687	33.13
833.86	32.76
834.034	33.04
834.207	33.02
834.38	33.55
834.553	33.43
834.727	33.46
834.9	33.82
835.073	33.81
835.246	33.78
835.419	34.42
835.593	36.06
835.766	35.77
835.939	35.27
836.112	34.62
836.285	35.03
836.458	34.39
836.631	36.44
836.804	37.37
836.977	37.05
837.15	38.79
837.323	39.17
837.496	39.17
837.669	40.75
837.842	42.61
838.015	44.4
838.188	44.67
838.361	45.78
838.533	44.1
838.706	42.56
838.879	44.25
839.052	43.11
839.225	43.7
839.398	42.25
839.57	42.21
839.743	42.14
839.916	41.27
840.088	44.1
840.261	44.86
840.434	45.12
840.607	47.06
840.779	47.64
840.952	46.5
841.124	45.9
841.297	45.75
841.47	44.44
841.642	45.19
841.815	45.88
841.987	43.08
842.16	42.61
842.332	42.78
842.505	42.01
842.677	41.43
842.85	41.46
843.022	42.75
843.194	45.2
843.367	49.83
843.539	49.79
843.712	50.62
843.884	51.94
844.056	53.23
844.229	52.54
844.401	51.49
844.573	50.49
844.745	54.99
844.918	53.02
845.09	53.15
845.262	50.73
845.434	48.24
845.606	48.62
845.779	47.14
845.951	49.42
846.123	49.99
846.295	49.96
846.467	53.21
846.639	50.94
846.811	52.55
846.983	51.65
847.155	54.96
847.327	57.7
847.499	58.97
847.671	59.67
847.843	56.06
848.015	57.95
848.187	58.11
848.359	59.32
848.531	60.17
848.703	57.06
848.875	59.69
849.047	56.32
849.218	57.43
849.39	53.69
849.562	52.94
849.734	53.71
849.905	51.15
850.077	53.55
850.249	53.66
850.421	52.35
850.592	55.19
850.764	52.11
850.936	50.72
851.107	49.13
851.279	49.36
851.451	48.77
851.622	48.68
851.794	53.58
851.965	53.98
852.137	54.19
852.308	57.47
852.48	58.27
852.651	57.12
852.823	57.59
852.994	55.04
853.166	57.14
853.337	59.43
853.509	54.19
853.68	49.7
853.851	47.55
854.023	45.89
854.194	43.06
854.365	42.2
854.537	49.54
854.708	49.55
854.879	54.12
855.05	55.66
855.222	56.15
855.393	64.28
855.564	65.84
855.735	69.4
855.906	70.61
856.078	71.19
856.249	73.48
856.42	67.74
856.591	73
856.762	71.82
856.933	68.49
857.104	68.43
857.275	66.12
857.446	64.77
857.617	64.93
857.788	62.68
857.959	64.48
858.13	64.15
858.301	61.94
858.472	58.79
858.643	57.75
858.814	59.6
858.985	57.11
859.155	52.71
859.326	53.89
859.497	51.16
859.668	54.19
859.839	54.95
860.009	52.88
860.18	57.29
860.351	56.66
860.522	55.57
860.692	56.11
860.863	55.04
861.034	60.63
861.204	61.55
861.375	62.68
861.546	60.94
861.716	62.27
861.887	64.77
862.057	59.24
862.228	61.41
862.398	61.59
862.569	59.78
862.739	63.45
862.91	60.9
863.08	63.41
863.251	64.94
863.421	63.97
863.592	58.1
863.762	55.14
863.932	57.81
864.103	55.94
864.273	58.04
864.443	56.12
864.614	54.96
864.784	56.21
864.954	53.02
865.125	53.09
865.295	53
865.465	59.2
865.635	58.85
865.805	58.97
865.976	61.43
866.146	59.55
866.316	63.01
866.486	62.4
866.656	66.12
866.826	67.79
866.996	63.01
867.166	64.52
867.336	65.67
867.506	70.59
867.676	73.4
867.846	73.15
868.016	74.87
868.186	74.83
868.356	74.31
868.526	67.42
868.696	67.66
868.866	68.92
869.036	68.56
869.206	61.12
869.376	56.8
869.545	57.16
869.715	57.75
869.885	57.76
870.055	56.36
870.224	55.73
870.394	60.21
870.564	60.55
870.734	60.46
870.903	58.02
871.073	59.04
871.243	61.02
871.412	58.91
871.582	59.44
871.751	55.99
871.921	56.54
872.091	56.9
872.26	56.97
872.43	54.59
872.599	56.13
872.769	59.9
872.938	60.06
873.108	59.12
873.277	61.64
873.446	61.37
873.616	62.38
873.785	61.18
873.955	62.16
874.124	60.58
874.293	63.07
874.463	63.14
874.632	61.36
874.801	65.35
874.971	69.02
875.14	62.4
875.309	59.7
875.478	59.7
875.647	60.23
875.817	62.21
875.986	60.8
876.155	59.34
876.324	60.83
876.493	60.2
876.662	56.04
876.831	53.93
877	56.66
877.17	54.46
877.339	54.08
877.508	57.73
877.677	58.15
877.846	54.51
878.015	54.54
878.184	51.36
878.352	49.45
878.521	48.03
878.69	45.04
878.859	47.1
879.028	49.76
879.197	50.02
879.366	45.77
879.534	43.85
879.703	44.92
879.872	45.28
880.041	45.12
880.21	43.1
880.378	42.02
880.547	42.44
880.716	40.15
880.884	39.09
881.053	38.83
881.222	37.61
881.39	36.13
881.559	35.45
881.727	34.29
881.896	33.59
882.065	33.52
882.233	34.1
882.402	33.68
882.57	33.72
882.739	33.04
882.907	32.64
883.076	33.49
883.244	33.72
883.412	33.87
883.581	34.16
883.749	33.95
883.918	34.25
884.086	34.78
884.254	35.22
884.423	34.63
884.591	35.54
884.759	35.39
884.927	34.78
885.096	35.9
885.264	36.5
885.432	37.74
885.6	38.62
885.769	38.78
885.937	37.55
886.105	35.63
886.273	38.44
886.441	39.47
886.609	41.01
886.777	42.07
886.945	42.46
887.113	43.58
887.281	42.52
887.449	46.13
887.617	46.26
887.785	47.79
887.953	49.08
888.121	49.05
888.289	46.79
888.457	47.23
888.625	51.11
888.793	52.02
888.961	50.68
889.129	51.99
889.296	49.59
889.464	52.32
889.632	51.61
889.8	54.02
889.967	53.92
890.135	58.68
