Data from 2938709__Reflection_04.txt Node
Date: Tue Mar 17 19:42:19 EDT 2015
User: robert
Spectrometer: USB4E03002
Autoset integration time: false
Trigger mode: 4
Integration Time (sec): 1.000000E-1
Scans to average: 10
Electric dark correction enabled: false
Nonlinearity correction enabled: false
Boxcar width: 5
Stray light correction enabled: false
XAxis mode: Wavelengths
Stop averaging: false
Number of Pixels in Spectrum: 3648
>>>>>Begin Spectral Data<<<<<
177.575	228.16
177.794	216.25
178.014	274.49
178.233	261.42
178.452	238.97
178.672	243.86
178.891	286.82
179.11	270.97
179.33	191.88
179.549	318.93
179.768	330.04
179.987	344.76
180.207	-2295.65
180.426	432.91
180.645	242.81
180.864	166
181.084	183.5
181.303	153.94
181.522	206.88
181.741	266.26
181.96	243.36
182.179	252.72
182.398	219.35
182.618	181.11
182.837	175.89
183.056	190.49
183.275	266.37
183.494	268.31
183.713	237.83
183.932	178.39
184.151	235.59
184.37	284.13
184.589	236.91
184.808	314.37
185.027	380.49
185.246	346.18
185.465	585.43
185.684	500.56
185.903	249.75
186.122	383.15
186.341	383.64
186.56	341.48
186.779	310.83
186.998	420.75
187.216	372.88
187.435	328.17
187.654	248.78
187.873	330.23
188.092	446.69
188.311	1853.95
188.53	830.68
188.748	746.92
188.967	419.73
189.186	456.35
189.405	370.6
189.623	315.52
189.842	323.76
190.061	521.54
190.28	344.28
190.498	523.98
190.717	309.39
190.936	390.71
191.154	2184.85
191.373	-1215.25
191.592	715.33
191.81	2130
192.029	2427.27
192.248	35033.33
192.466	-1180.26
192.685	-297.11
192.904	-1127.78
193.122	-1346.15
193.341	-3317.86
193.559	13033.33
193.778	2996.3
193.996	-1486.79
194.215	-982.72
194.433	-463.69
194.652	-1193.75
194.87	1692
195.089	770.09
195.307	1041.77
195.526	2716.13
195.744	2965.38
195.963	878.49
196.181	932.89
196.399	784
196.618	3404.55
196.836	951.52
197.055	554.95
197.273	565.05
197.491	490.79
197.71	403.37
197.928	312.5
198.146	294.8
198.365	259.47
198.583	287.23
198.801	228
199.019	183.52
199.238	166.97
199.456	178.32
199.674	203.68
199.892	239.87
200.111	249.67
200.329	361.47
200.547	551.24
200.765	5489.47
200.983	3309.09
201.202	-1000.89
201.42	-373.71
201.638	-397.76
201.856	-289.67
202.074	-186.35
202.292	-271.28
202.51	-213.26
202.728	-240.41
202.946	-372.9
203.165	2025
203.383	11580
203.601	-461.25
203.819	-285.06
204.037	1032.43
204.255	-841.03
204.473	998
204.691	1108.7
204.909	484.68
205.127	396.99
205.345	610.89
205.562	-1444.44
205.78	584.73
205.998	230.15
206.216	203.27
206.434	271.39
206.652	244.98
206.87	242.11
207.088	257.36
207.306	266.22
207.523	239.2
207.741	240.03
207.959	205.51
208.177	240.64
208.395	232.85
208.612	241.24
208.83	259.21
209.048	330.08
209.266	421.83
209.483	345.26
209.701	360
209.919	773.64
210.136	846.6
210.354	1575
210.572	383.62
210.79	-5463.64
211.007	795.33
211.225	496.53
211.442	222.97
211.66	128.41
211.878	120.66
212.095	8.26
212.313	28.7
212.53	22.52
212.748	56.03
212.966	32.56
213.183	49.34
213.401	24.36
213.618	28.78
213.836	23.77
214.053	42.8
214.271	46.22
214.488	151.78
214.705	129.33
214.923	124.06
215.14	133.64
215.358	146.35
215.575	149.39
215.793	185.37
216.01	172.6
216.227	213.16
216.445	175.25
216.662	168.37
216.879	261.99
217.097	191.38
217.314	230.85
217.531	148.18
217.749	139.52
217.966	126.85
218.183	109.91
218.4	116.94
218.618	107.39
218.835	90.34
219.052	74.65
219.269	98.57
219.487	96.27
219.704	99.04
219.921	95.27
220.138	98.2
220.355	85.97
220.572	101.41
220.79	86.35
221.007	80.42
221.224	83.7
221.441	84.29
221.658	66.79
221.875	60.12
222.092	51.13
222.309	43.08
222.526	37.12
222.743	37.68
222.96	35.2
223.177	35.23
223.394	39.05
223.611	36.49
223.828	39.85
224.045	37.74
224.262	40.59
224.479	45.03
224.696	51.45
224.913	55.3
225.13	52.09
225.347	46.63
225.564	43.66
225.781	40.18
225.997	42.67
226.214	35.77
226.431	30.24
226.648	25.28
226.865	22.23
227.082	17.73
227.298	14.14
227.515	12.2
227.732	13.85
227.949	12.65
228.165	10.61
228.382	9.19
228.599	9.21
228.816	10.12
229.032	9.98
229.249	9.5
229.466	9.05
229.682	9.43
229.899	9.79
230.116	9.24
230.332	9.24
230.549	9.36
230.765	10.11
230.982	9.66
231.199	9.31
231.415	9.53
231.632	9.72
231.848	10.82
232.065	10.85
232.281	11.18
232.498	12.18
232.714	11.2
232.931	12.29
233.147	9.73
233.364	10.95
233.58	10.49
233.797	12.04
234.013	11.69
234.23	11.69
234.446	11.55
234.662	12.53
234.879	9.98
235.095	11.5
235.312	12.05
235.528	15.14
235.744	14.44
235.961	14.17
236.177	14.69
236.393	14.62
236.61	15.68
236.826	14.09
237.042	14.33
237.258	16.07
237.475	13.94
237.691	12.62
237.907	10.96
238.123	11.2
238.339	11.2
238.556	10.92
238.772	10.85
238.988	10.17
239.204	11.14
239.42	11.71
239.636	11.26
239.853	11.68
240.069	10.66
240.285	9.81
240.501	9.81
240.717	10.16
240.933	9.73
241.149	9.14
241.365	8.85
241.581	8.61
241.797	7.61
242.013	7.07
242.229	6.62
242.445	7.19
242.661	7.66
242.877	6.85
243.093	6.69
243.309	5.81
243.525	5.85
243.741	6.18
243.957	6.24
244.173	6.3
244.388	7.3
244.604	8.09
244.82	7.85
245.036	7.5
245.252	8.2
245.468	8
245.683	8.6
245.899	8.44
246.115	8.33
246.331	8.1
246.547	7.91
246.762	7.34
246.978	6.93
247.194	7.03
247.409	6.87
247.625	6.87
247.841	6.71
248.057	6.79
248.272	6.87
248.488	6.37
248.703	6.67
248.919	7.18
249.135	7.52
249.35	7.65
249.566	7.22
249.782	7.1
249.997	7.02
250.213	7.39
250.428	6.72
250.644	7.05
250.859	7.23
251.075	6.68
251.29	5.56
251.506	5.65
251.721	6.37
251.937	6.83
252.152	7.2
252.368	7.07
252.583	7.25
252.798	7.46
253.014	7.12
253.229	7.13
253.445	7.17
253.66	7.2
253.875	6.75
254.091	7.25
254.306	7.16
254.521	6.87
254.737	7.53
254.952	7.37
255.167	7.13
255.383	6.71
255.598	6.35
255.813	6.11
256.028	6.53
256.244	7.62
256.459	7.01
256.674	7.14
256.889	7.03
257.104	6.63
257.32	5.87
257.535	5.96
257.75	6.03
257.965	6.77
258.18	6.82
258.395	6.45
258.61	6.09
258.826	5.69
259.041	5.55
259.256	5.27
259.471	5.07
259.686	5
259.901	4.83
260.116	4.51
260.331	4.16
260.546	4.08
260.761	4.36
260.976	3.92
261.191	3.77
261.406	3.58
261.621	3.51
261.836	3.69
262.05	3.66
262.265	3.66
262.48	3.95
262.695	4.48
262.91	4.98
263.125	4.93
263.34	4.68
263.555	5.22
263.769	4.69
263.984	4.82
264.199	4.91
264.414	5.08
264.629	5.64
264.843	5.39
265.058	5.08
265.273	4.67
265.488	4.05
265.702	4.85
265.917	5.31
266.132	6.26
266.346	6.11
266.561	5.68
266.776	5.99
266.99	5.52
267.205	5.71
267.42	5.42
267.634	5.36
267.849	5.34
268.063	5.43
268.278	4.78
268.492	4.28
268.707	4.85
268.922	4.75
269.136	4.64
269.351	4.67
269.565	4.69
269.78	4.49
269.994	4.08
270.209	4.06
270.423	3.95
270.637	4.25
270.852	4.46
271.066	4.07
271.281	4.15
271.495	3.81
271.709	3.77
271.924	3.77
272.138	4.06
272.353	4.35
272.567	4.58
272.781	4.51
272.996	4.3
273.21	4.48
273.424	4.69
273.638	5.08
273.853	5.31
274.067	5.42
274.281	5.61
274.495	5.55
274.71	5.48
274.924	4.98
275.138	4.9
275.352	5.27
275.566	5.16
275.781	4.9
275.995	4.76
276.209	4.55
276.423	4.37
276.637	4.24
276.851	4.19
277.065	4.32
277.279	4.61
277.493	4.72
277.707	4.39
277.921	4.28
278.135	4.65
278.349	4.11
278.563	4.38
278.777	4.63
278.991	4.57
279.205	4.55
279.419	4.13
279.633	4.27
279.847	4.28
280.061	4.01
280.275	3.75
280.489	3.79
280.703	4.37
280.917	4.24
281.131	4.34
281.344	4.25
281.558	4
281.772	4.37
281.986	4.25
282.2	4.06
282.414	4.23
282.627	4.38
282.841	3.9
283.055	3.68
283.269	3.63
283.482	3.26
283.696	3.31
283.91	3.62
284.123	3.46
284.337	3.49
284.551	3.77
284.764	3.86
284.978	3.61
285.192	3.98
285.405	4.11
285.619	4.07
285.833	4.25
286.046	4.49
286.26	4.57
286.473	4.72
286.687	4.6
286.9	4.58
287.114	4.52
287.327	4.93
287.541	4.48
287.754	4.4
287.968	4.44
288.181	4.48
288.395	4.66
288.608	4.64
288.822	4.53
289.035	4.65
289.248	4.58
289.462	4.89
289.675	4.52
289.889	5
290.102	4.71
290.315	5.04
290.529	5.09
290.742	4.74
290.955	4.82
291.169	4.72
291.382	4.88
291.595	4.88
291.808	4.52
292.022	4.56
292.235	4.64
292.448	4.96
292.661	4.85
292.875	4.72
293.088	4.73
293.301	4.5
293.514	4.53
293.727	4.2
293.94	4.33
294.153	4.37
294.367	4.69
294.58	4.6
294.793	4.59
295.006	4.7
295.219	4.86
295.432	4.52
295.645	4.46
295.858	4.6
296.071	4.84
296.284	4.95
296.497	4.97
296.71	4.79
296.923	4.78
297.136	4.89
297.349	4.62
297.562	4.54
297.775	4.72
297.988	4.77
298.201	4.77
298.414	4.69
298.626	4.81
298.839	4.86
299.052	4.94
299.265	4.84
299.478	4.67
299.691	4.99
299.903	5.1
300.116	5.38
300.329	5.64
300.542	5.63
300.755	5.67
300.967	5.15
301.18	5.32
301.393	5.5
301.605	5.37
301.818	5.33
302.031	5.32
302.243	5.19
302.456	5.2
302.669	5.22
302.881	5.25
303.094	5.2
303.307	5.37
303.519	5.23
303.732	5.03
303.944	5.34
304.157	5.34
304.37	5.38
304.582	5.73
304.795	5.89
305.007	5.78
305.22	5.7
305.432	5.99
305.645	6.45
305.857	6.56
306.069	7.13
306.282	7.02
306.494	6.68
306.707	6.54
306.919	6.18
307.132	5.87
307.344	5.96
307.556	6.3
307.769	6.52
307.981	6.5
308.193	6.34
308.406	6.07
308.618	6.47
308.83	6.71
309.043	6.75
309.255	6.74
309.467	6.93
309.679	6.89
309.892	7.24
310.104	7.07
310.316	6.83
310.528	6.84
310.74	6.8
310.953	6.8
311.165	7.08
311.377	7.22
311.589	7.33
311.801	7.1
312.013	7.09
312.225	6.68
312.437	6.39
312.649	6.63
312.862	6.83
313.074	6.89
313.286	6.88
313.498	7.17
313.71	7.19
313.922	7.51
314.134	7.67
314.346	7.69
314.558	7.63
314.77	8.16
314.982	7.81
315.193	7.9
315.405	7.8
315.617	7.49
315.829	7.11
316.041	6.8
316.253	6.6
316.465	6.74
316.677	7.03
316.888	7.23
317.1	7.21
317.312	7.41
317.524	7.46
317.736	7.61
317.947	8.03
318.159	8.13
318.371	8.46
318.583	8.86
318.794	9.11
319.006	9.09
319.218	8.79
319.43	9.33
319.641	9.31
319.853	9.56
320.064	10.33
320.276	10.37
320.488	10.66
320.699	10.82
320.911	10.94
321.123	10.64
321.334	10.43
321.546	10.78
321.757	9.75
321.969	10.54
322.18	10.49
322.392	9.62
322.603	9.31
322.815	9.03
323.026	9.14
323.238	8.97
323.449	9.09
323.661	9.35
323.872	9.65
324.083	10.2
324.295	9.74
324.506	9.72
324.718	9.77
324.929	9.92
325.14	10.39
325.352	10.87
325.563	10.8
325.774	10.86
325.986	11.12
326.197	11.21
326.408	11.77
326.62	12.09
326.831	12.2
327.042	12.67
327.253	12.76
327.464	12.81
327.676	12.28
327.887	13.01
328.098	13.19
328.309	13.43
328.52	13.68
328.732	13.07
328.943	13.52
329.154	13.8
329.365	13.83
329.576	13.92
329.787	13.63
329.998	14.25
330.209	13.96
330.42	14.41
330.631	14.06
330.842	14.05
331.053	14.43
331.264	13.89
331.475	13.64
331.686	13.65
331.897	13.93
332.108	14.39
332.319	14.52
332.53	14.44
332.741	13.97
332.952	14.19
333.163	14.28
333.374	14.22
333.585	14.43
333.795	14.71
334.006	14.8
334.217	14.86
334.428	15.17
334.639	15.17
334.849	15.22
335.06	15.5
335.271	15.64
335.482	15.4
335.692	15.64
335.903	15.49
336.114	15.5
336.325	15.59
336.535	15.52
336.746	15.07
336.957	14.84
337.167	14.93
337.378	15.31
337.589	15.16
337.799	14.84
338.01	15.1
338.22	15.36
338.431	15.5
338.642	15.38
338.852	15.2
339.063	15.51
339.273	15.49
339.484	15.36
339.694	14.9
339.905	14.96
340.115	15.1
340.326	14.94
340.536	15.01
340.746	14.53
340.957	14.45
341.167	14.82
341.378	14.71
341.588	14.71
341.799	14.72
342.009	14.66
342.219	14.47
342.43	14.9
342.64	14.55
342.85	14.34
343.061	14.5
343.271	14.5
343.481	14.27
343.691	14.16
343.902	14.35
344.112	14.7
344.322	14.92
344.532	15.29
344.743	14.9
344.953	14.98
345.163	14.82
345.373	14.68
345.583	14.65
345.793	14.52
346.004	14.47
346.214	14.14
346.424	13.46
346.634	13.22
346.844	12.83
347.054	13.12
347.264	13
347.474	13.14
347.684	13.49
347.894	13.41
348.104	13.66
348.314	13.63
348.524	13.77
348.734	13.99
348.944	14.06
349.154	14.08
349.364	13.92
349.574	14.01
349.784	13.95
349.994	13.89
350.204	13.94
350.413	13.82
350.623	13.85
350.833	13.67
351.043	13.57
351.253	13.52
351.463	13.68
351.672	13.5
351.882	13.64
352.092	13.6
352.302	13.52
352.511	13.77
352.721	13.79
352.931	13.69
353.141	14.11
353.35	14.41
353.56	14.46
353.77	14.08
353.979	13.98
354.189	14.24
354.399	14.08
354.608	14.45
354.818	14.31
355.027	14.24
355.237	14.32
355.447	14.03
355.656	13.75
355.866	13.62
356.075	13.66
356.285	13.84
356.494	13.43
356.704	13.79
356.913	13.47
357.123	13.27
357.332	13.04
357.542	13.05
357.751	13.17
357.96	13.35
358.17	13.29
358.379	13.49
358.589	13.68
358.798	13.61
359.007	13.79
359.217	13.59
359.426	13.5
359.635	13.72
359.845	13.66
360.054	13.68
360.263	13.52
360.472	13.63
360.682	13.58
360.891	13.25
361.1	13.18
361.309	12.84
361.519	12.81
361.728	12.93
361.937	12.99
362.146	12.9
362.355	12.75
362.564	12.78
362.774	12.7
362.983	12.71
363.192	12.87
363.401	13.12
363.61	13.11
363.819	13.37
364.028	13.31
364.237	13.14
364.446	13.17
364.655	13.14
364.864	13.05
365.073	13.08
365.282	13.02
365.491	12.87
365.7	12.45
365.909	12.49
366.118	12.46
366.327	12.36
366.536	12.42
366.745	12.42
366.954	12.57
367.162	12.49
367.371	12.5
367.58	12.48
367.789	12.42
367.998	12.59
368.207	12.42
368.415	12.48
368.624	12.57
368.833	12.53
369.042	12.45
369.25	12.11
369.459	12.15
369.668	12.25
369.877	12.23
370.085	12.39
370.294	12.52
370.503	12.53
370.711	12.2
370.92	12.2
371.129	12.11
371.337	12.12
371.546	12.09
371.754	12.22
371.963	12.04
372.171	12.09
372.38	12.02
372.589	11.78
372.797	11.68
373.006	11.66
373.214	11.53
373.423	11.5
373.631	11.41
373.84	11.38
374.048	11.17
374.256	11.24
374.465	11.13
374.673	11.07
374.882	10.95
375.09	10.8
375.298	10.58
375.507	10.41
375.715	10.44
375.923	10.43
376.132	10.7
376.34	10.55
376.548	10.41
376.757	10.37
376.965	10.23
377.173	10.12
377.381	10.29
377.59	10.54
377.798	10.71
378.006	10.79
378.214	10.9
378.423	10.57
378.631	10.67
378.839	10.7
379.047	10.61
379.255	10.84
379.463	11.11
379.671	11.08
379.879	10.89
380.088	10.87
380.296	10.68
380.504	10.47
380.712	10.37
380.92	10.23
381.128	9.99
381.336	10.08
381.544	9.9
381.752	9.73
381.96	9.76
382.168	9.88
382.376	9.92
382.584	9.85
382.791	9.95
382.999	10.2
383.207	10.08
383.415	10.37
383.623	10.23
383.831	10.1
384.039	10.09
384.247	10.01
384.454	9.88
384.662	9.57
384.87	9.64
385.078	9.51
385.285	9.27
385.493	9.18
385.701	9.02
385.909	9.09
386.116	9.09
386.324	9.04
386.532	8.92
386.739	8.94
386.947	9
387.155	8.86
387.362	8.93
387.57	8.86
387.778	9.09
387.985	8.89
388.193	8.76
388.4	8.65
388.608	8.71
388.816	8.56
389.023	8.49
389.231	8.37
389.438	8.41
389.646	8.38
389.853	8.54
390.061	8.38
390.268	8.33
390.475	8.26
390.683	8.37
390.89	8.12
391.098	8.18
391.305	8.07
391.512	8.16
391.72	8.1
391.927	8.01
392.135	7.8
392.342	7.83
392.549	7.82
392.756	7.81
392.964	7.62
393.171	7.68
393.378	7.69
393.586	7.73
393.793	7.72
394	7.63
394.207	7.67
394.414	7.92
394.622	7.8
394.829	7.82
395.036	7.62
395.243	7.66
395.45	7.48
395.657	7.55
395.864	7.56
396.072	7.6
396.279	7.61
396.486	7.43
396.693	7.06
396.9	7.14
397.107	7.15
397.314	7.29
397.521	7.47
397.728	7.55
397.935	7.27
398.142	7.07
398.349	6.97
398.556	6.93
398.763	6.98
398.97	7.04
399.177	7.07
399.383	6.98
399.59	6.92
399.797	6.71
400.004	6.8
400.211	6.98
400.418	7.01
400.625	6.94
400.831	6.92
401.038	6.93
401.245	6.91
401.452	6.85
401.658	6.89
401.865	6.92
402.072	6.93
402.279	6.85
402.485	6.6
402.692	6.7
402.899	6.61
403.105	6.72
403.312	6.68
403.519	6.83
403.725	6.67
403.932	6.63
404.138	6.67
404.345	6.6
404.552	6.51
404.758	6.67
404.965	6.51
405.171	6.57
405.378	6.47
405.584	6.41
405.791	6.3
405.997	6.4
406.204	6.44
406.41	6.55
406.617	6.6
406.823	6.62
407.029	6.54
407.236	6.66
407.442	6.69
407.649	6.64
407.855	6.58
408.061	6.49
408.268	6.41
408.474	6.36
408.68	6.18
408.887	6.19
409.093	6.21
409.299	6.41
409.505	6.3
409.712	6.22
409.918	6.1
410.124	6.19
410.33	6.12
410.537	6.13
410.743	6.34
410.949	6.33
411.155	6.12
411.361	6.06
411.567	5.77
411.773	5.75
411.98	5.75
412.186	5.94
412.392	5.94
412.598	5.88
412.804	5.97
413.01	5.74
413.216	5.71
413.422	5.77
413.628	5.9
413.834	5.98
414.04	5.97
414.246	5.92
414.452	5.79
414.658	5.93
414.864	6.12
415.07	6.01
415.275	6
415.481	5.95
415.687	6
415.893	6.02
416.099	6.01
416.305	6.09
416.511	6.2
416.716	6.28
416.922	6.09
417.128	6.13
417.334	6.12
417.539	5.99
417.745	6.01
417.951	6.02
418.157	5.92
418.362	6.01
418.568	5.92
418.774	5.85
418.979	5.79
419.185	5.79
419.391	5.72
419.596	5.79
419.802	5.88
420.008	5.77
420.213	6.44
420.419	6.49
420.624	6.45
420.83	6.46
421.035	6.43
421.241	6.38
421.446	6.46
421.652	6.43
421.857	6.32
422.063	6.33
422.268	6.4
422.474	5.73
422.679	5.66
422.885	5.63
423.09	5.62
423.295	5.63
423.501	5.58
423.706	5.51
423.911	5.49
424.117	5.54
424.322	5.44
424.527	5.52
424.733	5.47
424.938	5.43
425.143	5.39
425.349	5.34
425.554	5.33
425.759	5.35
425.964	5.38
426.169	5.37
426.375	5.36
426.58	5.4
426.785	5.34
426.99	5.42
427.195	5.46
427.4	5.43
427.605	5.48
427.811	5.57
428.016	5.56
428.221	5.54
428.426	5.6
428.631	5.61
428.836	5.59
429.041	5.59
429.246	5.71
429.451	5.76
429.656	5.75
429.861	5.8
430.066	5.83
430.271	5.84
430.476	5.85
430.681	5.88
430.886	5.91
431.09	5.91
431.295	5.88
431.5	5.77
431.705	5.68
431.91	5.75
432.115	5.7
432.32	5.6
432.524	5.67
432.729	5.72
432.934	5.62
433.139	5.62
433.343	5.64
433.548	5.51
433.753	5.44
433.958	5.49
434.162	5.47
434.367	5.46
434.572	5.51
434.776	5.54
434.981	5.44
435.186	5.53
435.39	5.57
435.595	5.56
435.799	5.75
436.004	5.92
436.209	5.95
436.413	6.01
436.618	6.14
436.822	6.14
437.027	6.07
437.231	6.08
437.436	6
437.64	5.98
437.845	5.94
438.049	5.93
438.253	5.81
438.458	5.8
438.662	5.77
438.867	5.66
439.071	5.65
439.275	5.58
439.48	5.6
439.684	5.59
439.888	5.6
440.093	5.58
440.297	5.53
440.501	5.47
440.706	5.52
440.91	5.51
441.114	5.58
441.318	5.55
441.523	5.68
441.727	5.76
441.931	5.79
442.135	5.81
442.339	5.9
442.543	5.91
442.748	6.06
442.952	5.96
443.156	5.94
443.36	5.89
443.564	5.95
443.768	5.83
443.972	5.75
444.176	5.71
444.38	5.64
444.584	5.69
444.788	5.75
444.992	5.71
445.196	5.74
445.4	5.79
445.604	5.74
445.808	5.69
446.012	5.66
446.216	5.68
446.42	5.73
446.624	5.73
446.828	5.62
447.032	5.59
447.235	5.6
447.439	5.58
447.643	5.52
447.847	5.53
448.051	5.51
448.254	5.58
448.458	5.53
448.662	5.4
448.866	5.47
449.069	5.56
449.273	5.56
449.477	5.59
449.681	5.65
449.884	5.81
450.088	5.86
450.292	5.84
450.495	5.82
450.699	5.87
450.902	5.96
451.106	5.9
451.31	5.78
451.513	5.75
451.717	5.74
451.92	5.75
452.124	5.6
452.327	5.49
452.531	5.56
452.734	5.59
452.938	5.46
453.141	5.54
453.345	5.48
453.548	5.58
453.752	5.57
453.955	5.51
454.158	5.45
454.362	5.4
454.565	5.52
454.769	5.5
454.972	5.38
455.175	5.5
455.379	5.51
455.582	5.63
455.785	5.62
455.988	5.77
456.192	5.76
456.395	5.72
456.598	5.77
456.801	5.77
457.005	5.72
457.208	5.9
457.411	5.9
457.614	5.87
457.817	5.83
458.021	5.76
458.224	5.6
458.427	5.59
458.63	5.63
458.833	5.65
459.036	5.56
459.239	5.65
459.442	5.56
459.645	5.56
459.848	5.57
460.051	5.45
460.254	5.48
460.457	5.45
460.66	5.5
460.863	5.49
461.066	5.52
461.269	5.57
461.472	5.47
461.675	5.5
461.878	5.4
462.081	5.3
462.284	5.38
462.486	5.36
462.689	5.41
462.892	5.46
463.095	5.49
463.298	5.46
463.5	5.42
463.703	5.5
463.906	5.49
464.109	5.58
464.311	5.63
464.514	5.62
464.717	5.63
464.92	5.64
465.122	5.55
465.325	5.58
465.528	5.5
465.73	5.55
465.933	5.5
466.135	5.49
466.338	5.48
466.541	5.59
466.743	5.64
466.946	5.7
467.148	5.73
467.351	5.72
467.553	5.82
467.756	5.92
467.958	5.98
468.161	6.05
468.363	6
468.566	6
468.768	5.91
468.971	5.93
469.173	5.83
469.375	5.87
469.578	5.81
469.78	5.68
469.983	5.61
470.185	5.64
470.387	5.61
470.59	5.69
470.792	5.69
470.994	5.71
471.196	5.69
471.399	5.76
471.601	5.74
471.803	5.84
472.005	5.8
472.208	5.86
472.41	5.78
472.612	5.83
472.814	5.87
473.016	5.83
473.218	5.83
473.421	5.97
473.623	5.97
473.825	5.94
474.027	5.82
474.229	5.85
474.431	5.91
474.633	6.02
474.835	6.07
475.037	6.12
475.239	6.17
475.441	6.14
475.643	6.04
475.845	5.93
476.047	5.99
476.249	6.09
476.451	6.09
476.653	6.08
476.855	5.98
477.057	5.91
477.258	5.91
477.46	5.92
477.662	5.92
477.864	5.85
478.066	5.86
478.268	5.88
478.469	5.85
478.671	5.8
478.873	5.7
479.075	5.72
479.276	5.7
479.478	5.59
479.68	5.6
479.882	5.6
480.083	5.71
480.285	5.74
480.487	5.71
480.688	5.72
480.89	5.77
481.091	5.81
481.293	5.82
481.495	5.75
481.696	5.8
481.898	5.77
482.099	5.75
482.301	5.69
482.502	5.64
482.704	5.62
482.905	5.58
483.107	5.54
483.308	5.52
483.51	5.49
483.711	5.5
483.913	5.44
484.114	5.42
484.315	5.4
484.517	5.37
484.718	5.38
484.92	5.35
485.121	5.37
485.322	5.36
485.524	5.34
485.725	5.33
485.926	5.33
486.127	5.37
486.329	5.4
486.53	5.42
486.731	5.41
486.932	5.42
487.134	5.42
487.335	5.44
487.536	5.47
487.737	5.51
487.938	5.51
488.139	5.5
488.341	5.49
488.542	5.49
488.743	5.54
488.944	5.57
489.145	5.57
489.346	5.58
489.547	5.57
489.748	5.58
489.949	5.54
490.15	5.56
490.351	5.56
490.552	5.56
490.753	5.51
490.954	5.43
491.155	5.48
491.356	5.47
491.557	5.5
491.758	5.5
491.959	5.48
492.159	5.49
492.36	5.48
492.561	5.48
492.762	5.48
492.963	5.47
493.164	5.54
493.364	5.53
493.565	5.52
493.766	5.55
493.967	5.55
494.167	5.57
494.368	5.61
494.569	5.68
494.769	5.71
494.97	5.81
495.171	5.92
495.371	5.9
495.572	5.89
495.773	6
495.973	5.99
496.174	5.99
496.375	6.01
496.575	6.08
496.776	6.06
496.976	6.05
497.177	6.04
497.377	6.01
497.578	6.07
497.778	6.11
497.979	6.13
498.179	6.16
498.38	6.2
498.58	6.25
498.78	6.21
498.981	6.23
499.181	6.28
499.382	6.27
499.582	6.34
499.782	6.31
499.983	6.36
500.183	6.37
500.383	6.42
500.584	6.4
500.784	6.41
500.984	6.36
501.184	6.38
501.385	6.41
501.585	6.42
501.785	6.37
501.985	6.46
502.185	6.49
502.386	6.51
502.586	6.54
502.786	6.62
502.986	6.64
503.186	6.78
503.386	6.81
503.586	6.85
503.786	6.87
503.987	6.95
504.187	6.9
504.387	6.97
504.587	6.97
504.787	7
504.987	7.03
505.187	7.11
505.387	7.16
505.587	7.25
505.786	7.28
505.986	7.5
506.186	7.58
506.386	7.62
506.586	7.68
506.786	7.71
506.986	7.72
507.186	7.74
507.386	7.72
507.585	7.71
507.785	7.75
507.985	7.87
508.185	7.83
508.384	7.85
508.584	7.96
508.784	8.04
508.984	8.01
509.183	8.1
509.383	8.17
509.583	8.31
509.782	8.4
509.982	8.46
510.182	8.42
510.381	8.44
510.581	8.51
510.781	8.55
510.98	8.5
511.18	8.71
511.379	8.78
511.579	8.77
511.778	8.83
511.978	8.93
512.177	8.98
512.377	9.05
512.576	9.2
512.776	9.28
512.975	9.29
513.175	9.35
513.374	9.32
513.573	9.29
513.773	9.44
513.972	9.44
514.172	9.48
514.371	9.58
514.57	9.69
514.77	9.7
514.969	9.79
515.168	9.88
515.367	9.95
515.567	10.06
515.766	10.2
515.965	10.22
516.164	10.31
516.364	10.32
516.563	10.38
516.762	10.52
516.961	10.6
517.16	10.66
517.359	10.8
517.559	10.93
517.758	11
517.957	11.11
518.156	11.22
518.355	11.27
518.554	11.42
518.753	11.47
518.952	11.51
519.151	11.58
519.35	11.64
519.549	11.7
519.748	11.81
519.947	11.9
520.146	11.93
520.345	11.97
520.544	12.06
520.743	12.07
520.942	12.25
521.141	12.38
521.339	12.49
521.538	12.57
521.737	12.62
521.936	12.65
522.135	12.73
522.333	12.93
522.532	13.05
522.731	13.16
522.93	13.27
523.129	13.26
523.327	13.3
523.526	13.31
523.725	13.38
523.923	13.47
524.122	13.58
524.321	13.62
524.519	13.58
524.718	13.67
524.917	13.77
525.115	13.89
525.314	13.98
525.512	14.05
525.711	14.16
525.909	14.27
526.108	14.36
526.306	14.41
526.505	14.5
526.703	14.6
526.902	14.66
527.1	14.7
527.299	14.77
527.497	14.84
527.696	14.89
527.894	14.93
528.092	14.97
528.291	14.99
528.489	15.05
528.688	15.1
528.886	15.13
529.084	15.17
529.283	15.24
529.481	15.25
529.679	15.28
529.877	15.35
530.076	15.43
530.274	15.52
530.472	15.65
530.67	15.71
530.869	15.78
531.067	15.87
531.265	16.03
531.463	16.09
531.661	16.23
531.859	16.3
532.057	16.39
532.255	16.49
532.454	16.54
532.652	16.6
532.85	16.64
533.048	16.73
533.246	16.79
533.444	16.84
533.642	16.85
533.84	16.94
534.038	17.03
534.236	17.11
534.434	17.17
534.632	17.24
534.83	17.3
535.027	17.45
535.225	17.53
535.423	17.58
535.621	17.66
535.819	17.84
536.017	17.87
536.215	17.93
536.412	17.96
536.61	18.03
536.808	18.07
537.006	18.19
537.203	18.23
537.401	18.31
537.599	18.43
537.797	18.5
537.994	18.58
538.192	18.73
538.39	18.85
538.587	18.99
538.785	19.13
538.983	19.32
539.18	19.38
539.378	19.52
539.575	19.69
539.773	19.88
539.97	20.03
540.168	20.09
540.366	20.18
540.563	20.24
540.761	20.34
540.958	20.39
541.155	20.45
541.353	20.57
541.55	20.66
541.748	20.73
541.945	20.77
542.143	20.79
542.34	20.88
542.537	20.92
542.735	21.08
542.932	21.2
543.129	21.35
543.327	21.48
543.524	21.64
543.721	21.85
543.919	22.05
544.116	22.39
544.313	22.76
544.51	23.06
544.708	23.41
544.905	23.66
545.102	23.91
545.299	24.22
545.496	24.51
545.693	24.68
545.891	24.69
546.088	24.69
546.285	24.6
546.482	24.52
546.679	24.48
546.876	24.36
547.073	24.29
547.27	24.15
547.467	23.99
547.664	23.8
547.861	23.75
548.058	23.66
548.255	23.69
548.452	23.64
548.649	23.6
548.846	23.51
549.043	23.45
549.24	23.37
549.437	23.34
549.633	23.28
549.83	23.25
550.027	23.14
550.224	23.12
550.421	22.98
550.618	23
550.814	22.93
551.011	22.9
551.208	22.95
551.405	22.82
551.601	22.76
551.798	22.69
551.995	22.69
552.191	22.72
552.388	22.85
552.585	22.85
552.781	22.69
552.978	22.65
553.175	22.76
553.371	22.69
553.568	22.92
553.764	22.92
553.961	22.9
554.157	22.98
554.354	22.86
554.55	22.8
554.747	22.89
554.943	22.99
555.14	23.06
555.336	22.9
555.533	22.98
555.729	22.89
555.926	22.92
556.122	23
556.318	22.87
556.515	22.91
556.711	22.86
556.907	22.86
557.104	22.92
557.3	22.83
557.496	22.89
557.693	22.91
557.889	22.94
558.085	23
558.281	23.04
558.478	23.06
558.674	23.08
558.87	23.18
559.066	23.16
559.262	23.16
559.459	23.27
559.655	23.42
559.851	23.44
560.047	23.28
560.243	23.3
560.439	23.29
560.635	23.4
560.831	23.45
561.027	23.41
561.223	23.4
561.419	23.36
561.615	23.37
561.811	23.36
562.007	23.49
562.203	23.58
562.399	23.67
562.595	23.79
562.791	23.88
562.987	23.92
563.183	23.99
563.379	24.11
563.575	24.19
563.771	24.24
563.966	24.26
564.162	24.14
564.358	24.26
564.554	24.17
564.75	24.09
564.945	24.11
565.141	24.12
565.337	24.16
565.533	24.11
565.728	24.21
565.924	24.27
566.12	24.34
566.315	24.37
566.511	24.39
566.707	24.5
566.902	24.52
567.098	24.46
567.293	24.52
567.489	24.54
567.684	24.67
567.88	24.62
568.076	24.68
568.271	24.69
568.467	24.78
568.662	24.8
568.858	24.85
569.053	24.9
569.248	25
569.444	24.97
569.639	24.93
569.835	24.76
570.03	24.86
570.225	24.92
570.421	24.91
570.616	24.86
570.812	24.91
571.007	24.84
571.202	24.88
571.397	24.92
571.593	24.97
571.788	25.07
571.983	25.16
572.178	25.14
572.374	25.14
572.569	25.11
572.764	25.19
572.959	25.14
573.154	25.19
573.35	25.19
573.545	25.15
573.74	25.16
573.935	25.17
574.13	25.37
574.325	25.38
574.52	25.45
574.715	25.56
574.91	25.58
575.105	25.79
575.3	25.94
575.495	26.09
575.69	26.25
575.885	26.44
576.08	26.62
576.275	26.6
576.47	26.82
576.665	26.91
576.86	27.06
577.055	27.21
577.25	27.31
577.444	27.47
577.639	27.64
577.834	27.73
578.029	27.76
578.224	27.8
578.418	27.95
578.613	28.06
578.808	28.09
579.003	28.13
579.197	28.22
579.392	28.31
579.587	28.31
579.781	28.17
579.976	28.23
580.171	28.34
580.365	28.34
580.56	28.42
580.755	28.39
580.949	28.54
581.144	28.69
581.338	28.68
581.533	28.67
581.727	28.62
581.922	28.81
582.116	28.81
582.311	28.84
582.505	28.9
582.7	28.82
582.894	28.94
583.089	28.84
583.283	28.73
583.478	28.87
583.672	28.73
583.866	28.85
584.061	29.04
584.255	29.11
584.449	29.13
584.644	29.25
584.838	29.47
585.032	29.62
585.226	29.85
585.421	29.96
585.615	30.16
585.809	30.42
586.003	30.64
586.198	30.59
586.392	30.66
586.586	30.88
586.78	31.07
586.974	30.94
587.168	30.85
587.363	30.7
587.557	30.61
587.751	30.46
587.945	30.36
588.139	30.28
588.333	30.09
588.527	30.03
588.721	29.83
588.915	29.57
589.109	29.55
589.303	29.48
589.497	29.55
589.691	29.76
589.885	29.63
590.079	29.65
590.273	29.52
590.466	29.72
590.66	29.7
590.854	29.9
591.048	30.1
591.242	30.37
591.436	30.5
591.629	30.66
591.823	30.7
592.017	30.83
592.211	30.91
592.404	31.06
592.598	31.2
592.792	31.33
592.986	31.24
593.179	31.17
593.373	31.05
593.567	30.95
593.76	30.74
593.954	30.65
594.147	30.63
594.341	30.49
594.535	30.46
594.728	30.21
594.922	30.06
595.115	29.94
595.309	29.78
595.502	29.64
595.696	29.61
595.889	29.58
596.083	29.6
596.276	29.53
596.47	29.63
596.663	29.52
596.856	29.54
597.05	29.59
597.243	29.63
597.437	29.67
597.63	29.78
597.823	29.94
598.017	30.08
598.21	30.12
598.403	30.2
598.596	30.27
598.79	30.29
598.983	30.42
599.176	30.46
599.369	30.64
599.563	30.89
599.756	30.96
599.949	30.94
600.142	31.04
600.335	30.96
600.528	31.02
600.722	30.94
600.915	30.98
601.108	30.85
601.301	30.87
601.494	30.7
601.687	30.58
601.88	30.49
602.073	30.23
602.266	30.04
602.459	29.96
602.652	29.76
602.845	29.64
603.038	29.58
603.231	29.65
603.424	29.62
603.617	29.65
603.809	29.65
604.002	29.66
604.195	29.74
604.388	29.82
604.581	29.86
604.774	30.02
604.966	30.14
605.159	30.32
605.352	30.33
605.545	30.43
605.737	30.46
605.93	30.67
606.123	30.81
606.316	31
606.508	31.12
606.701	31.29
606.894	31.56
607.086	31.82
607.279	31.97
607.471	32.34
607.664	32.62
607.857	33.08
608.049	33.52
608.242	34.06
608.434	34.92
608.627	35.84
608.819	37.02
609.012	38.33
609.204	39.9
609.397	41.49
609.589	43.27
609.782	45.11
609.974	47.07
610.166	48.95
610.359	50.97
610.551	52.81
610.743	54.56
610.936	56.17
611.128	57.3
611.32	58.1
611.513	58.72
611.705	58.79
611.897	58.76
612.09	58.33
612.282	57.9
612.474	56.98
612.666	55.91
612.858	54.83
613.051	53.43
613.243	52.31
613.435	51.34
613.627	50.25
613.819	49.49
614.011	48.61
614.203	47.68
614.395	46.43
614.588	45.46
614.78	44.32
614.972	43.26
615.164	42.37
615.356	41.5
615.548	40.7
615.74	40.19
615.932	39.34
616.124	38.57
616.315	37.93
616.507	37.35
616.699	36.96
616.891	36.59
617.083	36.26
617.275	35.83
617.467	35.41
617.659	35.06
617.85	34.52
618.042	34.37
618.234	34.26
618.426	34.03
618.618	34.05
618.809	33.71
619.001	33.6
619.193	33.63
619.384	33.64
619.576	33.64
619.768	33.4
619.959	33.57
620.151	33.72
620.343	33.61
620.534	33.64
620.726	33.43
620.917	33.47
621.109	33.61
621.301	33.63
621.492	33.75
621.684	33.93
621.875	34.16
622.067	33.97
622.258	33.83
622.45	33.9
622.641	34.02
622.832	34.39
623.024	34.59
623.215	34.63
623.407	34.57
623.598	34.7
623.789	34.53
623.981	34.47
624.172	34.49
624.363	34.44
624.555	34.35
624.746	34.25
624.937	34.02
625.129	34.06
625.32	33.99
625.511	33.99
625.702	33.77
625.893	33.85
626.085	33.73
626.276	33.73
626.467	33.5
626.658	33.62
626.849	33.45
627.04	33.53
627.231	33.54
627.422	33.6
627.614	33.57
627.805	33.7
627.996	33.74
628.187	33.95
628.378	34.18
628.569	34.51
628.76	34.5
628.951	34.84
629.142	35.08
629.332	35.31
629.523	35.48
629.714	35.74
629.905	36.07
630.096	36.15
630.287	36.24
630.478	36.25
630.669	36.25
630.859	36.12
631.05	36.11
631.241	35.78
631.432	35.34
631.623	35.11
631.813	34.73
632.004	34.11
632.195	33.79
632.385	33.48
632.576	33.17
632.767	32.93
632.957	32.83
633.148	32.53
633.339	32.45
633.529	32.35
633.72	32.2
633.91	32.19
634.101	32.16
634.292	32.32
634.482	32.3
634.673	32.23
634.863	32.17
635.054	32.26
635.244	32.15
635.435	32.04
635.625	31.85
635.815	31.79
636.006	31.62
636.196	31.65
636.387	31.53
636.577	31.48
636.767	31.63
636.958	31.54
637.148	31.29
637.338	31.31
637.529	31.37
637.719	31.63
637.909	31.65
638.099	31.73
638.29	31.81
638.48	31.57
638.67	31.52
638.86	31.39
639.05	31.35
639.241	31.46
639.431	31.49
639.621	31.49
639.811	31.4
640.001	31.38
640.191	31.4
640.381	31.45
640.571	31.56
640.761	31.44
640.951	31.53
641.141	31.68
641.331	31.61
641.521	31.7
641.711	31.68
641.901	31.53
642.091	31.39
642.281	31.35
642.471	31.27
642.661	31.37
642.851	31.48
643.041	31.48
643.231	31.46
643.42	31.51
643.61	31.23
643.8	31.07
643.99	31.23
644.18	31.26
644.369	31.43
644.559	31.4
644.749	31.26
644.939	31.31
645.128	31.1
645.318	30.95
645.508	31.06
645.697	31.29
645.887	31.66
646.076	31.75
646.266	31.82
646.456	31.8
646.645	31.94
646.835	31.89
647.024	31.93
647.214	32.09
647.403	32.39
647.593	32.39
647.782	32.5
647.972	32.36
648.161	32.5
648.351	32.71
648.54	32.67
648.73	32.67
648.919	32.78
649.108	32.76
649.298	32.77
649.487	32.81
649.677	32.88
649.866	32.91
650.055	33.07
650.244	32.79
650.434	32.79
650.623	33.04
650.812	32.99
651.002	32.94
651.191	32.87
651.38	32.6
651.569	32.51
651.758	32.56
651.947	32.47
652.137	32.4
652.326	32.6
652.515	32.34
652.704	32.19
652.893	32.28
653.082	32.42
653.271	32.6
653.46	32.76
653.649	32.55
653.838	32.38
654.027	32.59
654.216	32.34
654.405	32.15
654.594	32.13
654.783	32.04
654.972	32.07
655.161	32.03
655.35	32.08
655.539	32.02
655.728	31.96
655.916	32
656.105	31.68
656.294	31.79
656.483	31.77
656.672	31.91
656.86	31.96
657.049	31.58
657.238	31.53
657.427	31.47
657.615	31.5
657.804	31.63
657.993	31.67
658.181	31.6
658.37	31.6
658.559	31.36
658.747	31.39
658.936	31.24
659.125	31.47
659.313	31.49
659.502	31.32
659.69	31.4
659.879	31.34
660.067	31.3
660.256	31.49
660.444	31.49
660.633	31.87
660.821	31.86
661.01	32.13
661.198	32.15
661.387	32.26
661.575	32.44
661.763	32.66
661.952	32.59
662.14	32.51
662.328	32.41
662.517	32.44
662.705	32.18
662.893	32.03
663.082	31.86
663.27	31.82
663.458	31.91
663.646	32
663.834	31.64
664.023	31.8
664.211	32.06
664.399	32.08
664.587	32.27
664.775	32.22
664.963	32.43
665.152	32.32
665.34	32.3
665.528	32.04
665.716	31.98
665.904	32.06
666.092	32.02
666.28	31.66
666.468	31.8
666.656	31.49
666.844	31.8
667.032	31.75
667.22	31.83
667.408	32.2
667.596	32.18
667.784	31.93
667.971	31.99
668.159	32.11
668.347	32.48
668.535	32.24
668.723	32.11
668.911	32.04
669.098	31.99
669.286	32.08
669.474	31.71
669.662	31.76
669.849	32.09
670.037	31.94
670.225	31.97
670.413	31.74
670.6	31.78
670.788	31.91
670.976	31.92
671.163	32.08
671.351	32.03
671.538	31.98
671.726	32.01
671.913	31.82
672.101	31.93
672.289	31.9
672.476	31.98
672.664	32.14
672.851	32.24
673.039	32.3
673.226	32.23
673.413	32.23
673.601	32.4
673.788	32.47
673.976	32.51
674.163	32.94
674.35	32.84
674.538	32.73
674.725	32.5
674.912	32.65
675.1	32.58
675.287	32.61
675.474	32.18
675.662	32.07
675.849	32.03
676.036	32.06
676.223	31.62
676.411	31.85
676.598	32.04
676.785	32.05
676.972	32.09
677.159	32
677.346	31.86
677.533	32.03
677.721	31.9
677.908	31.88
678.095	31.91
678.282	32.04
678.469	31.99
678.656	31.93
678.843	31.92
679.03	31.81
679.217	31.92
679.404	32.15
679.591	32.23
679.778	32.3
679.964	32.34
680.151	32.32
680.338	32.32
680.525	32.16
680.712	31.94
680.899	32.14
681.086	32.27
681.272	32.24
681.459	31.96
681.646	32.19
681.833	32.22
682.02	32.17
682.206	32.09
682.393	32.02
682.58	32.02
682.766	32.18
682.953	32.14
683.14	32.03
683.326	31.98
683.513	32.07
683.7	32.04
683.886	32.12
684.073	31.99
684.259	32.15
684.446	32.16
684.632	32.42
684.819	32.63
685.005	32.81
685.192	33.15
685.378	33.26
685.565	33.63
685.751	33.65
685.938	34.05
686.124	34.41
686.31	34.5
686.497	34.74
686.683	34.78
686.87	34.68
687.056	34.53
687.242	34
687.429	34.06
687.615	33.87
687.801	33.9
687.987	33.66
688.174	33.55
688.36	33.62
688.546	33.52
688.732	33.38
688.918	33.33
689.105	33.19
689.291	33.4
689.477	33.3
689.663	33.38
689.849	33.16
690.035	32.81
690.221	32.99
690.407	32.76
690.593	32.88
690.779	32.7
690.965	32.71
691.151	32.68
691.337	32.89
691.523	33.02
691.709	32.98
691.895	32.99
692.081	33.19
692.267	32.83
692.453	32.95
692.639	32.61
692.825	32.74
693.011	32.87
693.196	33.04
693.382	33.08
693.568	32.96
693.754	32.73
693.94	32.77
694.125	33.17
694.311	33.16
694.497	33.03
694.682	33.14
694.868	33.27
695.054	33.1
695.239	33.23
695.425	32.72
695.611	32.78
695.796	32.85
695.982	32.68
696.168	32.57
696.353	32.78
696.539	32.45
696.724	32.38
696.91	32.19
697.095	32.09
697.281	31.91
697.466	32.01
697.652	32.03
697.837	31.76
698.023	31.89
698.208	31.72
698.393	31.62
698.579	31.77
698.764	31.62
698.949	31.57
699.135	31.75
699.32	31.66
699.505	31.81
699.691	31.82
699.876	32.38
700.061	32.34
700.246	32.33
700.432	32.62
700.617	32.91
700.802	33.06
700.987	33.24
701.172	33.05
701.358	33.43
701.543	33.39
701.728	33.48
701.913	33.04
702.098	33.02
702.283	32.94
702.468	32.85
702.653	32.71
702.838	32.65
703.023	32.93
703.208	33.4
703.393	33.59
703.578	33.69
703.763	33.58
703.948	34.31
704.133	34.85
704.318	35.47
704.503	35.55
704.688	36.28
704.873	36.91
705.057	37.26
705.242	37.34
705.427	37.2
705.612	37.8
705.797	38.58
705.981	38.65
706.166	38.52
706.351	38.67
706.536	39.2
706.72	39.19
706.905	39.67
707.09	39.96
707.274	40.2
707.459	40.14
707.644	39.88
707.828	39.58
708.013	39.68
708.197	39.69
708.382	39.62
708.567	39.26
708.751	38.75
708.936	37.94
709.12	37.44
709.305	37.69
709.489	38.09
709.673	37.82
709.858	37.89
710.042	37.62
710.227	37.92
710.411	37.49
710.596	37.27
710.78	37.42
710.964	37.83
711.149	37.91
711.333	37.54
711.517	37.26
711.702	37.5
711.886	37.12
712.07	37.07
712.254	36.69
712.438	37.04
712.623	37.12
712.807	36.88
712.991	36.45
713.175	36.06
713.359	35.53
713.544	35.38
713.728	35.03
713.912	34.81
714.096	34.47
714.28	34.34
714.464	33.55
714.648	33.05
714.832	32.44
715.016	32.39
715.2	32.46
715.384	32.41
715.568	32.28
715.752	32.04
715.936	32.1
716.12	32.06
716.304	31.81
716.488	32.26
716.671	32.62
716.855	33.38
717.039	33.73
717.223	33.29
717.407	33.21
717.59	32.76
717.774	33.16
717.958	33.14
718.142	32.96
718.325	33.12
718.509	32.82
718.693	32.41
718.877	31.94
719.06	31.75
719.244	32.05
719.428	32.45
719.611	32.8
719.795	32.75
719.978	32.88
720.162	33.24
720.345	33.34
720.529	33.31
720.713	33.07
720.896	33.16
721.08	33.11
721.263	33.24
721.446	33.43
721.63	33.51
721.813	33.55
721.997	33.16
722.18	32.98
722.364	32.75
722.547	33.16
722.73	33.6
722.914	33.88
723.097	33.29
723.28	33.08
723.464	32.97
723.647	33.42
723.83	32.77
724.013	33.07
724.197	32.53
724.38	32.48
724.563	32.72
724.746	32.96
724.929	32.56
725.112	33.19
725.296	33.48
725.479	33.28
725.662	32.82
725.845	33.02
726.028	33.19
726.211	33.74
726.394	34.21
726.577	33.54
726.76	33.25
726.943	33.65
727.126	32.93
727.309	32.56
727.492	32.33
727.675	32.61
727.858	32.42
728.041	32.24
728.224	32.29
728.407	32.09
728.589	32.65
728.772	33.05
728.955	32.77
729.138	33.03
729.321	33.04
729.503	33.27
729.686	32.93
729.869	32.91
730.052	32.98
730.234	32.83
730.417	32.16
730.6	31.58
730.782	31.07
730.965	31.25
731.148	31.73
731.33	31.69
731.513	31.18
731.695	31.16
731.878	31.32
732.061	31.29
732.243	31.16
732.426	31.58
732.608	31.44
732.791	31.51
732.973	31.24
733.156	30.97
733.338	30.96
733.52	31.19
733.703	31.45
733.885	31.45
734.068	31.5
734.25	31.89
734.432	32.13
734.615	32.85
734.797	32.78
734.979	33
735.162	32.94
735.344	33.21
735.526	33.35
735.708	33.15
735.891	33.23
736.073	33.06
736.255	32.64
736.437	31.98
736.619	31.43
736.802	32.46
736.984	32.24
737.166	32.39
737.348	32.12
737.53	32.39
737.712	32.5
737.894	32.02
738.076	32.29
738.258	32.43
738.44	33
738.622	33.26
738.804	32.48
738.986	32.61
739.168	32.53
739.35	32.93
739.532	32.63
739.714	33.02
739.896	33.66
740.078	33.31
740.259	33.43
740.441	33.49
740.623	33.62
740.805	33.99
740.987	33.79
741.168	33.69
741.35	33.53
741.532	33.66
741.714	33.44
741.895	33.28
742.077	33.64
742.259	33.63
742.44	33.4
742.622	33.66
742.804	33.86
742.985	33.62
743.167	34.25
743.348	34.58
743.53	34.11
743.711	34.04
743.893	34.05
744.075	34.28
744.256	34.1
744.438	34.01
744.619	33.57
744.8	32.91
744.982	33.91
745.163	32.56
745.345	32.61
745.526	33.64
745.707	33.59
745.889	33.35
746.07	32.88
746.252	32.71
746.433	33.26
746.614	33.32
746.795	32.68
746.977	32.23
747.158	33.52
747.339	33.02
747.52	31.99
747.702	31.75
747.883	32.13
748.064	31.77
748.245	31.7
748.426	31.49
748.607	31.56
748.788	32.56
748.97	32.39
749.151	31.68
749.332	31.59
749.513	32.36
749.694	32.67
749.875	32.75
750.056	33.5
750.237	33.71
750.418	34.07
750.599	33.34
750.78	33.14
750.96	33.29
751.141	33.14
751.322	32.91
751.503	32.44
751.684	31.87
751.865	31.27
752.046	30.52
752.226	31.26
752.407	30.57
752.588	30.98
752.769	30.26
752.949	29.75
753.13	30.25
753.311	30.4
753.492	30.56
753.672	30.94
753.853	31.35
754.034	31.59
754.214	31.28
754.395	31.41
754.575	31.02
754.756	31.51
754.937	31.42
755.117	31.51
755.298	31.97
755.478	31.96
755.659	32.14
755.839	32.51
756.02	32.46
756.2	31.67
756.381	31.79
756.561	31.85
756.741	32.01
756.922	32.11
757.102	31.77
757.283	31.68
757.463	31.45
757.643	31.78
757.823	31.34
758.004	31.13
758.184	31.63
758.364	31.64
758.545	32.45
758.725	32.39
758.905	32.95
759.085	32.83
759.265	32.55
759.446	33.11
759.626	33.08
759.806	32.92
759.986	33.35
760.166	33.08
760.346	32.86
760.526	32.94
760.706	32.71
760.886	32.38
761.066	32.94
761.246	33.51
761.426	33.7
761.606	33.3
761.786	33.36
761.966	32.71
762.146	32.94
762.326	32.91
762.506	32.33
762.686	32.08
762.866	32.06
763.046	31.8
763.225	31.42
763.405	31.14
763.585	30.99
763.765	30.87
763.945	31.09
764.124	31.17
764.304	31.46
764.484	31.86
764.664	32.4
764.843	32.48
765.023	32.33
765.203	32.61
765.382	32.05
765.562	32.5
765.741	32.88
765.921	33.16
766.101	32.88
766.28	32.83
766.46	32.42
766.639	32.43
766.819	32.22
766.998	32.55
767.178	31.7
767.357	32.75
767.537	32.34
767.716	32.74
767.896	32.61
768.075	32.6
768.254	31.83
768.434	32.26
768.613	32.01
768.792	32.34
768.972	32.16
769.151	33.01
769.33	32.42
769.51	33.6
769.689	33.25
769.868	33.97
770.047	34.37
770.226	35.41
770.406	34.78
770.585	34.76
770.764	34.23
770.943	34.44
771.122	34.01
771.301	33.99
771.48	32.4
771.66	32.28
771.839	31.46
772.018	30.88
772.197	29.52
772.376	30.35
772.555	30.57
772.734	30.91
772.913	31.02
773.092	30.89
773.271	31.39
773.449	32.54
773.628	32.15
773.807	32.6
773.986	32.94
774.165	34.16
774.344	33.87
774.523	33.71
774.701	34.33
774.88	34.09
775.059	34.43
775.238	34.25
775.417	32.38
775.595	33.15
775.774	33.12
775.953	33.46
776.131	33.35
776.31	32.61
776.489	32.58
776.667	32.93
776.846	32.25
777.025	31.89
777.203	30.65
777.382	31.36
777.56	30.24
777.739	30.13
777.917	29.43
778.096	29.62
778.274	29.74
778.453	29.64
778.631	28.82
778.81	28.88
778.988	30.04
779.166	30.33
779.345	31.4
779.523	32.26
779.702	31.69
779.88	32.36
780.058	32.16
780.237	32.68
780.415	32.42
780.593	32.76
780.771	33.3
780.95	32.65
781.128	33.4
781.306	32.89
781.484	32.15
781.662	32.24
781.841	31.83
782.019	31.45
782.197	31.83
782.375	32.07
782.553	33
782.731	33.19
782.909	33.27
783.087	32.68
783.265	32.22
783.443	33.24
783.621	33.28
783.799	33.45
783.977	32.89
784.155	32.48
784.333	32.2
784.511	32.01
784.689	31.95
784.867	32.29
785.045	33.09
785.223	33.72
785.4	32.75
785.578	32.59
785.756	32.49
785.934	33.58
786.112	34.71
786.289	35.16
786.467	32.96
786.645	33.55
786.823	32.58
787	33.51
787.178	33.1
787.356	33.2
787.533	33.26
787.711	33.19
787.889	32.68
788.066	31.85
788.244	31.5
788.421	32.17
788.599	32.05
788.776	33.13
788.954	32.06
789.131	32.95
789.309	33.12
789.486	33.16
789.664	33.45
789.841	33.48
790.019	32.98
790.196	33.47
790.373	33.94
790.551	33.11
790.728	33.07
790.906	33.23
791.083	31.49
791.26	31.41
791.437	32.03
791.615	31.53
791.792	31.46
791.969	32.41
792.146	31.75
792.324	32.81
792.501	33.25
792.678	32.8
792.855	32.42
793.032	33.2
793.209	33.97
793.387	34.33
793.564	34.7
793.741	35.2
793.918	34.36
794.095	35.16
794.272	34.17
794.449	33.64
794.626	32.73
794.803	33.03
794.98	33.25
795.157	32.71
795.334	32.27
795.511	32.21
795.688	31.53
795.864	31.57
796.041	31.41
796.218	30.43
796.395	30.38
796.572	30.09
796.749	29.35
796.925	29.11
797.102	30.18
797.279	31.3
797.456	30.89
797.632	31.48
797.809	32.64
797.986	33.26
798.162	33.41
798.339	33.63
798.516	34.38
798.692	35.26
798.869	35.61
799.046	34.48
799.222	32.74
799.399	33.48
799.575	32.99
799.752	31.1
799.928	30.49
800.105	30.95
800.281	30.67
800.458	30.87
800.634	30.88
800.811	30.46
800.987	29.83
801.163	30.45
801.34	30.38
801.516	30.41
801.692	31.59
801.869	31.75
802.045	32.35
802.221	33.26
802.398	33.04
802.574	33.03
802.75	33.15
802.926	32.45
803.103	32.54
803.279	30.9
803.455	31.23
803.631	30.76
803.807	30.3
803.983	30.64
804.16	30.67
804.336	30.51
804.512	29.34
804.688	29.59
804.864	31.18
805.04	31.44
805.216	32.1
805.392	32.84
805.568	33.69
805.744	34.7
805.92	34.28
806.096	35.12
806.272	35.2
806.448	36.2
806.623	36.56
806.799	36.86
806.975	36.68
807.151	37.37
807.327	35.82
807.503	33.97
807.678	34.09
807.854	34.45
808.03	32.85
808.206	34.75
808.381	34.74
808.557	34.14
808.733	32.75
808.908	32.5
809.084	32.67
809.26	32.67
809.435	32.82
809.611	32.62
809.787	32.48
809.962	33.2
810.138	32.47
810.313	33.44
810.489	34.79
810.664	36.95
810.84	37.34
811.015	38.04
811.191	40.09
811.366	41.69
811.542	41.04
811.717	40.08
811.892	41.1
812.068	41.25
812.243	40.57
812.419	39.73
812.594	39.23
812.769	39.04
812.944	38.1
813.12	37.3
813.295	38.1
813.47	39.14
813.645	41.36
813.821	38.85
813.996	38.28
814.171	38.32
814.346	38.09
814.521	36.97
814.697	36.23
814.872	37.34
815.047	36.37
815.222	34.5
815.397	33.79
815.572	33.13
815.747	34.36
815.922	33.16
816.097	33.26
816.272	33.37
816.447	32.92
816.622	33.37
816.797	31.48
816.972	32.06
817.147	31.84
817.322	31.69
817.496	30.55
817.671	30.14
817.846	31.11
818.021	31.19
818.196	30.74
818.371	32.78
818.545	32.8
818.72	33.61
818.895	33.36
819.069	32.83
819.244	32.4
819.419	31.97
819.594	32.14
819.768	32.11
819.943	31.49
820.117	31.01
820.292	29.62
820.467	29.73
820.641	29.51
820.816	29.41
820.99	29.52
821.165	29.29
821.339	29.15
821.514	28.67
821.688	28.6
821.863	28.28
822.037	28.26
822.212	28.19
822.386	27.82
822.56	27.75
822.735	27.59
822.909	27.6
823.084	27.48
823.258	27.34
823.432	27.39
823.606	27.14
823.781	27.24
823.955	27.39
824.129	27.33
824.303	27.33
824.478	27.21
824.652	27.65
824.826	27.52
825	27.83
825.174	28.41
825.348	28.54
825.523	28.5
825.697	28.95
825.871	28.89
826.045	28.94
826.219	29.21
826.393	29.52
826.567	28.82
826.741	28.69
826.915	28.19
827.089	28.23
827.263	28.57
827.437	28.67
827.611	28.21
827.784	28.04
827.958	28.16
828.132	28.16
828.306	28.12
828.48	28.26
828.654	28.71
828.827	29.36
829.001	29.24
829.175	29.22
829.349	29.52
829.522	30.01
829.696	29.94
829.87	30.37
830.044	30.53
830.217	30.33
830.391	30.19
830.565	31.18
830.738	30.75
830.912	30.71
831.085	30.13
831.259	30.02
831.432	29.44
831.606	30.28
831.779	29.99
831.953	30.19
832.126	31.02
832.3	31.79
832.473	30.17
832.647	30.52
832.82	29.58
832.994	29.95
833.167	30.34
833.34	30.29
833.514	30.65
833.687	30.27
833.86	30.34
834.034	29.74
834.207	29.38
834.38	29.7
834.553	29.77
834.727	30.55
834.9	30.58
835.073	30.41
835.246	30.32
835.419	30.03
835.593	30.17
835.766	30.41
835.939	30.44
836.112	31.12
836.285	30.98
836.458	31.09
836.631	31.81
836.804	32.81
836.977	32.61
837.15	34.16
837.323	33.56
837.496	33.88
837.669	34.18
837.842	36.3
838.015	34.63
838.188	34.66
838.361	34.18
838.533	33.18
838.706	32.89
838.879	34.46
839.052	33.22
839.225	34.62
839.398	34.32
839.57	33.63
839.743	32.31
839.916	33.04
840.088	33.58
840.261	35.84
840.434	35.34
840.607	34.27
840.779	32.73
840.952	34.57
841.124	33.65
841.297	34.32
841.47	34.63
841.642	33.15
841.815	34.03
841.987	33.61
842.16	30.87
842.332	31.68
842.505	29.34
842.677	30.8
842.85	27.79
843.022	27.73
843.194	28.96
843.367	30.06
843.539	30.04
843.712	31.13
843.884	31.9
844.056	33.68
844.229	32.14
844.401	36.06
844.573	37.34
844.745	37.62
844.918	42.29
845.09	40.75
845.262	40.91
845.434	43.11
845.606	40.64
845.779	42.09
845.951	39.15
846.123	38.68
846.295	36.69
846.467	34.09
846.639	37.95
846.811	35.63
846.983	35.73
847.155	32.58
847.327	31.89
847.499	36.47
847.671	35.18
847.843	34.06
848.015	38.3
848.187	40.39
848.359	42.1
848.531	42.43
848.703	42.34
848.875	44.43
849.047	48.34
849.218	51.78
849.39	50.57
849.562	49.46
849.734	49.12
849.905	45.4
850.077	45.53
850.249	42.92
850.421	39.13
850.592	36.42
850.764	34.86
850.936	33.97
851.107	30.77
851.279	29.23
851.451	31.66
851.622	33.66
851.794	34.15
851.965	31.17
852.137	34.43
852.308	34.03
852.48	33.52
852.651	35.53
852.823	37.62
852.994	42.23
853.166	38.43
853.337	34.69
853.509	35.66
853.68	37.56
853.851	40.64
854.023	41.88
854.194	44.14
854.365	46.12
854.537	43.21
854.708	37.1
854.879	36
855.05	40.24
855.222	42
855.393	41.24
855.564	41.41
855.735	40.97
855.906	39
856.078	42.97
856.249	42.43
856.42	44.05
856.591	49.27
856.762	50.44
856.933	51.56
857.104	50.34
857.275	52.91
857.446	52.66
857.617	54.27
857.788	56.31
857.959	54.28
858.13	55.15
858.301	55.59
858.472	54.7
858.643	50.61
858.814	46.66
858.985	46.15
859.155	45.78
859.326	47.1
859.497	46.06
859.668	45.83
859.839	44.3
860.009	43.2
860.18	41.44
860.351	40.27
860.522	43.93
860.692	46.66
860.863	49.53
861.034	48.57
861.204	43.19
861.375	41.46
861.546	42.3
861.716	41.34
861.887	41.8
862.057	45.46
862.228	45.58
862.398	44.15
862.569	45.96
862.739	48.12
862.91	44.24
863.08	48.41
863.251	50.41
863.421	53.62
863.592	53.96
863.762	54.77
863.932	53.3
864.103	53.46
864.273	53.01
864.443	52.11
864.614	47.51
864.784	49.28
864.954	46.74
865.125	44.68
865.295	40.52
865.465	38.03
865.635	38.65
865.805	39.23
865.976	36.55
866.146	36.97
866.316	35.52
866.486	39.18
866.656	39.8
866.826	43.8
866.996	42.77
867.166	46.75
867.336	47.17
867.506	45.56
867.676	44.3
867.846	45.07
868.016	45.06
868.186	45.72
868.356	44.42
868.526	45.41
868.696	44.78
868.866	49.07
869.036	46.56
869.206	46.43
869.376	48.26
869.545	47.88
869.715	47.09
869.885	45.82
870.055	47.49
870.224	51.92
870.394	52.72
870.564	49.4
870.734	46.25
870.903	44.63
871.073	44.94
871.243	44.88
871.412	45.16
871.582	47.8
871.751	46.03
871.921	45.56
872.091	40.96
872.26	39.16
872.43	41.89
872.599	43.46
872.769	44.89
872.938	49.38
873.108	47.97
873.277	47.76
873.446	44.85
873.616	46.23
873.785	40.63
873.955	45.06
874.124	45.03
874.293	42.56
874.463	43.89
874.632	41.4
874.801	34.29
874.971	37.69
875.14	36.37
875.309	41.77
875.478	45.84
875.647	50.44
875.817	44.49
875.986	48.24
876.155	47.12
876.324	46.45
876.493	46.86
876.662	50.77
876.831	50.38
877	49.96
877.17	48.85
877.339	46.54
877.508	46.42
877.677	45.7
877.846	43.8
878.015	44.95
878.184	44.99
878.352	45.5
878.521	44.98
878.69	41.24
878.859	43.36
879.028	41.65
879.197	41.08
879.366	41.45
879.534	41.58
879.703	41.14
879.872	39.77
880.041	38.31
880.21	36.02
880.378	34.75
880.547	35.6
880.716	33.76
880.884	34.05
881.053	32.74
881.222	32.34
881.39	31.89
881.559	30.62
881.727	30.54
881.896	29.19
882.065	29.37
882.233	29.11
882.402	28.16
882.57	28.34
882.739	27.4
882.907	27.47
883.076	27.25
883.244	27.04
883.412	27.86
883.581	27.77
883.749	28.37
883.918	28.15
884.086	28.56
884.254	29.23
884.423	29.32
884.591	31.11
884.759	31.94
884.927	31.42
885.096	31.73
885.264	31.13
885.432	32.56
885.6	32.64
885.769	33.77
885.937	34.05
886.105	34.62
886.273	35.26
886.441	33.7
886.609	34.81
886.777	36.88
886.945	37.82
887.113	40.72
887.281	38.74
887.449	39.9
887.617	41.07
887.785	41.45
887.953	43.62
888.121	42.88
888.289	41
888.457	39.84
888.625	42.01
888.793	40.96
888.961	38.57
889.129	38.46
889.296	36.46
889.464	35.19
889.632	33.21
889.8	27.62
889.967	30.46
890.135	33.73
