Data from 2938798__Reflection_03.txt Node
Date: Thu Mar 12 23:03:49 EDT 2015
User: robert
Spectrometer: USB4E03002
Autoset integration time: false
Trigger mode: 4
Integration Time (sec): 1.000000E-1
Scans to average: 10
Electric dark correction enabled: false
Nonlinearity correction enabled: false
Boxcar width: 5
Stray light correction enabled: false
XAxis mode: Wavelengths
Stop averaging: false
Number of Pixels in Spectrum: 3648
>>>>>Begin Spectral Data<<<<<
177.575	879.44
177.794	2555.56
178.014	794.23
178.233	897.33
178.452	450.53
178.672	441.16
178.891	511.24
179.11	456.46
179.33	457.78
179.549	475.52
179.768	375.44
179.987	319.7
180.207	309.42
180.426	323.31
180.645	373.48
180.864	355.71
181.084	416.73
181.303	281.37
181.522	253.28
181.741	193.08
181.96	208.47
182.179	215.69
182.398	234.7
182.618	212.46
182.837	220.22
183.056	217.86
183.275	217.95
183.494	194.75
183.713	202.02
183.932	204.81
184.151	239.82
184.37	197.54
184.589	200.87
184.808	191.29
185.027	191.86
185.246	189.43
185.465	164.73
185.684	182.56
185.903	166.95
186.122	167.41
186.341	184.3
186.56	179.05
186.779	183.62
186.998	196.25
187.216	186.31
187.435	177.03
187.654	169.25
187.873	181.32
188.092	187.08
188.311	227.9
188.53	223.64
188.748	202.2
188.967	213.32
189.186	240.77
189.405	225.45
189.623	226.62
189.842	230.17
190.061	213.01
190.28	200.64
190.498	182.36
190.717	162.63
190.936	172.2
191.154	162.73
191.373	147.93
191.592	136.53
191.81	136.74
192.029	137.38
192.248	133.54
192.466	134.58
192.685	136.96
192.904	153.81
193.122	161.04
193.341	163.71
193.559	194.32
193.778	209.93
193.996	208.57
194.215	198.78
194.433	233.14
194.652	282.67
194.87	320.58
195.089	342.98
195.307	288.43
195.526	243.32
195.744	248.42
195.963	225.95
196.181	247.4
196.399	247.23
196.618	233.15
196.836	212.82
197.055	191.69
197.273	186.79
197.491	176.03
197.71	169.95
197.928	190.34
198.146	176.29
198.365	160.43
198.583	162.79
198.801	164.77
199.019	186.81
199.238	157.92
199.456	164.16
199.674	183.67
199.892	171.82
200.111	183.66
200.329	191.38
200.547	218.61
200.765	233.57
200.983	193.84
201.202	189.27
201.42	173.87
201.638	202.42
201.856	200.6
202.074	187.6
202.292	189.36
202.51	165.25
202.728	173.07
202.946	152.39
203.165	164.36
203.383	194.37
203.601	207.82
203.819	219.43
204.037	222.41
204.255	232.57
204.473	209.92
204.691	213.11
204.909	216.24
205.127	196.49
205.345	201.17
205.562	160.63
205.78	152.22
205.998	161.49
206.216	153.18
206.434	156.23
206.652	146.11
206.87	146.67
207.088	140.16
207.306	143.75
207.523	137.24
207.741	134.43
207.959	157.72
208.177	158.75
208.395	134.82
208.612	136.92
208.83	129.25
209.048	124.48
209.266	129.51
209.483	144.72
209.701	143.08
209.919	145.89
210.136	146.02
210.354	139.1
210.572	129.93
210.79	130.61
211.007	132.78
211.225	136.38
211.442	133.25
211.66	126.27
211.878	114.68
212.095	114.55
212.313	109.42
212.53	120.85
212.748	126.66
212.966	133.28
213.183	136.7
213.401	143.25
213.618	147.18
213.836	152.93
214.053	164.92
214.271	177.18
214.488	182.26
214.705	183.31
214.923	178.66
215.14	177.65
215.358	177.74
215.575	197.22
215.793	183.16
216.01	165.83
216.227	160.2
216.445	154.37
216.662	168.68
216.879	160.19
217.097	173.62
217.314	156.51
217.531	148.74
217.749	148.92
217.966	139.53
218.183	131.97
218.4	137.11
218.618	139.85
218.835	143.02
219.052	131.83
219.269	134.14
219.487	125.67
219.704	122.67
219.921	122.76
220.138	118.47
220.355	113.28
220.572	113.42
220.79	108.89
221.007	106.83
221.224	100.63
221.441	96.07
221.658	88.03
221.875	82.78
222.092	81.94
222.309	78.78
222.526	74.74
222.743	72.49
222.96	74.53
223.177	72.53
223.394	70.16
223.611	74.69
223.828	74.35
224.045	73.8
224.262	75.61
224.479	72.23
224.696	70.59
224.913	71.16
225.13	68.74
225.347	61.43
225.564	58.13
225.781	55.77
225.997	49.33
226.214	44.96
226.431	42.51
226.648	35.96
226.865	32.7
227.082	29.3
227.298	25.11
227.515	21.94
227.732	20.92
227.949	19.27
228.165	17.42
228.382	16.43
228.599	15.26
228.816	14.44
229.032	13.97
229.249	13.76
229.466	12.77
229.682	12.84
229.899	13.49
230.116	12.74
230.332	13.14
230.549	13.39
230.765	13.64
230.982	15.17
231.199	15.53
231.415	17.37
231.632	17.66
231.848	18.21
232.065	17.76
232.281	18.13
232.498	19.5
232.714	19.75
232.931	21.31
233.147	20.45
233.364	19.67
233.58	19.79
233.797	19.6
234.013	20.7
234.23	21.59
234.446	23.06
234.662	22.47
234.879	22.87
235.095	22.82
235.312	21.61
235.528	24.52
235.744	25.89
235.961	25.77
236.177	25.42
236.393	24.66
236.61	26.06
236.826	26.44
237.042	27.38
237.258	27.5
237.475	27.41
237.691	28.32
237.907	26.66
238.123	25.03
238.339	24.43
238.556	24.72
238.772	24.35
238.988	22.85
239.204	22.1
239.42	21.81
239.636	21.06
239.853	20.16
240.069	19.34
240.285	18.3
240.501	18.01
240.717	17.45
240.933	15.68
241.149	14.69
241.365	14.03
241.581	13.61
241.797	13.14
242.013	12.78
242.229	12.63
242.445	12.3
242.661	12.18
242.877	12.09
243.093	12.58
243.309	13.37
243.525	13.11
243.741	13.32
243.957	13.23
244.173	12.75
244.388	13.11
244.604	13.29
244.82	13.43
245.036	12.89
245.252	12.6
245.468	11.42
245.683	10.39
245.899	11.02
246.115	10.67
246.331	10.42
246.547	10.24
246.762	9.46
246.978	8.98
247.194	8.7
247.409	8.76
247.625	8.62
247.841	8.71
248.057	8.65
248.272	8.4
248.488	8.3
248.703	8.52
248.919	8.48
249.135	9.31
249.35	10.17
249.566	10.74
249.782	11.15
249.997	11.86
250.213	12.06
250.428	12.88
250.644	13.07
250.859	12.96
251.075	12.49
251.29	12.83
251.506	11.99
251.721	11.23
251.937	10.7
252.152	10.18
252.368	9.55
252.583	10.23
252.798	9.87
253.014	9.84
253.229	10.59
253.445	11.21
253.66	11.48
253.875	11.16
254.091	11.51
254.306	12.6
254.521	13.53
254.737	14.2
254.952	13.33
255.167	14.4
255.383	14.69
255.598	14.57
255.813	13.86
256.028	13
256.244	13.6
256.459	13.36
256.674	12.66
256.889	12.14
257.104	11.75
257.32	12.47
257.535	11.77
257.75	11.66
257.965	11.02
258.18	10.3
258.395	10.06
258.61	9.45
258.826	8.86
259.041	8.04
259.256	7.63
259.471	7.35
259.686	6.78
259.901	6.73
260.116	6.19
260.331	5.99
260.546	6.08
260.761	6.34
260.976	6.41
261.191	6.53
261.406	6.89
261.621	7.09
261.836	7.52
262.05	7.92
262.265	7.9
262.48	8.32
262.695	8.62
262.91	9.03
263.125	9.05
263.34	9.45
263.555	10.12
263.769	10.45
263.984	10.09
264.199	10.07
264.414	9.96
264.629	10.45
264.843	11.4
265.058	10.84
265.273	10.18
265.488	10.08
265.702	10
265.917	9.92
266.132	10.21
266.346	10.65
266.561	10.46
266.776	10.73
266.99	10.45
267.205	10.03
267.42	9.98
267.634	10.23
267.849	9.98
268.063	9.8
268.278	9.2
268.492	8.85
268.707	9.04
268.922	9.04
269.136	8.8
269.351	8.51
269.565	8.64
269.78	8.81
269.994	8.86
270.209	8.93
270.423	8.66
270.637	8.69
270.852	8.42
271.066	8.23
271.281	8.19
271.495	7.98
271.709	8.09
271.924	7.75
272.138	7.83
272.353	7.72
272.567	7.69
272.781	7.83
272.996	7.75
273.21	7.96
273.424	7.94
273.638	8.01
273.853	8.32
274.067	8.38
274.281	8.77
274.495	8.73
274.71	8.86
274.924	9.01
275.138	8.92
275.352	8.88
275.566	8.85
275.781	9.01
275.995	8.79
276.209	8.7
276.423	8.87
276.637	9.04
276.851	9.21
277.065	9.38
277.279	9.41
277.493	9.75
277.707	9.98
277.921	10.13
278.135	10.08
278.349	10.06
278.563	10.06
278.777	10.02
278.991	9.87
279.205	9.94
279.419	9.44
279.633	9.39
279.847	9.29
280.061	9.23
280.275	8.97
280.489	8.78
280.703	8.59
280.917	8.34
281.131	8.16
281.344	7.64
281.558	7.26
281.772	7.04
281.986	6.49
282.2	6.23
282.414	6.05
282.627	5.88
282.841	5.98
283.055	6.61
283.269	6.66
283.482	7.01
283.696	7.18
283.91	7.3
284.123	7.66
284.337	8.03
284.551	7.87
284.764	8.06
284.978	8.2
285.192	7.96
285.405	7.59
285.619	7.59
285.833	7.23
286.046	7.18
286.26	7.35
286.473	7.44
286.687	7.15
286.9	7.46
287.114	7.42
287.327	7.56
287.541	7.56
287.754	7.79
287.968	8.02
288.181	8.05
288.395	8.23
288.608	8.32
288.822	8.31
289.035	8.25
289.248	8.25
289.462	8.29
289.675	7.91
289.889	7.93
290.102	7.48
290.315	7.38
290.529	7.63
290.742	7.55
290.955	7.27
291.169	7.27
291.382	7.81
291.595	8.08
291.808	8.46
292.022	8.94
292.235	9.29
292.448	9.56
292.661	9.33
292.875	9.41
293.088	9.7
293.301	10.01
293.514	9.62
293.727	9.47
293.94	9.26
294.153	8.69
294.367	8.44
294.58	7.69
294.793	7.88
295.006	8.26
295.219	7.93
295.432	7.66
295.645	7.55
295.858	7.71
296.071	7.44
296.284	7.28
296.497	7.23
296.71	7.41
296.923	7.93
297.136	7.61
297.349	7.47
297.562	7.63
297.775	7.76
297.988	7.72
298.201	7.95
298.414	8.18
298.626	8.27
298.839	8.63
299.052	8.73
299.265	8.69
299.478	8.99
299.691	8.99
299.903	8.81
300.116	8.58
300.329	8.9
300.542	8.61
300.755	8.68
300.967	8.91
301.18	8.78
301.393	8.86
301.605	8.94
301.818	9.22
302.031	9.54
302.243	9.91
302.456	10.69
302.669	10.51
302.881	10.78
303.094	10.55
303.307	10.62
303.519	10.79
303.732	10.47
303.944	10.64
304.157	10.88
304.37	10.69
304.582	10.82
304.795	10.35
305.007	10.43
305.22	10.49
305.432	10.75
305.645	10.68
305.857	10.35
306.069	10.55
306.282	10.41
306.494	10.11
306.707	10.11
306.919	10.33
307.132	10.55
307.344	10.4
307.556	10.06
307.769	10.2
307.981	10.22
308.193	10.24
308.406	10.01
308.618	9.99
308.83	9.79
309.043	9.82
309.255	9.45
309.467	9.16
309.679	9.4
309.892	9.46
310.104	9.06
310.316	9.08
310.528	9.36
310.74	9.38
310.953	9.22
311.165	9.45
311.377	9.43
311.589	9.6
311.801	9.45
312.013	9.4
312.225	9.37
312.437	10.06
312.649	10.2
312.862	10.15
313.074	10.54
313.286	11.28
313.498	10.95
313.71	11.29
313.922	11.19
314.134	11.53
314.346	11.35
314.558	11.95
314.77	11.78
314.982	11.73
315.193	11.82
315.405	11.69
315.617	11.39
315.829	11.84
316.041	11.81
316.253	11.6
316.465	12.02
316.677	12.51
316.888	12.14
317.1	12.04
317.312	12.36
317.524	12.38
317.736	12.2
317.947	11.99
318.159	12.26
318.371	12.38
318.583	12.58
318.794	12.37
319.006	12.43
319.218	12.96
319.43	13.03
319.641	13.15
319.853	13.59
320.064	14.11
320.276	14.21
320.488	14.31
320.699	14.58
320.911	14.59
321.123	14.62
321.334	14.63
321.546	14.66
321.757	14.76
321.969	14.33
322.18	13.9
322.392	14.01
322.603	14.25
322.815	14.33
323.026	13.79
323.238	14.09
323.449	14.27
323.661	13.97
323.872	14.08
324.083	14.16
324.295	14.4
324.506	14.52
324.718	14.69
324.929	14.76
325.14	14.66
325.352	15.07
325.563	15.36
325.774	15.68
325.986	16.15
326.197	16.17
326.408	16.92
326.62	17.18
326.831	17.7
327.042	17.82
327.253	18.44
327.464	18.88
327.676	19.3
327.887	19.61
328.098	19.97
328.309	20.4
328.52	20.41
328.732	20.05
328.943	20.44
329.154	20.6
329.365	21.24
329.576	21.23
329.787	21.57
329.998	21.99
330.209	22.2
330.42	22.23
330.631	22.22
330.842	22.77
331.053	23.45
331.264	23.62
331.475	23.94
331.686	24.08
331.897	24.53
332.108	24.48
332.319	24.61
332.53	25.39
332.741	25.53
332.952	26
333.163	26.3
333.374	26.29
333.585	26.51
333.795	26.97
334.006	27.13
334.217	27.14
334.428	27.55
334.639	27.29
334.849	26.77
335.06	26.87
335.271	26.78
335.482	26.99
335.692	27.01
335.903	27.11
336.114	26.8
336.325	26.77
336.535	26.85
336.746	26.84
336.957	26.89
337.167	27.27
337.378	27.68
337.589	27.81
337.799	27.73
338.01	27.96
338.22	27.87
338.431	27.82
338.642	27.6
338.852	27.48
339.063	27.14
339.273	27.18
339.484	26.99
339.694	26.73
339.905	26.58
340.115	26.53
340.326	26.32
340.536	26.41
340.746	26.43
340.957	26.48
341.167	26.39
341.378	26.84
341.588	27.2
341.799	27.12
342.009	26.66
342.219	26.87
342.43	26.81
342.64	26.83
342.85	26.9
343.061	26.99
343.271	27.16
343.481	27.21
343.691	26.81
343.902	26.86
344.112	26.77
344.322	27.21
344.532	26.84
344.743	27.09
344.953	26.49
345.163	26.32
345.373	26.33
345.583	25.92
345.793	25.8
346.004	25.78
346.214	25.66
346.424	25.75
346.634	25.81
346.844	26.18
347.054	25.95
347.264	26.58
347.474	26.5
347.684	26.2
347.894	26.73
348.104	26.7
348.314	26.89
348.524	26.55
348.734	26.57
348.944	26.53
349.154	26.03
349.364	25.86
349.574	25.6
349.784	25.5
349.994	25.73
350.204	25.24
350.413	25.39
350.623	25.29
350.833	25.31
351.043	25.31
351.253	25.09
351.463	25.49
351.672	25.46
351.882	25.39
352.092	25.37
352.302	25.26
352.511	25.67
352.721	25.54
352.931	25.5
353.141	25.49
353.35	25.25
353.56	25.25
353.77	25.16
353.979	24.98
354.189	25.21
354.399	25.23
354.608	25.17
354.818	24.83
355.027	24.63
355.237	24.67
355.447	24.56
355.656	24.62
355.866	24.63
356.075	24.49
356.285	24.63
356.494	24.38
356.704	24.17
356.913	24.19
357.123	24.36
357.332	24.29
357.542	23.89
357.751	23.96
357.96	23.92
358.17	23.71
358.379	23.63
358.589	23.37
358.798	23.34
359.007	23.54
359.217	23.39
359.426	22.98
359.635	23.05
359.845	23.11
360.054	22.96
360.263	22.74
360.472	22.71
360.682	22.58
360.891	22.68
361.1	22.65
361.309	22.47
361.519	22.44
361.728	22.44
361.937	22.43
362.146	22.39
362.355	22.51
362.564	22.56
362.774	22.61
362.983	22.54
363.192	22.56
363.401	22.32
363.61	22.11
363.819	22.14
364.028	22.16
364.237	21.95
364.446	21.98
364.655	21.61
364.864	21.64
365.073	21.7
365.282	21.84
365.491	21.9
365.7	22.22
365.909	22.46
366.118	22.42
366.327	22.71
366.536	22.87
366.745	22.97
366.954	23.07
367.162	23.04
367.371	22.83
367.58	22.95
367.789	23.05
367.998	22.96
368.207	23.13
368.415	23.21
368.624	23.12
368.833	23.27
369.042	23.17
369.25	23.42
369.459	23.37
369.668	23.53
369.877	23.32
370.085	23.17
370.294	22.94
370.503	22.8
370.711	22.76
370.92	22.45
371.129	22.38
371.337	22.44
371.546	22.37
371.754	22.45
371.963	22.32
372.171	22.09
372.38	22.02
372.589	22.35
372.797	22.31
373.006	22.17
373.214	22.36
373.423	22.03
373.631	22.06
373.84	21.88
374.048	21.74
374.256	21.8
374.465	22.07
374.673	21.8
374.882	21.7
375.09	21.69
375.298	21.53
375.507	21.69
375.715	21.93
375.923	22.01
376.132	21.84
376.34	21.64
376.548	21.41
376.757	21.29
376.965	21.53
377.173	21.39
377.381	21.24
377.59	21.12
377.798	20.76
378.006	20.59
378.214	20.39
378.423	20.48
378.631	20.73
378.839	20.8
379.047	20.84
379.255	20.66
379.463	20.73
379.671	20.8
379.879	20.99
380.088	21.24
380.296	21.42
380.504	21.45
380.712	21.39
380.92	21.19
381.128	21.3
381.336	21.33
381.544	21.31
381.752	21.24
381.96	21.1
382.168	21
382.376	20.7
382.584	20.48
382.791	20.32
382.999	20.42
383.207	20.47
383.415	20.28
383.623	20.42
383.831	20.55
384.039	20.61
384.247	20.75
384.454	20.9
384.662	20.85
384.87	20.99
385.078	20.89
385.285	20.8
385.493	20.93
385.701	21.07
385.909	20.67
386.116	20.54
386.324	20.64
386.532	20.62
386.739	20.56
386.947	20.61
387.155	20.59
387.362	20.75
387.57	20.84
387.778	20.86
387.985	20.88
388.193	21.12
388.4	21.02
388.608	21.03
388.816	20.91
389.023	20.79
389.231	20.92
389.438	20.8
389.646	20.66
389.853	20.55
390.061	20.45
390.268	20.46
390.475	20.3
390.683	20.38
390.89	20.18
391.098	20.2
391.305	20.31
391.512	20.24
391.72	20.33
391.927	20.14
392.135	20.18
392.342	20.1
392.549	19.94
392.756	19.99
392.964	19.94
393.171	20.08
393.378	20.06
393.586	20.03
393.793	19.91
394	19.73
394.207	19.84
394.414	19.79
394.622	19.75
394.829	19.96
395.036	20.01
395.243	20.27
395.45	20.21
395.657	20.21
395.864	20.18
396.072	20.39
396.279	20.64
396.486	20.83
396.693	20.98
396.9	20.99
397.107	20.77
397.314	20.67
397.521	20.52
397.728	20.39
397.935	20.59
398.142	20.68
398.349	20.58
398.556	20.46
398.763	20.47
398.97	20.36
399.177	20.4
399.383	20.42
399.59	20.37
399.797	20.43
400.004	20.44
400.211	20.3
400.418	20.23
400.625	20.29
400.831	20.27
401.038	20.21
401.245	20.14
401.452	20.35
401.658	20.31
401.865	20.4
402.072	20.36
402.279	20.5
402.485	20.44
402.692	20.32
402.899	20.21
403.105	20.27
403.312	20.2
403.519	20.29
403.725	20.02
403.932	20.09
404.138	20.04
404.345	19.94
404.552	19.82
404.758	19.9
404.965	19.97
405.171	20.01
405.378	20.04
405.584	20.2
405.791	20.07
405.997	20.2
406.204	20.19
406.41	20.35
406.617	20.48
406.823	20.51
407.029	20.55
407.236	20.53
407.442	20.45
407.649	20.3
407.855	20.17
408.061	20.36
408.268	20.2
408.474	20.32
408.68	20.13
408.887	19.91
409.093	19.92
409.299	19.82
409.505	19.82
409.712	19.87
409.918	19.87
410.124	19.85
410.33	19.69
410.537	19.55
410.743	19.41
410.949	19.53
411.155	19.83
411.361	19.7
411.567	19.7
411.773	19.57
411.98	19.57
412.186	19.62
412.392	19.62
412.598	19.6
412.804	19.85
413.01	19.75
413.216	19.73
413.422	19.47
413.628	19.54
413.834	19.62
414.04	19.76
414.246	19.73
414.452	19.79
414.658	19.97
414.864	20.09
415.07	20.03
415.275	20.24
415.481	20.13
415.687	20.12
415.893	20.18
416.099	20.26
416.305	20.27
416.511	20.22
416.716	20.16
416.922	19.97
417.128	19.86
417.334	19.89
417.539	19.78
417.745	19.77
417.951	19.81
418.157	19.78
418.362	19.59
418.568	19.49
418.774	19.49
418.979	19.42
419.185	19.43
419.391	19.4
419.596	19.36
419.802	19.23
420.008	19.21
420.213	18.63
420.419	18.59
420.624	18.63
420.83	18.63
421.035	18.67
421.241	18.68
421.446	18.64
421.652	18.6
421.857	18.46
422.063	18.53
422.268	18.44
422.474	18.93
422.679	18.87
422.885	18.79
423.09	18.85
423.295	18.83
423.501	18.86
423.706	18.87
423.911	18.93
424.117	19.04
424.322	18.99
424.527	19.04
424.733	19.06
424.938	19.09
425.143	19.18
425.349	19.18
425.554	19.09
425.759	19.04
425.964	19.04
426.169	19.11
426.375	19.09
426.58	19.14
426.785	19.17
426.99	19.16
427.195	19.18
427.4	19.17
427.605	19.16
427.811	19.29
428.016	19.38
428.221	19.39
428.426	19.31
428.631	19.48
428.836	19.6
429.041	19.76
429.246	19.73
429.451	19.62
429.656	19.65
429.861	19.64
430.066	19.77
430.271	19.64
430.476	19.68
430.681	19.71
430.886	19.62
431.09	19.59
431.295	19.39
431.5	19.45
431.705	19.44
431.91	19.41
432.115	19.37
432.32	19.32
432.524	19.42
432.729	19.37
432.934	19.29
433.139	19.26
433.343	19.18
433.548	19.24
433.753	19.18
433.958	19.25
434.162	19.24
434.367	19.27
434.572	19.18
434.776	19.08
434.981	19.12
435.186	19.17
435.39	19.26
435.595	19.33
435.799	19.3
436.004	19.35
436.209	19.41
436.413	19.4
436.618	19.39
436.822	19.28
437.027	19.3
437.231	19.32
437.436	19.32
437.64	19.29
437.845	19.27
438.049	19.37
438.253	19.35
438.458	19.35
438.662	19.45
438.867	19.55
439.071	19.71
439.275	19.71
439.48	19.63
439.684	19.61
439.888	19.6
440.093	19.56
440.297	19.48
440.501	19.43
440.706	19.42
440.91	19.32
441.114	19.18
441.318	19.15
441.523	19.15
441.727	19.23
441.931	19.24
442.135	19.2
442.339	19.28
442.543	19.3
442.748	19.4
442.952	19.48
443.156	19.47
443.36	19.55
443.564	19.52
443.768	19.56
443.972	19.48
444.176	19.55
444.38	19.52
444.584	19.42
444.788	19.38
444.992	19.26
445.196	19.2
445.4	19.24
445.604	19.26
445.808	19.21
446.012	19.14
446.216	19.13
446.42	19.05
446.624	18.98
446.828	19.04
447.032	19.06
447.235	19.13
447.439	19.09
447.643	19.08
447.847	19.11
448.051	19.08
448.254	19.1
448.458	19.15
448.662	19.2
448.866	19.31
449.069	19.16
449.273	19.22
449.477	19.27
449.681	19.3
449.884	19.35
450.088	19.27
450.292	19.35
450.495	19.4
450.699	19.45
450.902	19.45
451.106	19.47
451.31	19.66
451.513	19.57
451.717	19.47
451.92	19.61
452.124	19.51
452.327	19.51
452.531	19.53
452.734	19.57
452.938	19.56
453.141	19.53
453.345	19.46
453.548	19.34
453.752	19.39
453.955	19.49
454.158	19.35
454.362	19.38
454.565	19.44
454.769	19.39
454.972	19.29
455.175	19.27
455.379	19.25
455.582	19.4
455.785	19.4
455.988	19.39
456.192	19.35
456.395	19.38
456.598	19.4
456.801	19.4
457.005	19.4
457.208	19.49
457.411	19.45
457.614	19.37
457.817	19.15
458.021	19.14
458.224	19.17
458.427	19.04
458.63	19.02
458.833	18.97
459.036	18.96
459.239	19
459.442	19.03
459.645	19.03
459.848	19.03
460.051	19.04
460.254	19.07
460.457	19.07
460.66	19.14
460.863	19.16
461.066	19.15
461.269	19.09
461.472	19.07
461.675	19.04
461.878	18.96
462.081	19.03
462.284	19.15
462.486	19.18
462.689	19.2
462.892	19.22
463.095	19.28
463.298	19.39
463.5	19.58
463.703	19.6
463.906	19.57
464.109	19.7
464.311	19.76
464.514	19.77
464.717	19.78
464.92	19.74
465.122	19.76
465.325	19.76
465.528	19.73
465.73	19.68
465.933	19.77
466.135	19.73
466.338	19.63
466.541	19.59
466.743	19.61
466.946	19.64
467.148	19.6
467.351	19.66
467.553	19.68
467.756	19.6
467.958	19.56
468.161	19.42
468.363	19.41
468.566	19.5
468.768	19.53
468.971	19.56
469.173	19.45
469.375	19.44
469.578	19.45
469.78	19.41
469.983	19.53
470.185	19.49
470.387	19.46
470.59	19.61
470.792	19.64
470.994	19.6
471.196	19.62
471.399	19.66
471.601	19.64
471.803	19.46
472.005	19.45
472.208	19.45
472.41	19.51
472.612	19.52
472.814	19.42
473.016	19.37
473.218	19.38
473.421	19.37
473.623	19.37
473.825	19.41
474.027	19.52
474.229	19.58
474.431	19.62
474.633	19.66
474.835	19.77
475.037	19.73
475.239	19.84
475.441	19.81
475.643	19.76
475.845	19.72
476.047	19.8
476.249	19.86
476.451	19.86
476.653	19.88
476.855	19.9
477.057	19.81
477.258	19.86
477.46	19.81
477.662	19.82
477.864	19.8
478.066	19.87
478.268	19.83
478.469	19.7
478.671	19.72
478.873	19.63
479.075	19.51
479.276	19.55
479.478	19.53
479.68	19.47
479.882	19.45
480.083	19.54
480.285	19.49
480.487	19.5
480.688	19.54
480.89	19.39
481.091	19.3
481.293	19.3
481.495	19.17
481.696	19.15
481.898	19.08
482.099	18.99
482.301	18.95
482.502	18.95
482.704	18.9
482.905	18.84
483.107	18.81
483.308	18.82
483.51	18.76
483.711	18.78
483.913	18.76
484.114	18.76
484.315	18.75
484.517	18.71
484.718	18.7
484.92	18.7
485.121	18.7
485.322	18.72
485.524	18.73
485.725	18.77
485.926	18.74
486.127	18.75
486.329	18.76
486.53	18.81
486.731	18.84
486.932	18.78
487.134	18.75
487.335	18.8
487.536	18.79
487.737	18.79
487.938	18.77
488.139	18.81
488.341	18.82
488.542	18.87
488.743	18.87
488.944	18.85
489.145	18.89
489.346	18.92
489.547	18.89
489.748	18.94
489.949	18.98
490.15	19.01
490.351	19.03
490.552	19.04
490.753	18.98
490.954	19
491.155	19.02
491.356	19.08
491.557	19.04
491.758	19.07
491.959	19.04
492.159	19.08
492.36	19.06
492.561	19.07
492.762	19.07
492.963	19.13
493.164	19.13
493.364	19.14
493.565	19.17
493.766	19.23
493.967	19.21
494.167	19.28
494.368	19.24
494.569	19.29
494.769	19.3
494.97	19.3
495.171	19.29
495.371	19.4
495.572	19.49
495.773	19.48
495.973	19.6
496.174	19.65
496.375	19.65
496.575	19.64
496.776	19.72
496.976	19.71
497.177	19.77
497.377	19.76
497.578	19.7
497.778	19.69
497.979	19.77
498.179	19.83
498.38	19.8
498.58	19.83
498.78	19.88
498.981	19.85
499.181	19.87
499.382	19.89
499.582	19.94
499.782	19.94
499.983	19.92
500.183	19.86
500.383	19.86
500.584	19.97
500.784	20.01
500.984	20.03
501.184	20.19
501.385	20.26
501.585	20.27
501.785	20.29
501.985	20.37
502.185	20.4
502.386	20.4
502.586	20.39
502.786	20.39
502.986	20.35
503.186	20.36
503.386	20.21
503.586	20.24
503.786	20.25
503.987	20.25
504.187	20.21
504.387	20.26
504.587	20.35
504.787	20.38
504.987	20.33
505.187	20.36
505.387	20.43
505.587	20.54
505.786	20.54
505.986	20.56
506.186	20.64
506.386	20.73
506.586	20.67
506.786	20.67
506.986	20.63
507.186	20.73
507.386	20.81
507.585	20.77
507.785	20.79
507.985	20.83
508.185	20.89
508.384	20.91
508.584	20.92
508.784	21
508.984	21.05
509.183	21.12
509.383	21.05
509.583	21.04
509.782	21.1
509.982	21.13
510.182	21.15
510.381	21.15
510.581	21.16
510.781	21.26
510.98	21.26
511.18	21.28
511.379	21.32
511.579	21.39
511.778	21.46
511.978	21.48
512.177	21.45
512.377	21.5
512.576	21.49
512.776	21.56
512.975	21.5
513.175	21.52
513.374	21.48
513.573	21.51
513.773	21.64
513.972	21.62
514.172	21.64
514.371	21.71
514.57	21.76
514.77	21.84
514.969	21.8
515.168	21.84
515.367	21.83
515.567	21.93
515.766	22.01
515.965	21.93
516.164	22.01
516.364	22.06
516.563	22.07
516.762	22.1
516.961	22.1
517.16	22.26
517.359	22.32
517.559	22.43
517.758	22.48
517.957	22.48
518.156	22.58
518.355	22.54
518.554	22.6
518.753	22.64
518.952	22.59
519.151	22.67
519.35	22.6
519.549	22.6
519.748	22.61
519.947	22.67
520.146	22.7
520.345	22.68
520.544	22.75
520.743	22.77
520.942	22.83
521.141	22.88
521.339	22.94
521.538	22.93
521.737	23
521.936	23.01
522.135	22.89
522.333	22.91
522.532	22.94
522.731	22.99
522.93	22.91
523.129	22.93
523.327	23.07
523.526	23.14
523.725	23.32
523.923	23.32
524.122	23.4
524.321	23.49
524.519	23.45
524.718	23.47
524.917	23.49
525.115	23.58
525.314	23.62
525.512	23.62
525.711	23.59
525.909	23.54
526.108	23.57
526.306	23.59
526.505	23.61
526.703	23.58
526.902	23.63
527.1	23.64
527.299	23.59
527.497	23.58
527.696	23.53
527.894	23.54
528.092	23.55
528.291	23.52
528.489	23.51
528.688	23.51
528.886	23.54
529.084	23.53
529.283	23.57
529.481	23.62
529.679	23.66
529.877	23.73
530.076	23.76
530.274	23.78
530.472	23.83
530.67	23.83
530.869	23.91
531.067	23.99
531.265	23.97
531.463	23.99
531.661	24.03
531.859	24.05
532.057	24.06
532.255	24.04
532.454	24.07
532.652	24.13
532.85	24.23
533.048	24.18
533.246	24.22
533.444	24.26
533.642	24.26
533.84	24.28
534.038	24.34
534.236	24.38
534.434	24.48
534.632	24.48
534.83	24.52
535.027	24.52
535.225	24.61
535.423	24.55
535.621	24.57
535.819	24.55
536.017	24.58
536.215	24.59
536.412	24.55
536.61	24.51
536.808	24.55
537.006	24.53
537.203	24.53
537.401	24.56
537.599	24.64
537.797	24.64
537.994	24.71
538.192	24.72
538.39	24.8
538.587	24.88
538.785	25.03
538.983	25.12
539.18	25.21
539.378	25.25
539.575	25.33
539.773	25.35
539.97	25.43
540.168	25.41
540.366	25.4
540.563	25.38
540.761	25.4
540.958	25.35
541.155	25.3
541.353	25.26
541.55	25.24
541.748	25.19
541.945	25.2
542.143	25.19
542.34	25.24
542.537	25.29
542.735	25.3
542.932	25.31
543.129	25.32
543.327	25.37
543.524	25.5
543.721	25.56
543.919	25.72
544.116	25.72
544.313	25.83
544.51	25.92
544.708	25.96
544.905	25.96
545.102	26.07
545.299	26.12
545.496	26.22
545.693	26.18
545.891	26.2
546.088	26.15
546.285	26.24
546.482	26.23
546.679	26.19
546.876	26.19
547.073	26.24
547.27	26.17
547.467	26.23
547.664	26.15
547.861	26.1
548.058	26.18
548.255	26.24
548.452	26.23
548.649	26.2
548.846	26.27
549.043	26.32
549.24	26.34
549.437	26.38
549.633	26.35
549.83	26.44
550.027	26.6
550.224	26.55
550.421	26.48
550.618	26.53
550.814	26.52
551.011	26.45
551.208	26.32
551.405	26.29
551.601	26.17
551.798	26.11
551.995	26.03
552.191	25.97
552.388	25.9
552.585	25.86
552.781	25.81
552.978	25.84
553.175	25.82
553.371	25.88
553.568	25.84
553.764	25.92
553.961	26
554.157	26.07
554.354	25.99
554.55	26.05
554.747	26.1
554.943	26.22
555.14	26.27
555.336	26.4
555.533	26.44
555.729	26.46
555.926	26.5
556.122	26.56
556.318	26.49
556.515	26.63
556.711	26.63
556.907	26.62
557.104	26.59
557.3	26.58
557.496	26.47
557.693	26.49
557.889	26.58
558.085	26.58
558.281	26.55
558.478	26.64
558.674	26.68
558.87	26.69
559.066	26.7
559.262	26.65
559.459	26.61
559.655	26.64
559.851	26.68
560.047	26.58
560.243	26.6
560.439	26.52
560.635	26.48
560.831	26.32
561.027	26.44
561.223	26.52
561.419	26.49
561.615	26.63
561.811	26.72
562.007	26.62
562.203	26.61
562.399	26.56
562.595	26.55
562.791	26.56
562.987	26.66
563.183	26.55
563.379	26.54
563.575	26.54
563.771	26.59
563.966	26.5
564.162	26.55
564.358	26.68
564.554	26.67
564.75	26.6
564.945	26.64
565.141	26.71
565.337	26.77
565.533	26.69
565.728	26.66
565.924	26.58
566.12	26.56
566.315	26.56
566.511	26.52
566.707	26.55
566.902	26.71
567.098	26.74
567.293	26.71
567.489	26.71
567.684	26.79
567.88	26.82
568.076	26.79
568.271	26.92
568.467	26.93
568.662	27.02
568.858	27.09
569.053	27.1
569.248	27.1
569.444	27.14
569.639	27.17
569.835	27.1
570.03	27.07
570.225	27.1
570.421	27.06
570.616	27.09
570.812	27.08
571.007	27.11
571.202	27.1
571.397	27.11
571.593	27.14
571.788	27.17
571.983	27.16
572.178	27.22
572.374	27.26
572.569	27.2
572.764	27.18
572.959	27.17
573.154	27.08
573.35	27.01
573.545	26.97
573.74	26.9
573.935	26.76
574.13	26.76
574.325	26.82
574.52	26.83
574.715	26.87
574.91	26.91
575.105	26.94
575.3	26.96
575.495	27.06
575.69	27.1
575.885	27.19
576.08	27.4
576.275	27.49
576.47	27.48
576.665	27.54
576.86	27.72
577.055	27.8
577.25	27.86
577.444	27.99
577.639	28.12
577.834	28.17
578.029	28.28
578.224	28.22
578.418	28.36
578.613	28.36
578.808	28.21
579.003	28.12
579.197	28.08
579.392	28.07
579.587	27.98
579.781	27.9
579.976	27.92
580.171	27.74
580.365	27.73
580.56	27.67
580.755	27.76
580.949	27.96
581.144	28.14
581.338	28.31
581.533	28.22
581.727	28.26
581.922	28.25
582.116	28.39
582.311	28.54
582.505	28.63
582.7	28.73
582.894	28.75
583.089	28.76
583.283	28.61
583.478	28.53
583.672	28.67
583.866	28.75
584.061	28.73
584.255	28.73
584.449	28.66
584.644	28.85
584.838	28.79
585.032	28.8
585.226	28.76
585.421	28.78
585.615	28.64
585.809	28.71
586.003	28.66
586.198	28.69
586.392	28.8
586.586	28.92
586.78	28.6
586.974	28.56
587.168	28.57
587.363	28.67
587.557	28.66
587.751	28.75
587.945	28.7
588.139	28.91
588.333	28.92
588.527	28.76
588.721	28.64
588.915	28.82
589.109	28.78
589.303	28.94
589.497	28.93
589.691	28.96
589.885	29.07
590.079	29.09
590.273	28.95
590.466	29.07
590.66	29.15
590.854	29.18
591.048	29.34
591.242	29.4
591.436	29.25
591.629	29.23
591.823	29.35
592.017	29.27
592.211	29.33
592.404	29.33
592.598	29.39
592.792	29.36
592.986	29.47
593.179	29.25
593.373	29.33
593.567	29.37
593.76	29.34
593.954	29.16
594.147	29.27
594.341	29.19
594.535	29.26
594.728	29.16
594.922	29.14
595.115	29.07
595.309	29.04
595.502	29.04
595.696	29.04
595.889	29.07
596.083	29.14
596.276	29.16
596.47	29.06
596.663	28.97
596.856	28.95
597.05	28.9
597.243	28.94
597.437	29.03
597.63	29.01
597.823	29.02
598.017	29.1
598.21	29.23
598.403	29.16
598.596	29.3
598.79	29.4
598.983	29.47
599.176	29.62
599.369	29.57
599.563	29.64
599.756	29.74
599.949	29.79
600.142	29.8
600.335	29.85
600.528	29.93
600.722	30.05
600.915	30.02
601.108	30
601.301	30.01
601.494	30.1
601.687	30.1
601.88	29.97
602.073	30.01
602.266	29.82
602.459	29.73
602.652	29.75
602.845	29.71
603.038	29.73
603.231	29.83
603.424	29.73
603.617	29.76
603.809	29.74
604.002	29.82
604.195	29.68
604.388	29.86
604.581	29.88
604.774	29.76
604.966	29.7
605.159	29.72
605.352	29.74
605.545	29.79
605.737	29.77
605.93	29.84
606.123	29.9
606.316	30.02
606.508	30.05
606.701	30.15
606.894	30.45
607.086	30.7
607.279	30.89
607.471	30.81
607.664	31.01
607.857	31.17
608.049	31.24
608.242	31.35
608.434	31.73
608.627	31.99
608.819	32.24
609.012	32.51
609.204	32.86
609.397	33.24
609.589	33.71
609.782	34.2
609.974	34.89
610.166	35.58
610.359	36.16
610.551	36.55
610.743	36.91
610.936	37.3
611.128	37.6
611.32	37.86
611.513	37.89
611.705	38.12
611.897	38.12
612.09	37.87
612.282	37.45
612.474	37.22
612.666	36.99
612.858	36.74
613.051	36.53
613.243	36.2
613.435	35.89
613.627	35.62
613.819	35.37
614.011	35.31
614.203	34.99
614.395	35.03
614.588	35.02
614.78	34.84
614.972	34.66
615.164	34.38
615.356	34.13
615.548	33.93
615.74	34
615.932	33.93
616.124	33.59
616.315	33.5
616.507	33.3
616.699	32.98
616.891	32.9
617.083	32.87
617.275	32.74
617.467	32.84
617.659	32.81
617.85	32.76
618.042	32.6
618.234	32.66
618.426	32.71
618.618	32.62
618.809	32.66
619.001	32.4
619.193	32.4
619.384	32.49
619.576	32.46
619.768	32.51
619.959	32.39
620.151	32.52
620.343	32.5
620.534	32.42
620.726	32.46
620.917	32.48
621.109	32.71
621.301	32.64
621.492	32.57
621.684	32.57
621.875	32.58
622.067	32.69
622.258	32.53
622.45	32.43
622.641	32.54
622.832	32.53
623.024	32.69
623.215	32.74
623.407	32.67
623.598	32.67
623.789	32.91
623.981	32.94
624.172	33.16
624.363	33.21
624.555	33.42
624.746	33.44
624.937	33.48
625.129	33.33
625.32	33.24
625.511	33.46
625.702	33.72
625.893	33.59
626.085	33.49
626.276	33.37
626.467	33.39
626.658	33.34
626.849	33.32
627.04	33.34
627.231	33.29
627.422	33.38
627.614	33.3
627.805	33.05
627.996	33.19
628.187	33.25
628.378	33.33
628.569	33.54
628.76	33.55
628.951	33.61
629.142	33.56
629.332	33.8
629.523	33.93
629.714	33.95
629.905	34.21
630.096	34.13
630.287	34.36
630.478	34.31
630.669	34.33
630.859	34.21
631.05	34.19
631.241	34.28
631.432	34.05
631.623	33.94
631.813	34.01
632.004	33.93
632.195	33.99
632.385	33.77
632.576	33.73
632.767	33.65
632.957	33.67
633.148	33.79
633.339	33.66
633.529	33.76
633.72	33.68
633.91	33.63
634.101	33.5
634.292	33.43
634.482	33.48
634.673	33.53
634.863	33.4
635.054	33.56
635.244	33.6
635.435	33.65
635.625	33.53
635.815	33.5
636.006	33.43
636.196	33.57
636.387	33.7
636.577	33.65
636.767	33.58
636.958	33.47
637.148	33.54
637.338	33.48
637.529	33.64
637.719	33.89
637.909	34.04
638.099	34.14
638.29	34.07
638.48	33.97
638.67	34.05
638.86	34.18
639.05	34.41
639.241	34.3
639.431	34.2
639.621	34.25
639.811	34.22
640.001	34.31
640.191	34.45
640.381	34.53
640.571	34.57
640.761	34.61
640.951	34.61
641.141	34.58
641.331	34.64
641.521	34.58
641.711	34.59
641.901	34.61
642.091	34.56
642.281	34.7
642.471	34.75
642.661	34.83
642.851	35.02
643.041	35.07
643.231	35.28
643.42	35.43
643.61	35.64
643.8	35.46
643.99	35.4
644.18	35.27
644.369	34.99
644.559	35.11
644.749	35.05
644.939	34.86
645.128	34.94
645.318	34.92
645.508	34.76
645.697	34.62
645.887	34.68
646.076	34.68
646.266	34.89
646.456	35.06
646.645	35.18
646.835	35.2
647.024	35.14
647.214	35.03
647.403	34.89
647.593	34.88
647.782	35.09
647.972	35.27
648.161	35.48
648.351	35.41
648.54	35.17
648.73	35.04
648.919	35.18
649.108	35.25
649.298	35.5
649.487	35.56
649.677	35.78
649.866	35.83
650.055	35.91
650.244	35.85
650.434	36.07
650.623	36.31
650.812	36.36
651.002	36.22
651.191	36.36
651.38	36.4
651.569	36.68
651.758	36.49
651.947	36.31
652.137	36.23
652.326	36.14
652.515	36.07
652.704	36.02
652.893	36.23
653.082	36.17
653.271	36.23
653.46	36
653.649	35.92
653.838	35.96
654.027	36.17
654.216	36.26
654.405	36.41
654.594	36.39
654.783	36.5
654.972	36.31
655.161	36.49
655.35	36.53
655.539	36.55
655.728	36.43
655.916	36.74
656.105	36.65
656.294	36.84
656.483	36.78
656.672	36.73
656.86	36.79
657.049	36.83
657.238	36.81
657.427	36.67
657.615	36.77
657.804	36.62
657.993	36.38
658.181	36.32
658.37	36.22
658.559	36.32
658.747	36.4
658.936	36.4
659.125	36.01
659.313	36.14
659.502	36.13
659.69	35.96
659.879	36.07
660.067	36.24
660.256	36.3
660.444	36.21
660.633	36.13
660.821	36.14
661.01	36.02
661.198	36.16
661.387	35.95
661.575	36.02
661.763	36.06
661.952	36.39
662.14	36.29
662.328	36.39
662.517	36.49
662.705	36.5
662.893	36.5
663.082	36.7
663.27	36.94
663.458	37.13
663.646	37.36
663.834	37.72
664.023	37.35
664.211	37.5
664.399	37.36
664.587	37.21
664.775	37.46
664.963	37.46
665.152	37.44
665.34	37.91
665.528	38.03
665.716	38.03
665.904	38.06
666.092	38.29
666.28	38.27
666.468	38.52
666.656	38.93
666.844	38.88
667.032	38.75
667.22	38.92
667.408	38.8
667.596	38.57
667.784	38.37
667.971	38.25
668.159	38.01
668.347	38.15
668.535	38.28
668.723	37.81
668.911	37.7
669.098	37.95
669.286	37.78
669.474	37.47
669.662	37.73
669.849	37.94
670.037	37.97
670.225	38.09
670.413	38.04
670.6	37.94
670.788	38.38
670.976	38.46
671.163	38.46
671.351	38.66
671.538	38.98
671.726	38.96
671.913	38.86
672.101	38.92
672.289	38.97
672.476	38.91
672.664	39.04
672.851	38.99
673.039	38.89
673.226	38.8
673.413	38.84
673.601	38.69
673.788	38.69
673.976	38.88
674.163	38.75
674.35	39.09
674.538	39.37
674.725	39.22
674.912	39.19
675.1	39.38
675.287	39.5
675.474	39.23
675.662	39.51
675.849	39.55
676.036	39.7
676.223	39.96
676.411	39.52
676.598	39.14
676.785	39.3
676.972	39.32
677.159	39.31
677.346	39.37
677.533	39.64
677.721	39.4
677.908	39.38
678.095	39.16
678.282	39.06
678.469	39.1
678.656	39.28
678.843	39.14
679.03	38.86
679.217	38.94
679.404	39.07
679.591	39.09
679.778	39.14
679.964	39.29
680.151	39.26
680.338	39.16
680.525	39.39
680.712	39.4
680.899	39.46
681.086	39.74
681.272	39.62
681.459	39.56
681.646	39.49
681.833	39.71
682.02	39.56
682.206	39.83
682.393	40.11
682.58	40.11
682.766	39.94
682.953	40.06
683.14	40.18
683.326	40.5
683.513	40.63
683.7	40.59
683.886	40.4
684.073	40.41
684.259	40.2
684.446	40.25
684.632	40.19
684.819	40.43
685.005	40.2
685.192	40.04
685.378	39.77
685.565	39.71
685.751	39.82
685.938	39.83
686.124	39.91
686.31	40.03
686.497	39.78
686.683	40.01
686.87	39.92
687.056	40.04
687.242	39.93
687.429	40.11
687.615	39.87
687.801	39.97
687.987	39.75
688.174	39.96
688.36	39.95
688.546	40.23
688.732	40.01
688.918	40.19
689.105	40.36
689.291	40.39
689.477	40.49
689.663	40.79
689.849	40.46
690.035	40.57
690.221	40.29
690.407	40.48
690.593	40.14
690.779	40.29
690.965	40.26
691.151	40.08
691.337	40.66
691.523	40.81
691.709	41.03
691.895	41.09
692.081	41.46
692.267	41.71
692.453	41.68
692.639	41.86
692.825	41.76
693.011	41.72
693.196	41.97
693.382	41.55
693.568	41.28
693.754	41.04
693.94	41.25
694.125	41.06
694.311	41.12
694.497	40.96
694.682	41
694.868	41.12
695.054	41.19
695.239	40.86
695.425	40.95
695.611	40.91
695.796	40.75
695.982	40.66
696.168	40.43
696.353	40.66
696.539	40.62
696.724	40.71
696.91	40.83
697.095	40.79
697.281	40.9
697.466	40.88
697.652	41.02
697.837	40.94
698.023	41.02
698.208	41.29
698.393	40.77
698.579	40.8
698.764	40.67
698.949	40.54
699.135	40.42
699.32	40.34
699.505	40.31
699.691	40.28
699.876	40.07
700.061	40.09
700.246	39.95
700.432	40.07
700.617	39.96
700.802	40.12
700.987	40.15
701.172	40.58
701.358	40.78
701.543	40.71
701.728	40.71
701.913	41.18
702.098	41.18
702.283	41.14
702.468	41.52
702.653	41.43
702.838	41.37
703.023	41.21
703.208	40.94
703.393	40.87
703.578	41.21
703.763	41.25
703.948	41.67
704.133	42.37
704.318	42.71
704.503	42.59
704.688	42.85
704.873	43.13
705.057	43.62
705.242	43.77
705.427	44.13
705.612	43.96
705.797	44.11
705.981	44.15
706.166	43.96
706.351	43.68
706.536	43.86
706.72	44.21
706.905	44.2
707.09	44.15
707.274	44.32
707.459	44.19
707.644	44.42
707.828	44.23
708.013	44.25
708.197	44.08
708.382	44.46
708.567	44.64
708.751	44.55
708.936	44.29
709.12	44.03
709.305	43.9
709.489	44.03
709.673	44.37
709.858	44.6
710.042	44.52
710.227	44.51
710.411	44.31
710.596	44.1
710.78	44.07
710.964	44.45
711.149	44.82
711.333	44.84
711.517	44.85
711.702	44.35
711.886	44.36
712.07	44.32
712.254	44.1
712.438	44.11
712.623	44.01
712.807	44.04
712.991	43.14
713.175	43.09
713.359	42.84
713.544	42.38
713.728	42.46
713.912	42.19
714.096	42.06
714.28	41.89
714.464	41.57
714.648	41.62
714.832	41.66
715.016	42.44
715.2	41.96
715.384	42.04
715.568	42.28
715.752	42.2
715.936	42
716.12	41.76
716.304	42.23
716.488	42.48
716.671	42.23
716.855	41.82
717.039	41.35
717.223	41.49
717.407	41.43
717.59	41.5
717.774	41.36
717.958	41.78
718.142	41.74
718.325	41.6
718.509	41.49
718.693	42.06
718.877	42.11
719.06	42.35
719.244	42.41
719.428	42.46
719.611	42.46
719.795	42.82
719.978	42.62
720.162	43.12
720.345	43.18
720.529	43.37
720.713	43.31
720.896	43.63
721.08	43.8
721.263	43.93
721.446	44.22
721.63	44.49
721.813	44.99
721.997	45.11
722.18	44.92
722.364	44.7
722.547	44.59
722.73	44.38
722.914	44.25
723.097	44.31
723.28	44.67
723.464	44.35
723.647	43.92
723.83	43.56
724.013	43.59
724.197	44.07
724.38	44.35
724.563	44.46
724.746	44.57
724.929	44.91
725.112	44.7
725.296	44.58
725.479	44.85
725.662	45.11
725.845	45.25
726.028	45.35
726.211	44.87
726.394	44.59
726.577	44.57
726.76	44.44
726.943	44.25
727.126	44.61
727.309	44.46
727.492	44.38
727.675	44.34
727.858	43.96
728.041	43.92
728.224	43.95
728.407	43.61
728.589	43.75
728.772	43.54
728.955	43.49
729.138	43.27
729.321	43.35
729.503	43.37
729.686	43.53
729.869	43.36
730.052	43.33
730.234	43.45
730.417	43.85
730.6	43.67
730.782	43.77
730.965	43.98
731.148	44.04
731.33	43.86
731.513	44
731.695	44.29
731.878	44.65
732.061	44.26
732.243	44.58
732.426	44.74
732.608	44.98
732.791	45.05
732.973	44.69
733.156	44.33
733.338	44.57
733.52	44.36
733.703	43.74
733.885	43.56
734.068	44.2
734.25	43.23
734.432	43.18
734.615	43.03
734.797	42.73
734.979	42.87
735.162	43.03
735.344	42.77
735.526	42.84
735.708	43.26
735.891	43.34
736.073	42.72
736.255	43.47
736.437	42.88
736.619	43.41
736.802	44.26
736.984	44.85
737.166	44.77
737.348	45.29
737.53	45.29
737.712	45.21
737.894	45.47
738.076	45.76
738.258	45.77
738.44	45.94
738.622	45.23
738.804	45.3
738.986	45.08
739.168	45.77
739.35	44.97
739.532	45.15
739.714	44.78
739.896	44.38
740.078	44.49
740.259	44.6
740.441	45.32
740.623	45.84
740.805	45.5
740.987	45.38
741.168	45.12
741.35	45.62
741.532	45.44
741.714	45.89
741.895	46.21
742.077	45.71
742.259	45.63
742.44	45.29
742.622	45.28
742.804	45.19
742.985	45.29
743.167	44.83
743.348	45.12
743.53	45.28
743.711	45.16
743.893	44.67
744.075	45.39
744.256	45.23
744.438	45.16
744.619	45.38
744.8	45.61
744.982	45.68
745.163	46.1
745.345	45.92
745.526	46.2
745.707	45.92
745.889	45.99
746.07	45.56
746.252	46.05
746.433	45.88
746.614	45.41
746.795	45.23
746.977	45.27
747.158	45.49
747.339	45.25
747.52	45.17
747.702	45.46
747.883	45.6
748.064	45.69
748.245	45.19
748.426	45.29
748.607	45.31
748.788	45.4
748.97	45.13
749.151	44.67
749.332	45.13
749.513	44.82
749.694	44.71
749.875	45.67
750.056	45.67
750.237	46.16
750.418	46.25
750.599	46.52
750.78	45.89
750.96	45.83
751.141	46.1
751.322	46.23
751.503	46.37
751.684	46.33
751.865	45.81
752.046	45.81
752.226	45.23
752.407	45.29
752.588	45.27
752.769	46.03
752.949	45.48
753.13	46.23
753.311	45.21
753.492	45.53
753.672	45.37
753.853	45.17
754.034	45.22
754.214	45.34
754.395	45.61
754.575	45.6
754.756	45.69
754.937	46.33
755.117	45.17
755.298	45.74
755.478	45.73
755.659	46.61
755.839	46.67
756.02	46.04
756.2	45.93
756.381	45.81
756.561	44.72
756.741	44.83
756.922	45.19
757.102	45.29
757.283	45.05
757.463	44.44
757.643	44.19
757.823	44.07
758.004	44.79
758.184	44.94
758.364	45.58
758.545	46.33
758.725	45.87
758.905	45.43
759.085	45.7
759.265	45.64
759.446	46.13
759.626	45.55
759.806	46.02
759.986	46.06
760.166	45.82
760.346	45.02
760.526	45.29
760.706	45.23
760.886	45.11
761.066	44.93
761.246	44.98
761.426	44.37
761.606	44.19
761.786	43.12
761.966	43.27
762.146	43.28
762.326	43.26
762.506	42.94
762.686	43.02
762.866	43.18
763.046	42.94
763.225	42.76
763.405	42.65
763.585	42.74
763.765	43
763.945	42.46
764.124	42.5
764.304	42.54
764.484	42.91
764.664	42.99
764.843	42.98
765.023	43.29
765.203	43.67
765.382	44.25
765.562	44.72
765.741	45.05
765.921	45.96
766.101	46.4
766.28	46.43
766.46	45.76
766.639	45.86
766.819	45.13
766.998	45.12
767.178	44.85
767.357	45.01
767.537	44.6
767.716	44.32
767.896	43.57
768.075	43.61
768.254	43.46
768.434	44.43
768.613	43.72
768.792	44.47
768.972	44.92
769.151	44.86
769.33	44.47
769.51	44.96
769.689	44.98
769.868	45.31
770.047	45.41
770.226	45.89
770.406	45.16
770.585	45.8
770.764	46.37
770.943	46.14
771.122	46.85
771.301	47.23
771.48	47.29
771.66	47.34
771.839	48.05
772.018	47.63
772.197	46.93
772.376	47.33
772.555	47.62
772.734	47.07
772.913	46.99
773.092	47.06
773.271	47.01
773.449	46.6
773.628	47.15
773.807	46.19
773.986	45.73
774.165	46.21
774.344	45.86
774.523	45.08
774.701	45.93
774.88	46.01
775.059	45.57
775.238	44.87
775.417	44.7
775.595	45.19
775.774	45.58
775.953	45.04
776.131	45.72
776.31	45.47
776.489	45.87
776.667	45.66
776.846	45.26
777.025	45.84
777.203	46.22
777.382	46.88
777.56	46.78
777.739	46.54
777.917	47.8
778.096	47.82
778.274	49.02
778.453	49.89
778.631	49.78
778.81	49.81
778.988	48.63
779.166	48.99
779.345	48.43
779.523	47.76
779.702	48.02
779.88	47.87
780.058	47.46
780.237	46.43
780.415	45.81
780.593	45.7
780.771	46.4
780.95	47.7
781.128	47.87
781.306	48.67
781.484	48.54
781.662	48.61
781.841	48.35
782.019	48.38
782.197	48.48
782.375	47.4
782.553	46.51
782.731	46.59
782.909	46.75
783.087	47.16
783.265	47
783.443	46.48
783.621	46.52
783.799	46.09
783.977	45.33
784.155	45.29
784.333	46.82
784.511	47.83
784.689	47.06
784.867	46.29
785.045	45.67
785.223	45.49
785.4	46.09
785.578	45.83
785.756	47.73
785.934	49.17
786.112	50.13
786.289	49.95
786.467	49.83
786.645	50.57
786.823	50.57
787	50.34
787.178	49.57
787.356	49.5
787.533	49.87
787.711	49.84
787.889	48.85
788.066	47.98
788.244	48.41
788.421	47.96
788.599	47.78
788.776	48
788.954	48.27
789.131	48.48
789.309	49.21
789.486	49.47
789.664	49.13
789.841	49.78
790.019	49.7
790.196	49.04
790.373	49.23
790.551	48.91
790.728	48.68
790.906	48.46
791.083	50.17
791.26	49.33
791.437	49.43
791.615	49.61
791.792	49.98
791.969	51.15
792.146	51
792.324	51.71
792.501	52.08
792.678	52.29
792.855	52.84
793.032	51.29
793.209	52.64
793.387	51.34
793.564	51.01
793.741	49.69
793.918	49.36
794.095	48.19
794.272	47.71
794.449	47.96
794.626	47.42
794.803	45.9
794.98	45.45
795.157	43.7
795.334	43.87
795.511	42.71
795.688	43.09
795.864	42.19
796.041	43.67
796.218	43.7
796.395	42.64
796.572	42.48
796.749	43.61
796.925	43.72
797.102	44.78
797.279	45.33
797.456	45.25
797.632	45.2
797.809	45.35
797.986	46.32
798.162	45.67
798.339	45.91
798.516	46.94
798.692	47.36
798.869	47.38
799.046	47.57
799.222	46.7
799.399	48.21
799.575	48.94
799.752	48.51
799.928	47.14
800.105	48.29
800.281	49.11
800.458	49.4
800.634	49.3
800.811	49.49
800.987	49.65
801.163	50.52
801.34	50.12
801.516	49.39
801.692	51.09
801.869	51.6
802.045	51.24
802.221	50.56
802.398	49.29
802.574	49.47
802.75	50.12
802.926	49.6
803.103	50.58
803.279	50.07
803.455	50.05
803.631	50.35
803.807	49.94
803.983	51.11
804.16	52.56
804.336	53.12
804.512	53.31
804.688	52.42
804.864	53.47
805.04	52.53
805.216	52.18
805.392	53.28
805.568	53.77
805.744	54.94
805.92	53.56
806.096	53.26
806.272	54.23
806.448	52.95
806.623	52.69
806.799	51.46
806.975	51
807.151	51.77
807.327	50.81
807.503	49.31
807.678	49.27
807.854	49.64
808.03	50.15
808.206	50.09
808.381	50.57
808.557	52.03
808.733	52.59
808.908	53.71
809.084	53.22
809.26	53.29
809.435	53.01
809.611	51.5
809.787	50.93
809.962	50.42
810.138	49.43
810.313	49.4
810.489	48.17
810.664	48.22
810.84	46.7
811.015	46.26
811.191	46.65
811.366	48.72
811.542	49.01
811.717	49.06
811.892	49.44
812.068	49.13
812.243	48.3
812.419	48.79
812.594	48.29
812.769	49.06
812.944	50.03
813.12	49.73
813.295	47.71
813.47	47.49
813.645	47.82
813.821	46.2
813.996	46.38
814.171	48.23
814.346	48.45
814.521	48.59
814.697	49.71
814.872	49.61
815.047	49.48
815.222	50.72
815.397	51.12
815.572	50.73
815.747	49.63
815.922	49.89
816.097	48.91
816.272	48.95
816.447	49.9
816.622	47.93
816.797	47.66
816.972	47.04
817.147	46.38
817.322	45.91
817.496	45.99
817.671	48.44
817.846	48.66
818.021	49.14
818.196	48.54
818.371	46.91
818.545	48.2
818.72	47.66
818.895	48.04
819.069	47.27
819.244	48.24
819.419	47.72
819.594	46.61
819.768	46.53
819.943	45.09
820.117	43.94
820.292	42.42
820.467	41.56
820.641	41.12
820.816	39.63
820.99	38.72
821.165	37.05
821.339	36.64
821.514	35.79
821.688	35.25
821.863	34.88
822.037	34.67
822.212	34.53
822.386	34.14
822.56	33.76
822.735	33.82
822.909	33.79
823.084	33.99
823.258	33.86
823.432	33.99
823.606	33.89
823.781	34.19
823.955	34.21
824.129	34.56
824.303	34.85
824.478	35.21
824.652	35.4
824.826	35.6
825	35.86
825.174	36.21
825.348	36.5
825.523	36.57
825.697	36.11
825.871	36.79
826.045	36.77
826.219	36.98
826.393	37.01
826.567	37.29
826.741	36.85
826.915	37.16
827.089	37.32
827.263	37.1
827.437	37.33
827.611	37.65
827.784	37.39
827.958	37.64
828.132	37.25
828.306	37.29
828.48	37.02
828.654	38
828.827	37.99
829.001	38.52
829.175	38.93
829.349	39.56
829.522	40.08
829.696	40.43
829.87	40.57
830.044	41.13
830.217	42.71
830.391	43.65
830.565	43.43
830.738	44.04
830.912	42.33
831.085	43.15
831.259	43.44
831.432	44.63
831.606	45.49
831.779	45.11
831.953	45.39
832.126	43.99
832.3	43.42
832.473	42.87
832.647	42.1
832.82	42.94
832.994	41.94
833.167	42.45
833.34	41.58
833.514	41.75
833.687	41.22
833.86	41.06
834.034	40.06
834.207	39.96
834.38	39.55
834.553	38.96
834.727	38.69
834.9	38.7
835.073	38.14
835.246	38.01
835.419	38.02
835.593	39.97
835.766	39.84
835.939	41.4
836.112	41.14
836.285	41.89
836.458	43.02
836.631	43.58
836.804	45.63
836.977	45.65
837.15	46.73
837.323	47.01
837.496	46.49
837.669	47.2
837.842	48.45
838.015	49.84
838.188	51.09
838.361	52.59
838.533	54.15
838.706	51.82
838.879	51.32
839.052	51.24
839.225	50.98
839.398	50.37
839.57	51.54
839.743	51.58
839.916	52.92
840.088	51.85
840.261	52.08
840.434	50.55
840.607	52.28
840.779	52.51
840.952	51.93
841.124	52
841.297	52.1
841.47	51.05
841.642	50.18
841.815	50.57
841.987	51.3
842.16	52.12
842.332	54.71
842.505	55.28
842.677	57.34
842.85	57.79
843.022	56.74
843.194	56.78
843.367	59.24
843.539	57.76
843.712	56.51
843.884	56.32
844.056	56.12
844.229	56.79
844.401	57.91
844.573	57.27
844.745	57.43
844.918	59.86
845.09	60.96
845.262	60.85
845.434	61.36
845.606	61.97
845.779	63.22
845.951	64.88
846.123	61.38
846.295	60.55
846.467	62.1
846.639	64.42
846.811	63.2
846.983	63.87
847.155	61.59
847.327	64.39
847.499	65.14
847.671	67.38
847.843	62.93
848.015	65.26
848.187	63.22
848.359	62.77
848.531	62.68
848.703	63.69
848.875	66.52
849.047	69.35
849.218	70.16
849.39	69.79
849.562	68.02
849.734	69.77
849.905	71.74
850.077	72.7
850.249	73.07
850.421	72.8
850.592	71.45
850.764	68.1
850.936	67.97
851.107	67.13
851.279	66.81
851.451	68.62
851.622	69.74
851.794	69.47
851.965	71.8
852.137	69.71
852.308	69.6
852.48	71.17
852.651	72.86
852.823	73.76
852.994	72.82
853.166	76.15
853.337	73
853.509	73.33
853.68	71.52
853.851	71.44
854.023	69.34
854.194	69.47
854.365	71.33
854.537	70.03
854.708	70.03
854.879	72.16
855.05	67.43
855.222	68.95
855.393	68.44
855.564	71.52
855.735	71.89
855.906	71.83
856.078	70.81
856.249	71.91
856.42	74.42
856.591	75.77
856.762	73.84
856.933	74.86
857.104	75.11
857.275	75.89
857.446	76.56
857.617	75.58
857.788	78.13
857.959	78.92
858.13	74.27
858.301	72.19
858.472	71.01
858.643	73.42
858.814	73.32
858.985	72.36
859.155	74.04
859.326	70.93
859.497	74.42
859.668	74.66
859.839	73.68
860.009	74.64
860.18	78.05
860.351	76.77
860.522	76.74
860.692	78.64
860.863	80.21
861.034	81.44
861.204	80.71
861.375	82.77
861.546	82.96
861.716	82.13
861.887	81.61
862.057	77.72
862.228	83.22
862.398	82.47
862.569	81.97
862.739	82.28
862.91	80.07
863.08	83.9
863.251	77.52
863.421	76.85
863.592	76.89
863.762	77.45
863.932	74.27
864.103	70.76
864.273	68
864.443	66.5
864.614	65.43
864.784	65.35
864.954	64.19
865.125	67.92
865.295	71.82
865.465	74.73
865.635	76.45
865.805	80.99
865.976	79.07
866.146	80.6
866.316	83.2
866.486	80.7
866.656	79.71
866.826	80.69
866.996	75.82
867.166	73.43
867.336	75.26
867.506	74.18
867.676	70.46
867.846	72.33
868.016	74.97
868.186	74.91
868.356	79.75
868.526	79.82
868.696	78.39
868.866	75.77
869.036	76.97
869.206	74.25
869.376	74.1
869.545	74.38
869.715	74.88
869.885	66.78
870.055	66.61
870.224	64.92
870.394	64.28
870.564	64.1
870.734	65.42
870.903	63.98
871.073	64.79
871.243	63.73
871.412	62.14
871.582	62.22
871.751	67.59
871.921	68.72
872.091	68.56
872.26	69.12
872.43	68.89
872.599	72.31
872.769	70.3
872.938	69.8
873.108	74.06
873.277	77.15
873.446	76.16
873.616	76.92
873.785	73.31
873.955	72.11
874.124	71.21
874.293	73.73
874.463	74.01
874.632	74.5
874.801	76.02
874.971	74.57
875.14	73.23
875.309	71.78
875.478	70.14
875.647	71.76
875.817	73.75
875.986	70.6
876.155	67.42
876.324	64.01
876.493	65.06
876.662	65.26
876.831	63.92
877	64.69
877.17	69.77
877.339	68.33
877.508	69.34
877.677	67.6
877.846	71.43
878.015	72.26
878.184	70.68
878.352	70.67
878.521	67.98
878.69	67.77
878.859	67.75
879.028	63.02
879.197	61.99
879.366	59.56
879.534	59.04
879.703	58.05
879.872	55.66
880.041	54.77
880.21	50.94
880.378	48.45
880.547	45.76
880.716	42.54
880.884	40.92
881.053	40.38
881.222	39.54
881.39	38.66
881.559	36.5
881.727	35.52
881.896	34.94
882.065	35.31
882.233	35
882.402	34.66
882.57	34.05
882.739	33.99
882.907	33.85
883.076	33.58
883.244	32.83
883.412	33.48
883.581	34.02
883.749	34.33
883.918	34.48
884.086	34.71
884.254	35.05
884.423	37.76
884.591	37.55
884.759	37.92
884.927	38.49
885.096	40.87
885.264	41.68
885.432	42.09
885.6	42.74
885.769	43.06
885.937	44.42
886.105	47.37
886.273	48.4
886.441	52
886.609	54.81
886.777	54.39
886.945	53.58
887.113	54.39
887.281	56.88
887.449	58.32
887.617	59.23
887.785	60.3
887.953	63.82
888.121	62.58
888.289	61.58
888.457	61.9
888.625	65.12
888.793	70.69
888.961	69.94
889.129	68.79
889.296	71.21
889.464	72.37
889.632	73.01
889.8	68.68
889.967	68.27
890.135	73.44
