Data from 2938759__Reflection_08.txt Node
Date: Fri Mar 13 18:41:06 EDT 2015
User: robert
Spectrometer: USB4E03002
Autoset integration time: false
Trigger mode: 4
Integration Time (sec): 1.000000E-1
Scans to average: 10
Electric dark correction enabled: false
Nonlinearity correction enabled: false
Boxcar width: 5
Stray light correction enabled: false
XAxis mode: Wavelengths
Stop averaging: false
Number of Pixels in Spectrum: 3648
>>>>>Begin Spectral Data<<<<<
177.575	-628.41
177.794	-4600
178.014	-378.45
178.233	-637.84
178.452	64800
178.672	400
178.891	460.22
179.11	424.72
179.33	225.2
179.549	298.8
179.768	169.2
179.987	136.02
180.207	213.64
180.426	211.66
180.645	606.67
180.864	-40
181.084	-18.53
181.303	-73.44
181.522	-54.52
181.741	-76.73
181.96	21.81
182.179	35.07
182.398	43.32
182.618	5.58
182.837	-4.18
183.056	-34.32
183.275	-63.04
183.494	-2.88
183.713	-55.56
183.932	-75
184.151	-3300
184.37	104.79
184.589	57.19
184.808	100.6
185.027	85.56
185.246	57.35
185.465	45.97
185.684	86.17
185.903	155.27
186.122	307.21
186.341	157.36
186.56	-892.31
186.779	24.86
186.998	24.76
187.216	31.52
187.435	43.02
187.654	33.14
187.873	36.07
188.092	32.3
188.311	55.66
188.53	33.28
188.748	17.96
188.967	-35.14
189.186	-114.01
189.405	209.15
189.623	137.26
189.842	136.26
190.061	134.74
190.28	112.72
190.498	88.34
190.717	82.75
190.936	77.12
191.154	123.17
191.373	118.79
191.592	165.43
191.81	-2287.5
192.029	-947.5
192.248	-276.43
192.466	-183.61
192.685	-116.3
192.904	-294.08
193.122	-1219.15
193.341	-1326.32
193.559	-880.77
193.778	1227.27
193.996	50.66
194.215	29.12
194.433	-24.3
194.652	-93.06
194.87	-4425
195.089	-54.88
195.307	509.68
195.526	72.22
195.744	55.69
195.963	45.74
196.181	41.81
196.399	6.2
196.618	15.12
196.836	49.32
197.055	78.44
197.273	71.73
197.491	163.79
197.71	109.45
197.928	260.76
198.146	321.15
198.365	510.1
198.583	365.62
198.801	328.57
199.019	120.8
199.238	46.71
199.456	24.06
199.674	36.13
199.892	-8.91
200.111	-15.33
200.329	0.25
200.547	-84.77
200.765	-4.46
200.983	21.93
201.202	21.73
201.42	4.61
201.638	-30.43
201.856	-20.43
202.074	-17.5
202.292	-4.12
202.51	8.65
202.728	9.89
202.946	54.42
203.165	92.45
203.383	88.66
203.601	-157.61
203.819	46.55
204.037	105
204.255	102.56
204.473	123.73
204.691	137.41
204.909	163.46
205.127	162.32
205.345	101.2
205.562	60.66
205.78	79.23
205.998	127.61
206.216	113.74
206.434	70.83
206.652	60.37
206.87	60.89
207.088	51.76
207.306	20.2
207.523	-5.34
207.741	-9.63
207.959	21.14
208.177	4.61
208.395	-3.42
208.612	-78.95
208.83	-84.78
209.048	-31
209.266	-23.84
209.483	-15.08
209.701	-26.6
209.919	26.34
210.136	43.6
210.354	21.02
210.572	38.66
210.79	38.34
211.007	57.21
211.225	95.87
211.442	85.03
211.66	94.23
211.878	79.6
212.095	-37
212.313	-119.19
212.53	-89.36
212.748	-87.95
212.966	-69.04
213.183	-96.06
213.401	-50.16
213.618	-81.09
213.836	-195.24
214.053	-468.97
214.271	-280.8
214.488	35.03
214.705	17.88
214.923	31.22
215.14	13.5
215.358	26.24
215.575	54.43
215.793	60.14
216.01	53.99
216.227	58.78
216.445	63.27
216.662	52.99
216.879	48.04
217.097	54.33
217.314	36.19
217.531	32.67
217.749	11.85
217.966	-21.89
218.183	-15.1
218.4	9.84
218.618	0.3
218.835	-2.45
219.052	4.46
219.269	-7.31
219.487	-7.6
219.704	10.96
219.921	15.77
220.138	15.85
220.355	14.84
220.572	9.98
220.79	2.71
221.007	1.08
221.224	-10.86
221.441	-4.2
221.658	1.7
221.875	2.63
222.092	-0.93
222.309	-4.8
222.526	-6.9
222.743	-4.76
222.96	-6.6
223.177	-9.59
223.394	-6.17
223.611	-3.53
223.828	-4.7
224.045	-10.27
224.262	-8.6
224.479	-6.24
224.696	-0.12
224.913	4.03
225.13	5.21
225.347	2.64
225.564	1.37
225.781	1.58
225.997	1.42
226.214	3.67
226.431	5.49
226.648	4.11
226.865	1.58
227.082	-0.71
227.298	1.32
227.515	-0.03
227.732	1.06
227.949	1.28
228.165	1.61
228.382	2.71
228.599	1.81
228.816	1.54
229.032	1.49
229.249	0.55
229.466	1.44
229.682	0.77
229.899	1.78
230.116	0.8
230.332	-0.2
230.549	-0.53
230.765	-2.41
230.982	-2.81
231.199	-3.05
231.415	-3.43
231.632	-2.03
231.848	-2.24
232.065	-4.16
232.281	-4.75
232.498	-3.9
232.714	-1.38
232.931	-1.55
233.147	0.03
233.364	1.45
233.58	1.04
233.797	0.9
234.013	-0.43
234.23	-0.36
234.446	0.54
234.662	-1.04
234.879	-1.77
235.095	-0.91
235.312	0.34
235.528	-0.13
235.744	-2.71
235.961	-2.66
236.177	-1.94
236.393	0.98
236.61	-0.4
236.826	0.95
237.042	3.58
237.258	5.2
237.475	5.89
237.691	4.25
237.907	3.16
238.123	5.19
238.339	4.6
238.556	3.77
238.772	0.03
238.988	-0.56
239.204	-1.72
239.42	-2.7
239.636	-3.12
239.853	-3.66
240.069	-2.23
240.285	-1.03
240.501	-0.25
240.717	-0.55
240.933	-0.8
241.149	0.19
241.365	0.66
241.581	0.83
241.797	0.4
242.013	0.56
242.229	0.35
242.445	-0.05
242.661	-0.39
242.877	-0.87
243.093	-0.13
243.309	0.19
243.525	0.28
243.741	0.17
243.957	-0.05
244.173	0.72
244.388	1.12
244.604	0.83
244.82	0.8
245.036	1.12
245.252	0.8
245.468	0.55
245.683	0.85
245.899	1.33
246.115	1.51
246.331	1.52
246.547	1.56
246.762	1.16
246.978	1.31
247.194	1.14
247.409	1.19
247.625	1.46
247.841	1.22
248.057	1.26
248.272	1.04
248.488	1.02
248.703	1.08
248.919	0.61
249.135	1.21
249.35	0.97
249.566	1.23
249.782	1.59
249.997	1.34
250.213	1.86
250.428	1.16
250.644	0.69
250.859	0.62
251.075	0.93
251.29	0.9
251.506	-0.12
251.721	0.54
251.937	0.9
252.152	0.41
252.368	0.69
252.583	1.11
252.798	2.1
253.014	2.75
253.229	2.21
253.445	2.3
253.66	2.42
253.875	2.93
254.091	3.74
254.306	4.38
254.521	3.78
254.737	3.63
254.952	3.07
255.167	3.31
255.383	2.75
255.598	3.44
255.813	2.98
256.028	3.06
256.244	3.04
256.459	2.04
256.674	0.98
256.889	1.57
257.104	1.56
257.32	1.88
257.535	0.31
257.75	0.34
257.965	0.43
258.18	0.09
258.395	0.29
258.61	0.15
258.826	-0.5
259.041	-0.72
259.256	-0.5
259.471	-0.44
259.686	-0.88
259.901	-0.56
260.116	-0.46
260.331	-0.51
260.546	-0.31
260.761	-0.46
260.976	-0.49
261.191	-0.05
261.406	0.36
261.621	0.17
261.836	0.04
262.05	0.35
262.265	-0.11
262.48	-0.13
262.695	-0
262.91	-0.02
263.125	0.52
263.34	0.63
263.555	0.79
263.769	0.18
263.984	0.27
264.199	-0.02
264.414	-0.17
264.629	-0.17
264.843	-0.36
265.058	-0.15
265.273	-0.42
265.488	-0.93
265.702	-1.65
265.917	-1.84
266.132	-1.63
266.346	-1.53
266.561	-1.27
266.776	-0.59
266.99	0.22
267.205	0.02
267.42	-0.28
267.634	0.07
267.849	0.14
268.063	0.74
268.278	0.86
268.492	1.08
268.707	0.97
268.922	1.01
269.136	0.36
269.351	-0.06
269.565	-0.18
269.78	-0.41
269.994	-0.27
270.209	-0.36
270.423	-0.26
270.637	-0.09
270.852	-0.2
271.066	-0.21
271.281	-0.38
271.495	-0.45
271.709	-0.09
271.924	0.04
272.138	0.11
272.353	0.08
272.567	0.12
272.781	0.08
272.996	-0.34
273.21	-0.31
273.424	0.05
273.638	0.4
273.853	0.71
274.067	0.37
274.281	0.2
274.495	0.21
274.71	-0.14
274.924	-0.25
275.138	0.05
275.352	0.19
275.566	0.32
275.781	-0.23
275.995	-0.61
276.209	-0.47
276.423	-0.54
276.637	-0.4
276.851	-0.03
277.065	0.21
277.279	-0.31
277.493	-0.59
277.707	-0.55
277.921	-0.93
278.135	-0.22
278.349	0.08
278.563	0.16
278.777	0.41
278.991	0.54
279.205	0.5
279.419	0.05
279.633	0.84
279.847	0.82
280.061	0.74
280.275	1.39
280.489	1.29
280.703	1.35
280.917	0.84
281.131	0.91
281.344	0.99
281.558	0.84
281.772	0.96
281.986	0.97
282.2	0.96
282.414	1.06
282.627	0.7
282.841	0.47
283.055	0.36
283.269	0.5
283.482	0.07
283.696	0.2
283.91	-0.04
284.123	0.18
284.337	-0.21
284.551	-0.24
284.764	-0.4
284.978	-0.34
285.192	-0.63
285.405	-0.67
285.619	-0.47
285.833	-0.06
286.046	0.03
286.26	0.31
286.473	-0
286.687	0.04
286.9	0.11
287.114	0.35
287.327	0.33
287.541	0.83
287.754	1.1
287.968	0.9
288.181	0.64
288.395	0.05
288.608	-0.22
288.822	0.32
289.035	0.48
289.248	0.35
289.462	0.13
289.675	-0.01
289.889	-0.25
290.102	-0.52
290.315	-0.52
290.529	-0.56
290.742	-0.09
290.955	0.37
291.169	0.21
291.382	0.16
291.595	0.27
291.808	0.33
292.022	0.29
292.235	0.29
292.448	0.5
292.661	0.44
292.875	0.7
293.088	0.52
293.301	0.18
293.514	-0.18
293.727	-0.06
293.94	0.09
294.153	0.17
294.367	0.16
294.58	0.48
294.793	0.57
295.006	0.52
295.219	0.31
295.432	0.2
295.645	0.31
295.858	0.34
296.071	0.42
296.284	0.48
296.497	0.54
296.71	0.79
296.923	0.67
297.136	0.61
297.349	0.76
297.562	0.8
297.775	1.08
297.988	1.01
298.201	1.28
298.414	1.23
298.626	1.25
298.839	1.14
299.052	1.04
299.265	0.93
299.478	0.79
299.691	0.72
299.903	0.5
300.116	0.31
300.329	0.13
300.542	0.11
300.755	0.27
300.967	0.17
301.18	0.26
301.393	-0.1
301.605	0.1
301.818	0.04
302.031	-0.01
302.243	0.24
302.456	0.2
302.669	0.14
302.881	0.05
303.094	-0.16
303.307	-0.37
303.519	-0.24
303.732	0.21
303.944	0.1
304.157	0.31
304.37	0.68
304.582	1.01
304.795	0.97
305.007	1.24
305.22	1.09
305.432	1.32
305.645	1.27
305.857	1.2
306.069	1.24
306.282	1.1
306.494	1.36
306.707	1.39
306.919	1.07
307.132	0.89
307.344	1.07
307.556	1.1
307.769	1.03
307.981	1.23
308.193	1.18
308.406	1.38
308.618	1.47
308.83	1.07
309.043	1.06
309.255	1.27
309.467	1.35
309.679	1.31
309.892	1.3
310.104	1.19
310.316	1.09
310.528	1.12
310.74	0.83
310.953	0.52
311.165	0.67
311.377	0.48
311.589	0.38
311.801	0.32
312.013	0.29
312.225	0.33
312.437	0.29
312.649	0.44
312.862	0.55
313.074	0.67
313.286	1.1
313.498	1.31
313.71	1.28
313.922	1.3
314.134	1.62
314.346	2.05
314.558	2.31
314.77	2.37
314.982	2.12
315.193	1.72
315.405	1.61
315.617	1.96
315.829	1.53
316.041	2.13
316.253	1.95
316.465	1.68
316.677	1.17
316.888	0.5
317.1	0.72
317.312	1.09
317.524	1.36
317.736	1.26
317.947	0.76
318.159	1.16
318.371	0.97
318.583	0.8
318.794	1.08
319.006	1.58
319.218	2.05
319.43	2.32
319.641	2.67
319.853	2.62
320.064	3.09
320.276	2.9
320.488	2.78
320.699	2.17
320.911	2.47
321.123	2.67
321.334	2.24
321.546	2.11
321.757	1.54
321.969	1.06
322.18	1.35
322.392	1.29
322.603	1.71
322.815	1.85
323.026	1.94
323.238	2.39
323.449	2.03
323.661	2.05
323.872	2.28
324.083	2.66
324.295	2.8
324.506	2.97
324.718	3.1
324.929	3.7
325.14	4.2
325.352	4.69
325.563	4.44
325.774	4.78
325.986	4.96
326.197	5.15
326.408	5.19
326.62	5.75
326.831	5.76
327.042	5.87
327.253	5.63
327.464	5.8
327.676	6.08
327.887	6.61
328.098	6.73
328.309	7.19
328.52	7.82
328.732	8.39
328.943	8.29
329.154	8.78
329.365	8.67
329.576	9.08
329.787	8.97
329.998	8.94
330.209	8.91
330.42	9.46
330.631	9.15
330.842	9.43
331.053	9.34
331.264	9.69
331.475	9.57
331.686	10.19
331.897	10.24
332.108	10.39
332.319	10.56
332.53	10.83
332.741	10.92
332.952	11.52
333.163	11.06
333.374	11.36
333.585	10.88
333.795	11.11
334.006	10.57
334.217	10.61
334.428	10.73
334.639	11.43
334.849	11.71
335.06	11.78
335.271	11.68
335.482	11.9
335.692	11.84
335.903	12.45
336.114	12.84
336.325	13.54
336.535	13.78
336.746	13.84
336.957	13.32
337.167	13
337.378	13.15
337.589	13.24
337.799	13.03
338.01	13.07
338.22	13.19
338.431	12.96
338.642	13.09
338.852	13.12
339.063	13.19
339.273	13.58
339.484	14.02
339.694	14.06
339.905	14.14
340.115	14.86
340.326	15
340.536	14.94
340.746	14.89
340.957	14.85
341.167	14.87
341.378	15.04
341.588	14.72
341.799	14.49
342.009	14.35
342.219	14.62
342.43	14.52
342.64	14.72
342.85	14.75
343.061	15.01
343.271	14.71
343.481	14.62
343.691	14.67
343.902	14.8
344.112	15.11
344.322	15.48
344.532	15.29
344.743	15.19
344.953	14.98
345.163	15.08
345.373	14.81
345.583	15.23
345.793	15.33
346.004	15.36
346.214	15.18
346.424	15.22
346.634	15.13
346.844	15.39
347.054	15.05
347.264	15
347.474	15.22
347.684	15.51
347.894	15.45
348.104	15.48
348.314	15.06
348.524	15.28
348.734	15.32
348.944	14.87
349.154	14.7
349.364	14.81
349.574	15.02
349.784	14.96
349.994	14.92
350.204	14.91
350.413	14.89
350.623	15.05
350.833	14.85
351.043	14.91
351.253	15.11
351.463	15.03
351.672	14.9
351.882	14.63
352.092	14.73
352.302	14.41
352.511	14.43
352.721	14.59
352.931	14.56
353.141	14.76
353.35	14.38
353.56	14.48
353.77	14.27
353.979	14.4
354.189	14.29
354.399	13.81
354.608	13.9
354.818	13.67
355.027	13.49
355.237	13.26
355.447	13.3
355.656	13.31
355.866	12.95
356.075	13.15
356.285	13.11
356.494	13.22
356.704	13.15
356.913	13.34
357.123	13.36
357.332	13.42
357.542	13.66
357.751	13.51
357.96	13.61
358.17	13.68
358.379	13.54
358.589	13.52
358.798	13.74
359.007	13.74
359.217	13.44
359.426	13.24
359.635	13
359.845	13.24
360.054	13.03
360.263	13.02
360.472	13.03
360.682	13.11
360.891	13.21
361.1	13.23
361.309	13.22
361.519	13.22
361.728	13.38
361.937	13.3
362.146	12.98
362.355	13.09
362.564	12.91
362.774	13
362.983	12.91
363.192	12.81
363.401	12.61
363.61	12.53
363.819	12.65
364.028	12.83
364.237	12.92
364.446	12.84
364.655	13.21
364.864	13.3
365.073	13.34
365.282	13.56
365.491	13.54
365.7	13.54
365.909	13.8
366.118	13.79
366.327	13.76
366.536	13.85
366.745	14.28
366.954	14.08
367.162	13.92
367.371	13.89
367.58	13.68
367.789	13.76
367.998	13.73
368.207	13.63
368.415	13.59
368.624	13.53
368.833	13.68
369.042	13.31
369.25	13.32
369.459	13.41
369.668	13.12
369.877	13.25
370.085	13.37
370.294	13.49
370.503	13.49
370.711	13.71
370.92	13.6
371.129	13.47
371.337	13.54
371.546	13.58
371.754	13.56
371.963	13.87
372.171	13.67
372.38	13.77
372.589	13.67
372.797	13.67
373.006	13.65
373.214	13.7
373.423	13.76
373.631	13.99
373.84	13.95
374.048	14.11
374.256	14.33
374.465	14.28
374.673	14.19
374.882	14.23
375.09	14.35
375.298	14.22
375.507	14.4
375.715	14.12
375.923	14
376.132	14.02
376.34	13.95
376.548	13.65
376.757	13.7
376.965	13.56
377.173	13.61
377.381	13.6
377.59	13.58
377.798	13.35
378.006	13.68
378.214	13.6
378.423	13.4
378.631	13.54
378.839	13.62
379.047	13.55
379.255	13.68
379.463	13.56
379.671	13.48
379.879	13.82
380.088	13.83
380.296	13.71
380.504	13.72
380.712	13.67
380.92	13.51
381.128	13.41
381.336	13.57
381.544	13.44
381.752	13.27
381.96	13.08
382.168	12.84
382.376	12.91
382.584	13.07
382.791	12.92
382.999	13.24
383.207	13.23
383.415	13.21
383.623	13.16
383.831	13.16
384.039	13.36
384.247	13.37
384.454	13.27
384.662	13.11
384.87	12.91
385.078	12.98
385.285	12.79
385.493	12.76
385.701	12.68
385.909	12.75
386.116	12.7
386.324	12.85
386.532	12.94
386.739	12.95
386.947	13
387.155	12.93
387.362	13.02
387.57	13.23
387.778	13.27
387.985	13.49
388.193	13.31
388.4	13.34
388.608	13.32
388.816	13.29
389.023	13.41
389.231	13.53
389.438	13.77
389.646	13.81
389.853	13.58
390.061	13.63
390.268	13.53
390.475	13.72
390.683	13.75
390.89	13.58
391.098	13.43
391.305	13.19
391.512	13.05
391.72	12.91
391.927	12.88
392.135	12.89
392.342	12.87
392.549	12.83
392.756	12.74
392.964	12.77
393.171	12.89
393.378	13.11
393.586	13.31
393.793	13.51
394	13.72
394.207	13.71
394.414	13.69
394.622	13.61
394.829	13.54
395.036	13.49
395.243	13.52
395.45	13.63
395.657	13.43
395.864	13.43
396.072	13.1
396.279	12.94
396.486	13.09
396.693	13.16
396.9	13.24
397.107	13.43
397.314	13.59
397.521	13.57
397.728	13.34
397.935	13.47
398.142	13.29
398.349	13.52
398.556	13.62
398.763	13.5
398.97	13.44
399.177	13.45
399.383	13.49
399.59	13.48
399.797	13.44
400.004	13.41
400.211	13.44
400.418	13.55
400.625	13.58
400.831	13.51
401.038	13.4
401.245	13.62
401.452	13.65
401.658	13.52
401.865	13.57
402.072	13.34
402.279	13.32
402.485	13.28
402.692	13.28
402.899	13.27
403.105	13.3
403.312	13.52
403.519	13.48
403.725	13.46
403.932	13.44
404.138	13.41
404.345	13.58
404.552	13.7
404.758	13.91
404.965	13.92
405.171	13.85
405.378	13.8
405.584	13.72
405.791	13.69
405.997	13.64
406.204	13.75
406.41	13.84
406.617	13.94
406.823	13.88
407.029	13.74
407.236	13.83
407.442	13.89
407.649	14.14
407.855	14.16
408.061	14.21
408.268	14.27
408.474	14.34
408.68	14.15
408.887	14.13
409.093	14.15
409.299	14.15
409.505	14.07
409.712	13.97
409.918	13.77
410.124	13.58
410.33	13.48
410.537	13.6
410.743	13.58
410.949	13.71
411.155	13.69
411.361	13.81
411.567	13.86
411.773	13.94
411.98	14.06
412.186	14.19
412.392	14.39
412.598	14.41
412.804	14.26
413.01	14.15
413.216	13.89
413.422	14.02
413.628	13.93
413.834	13.98
414.04	13.89
414.246	13.88
414.452	13.89
414.658	13.92
414.864	13.89
415.07	13.95
415.275	14.03
415.481	14.23
415.687	14.26
415.893	14.2
416.099	14.14
416.305	14.1
416.511	14.2
416.716	14.13
416.922	14.14
417.128	14.08
417.334	14.02
417.539	13.96
417.745	13.79
417.951	13.66
418.157	13.73
418.362	13.69
418.568	13.76
418.774	13.7
418.979	13.72
419.185	13.79
419.391	13.78
419.596	13.82
419.802	13.85
420.008	13.94
420.213	13.97
420.419	13.93
420.624	13.93
420.83	13.93
421.035	13.92
421.241	13.83
421.446	13.74
421.652	13.77
421.857	13.8
422.063	13.73
422.268	13.79
422.474	13.75
422.679	13.78
422.885	13.77
423.09	13.72
423.295	13.76
423.501	13.87
423.706	13.79
423.911	13.79
424.117	13.77
424.322	13.8
424.527	13.73
424.733	13.83
424.938	13.85
425.143	13.86
425.349	13.85
425.554	13.82
425.759	13.74
425.964	13.88
426.169	14
426.375	14.07
426.58	14.17
426.785	14.27
426.99	14.24
427.195	14.3
427.4	14.3
427.605	14.4
427.811	14.46
428.016	14.5
428.221	14.34
428.426	14.29
428.631	14.19
428.836	14.26
429.041	14.23
429.246	14.23
429.451	14.29
429.656	14.33
429.861	14.41
430.066	14.46
430.271	14.49
430.476	14.58
430.681	14.47
430.886	14.57
431.09	14.6
431.295	14.51
431.5	14.49
431.705	14.41
431.91	14.53
432.115	14.49
432.32	14.47
432.524	14.44
432.729	14.39
432.934	14.49
433.139	14.5
433.343	14.42
433.548	14.61
433.753	14.66
433.958	14.67
434.162	14.47
434.367	14.44
434.572	14.39
434.776	14.43
434.981	14.5
435.186	14.48
435.39	14.4
435.595	14.45
435.799	14.31
436.004	14.27
436.209	14.25
436.413	14.42
436.618	14.4
436.822	14.53
437.027	14.55
437.231	14.56
437.436	14.6
437.64	14.57
437.845	14.6
438.049	14.57
438.253	14.66
438.458	14.62
438.662	14.52
438.867	14.54
439.071	14.45
439.275	14.45
439.48	14.46
439.684	14.38
439.888	14.49
440.093	14.47
440.297	14.45
440.501	14.39
440.706	14.49
440.91	14.59
441.114	14.68
441.318	14.68
441.523	14.65
441.727	14.68
441.931	14.66
442.135	14.56
442.339	14.58
442.543	14.69
442.748	14.67
442.952	14.66
443.156	14.58
443.36	14.63
443.564	14.55
443.768	14.59
443.972	14.52
444.176	14.51
444.38	14.6
444.584	14.62
444.788	14.51
444.992	14.5
445.196	14.49
445.4	14.55
445.604	14.4
445.808	14.37
446.012	14.33
446.216	14.36
446.42	14.46
446.624	14.38
446.828	14.21
447.032	14.27
447.235	14.29
447.439	14.27
447.643	14.27
447.847	14.26
448.051	14.33
448.254	14.35
448.458	14.36
448.662	14.3
448.866	14.37
449.069	14.52
449.273	14.49
449.477	14.5
449.681	14.47
449.884	14.48
450.088	14.52
450.292	14.57
450.495	14.61
450.699	14.74
450.902	14.88
451.106	14.9
451.31	14.79
451.513	14.76
451.717	14.8
451.92	14.73
452.124	14.58
452.327	14.59
452.531	14.59
452.734	14.5
452.938	14.43
453.141	14.36
453.345	14.39
453.548	14.56
453.752	14.58
453.955	14.51
454.158	14.59
454.362	14.7
454.565	14.72
454.769	14.73
454.972	14.88
455.175	14.76
455.379	14.76
455.582	14.73
455.785	14.65
455.988	14.65
456.192	14.78
456.395	14.81
456.598	14.83
456.801	14.83
457.005	14.93
457.208	14.85
457.411	14.94
457.614	14.89
457.817	14.73
458.021	14.74
458.224	14.69
458.427	14.63
458.63	14.61
458.833	14.58
459.036	14.57
459.239	14.53
459.442	14.58
459.645	14.58
459.848	14.6
460.051	14.71
460.254	14.67
460.457	14.72
460.66	14.73
460.863	14.84
461.066	14.9
461.269	14.99
461.472	14.98
461.675	14.96
461.878	14.96
462.081	15.01
462.284	15.02
462.486	15.06
462.689	15.08
462.892	15.15
463.095	14.93
463.298	14.85
463.5	14.86
463.703	14.81
463.906	14.79
464.109	14.68
464.311	14.66
464.514	14.55
464.717	14.69
464.92	14.64
465.122	14.6
465.325	14.72
465.528	14.68
465.73	14.63
465.933	14.6
466.135	14.65
466.338	14.71
466.541	14.76
466.743	14.83
466.946	14.7
467.148	14.77
467.351	14.69
467.553	14.77
467.756	14.9
467.958	14.88
468.161	15.02
468.363	15.02
468.566	15.06
468.768	15.01
468.971	15.04
469.173	15.09
469.375	15.17
469.578	15.22
469.78	15.15
469.983	15.13
470.185	15.11
470.387	14.97
470.59	14.92
470.792	14.91
470.994	14.94
471.196	14.96
471.399	15.01
471.601	14.84
471.803	14.95
472.005	14.91
472.208	15
472.41	15.04
472.612	15.15
472.814	15.26
473.016	15.33
473.218	15.32
473.421	15.21
473.623	15.2
473.825	15.28
474.027	15.22
474.229	15.25
474.431	15.2
474.633	15.13
474.835	15.07
475.037	14.95
475.239	14.98
475.441	14.94
475.643	15.03
475.845	15
476.047	14.95
476.249	14.91
476.451	14.94
476.653	14.9
476.855	15.01
477.057	14.96
477.258	15.02
477.46	14.9
477.662	14.87
477.864	14.86
478.066	14.86
478.268	14.98
478.469	15.02
478.671	14.97
478.873	14.92
479.075	14.78
479.276	14.75
479.478	14.74
479.68	14.65
479.882	14.65
480.083	14.67
480.285	14.63
480.487	14.55
480.688	14.51
480.89	14.48
481.091	14.42
481.293	14.55
481.495	14.49
481.696	14.44
481.898	14.42
482.099	14.38
482.301	14.3
482.502	14.27
482.704	14.19
482.905	14.15
483.107	14.15
483.308	14.13
483.51	14.09
483.711	14.09
483.913	14.07
484.114	14.1
484.315	14.12
484.517	14.16
484.718	14.16
484.92	14.25
485.121	14.3
485.322	14.31
485.524	14.34
485.725	14.35
485.926	14.38
486.127	14.42
486.329	14.41
486.53	14.39
486.731	14.37
486.932	14.34
487.134	14.26
487.335	14.22
487.536	14.22
487.737	14.23
487.938	14.21
488.139	14.22
488.341	14.22
488.542	14.28
488.743	14.33
488.944	14.37
489.145	14.43
489.346	14.49
489.547	14.49
489.748	14.47
489.949	14.45
490.15	14.48
490.351	14.48
490.552	14.49
490.753	14.45
490.954	14.4
491.155	14.36
491.356	14.4
491.557	14.4
491.758	14.45
491.959	14.53
492.159	14.61
492.36	14.65
492.561	14.7
492.762	14.74
492.963	14.8
493.164	14.85
493.364	15.01
493.565	15.04
493.766	15.04
493.967	15.07
494.167	15.13
494.368	15.16
494.569	15.13
494.769	15.14
494.97	15.1
495.171	15.03
495.371	15.08
495.572	14.88
495.773	14.82
495.973	14.85
496.174	14.89
496.375	14.82
496.575	14.78
496.776	14.8
496.976	14.85
497.177	14.9
497.377	14.94
497.578	14.98
497.778	15.05
497.979	15.08
498.179	15.07
498.38	14.97
498.58	15
498.78	15.02
498.981	15.02
499.181	14.91
499.382	14.92
499.582	14.93
499.782	14.84
499.983	14.78
500.183	14.81
500.383	14.86
500.584	14.99
500.784	14.87
500.984	14.91
501.184	15.01
501.385	15.11
501.585	15.15
501.785	15.11
501.985	15.16
502.185	15.18
502.386	15.16
502.586	15.17
502.786	15.15
502.986	15.22
503.186	15.23
503.386	15.19
503.586	15.15
503.786	15.12
503.987	15.15
504.187	15.1
504.387	15.12
504.587	15.14
504.787	15.16
504.987	15.2
505.187	15.3
505.387	15.18
505.587	15.24
505.786	15.28
505.986	15.32
506.186	15.36
506.386	15.34
506.586	15.43
506.786	15.38
506.986	15.32
507.186	15.29
507.386	15.25
507.585	15.32
507.785	15.22
507.985	15.14
508.185	15.06
508.384	15.03
508.584	15.13
508.784	15.14
508.984	15.13
509.183	15.2
509.383	15.19
509.583	15.15
509.782	15.14
509.982	15.1
510.182	15.18
510.381	15.16
510.581	15.17
510.781	15.07
510.98	15.01
511.18	14.93
511.379	14.91
511.579	14.95
511.778	14.97
511.978	14.98
512.177	14.98
512.377	15
512.576	15.01
512.776	15.04
512.975	15.02
513.175	15.04
513.374	15.15
513.573	15.14
513.773	15.1
513.972	15.03
514.172	15.01
514.371	15.12
514.57	15.04
514.77	15.03
514.969	15.03
515.168	15.02
515.367	14.99
515.567	15.03
515.766	14.95
515.965	14.93
516.164	14.95
516.364	15.03
516.563	15
516.762	15.01
516.961	15.02
517.16	14.98
517.359	15.12
517.559	15.14
517.758	15.07
517.957	15.1
518.156	15.13
518.355	15.13
518.554	15.12
518.753	15.11
518.952	15.15
519.151	15.13
519.35	15.15
519.549	15.12
519.748	15.13
519.947	15.21
520.146	15.22
520.345	15.19
520.544	15.28
520.743	15.24
520.942	15.26
521.141	15.23
521.339	15.27
521.538	15.3
521.737	15.29
521.936	15.34
522.135	15.34
522.333	15.33
522.532	15.42
522.731	15.46
522.93	15.5
523.129	15.47
523.327	15.42
523.526	15.34
523.725	15.24
523.923	15.2
524.122	15.1
524.321	15.05
524.519	15.04
524.718	14.98
524.917	14.92
525.115	14.88
525.314	14.83
525.512	14.88
525.711	14.97
525.909	14.94
526.108	14.92
526.306	14.89
526.505	14.88
526.703	14.78
526.902	14.74
527.1	14.68
527.299	14.65
527.497	14.62
527.696	14.55
527.894	14.5
528.092	14.52
528.291	14.52
528.489	14.55
528.688	14.52
528.886	14.59
529.084	14.62
529.283	14.66
529.481	14.71
529.679	14.75
529.877	14.82
530.076	14.85
530.274	14.91
530.472	14.96
530.67	14.93
530.869	14.99
531.067	15.01
531.265	15.01
531.463	15.01
531.661	15.01
531.859	15.08
532.057	15.02
532.255	15.08
532.454	15.01
532.652	14.99
532.85	14.97
533.048	14.98
533.246	14.94
533.444	14.94
533.642	14.95
533.84	14.94
534.038	14.91
534.236	14.98
534.434	14.98
534.632	15.02
534.83	15.07
535.027	15.16
535.225	15.17
535.423	15.23
535.621	15.24
535.819	15.2
536.017	15.17
536.215	15.2
536.412	15.15
536.61	15.21
536.808	15.18
537.006	15.16
537.203	15.14
537.401	15.17
537.599	15.15
537.797	15.19
537.994	15.25
538.192	15.28
538.39	15.27
538.587	15.35
538.785	15.31
538.983	15.29
539.18	15.24
539.378	15.26
539.575	15.23
539.773	15.21
539.97	15.1
540.168	15.05
540.366	15.06
540.563	15
540.761	14.96
540.958	14.93
541.155	14.94
541.353	14.93
541.55	14.93
541.748	14.93
541.945	14.98
542.143	15.06
542.34	15.14
542.537	15.17
542.735	15.29
542.932	15.31
543.129	15.39
543.327	15.46
543.524	15.59
543.721	15.65
543.919	15.77
544.116	15.87
544.313	15.92
544.51	15.92
544.708	15.98
544.905	16.03
545.102	16.11
545.299	16.16
545.496	16.25
545.693	16.27
545.891	16.32
546.088	16.24
546.285	16.16
546.482	16.14
546.679	16.1
546.876	16.11
547.073	16.05
547.27	16.02
547.467	15.95
547.664	15.88
547.861	15.85
548.058	15.82
548.255	15.86
548.452	15.93
548.649	15.97
548.846	16
549.043	16.01
549.24	16.06
549.437	16.17
549.633	16.16
549.83	16.16
550.027	16.08
550.224	16.12
550.421	15.97
550.618	15.88
550.814	15.81
551.011	15.82
551.208	15.84
551.405	15.77
551.601	15.67
551.798	15.71
551.995	15.7
552.191	15.72
552.388	15.68
552.585	15.65
552.781	15.68
552.978	15.78
553.175	15.74
553.371	15.68
553.568	15.75
553.764	15.78
553.961	15.78
554.157	15.77
554.354	15.83
554.55	15.83
554.747	16.05
554.943	16.03
555.14	15.8
555.336	15.81
555.533	15.77
555.729	15.72
555.926	15.75
556.122	15.68
556.318	15.63
556.515	15.58
556.711	15.66
556.907	15.47
557.104	15.38
557.3	15.48
557.496	15.52
557.693	15.53
557.889	15.59
558.085	15.53
558.281	15.53
558.478	15.56
558.674	15.62
558.87	15.57
559.066	15.78
559.262	15.8
559.459	15.84
559.655	15.78
559.851	15.83
560.047	15.78
560.243	15.84
560.439	15.84
560.635	15.89
560.831	15.82
561.027	15.72
561.223	15.57
561.419	15.64
561.615	15.75
561.811	15.8
562.007	15.75
562.203	15.63
562.399	15.6
562.595	15.59
562.791	15.6
562.987	15.67
563.183	15.67
563.379	15.78
563.575	15.72
563.771	15.62
563.966	15.59
564.162	15.46
564.358	15.64
564.554	15.59
564.75	15.61
564.945	15.55
565.141	15.39
565.337	15.34
565.533	15.26
565.728	15.28
565.924	15.27
566.12	15.28
566.315	15.47
566.511	15.3
566.707	15.35
566.902	15.22
567.098	15.26
567.293	15.36
567.489	15.46
567.684	15.6
567.88	15.6
568.076	15.58
568.271	15.62
568.467	15.68
568.662	15.88
568.858	15.84
569.053	15.97
569.248	15.92
569.444	16
569.639	15.99
569.835	15.9
570.03	15.87
570.225	15.9
570.421	15.88
570.616	15.74
570.812	15.66
571.007	15.64
571.202	15.7
571.397	15.69
571.593	15.56
571.788	15.55
571.983	15.56
572.178	15.62
572.374	15.56
572.569	15.57
572.764	15.55
572.959	15.48
573.154	15.47
573.35	15.47
573.545	15.5
573.74	15.51
573.935	15.49
574.13	15.41
574.325	15.31
574.52	15.38
574.715	15.33
574.91	15.39
575.105	15.44
575.3	15.51
575.495	15.44
575.69	15.45
575.885	15.56
576.08	15.62
576.275	15.75
576.47	15.84
576.665	15.95
576.86	15.94
577.055	16.01
577.25	16.07
577.444	15.98
577.639	16.08
577.834	16.17
578.029	16.13
578.224	16.07
578.418	16
578.613	16.08
578.808	16.09
579.003	16.23
579.197	16.24
579.392	16.19
579.587	16.42
579.781	16.39
579.976	16.43
580.171	16.36
580.365	16.51
580.56	16.6
580.755	16.58
580.949	16.54
581.144	16.52
581.338	16.6
581.533	16.65
581.727	16.42
581.922	16.5
582.116	16.39
582.311	16.39
582.505	16.29
582.7	16.34
582.894	16.37
583.089	16.23
583.283	16.29
583.478	16.07
583.672	16.19
583.866	16.39
584.061	16.33
584.255	16.38
584.449	16.44
584.644	16.47
584.838	16.44
585.032	16.3
585.226	16.54
585.421	16.39
585.615	16.52
585.809	16.32
586.003	16.37
586.198	16.44
586.392	16.46
586.586	16.58
586.78	16.57
586.974	16.47
587.168	16.67
587.363	16.61
587.557	16.66
587.751	16.8
587.945	16.82
588.139	16.7
588.333	16.57
588.527	16.55
588.721	16.44
588.915	16.31
589.109	16.39
589.303	16.39
589.497	16.38
589.691	16.37
589.885	16.28
590.079	16.4
590.273	16.51
590.466	16.6
590.66	16.57
590.854	16.62
591.048	16.84
591.242	16.82
591.436	16.74
591.629	16.89
591.823	17.1
592.017	17.1
592.211	17.1
592.404	17.07
592.598	17.07
592.792	17.17
592.986	17.17
593.179	17.08
593.373	17.05
593.567	17.08
593.76	16.78
593.954	16.61
594.147	16.63
594.341	16.54
594.535	16.55
594.728	16.43
594.922	16.31
595.115	16.28
595.309	16.2
595.502	16.28
595.696	16.18
595.889	16.27
596.083	16.25
596.276	16.05
596.47	16
596.663	15.92
596.856	15.96
597.05	16.06
597.243	16.05
597.437	16.17
597.63	16.18
597.823	16.23
598.017	16.24
598.21	16.1
598.403	16.26
598.596	16.35
598.79	16.41
598.983	16.56
599.176	16.43
599.369	16.45
599.563	16.45
599.756	16.4
599.949	16.46
600.142	16.44
600.335	16.62
600.528	16.7
600.722	16.68
600.915	16.63
601.108	16.52
601.301	16.63
601.494	16.66
601.687	16.68
601.88	16.72
602.073	16.62
602.266	16.57
602.459	16.45
602.652	16.28
602.845	16.27
603.038	16.36
603.231	16.25
603.424	16.26
603.617	16.23
603.809	16.15
604.002	15.98
604.195	16.15
604.388	16.17
604.581	16.38
604.774	16.48
604.966	16.54
605.159	16.62
605.352	16.83
605.545	16.74
605.737	16.75
605.93	16.69
606.123	16.87
606.316	16.74
606.508	16.72
606.701	16.65
606.894	16.62
607.086	16.54
607.279	16.34
607.471	16.23
607.664	16.32
607.857	16.49
608.049	16.62
608.242	16.68
608.434	16.88
608.627	17.13
608.819	17.34
609.012	17.62
609.204	17.92
609.397	18.3
609.589	18.68
609.782	19.09
609.974	19.4
610.166	19.85
610.359	20.31
610.551	20.64
610.743	20.94
610.936	21.21
611.128	21.45
611.32	21.7
611.513	21.83
611.705	21.75
611.897	21.78
612.09	21.88
612.282	21.67
612.474	21.48
612.666	21.31
612.858	21.26
613.051	21.21
613.243	21.01
613.435	20.89
613.627	20.71
613.819	20.8
614.011	20.54
614.203	20.25
614.395	20.25
614.588	20.14
614.78	19.98
614.972	19.77
615.164	19.5
615.356	19.35
615.548	19.17
615.74	19.03
615.932	18.69
616.124	18.6
616.315	18.25
616.507	18.09
616.699	17.94
616.891	17.94
617.083	17.8
617.275	17.84
617.467	17.78
617.659	17.58
617.85	17.62
618.042	17.65
618.234	17.65
618.426	17.91
618.618	17.98
618.809	17.86
619.001	17.76
619.193	17.78
619.384	17.67
619.576	17.67
619.768	17.7
619.959	17.64
620.151	17.85
620.343	17.72
620.534	17.58
620.726	17.66
620.917	17.97
621.109	17.98
621.301	18.04
621.492	17.94
621.684	17.99
621.875	18.01
622.067	17.86
622.258	17.84
622.45	17.78
622.641	17.75
622.832	17.69
623.024	17.43
623.215	17.41
623.407	17.26
623.598	17.36
623.789	17.45
623.981	17.54
624.172	17.71
624.363	17.63
624.555	17.89
624.746	17.93
624.937	17.81
625.129	17.96
625.32	18.04
625.511	18.04
625.702	17.98
625.893	17.81
626.085	17.81
626.276	17.77
626.467	17.81
626.658	17.77
626.849	17.8
627.04	18.01
627.231	17.93
627.422	17.89
627.614	17.97
627.805	18.12
627.996	18.23
628.187	18.02
628.378	18.15
628.569	18.14
628.76	18.18
628.951	18.3
629.142	18.08
629.332	18.06
629.523	18.09
629.714	18.14
629.905	18.03
630.096	18.05
630.287	18.22
630.478	18.09
630.669	18.16
630.859	18.12
631.05	17.85
631.241	17.98
631.432	17.91
631.623	17.7
631.813	17.66
632.004	17.65
632.195	17.61
632.385	17.69
632.576	17.7
632.767	17.57
632.957	17.72
633.148	17.96
633.339	17.79
633.529	17.71
633.72	17.74
633.91	17.6
634.101	17.43
634.292	17.44
634.482	17.38
634.673	17.24
634.863	17.12
635.054	17.05
635.244	17.03
635.435	17.31
635.625	17.37
635.815	17.56
636.006	17.65
636.196	17.86
636.387	17.9
636.577	17.76
636.767	17.89
636.958	18.06
637.148	17.81
637.338	17.81
637.529	17.52
637.719	17.59
637.909	17.5
638.099	17.39
638.29	17.4
638.48	17.26
638.67	17.32
638.86	17.43
639.05	17.39
639.241	17.65
639.431	17.5
639.621	17.77
639.811	17.62
640.001	17.68
640.191	17.68
640.381	17.64
640.571	17.77
640.761	17.82
640.951	17.69
641.141	17.6
641.331	17.5
641.521	17.48
641.711	17.37
641.901	17.47
642.091	17.51
642.281	17.83
642.471	17.86
642.661	17.87
642.851	17.82
643.041	17.71
643.231	17.67
643.42	17.51
643.61	17.59
643.8	17.64
643.99	17.75
644.18	17.51
644.369	17.44
644.559	17.29
644.749	17.26
644.939	17.27
645.128	17.22
645.318	17.44
645.508	17.7
645.697	17.73
645.887	17.63
646.076	17.56
646.266	17.81
646.456	17.72
646.645	17.68
646.835	17.7
647.024	17.78
647.214	17.93
647.403	17.97
647.593	17.89
647.782	17.91
647.972	17.98
648.161	17.7
648.351	17.64
648.54	17.62
648.73	17.69
648.919	17.68
649.108	17.65
649.298	17.66
649.487	17.62
649.677	17.56
649.866	17.62
650.055	17.68
650.244	17.99
650.434	17.97
650.623	18.12
650.812	18.37
651.002	18.4
651.191	18.53
651.38	18.5
651.569	18.51
651.758	18.6
651.947	18.49
652.137	18.36
652.326	18.45
652.515	18.48
652.704	18.47
652.893	18.3
653.082	18.22
653.271	18.29
653.46	18.18
653.649	18.07
653.838	18.19
654.027	18.3
654.216	18.35
654.405	18.26
654.594	18.17
654.783	17.77
654.972	17.83
655.161	17.83
655.35	17.74
655.539	18.02
655.728	18.32
655.916	18.19
656.105	18.32
656.294	18.18
656.483	18.03
656.672	18.17
656.86	18.5
657.049	18.41
657.238	18.36
657.427	18.31
657.615	18.15
657.804	17.92
657.993	17.87
658.181	17.63
658.37	17.78
658.559	17.92
658.747	17.81
658.936	17.84
659.125	17.74
659.313	17.76
659.502	17.68
659.69	17.64
659.879	17.52
660.067	17.57
660.256	17.6
660.444	17.57
660.633	17.5
660.821	17.65
661.01	17.54
661.198	17.79
661.387	17.86
661.575	18.05
661.763	18.15
661.952	18.24
662.14	18.17
662.328	18.22
662.517	18.28
662.705	18.4
662.893	18.5
663.082	18.67
663.27	18.61
663.458	18.45
663.646	18.41
663.834	18.44
664.023	18.29
664.211	18.6
664.399	18.49
664.587	18.48
664.775	18.52
664.963	18.21
665.152	18.2
665.34	18.26
665.528	18.48
665.716	18.24
665.904	18.51
666.092	18.76
666.28	18.76
666.468	18.83
666.656	18.78
666.844	18.89
667.032	19.02
667.22	18.87
667.408	19.02
667.596	19
667.784	19.18
667.971	18.81
668.159	18.6
668.347	18.3
668.535	18.26
668.723	18.32
668.911	18.22
669.098	18.07
669.286	18.12
669.474	17.85
669.662	18.11
669.849	18
670.037	18.32
670.225	18.42
670.413	18.47
670.6	18.57
670.788	18.71
670.976	18.84
671.163	19
671.351	19.1
671.538	19.34
671.726	19.05
671.913	19.15
672.101	19.14
672.289	19.39
672.476	19.49
672.664	19.49
672.851	19.45
673.039	19.38
673.226	19.53
673.413	19.37
673.601	19.27
673.788	19.4
673.976	19.54
674.163	19.54
674.35	19.29
674.538	18.9
674.725	18.99
674.912	18.92
675.1	18.85
675.287	18.83
675.474	18.95
675.662	18.8
675.849	19.01
676.036	19.2
676.223	19.19
676.411	19.25
676.598	19.68
676.785	19.47
676.972	19.49
677.159	19.33
677.346	19.27
677.533	19.29
677.721	19.18
677.908	18.93
678.095	18.49
678.282	18.22
678.469	18.25
678.656	18.01
678.843	18.15
679.03	17.94
679.217	18.02
679.404	17.98
679.591	18.12
679.778	18.23
679.964	17.95
680.151	18.13
680.338	18.32
680.525	18.34
680.712	18.69
680.899	18.53
681.086	18.77
681.272	18.9
681.459	19.09
681.646	18.84
681.833	18.96
682.02	19.3
682.206	19.17
682.393	19.11
682.58	19.19
682.766	18.8
682.953	19.04
683.14	18.97
683.326	18.71
683.513	18.66
683.7	18.87
683.886	18.8
684.073	18.59
684.259	18.88
684.446	19.06
684.632	19.14
684.819	19.52
685.005	19.37
685.192	19.29
685.378	19.72
685.565	19.69
685.751	19.66
685.938	19.74
686.124	19.8
686.31	19.75
686.497	19.7
686.683	19.69
686.87	19.62
687.056	19.82
687.242	19.97
687.429	19.82
687.615	19.51
687.801	19.54
687.987	19.41
688.174	19.59
688.36	19.49
688.546	19.47
688.732	19.44
688.918	19.36
689.105	19.33
689.291	18.94
689.477	18.99
689.663	19.07
689.849	18.87
690.035	18.78
690.221	18.67
690.407	18.6
690.593	18.47
690.779	18.22
690.965	18.05
691.151	18.07
691.337	18.56
691.523	18.65
691.709	18.94
691.895	19.06
692.081	19.46
692.267	19.65
692.453	19.85
692.639	19.92
692.825	20.22
693.011	20.57
693.196	20.4
693.382	20.11
693.568	19.99
693.754	20.16
693.94	20.19
694.125	19.68
694.311	19.84
694.497	19.75
694.682	19.49
694.868	19.47
695.054	19.11
695.239	19.02
695.425	19.11
695.611	18.96
695.796	18.45
695.982	18.24
696.168	18.37
696.353	17.97
696.539	17.85
696.724	17.92
696.91	17.69
697.095	17.87
697.281	18.01
697.466	17.99
697.652	18.08
697.837	18.25
698.023	18.36
698.208	18.43
698.393	18.53
698.579	18.44
698.764	18.59
698.949	18.67
699.135	18.69
699.32	18.59
699.505	18.49
699.691	18.57
699.876	18.56
700.061	18.53
700.246	18.52
700.432	18.24
700.617	18.36
700.802	18.24
700.987	18.41
701.172	18.52
701.358	18.72
701.543	18.99
701.728	19.04
701.913	18.86
702.098	18.89
702.283	19.44
702.468	19.59
702.653	20.1
702.838	20.04
703.023	19.74
703.208	19.58
703.393	19.49
703.578	19.51
703.763	19.49
703.948	19.73
704.133	19.79
704.318	18.94
704.503	19.01
704.688	18.16
704.873	18.48
705.057	18.88
705.242	19
705.427	19.05
705.612	19.31
705.797	19
705.981	18.9
706.166	18.89
706.351	19.42
706.536	19.82
706.72	20.38
706.905	20.27
707.09	20.19
707.274	20.34
707.459	20.4
707.644	20.28
707.828	20.68
708.013	20.88
708.197	21.08
708.382	20.84
708.567	20.98
708.751	20.83
708.936	21.07
709.12	21.03
709.305	20.84
709.489	20.67
709.673	20.67
709.858	20.33
710.042	20.69
710.227	20.9
710.411	20.79
710.596	20.68
710.78	20.79
710.964	20.55
711.149	20.62
711.333	20.92
711.517	20.89
711.702	20.83
711.886	20.82
712.07	20.33
712.254	20.2
712.438	20.27
712.623	19.9
712.807	20.05
712.991	19.96
713.175	20
713.359	19.89
713.544	19.83
713.728	19.49
713.912	19.67
714.096	19.43
714.28	19.11
714.464	19.19
714.648	19.56
714.832	19.07
715.016	18.91
715.2	18.42
715.384	18.07
715.568	18.18
715.752	18.37
715.936	18.01
716.12	18.15
716.304	18.44
716.488	18.44
716.671	18.07
716.855	18.26
717.039	18.45
717.223	18.25
717.407	18.48
717.59	18.16
717.774	18.32
717.958	18.95
718.142	18.92
718.325	18.72
718.509	18.51
718.693	18.87
718.877	18.88
719.06	19.06
719.244	19.91
719.428	19.64
719.611	20.4
719.795	20.18
719.978	19.06
720.162	19.06
720.345	18.78
720.529	18.69
720.713	18.64
720.896	18.49
721.08	18.16
721.263	17.73
721.446	17.99
721.63	17.85
721.813	17.76
721.997	18.45
722.18	18.85
722.364	19.45
722.547	19.76
722.73	19.81
722.914	19.94
723.097	20.06
723.28	20.09
723.464	19.65
723.647	19.18
723.83	19.09
724.013	19.23
724.197	19.18
724.38	18.72
724.563	18.91
724.746	19.04
724.929	19.13
725.112	19.21
725.296	19.51
725.479	19.83
725.662	20.02
725.845	20.15
726.028	19.81
726.211	19.45
726.394	19.23
726.577	19.17
726.76	18.57
726.943	18.67
727.126	18.57
727.309	18.08
727.492	17.83
727.675	18.05
727.858	18.35
728.041	18.16
728.224	18.22
728.407	18.83
728.589	18.71
728.772	19
728.955	18.7
729.138	18.57
729.321	18.76
729.503	18.47
729.686	18.31
729.869	18.44
730.052	19.22
730.234	19.08
730.417	18.92
730.6	18.47
730.782	18.58
730.965	18.63
731.148	18.72
731.33	18.7
731.513	19.04
731.695	19.07
731.878	18.9
732.061	18.6
732.243	18.91
732.426	18.76
732.608	19.1
732.791	18.87
732.973	19.03
733.156	19.36
733.338	19.57
733.52	19.3
733.703	19.56
733.885	19.36
734.068	19.38
734.25	19.52
734.432	19.65
734.615	19.76
734.797	19.78
734.979	19.62
735.162	19.33
735.344	19.29
735.526	19.98
735.708	19.8
735.891	19.87
736.073	19.59
736.255	19.18
736.437	18.92
736.619	18.94
736.802	18.99
736.984	19.1
737.166	19.02
737.348	19.16
737.53	19.08
737.712	18.99
737.894	18.59
738.076	18.84
738.258	18.97
738.44	19.56
738.622	20
738.804	19.91
738.986	19.68
739.168	19.82
739.35	19.72
739.532	19.66
739.714	19.25
739.896	19.66
740.078	20.25
740.259	19.84
740.441	18.68
740.623	18.02
740.805	18.12
740.987	18.24
741.168	18.84
741.35	18.57
741.532	18.36
741.714	18.32
741.895	18.35
742.077	18
742.259	18.67
742.44	19.14
742.622	19.6
742.804	19.45
742.985	19.42
743.167	18.36
743.348	18.15
743.53	18.39
743.711	18.39
743.893	17.91
744.075	17.82
744.256	17.46
744.438	17.88
744.619	17.21
744.8	17.82
744.982	18.22
745.163	18.54
745.345	18.8
745.526	19.06
745.707	19.54
745.889	20.04
746.07	20.07
746.252	20.06
746.433	19.86
746.614	19.99
746.795	20.08
746.977	19.27
747.158	19.16
747.339	19.65
747.52	18.66
747.702	18.31
747.883	19.04
748.064	19.07
748.245	19.14
748.426	19.27
748.607	19.25
748.788	18.33
748.97	18.92
749.151	19.57
749.332	19.03
749.513	19.83
749.694	19.93
749.875	19.01
750.056	18.5
750.237	18.35
750.418	18.34
750.599	18.55
750.78	19.08
750.96	19.08
751.141	18.35
751.322	19.1
751.503	18.9
751.684	19.37
751.865	18.99
752.046	18.37
752.226	18.41
752.407	18.14
752.588	18.29
752.769	17.87
752.949	17.1
753.13	17.18
753.311	16.41
753.492	16.41
753.672	15.63
753.853	15.81
754.034	16.45
754.214	16.67
754.395	16.79
754.575	16.54
754.756	16.76
754.937	17.43
755.117	18.36
755.298	18.71
755.478	18.84
755.659	19.29
755.839	19.5
756.02	19.97
756.2	19.92
756.381	19.85
756.561	19.71
756.741	19.71
756.922	20.19
757.102	19.18
757.283	19.07
757.463	18.58
757.643	18.7
757.823	19.09
758.004	18.82
758.184	18.86
758.364	18.5
758.545	18.9
758.725	18.9
758.905	18.79
759.085	19.16
759.265	18.21
759.446	19.09
759.626	19.19
759.806	18.46
759.986	18.29
760.166	17.7
760.346	18.44
760.526	17.99
760.706	17.45
760.886	17.53
761.066	17.5
761.246	18.14
761.426	17.64
761.606	17.59
761.786	17.87
761.966	17.85
762.146	18.38
762.326	17.85
762.506	17.86
762.686	18.52
762.866	18.22
763.046	18.09
763.225	18.48
763.405	18.22
763.585	18.11
763.765	18.34
763.945	18.43
764.124	18.38
764.304	18.78
764.484	18.94
764.664	18.93
764.843	19.26
765.023	19.59
765.203	19.17
765.382	18.87
765.562	19.2
765.741	18.87
765.921	19.13
766.101	19.14
766.28	19
766.46	18.71
766.639	18.48
766.819	18.32
766.998	17.22
767.178	17.5
767.357	18.49
767.537	18
767.716	17.7
767.896	17.37
768.075	17.47
768.254	17.31
768.434	17.87
768.613	17.48
768.792	17.43
768.972	18.48
769.151	18.18
769.33	18.11
769.51	18.61
769.689	18.9
769.868	18.17
770.047	17.91
770.226	18.17
770.406	17.95
770.585	18.4
770.764	18.27
770.943	18.72
771.122	18.86
771.301	17.91
771.48	17.72
771.66	17.96
771.839	18.95
772.018	18.55
772.197	18.6
772.376	17.59
772.555	17.58
772.734	17.61
772.913	17.09
773.092	17.42
773.271	17.62
773.449	16.17
773.628	15.82
773.807	15.45
773.986	15.84
774.165	15.35
774.344	17.17
774.523	17.03
774.701	16.36
774.88	15.98
775.059	15.2
775.238	15.69
775.417	17.13
775.595	17.49
775.774	17.35
775.953	17.09
776.131	17.08
776.31	15.94
776.489	15.72
776.667	15.76
776.846	15.99
777.025	16
777.203	16.14
777.382	15.83
777.56	15.77
777.739	16.2
777.917	16.25
778.096	16.06
778.274	16.22
778.453	16.18
778.631	16.28
778.81	15.82
778.988	16.71
779.166	16.88
779.345	17.75
779.523	18
779.702	17.3
779.88	18.37
780.058	19.21
780.237	18.61
780.415	19.19
780.593	19.73
780.771	19.76
780.95	20.61
781.128	20.23
781.306	19.25
781.484	19
781.662	19.75
781.841	19.59
782.019	19.15
782.197	20.09
782.375	19.89
782.553	20.55
782.731	19.56
782.909	18.73
783.087	18.17
783.265	18.91
783.443	20.26
783.621	19.7
783.799	18.92
783.977	18.82
784.155	18.45
784.333	18.39
784.511	17.62
784.689	18.96
784.867	18.57
785.045	18.87
785.223	18.71
785.4	18.31
785.578	18.73
785.756	17.95
785.934	18.06
786.112	18.37
786.289	18.58
786.467	17.95
786.645	17.49
786.823	17.33
787	16.91
787.178	17.21
787.356	16.1
787.533	15.85
787.711	17.35
787.889	16.63
788.066	16.56
788.244	16.29
788.421	17.33
788.599	17.48
788.776	17.56
788.954	18.27
789.131	17.8
789.309	17.46
789.486	15.88
789.664	15.6
789.841	15.79
790.019	14.81
790.196	14.29
790.373	13.07
790.551	13.47
790.728	13.01
790.906	13.3
791.083	11.45
791.26	12.32
791.437	14.14
791.615	13.84
791.792	14.09
791.969	15.3
792.146	16.75
792.324	18.1
792.501	18.7
792.678	19.08
792.855	18.56
793.032	20.76
793.209	20.95
793.387	22.23
793.564	22.08
793.741	22.84
793.918	22.48
794.095	22.07
794.272	21.26
794.449	20.87
794.626	21.68
794.803	21.01
794.98	20.25
795.157	19.33
795.334	18.37
795.511	18.95
795.688	17.66
795.864	17.41
796.041	16.7
796.218	16.56
796.395	16.04
796.572	15.1
796.749	15.21
796.925	15.2
797.102	16.59
797.279	16.8
797.456	16.22
797.632	17.01
797.809	17.17
797.986	17.9
798.162	18.27
798.339	18.19
798.516	18.24
798.692	19.01
798.869	18.81
799.046	18.26
799.222	18.02
799.399	18.11
799.575	18.35
799.752	18.67
799.928	18.22
800.105	18.09
800.281	18.34
800.458	17.73
800.634	17.03
800.811	16.12
800.987	15.5
801.163	15.88
801.34	16.15
801.516	15.83
801.692	16.14
801.869	16.31
802.045	16.19
802.221	15.92
802.398	15.57
802.574	16.04
802.75	16.85
802.926	16.66
803.103	15.77
803.279	16.32
803.455	15.17
803.631	14.5
803.807	14.82
803.983	15.89
804.16	15.59
804.336	15.97
804.512	16.17
804.688	18.86
804.864	19
805.04	19.23
805.216	16.92
805.392	18.13
805.568	18.18
805.744	17.8
805.92	15.61
806.096	14.87
806.272	15.93
806.448	14.87
806.623	12.68
806.799	12.9
806.975	13.44
807.151	14.13
807.327	14.3
807.503	14.88
807.678	15.52
807.854	15.81
808.03	16.28
808.206	16.1
808.381	17.15
808.557	16.93
808.733	16.35
808.908	15.23
809.084	16.66
809.26	15.25
809.435	14.36
809.611	12.62
809.787	11.17
809.962	12.42
810.138	12.58
810.313	12.72
810.489	12.45
810.664	14.37
810.84	15.78
811.015	15.51
811.191	16.61
811.366	15.96
811.542	16.72
811.717	18.75
811.892	18.06
812.068	18.59
812.243	17.85
812.419	20.1
812.594	19.21
812.769	19.02
812.944	17.79
813.12	17.85
813.295	19.15
813.47	20.37
813.645	20.4
813.821	21.21
813.996	20.71
814.171	20.63
814.346	17.41
814.521	16.89
814.697	16.5
814.872	17.89
815.047	17.48
815.222	16.32
815.397	14.78
815.572	15.2
815.747	14.28
815.922	14.25
816.097	14.52
816.272	15.19
816.447	15.31
816.622	15.13
816.797	15.92
816.972	16.23
817.147	15.69
817.322	16.73
817.496	16.33
817.671	17.39
817.846	16.66
818.021	17.24
818.196	18.96
818.371	18.73
818.545	19.06
818.72	17.44
818.895	18.26
819.069	18.58
819.244	16.86
819.419	17.65
819.594	16.68
819.768	15.93
819.943	16.27
820.117	15.69
820.292	15.22
820.467	15.22
820.641	14.99
820.816	14.54
820.99	14.47
821.165	15.17
821.339	15.1
821.514	15.27
821.688	15.65
821.863	15.4
822.037	15.42
822.212	15.58
822.386	15.41
822.56	15.62
822.735	15.67
822.909	15.81
823.084	15.87
823.258	15.91
823.432	15.87
823.606	15.98
823.781	16.34
823.955	16.51
824.129	16.62
824.303	16.91
824.478	17.03
824.652	17.37
824.826	17.44
825	17.38
825.174	17.32
825.348	17.66
825.523	17.53
825.697	17.23
825.871	17.14
826.045	17.22
826.219	17.26
826.393	16.93
826.567	16.08
826.741	16.32
826.915	16.45
827.089	16
827.263	16.18
827.437	16.68
827.611	16.5
827.784	16.68
827.958	16.65
828.132	16.85
828.306	17.08
828.48	17.66
828.654	17.95
828.827	17.81
829.001	18.12
829.175	17.48
829.349	17.31
829.522	16.89
829.696	16.77
829.87	16.47
830.044	15.36
830.217	14.79
830.391	15.11
830.565	14.16
830.738	15.21
830.912	15.54
831.085	16.79
831.259	15.44
831.432	14.71
831.606	14.56
831.779	13.6
831.953	14.69
832.126	14.49
832.3	13.98
832.473	14.51
832.647	12.97
832.82	12.74
832.994	11.59
833.167	11.63
833.34	13.26
833.514	13.08
833.687	14.62
833.86	14.86
834.034	16.23
834.207	15.51
834.38	15.24
834.553	15.68
834.727	15.61
834.9	16.26
835.073	16.11
835.246	16.11
835.419	15.67
835.593	15.09
835.766	14.58
835.939	14.21
836.112	14.74
836.285	14.4
836.458	14.2
836.631	15.05
836.804	15.44
836.977	16.66
837.15	16.04
837.323	17.29
837.496	18.6
837.669	16.57
837.842	14.43
838.015	12.79
838.188	13.74
838.361	14.15
838.533	13.27
838.706	13.14
838.879	11.31
839.052	11.83
839.225	11.21
839.398	9.1
839.57	13.24
839.743	12.9
839.916	14.78
840.088	14.65
840.261	14.07
840.434	14.75
840.607	12.91
840.779	14.77
840.952	14.37
841.124	14.68
841.297	15.12
841.47	13.42
841.642	14.91
841.815	16.26
841.987	17.96
842.16	18.67
842.332	19.6
842.505	20.08
842.677	18.5
842.85	16.57
843.022	16.44
843.194	17.65
843.367	18.38
843.539	17.32
843.712	13.47
843.884	13.07
844.056	11.23
844.229	10.4
844.401	13.16
844.573	13.86
844.745	19.03
844.918	16.73
845.09	15.3
845.262	16.24
845.434	17.66
845.606	22.59
845.779	22.02
845.951	23.97
846.123	23.1
846.295	19.52
846.467	16.75
846.639	14.47
846.811	17.16
846.983	17.13
847.155	14.47
847.327	13.23
847.499	12.62
847.671	11.2
847.843	9.9
848.015	6.74
848.187	12.45
848.359	22.11
848.531	17.14
848.703	17.84
848.875	19.75
849.047	22.49
849.218	20.38
849.39	21.49
849.562	21.18
849.734	23.63
849.905	24.46
850.077	22.57
850.249	18.35
850.421	21.53
850.592	22.8
850.764	20.67
850.936	17.51
851.107	20.46
851.279	18.79
851.451	22.3
851.622	19.19
851.794	20.87
851.965	18.48
852.137	15.35
852.308	14.23
852.48	15.44
852.651	14.99
852.823	19.48
852.994	21.12
853.166	20.97
853.337	19.23
853.509	17.12
853.68	16.61
853.851	18
854.023	25.75
854.194	31.69
854.365	26.65
854.537	27.17
854.708	22.54
854.879	26.85
855.05	25.31
855.222	22.93
855.393	25.03
855.564	22.26
855.735	20.17
855.906	17.46
856.078	13.11
856.249	12.88
856.42	15.1
856.591	15.52
856.762	11.2
856.933	11.65
857.104	8.76
857.275	7.54
857.446	10.59
857.617	15.33
857.788	16.64
857.959	19.58
858.13	24.28
858.301	20.19
858.472	24.16
858.643	21.95
858.814	22.96
858.985	26.5
859.155	27.96
859.326	28.51
859.497	26.66
859.668	25.77
859.839	21.96
860.009	18.19
860.18	19.03
860.351	13.19
860.522	14.01
860.692	11.52
860.863	12.61
861.034	11.81
861.204	7.42
861.375	4.35
861.546	0.87
861.716	-0.94
861.887	3.2
862.057	6.26
862.228	9.55
862.398	6.53
862.569	7.29
862.739	6.61
862.91	4.63
863.08	8.91
863.251	13.35
863.421	18.24
863.592	21.94
863.762	22.08
863.932	20.42
864.103	23.65
864.273	27.16
864.443	28.93
864.614	28.18
864.784	31.79
864.954	29.98
865.125	28.82
865.295	26.5
865.465	23.45
865.635	21.64
865.805	22.75
865.976	19.95
866.146	16.35
866.316	13.85
866.486	17.47
866.656	18.86
866.826	20.73
866.996	19.83
867.166	16.36
867.336	18.25
867.506	16.29
867.676	14.39
867.846	12.94
868.016	10.05
868.186	14.58
868.356	8.84
868.526	6.81
868.696	6.35
868.866	7.41
869.036	10.14
869.206	12.8
869.376	16.12
869.545	11.31
869.715	10.75
869.885	12.72
870.055	7.38
870.224	5.59
870.394	4.29
870.564	4.74
870.734	3.27
870.903	3.21
871.073	-2.18
871.243	-3.59
871.412	2.17
871.582	3.01
871.751	5.2
871.921	9.17
872.091	8.7
872.26	10.52
872.43	9.17
872.599	11.89
872.769	11.73
872.938	17.64
873.108	15.26
873.277	17.51
873.446	15.93
873.616	18.62
873.785	20.53
873.955	24.49
874.124	22.24
874.293	25.97
874.463	25.38
874.632	29.25
874.801	29.31
874.971	28.67
875.14	26.47
875.309	29.18
875.478	25.79
875.647	22.17
875.817	20.51
875.986	19.92
876.155	16.95
876.324	15.74
876.493	13.33
876.662	9.21
876.831	10.23
877	12.09
877.17	13.62
877.339	13.41
877.508	13.71
877.677	16.41
877.846	18.64
878.015	16.6
878.184	16.4
878.352	15.45
878.521	17.33
878.69	17.79
878.859	19.77
879.028	16.87
879.197	15.99
879.366	19.22
879.534	19.71
879.703	18.53
879.872	19.41
880.041	15.94
880.21	16.61
880.378	16.35
880.547	15.55
880.716	14.28
880.884	14.52
881.053	15.13
881.222	14.48
881.39	13.54
881.559	13.57
881.727	13.07
881.896	13.49
882.065	13.21
882.233	13.11
882.402	13.78
882.57	14.05
882.739	13.73
882.907	13.09
883.076	12.91
883.244	13.22
883.412	14.02
883.581	13.89
883.749	14.09
883.918	14.15
884.086	14
884.254	13.27
884.423	12.26
884.591	12.56
884.759	12.96
884.927	12.19
885.096	11.15
885.264	10.21
885.432	12.05
885.6	13.19
885.769	11.77
885.937	11.05
886.105	9.17
886.273	8.57
886.441	7.87
886.609	5.43
886.777	8.17
886.945	8.67
887.113	6.92
887.281	2.44
887.449	3.29
887.617	4.97
887.785	6.13
887.953	13.27
888.121	12.72
888.289	10.26
888.457	12.13
888.625	11.03
888.793	11.16
888.961	9.47
889.129	14.01
889.296	8.55
889.464	7.83
889.632	7.79
889.8	-0.2
889.967	1.11
890.135	6.58
