Data from 2938821__Reflection_02.txt Node
Date: Thu Mar 12 14:27:17 EDT 2015
User: robert
Spectrometer: USB4E03002
Autoset integration time: false
Trigger mode: 4
Integration Time (sec): 1.000000E-1
Scans to average: 10
Electric dark correction enabled: false
Nonlinearity correction enabled: false
Boxcar width: 5
Stray light correction enabled: false
XAxis mode: Wavelengths
Stop averaging: false
Number of Pixels in Spectrum: 3648
>>>>>Begin Spectral Data<<<<<
177.575	364.96
177.794	332.54
178.014	204.82
178.233	149.07
178.452	122.76
178.672	95.85
178.891	62.52
179.11	39.18
179.33	16.22
179.549	17.21
179.768	-4.14
179.987	4.02
180.207	-17.59
180.426	-89.1
180.645	-231.58
180.864	-286.41
181.084	-131.71
181.303	55.65
181.522	745.45
181.741	-210.53
181.96	-102.56
182.179	-89.86
182.398	0
182.618	375
182.837	-347.5
183.056	-119.13
183.275	-16.67
183.494	27.16
183.713	87.92
183.932	39.29
184.151	42.34
184.37	52.49
184.589	80.54
184.808	88.38
185.027	129.41
185.246	143.43
185.465	213.87
185.684	237.56
185.903	184.2
186.122	134.01
186.341	160.2
186.56	141.74
186.779	180.84
186.998	124.93
187.216	115.78
187.435	137.92
187.654	140.16
187.873	126.44
188.092	140.69
188.311	141.82
188.53	159.06
188.748	133.89
188.967	184.29
189.186	68.54
189.405	83.48
189.623	60.38
189.842	-6.5
190.061	-46.12
190.28	-31.28
190.498	23.45
190.717	74.61
190.936	45.66
191.154	120.52
191.373	81.85
191.592	106.22
191.81	118.87
192.029	142.28
192.248	128.41
192.466	113.46
192.685	118.76
192.904	100
193.122	59.8
193.341	86.35
193.559	48.01
193.778	-68.82
193.996	39.82
194.215	86.78
194.433	1288.24
194.652	-31.88
194.87	-145.98
195.089	-64.24
195.307	-133.03
195.526	-34.48
195.744	25.56
195.963	58.42
196.181	116.75
196.399	140.08
196.618	208.26
196.836	409.09
197.055	-204.44
197.273	820.83
197.491	931.03
197.71	1796.67
197.928	1139.02
198.146	485.25
198.365	142.38
198.583	110.4
198.801	68.52
199.019	79.68
199.238	138.35
199.456	116.09
199.674	142.57
199.892	159.59
200.111	171.01
200.329	153.96
200.547	146.77
200.765	-5450
200.983	618.42
201.202	-1627.78
201.42	1671.43
201.638	329.25
201.856	2691.67
202.074	-2860
202.292	489.71
202.51	822.45
202.728	285.48
202.946	435.42
203.165	241.22
203.383	238.87
203.601	136.18
203.819	146.11
204.037	157.19
204.255	151.67
204.473	160.74
204.691	428.42
204.909	232.62
205.127	249
205.345	179.17
205.562	-3675
205.78	315.63
205.998	221.65
206.216	204.24
206.434	139.84
206.652	108.31
206.87	107.22
207.088	87.85
207.306	83.22
207.523	85.76
207.741	78.25
207.959	76.46
208.177	76.62
208.395	87.82
208.612	76.63
208.83	72.95
209.048	83.99
209.266	66.75
209.483	66.14
209.701	76.97
209.919	87.25
210.136	89.85
210.354	83.76
210.572	74.13
210.79	69.13
211.007	63.22
211.225	77.61
211.442	95.04
211.66	96.13
211.878	99.52
212.095	79.21
212.313	57.31
212.53	57.88
212.748	46.88
212.966	47.25
213.183	53.16
213.401	50.05
213.618	51.46
213.836	40.98
214.053	33.22
214.271	24.67
214.488	31.53
214.705	42.95
214.923	56.78
215.14	62.57
215.358	65.08
215.575	43.88
215.793	43.5
216.01	34.54
216.227	6.98
216.445	43.82
216.662	59.01
216.879	44.95
217.097	36.19
217.314	25.1
217.531	28.26
217.749	25.43
217.966	22.24
218.183	39.61
218.4	45.63
218.618	51.57
218.835	52.66
219.052	40.57
219.269	54.17
219.487	58.9
219.704	58.57
219.921	65.85
220.138	62.18
220.355	70.06
220.572	63.97
220.79	57.71
221.007	46.78
221.224	46.54
221.441	46.08
221.658	36.67
221.875	33.09
222.092	24.66
222.309	22.35
222.526	16.2
222.743	15.96
222.96	7.97
223.177	6.26
223.394	15.79
223.611	13.68
223.828	7.04
224.045	10.56
224.262	7.34
224.479	18.33
224.696	16.65
224.913	15.77
225.13	15.93
225.347	15.67
225.564	8.87
225.781	4.39
225.997	6.54
226.214	9.33
226.431	9.14
226.648	10.4
226.865	7.38
227.082	7.52
227.298	8.39
227.515	6.91
227.732	7.46
227.949	7.62
228.165	6.73
228.382	5.72
228.599	4.42
228.816	4.2
229.032	3.98
229.249	2.64
229.466	1.84
229.682	1.49
229.899	1.23
230.116	0.44
230.332	0.24
230.549	1.51
230.765	1.07
230.982	1.75
231.199	1.05
231.415	0.77
231.632	3.13
231.848	3.56
232.065	3.39
232.281	2.85
232.498	3.46
232.714	4.54
232.931	3.35
233.147	2.93
233.364	1.77
233.58	3.59
233.797	2.67
234.013	1.84
234.23	1.34
234.446	-0.19
234.662	0.27
234.879	0.95
235.095	0.29
235.312	0.13
235.528	0.84
235.744	2.41
235.961	2.5
236.177	2.77
236.393	1.66
236.61	3.33
236.826	4.42
237.042	4.25
237.258	4.46
237.475	6.24
237.691	6.02
237.907	6.13
238.123	5.11
238.339	5.32
238.556	4.41
238.772	5.13
238.988	3.8
239.204	4.64
239.42	5.44
239.636	5.37
239.853	4.19
240.069	3.82
240.285	3.49
240.501	3.82
240.717	3.43
240.933	4.02
241.149	3.99
241.365	4.08
241.581	3.39
241.797	3.73
242.013	3.88
242.229	3.21
242.445	3.37
242.661	3.54
242.877	3.15
243.093	2.79
243.309	3.4
243.525	2.77
243.741	2.59
243.957	3.27
244.173	2.72
244.388	2.91
244.604	3.74
244.82	3.43
245.036	3.14
245.252	3.89
245.468	3.8
245.683	3.09
245.899	3.82
246.115	3.64
246.331	3.5
246.547	3.25
246.762	2.81
246.978	3
247.194	3.26
247.409	3.11
247.625	3.24
247.841	3.47
248.057	3.59
248.272	3.42
248.488	3.62
248.703	3.64
248.919	4.06
249.135	4.46
249.35	4.54
249.566	4.45
249.782	4.92
249.997	4.93
250.213	5.31
250.428	5.18
250.644	5.1
250.859	4.67
251.075	4.82
251.29	4.83
251.506	4.22
251.721	3.42
251.937	3.62
252.152	3.64
252.368	3.17
252.583	2.14
252.798	2.23
253.014	2.18
253.229	2.49
253.445	2.16
253.66	1.68
253.875	3.12
254.091	3.89
254.306	4.26
254.521	4.56
254.737	5.34
254.952	5.31
255.167	5.47
255.383	5.75
255.598	6.54
255.813	6.24
256.028	6.59
256.244	5.34
256.459	5.2
256.674	3.96
256.889	4.44
257.104	4.04
257.32	4.77
257.535	4.09
257.75	4.15
257.965	3.95
258.18	3.78
258.395	3.38
258.61	3.3
258.826	2.96
259.041	2.82
259.256	2.36
259.471	2.26
259.686	2.1
259.901	2.19
260.116	2.13
260.331	2.18
260.546	2.24
260.761	2.46
260.976	2.27
261.191	2.45
261.406	2.96
261.621	3.26
261.836	3.12
262.05	3.37
262.265	3.88
262.48	3.7
262.695	3.43
262.91	3.28
263.125	3.06
263.34	3.27
263.555	2.71
263.769	2.25
263.984	1.84
264.199	2.16
264.414	2.04
264.629	1.69
264.843	1.75
265.058	1.32
265.273	1.83
265.488	2.14
265.702	1.81
265.917	2.16
266.132	2.3
266.346	2.77
266.561	3.07
266.776	3.48
266.99	2.96
267.205	2.89
267.42	3.48
267.634	3.38
267.849	2.8
268.063	2.83
268.278	3.05
268.492	3.02
268.707	2.59
268.922	2.53
269.136	2.14
269.351	2.38
269.565	2.64
269.78	2.11
269.994	2.47
270.209	2.57
270.423	2.59
270.637	2.69
270.852	2.76
271.066	2.86
271.281	2.49
271.495	2.1
271.709	2.28
271.924	2.19
272.138	2.46
272.353	2.31
272.567	2.58
272.781	2.83
272.996	2.79
273.21	2.94
273.424	3.07
273.638	3.32
273.853	3.65
274.067	3.53
274.281	3.82
274.495	3.88
274.71	3.84
274.924	3.65
275.138	3.19
275.352	2.72
275.566	2.4
275.781	2.47
275.995	2.66
276.209	2.68
276.423	2.55
276.637	2.37
276.851	2.33
277.065	2.21
277.279	1.58
277.493	1.68
277.707	1.97
277.921	1.83
278.135	1.81
278.349	1.55
278.563	1.44
278.777	1.49
278.991	1
279.205	1.01
279.419	1.19
279.633	2.17
279.847	2.76
280.061	2.6
280.275	2.43
280.489	2.47
280.703	2.45
280.917	2.47
281.131	2.09
281.344	2.21
281.558	1.85
281.772	1.78
281.986	1.34
282.2	0.36
282.414	0.34
282.627	0.47
282.841	0.49
283.055	0.42
283.269	0.45
283.482	0.82
283.696	1.23
283.91	1.39
284.123	1.29
284.337	1.38
284.551	1.58
284.764	1.27
284.978	1.61
285.192	1.62
285.405	1.69
285.619	1.78
285.833	2.05
286.046	1.73
286.26	1.56
286.473	1.59
286.687	1.58
286.9	2.03
287.114	2.38
287.327	2.24
287.541	1.95
287.754	2.52
287.968	2.56
288.181	2.13
288.395	2.24
288.608	2.54
288.822	2.54
289.035	2.65
289.248	2.81
289.462	2.77
289.675	2.51
289.889	2.49
290.102	1.9
290.315	1.85
290.529	1.8
290.742	1.97
290.955	2
291.169	2.14
291.382	2.06
291.595	1.96
291.808	2.19
292.022	2.75
292.235	3.11
292.448	3.19
292.661	3.36
292.875	3.69
293.088	3.63
293.301	3.75
293.514	3.89
293.727	4.22
293.94	4.02
294.153	4.22
294.367	4.21
294.58	4.24
294.793	4.19
295.006	4.15
295.219	4.29
295.432	4.49
295.645	4.35
295.858	4.52
296.071	4.53
296.284	4.6
296.497	4.39
296.71	3.99
296.923	3.95
297.136	4.14
297.349	4.34
297.562	4.27
297.775	4.27
297.988	4.26
298.201	4.01
298.414	4.14
298.626	4.08
298.839	4.04
299.052	4.28
299.265	4.2
299.478	3.86
299.691	3.8
299.903	3.89
300.116	3.89
300.329	3.98
300.542	4.14
300.755	4.04
300.967	4.21
301.18	4.19
301.393	4.18
301.605	4.33
301.818	4.6
302.031	4.65
302.243	4.78
302.456	4.8
302.669	4.89
302.881	4.3
303.094	4.26
303.307	4.13
303.519	4.15
303.732	4.39
303.944	4.59
304.157	4.45
304.37	4.1
304.582	4
304.795	3.81
305.007	4.23
305.22	4.97
305.432	4.93
305.645	5.14
305.857	5.3
306.069	5.45
306.282	5.15
306.494	5.33
306.707	5.53
306.919	5.54
307.132	5.81
307.344	5.73
307.556	5.63
307.769	5.42
307.981	5.73
308.193	5.44
308.406	5.37
308.618	5.4
308.83	5.53
309.043	5.71
309.255	5.62
309.467	5.53
309.679	5.27
309.892	4.98
310.104	5.14
310.316	5.09
310.528	5.79
310.74	5.8
310.953	6.14
311.165	6.13
311.377	5.96
311.589	6.04
311.801	6.14
312.013	5.99
312.225	6.3
312.437	6.33
312.649	6.12
312.862	5.71
313.074	5.62
313.286	5.32
313.498	5.54
313.71	5.69
313.922	5.64
314.134	5.32
314.346	5.46
314.558	5.63
314.77	5.49
314.982	5.82
315.193	6.12
315.405	5.91
315.617	5.88
315.829	5.75
316.041	5.81
316.253	6.11
316.465	6.61
316.677	7.27
316.888	7.25
317.1	7.44
317.312	7.05
317.524	7.03
317.736	7.87
317.947	8.45
318.159	8.66
318.371	8.98
318.583	8.89
318.794	8.98
319.006	8.68
319.218	8.51
319.43	8.66
319.641	9.18
319.853	9.44
320.064	8.85
320.276	8.71
320.488	8.75
320.699	8.4
320.911	8.61
321.123	8.88
321.334	9.22
321.546	9.79
321.757	9.65
321.969	9.48
322.18	9.48
322.392	9.86
322.603	9.74
322.815	10.01
323.026	10.74
323.238	10.88
323.449	10.66
323.661	10.75
323.872	10.62
324.083	11.04
324.295	11.05
324.506	10.78
324.718	11.22
324.929	11.73
325.14	12
325.352	11.94
325.563	12.15
325.774	12.65
325.986	13.08
326.197	13.56
326.408	14.2
326.62	14.79
326.831	15.28
327.042	15.58
327.253	15.67
327.464	16.26
327.676	16.63
327.887	17.09
328.098	17.01
328.309	17.14
328.52	17.51
328.732	17.75
328.943	18.2
329.154	18.79
329.365	19.59
329.576	19.97
329.787	20.17
329.998	20.86
330.209	21.2
330.42	22.09
330.631	22.59
330.842	22.95
331.053	23.54
331.264	23.62
331.475	24.08
331.686	23.84
331.897	24.09
332.108	24.61
332.319	24.83
332.53	25.23
332.741	25.31
332.952	25.58
333.163	26.08
333.374	26.23
333.585	26.47
333.795	26.83
334.006	26.98
334.217	27.53
334.428	27.4
334.639	27.51
334.849	27.34
335.06	27.89
335.271	28.21
335.482	28.05
335.692	28.27
335.903	28.74
336.114	28.79
336.325	29.14
336.535	29.38
336.746	29.55
336.957	29.43
337.167	29.81
337.378	29.69
337.589	29.73
337.799	29.72
338.01	29.85
338.22	29.81
338.431	29.82
338.642	29.74
338.852	29.63
339.063	29.54
339.273	30.03
339.484	29.92
339.694	29.84
339.905	29.5
340.115	29.76
340.326	29.63
340.536	29.93
340.746	29.76
340.957	29.66
341.167	29.76
341.378	29.82
341.588	29.8
341.799	29.98
342.009	30.23
342.219	30.45
342.43	30.31
342.64	30.24
342.85	29.68
343.061	29.69
343.271	29.66
343.481	29.31
343.691	29.2
343.902	29.1
344.112	29.17
344.322	29.1
344.532	28.82
344.743	29.07
344.953	28.81
345.163	29.1
345.373	28.95
345.583	28.76
345.793	29
346.004	29.19
346.214	28.91
346.424	28.92
346.634	28.85
346.844	29.11
347.054	29.01
347.264	28.93
347.474	28.56
347.684	28.94
347.894	28.8
348.104	28.69
348.314	28.41
348.524	28.51
348.734	28.55
348.944	28.17
349.154	28.33
349.364	27.92
349.574	28.07
349.784	28.56
349.994	28.41
350.204	28.78
350.413	28.66
350.623	28.69
350.833	28.53
351.043	28.19
351.253	28.17
351.463	27.86
351.672	28.11
351.882	28.11
352.092	27.59
352.302	27.53
352.511	27.22
352.721	27.42
352.931	27.45
353.141	27.37
353.35	27.12
353.56	27.57
353.77	27.5
353.979	27.25
354.189	27.16
354.399	27.31
354.608	27.21
354.818	27.38
355.027	27.33
355.237	27.44
355.447	27.57
355.656	27.58
355.866	27.14
356.075	27.17
356.285	27.17
356.494	27.05
356.704	26.87
356.913	26.76
357.123	26.66
357.332	26.51
357.542	26.34
357.751	26.15
357.96	26.2
358.17	26.26
358.379	26.09
358.589	26.29
358.798	26.34
359.007	26.39
359.217	26.41
359.426	26.42
359.635	26.2
359.845	26.05
360.054	26.06
360.263	26.34
360.472	26.35
360.682	26.27
360.891	26.11
361.1	26.14
361.309	26.15
361.519	26.3
361.728	26.18
361.937	26.32
362.146	26.43
362.355	26.36
362.564	26.04
362.774	26.07
362.983	26.08
363.192	26.01
363.401	26.01
363.61	25.96
363.819	25.77
364.028	26
364.237	25.88
364.446	25.88
364.655	25.99
364.864	26.11
365.073	26.18
365.282	26.06
365.491	25.97
365.7	25.7
365.909	25.68
366.118	25.77
366.327	25.61
366.536	25.53
366.745	25.3
366.954	25.59
367.162	25.47
367.371	25.5
367.58	25.96
367.789	25.81
367.998	25.96
368.207	26.06
368.415	25.9
368.624	25.89
368.833	26.04
369.042	26.28
369.25	26.02
369.459	26.01
369.668	25.78
369.877	25.84
370.085	26.07
370.294	26.16
370.503	25.9
370.711	26.08
370.92	25.86
371.129	25.96
371.337	25.76
371.546	25.68
371.754	25.76
371.963	25.66
372.171	25.32
372.38	25.23
372.589	25.43
372.797	25.74
373.006	25.49
373.214	25.41
373.423	25.34
373.631	25.49
373.84	25.44
374.048	25.27
374.256	25.21
374.465	24.94
374.673	25.04
374.882	24.78
375.09	24.34
375.298	24.45
375.507	24.78
375.715	24.89
375.923	24.73
376.132	24.54
376.34	24.63
376.548	24.52
376.757	24.82
376.965	24.8
377.173	24.75
377.381	24.91
377.59	24.76
377.798	24.76
378.006	24.46
378.214	24.56
378.423	24.75
378.631	24.7
378.839	24.79
379.047	24.78
379.255	24.72
379.463	24.88
379.671	24.72
379.879	24.86
380.088	24.88
380.296	25
380.504	24.93
380.712	24.95
380.92	24.76
381.128	24.84
381.336	24.69
381.544	24.62
381.752	24.42
381.96	24.44
382.168	24.53
382.376	24.5
382.584	24.62
382.791	24.78
382.999	24.75
383.207	24.74
383.415	24.9
383.623	24.85
383.831	24.71
384.039	24.85
384.247	25.03
384.454	24.87
384.662	24.54
384.87	24.31
385.078	24.09
385.285	24
385.493	24.18
385.701	24.13
385.909	24.04
386.116	24.09
386.324	23.98
386.532	23.68
386.739	23.92
386.947	23.98
387.155	23.75
387.362	23.83
387.57	23.75
387.778	23.65
387.985	23.38
388.193	23.5
388.4	23.7
388.608	23.69
388.816	23.93
389.023	23.57
389.231	23.5
389.438	23.81
389.646	23.72
389.853	23.91
390.061	23.95
390.268	24.05
390.475	24.22
390.683	24.15
390.89	23.98
391.098	24.09
391.305	24.17
391.512	24.35
391.72	24.3
391.927	24.11
392.135	23.97
392.342	23.97
392.549	24
392.756	23.78
392.964	23.7
393.171	23.9
393.378	23.69
393.586	23.75
393.793	23.66
394	23.81
394.207	24.08
394.414	24.07
394.622	24.06
394.829	24.05
395.036	23.99
395.243	24.02
395.45	23.85
395.657	23.93
395.864	23.86
396.072	23.83
396.279	23.74
396.486	23.68
396.693	23.75
396.9	23.67
397.107	23.6
397.314	23.74
397.521	23.69
397.728	23.82
397.935	23.77
398.142	23.85
398.349	23.86
398.556	23.86
398.763	23.89
398.97	24.14
399.177	24.23
399.383	24.37
399.59	24.21
399.797	24.26
400.004	24.27
400.211	24.54
400.418	24.53
400.625	24.53
400.831	24.48
401.038	24.37
401.245	24.14
401.452	24.13
401.658	23.98
401.865	24.09
402.072	24.23
402.279	24.07
402.485	24
402.692	23.93
402.899	24.02
403.105	23.94
403.312	24.15
403.519	24.02
403.725	24.05
403.932	24.11
404.138	24.26
404.345	24.13
404.552	24.11
404.758	24.17
404.965	24.15
405.171	23.99
405.378	24.18
405.584	24.13
405.791	24.32
405.997	24.22
406.204	24.24
406.41	24.17
406.617	24.23
406.823	24.19
407.029	24.05
407.236	24.17
407.442	24.48
407.649	24.47
407.855	24.48
408.061	24.44
408.268	24.48
408.474	24.41
408.68	24.37
408.887	24.37
409.093	24.56
409.299	24.47
409.505	24.3
409.712	24.22
409.918	24.13
410.124	24.01
410.33	24.07
410.537	24.12
410.743	24.29
410.949	24.34
411.155	24.36
411.361	24.4
411.567	24.31
411.773	24.3
411.98	24.16
412.186	24.2
412.392	24.14
412.598	24.14
412.804	24.09
413.01	23.88
413.216	23.82
413.422	23.64
413.628	23.68
413.834	23.94
414.04	23.98
414.246	24.11
414.452	24
414.658	24
414.864	23.91
415.07	24.08
415.275	24.14
415.481	24.17
415.687	24.22
415.893	24.19
416.099	24.09
416.305	24.14
416.511	24
416.716	23.89
416.922	23.91
417.128	23.95
417.334	23.82
417.539	23.84
417.745	23.81
417.951	23.81
418.157	23.83
418.362	23.85
418.568	23.86
418.774	23.88
418.979	23.97
419.185	23.97
419.391	23.95
419.596	23.96
419.802	24.04
420.008	24.01
420.213	24.01
420.419	23.92
420.624	23.91
420.83	24.01
421.035	24.06
421.241	24.01
421.446	24.03
421.652	23.98
421.857	23.97
422.063	23.82
422.268	23.92
422.474	23.89
422.679	23.93
422.885	23.93
423.09	23.76
423.295	23.68
423.501	23.76
423.706	23.83
423.911	23.8
424.117	23.74
424.322	23.85
424.527	23.79
424.733	23.85
424.938	23.84
425.143	23.76
425.349	23.81
425.554	23.85
425.759	23.87
425.964	23.77
426.169	23.78
426.375	23.83
426.58	23.8
426.785	23.79
426.99	23.72
427.195	23.73
427.4	23.75
427.605	23.81
427.811	23.8
428.016	23.75
428.221	23.77
428.426	23.94
428.631	24
428.836	24
429.041	24.06
429.246	24.12
429.451	24.09
429.656	24.15
429.861	24.13
430.066	24.17
430.271	24.14
430.476	24.33
430.681	24.24
430.886	24.29
431.09	24.2
431.295	24.2
431.5	24.11
431.705	24.13
431.91	24.07
432.115	24.08
432.32	23.97
432.524	24
432.729	23.84
432.934	23.89
433.139	23.82
433.343	23.95
433.548	23.85
433.753	24.02
433.958	23.96
434.162	24.13
434.367	24.17
434.572	24.32
434.776	24.32
434.981	24.3
435.186	24.21
435.39	24.12
435.595	24.06
435.799	24.17
436.004	24.01
436.209	24.09
436.413	23.96
436.618	23.93
436.822	23.87
437.027	23.81
437.231	23.85
437.436	23.92
437.64	24.02
437.845	24.06
438.049	24.01
438.253	24.07
438.458	24.07
438.662	24.1
438.867	24.19
439.071	24.12
439.275	24.23
439.48	24.22
439.684	24.21
439.888	24.26
440.093	24.22
440.297	24.26
440.501	24.3
440.706	24.29
440.91	24.24
441.114	24.08
441.318	24.11
441.523	24.05
441.727	24.06
441.931	24.09
442.135	24.02
442.339	23.97
442.543	23.95
442.748	23.9
442.952	23.83
443.156	23.94
443.36	24.01
443.564	24.09
443.768	24.11
443.972	24.17
444.176	24.16
444.38	24.25
444.584	24.3
444.788	24.31
444.992	24.38
445.196	24.45
445.4	24.43
445.604	24.48
445.808	24.49
446.012	24.51
446.216	24.42
446.42	24.41
446.624	24.34
446.828	24.35
447.032	24.37
447.235	24.38
447.439	24.37
447.643	24.36
447.847	24.3
448.051	24.27
448.254	24.2
448.458	24.26
448.662	24.31
448.866	24.4
449.069	24.29
449.273	24.26
449.477	24.09
449.681	24.17
449.884	24.14
450.088	24.14
450.292	24.18
450.495	24.14
450.699	24.18
450.902	24.06
451.106	23.99
451.31	24.02
451.513	24.06
451.717	24.26
451.92	24.18
452.124	24.16
452.327	24.29
452.531	24.31
452.734	24.37
452.938	24.39
453.141	24.48
453.345	24.49
453.548	24.66
453.752	24.69
453.955	24.64
454.158	24.65
454.362	24.77
454.565	24.65
454.769	24.65
454.972	24.77
455.175	24.88
455.379	24.91
455.582	24.9
455.785	24.83
455.988	24.88
456.192	24.86
456.395	24.87
456.598	24.82
456.801	24.88
457.005	24.85
457.208	24.68
457.411	24.64
457.614	24.65
457.817	24.73
458.021	24.71
458.224	24.71
458.427	24.68
458.63	24.73
458.833	24.71
459.036	24.69
459.239	24.74
459.442	24.83
459.645	24.81
459.848	24.8
460.051	24.78
460.254	24.82
460.457	24.73
460.66	24.73
460.863	24.72
461.066	24.78
461.269	24.81
461.472	24.79
461.675	24.79
461.878	24.68
462.081	24.7
462.284	24.68
462.486	24.58
462.689	24.57
462.892	24.64
463.095	24.67
463.298	24.63
463.5	24.69
463.703	24.68
463.906	24.82
464.109	24.96
464.311	24.97
464.514	24.96
464.717	25.14
464.92	25.27
465.122	25.27
465.325	25.22
465.528	25.1
465.73	25.11
465.933	25.02
466.135	24.91
466.338	24.84
466.541	24.81
466.743	24.84
466.946	24.77
467.148	24.76
467.351	24.72
467.553	24.79
467.756	24.82
467.958	24.72
468.161	24.83
468.363	24.8
468.566	24.82
468.768	24.74
468.971	24.7
469.173	24.68
469.375	24.56
469.578	24.6
469.78	24.56
469.983	24.69
470.185	24.77
470.387	24.82
470.59	24.81
470.792	24.71
470.994	24.78
471.196	24.68
471.399	24.62
471.601	24.78
471.803	24.69
472.005	24.74
472.208	24.61
472.41	24.47
472.612	24.39
472.814	24.32
473.016	24.37
473.218	24.36
473.421	24.53
473.623	24.56
473.825	24.46
474.027	24.6
474.229	24.58
474.431	24.61
474.633	24.75
474.835	24.78
475.037	24.91
475.239	25
475.441	25.03
475.643	25
475.845	25.03
476.047	25.07
476.249	24.92
476.451	24.96
476.653	24.94
476.855	24.94
477.057	24.88
477.258	24.77
477.46	24.67
477.662	24.68
477.864	24.68
478.066	24.65
478.268	24.61
478.469	24.75
478.671	24.64
478.873	24.76
479.075	24.77
479.276	24.84
479.478	24.94
479.68	25.05
479.882	25.02
480.083	25
480.285	24.96
480.487	25.01
480.688	24.97
480.89	25.06
481.091	24.91
481.293	24.93
481.495	24.88
481.696	24.85
481.898	24.77
482.099	24.68
482.301	24.65
482.502	24.62
482.704	24.59
482.905	24.53
483.107	24.49
483.308	24.47
483.51	24.41
483.711	24.36
483.913	24.36
484.114	24.32
484.315	24.36
484.517	24.36
484.718	24.42
484.92	24.4
485.121	24.46
485.322	24.45
485.524	24.5
485.725	24.57
485.926	24.61
486.127	24.59
486.329	24.63
486.53	24.64
486.731	24.65
486.932	24.6
487.134	24.62
487.335	24.6
487.536	24.64
487.737	24.6
487.938	24.56
488.139	24.59
488.341	24.6
488.542	24.59
488.743	24.57
488.944	24.58
489.145	24.64
489.346	24.65
489.547	24.65
489.748	24.62
489.949	24.7
490.15	24.76
490.351	24.78
490.552	24.78
490.753	24.8
490.954	24.81
491.155	24.77
491.356	24.73
491.557	24.67
491.758	24.69
491.959	24.7
492.159	24.69
492.36	24.72
492.561	24.72
492.762	24.77
492.963	24.85
493.164	24.87
493.364	24.93
493.565	25.02
493.766	25.11
493.967	25.08
494.167	25.13
494.368	25.15
494.569	25.09
494.769	25.16
494.97	25.17
495.171	25.18
495.371	25.21
495.572	25.26
495.773	25.23
495.973	25.28
496.174	25.36
496.375	25.4
496.575	25.39
496.776	25.44
496.976	25.39
497.177	25.37
497.377	25.39
497.578	25.32
497.778	25.28
497.979	25.37
498.179	25.39
498.38	25.32
498.58	25.29
498.78	25.31
498.981	25.24
499.181	25.28
499.382	25.28
499.582	25.21
499.782	25.3
499.983	25.36
500.183	25.28
500.383	25.27
500.584	25.36
500.784	25.34
500.984	25.39
501.184	25.42
501.385	25.39
501.585	25.43
501.785	25.42
501.985	25.46
502.185	25.48
502.386	25.54
502.586	25.6
502.786	25.58
502.986	25.63
503.186	25.67
503.386	25.79
503.586	25.85
503.786	25.93
503.987	25.93
504.187	25.94
504.387	25.96
504.587	26
504.787	26.02
504.987	26.11
505.187	26.2
505.387	26.18
505.587	26.06
505.786	26.01
505.986	25.95
506.186	26.06
506.386	26.05
506.586	26.03
506.786	25.97
506.986	26.02
507.186	26
507.386	25.94
507.585	25.96
507.785	25.97
507.985	25.95
508.185	26.03
508.384	26.02
508.584	26.02
508.784	26.09
508.984	26.04
509.183	25.99
509.383	26.02
509.583	25.97
509.782	25.94
509.982	25.97
510.182	26.08
510.381	26.09
510.581	26.06
510.781	26.03
510.98	26.01
511.18	26.01
511.379	25.96
511.579	25.9
511.778	25.99
511.978	26.07
512.177	26.16
512.377	26.12
512.576	26.13
512.776	26.16
512.975	26.33
513.175	26.31
513.374	26.41
513.573	26.44
513.773	26.52
513.972	26.53
514.172	26.4
514.371	26.35
514.57	26.3
514.77	26.29
514.969	26.26
515.168	26.19
515.367	26.24
515.567	26.2
515.766	26.23
515.965	26.29
516.164	26.2
516.364	26.23
516.563	26.25
516.762	26.3
516.961	26.3
517.16	26.34
517.359	26.35
517.559	26.3
517.758	26.32
517.957	26.35
518.156	26.32
518.355	26.4
518.554	26.45
518.753	26.46
518.952	26.4
519.151	26.39
519.35	26.34
519.549	26.36
519.748	26.45
519.947	26.52
520.146	26.47
520.345	26.5
520.544	26.54
520.743	26.56
520.942	26.52
521.141	26.72
521.339	26.75
521.538	26.86
521.737	26.9
521.936	26.93
522.135	26.84
522.333	26.99
522.532	26.97
522.731	26.99
522.93	27.07
523.129	27.14
523.327	27.04
523.526	27.12
523.725	27.19
523.923	27.15
524.122	27.1
524.321	27.15
524.519	27.04
524.718	27.04
524.917	27.08
525.115	27.02
525.314	27.02
525.512	27.07
525.711	27.03
525.909	26.93
526.108	26.96
526.306	26.91
526.505	26.92
526.703	26.89
526.902	26.79
527.1	26.7
527.299	26.71
527.497	26.65
527.696	26.58
527.894	26.54
528.092	26.51
528.291	26.49
528.489	26.5
528.688	26.47
528.886	26.49
529.084	26.49
529.283	26.51
529.481	26.48
529.679	26.5
529.877	26.54
530.076	26.57
530.274	26.63
530.472	26.66
530.67	26.65
530.869	26.64
531.067	26.62
531.265	26.66
531.463	26.67
531.661	26.74
531.859	26.77
532.057	26.75
532.255	26.77
532.454	26.7
532.652	26.68
532.85	26.67
533.048	26.71
533.246	26.82
533.444	26.88
533.642	26.91
533.84	26.9
534.038	26.94
534.236	26.95
534.434	26.96
534.632	27
534.83	27.04
535.027	27.07
535.225	27.11
535.423	27.04
535.621	27.06
535.819	27.05
536.017	27.04
536.215	27.05
536.412	27.13
536.61	27.09
536.808	27.18
537.006	27.27
537.203	27.35
537.401	27.41
537.599	27.49
537.797	27.54
537.994	27.6
538.192	27.64
538.39	27.72
538.587	27.71
538.785	27.82
538.983	27.83
539.18	27.72
539.378	27.75
539.575	27.7
539.773	27.66
539.97	27.63
540.168	27.63
540.366	27.63
540.563	27.62
540.761	27.64
540.958	27.62
541.155	27.6
541.353	27.63
541.55	27.64
541.748	27.67
541.945	27.75
542.143	27.82
542.34	27.85
542.537	27.9
542.735	27.92
542.932	27.9
543.129	27.98
543.327	28.12
543.524	28.2
543.721	28.24
543.919	28.34
544.116	28.39
544.313	28.39
544.51	28.51
544.708	28.61
544.905	28.7
545.102	28.95
545.299	29.01
545.496	28.96
545.693	29.03
545.891	29.09
546.088	29.08
546.285	29.02
546.482	29.04
546.679	28.99
546.876	28.89
547.073	28.86
547.27	28.76
547.467	28.69
547.664	28.73
547.861	28.68
548.058	28.76
548.255	28.75
548.452	28.74
548.649	28.69
548.846	28.76
549.043	28.79
549.24	28.85
549.437	28.74
549.633	28.7
549.83	28.66
550.027	28.69
550.224	28.57
550.421	28.53
550.618	28.53
550.814	28.58
551.011	28.64
551.208	28.76
551.405	28.66
551.601	28.66
551.798	28.75
551.995	28.7
552.191	28.67
552.388	28.7
552.585	28.66
552.781	28.7
552.978	28.57
553.175	28.56
553.371	28.52
553.568	28.51
553.764	28.54
553.961	28.55
554.157	28.58
554.354	28.63
554.55	28.55
554.747	28.66
554.943	28.54
555.14	28.71
555.336	28.55
555.533	28.57
555.729	28.67
555.926	28.7
556.122	28.71
556.318	28.73
556.515	28.72
556.711	28.69
556.907	28.58
557.104	28.65
557.3	28.65
557.496	28.59
557.693	28.45
557.889	28.27
558.085	28.36
558.281	28.44
558.478	28.46
558.674	28.51
558.87	28.58
559.066	28.73
559.262	28.76
559.459	28.74
559.655	28.86
559.851	29.06
560.047	29.18
560.243	29.02
560.439	28.87
560.635	28.78
560.831	28.77
561.027	28.85
561.223	28.74
561.419	28.74
561.615	28.77
561.811	28.84
562.007	28.78
562.203	28.79
562.399	28.86
562.595	28.87
562.791	28.89
562.987	28.93
563.183	28.72
563.379	28.86
563.575	28.83
563.771	28.85
563.966	28.78
564.162	28.83
564.358	28.95
564.554	28.86
564.75	28.99
564.945	29
565.141	28.93
565.337	29.09
565.533	28.95
565.728	28.93
565.924	28.9
566.12	28.96
566.315	28.91
566.511	28.85
566.707	28.9
566.902	28.85
567.098	28.92
567.293	28.83
567.489	28.77
567.684	28.9
567.88	28.98
568.076	28.95
568.271	28.89
568.467	28.88
568.662	28.89
568.858	29.01
569.053	29.04
569.248	29.13
569.444	29.25
569.639	29.17
569.835	29.17
570.03	29.22
570.225	29.3
570.421	29.31
570.616	29.35
570.812	29.36
571.007	29.14
571.202	29.12
571.397	28.96
571.593	28.91
571.788	29.05
571.983	28.98
572.178	28.96
572.374	28.86
572.569	28.88
572.764	28.9
572.959	28.77
573.154	29.01
573.35	29.05
573.545	29.08
573.74	29.18
573.935	29.16
574.13	29.15
574.325	29.14
574.52	29.19
574.715	29.25
574.91	29.21
575.105	29.38
575.3	29.33
575.495	29.29
575.69	29.56
575.885	29.54
576.08	29.47
576.275	29.67
576.47	29.77
576.665	29.86
576.86	29.85
577.055	30.06
577.25	30.07
577.444	30.12
577.639	30.33
577.834	30.19
578.029	30.29
578.224	30.48
578.418	30.43
578.613	30.48
578.808	30.52
579.003	30.67
579.197	30.65
579.392	30.75
579.587	30.81
579.781	30.67
579.976	30.57
580.171	30.59
580.365	30.62
580.56	30.61
580.755	30.55
580.949	30.45
581.144	30.41
581.338	30.38
581.533	30.31
581.727	30.35
581.922	30.49
582.116	30.57
582.311	30.59
582.505	30.66
582.7	30.8
582.894	30.91
583.089	31.14
583.283	31.07
583.478	31.09
583.672	31.16
583.866	31.17
584.061	31.2
584.255	31.35
584.449	31.42
584.644	31.29
584.838	31.31
585.032	31.26
585.226	31.19
585.421	31.28
585.615	31.46
585.809	31.6
586.003	31.75
586.198	31.77
586.392	31.7
586.586	31.67
586.78	31.74
586.974	31.67
587.168	31.66
587.363	31.65
587.557	31.57
587.751	31.24
587.945	31.08
588.139	30.79
588.333	30.67
588.527	30.71
588.721	30.65
588.915	30.59
589.109	30.52
589.303	30.61
589.497	30.67
589.691	30.68
589.885	30.77
590.079	30.93
590.273	31.03
590.466	31.08
590.66	31.08
590.854	31.17
591.048	31.37
591.242	31.4
591.436	31.45
591.629	31.57
591.823	31.71
592.017	31.75
592.211	31.66
592.404	31.72
592.598	31.72
592.792	31.72
592.986	31.64
593.179	31.57
593.373	31.64
593.567	31.61
593.76	31.54
593.954	31.44
594.147	31.5
594.341	31.57
594.535	31.54
594.728	31.53
594.922	31.47
595.115	31.64
595.309	31.68
595.502	31.55
595.696	31.46
595.889	31.42
596.083	31.34
596.276	31.33
596.47	31.31
596.663	31.29
596.856	31.21
597.05	31.31
597.243	31.27
597.437	31.3
597.63	31.49
597.823	31.66
598.017	31.73
598.21	31.95
598.403	32.07
598.596	32.03
598.79	32.12
598.983	32.31
599.176	32.34
599.369	32.43
599.563	32.48
599.756	32.36
599.949	32.34
600.142	32.38
600.335	32.36
600.528	32.27
600.722	32.39
600.915	32.38
601.108	32.53
601.301	32.57
601.494	32.44
601.687	32.43
601.88	32.61
602.073	32.53
602.266	32.48
602.459	32.38
602.652	32.33
602.845	32.2
603.038	32.26
603.231	32.08
603.424	32.07
603.617	32.1
603.809	32.04
604.002	32.03
604.195	32.24
604.388	32.28
604.581	32.26
604.774	32.3
604.966	32.46
605.159	32.57
605.352	32.7
605.545	32.77
605.737	32.78
605.93	32.87
606.123	32.97
606.316	32.91
606.508	33.01
606.701	33.25
606.894	33.36
607.086	33.38
607.279	33.38
607.471	33.6
607.664	33.73
607.857	33.92
608.049	34.01
608.242	34.17
608.434	34.26
608.627	34.66
608.819	35.12
609.012	35.77
609.204	36.42
609.397	37.05
609.589	37.58
609.782	38.12
609.974	39.07
610.166	39.94
610.359	40.62
610.551	41.45
610.743	42.09
610.936	42.56
611.128	42.84
611.32	43
611.513	43.09
611.705	43.12
611.897	43.22
612.09	42.66
612.282	42.41
612.474	42.06
612.666	41.64
612.858	41.18
613.051	40.89
613.243	40.56
613.435	40.39
613.627	40.2
613.819	39.85
614.011	39.55
614.203	39.6
614.395	39.19
614.588	39.02
614.78	38.75
614.972	38.37
615.164	38
615.356	37.74
615.548	37.23
615.74	37.03
615.932	36.82
616.124	36.61
616.315	36.36
616.507	36.01
616.699	35.88
616.891	35.62
617.083	35.46
617.275	35.39
617.467	35.35
617.659	35.47
617.85	35.25
618.042	35.27
618.234	35.13
618.426	35.07
618.618	35.23
618.809	35.2
619.001	35.26
619.193	35.47
619.384	35.38
619.576	35.32
619.768	35.34
619.959	35.59
620.151	35.64
620.343	35.84
620.534	35.81
620.726	35.8
620.917	35.78
621.109	36.04
621.301	35.87
621.492	35.9
621.684	35.94
621.875	35.83
622.067	35.58
622.258	35.46
622.45	35.43
622.641	35.33
622.832	35.18
623.024	35.24
623.215	35.16
623.407	35.19
623.598	35.41
623.789	35.37
623.981	35.33
624.172	35.46
624.363	35.59
624.555	35.62
624.746	35.71
624.937	35.86
625.129	35.75
625.32	35.81
625.511	36.03
625.702	35.76
625.893	35.81
626.085	35.79
626.276	35.7
626.467	35.63
626.658	35.59
626.849	35.6
627.04	35.55
627.231	35.6
627.422	35.51
627.614	35.34
627.805	35.6
627.996	35.72
628.187	35.97
628.378	36.08
628.569	36.31
628.76	36.47
628.951	36.62
629.142	36.89
629.332	36.95
629.523	36.83
629.714	37
629.905	37.12
630.096	37.25
630.287	37.2
630.478	37.35
630.669	37.25
630.859	37.31
631.05	37.13
631.241	37
631.432	37.09
631.623	37.3
631.813	37.18
632.004	36.91
632.195	36.79
632.385	36.69
632.576	36.58
632.767	36.26
632.957	35.93
633.148	35.99
633.339	35.96
633.529	35.89
633.72	35.85
633.91	35.67
634.101	35.71
634.292	35.64
634.482	35.62
634.673	35.58
634.863	35.76
635.054	36.06
635.244	36
635.435	36.03
635.625	36.03
635.815	36.1
636.006	36.29
636.196	36.32
636.387	36.02
636.577	36.11
636.767	36.13
636.958	36.24
637.148	36.21
637.338	36.4
637.529	36.52
637.719	36.65
637.909	36.51
638.099	36.53
638.29	36.56
638.48	36.84
638.67	36.94
638.86	37.02
639.05	36.96
639.241	37.03
639.431	36.96
639.621	36.95
639.811	36.98
640.001	37.02
640.191	37.11
640.381	37.15
640.571	37.32
640.761	37.28
640.951	37.39
641.141	37.73
641.331	37.77
641.521	37.94
641.711	37.96
641.901	37.8
642.091	37.94
642.281	38
642.471	37.81
642.661	37.91
642.851	37.91
643.041	37.74
643.231	37.66
643.42	37.66
643.61	37.63
643.8	37.85
643.99	37.98
644.18	38.2
644.369	38.17
644.559	38.61
644.749	38.61
644.939	38.93
645.128	39.1
645.318	39.05
645.508	38.93
645.697	38.85
645.887	38.68
646.076	38.99
646.266	38.86
646.456	38.8
646.645	38.63
646.835	38.56
647.024	38.36
647.214	38.27
647.403	38.34
647.593	38.48
647.782	38.56
647.972	38.56
648.161	38.33
648.351	38.36
648.54	38.7
648.73	38.66
648.919	38.75
649.108	38.61
649.298	38.86
649.487	38.96
649.677	39.08
649.866	39.22
650.055	39.07
650.244	39.03
650.434	39.25
650.623	39.06
650.812	39.19
651.002	39.31
651.191	39.49
651.38	39.4
651.569	39.36
651.758	39.3
651.947	39.18
652.137	39.35
652.326	39.73
652.515	39.6
652.704	39.99
652.893	39.78
653.082	39.76
653.271	39.96
653.46	40.13
653.649	40.18
653.838	40.23
654.027	40.52
654.216	40.59
654.405	40.52
654.594	40.59
654.783	40.21
654.972	40.65
655.161	40.61
655.35	40.58
655.539	40.61
655.728	40.59
655.916	40.72
656.105	40.75
656.294	40.89
656.483	40.84
656.672	40.89
656.86	41.14
657.049	41.05
657.238	41.17
657.427	41.12
657.615	41.17
657.804	41.56
657.993	41.25
658.181	41.12
658.37	40.97
658.559	40.97
658.747	40.91
658.936	40.53
659.125	40.67
659.313	40.55
659.502	40.38
659.69	40.33
659.879	40.11
660.067	40.47
660.256	40.53
660.444	40.73
660.633	40.7
660.821	40.93
661.01	41.43
661.198	41.35
661.387	41.51
661.575	41.79
661.763	41.76
661.952	42.09
662.14	42.25
662.328	42.48
662.517	42.51
662.705	42.67
662.893	42.75
663.082	42.59
663.27	42.51
663.458	42.68
663.646	42.63
663.834	42.65
664.023	42.19
664.211	42.01
664.399	41.77
664.587	42.08
664.775	42.14
664.963	42.06
665.152	42.28
665.34	42.36
665.528	42.19
665.716	42.26
665.904	42.24
666.092	42.46
666.28	42.57
666.468	42.63
666.656	42.43
666.844	42.8
667.032	42.97
667.22	42.72
667.408	42.91
667.596	43
667.784	43.16
667.971	43.56
668.159	43.38
668.347	43.24
668.535	43.58
668.723	43.81
668.911	43.39
669.098	43.3
669.286	43.34
669.474	43.37
669.662	43.49
669.849	43.63
670.037	43.66
670.225	43.86
670.413	44.09
670.6	44.09
670.788	43.88
670.976	43.9
671.163	43.86
671.351	44.19
671.538	44.38
671.726	44.64
671.913	44.5
672.101	44.37
672.289	44.43
672.476	44.46
672.664	44.33
672.851	44.45
673.039	44.82
673.226	45.08
673.413	45.07
673.601	44.85
673.788	44.64
673.976	44.83
674.163	44.91
674.35	44.91
674.538	44.73
674.725	44.96
674.912	45.25
675.1	45.24
675.287	45.06
675.474	45.3
675.662	45.65
675.849	45.66
676.036	45.65
676.223	45.59
676.411	45.91
676.598	46.03
676.785	45.92
676.972	45.75
677.159	45.64
677.346	45.9
677.533	45.88
677.721	45.77
677.908	45.82
678.095	45.77
678.282	45.37
678.469	45.38
678.656	45.53
678.843	45.54
679.03	45.57
679.217	45.67
679.404	45.54
679.591	45.52
679.778	45.55
679.964	45.55
680.151	45.7
680.338	46.05
680.525	46.04
680.712	45.99
680.899	46.05
681.086	45.97
681.272	46.06
681.459	46.04
681.646	46.03
681.833	45.94
682.02	45.78
682.206	45.63
682.393	45.86
682.58	45.53
682.766	45.47
682.953	45.47
683.14	45.46
683.326	45.49
683.513	45.67
683.7	45.91
683.886	45.97
684.073	46.53
684.259	46.85
684.446	46.89
684.632	47.37
684.819	47.44
685.005	47.49
685.192	47.91
685.378	47.84
685.565	47.48
685.751	47.42
685.938	47.62
686.124	47.41
686.31	47.16
686.497	47.06
686.683	46.84
686.87	46.99
687.056	46.87
687.242	46.87
687.429	47.02
687.615	47.51
687.801	47.5
687.987	47.57
688.174	47.53
688.36	47.6
688.546	47.55
688.732	47.55
688.918	47.6
689.105	47.66
689.291	47.58
689.477	47.87
689.663	47.87
689.849	47.65
690.035	47.48
690.221	47.91
690.407	47.88
690.593	48.26
690.779	48.29
690.965	48.23
691.151	48.12
691.337	48.2
691.523	47.92
691.709	47.83
691.895	48
692.081	48.22
692.267	47.98
692.453	48.08
692.639	47.88
692.825	47.91
693.011	48.11
693.196	48.26
693.382	47.99
693.568	47.87
693.754	48.14
693.94	48.16
694.125	48.37
694.311	48.26
694.497	48.38
694.682	48.42
694.868	48.96
695.054	48.64
695.239	48.78
695.425	48.98
695.611	48.69
695.796	48.38
695.982	48.49
696.168	48.47
696.353	48.48
696.539	48.29
696.724	48.3
696.91	47.66
697.095	47.68
697.281	47.64
697.466	47.68
697.652	47.64
697.837	47.57
698.023	47.31
698.208	47.04
698.393	47.14
698.579	47.18
698.764	47.16
698.949	47.37
699.135	47.59
699.32	47.39
699.505	47.2
699.691	47.46
699.876	47.51
700.061	47.85
700.246	47.99
700.432	47.84
700.617	47.88
700.802	47.92
700.987	47.97
701.172	48.01
701.358	48.38
701.543	48.78
701.728	49.22
701.913	49.5
702.098	49.64
702.283	50.03
702.468	50.09
702.653	50.41
702.838	50.58
703.023	51.07
703.208	51.25
703.393	51.48
703.578	51.59
703.763	51.52
703.948	51.21
704.133	51.22
704.318	51.26
704.503	51.68
704.688	52.19
704.873	52.34
705.057	52.34
705.242	52.2
705.427	52.53
705.612	52.88
705.797	53.37
705.981	53.91
706.166	54.12
706.351	54.11
706.536	54.5
706.72	54.34
706.905	54.48
707.09	54.13
707.274	54.08
707.459	53.61
707.644	53.61
707.828	53.25
708.013	53.35
708.197	53.26
708.382	52.82
708.567	52.5
708.751	51.88
708.936	51.77
709.12	52.15
709.305	52.19
709.489	52.85
709.673	52.47
709.858	52.47
710.042	52.48
710.227	52.16
710.411	52.5
710.596	52.71
710.78	53.03
710.964	53.08
711.149	52.91
711.333	52.55
711.517	52.4
711.702	52.45
711.886	52.2
712.07	52.45
712.254	52.86
712.438	52.72
712.623	52.51
712.807	52.56
712.991	52.46
713.175	52.44
713.359	52.49
713.544	52.33
713.728	52.28
713.912	52.25
714.096	51.71
714.28	51.45
714.464	51.28
714.648	51.41
714.832	51.15
715.016	50.88
715.2	50.68
715.384	50.92
715.568	50.63
715.752	50.49
715.936	50.34
716.12	50.34
716.304	50.49
716.488	50.46
716.671	49.94
716.855	50.06
717.039	50.29
717.223	50.2
717.407	50.11
717.59	50.4
717.774	50.21
717.958	50.58
718.142	50.79
718.325	50.73
718.509	50.8
718.693	50.83
718.877	50.95
719.06	50.73
719.244	50.93
719.428	51.38
719.611	51.34
719.795	51.79
719.978	52.07
720.162	52.31
720.345	52.07
720.529	52.59
720.713	53.13
720.896	52.86
721.08	53.43
721.263	53.76
721.446	53.41
721.63	53.16
721.813	53.31
721.997	53.35
722.18	53.04
722.364	53.15
722.547	52.78
722.73	52.43
722.914	52.48
723.097	51.95
723.28	51.03
723.464	51.08
723.647	51.16
723.83	51.01
724.013	50.85
724.197	51.13
724.38	51.42
724.563	51.43
724.746	51.52
724.929	51.91
725.112	52.31
725.296	52.75
725.479	52.38
725.662	52.64
725.845	52.67
726.028	52.4
726.211	52.17
726.394	51.71
726.577	51.34
726.76	51.49
726.943	51.54
727.126	51.35
727.309	51.19
727.492	51.45
727.675	51.28
727.858	51.18
728.041	50.96
728.224	51.06
728.407	51.52
728.589	51.63
728.772	51.85
728.955	51.24
729.138	51.22
729.321	51.56
729.503	51.51
729.686	51.32
729.869	51.37
730.052	51.38
730.234	51.24
730.417	51.01
730.6	51.62
730.782	51.32
730.965	51.91
731.148	51.82
731.33	51.6
731.513	52.2
731.695	52.32
731.878	52.16
732.061	52.41
732.243	52.27
732.426	52.33
732.608	52.05
732.791	52.13
732.973	51.89
733.156	51.89
733.338	52.03
733.52	51.41
733.703	51.77
733.885	52
734.068	52.15
734.25	52.36
734.432	52.25
734.615	52.41
734.797	52.27
734.979	52.26
735.162	52.5
735.344	52.71
735.526	52.67
735.708	52.69
735.891	52.78
736.073	52.51
736.255	52.59
736.437	53.21
736.619	53.34
736.802	53.63
736.984	54.38
737.166	54.44
737.348	55.05
737.53	55.31
737.712	55.63
737.894	55.59
738.076	55.59
738.258	55.01
738.44	54.35
738.622	54.27
738.804	54.29
738.986	53.46
739.168	53.89
739.35	52.79
739.532	52.59
739.714	52.06
739.896	52.25
740.078	51.84
740.259	52.41
740.441	52.21
740.623	51.91
740.805	51.76
740.987	52.49
741.168	51.96
741.35	52.16
741.532	52.74
741.714	52.89
741.895	52.86
742.077	53.63
742.259	53.83
742.44	54.11
742.622	54.44
742.804	54.2
742.985	53.66
743.167	54.01
743.348	55.15
743.53	54.82
743.711	54.72
743.893	54.72
744.075	54.2
744.256	54.57
744.438	55.03
744.619	55.07
744.8	55.55
744.982	55.97
745.163	55.78
745.345	55.09
745.526	55.67
745.707	55.76
745.889	56.09
746.07	56.94
746.252	57.09
746.433	56.69
746.614	56.69
746.795	56.22
746.977	56.34
747.158	56.45
747.339	56.69
747.52	56.14
747.702	55.92
747.883	55.07
748.064	54.69
748.245	53.94
748.426	53.97
748.607	54.28
748.788	55.26
748.97	54.98
749.151	55.78
749.332	55.66
749.513	55.57
749.694	55.66
749.875	56.58
750.056	56.72
750.237	57.41
750.418	58.1
750.599	57.77
750.78	57.29
750.96	56.71
751.141	56.21
751.322	56.23
751.503	56.65
751.684	56.52
751.865	55.45
752.046	55.17
752.226	54.35
752.407	53.66
752.588	53.57
752.769	53.46
752.949	53.59
753.13	52.35
753.311	51.54
753.492	52.03
753.672	52.65
753.853	53.36
754.034	53.71
754.214	53.82
754.395	53.98
754.575	54.75
754.756	54.42
754.937	54.53
755.117	55.35
755.298	56.45
755.478	56.14
755.659	55.78
755.839	55.5
756.02	55.34
756.2	55.48
756.381	55.83
756.561	55.06
756.741	55.96
756.922	55.62
757.102	55.38
757.283	55.24
757.463	54.93
757.643	54.79
757.823	55.26
758.004	55.42
758.184	55.59
758.364	54.98
758.545	55.09
758.725	55.03
758.905	55.63
759.085	56.15
759.265	55.47
759.446	55.28
759.626	55.26
759.806	54.72
759.986	53.96
760.166	53.19
760.346	53.5
760.526	53.05
760.706	52.3
760.886	52.1
761.066	51.84
761.246	51.32
761.426	51.29
761.606	51.52
761.786	51.51
761.966	52.1
762.146	52.36
762.326	51.7
762.506	51.81
762.686	51.84
762.866	51.78
763.046	51.62
763.225	52
763.405	52.14
763.585	51.7
763.765	51.43
763.945	51.25
764.124	51.35
764.304	51.63
764.484	51.31
764.664	51.24
764.843	51.23
765.023	51.04
765.203	51.3
765.382	51.28
765.562	51.53
765.741	51.97
765.921	52.43
766.101	52.63
766.28	53.04
766.46	53.76
766.639	54.21
766.819	54.39
766.998	54.55
767.178	54.62
767.357	54.42
767.537	54.96
767.716	55.15
767.896	54.9
768.075	55.3
768.254	54.92
768.434	55.86
768.613	56.36
768.792	57.16
768.972	57.44
769.151	57.76
769.33	57.63
769.51	57.33
769.689	57.29
769.868	57.59
770.047	57.43
770.226	58.38
770.406	57.47
770.585	56.65
770.764	56.39
770.943	57.23
771.122	56.67
771.301	57.67
771.48	58.24
771.66	58.49
771.839	58.5
772.018	58.11
772.197	57.41
772.376	57.92
772.555	58.62
772.734	58.79
772.913	57.77
773.092	58.02
773.271	57.93
773.449	57.58
773.628	58.13
773.807	57.91
773.986	57.78
774.165	58.18
774.344	58.21
774.523	58.03
774.701	58.25
774.88	59.03
775.059	58.97
775.238	58.62
775.417	58.94
775.595	58.45
775.774	57.92
775.953	58.35
776.131	58.41
776.31	58.59
776.489	58.29
776.667	57.48
776.846	57.34
777.025	57.73
777.203	58.16
777.382	57.58
777.56	57.39
777.739	58.13
777.917	58.09
778.096	57.82
778.274	56.66
778.453	56.44
778.631	56.85
778.81	57.09
778.988	57.9
779.166	57.69
779.345	57.77
779.523	58.28
779.702	57.41
779.88	57.62
780.058	58.47
780.237	59.79
780.415	60.14
780.593	59.62
780.771	59.59
780.95	58.71
781.128	58.92
781.306	57.94
781.484	57.4
781.662	57.77
781.841	57.65
782.019	56.84
782.197	56.13
782.375	56.3
782.553	56.08
782.731	55.94
782.909	55.37
783.087	55.05
783.265	56.04
783.443	55.75
783.621	56.86
783.799	56.52
783.977	55.83
784.155	56.1
784.333	56.58
784.511	57.89
784.689	57.4
784.867	58.77
785.045	58.25
785.223	57.61
785.4	58.3
785.578	57.83
785.756	56.78
785.934	56.6
786.112	55.7
786.289	54.79
786.467	53.56
786.645	53.64
786.823	52.69
787	52.96
787.178	54.56
787.356	54.97
787.533	54.37
787.711	56.28
787.889	56.33
788.066	56.03
788.244	55.82
788.421	56.35
788.599	57.38
788.776	57.93
788.954	57.45
789.131	57.16
789.309	56.55
789.486	57.03
789.664	56
789.841	56.81
790.019	56.57
790.196	56.71
790.373	56.29
790.551	54.73
790.728	54.35
790.906	54.42
791.083	53.8
791.26	53.42
791.437	53.23
791.615	53.57
791.792	53.58
791.969	54.74
792.146	54.99
792.324	55.12
792.501	55.27
792.678	55.29
792.855	55.67
793.032	54.71
793.209	55.31
793.387	55.1
793.564	54.85
793.741	55.13
793.918	55.52
794.095	55.71
794.272	55.88
794.449	56.01
794.626	56.11
794.803	56.28
794.98	56.13
795.157	56.64
795.334	56.2
795.511	55.68
795.688	55.48
795.864	54.87
796.041	55.22
796.218	55.13
796.395	55.74
796.572	54.49
796.749	54.94
796.925	56.08
797.102	55.74
797.279	56.22
797.456	57.12
797.632	56.45
797.809	57.03
797.986	56.1
798.162	57.22
798.339	56.93
798.516	58.64
798.692	58.91
798.869	58.67
799.046	57.82
799.222	57.03
799.399	56.64
799.575	56.18
799.752	55.64
799.928	55.83
800.105	54.4
800.281	54.35
800.458	53.63
800.634	52.26
800.811	52.29
800.987	52.08
801.163	52.09
801.34	52.04
801.516	52.56
801.692	52.18
801.869	52.59
802.045	51.72
802.221	52.12
802.398	52.02
802.574	52.47
802.75	51.02
802.926	50.27
803.103	50.97
803.279	51.07
803.455	50.93
803.631	51.15
803.807	50.06
803.983	50.92
804.16	49.65
804.336	49.14
804.512	48.62
804.688	51.25
804.864	53.9
805.04	53.97
805.216	53.46
805.392	54.46
805.568	56.26
805.744	57.63
805.92	57.58
806.096	59.5
806.272	60.43
806.448	61.59
806.623	59.46
806.799	58.54
806.975	58.34
807.151	58.71
807.327	57.03
807.503	54.79
807.678	54.71
807.854	55
808.03	54.43
808.206	54.37
808.381	53.94
808.557	54.86
808.733	54.96
808.908	55.23
809.084	54.89
809.26	55.43
809.435	56.29
809.611	54.77
809.787	55.6
809.962	55.23
810.138	53.7
810.313	53.98
810.489	53.95
810.664	53.71
810.84	52.43
811.015	52.58
811.191	52.77
811.366	52.12
811.542	53.63
811.717	53.98
811.892	56.19
812.068	55.16
812.243	55.31
812.419	54.35
812.594	54.78
812.769	54.47
812.944	53.92
813.12	53.91
813.295	54.96
813.47	54.15
813.645	52.55
813.821	50.69
813.996	51.92
814.171	51.51
814.346	51.78
814.521	50.27
814.697	50.94
814.872	50.31
815.047	48.79
815.222	46.9
815.397	46.6
815.572	46.42
815.747	44.98
815.922	45.04
816.097	43.73
816.272	43.75
816.447	44.04
816.622	45.29
816.797	45.46
816.972	46.62
817.147	47.67
817.322	48.23
817.496	46.38
817.671	45.83
817.846	45.44
818.021	45.49
818.196	45.84
818.371	46.35
818.545	45.6
818.72	45.97
818.895	45.18
819.069	44.63
819.244	43.97
819.419	45.59
819.594	46.76
819.768	46.96
819.943	46.76
820.117	46.14
820.292	45.63
820.467	44.56
820.641	43.83
820.816	43.46
820.99	43.18
821.165	42.89
821.339	42.58
821.514	41.74
821.688	41.51
821.863	41.42
822.037	40.99
822.212	40.92
822.386	40.77
822.56	40.66
822.735	40.52
822.909	40.25
823.084	40.12
823.258	39.67
823.432	39.82
823.606	39.68
823.781	39.75
823.955	39.97
824.129	39.74
824.303	39.86
824.478	40.02
824.652	40.22
824.826	40.4
825	40.21
825.174	40.8
825.348	41.06
825.523	41.36
825.697	40.78
825.871	40.71
826.045	40.72
826.219	40.6
826.393	40.5
826.567	40.75
826.741	40.84
826.915	41.21
827.089	41.04
827.263	40.63
827.437	40.35
827.611	40.78
827.784	41.01
827.958	40.89
828.132	40.91
828.306	40.8
828.48	40.63
828.654	41.08
828.827	40.9
829.001	40.98
829.175	41.01
829.349	41.75
829.522	42.27
829.696	42.13
829.87	42.96
830.044	42.89
830.217	43.21
830.391	43.93
830.565	43.23
830.738	43.78
830.912	43.5
831.085	44.11
831.259	42.66
831.432	41.03
831.606	39.86
831.779	38.32
831.953	39.5
832.126	39.26
832.3	39.09
832.473	40.12
832.647	39.96
832.82	39.47
832.994	40.1
833.167	40.81
833.34	40.78
833.514	41.28
833.687	41.7
833.86	40.94
834.034	40.66
834.207	40.46
834.38	39.83
834.553	40.18
834.727	40.28
834.9	40.06
835.073	40.09
835.246	40.7
835.419	40.81
835.593	41.12
835.766	41.01
835.939	41.26
836.112	41.83
836.285	42.48
836.458	42.06
836.631	43.33
836.804	43.6
836.977	43.51
837.15	44.65
837.323	44.18
837.496	44.85
837.669	46.45
837.842	48.47
838.015	48.44
838.188	48.65
838.361	49.38
838.533	48.96
838.706	48.92
838.879	50.98
839.052	48.68
839.225	49.82
839.398	48.57
839.57	47.53
839.743	45.47
839.916	44.88
840.088	45.47
840.261	45.98
840.434	45.98
840.607	45.75
840.779	45.21
840.952	45.58
841.124	45.33
841.297	45.09
841.47	46.03
841.642	46.02
841.815	46.78
841.987	45.34
842.16	46.32
842.332	45.79
842.505	44.58
842.677	43.07
842.85	44.4
843.022	47.14
843.194	46.6
843.367	46.24
843.539	48.47
843.712	47.59
843.884	49.58
844.056	48.97
844.229	50.2
844.401	53.61
844.573	56.01
844.745	56.46
844.918	54.03
845.09	57.21
845.262	57.42
845.434	57.1
845.606	59.79
845.779	57.4
845.951	58.7
846.123	58.77
846.295	59.25
846.467	57.2
846.639	57.69
846.811	59.54
846.983	59.41
847.155	59.34
847.327	56.46
847.499	55.48
847.671	59.1
847.843	58.6
848.015	59.93
848.187	60.51
848.359	61.45
848.531	60.14
848.703	59.43
848.875	58.86
849.047	59.44
849.218	64.43
849.39	63.64
849.562	60.58
849.734	63.05
849.905	59.92
850.077	54.75
850.249	52.63
850.421	52.88
850.592	52.98
850.764	49.54
850.936	48.22
851.107	47.14
851.279	47.33
851.451	49.85
851.622	48.42
851.794	51.44
851.965	52.75
852.137	54.02
852.308	51.53
852.48	50.98
852.651	56.5
852.823	60.27
852.994	58.12
853.166	54.98
853.337	54.12
853.509	49.6
853.68	47.82
853.851	44.24
854.023	43.74
854.194	45.94
854.365	46.55
854.537	44.2
854.708	43.54
854.879	40.47
855.05	42.94
855.222	40.22
855.393	42.83
855.564	43.42
855.735	47.7
855.906	48.08
856.078	46.58
856.249	42.69
856.42	44.77
856.591	45.02
856.762	48.24
856.933	47.24
857.104	49.79
857.275	50.09
857.446	52.54
857.617	53.44
857.788	51.55
857.959	53.67
858.13	58.44
858.301	58.67
858.472	64.26
858.643	65.97
858.814	66.55
858.985	64.74
859.155	66.63
859.326	63.36
859.497	65.84
859.668	71.21
859.839	69.85
860.009	70.49
860.18	68.69
860.351	63.22
860.522	61.94
860.692	65.29
860.863	70.45
861.034	68.17
861.204	70.55
861.375	64.02
861.546	61.57
861.716	64.19
861.887	58.92
862.057	61.01
862.228	61.14
862.398	60.77
862.569	58.36
862.739	52.43
862.91	50.15
863.08	48.33
863.251	53.76
863.421	52.75
863.592	56.3
863.762	61.57
863.932	59.72
864.103	55.17
864.273	56.35
864.443	54
864.614	57.85
864.784	60.55
864.954	61.4
865.125	62.5
865.295	62.54
865.465	56.25
865.635	52.93
865.805	54.04
865.976	54.49
866.146	54.91
866.316	53.35
866.486	52.89
866.656	52.54
866.826	50.06
866.996	46.58
867.166	47.14
867.336	47.34
867.506	45.06
867.676	42.78
867.846	46.51
868.016	43.74
868.186	52.33
868.356	52.31
868.526	49.38
868.696	49.25
868.866	48.12
869.036	44.89
869.206	46.89
869.376	51.27
869.545	55.99
869.715	52.99
869.885	59.65
870.055	54.13
870.224	51.57
870.394	47.51
870.564	51.95
870.734	51.43
870.903	55.78
871.073	52.1
871.243	55.27
871.412	47.32
871.582	47.24
871.751	44.7
871.921	48.83
872.091	47.24
872.26	51.08
872.43	47.43
872.599	48.36
872.769	46.27
872.938	47.27
873.108	41.56
873.277	46.26
873.446	54.84
873.616	53.9
873.785	46.68
873.955	52
874.124	50.28
874.293	49.52
874.463	46.67
874.632	44.65
874.801	47.19
874.971	48.56
875.14	49.6
875.309	44.69
875.478	38.97
875.647	41.58
875.817	40.61
875.986	43.32
876.155	45.06
876.324	49.04
876.493	52.78
876.662	49.73
876.831	54.14
877	53.34
877.17	57.66
877.339	61.87
877.508	60.28
877.677	54.25
877.846	50.96
878.015	49.35
878.184	49.08
878.352	49.48
878.521	52.07
878.69	48.91
878.859	46.39
879.028	41.03
879.197	36.82
879.366	38.09
879.534	40.92
879.703	42.05
879.872	39.53
880.041	38.33
880.21	36.28
880.378	33.66
880.547	32.23
880.716	31.59
880.884	31.08
881.053	31.57
881.222	31.21
881.39	30.72
881.559	30.12
881.727	30.19
881.896	29.27
882.065	29.58
882.233	29.9
882.402	29.65
882.57	29.41
882.739	29.04
882.907	28.88
883.076	28.19
883.244	28.01
883.412	27.63
883.581	27.17
883.749	27.59
883.918	27.3
884.086	27.08
884.254	28.15
884.423	28.5
884.591	28.65
884.759	29.09
884.927	29.56
885.096	28.53
885.264	29.49
885.432	30.54
885.6	31.07
885.769	32.19
885.937	32.84
886.105	31.63
886.273	31.87
886.441	34.64
886.609	34.61
886.777	36.3
886.945	40.2
887.113	41.53
887.281	43.19
887.449	40.29
887.617	37.62
887.785	36.5
887.953	37.58
888.121	39.19
888.289	35.43
888.457	37.25
888.625	38.67
888.793	34.95
888.961	35.49
889.129	33.92
889.296	35.64
889.464	36.48
889.632	37.15
889.8	35.5
889.967	33.62
890.135	37.86
