Data from 2938797__Reflection_02.txt Node
Date: Thu Mar 12 23:12:57 EDT 2015
User: robert
Spectrometer: USB4E03002
Autoset integration time: false
Trigger mode: 4
Integration Time (sec): 1.000000E-1
Scans to average: 10
Electric dark correction enabled: false
Nonlinearity correction enabled: false
Boxcar width: 5
Stray light correction enabled: false
XAxis mode: Wavelengths
Stop averaging: false
Number of Pixels in Spectrum: 3648
>>>>>Begin Spectral Data<<<<<
177.575	75.47
177.794	88.97
178.014	157.72
178.233	201.84
178.452	252.41
178.672	169.01
178.891	262.39
179.11	324.07
179.33	385.38
179.549	-510
179.768	-461.86
179.987	-1294.87
180.207	538.71
180.426	315.66
180.645	198.14
180.864	161.86
181.084	223.77
181.303	202.34
181.522	194.02
181.741	242.42
181.96	154.32
182.179	96.46
182.398	96.17
182.618	135.77
182.837	153.19
183.056	246.05
183.275	325.49
183.494	186.05
183.713	198.34
183.932	206.78
184.151	103.64
184.37	221.82
184.589	-2100
184.808	-81.68
185.027	44.79
185.246	156.12
185.465	-781.82
185.684	254.55
185.903	1104.35
186.122	-400
186.341	4.26
186.56	59.72
186.779	74.26
186.998	56.71
187.216	71.74
187.435	84.15
187.654	104.35
187.873	139.72
188.092	118.34
188.311	170.99
188.53	345.65
188.748	944
188.967	240.37
189.186	2738.46
189.405	-261.95
189.623	4812.5
189.842	2680.95
190.061	-536.13
190.28	-517.71
190.498	-594.12
190.717	-298.21
190.936	-2537.5
191.154	1125.93
191.373	529.81
191.592	-6685.71
191.81	-909.26
192.029	1804.17
192.248	490
192.466	111.11
192.685	248.65
192.904	287.18
193.122	72.41
193.341	149
193.559	70.36
193.778	91.28
193.996	89.22
194.215	113.74
194.433	116.7
194.652	125.1
194.87	243.04
195.089	160.19
195.307	153.1
195.526	163.93
195.744	188.35
195.963	2766.67
196.181	-64.39
196.399	-108.47
196.618	-3.7
196.836	52.67
197.055	48.4
197.273	102.94
197.491	49.65
197.71	71.87
197.928	52.13
198.146	41.55
198.365	-23.83
198.583	42.14
198.801	56.56
199.019	9.13
199.238	18.52
199.456	-482.35
199.674	22.67
199.892	-61.26
200.111	51.85
200.329	5866.67
200.547	-99.4
200.765	-271.79
200.983	757.89
201.202	-366.67
201.42	84.83
201.638	12.82
201.856	-31.09
202.074	-95.83
202.292	-91.67
202.51	-94.67
202.728	-295.62
202.946	-79.74
203.165	-49.87
203.383	-54.67
203.601	-80.9
203.819	-157.87
204.037	-275.9
204.255	-41.76
204.473	14.31
204.691	31.57
204.909	38.14
205.127	29.03
205.345	-90.58
205.562	-677.08
205.78	0
205.998	-114.22
206.216	-77.05
206.434	-24.7
206.652	-64.59
206.87	-127.66
207.088	-72.28
207.306	-55.35
207.523	-29.49
207.741	-4.66
207.959	19.01
208.177	25.31
208.395	15.68
208.612	36.02
208.83	33.67
209.048	60.62
209.266	46.01
209.483	29.95
209.701	16.04
209.919	-2.16
210.136	-15.6
210.354	-64.55
210.572	-151.29
210.79	-138.3
211.007	-219.08
211.225	-461.78
211.442	-266.35
211.66	-162.42
211.878	-229.73
212.095	421.27
212.313	590.61
212.53	974.65
212.748	934.31
212.966	-1256.32
213.183	-808.13
213.401	-494.69
213.618	-594.8
213.836	-1286.9
214.053	-1632.81
214.271	-349.79
214.488	-9.64
214.705	-10.93
214.923	-7.25
215.14	-9.81
215.358	-24.19
215.575	-32.76
215.793	-29.23
216.01	-38.78
216.227	-25
216.445	-8.49
216.662	-19.65
216.879	-21.58
217.097	-8.63
217.314	15.5
217.531	-3.84
217.749	-1.42
217.966	-5.68
218.183	-16.05
218.4	-0.09
218.618	-12.64
218.835	-13.05
219.052	-23.49
219.269	-18.34
219.487	-27.92
219.704	-46.72
219.921	-28.04
220.138	-38.88
220.355	-38.31
220.572	-36.01
220.79	-44.64
221.007	-47.61
221.224	-46.25
221.441	-29.32
221.658	-22.61
221.875	-16.06
222.092	-18.76
222.309	-18.93
222.526	-15.78
222.743	-10.49
222.96	-4.71
223.177	-3
223.394	-0.9
223.611	5.55
223.828	0.55
224.045	1.1
224.262	-3.36
224.479	0.62
224.696	1.45
224.913	2.06
225.13	4.28
225.347	1.25
225.564	1.31
225.781	2.24
225.997	-0.14
226.214	3.8
226.431	0.44
226.648	2.35
226.865	5.43
227.082	4.83
227.298	8.32
227.515	7.32
227.732	8.97
227.949	9.14
228.165	9.47
228.382	9.19
228.599	8.76
228.816	9.49
229.032	9.97
229.249	9.13
229.466	9.54
229.682	9.27
229.899	9.76
230.116	9.7
230.332	9.67
230.549	10.46
230.765	10.71
230.982	10.94
231.199	10.79
231.415	10.44
231.632	9.53
231.848	8.9
232.065	5.94
232.281	4.68
232.498	3.44
232.714	2.61
232.931	0.77
233.147	-0.52
233.364	-2.3
233.58	-1.91
233.797	-1.46
234.013	-0.5
234.23	1.03
234.446	1.94
234.662	2.19
234.879	1.49
235.095	1.58
235.312	1.86
235.528	1.78
235.744	3.84
235.961	3.23
236.177	2.16
236.393	2.63
236.61	-0.23
236.826	0.9
237.042	-0.04
237.258	0.5
237.475	0.59
237.691	-0.09
237.907	-0.09
238.123	-2.93
238.339	-3.09
238.556	-2.61
238.772	-3.47
238.988	-2.52
239.204	-1.87
239.42	0.72
239.636	-0.49
239.853	0.59
240.069	0.84
240.285	1.85
240.501	2.73
240.717	2.92
240.933	3.16
241.149	4.25
241.365	5.02
241.581	4.36
241.797	3.73
242.013	4.61
242.229	4.44
242.445	4.64
242.661	5.33
242.877	5.42
243.093	5.41
243.309	5.21
243.525	4.26
243.741	4.4
243.957	4.67
244.173	4.6
244.388	4.64
244.604	4.71
244.82	4.08
245.036	3.27
245.252	3.88
245.468	4.68
245.683	4.54
245.899	4.96
246.115	4.87
246.331	4.76
246.547	4.89
246.762	4.96
246.978	5.01
247.194	5.13
247.409	5.07
247.625	4.8
247.841	4.29
248.057	4.62
248.272	4.55
248.488	4.22
248.703	4.48
248.919	4.59
249.135	4.74
249.35	4.57
249.566	4.92
249.782	5.22
249.997	5.29
250.213	5.9
250.428	5.74
250.644	5.89
250.859	6.73
251.075	6.43
251.29	6.73
251.506	6.14
251.721	6.51
251.937	6.51
252.152	6.23
252.368	6.04
252.583	5.79
252.798	5.32
253.014	5.69
253.229	5.51
253.445	5.28
253.66	3.75
253.875	3.54
254.091	2.84
254.306	2.42
254.521	1.48
254.737	2.04
254.952	2.08
255.167	2.44
255.383	1.14
255.598	0.06
255.813	-0.54
256.028	0.3
256.244	0.28
256.459	1.24
256.674	0.03
256.889	1.19
257.104	0.89
257.32	1.42
257.535	1.7
257.75	2.64
257.965	3.55
258.18	4.51
258.395	4.48
258.61	4.87
258.826	4.5
259.041	4.76
259.256	4.62
259.471	4.58
259.686	4.5
259.901	4.4
260.116	4.22
260.331	4.18
260.546	3.81
260.761	3.82
260.976	3.78
261.191	3.63
261.406	3.66
261.621	3.73
261.836	3.75
262.05	3.25
262.265	3.38
262.48	3.63
262.695	3.34
262.91	3.28
263.125	3.08
263.34	2.14
263.555	2.29
263.769	2.01
263.984	2
264.199	1.53
264.414	1.54
264.629	1.26
264.843	0.59
265.058	0.53
265.273	1.57
265.488	1.71
265.702	2.29
265.917	1.84
266.132	2.17
266.346	1.78
266.561	2.3
266.776	3.05
266.99	3.31
267.205	3.04
267.42	3.07
267.634	2.3
267.849	2.58
268.063	2.37
268.278	2.88
268.492	2.82
268.707	2.86
268.922	2.98
269.136	2.4
269.351	1.96
269.565	2.32
269.78	2.45
269.994	3.12
270.209	3
270.423	3.31
270.637	3.45
270.852	3.29
271.066	3.16
271.281	3.12
271.495	3.45
271.709	3.2
271.924	3.27
272.138	3.29
272.353	3.19
272.567	3.25
272.781	3.28
272.996	3.05
273.21	3.41
273.424	3.42
273.638	3.53
273.853	3.51
274.067	4.1
274.281	4.31
274.495	4.14
274.71	4.14
274.924	4.12
275.138	3.73
275.352	3.52
275.566	3.45
275.781	4.08
275.995	3.64
276.209	3.28
276.423	3.05
276.637	3.01
276.851	3.2
277.065	2.94
277.279	2.83
277.493	3.35
277.707	3.36
277.921	2.95
278.135	2.34
278.349	2.29
278.563	2.09
278.777	2.06
278.991	2.15
279.205	2.16
279.419	2.18
279.633	2.61
279.847	2.47
280.061	2.9
280.275	2.8
280.489	2.53
280.703	2.94
280.917	3.23
281.131	2.91
281.344	2.95
281.558	2.86
281.772	2.78
281.986	2.7
282.2	2.47
282.414	2.33
282.627	2.66
282.841	3.16
283.055	3.12
283.269	3.29
283.482	3.26
283.696	3.01
283.91	2.82
284.123	3.01
284.337	2.71
284.551	3.39
284.764	3.44
284.978	3.23
285.192	3.08
285.405	3.16
285.619	3.17
285.833	3.58
286.046	3.62
286.26	3.98
286.473	3.93
286.687	4.04
286.9	3.54
287.114	3.4
287.327	3.6
287.541	3.58
287.754	3.34
287.968	2.99
288.181	2.82
288.395	2.92
288.608	2.87
288.822	3.24
289.035	3.06
289.248	3.05
289.462	3.12
289.675	3.18
289.889	3.31
290.102	3.35
290.315	3.34
290.529	3.7
290.742	3.68
290.955	3.51
291.169	3.25
291.382	3.35
291.595	3.5
291.808	3.45
292.022	2.97
292.235	2.99
292.448	2.94
292.661	3.14
292.875	2.79
293.088	2.7
293.301	3
293.514	3.06
293.727	3.19
293.94	3.31
294.153	3.42
294.367	3.45
294.58	3.23
294.793	3.84
295.006	4.07
295.219	3.99
295.432	4.2
295.645	4.07
295.858	4.04
296.071	4.32
296.284	3.93
296.497	4.28
296.71	4.51
296.923	4.61
297.136	4.03
297.349	3.86
297.562	4.03
297.775	3.82
297.988	3.75
298.201	3.77
298.414	3.48
298.626	3.72
298.839	3.39
299.052	3.48
299.265	3.61
299.478	3.88
299.691	4.17
299.903	3.61
300.116	3.56
300.329	3.51
300.542	3.17
300.755	2.99
300.967	3.1
301.18	3.22
301.393	3.05
301.605	2.91
301.818	2.83
302.031	2.94
302.243	3.51
302.456	3.95
302.669	3.92
302.881	4.51
303.094	4.75
303.307	4.82
303.519	4.86
303.732	4.89
303.944	5.04
304.157	5.31
304.37	4.99
304.582	5.3
304.795	5.08
305.007	5.07
305.22	4.59
305.432	4.44
305.645	4.68
305.857	4.45
306.069	4.7
306.282	4.55
306.494	4.23
306.707	4.31
306.919	3.76
307.132	3.78
307.344	4.25
307.556	4.62
307.769	4.87
307.981	4.59
308.193	4.73
308.406	4.59
308.618	4.92
308.83	4.88
309.043	4.96
309.255	4.83
309.467	4.92
309.679	4.8
309.892	4.85
310.104	5.03
310.316	5.13
310.528	4.87
310.74	4.57
310.953	4.41
311.165	4.54
311.377	4.49
311.589	5.03
311.801	4.73
312.013	4.84
312.225	4.8
312.437	4.75
312.649	4.46
312.862	4.84
313.074	5.24
313.286	5.23
313.498	5.29
313.71	5.3
313.922	4.75
314.134	4.98
314.346	4.88
314.558	4.97
314.77	5.15
314.982	5.31
315.193	5.28
315.405	4.99
315.617	4.81
315.829	4.68
316.041	4.71
316.253	4.9
316.465	4.79
316.677	4.7
316.888	4.9
317.1	4.91
317.312	4.78
317.524	4.88
317.736	4.95
317.947	5.43
318.159	5.32
318.371	5.23
318.583	5.37
318.794	5.8
319.006	5.87
319.218	5.58
319.43	5.13
319.641	5.32
319.853	4.95
320.064	5.48
320.276	5.82
320.488	6.01
320.699	6.44
320.911	6.71
321.123	6.57
321.334	6.26
321.546	6.35
321.757	6.47
321.969	6.51
322.18	6.72
322.392	6.61
322.603	6.15
322.815	6.14
323.026	5.8
323.238	5.53
323.449	5.32
323.661	5.85
323.872	5.88
324.083	5.92
324.295	5.99
324.506	5.85
324.718	5.57
324.929	5.3
325.14	5.35
325.352	5.26
325.563	5.32
325.774	5.69
325.986	5.63
326.197	5.67
326.408	5.79
326.62	5.82
326.831	6.14
327.042	6.48
327.253	6.74
327.464	6.88
327.676	7.2
327.887	7.32
328.098	7.36
328.309	7.07
328.52	7.19
328.732	7.1
328.943	7.41
329.154	7.06
329.365	6.83
329.576	6.53
329.787	6.34
329.998	6.03
330.209	5.95
330.42	6.08
330.631	6.3
330.842	6.2
331.053	6.05
331.264	6.05
331.475	6.16
331.686	6.5
331.897	6.7
332.108	6.67
332.319	6.89
332.53	6.74
332.741	6.46
332.952	6.73
333.163	6.4
333.374	6.7
333.585	6.56
333.795	6.64
334.006	6.53
334.217	6.77
334.428	6.94
334.639	6.89
334.849	6.86
335.06	6.95
335.271	6.87
335.482	7.08
335.692	6.96
335.903	6.93
336.114	6.75
336.325	6.66
336.535	6.42
336.746	6.27
336.957	6.23
337.167	6.38
337.378	6.38
337.589	6.29
337.799	6.09
338.01	6.26
338.22	6.22
338.431	6.49
338.642	6.5
338.852	6.75
339.063	6.75
339.273	6.59
339.484	6.78
339.694	6.84
339.905	6.63
340.115	6.98
340.326	6.6
340.536	6.52
340.746	6.74
340.957	6.67
341.167	6.45
341.378	6.6
341.588	6.88
341.799	6.74
342.009	6.65
342.219	6.44
342.43	6.09
342.64	6.3
342.85	6.27
343.061	6.06
343.271	6.17
343.481	5.98
343.691	5.87
343.902	5.65
344.112	5.54
344.322	5.66
344.532	5.74
344.743	6.03
344.953	6.21
345.163	6.17
345.373	6.04
345.583	5.9
345.793	6.01
346.004	6.12
346.214	6.21
346.424	6.55
346.634	6.33
346.844	6.26
347.054	6.32
347.264	6.09
347.474	6.39
347.684	6.23
347.894	6.31
348.104	6.54
348.314	6.39
348.524	6.14
348.734	5.88
348.944	5.98
349.154	5.91
349.364	5.64
349.574	5.48
349.784	5.39
349.994	5.43
350.204	5.59
350.413	5.14
350.623	5.06
350.833	5.32
351.043	5.44
351.253	5.35
351.463	5.79
351.672	5.86
351.882	5.75
352.092	5.54
352.302	5.46
352.511	5.27
352.721	5.54
352.931	5.57
353.141	5.62
353.35	5.43
353.56	5.47
353.77	5.04
353.979	4.94
354.189	5.29
354.399	5.77
354.608	6.05
354.818	6.26
355.027	6.3
355.237	6.23
355.447	6.03
355.656	6.17
355.866	6.1
356.075	6.43
356.285	6.57
356.494	6.62
356.704	6.17
356.913	6.05
357.123	5.96
357.332	6.01
357.542	6.04
357.751	6.13
357.96	5.99
358.17	6.02
358.379	5.99
358.589	5.8
358.798	5.51
359.007	5.48
359.217	5.68
359.426	5.57
359.635	5.63
359.845	5.95
360.054	5.81
360.263	5.74
360.472	5.64
360.682	5.71
360.891	5.82
361.1	5.89
361.309	6.03
361.519	5.85
361.728	5.87
361.937	5.86
362.146	5.79
362.355	5.82
362.564	5.82
362.774	5.8
362.983	5.76
363.192	5.73
363.401	5.87
363.61	5.74
363.819	5.88
364.028	5.8
364.237	5.62
364.446	5.36
364.655	5.31
364.864	5.39
365.073	5.65
365.282	5.51
365.491	5.6
365.7	5.47
365.909	5.4
366.118	5.36
366.327	5.46
366.536	5.61
366.745	5.82
366.954	5.77
367.162	5.8
367.371	5.48
367.58	5.48
367.789	5.34
367.998	5.26
368.207	5.14
368.415	5.57
368.624	5.5
368.833	5.53
369.042	5.23
369.25	5.28
369.459	5.18
369.668	5.42
369.877	5.57
370.085	5.75
370.294	5.78
370.503	5.85
370.711	5.6
370.92	5.64
371.129	5.59
371.337	5.77
371.546	5.7
371.754	5.78
371.963	5.64
372.171	5.46
372.38	5.39
372.589	5.28
372.797	5.38
373.006	4.92
373.214	4.79
373.423	4.52
373.631	4.49
373.84	4.59
374.048	4.57
374.256	4.54
374.465	4.78
374.673	4.63
374.882	4.59
375.09	4.47
375.298	4.69
375.507	4.6
375.715	4.67
375.923	4.73
376.132	4.85
376.34	4.79
376.548	4.77
376.757	4.42
376.965	4.36
377.173	4.56
377.381	4.72
377.59	4.65
377.798	4.72
378.006	4.7
378.214	4.69
378.423	4.44
378.631	4.32
378.839	4.38
379.047	4.61
379.255	4.47
379.463	4.47
379.671	4.19
379.879	4.19
380.088	3.95
380.296	3.98
380.504	3.88
380.712	4.13
380.92	3.98
381.128	3.95
381.336	3.79
381.544	3.83
381.752	3.64
381.96	3.99
382.168	3.82
382.376	4.08
382.584	4.06
382.791	3.91
382.999	3.69
383.207	3.84
383.415	3.98
383.623	3.88
383.831	4.09
384.039	4.19
384.247	4.05
384.454	4.21
384.662	3.93
384.87	3.94
385.078	4.06
385.285	4.25
385.493	4.27
385.701	4.16
385.909	4.28
386.116	4.03
386.324	3.89
386.532	3.9
386.739	3.88
386.947	4.26
387.155	4.27
387.362	4.39
387.57	4.21
387.778	4.22
387.985	4.38
388.193	4.36
388.4	4.45
388.608	4.37
388.816	4.19
389.023	4.12
389.231	3.69
389.438	3.71
389.646	3.67
389.853	3.52
390.061	3.23
390.268	2.95
390.475	3.02
390.683	3
390.89	3.05
391.098	3.11
391.305	3.06
391.512	3.09
391.72	3.1
391.927	3.16
392.135	3.35
392.342	3.51
392.549	3.55
392.756	3.49
392.964	3.41
393.171	3.46
393.378	3.35
393.586	3.37
393.793	3.55
394	3.44
394.207	3.43
394.414	3.63
394.622	3.53
394.829	3.7
395.036	3.61
395.243	3.76
395.45	3.75
395.657	3.95
395.864	3.98
396.072	3.76
396.279	3.76
396.486	3.53
396.693	3.35
396.9	3.64
397.107	3.49
397.314	3.46
397.521	3.51
397.728	3.32
397.935	3.06
398.142	2.92
398.349	3.08
398.556	3.07
398.763	3.04
398.97	2.89
399.177	2.78
399.383	2.67
399.59	2.65
399.797	2.42
400.004	2.65
400.211	2.66
400.418	2.61
400.625	2.39
400.831	2.48
401.038	2.27
401.245	2.38
401.452	2.15
401.658	2.27
401.865	2.45
402.072	2.72
402.279	2.54
402.485	2.55
402.692	2.6
402.899	2.74
403.105	2.62
403.312	2.73
403.519	2.78
403.725	2.88
403.932	2.79
404.138	2.72
404.345	2.5
404.552	2.6
404.758	2.67
404.965	2.81
405.171	2.81
405.378	2.72
405.584	2.77
405.791	2.8
405.997	2.73
406.204	2.86
406.41	2.71
406.617	2.91
406.823	2.97
407.029	3.11
407.236	3.1
407.442	2.97
407.649	3.07
407.855	3.25
408.061	3.09
408.268	3.14
408.474	3.12
408.68	3.27
408.887	3.07
409.093	3
409.299	2.83
409.505	2.75
409.712	3
409.918	3.03
410.124	2.84
410.33	2.89
410.537	3
410.743	2.81
410.949	2.86
411.155	3.05
411.361	2.89
411.567	2.87
411.773	2.85
411.98	2.85
412.186	2.84
412.392	2.84
412.598	2.7
412.804	2.63
413.01	2.66
413.216	2.43
413.422	2.41
413.628	2.53
413.834	2.81
414.04	2.88
414.246	2.77
414.452	2.64
414.658	2.55
414.864	2.66
415.07	2.7
415.275	2.79
415.481	2.92
415.687	2.87
415.893	2.87
416.099	2.72
416.305	2.74
416.511	2.74
416.716	2.78
416.922	2.85
417.128	2.82
417.334	2.76
417.539	2.72
417.745	2.66
417.951	2.57
418.157	2.59
418.362	2.58
418.568	2.56
418.774	2.56
418.979	2.53
419.185	2.54
419.391	2.45
419.596	2.5
419.802	2.56
420.008	2.64
420.213	3.31
420.419	3.33
420.624	3.25
420.83	3.25
421.035	3.3
421.241	3.41
421.446	3.39
421.652	3.49
421.857	3.42
422.063	3.37
422.268	3.26
422.474	2.67
422.679	2.63
422.885	2.66
423.09	2.67
423.295	2.57
423.501	2.54
423.706	2.56
423.911	2.5
424.117	2.58
424.322	2.6
424.527	2.61
424.733	2.59
424.938	2.52
425.143	2.54
425.349	2.48
425.554	2.55
425.759	2.51
425.964	2.47
426.169	2.49
426.375	2.55
426.58	2.46
426.785	2.45
426.99	2.49
427.195	2.58
427.4	2.59
427.605	2.61
427.811	2.57
428.016	2.54
428.221	2.62
428.426	2.61
428.631	2.32
428.836	2.54
429.041	2.63
429.246	2.7
429.451	2.75
429.656	2.72
429.861	2.73
430.066	2.77
430.271	2.88
430.476	2.81
430.681	2.75
430.886	2.9
431.09	2.72
431.295	2.71
431.5	2.7
431.705	2.59
431.91	2.72
432.115	2.69
432.32	2.66
432.524	2.58
432.729	2.64
432.934	2.68
433.139	2.73
433.343	2.78
433.548	2.79
433.753	2.71
433.958	2.73
434.162	2.59
434.367	2.58
434.572	2.61
434.776	2.72
434.981	2.84
435.186	2.83
435.39	2.73
435.595	2.78
435.799	2.85
436.004	2.85
436.209	2.92
436.413	2.89
436.618	2.94
436.822	2.95
437.027	2.87
437.231	2.65
437.436	2.72
437.64	2.75
437.845	2.63
438.049	2.53
438.253	2.46
438.458	2.28
438.662	2.35
438.867	2.32
439.071	2.22
439.275	2.26
439.48	2.29
439.684	2.24
439.888	2.24
440.093	2.24
440.297	2.23
440.501	2.24
440.706	2.33
440.91	2.34
441.114	2.34
441.318	2.37
441.523	2.31
441.727	2.35
441.931	2.46
442.135	2.43
442.339	2.5
442.543	2.59
442.748	2.73
442.952	2.79
443.156	2.74
443.36	2.75
443.564	2.81
443.768	2.79
443.972	2.71
444.176	2.57
444.38	2.64
444.584	2.6
444.788	2.45
444.992	2.33
445.196	2.32
445.4	2.37
445.604	2.39
445.808	2.35
446.012	2.32
446.216	2.35
446.42	2.37
446.624	2.37
446.828	2.36
447.032	2.37
447.235	2.36
447.439	2.38
447.643	2.33
447.847	2.27
448.051	2.31
448.254	2.29
448.458	2.34
448.662	2.43
448.866	2.41
449.069	2.37
449.273	2.39
449.477	2.49
449.681	2.34
449.884	2.33
450.088	2.3
450.292	2.37
450.495	2.53
450.699	2.48
450.902	2.35
451.106	2.35
451.31	2.32
451.513	2.35
451.717	2.28
451.92	2.39
452.124	2.45
452.327	2.58
452.531	2.46
452.734	2.35
452.938	2.42
453.141	2.46
453.345	2.59
453.548	2.71
453.752	2.75
453.955	2.68
454.158	2.68
454.362	2.59
454.565	2.58
454.769	2.5
454.972	2.43
455.175	2.42
455.379	2.43
455.582	2.21
455.785	2.21
455.988	2.17
456.192	2.28
456.395	2.29
456.598	2.3
456.801	2.33
457.005	2.41
457.208	2.5
457.411	2.42
457.614	2.41
457.817	2.54
458.021	2.54
458.224	2.55
458.427	2.49
458.63	2.5
458.833	2.54
459.036	2.45
459.239	2.47
459.442	2.49
459.645	2.49
459.848	2.53
460.051	2.46
460.254	2.45
460.457	2.43
460.66	2.44
460.863	2.42
461.066	2.42
461.269	2.48
461.472	2.55
461.675	2.54
461.878	2.49
462.081	2.45
462.284	2.52
462.486	2.55
462.689	2.56
462.892	2.56
463.095	2.48
463.298	2.45
463.5	2.47
463.703	2.31
463.906	2.32
464.109	2.36
464.311	2.36
464.514	2.41
464.717	2.38
464.92	2.39
465.122	2.44
465.325	2.55
465.528	2.61
465.73	2.5
465.933	2.61
466.135	2.64
466.338	2.62
466.541	2.59
466.743	2.5
466.946	2.42
467.148	2.37
467.351	2.35
467.553	2.3
467.756	2.31
467.958	2.47
468.161	2.5
468.363	2.49
468.566	2.47
468.768	2.53
468.971	2.56
469.173	2.68
469.375	2.72
469.578	2.61
469.78	2.65
469.983	2.59
470.185	2.41
470.387	2.4
470.59	2.49
470.792	2.54
470.994	2.46
471.196	2.43
471.399	2.44
471.601	2.53
471.803	2.68
472.005	2.76
472.208	2.8
472.41	2.79
472.612	2.74
472.814	2.64
473.016	2.73
473.218	2.8
473.421	2.82
473.623	2.8
473.825	2.73
474.027	2.57
474.229	2.48
474.431	2.43
474.633	2.47
474.835	2.47
475.037	2.58
475.239	2.55
475.441	2.49
475.643	2.58
475.845	2.63
476.047	2.67
476.249	2.79
476.451	2.78
476.653	2.75
476.855	2.77
477.057	2.73
477.258	2.71
477.46	2.72
477.662	2.66
477.864	2.51
478.066	2.4
478.268	2.43
478.469	2.46
478.671	2.55
478.873	2.56
479.075	2.54
479.276	2.65
479.478	2.58
479.68	2.54
479.882	2.59
480.083	2.72
480.285	2.77
480.487	2.74
480.688	2.69
480.89	2.68
481.091	2.71
481.293	2.67
481.495	2.56
481.696	2.52
481.898	2.5
482.099	2.47
482.301	2.42
482.502	2.39
482.704	2.38
482.905	2.38
483.107	2.37
483.308	2.38
483.51	2.4
483.711	2.43
483.913	2.45
484.114	2.46
484.315	2.49
484.517	2.5
484.718	2.52
484.92	2.53
485.121	2.53
485.322	2.53
485.524	2.55
485.725	2.53
485.926	2.54
486.127	2.52
486.329	2.52
486.53	2.51
486.731	2.49
486.932	2.49
487.134	2.49
487.335	2.52
487.536	2.51
487.737	2.48
487.938	2.49
488.139	2.46
488.341	2.47
488.542	2.47
488.743	2.48
488.944	2.48
489.145	2.48
489.346	2.48
489.547	2.51
489.748	2.51
489.949	2.5
490.15	2.53
490.351	2.54
490.552	2.54
490.753	2.56
490.954	2.54
491.155	2.56
491.356	2.57
491.557	2.57
491.758	2.51
491.959	2.51
492.159	2.55
492.36	2.56
492.561	2.57
492.762	2.58
492.963	2.55
493.164	2.54
493.364	2.56
493.565	2.56
493.766	2.58
493.967	2.63
494.167	2.65
494.368	2.7
494.569	2.72
494.769	2.72
494.97	2.66
495.171	2.66
495.371	2.72
495.572	2.64
495.773	2.64
495.973	2.68
496.174	2.65
496.375	2.61
496.575	2.54
496.776	2.5
496.976	2.46
497.177	2.55
497.377	2.56
497.578	2.57
497.778	2.58
497.979	2.57
498.179	2.55
498.38	2.57
498.58	2.63
498.78	2.74
498.981	2.7
499.181	2.77
499.382	2.7
499.582	2.71
499.782	2.71
499.983	2.76
500.183	2.78
500.383	2.78
500.584	2.72
500.784	2.69
500.984	2.62
501.184	2.62
501.385	2.61
501.585	2.65
501.785	2.7
501.985	2.69
502.185	2.74
502.386	2.75
502.586	2.82
502.786	2.97
502.986	3.02
503.186	2.98
503.386	3.08
503.586	3.05
503.786	3.07
503.987	3.07
504.187	3.14
504.387	3.18
504.587	3.18
504.787	3.11
504.987	3.09
505.187	3.19
505.387	3.27
505.587	3.3
505.786	3.38
505.986	3.47
506.186	3.49
506.386	3.44
506.586	3.47
506.786	3.5
506.986	3.52
507.186	3.55
507.386	3.48
507.585	3.46
507.785	3.5
507.985	3.55
508.185	3.52
508.384	3.58
508.584	3.68
508.784	3.62
508.984	3.65
509.183	3.73
509.383	3.66
509.583	3.65
509.782	3.69
509.982	3.66
510.182	3.71
510.381	3.78
510.581	3.86
510.781	3.79
510.98	3.82
511.18	3.93
511.379	3.88
511.579	4.03
511.778	4.12
511.978	4.12
512.177	4.21
512.377	4.18
512.576	4.19
512.776	4.19
512.975	4.3
513.175	4.36
513.374	4.28
513.573	4.41
513.773	4.39
513.972	4.38
514.172	4.51
514.371	4.52
514.57	4.65
514.77	4.62
514.969	4.6
515.168	4.58
515.367	4.56
515.567	4.64
515.766	4.71
515.965	4.73
516.164	4.8
516.364	4.81
516.563	4.87
516.762	4.84
516.961	4.97
517.16	5.08
517.359	5.17
517.559	5.21
517.758	5.25
517.957	5.22
518.156	5.32
518.355	5.41
518.554	5.47
518.753	5.56
518.952	5.6
519.151	5.7
519.35	5.73
519.549	5.73
519.748	5.82
519.947	5.95
520.146	6.07
520.345	6.12
520.544	6.13
520.743	6.19
520.942	6.19
521.141	6.27
521.339	6.23
521.538	6.29
521.737	6.4
521.936	6.54
522.135	6.55
522.333	6.58
522.532	6.59
522.731	6.66
522.93	6.68
523.129	6.73
523.327	6.84
523.526	6.86
523.725	6.92
523.923	6.96
524.122	7
524.321	7.01
524.519	7.12
524.718	7.2
524.917	7.23
525.115	7.25
525.314	7.26
525.512	7.29
525.711	7.37
525.909	7.46
526.108	7.51
526.306	7.46
526.505	7.55
526.703	7.63
526.902	7.72
527.1	7.77
527.299	7.89
527.497	7.98
527.696	8.05
527.894	8.1
528.092	8.15
528.291	8.22
528.489	8.31
528.688	8.37
528.886	8.39
529.084	8.42
529.283	8.46
529.481	8.5
529.679	8.56
529.877	8.61
530.076	8.66
530.274	8.68
530.472	8.75
530.67	8.82
530.869	8.86
531.067	8.94
531.265	9
531.463	9.1
531.661	9.18
531.859	9.24
532.057	9.25
532.255	9.3
532.454	9.37
532.652	9.36
532.85	9.37
533.048	9.39
533.246	9.42
533.444	9.47
533.642	9.49
533.84	9.51
534.038	9.57
534.236	9.64
534.434	9.7
534.632	9.71
534.83	9.75
535.027	9.86
535.225	9.93
535.423	9.99
535.621	9.99
535.819	10.11
536.017	10.14
536.215	10.16
536.412	10.17
536.61	10.24
536.808	10.3
537.006	10.37
537.203	10.38
537.401	10.47
537.599	10.51
537.797	10.65
537.994	10.65
538.192	10.7
538.39	10.72
538.587	10.82
538.785	10.88
538.983	11
539.18	11.1
539.378	11.13
539.575	11.16
539.773	11.23
539.97	11.18
540.168	11.23
540.366	11.29
540.563	11.34
540.761	11.39
540.958	11.4
541.155	11.4
541.353	11.48
541.55	11.53
541.748	11.55
541.945	11.56
542.143	11.66
542.34	11.7
542.537	11.78
542.735	11.82
542.932	11.82
543.129	11.91
543.327	12
543.524	11.95
543.721	12.02
543.919	12.13
544.116	12.23
544.313	12.32
544.51	12.37
544.708	12.37
544.905	12.55
545.102	12.64
545.299	12.71
545.496	12.74
545.693	12.86
545.891	12.97
546.088	13
546.285	12.99
546.482	12.97
546.679	13.02
546.876	13.04
547.073	12.99
547.27	13.06
547.467	13.13
547.664	13.14
547.861	13.07
548.058	13.02
548.255	13.12
548.452	13.16
548.649	13.26
548.846	13.33
549.043	13.44
549.24	13.46
549.437	13.46
549.633	13.35
549.83	13.46
550.027	13.58
550.224	13.74
550.421	13.69
550.618	13.75
550.814	13.69
551.011	13.75
551.208	13.72
551.405	13.76
551.601	13.83
551.798	13.93
551.995	13.88
552.191	13.92
552.388	13.85
552.585	13.9
552.781	14
552.978	14.06
553.175	14.06
553.371	14.17
553.568	14.24
553.764	14.24
553.961	14.25
554.157	14.33
554.354	14.4
554.55	14.51
554.747	14.53
554.943	14.55
555.14	14.59
555.336	14.67
555.533	14.65
555.729	14.7
555.926	14.75
556.122	14.78
556.318	14.83
556.515	14.82
556.711	14.94
556.907	15.03
557.104	15.05
557.3	15.19
557.496	15.18
557.693	15.25
557.889	15.14
558.085	15.21
558.281	15.26
558.478	15.26
558.674	15.28
558.87	15.22
559.066	15.23
559.262	15.28
559.459	15.27
559.655	15.34
559.851	15.39
560.047	15.57
560.243	15.62
560.439	15.76
560.635	15.82
560.831	15.92
561.027	15.92
561.223	15.88
561.419	15.84
561.615	15.86
561.811	15.97
562.007	16.07
562.203	16.08
562.399	16.22
562.595	16.2
562.791	16.2
562.987	16.24
563.183	16.23
563.379	16.4
563.575	16.61
563.771	16.71
563.966	16.72
564.162	16.66
564.358	16.79
564.554	16.73
564.75	16.83
564.945	17.02
565.141	16.98
565.337	17.1
565.533	17.09
565.728	17.07
565.924	17.02
566.12	16.99
566.315	17.04
566.511	17.09
566.707	17.14
566.902	17.13
567.098	17.09
567.293	17.3
567.489	17.37
567.684	17.41
567.88	17.38
568.076	17.57
568.271	17.73
568.467	17.81
568.662	17.79
568.858	17.88
569.053	17.92
569.248	17.9
569.444	17.75
569.639	17.8
569.835	17.85
570.03	17.85
570.225	17.79
570.421	17.82
570.616	17.91
570.812	17.98
571.007	17.93
571.202	18.06
571.397	18.11
571.593	18.32
571.788	18.22
571.983	18.26
572.178	18.29
572.374	18.4
572.569	18.49
572.764	18.45
572.959	18.44
573.154	18.61
573.35	18.51
573.545	18.58
573.74	18.5
573.935	18.59
574.13	18.48
574.325	18.61
574.52	18.47
574.715	18.39
574.91	18.51
575.105	18.51
575.3	18.51
575.495	18.52
575.69	18.63
575.885	18.71
576.08	18.85
576.275	19.13
576.47	19.13
576.665	19.2
576.86	19.27
577.055	19.28
577.25	19.4
577.444	19.43
577.639	19.59
577.834	19.58
578.029	19.65
578.224	19.69
578.418	19.57
578.613	19.66
578.808	19.76
579.003	19.72
579.197	19.8
579.392	19.9
579.587	20.04
579.781	19.98
579.976	19.97
580.171	20.01
580.365	20.03
580.56	20.14
580.755	20.14
580.949	20.28
581.144	20.34
581.338	20.29
581.533	20.33
581.727	20.12
581.922	20.27
582.116	20.38
582.311	20.43
582.505	20.41
582.7	20.44
582.894	20.48
583.089	20.61
583.283	20.73
583.478	20.75
583.672	20.79
583.866	20.86
584.061	20.9
584.255	20.98
584.449	20.96
584.644	21.03
584.838	21.1
585.032	21.1
585.226	21.04
585.421	21.02
585.615	21.16
585.809	21.12
586.003	21.24
586.198	21.39
586.392	21.35
586.586	21.27
586.78	21.23
586.974	21.21
587.168	21.22
587.363	21.05
587.557	21.07
587.751	20.89
587.945	20.98
588.139	20.84
588.333	20.69
588.527	20.66
588.721	20.74
588.915	20.81
589.109	20.78
589.303	20.86
589.497	20.95
589.691	21.01
589.885	21.01
590.079	20.96
590.273	21.08
590.466	21.06
590.66	21.1
590.854	21.23
591.048	21.27
591.242	21.45
591.436	21.47
591.629	21.52
591.823	21.54
592.017	21.7
592.211	21.75
592.404	21.81
592.598	21.7
592.792	21.74
592.986	21.72
593.179	21.69
593.373	21.54
593.567	21.6
593.76	21.65
593.954	21.6
594.147	21.6
594.341	21.69
594.535	21.62
594.728	21.76
594.922	21.8
595.115	21.77
595.309	21.75
595.502	21.86
595.696	21.82
595.889	21.83
596.083	21.85
596.276	21.89
596.47	21.75
596.663	21.87
596.856	21.88
597.05	21.86
597.243	21.85
597.437	21.77
597.63	21.7
597.823	21.75
598.017	21.82
598.21	21.89
598.403	21.85
598.596	21.97
598.79	21.74
598.983	21.73
599.176	21.71
599.369	21.74
599.563	21.88
599.756	21.84
599.949	21.81
600.142	21.72
600.335	21.63
600.528	21.69
600.722	21.76
600.915	21.92
601.108	22.05
601.301	22.07
601.494	22.21
601.687	22.17
601.88	22.31
602.073	22.22
602.266	22.14
602.459	22.22
602.652	22.16
602.845	22.08
603.038	22.11
603.231	22.12
603.424	22.31
603.617	22.17
603.809	22.2
604.002	22.09
604.195	22.08
604.388	22.15
604.581	22.11
604.774	22.09
604.966	22.08
605.159	22.14
605.352	22.1
605.545	21.8
605.737	22
605.93	21.94
606.123	22.14
606.316	22.16
606.508	22.32
606.701	22.38
606.894	22.49
607.086	22.6
607.279	22.68
607.471	22.79
607.664	22.99
607.857	22.87
608.049	23.21
608.242	23.36
608.434	23.76
608.627	24.05
608.819	24.43
609.012	24.86
609.204	25.33
609.397	25.93
609.589	26.5
609.782	27.25
609.974	27.96
610.166	28.51
610.359	29.06
610.551	29.61
610.743	29.93
610.936	30.28
611.128	30.54
611.32	30.71
611.513	30.55
611.705	30.52
611.897	30.29
612.09	30.13
612.282	29.7
612.474	29.49
612.666	29.08
612.858	28.91
613.051	28.65
613.243	28.23
613.435	27.95
613.627	27.73
613.819	27.36
614.011	27.1
614.203	26.76
614.395	26.64
614.588	26.43
614.78	26.28
614.972	26.04
615.164	25.64
615.356	25.57
615.548	25.32
615.74	25.04
615.932	24.85
616.124	24.73
616.315	24.5
616.507	24.37
616.699	24.12
616.891	24.09
617.083	23.91
617.275	23.96
617.467	23.72
617.659	23.8
617.85	23.91
618.042	23.95
618.234	23.94
618.426	24.17
618.618	23.98
618.809	23.82
619.001	23.63
619.193	23.59
619.384	23.54
619.576	23.61
619.768	23.51
619.959	23.45
620.151	23.49
620.343	23.45
620.534	23.29
620.726	23.38
620.917	23.62
621.109	23.7
621.301	23.86
621.492	23.97
621.684	23.97
621.875	23.79
622.067	23.89
622.258	23.71
622.45	23.51
622.641	23.65
622.832	23.87
623.024	23.69
623.215	23.61
623.407	23.54
623.598	23.6
623.789	23.75
623.981	23.87
624.172	23.86
624.363	24.07
624.555	24.3
624.746	24.15
624.937	24.19
625.129	24.23
625.32	24.22
625.511	24.04
625.702	23.88
625.893	23.9
626.085	24.16
626.276	24.13
626.467	23.99
626.658	24
626.849	24.01
627.04	23.98
627.231	24.03
627.422	24.23
627.614	24.39
627.805	24.58
627.996	24.6
628.187	24.39
628.378	24.5
628.569	24.69
628.76	24.74
628.951	24.88
629.142	24.91
629.332	25.06
629.523	24.94
629.714	25.09
629.905	25.06
630.096	25.13
630.287	25.34
630.478	25.37
630.669	25.28
630.859	25.25
631.05	25.22
631.241	25.21
631.432	24.95
631.623	24.89
631.813	24.66
632.004	24.75
632.195	24.5
632.385	24.26
632.576	24.11
632.767	23.99
632.957	23.95
633.148	23.88
633.339	23.72
633.529	23.68
633.72	23.59
633.91	23.58
634.101	23.23
634.292	23.17
634.482	23.22
634.673	23.16
634.863	23.15
635.054	23.21
635.244	23.09
635.435	23.12
635.625	23.21
635.815	23.28
636.006	23.41
636.196	23.72
636.387	23.86
636.577	23.69
636.767	23.76
636.958	23.58
637.148	23.6
637.338	23.49
637.529	23.64
637.719	23.62
637.909	23.66
638.099	23.48
638.29	23.2
638.48	23.14
638.67	23.31
638.86	23.41
639.05	23.45
639.241	23.18
639.431	23.51
639.621	23.22
639.811	23.29
640.001	23.15
640.191	23.34
640.381	23.52
640.571	23.51
640.761	23.65
640.951	23.58
641.141	23.64
641.331	23.88
641.521	23.64
641.711	23.68
641.901	23.69
642.091	23.79
642.281	23.61
642.471	23.61
642.661	23.56
642.851	23.47
643.041	23.66
643.231	23.86
643.42	23.72
643.61	23.74
643.8	24.02
643.99	24.1
644.18	24.05
644.369	23.97
644.559	23.92
644.749	23.99
644.939	24.01
645.128	23.77
645.318	23.97
645.508	23.91
645.697	24.09
645.887	23.99
646.076	23.71
646.266	23.77
646.456	24.05
646.645	24.01
646.835	24.04
647.024	24.17
647.214	24.2
647.403	23.84
647.593	23.84
647.782	23.72
647.972	23.9
648.161	24.22
648.351	24.44
648.54	24.16
648.73	24.36
648.919	24.35
649.108	24.22
649.298	24.58
649.487	24.71
649.677	24.68
649.866	24.79
650.055	24.63
650.244	24.57
650.434	24.36
650.623	24.19
650.812	23.98
651.002	24.14
651.191	24.23
651.38	23.95
651.569	24.06
651.758	24.2
651.947	24.22
652.137	24.34
652.326	24.21
652.515	24.21
652.704	24.53
652.893	24.73
653.082	24.71
653.271	24.65
653.46	24.63
653.649	24.62
653.838	24.62
654.027	24.58
654.216	24.61
654.405	24.62
654.594	24.75
654.783	24.67
654.972	24.54
655.161	24.45
655.35	24.34
655.539	24.36
655.728	24.09
655.916	24.14
656.105	24.1
656.294	24.04
656.483	24.21
656.672	24.13
656.86	24.16
657.049	24.23
657.238	24.44
657.427	24.53
657.615	24.47
657.804	24.48
657.993	24.44
658.181	24.45
658.37	24.37
658.559	24.27
658.747	24.35
658.936	24.44
659.125	24.13
659.313	23.94
659.502	24.04
659.69	24
659.879	24.19
660.067	24.32
660.256	24.33
660.444	24.31
660.633	24.42
660.821	24.42
661.01	24.28
661.198	24.69
661.387	24.77
661.575	24.71
661.763	24.94
661.952	24.95
662.14	24.66
662.328	24.63
662.517	24.64
662.705	24.5
662.893	24.5
663.082	24.8
663.27	24.66
663.458	24.67
663.646	24.66
663.834	24.51
664.023	24.54
664.211	24.82
664.399	24.78
664.587	24.76
664.775	24.55
664.963	24.51
665.152	24.29
665.34	24.34
665.528	24.19
665.716	24.04
665.904	24.14
666.092	23.97
666.28	23.98
666.468	24.05
666.656	24.15
666.844	24.5
667.032	24.44
667.22	24.58
667.408	24.53
667.596	24.42
667.784	24.55
667.971	24.39
668.159	24.37
668.347	24.46
668.535	24.58
668.723	24.67
668.911	24.63
669.098	24.59
669.286	24.44
669.474	24.46
669.662	24.69
669.849	24.48
670.037	24.4
670.225	24.45
670.413	24.33
670.6	24.14
670.788	24.08
670.976	24.25
671.163	24.26
671.351	24.29
671.538	24.51
671.726	24.68
671.913	25.02
672.101	25.32
672.289	25.44
672.476	25.33
672.664	25.5
672.851	25.34
673.039	25.24
673.226	25.27
673.413	25.19
673.601	24.87
673.788	24.71
673.976	24.66
674.163	24.58
674.35	24.62
674.538	24.79
674.725	24.82
674.912	24.75
675.1	24.72
675.287	24.66
675.474	24.92
675.662	25.04
675.849	24.81
676.036	24.78
676.223	24.67
676.411	24.4
676.598	24.38
676.785	24.36
676.972	24.71
677.159	24.63
677.346	24.98
677.533	25.04
677.721	25.23
677.908	25.37
678.095	25.66
678.282	25.59
678.469	25.76
678.656	25.73
678.843	25.56
679.03	25.59
679.217	25.49
679.404	25.08
679.591	24.95
679.778	24.79
679.964	24.94
680.151	24.65
680.338	24.94
680.525	24.89
680.712	24.79
680.899	24.91
681.086	24.85
681.272	24.85
681.459	25.07
681.646	25.07
681.833	25.23
682.02	25.16
682.206	25.28
682.393	24.98
682.58	24.74
682.766	24.85
682.953	24.79
683.14	24.78
683.326	25.08
683.513	25.11
683.7	25.02
683.886	25.04
684.073	24.73
684.259	24.75
684.446	25.2
684.632	25.56
684.819	25.52
685.005	25.54
685.192	25.63
685.378	25.69
685.565	25.78
685.751	26.08
685.938	25.97
686.124	26.35
686.31	26.29
686.497	26.16
686.683	26.1
686.87	26.14
687.056	26.14
687.242	26.04
687.429	25.73
687.615	25.64
687.801	25.34
687.987	25.18
688.174	25.15
688.36	25.08
688.546	24.87
688.732	24.84
688.918	24.9
689.105	24.94
689.291	24.64
689.477	24.5
689.663	24.09
689.849	24.25
690.035	24.32
690.221	24.14
690.407	24.47
690.593	24.64
690.779	24.58
690.965	24.61
691.151	24.52
691.337	25
691.523	25.04
691.709	25.68
691.895	25.48
692.081	25.46
692.267	25.43
692.453	25.05
692.639	24.74
692.825	24.68
693.011	24.25
693.196	24.41
693.382	24.45
693.568	24.52
693.754	24.37
693.94	24.78
694.125	24.94
694.311	25.34
694.497	25.28
694.682	25.56
694.868	25.81
695.054	26.2
695.239	26.16
695.425	25.75
695.611	25.9
695.796	25.77
695.982	25.75
696.168	26.07
696.353	25.65
696.539	26.2
696.724	26.34
696.91	26.4
697.095	26.39
697.281	26.49
697.466	26.64
697.652	26.44
697.837	26.39
698.023	26.26
698.208	26.07
698.393	26.4
698.579	26.18
698.764	26.06
698.949	25.97
699.135	25.86
699.32	25.67
699.505	25.69
699.691	25.94
699.876	25.94
700.061	25.96
700.246	25.88
700.432	25.76
700.617	25.76
700.802	25.84
700.987	25.96
701.172	25.79
701.358	25.98
701.543	25.86
701.728	25.55
701.913	25.43
702.098	25.48
702.283	25.46
702.468	25.49
702.653	25.53
702.838	25.13
703.023	24.91
703.208	25.06
703.393	25.02
703.578	25.12
703.763	25.36
703.948	25.88
704.133	25.83
704.318	25.84
704.503	25.74
704.688	25.92
704.873	26.32
705.057	26.69
705.242	27.09
705.427	27.35
705.612	27.1
705.797	27.26
705.981	27.48
706.166	27.51
706.351	27.78
706.536	28.01
706.72	27.71
706.905	27.97
707.09	28.1
707.274	28.04
707.459	27.83
707.644	28.05
707.828	27.82
708.013	27.22
708.197	27.26
708.382	27.17
708.567	26.93
708.751	26.8
708.936	26.6
709.12	26.54
709.305	26.76
709.489	26.64
709.673	26.64
709.858	26.84
710.042	27.06
710.227	27.09
710.411	27.26
710.596	27.64
710.78	28.2
710.964	28.22
711.149	28.05
711.333	27.8
711.517	27.84
711.702	28
711.886	27.43
712.07	27.14
712.254	27.13
712.438	26.78
712.623	26.24
712.807	25.7
712.991	25.39
713.175	25.13
713.359	24.98
713.544	25.01
713.728	24.6
713.912	24.94
714.096	25.43
714.28	25.09
714.464	25.02
714.648	25.14
714.832	25.23
715.016	25.43
715.2	25.39
715.384	25.21
715.568	25.03
715.752	25.14
715.936	25.28
716.12	24.74
716.304	25.37
716.488	25.22
716.671	25.06
716.855	25.03
717.039	24.87
717.223	25.25
717.407	25.27
717.59	25.26
717.774	25.23
717.958	25.05
718.142	25.57
718.325	25.21
718.509	25.45
718.693	25.94
718.877	26.16
719.06	26.35
719.244	25.81
719.428	25.86
719.611	25.87
719.795	26.31
719.978	26.06
720.162	25.56
720.345	25.16
720.529	25.35
720.713	24.99
720.896	25.09
721.08	24.9
721.263	25.05
721.446	25.15
721.63	25.41
721.813	24.87
721.997	25.07
722.18	25.16
722.364	25.51
722.547	25.52
722.73	25.54
722.914	24.94
723.097	24.91
723.28	25.52
723.464	25.61
723.647	25.65
723.83	25.56
724.013	25.61
724.197	25.75
724.38	25.79
724.563	25.82
724.746	25.87
724.929	25.93
725.112	25.8
725.296	26.01
725.479	26.36
725.662	25.94
725.845	26.11
726.028	26.02
726.211	26.09
726.394	26.11
726.577	26.09
726.76	26.01
726.943	26.27
727.126	26.23
727.309	25.68
727.492	25.16
727.675	25.57
727.858	25.38
728.041	25.08
728.224	24.9
728.407	24.82
728.589	24.74
728.772	25.12
728.955	24.89
729.138	25.1
729.321	24.9
729.503	24.95
729.686	25.19
729.869	25.03
730.052	25.11
730.234	24.91
730.417	24.83
730.6	24.41
730.782	24.1
730.965	23.89
731.148	23.69
731.33	23.58
731.513	23.82
731.695	23.62
731.878	24.24
732.061	24.69
732.243	25.1
732.426	25.35
732.608	25.7
732.791	25.53
732.973	25.8
733.156	25.71
733.338	25.93
733.52	25.62
733.703	25.32
733.885	25.3
734.068	25.05
734.25	25.12
734.432	24.71
734.615	24.5
734.797	24.55
734.979	24.59
735.162	24.68
735.344	24.34
735.526	24.81
735.708	25
735.891	25.1
736.073	25.26
736.255	24.94
736.437	24.76
736.619	24.71
736.802	24.77
736.984	24.86
737.166	25.37
737.348	25.87
737.53	25.46
737.712	25.44
737.894	25.44
738.076	25.55
738.258	25.39
738.44	25.99
738.622	26.38
738.804	26.41
738.986	26.19
739.168	26.02
739.35	25.82
739.532	26.27
739.714	25.82
739.896	26.29
740.078	26.34
740.259	26.87
740.441	27.04
740.623	26.85
740.805	26.8
740.987	27.11
741.168	26.91
741.35	26.77
741.532	26.17
741.714	26.61
741.895	25.95
742.077	25.74
742.259	24.82
742.44	24.14
742.622	24.22
742.804	24.12
742.985	24.08
743.167	24.37
743.348	24.85
743.53	24.43
743.711	24.33
743.893	24.52
744.075	24.3
744.256	24.79
744.438	24.92
744.619	25.19
744.8	25.15
744.982	24.72
745.163	24.77
745.345	24.31
745.526	24.4
745.707	24.23
745.889	23.9
746.07	24.19
746.252	24.94
746.433	25.09
746.614	24.69
746.795	24.5
746.977	24.78
747.158	24.53
747.339	25.2
747.52	26.03
747.702	26.29
747.883	25.84
748.064	26.03
748.245	25.38
748.426	25.63
748.607	25.52
748.788	25.62
748.97	25.75
749.151	25.26
749.332	24.96
749.513	24.53
749.694	24.1
749.875	24.34
750.056	24.21
750.237	24.45
750.418	24.16
750.599	23.88
750.78	24.32
750.96	23.64
751.141	24.55
751.322	24.5
751.503	24.77
751.684	25.01
751.865	25.21
752.046	24.98
752.226	24.19
752.407	24.26
752.588	24.62
752.769	25.23
752.949	25.12
753.13	24.39
753.311	23.85
753.492	23.85
753.672	24.54
753.853	24.39
754.034	24.58
754.214	25.2
754.395	24.28
754.575	24.66
754.756	24.49
754.937	24.81
755.117	24.12
755.298	25.28
755.478	25.35
755.659	24.51
755.839	24.36
756.02	24.53
756.2	25.18
756.381	26.09
756.561	25.67
756.741	25.2
756.922	24.97
757.102	25.83
757.283	25.43
757.463	25.04
757.643	25.53
757.823	25.77
758.004	25.11
758.184	24.62
758.364	24.41
758.545	24.17
758.725	24.26
758.905	24.55
759.085	25.03
759.265	24.66
759.446	24.47
759.626	24.12
759.806	24.09
759.986	24.4
760.166	24.5
760.346	24.77
760.526	24.45
760.706	24.41
760.886	24.38
761.066	23.63
761.246	23.29
761.426	23.98
761.606	24.26
761.786	24.75
761.966	25.02
762.146	24.35
762.326	24.33
762.506	24.97
762.686	25.09
762.866	25.27
763.046	25.69
763.225	26.14
763.405	26.01
763.585	25.99
763.765	25.33
763.945	25.13
764.124	25.71
764.304	25.49
764.484	25.67
764.664	25.44
764.843	25.46
765.023	25.46
765.203	25.11
765.382	25.1
765.562	24.91
765.741	25.6
765.921	25.53
766.101	25.29
766.28	25.85
766.46	25.54
766.639	25.81
766.819	25.91
766.998	25.65
767.178	25.58
767.357	25.08
767.537	24.9
767.716	24.96
767.896	25.42
768.075	25.55
768.254	25.15
768.434	24.69
768.613	24.8
768.792	24.65
768.972	25.06
769.151	25.31
769.33	26.14
769.51	26.24
769.689	25.69
769.868	24.62
770.047	24.93
770.226	24.99
770.406	25
770.585	24.95
770.764	24.72
770.943	23.7
771.122	23.47
771.301	23.12
771.48	22.75
771.66	23.39
771.839	24.03
772.018	23.33
772.197	22.73
772.376	23.47
772.555	22.93
772.734	23.12
772.913	23.36
773.092	23.63
773.271	24.14
773.449	25.29
773.628	24.11
773.807	23.9
773.986	24.12
774.165	24.87
774.344	25.38
774.523	25.98
774.701	26.23
774.88	26.12
775.059	25.24
775.238	25.16
775.417	24.55
775.595	25.43
775.774	26.41
775.953	26.43
776.131	25.79
776.31	24.56
776.489	23.97
776.667	23.67
776.846	23.88
777.025	24.97
777.203	24.29
777.382	24.24
777.56	24.31
777.739	23.65
777.917	23.26
778.096	23.67
778.274	24.24
778.453	24.34
778.631	24.09
778.81	24.52
778.988	23.74
779.166	24.51
779.345	24.41
779.523	24.49
779.702	25.04
779.88	25
780.058	24.74
780.237	23.94
780.415	23.7
780.593	23.61
780.771	24.59
780.95	25.67
781.128	24.69
781.306	24.93
781.484	24.23
781.662	23.87
781.841	25.21
782.019	26.02
782.197	26.85
782.375	27.03
782.553	26.74
782.731	25.27
782.909	24.89
783.087	26.27
783.265	26.58
783.443	26.7
783.621	26.44
783.799	25.76
783.977	25.07
784.155	25.08
784.333	25.29
784.511	26.17
784.689	26.56
784.867	26.08
785.045	25.03
785.223	24.43
785.4	23.91
785.578	24.55
785.756	23.96
785.934	24.33
786.112	24.96
786.289	24.75
786.467	23.94
786.645	23.55
786.823	22.92
787	23.15
787.178	23.52
787.356	24.89
787.533	24.04
787.711	23.87
787.889	23.44
788.066	22.51
788.244	22.7
788.421	23.59
788.599	23.68
788.776	23.64
788.954	23.66
789.131	23.16
789.309	22.04
789.486	22.95
789.664	23.44
789.841	23.11
790.019	23.03
790.196	22.88
790.373	21.75
790.551	22.14
790.728	23.94
790.906	23.45
791.083	23.53
791.26	24.09
791.437	23.35
791.615	23.6
791.792	22.88
791.969	23.38
792.146	23.29
792.324	24.16
792.501	24
792.678	23.12
792.855	23.74
793.032	25.03
793.209	25.61
793.387	24.14
793.564	22.98
793.741	25.24
793.918	25.38
794.095	25.53
794.272	25.61
794.449	25.55
794.626	25.81
794.803	25.88
794.98	24.26
795.157	24.81
795.334	25.69
795.511	26.71
795.688	25.52
795.864	25.75
796.041	26.07
796.218	25.28
796.395	25.29
796.572	24.6
796.749	25.36
796.925	25.99
797.102	25.05
797.279	25.17
797.456	24.85
797.632	24.72
797.809	24.95
797.986	24.1
798.162	24.98
798.339	25.21
798.516	25.35
798.692	25.79
798.869	26.35
799.046	26.44
799.222	27.38
799.399	27.45
799.575	27.12
799.752	26.56
799.928	26.62
800.105	26.01
800.281	25.74
800.458	26.52
800.634	24.77
800.811	24.11
800.987	24.15
801.163	23.03
801.34	23.2
801.516	24.19
801.692	24.58
801.869	25.11
802.045	23.55
802.221	22.55
802.398	22.86
802.574	21.07
802.75	21.86
802.926	21.44
803.103	21.98
803.279	20.68
803.455	19.56
803.631	19.36
803.807	18.77
803.983	20.66
804.16	21.5
804.336	21.54
804.512	22.35
804.688	21.9
804.864	21.49
805.04	22.13
805.216	23.49
805.392	25.39
805.568	23.51
805.744	22.65
805.92	23.15
806.096	23.8
806.272	23.14
806.448	24.29
806.623	23.04
806.799	22.62
806.975	20.94
807.151	20.43
807.327	18.15
807.503	18.99
807.678	19.95
807.854	20.09
808.03	19.83
808.206	20.77
808.381	21.01
808.557	22.2
808.733	23.16
808.908	22.48
809.084	21.58
809.26	22.83
809.435	23.37
809.611	22.64
809.787	21.08
809.962	22.22
810.138	20.9
810.313	20.65
810.489	19.44
810.664	18.92
810.84	20.24
811.015	21.74
811.191	21.48
811.366	22.01
811.542	23.51
811.717	26.86
811.892	26.05
812.068	25.43
812.243	25.45
812.419	26.7
812.594	26.3
812.769	26.85
812.944	28.36
813.12	29.35
813.295	28.3
813.47	27.94
813.645	25.81
813.821	23.67
813.996	24.93
814.171	23.95
814.346	23.7
814.521	25.28
814.697	25.66
814.872	23.42
815.047	22.96
815.222	22.57
815.397	22.4
815.572	22.64
815.747	24.96
815.922	25.76
816.097	25.69
816.272	26.08
816.447	24.41
816.622	23.95
816.797	23.1
816.972	22.36
817.147	23.93
817.322	24.66
817.496	24.3
817.671	24.17
817.846	21.14
818.021	22.73
818.196	22.47
818.371	23.59
818.545	23.36
818.72	23.96
818.895	24.32
819.069	22.41
819.244	22.32
819.419	22.26
819.594	21.42
819.768	22.59
819.943	21.55
820.117	22.03
820.292	21.95
820.467	22
820.641	21.98
820.816	22.34
820.99	22.94
821.165	23.06
821.339	23.39
821.514	23.65
821.688	23.45
821.863	23.71
822.037	23.52
822.212	23.65
822.386	23.78
822.56	24.16
822.735	24.22
822.909	24.31
823.084	24.24
823.258	24.14
823.432	24.42
823.606	24.68
823.781	24.79
823.955	25.02
824.129	24.87
824.303	25.05
824.478	25.08
824.652	24.99
824.826	24.79
825	24.99
825.174	25.51
825.348	25.33
825.523	25.25
825.697	25.09
825.871	24.79
826.045	25.24
826.219	24.78
826.393	24.01
826.567	24.52
826.741	24.48
826.915	24.29
827.089	23.26
827.263	22.79
827.437	22.99
827.611	23.73
827.784	23.71
827.958	23.51
828.132	23.51
828.306	23.88
828.48	23.45
828.654	24.37
828.827	24.63
829.001	25.23
829.175	25.5
829.349	25.79
829.522	25.03
829.696	25.9
829.87	25.35
830.044	25.85
830.217	25.47
830.391	26.49
830.565	25.48
830.738	23.89
830.912	23.42
831.085	23.56
831.259	22.21
831.432	21.67
831.606	19.79
831.779	21.6
831.953	20.88
832.126	22.6
832.3	22.17
832.473	22.14
832.647	23.87
832.82	24.16
832.994	24.11
833.167	24.84
833.34	24.94
833.514	25.01
833.687	24.43
833.86	24.54
834.034	23.61
834.207	23.61
834.38	24.39
834.553	23.67
834.727	24.87
834.9	24.93
835.073	24.76
835.246	23.82
835.419	24.17
835.593	23.81
835.766	23.86
835.939	24.29
836.112	23.94
836.285	22.85
836.458	24.13
836.631	22.33
836.804	22.69
836.977	22.29
837.15	23.92
837.323	23.74
837.496	23.86
837.669	25.37
837.842	25.15
838.015	25.38
838.188	25.07
838.361	23.71
838.533	24.48
838.706	23.74
838.879	24.45
839.052	25.17
839.225	25.35
839.398	27.08
839.57	28.41
839.743	31.95
839.916	32.73
840.088	31.35
840.261	31.89
840.434	30.25
840.607	29.77
840.779	29.26
840.952	29.95
841.124	30.21
841.297	29.4
841.47	27.16
841.642	23.04
841.815	20.39
841.987	25.01
842.16	25.54
842.332	27.74
842.505	27
842.677	29.21
842.85	28.76
843.022	30.7
843.194	31.55
843.367	30.75
843.539	30.44
843.712	30.43
843.884	26.61
844.056	23.28
844.229	21.78
844.401	26.05
844.573	24.55
844.745	22.6
844.918	22.42
845.09	21.2
845.262	23
845.434	22.25
845.606	23.16
845.779	23.82
845.951	23.76
846.123	26.98
846.295	24.29
846.467	22.26
846.639	26.15
846.811	24.31
846.983	23.71
847.155	20.08
847.327	22.92
847.499	25.78
847.671	21.71
847.843	24.07
848.015	21.9
848.187	20.76
848.359	18.76
848.531	15.42
848.703	15.03
848.875	16.81
849.047	17.53
849.218	18.27
849.39	16.46
849.562	16.42
849.734	14.98
849.905	13.83
850.077	16.62
850.249	19.11
850.421	20.71
850.592	21.31
850.764	18.68
850.936	19.32
851.107	15.81
851.279	16.92
851.451	21.61
851.622	21.2
851.794	20.19
851.965	18.2
852.137	20.45
852.308	20.04
852.48	17.76
852.651	20.79
852.823	23.88
852.994	23.08
853.166	22.98
853.337	22.54
853.509	23.43
853.68	23.19
853.851	22.66
854.023	19.42
854.194	16.87
854.365	16.85
854.537	14.08
854.708	13.27
854.879	14.76
855.05	18.62
855.222	17.02
855.393	16.56
855.564	17.9
855.735	16.07
855.906	16.16
856.078	15.65
856.249	17.19
856.42	19.4
856.591	21.48
856.762	21.35
856.933	17.02
857.104	17.86
857.275	20.78
857.446	19.56
857.617	21.08
857.788	21.93
857.959	20.6
858.13	18.06
858.301	17.38
858.472	12.33
858.643	13.29
858.814	11.39
858.985	8.58
859.155	4.59
859.326	3.19
859.497	5.08
859.668	5.86
859.839	4.32
860.009	2.2
860.18	3.49
860.351	4.15
860.522	5.16
860.692	9.48
860.863	12.81
861.034	12.16
861.204	14.92
861.375	15.57
861.546	14.59
861.716	17.48
861.887	19.41
862.057	20.18
862.228	17.98
862.398	15.42
862.569	11.35
862.739	9.78
862.91	9.03
863.08	6.7
863.251	7.03
863.421	5.64
863.592	6.78
863.762	7.63
863.932	6.46
864.103	5.46
864.273	8.51
864.443	5.52
864.614	5.72
864.784	7.72
864.954	10.87
865.125	7.54
865.295	10.44
865.465	5.69
865.635	9.78
865.805	8.34
865.976	15.14
866.146	10.23
866.316	13.82
866.486	12.19
866.656	12.67
866.826	9.83
866.996	8.09
867.166	9.72
867.336	10.6
867.506	6.63
867.676	4.41
867.846	0.95
868.016	6.12
868.186	6.02
868.356	8.71
868.526	5.32
868.696	9.44
868.866	15.1
869.036	9.97
869.206	13.19
869.376	17.08
869.545	21.11
869.715	17.4
869.885	19.83
870.055	22.94
870.224	21.39
870.394	23.67
870.564	19.08
870.734	21.42
870.903	21.89
871.073	24.71
871.243	22.75
871.412	22.47
871.582	25.84
871.751	24
871.921	20.99
872.091	19.78
872.26	20.46
872.43	20.71
872.599	16.45
872.769	21.33
872.938	17.82
873.108	18.44
873.277	20.71
873.446	20.81
873.616	20.74
873.785	21.71
873.955	21.81
874.124	19.92
874.293	24.22
874.463	26.63
874.632	24.73
874.801	26.99
874.971	26.96
875.14	24.6
875.309	19.07
875.478	21.67
875.647	17.17
875.817	14.74
875.986	13.39
876.155	7.9
876.324	10.71
876.493	12.72
876.662	11.85
876.831	10.55
877	8.66
877.17	11.53
877.339	10.77
877.508	13.45
877.677	17.68
877.846	19.32
878.015	21.05
878.184	18.14
878.352	12.69
878.521	15.98
878.69	13.33
878.859	12.96
879.028	13.96
879.197	14.89
879.366	15.72
879.534	13.75
879.703	14.88
879.872	16.9
880.041	17.26
880.21	20.53
880.378	17.88
880.547	19.44
880.716	20.17
880.884	22.45
881.053	21.15
881.222	21.1
881.39	21.21
881.559	21.91
881.727	22.42
881.896	21.94
882.065	22.01
882.233	22.45
882.402	22.66
882.57	22.77
882.739	22.17
882.907	22.82
883.076	22.87
883.244	23.15
883.412	22.54
883.581	22
883.749	22.72
883.918	21.33
884.086	21.49
884.254	21.89
884.423	21.16
884.591	20.17
884.759	18.79
884.927	19.61
885.096	18.85
885.264	18
885.432	16.05
885.6	15.49
885.769	16.73
885.937	14.93
886.105	11.13
886.273	12.63
886.441	13.41
886.609	14.16
886.777	11.44
886.945	13.51
887.113	17.02
887.281	19.33
887.449	19.52
887.617	20.11
887.785	19.93
887.953	22.55
888.121	19.73
888.289	22.69
888.457	20.32
888.625	22.34
888.793	21.84
888.961	17.94
889.129	20.46
889.296	20.18
889.464	19.61
889.632	23.38
889.8	25.94
889.967	28.34
890.135	24.71
