Data from 2938799__Reflection_01.txt Node
Date: Thu Mar 12 22:58:37 EDT 2015
User: robert
Spectrometer: USB4E03002
Autoset integration time: false
Trigger mode: 4
Integration Time (sec): 1.000000E-1
Scans to average: 10
Electric dark correction enabled: false
Nonlinearity correction enabled: false
Boxcar width: 5
Stray light correction enabled: false
XAxis mode: Wavelengths
Stop averaging: false
Number of Pixels in Spectrum: 3648
>>>>>Begin Spectral Data<<<<<
177.575	515.89
177.794	1283.33
178.014	442.31
178.233	582
178.452	347.34
178.672	352.54
178.891	442.42
179.11	417.47
179.33	402.89
179.549	410.26
179.768	347.33
179.987	310.83
180.207	297.61
180.426	328.06
180.645	330.89
180.864	308.45
181.084	335.04
181.303	234.73
181.522	214.06
181.741	174.4
181.96	186.39
182.179	191.71
182.398	192.89
182.618	177.76
182.837	179.08
183.056	189.15
183.275	192.9
183.494	183.07
183.713	182.74
183.932	188.34
184.151	228.63
184.37	197.54
184.589	192.02
184.808	202.98
185.027	211.3
185.246	200.57
185.465	174.53
185.684	189.52
185.903	193.42
186.122	199.71
186.341	208.91
186.56	194.73
186.779	190.8
186.998	203.11
187.216	186.75
187.435	178.06
187.654	179.78
187.873	195.35
188.092	185.32
188.311	203.01
188.53	196.81
188.748	190.16
188.967	201.73
189.186	221.69
189.405	216.55
189.623	230.45
189.842	226.02
190.061	207.77
190.28	211.94
190.498	203.08
190.717	175.18
190.936	170.4
191.154	154.56
191.373	149.55
191.592	139.05
191.81	142.9
192.029	138.27
192.248	134.81
192.466	136.2
192.685	124.31
192.904	133.63
193.122	142.14
193.341	156.68
193.559	187.35
193.778	180.39
193.996	193.92
194.215	173.21
194.433	189.02
194.652	231.77
194.87	269.2
195.089	307.39
195.307	264.12
195.526	225.76
195.744	230.36
195.963	203.45
196.181	221.79
196.399	226.72
196.618	218.19
196.836	201.46
197.055	175.96
197.273	170.69
197.491	158.38
197.71	176.84
197.928	198.24
198.146	176.37
198.365	155.95
198.583	156.93
198.801	145.28
199.019	172.14
199.238	165.57
199.456	181.28
199.674	195.43
199.892	187.28
200.111	174.25
200.329	180.17
200.547	216.52
200.765	249.39
200.983	214.11
201.202	202.15
201.42	174.14
201.638	183.02
201.856	166.12
202.074	152.43
202.292	144.78
202.51	131.26
202.728	131.1
202.946	110.47
203.165	107.75
203.383	124.86
203.601	137.47
203.819	140.39
204.037	148.3
204.255	163.27
204.473	145.66
204.691	164.19
204.909	167.04
205.127	159.97
205.345	168.43
205.562	153.3
205.78	140.7
205.998	148.84
206.216	144.73
206.434	157.23
206.652	148.89
206.87	156.71
207.088	142.62
207.306	152.85
207.523	147.23
207.741	141.95
207.959	156.16
208.177	157.51
208.395	144.25
208.612	150.68
208.83	132.81
209.048	137.17
209.266	133.97
209.483	149.69
209.701	138.85
209.919	145.78
210.136	147.07
210.354	143.98
210.572	139.36
210.79	148.08
211.007	148.11
211.225	145.02
211.442	133.88
211.66	137.64
211.878	126.62
212.095	121.55
212.313	113.05
212.53	115.37
212.748	116.33
212.966	119.49
213.183	111.22
213.401	116.43
213.618	121.97
213.836	130.33
214.053	128.08
214.271	134.09
214.488	141.72
214.705	146.88
214.923	152.85
215.14	148.73
215.358	154.03
215.575	172.61
215.793	156.78
216.01	143.25
216.227	132.93
216.445	143.41
216.662	151.66
216.879	139.62
217.097	136.69
217.314	115.23
217.531	113.28
217.749	115.15
217.966	111.94
218.183	114.32
218.4	115.32
218.618	124.33
218.835	112.51
219.052	109.29
219.269	114.07
219.487	114.02
219.704	121.87
219.921	120.06
220.138	111.83
220.355	107.64
220.572	106.8
220.79	106.41
221.007	98.27
221.224	96.52
221.441	91.81
221.658	88.87
221.875	84.19
222.092	78.96
222.309	85.52
222.526	85.44
222.743	87.18
222.96	84.96
223.177	81.71
223.394	82.14
223.611	84.49
223.828	82.25
224.045	83.94
224.262	84.98
224.479	82.39
224.696	73.37
224.913	70.37
225.13	67.26
225.347	61.09
225.564	56.27
225.781	54.9
225.997	50.86
226.214	48.63
226.431	43.54
226.648	36.98
226.865	34.5
227.082	31.41
227.298	28.94
227.515	25.28
227.732	24.48
227.949	23.83
228.165	22.07
228.382	20.29
228.599	19.73
228.816	18.65
229.032	18.17
229.249	17.76
229.466	17.01
229.682	16.14
229.899	16.69
230.116	16.27
230.332	15.96
230.549	15.54
230.765	16.18
230.982	16.26
231.199	16.85
231.415	17.81
231.632	18.17
231.848	19.5
232.065	20.04
232.281	20.33
232.498	20.63
232.714	21.82
232.931	23.03
233.147	21.73
233.364	21.3
233.58	20.57
233.797	21.79
234.013	22.35
234.23	21.77
234.446	22.73
234.662	21.09
234.879	22.62
235.095	22.73
235.312	21.79
235.528	24.3
235.744	25.35
235.961	26.93
236.177	25.86
236.393	26.14
236.61	26.9
236.826	27.06
237.042	27.64
237.258	26.41
237.475	25.03
237.691	26.32
237.907	24.87
238.123	24.44
238.339	22.99
238.556	23.74
238.772	23.25
238.988	22.24
239.204	23.19
239.42	23.56
239.636	22.12
239.853	22.17
240.069	20.99
240.285	19.89
240.501	18.05
240.717	17.64
240.933	16.13
241.149	14.51
241.365	14
241.581	12.72
241.797	12.38
242.013	12.31
242.229	12.59
242.445	12.55
242.661	12.82
242.877	12.77
243.093	13
243.309	13.78
243.525	13.86
243.741	14.37
243.957	14.95
244.173	14.43
244.388	15.61
244.604	14.75
244.82	14.47
245.036	13.79
245.252	13.85
245.468	12.45
245.683	11.99
245.899	12.39
246.115	11.97
246.331	11.42
246.547	11.38
246.762	10.42
246.978	10.28
247.194	9.85
247.409	9.75
247.625	9.73
247.841	9.96
248.057	9.86
248.272	9.32
248.488	9.43
248.703	9.52
248.919	9.68
249.135	10.34
249.35	10.84
249.566	12.04
249.782	12.43
249.997	13.4
250.213	13.96
250.428	14.23
250.644	14.89
250.859	14.31
251.075	13.82
251.29	13.56
251.506	13.2
251.721	12.96
251.937	11.99
252.152	11.71
252.368	10.73
252.583	11.07
252.798	11.08
253.014	11.54
253.229	12.37
253.445	13.45
253.66	13.92
253.875	13.43
254.091	13.56
254.306	14.84
254.521	15.14
254.737	16.39
254.952	14.96
255.167	14.81
255.383	14.11
255.598	13.18
255.813	12.22
256.028	12
256.244	13.18
256.459	13.46
256.674	12.45
256.889	12.91
257.104	12.14
257.32	12.12
257.535	11.49
257.75	11.74
257.965	11.74
258.18	11.4
258.395	11.07
258.61	10.39
258.826	9.46
259.041	9.17
259.256	8.49
259.471	8.25
259.686	8.12
259.901	8.07
260.116	7.62
260.331	7.34
260.546	7.18
260.761	7.19
260.976	7.09
261.191	7.33
261.406	7.35
261.621	7.75
261.836	8.38
262.05	8.65
262.265	8.66
262.48	9.18
262.695	9.62
262.91	10.41
263.125	11.04
263.34	11.67
263.555	12.35
263.769	12.39
263.984	12.36
264.199	11.57
264.414	11.85
264.629	12.98
264.843	13.37
265.058	13.19
265.273	12.22
265.488	11.87
265.702	11.68
265.917	11.54
266.132	11.91
266.346	12.01
266.561	11.94
266.776	12.16
266.99	11.4
267.205	10.95
267.42	10.36
267.634	10.61
267.849	10.09
268.063	9.86
268.278	9.4
268.492	9.08
268.707	9.14
268.922	9.59
269.136	9.11
269.351	9.43
269.565	9.47
269.78	9.72
269.994	9.71
270.209	9.71
270.423	9.45
270.637	8.99
270.852	8.79
271.066	8.38
271.281	7.76
271.495	7.76
271.709	7.67
271.924	7.31
272.138	7.47
272.353	7.33
272.567	7.22
272.781	7.43
272.996	7.7
273.21	7.82
273.424	8.15
273.638	8.55
273.853	8.39
274.067	8.42
274.281	8.84
274.495	8.71
274.71	9
274.924	9.64
275.138	9.53
275.352	9.78
275.566	9.96
275.781	9.66
275.995	9.66
276.209	10
276.423	9.91
276.637	10.01
276.851	10.13
277.065	9.92
277.279	9.69
277.493	10.03
277.707	10
277.921	10.55
278.135	10.63
278.349	10.35
278.563	10.38
278.777	10.66
278.991	10.12
279.205	9.9
279.419	9.94
279.633	9.62
279.847	9.65
280.061	9.59
280.275	8.92
280.489	8.74
280.703	8.52
280.917	8.2
281.131	7.89
281.344	8.03
281.558	8.19
281.772	7.75
281.986	7.43
282.2	7.22
282.414	7.09
282.627	7.14
282.841	7.28
283.055	7.34
283.269	7.41
283.482	7.56
283.696	7.51
283.91	7.28
284.123	7.74
284.337	8.19
284.551	7.92
284.764	8.13
284.978	8.1
285.192	7.81
285.405	8.04
285.619	7.88
285.833	7.65
286.046	7.8
286.26	7.95
286.473	7.87
286.687	7.78
286.9	7.89
287.114	7.7
287.327	7.82
287.541	7.82
287.754	8.12
287.968	8.49
288.181	8.42
288.395	8.34
288.608	8.36
288.822	8.39
289.035	8.35
289.248	8.55
289.462	8.52
289.675	8.14
289.889	8.13
290.102	7.82
290.315	7.54
290.529	7.79
290.742	7.94
290.955	8.09
291.169	7.95
291.382	8.1
291.595	8.25
291.808	8.84
292.022	9.44
292.235	9.89
292.448	9.66
292.661	9.72
292.875	9.53
293.088	9.77
293.301	9.62
293.514	9.83
293.727	9.91
293.94	9.76
294.153	9.01
294.367	8.65
294.58	8.35
294.793	8.67
295.006	9.34
295.219	9.24
295.432	8.95
295.645	8.94
295.858	8.96
296.071	8.7
296.284	8.65
296.497	8.77
296.71	8.99
296.923	9.1
297.136	8.76
297.349	8.27
297.562	8.3
297.775	8.25
297.988	8.13
298.201	8.08
298.414	8.22
298.626	8.03
298.839	8
299.052	7.95
299.265	8.1
299.478	8.45
299.691	8.53
299.903	8.84
300.116	9
300.329	9.41
300.542	9.53
300.755	9.34
300.967	9.99
301.18	10.38
301.393	10.4
301.605	10.17
301.818	10.25
302.031	10.17
302.243	10.27
302.456	10.76
302.669	10.85
302.881	10.8
303.094	11.07
303.307	10.81
303.519	10.81
303.732	10.8
303.944	11.11
304.157	11.51
304.37	11.73
304.582	11.96
304.795	11.47
305.007	11.56
305.22	11.78
305.432	11.76
305.645	11.74
305.857	11.64
306.069	11.83
306.282	11.7
306.494	11.26
306.707	11.24
306.919	11.08
307.132	11.41
307.344	11.27
307.556	11.05
307.769	11.28
307.981	11.24
308.193	11.24
308.406	11.1
308.618	10.91
308.83	10.73
309.043	10.75
309.255	10.8
309.467	10.56
309.679	10.53
309.892	10.5
310.104	10.27
310.316	10.18
310.528	10.21
310.74	9.98
310.953	10.13
311.165	10.44
311.377	10.47
311.589	10.34
311.801	10.44
312.013	10.57
312.225	10.7
312.437	11.07
312.649	11.57
312.862	11.67
313.074	12.33
313.286	12.94
313.498	12.76
313.71	12.96
313.922	13.09
314.134	13.06
314.346	13.25
314.558	13.48
314.77	13.43
314.982	12.95
315.193	12.79
315.405	12.36
315.617	11.84
315.829	11.93
316.041	12.08
316.253	11.86
316.465	12.24
316.677	12.33
316.888	12.32
317.1	12.17
317.312	12.6
317.524	12.76
317.736	12.85
317.947	12.8
318.159	13.35
318.371	13.12
318.583	13.69
318.794	13.44
319.006	13.31
319.218	13.42
319.43	13.55
319.641	13.43
319.853	13.39
320.064	13.38
320.276	13.79
320.488	13.68
320.699	14.13
320.911	13.73
321.123	13.45
321.334	13.87
321.546	14.26
321.757	14.52
321.969	14.88
322.18	15.37
322.392	15.84
322.603	15.69
322.815	15.49
323.026	14.89
323.238	14.91
323.449	15.18
323.661	14.33
323.872	14.01
324.083	13.7
324.295	13.46
324.506	13.15
324.718	12.82
324.929	12.88
325.14	13.02
325.352	13.46
325.563	13.57
325.774	13.92
325.986	14.18
326.197	14.25
326.408	14.65
326.62	14.61
326.831	14.94
327.042	15.27
327.253	15.5
327.464	15.66
327.676	15.54
327.887	15.78
328.098	16.01
328.309	16.32
328.52	16.53
328.732	16.57
328.943	17.09
329.154	17.31
329.365	17.33
329.576	17.32
329.787	17.25
329.998	17.94
330.209	18.02
330.42	17.96
330.631	18.23
330.842	17.96
331.053	17.81
331.264	17.45
331.475	17.21
331.686	17.4
331.897	17.26
332.108	17.46
332.319	17.2
332.53	17.15
332.741	16.97
332.952	16.78
333.163	16.93
333.374	17.4
333.585	17.47
333.795	17.76
334.006	17.71
334.217	18.14
334.428	18.18
334.639	18.22
334.849	18.27
335.06	18.54
335.271	18.46
335.482	18.62
335.692	18.25
335.903	18.39
336.114	18.08
336.325	17.82
336.535	17.71
336.746	17.87
336.957	17.54
337.167	17.92
337.378	17.69
337.589	17.6
337.799	17.71
338.01	17.93
338.22	17.81
338.431	17.93
338.642	18.09
338.852	18.17
339.063	17.68
339.273	17.99
339.484	17.58
339.694	17.82
339.905	17.88
340.115	17.42
340.326	17.32
340.536	17.06
340.746	17.11
340.957	17.11
341.167	17.04
341.378	17.3
341.588	17.26
341.799	16.8
342.009	16.47
342.219	16.47
342.43	16.58
342.64	16.38
342.85	16.96
343.061	16.73
343.271	16.84
343.481	16.72
343.691	16.4
343.902	16.38
344.112	16.74
344.322	16.85
344.532	16.55
344.743	16.64
344.953	16.43
345.163	16.04
345.373	15.98
345.583	15.61
345.793	15.62
346.004	15.62
346.214	15.54
346.424	15.67
346.634	15.74
346.844	16.11
347.054	16.1
347.264	16.54
347.474	16.51
347.684	16.43
347.894	16.55
348.104	16.39
348.314	16.76
348.524	16.64
348.734	16.71
348.944	16.52
349.154	16.33
349.364	16.32
349.574	15.76
349.784	15.78
349.994	16.12
350.204	16.4
350.413	16.27
350.623	15.9
350.833	15.83
351.043	15.8
351.253	15.98
351.463	16.08
351.672	15.97
351.882	16.24
352.092	15.95
352.302	15.67
352.511	15.45
352.721	15.79
352.931	15.92
353.141	15.92
353.35	15.7
353.56	15.55
353.77	15.61
353.979	15.45
354.189	15.53
354.399	15.67
354.608	15.86
354.818	15.91
355.027	15.6
355.237	15.58
355.447	15.38
355.656	15.36
355.866	15.21
356.075	14.97
356.285	14.94
356.494	14.73
356.704	14.91
356.913	14.67
357.123	14.6
357.332	14.4
357.542	14.38
357.751	14.51
357.96	14.25
358.17	14.25
358.379	14.25
358.589	14.26
358.798	14.33
359.007	14.16
359.217	14.2
359.426	14.03
359.635	14.2
359.845	14.07
360.054	14.01
360.263	14.24
360.472	14.37
360.682	14.33
360.891	14.34
361.1	14.27
361.309	14.34
361.519	14.31
361.728	14.27
361.937	14.28
362.146	14.34
362.355	14.4
362.564	14.39
362.774	14.41
362.983	14.42
363.192	14.53
363.401	14.37
363.61	14.24
363.819	14.46
364.028	14.47
364.237	14.14
364.446	13.87
364.655	13.92
364.864	13.75
365.073	13.5
365.282	13.58
365.491	13.35
365.7	13.53
365.909	13.77
366.118	13.5
366.327	13.69
366.536	13.71
366.745	14.13
366.954	14.05
367.162	14.21
367.371	14.11
367.58	14.22
367.789	14.54
367.998	14.64
368.207	14.31
368.415	14.5
368.624	14.28
368.833	14.59
369.042	14.12
369.25	14.19
369.459	14.15
369.668	14.38
369.877	13.95
370.085	13.73
370.294	13.59
370.503	13.73
370.711	13.54
370.92	13.63
371.129	13.61
371.337	13.79
371.546	13.53
371.754	13.56
371.963	13.37
372.171	13.54
372.38	13.51
372.589	13.53
372.797	13.35
373.006	13.21
373.214	13.13
373.423	12.9
373.631	12.95
373.84	13.04
374.048	12.91
374.256	12.78
374.465	12.92
374.673	12.75
374.882	12.56
375.09	12.59
375.298	12.63
375.507	12.6
375.715	12.78
375.923	12.76
376.132	12.72
376.34	12.55
376.548	12.65
376.757	12.44
376.965	12.48
377.173	12.5
377.381	12.33
377.59	12.12
377.798	11.99
378.006	11.83
378.214	11.65
378.423	11.45
378.631	11.48
378.839	11.33
379.047	11.23
379.255	11.29
379.463	11.38
379.671	11.45
379.879	11.53
380.088	11.63
380.296	11.67
380.504	11.69
380.712	11.78
380.92	11.63
381.128	11.62
381.336	11.69
381.544	11.48
381.752	11.42
381.96	11.29
382.168	11.21
382.376	11.21
382.584	11.15
382.791	11.12
382.999	10.91
383.207	10.97
383.415	10.93
383.623	10.87
383.831	10.71
384.039	10.72
384.247	10.79
384.454	11.03
384.662	10.89
384.87	10.94
385.078	10.89
385.285	11.01
385.493	11.17
385.701	11.06
385.909	10.93
386.116	11.06
386.324	10.97
386.532	10.78
386.739	10.61
386.947	10.5
387.155	10.33
387.362	10.38
387.57	10.34
387.778	10.09
387.985	10.13
388.193	10.21
388.4	10.11
388.608	10.12
388.816	10.26
389.023	10.32
389.231	10.33
389.438	10.52
389.646	10.17
389.853	10.09
390.061	10.05
390.268	9.92
390.475	9.66
390.683	9.63
390.89	9.52
391.098	9.42
391.305	9.28
391.512	9.24
391.72	9.06
391.927	8.96
392.135	9.05
392.342	9.06
392.549	9.04
392.756	9.11
392.964	8.94
393.171	9.13
393.378	9.05
393.586	8.99
393.793	8.73
394	8.56
394.207	8.63
394.414	8.61
394.622	8.48
394.829	8.65
395.036	8.75
395.243	8.92
395.45	8.65
395.657	8.58
395.864	8.48
396.072	8.82
396.279	8.97
396.486	9.15
396.693	9.2
396.9	9.16
397.107	9
397.314	8.76
397.521	8.69
397.728	8.58
397.935	8.69
398.142	8.61
398.349	8.47
398.556	8.4
398.763	8.32
398.97	8.11
399.177	8.11
399.383	8.1
399.59	8.07
399.797	8.11
400.004	8.15
400.211	8.07
400.418	8.19
400.625	8.14
400.831	8
401.038	7.98
401.245	7.83
401.452	7.92
401.658	7.85
401.865	7.98
402.072	7.87
402.279	7.89
402.485	7.84
402.692	7.66
402.899	7.6
403.105	7.61
403.312	7.54
403.519	7.54
403.725	7.45
403.932	7.39
404.138	7.27
404.345	7.22
404.552	7.18
404.758	7.16
404.965	7.27
405.171	7.32
405.378	7.37
405.584	7.35
405.791	7.36
405.997	7.3
406.204	7.35
406.41	7.37
406.617	7.5
406.823	7.53
407.029	7.61
407.236	7.67
407.442	7.57
407.649	7.68
407.855	7.54
408.061	7.78
408.268	7.81
408.474	7.92
408.68	7.82
408.887	7.52
409.093	7.52
409.299	7.39
409.505	7.27
409.712	7.31
409.918	7.06
410.124	7.24
410.33	7
410.537	6.89
410.743	6.76
410.949	6.8
411.155	7.06
411.361	6.82
411.567	6.91
411.773	6.84
411.98	6.86
412.186	6.92
412.392	6.82
412.598	6.85
412.804	6.86
413.01	6.77
413.216	6.73
413.422	6.63
413.628	6.81
413.834	6.87
414.04	6.98
414.246	6.91
414.452	6.9
414.658	6.94
414.864	6.9
415.07	6.96
415.275	6.98
415.481	6.94
415.687	6.81
415.893	6.72
416.099	6.58
416.305	6.52
416.511	6.45
416.716	6.29
416.922	6.27
417.128	6.24
417.334	6.18
417.539	6.13
417.745	6.06
417.951	6.1
418.157	6.14
418.362	6.08
418.568	5.99
418.774	6.04
418.979	6.06
419.185	6.03
419.391	5.96
419.596	5.88
419.802	5.84
420.008	5.85
420.213	5.79
420.419	5.68
420.624	5.7
420.83	5.65
421.035	5.58
421.241	5.52
421.446	5.44
421.652	5.38
421.857	5.31
422.063	5.33
422.268	5.32
422.474	5.32
422.679	5.37
422.885	5.32
423.09	5.31
423.295	5.3
423.501	5.35
423.706	5.33
423.911	5.37
424.117	5.5
424.322	5.44
424.527	5.34
424.733	5.33
424.938	5.29
425.143	5.32
425.349	5.34
425.554	5.31
425.759	5.27
425.964	5.24
426.169	5.3
426.375	5.25
426.58	5.25
426.785	5.27
426.99	5.32
427.195	5.33
427.4	5.35
427.605	5.4
427.811	5.46
428.016	5.5
428.221	5.59
428.426	5.57
428.631	5.63
428.836	5.69
429.041	5.89
429.246	5.75
429.451	5.74
429.656	5.61
429.861	5.63
430.066	5.76
430.271	5.66
430.476	5.53
430.681	5.51
430.886	5.42
431.09	5.4
431.295	5.25
431.5	5.35
431.705	5.3
431.91	5.41
432.115	5.28
432.32	5.2
432.524	5.25
432.729	5.39
432.934	5.31
433.139	5.26
433.343	5.16
433.548	5.14
433.753	5.04
433.958	5.09
434.162	5.04
434.367	5.06
434.572	5.02
434.776	4.91
434.981	4.91
435.186	4.96
435.39	5.05
435.595	5.11
435.799	5.12
436.004	5.2
436.209	5.19
436.413	5.17
436.618	5.26
436.822	5.28
437.027	5.32
437.231	5.19
437.436	5.14
437.64	5.11
437.845	5.14
438.049	5.23
438.253	5.15
438.458	5.15
438.662	5.2
438.867	5.19
439.071	5.11
439.275	5.06
439.48	5.13
439.684	5.13
439.888	5.17
440.093	5.13
440.297	5.09
440.501	5.1
440.706	5.08
440.91	5.01
441.114	4.86
441.318	4.9
441.523	4.96
441.727	4.97
441.931	4.96
442.135	4.93
442.339	4.96
442.543	4.89
442.748	4.85
442.952	4.9
443.156	4.95
443.36	5.08
443.564	5.13
443.768	5.1
443.972	5.12
444.176	5.24
444.38	5.15
444.584	5.08
444.788	5.06
444.992	5.09
445.196	4.99
445.4	4.94
445.604	4.88
445.808	4.76
446.012	4.75
446.216	4.67
446.42	4.6
446.624	4.57
446.828	4.63
447.032	4.64
447.235	4.67
447.439	4.73
447.643	4.74
447.847	4.81
448.051	4.84
448.254	4.82
448.458	4.83
448.662	4.77
448.866	4.75
449.069	4.72
449.273	4.76
449.477	4.74
449.681	4.68
449.884	4.76
450.088	4.74
450.292	4.82
450.495	4.87
450.699	4.9
450.902	5
451.106	5.02
451.31	5.11
451.513	5.12
451.717	5.01
451.92	5.06
452.124	5.04
452.327	4.95
452.531	4.9
452.734	4.86
452.938	4.85
453.141	4.76
453.345	4.74
453.548	4.61
453.752	4.55
453.955	4.7
454.158	4.61
454.362	4.52
454.565	4.51
454.769	4.49
454.972	4.62
455.175	4.68
455.379	4.75
455.582	4.95
455.785	4.88
455.988	4.87
456.192	4.76
456.395	4.79
456.598	4.82
456.801	4.94
457.005	4.93
457.208	4.87
457.411	4.86
457.614	4.73
457.817	4.56
458.021	4.57
458.224	4.63
458.427	4.68
458.63	4.68
458.833	4.61
459.036	4.55
459.239	4.55
459.442	4.49
459.645	4.4
459.848	4.45
460.051	4.5
460.254	4.55
460.457	4.49
460.66	4.45
460.863	4.45
461.066	4.48
461.269	4.41
461.472	4.46
461.675	4.54
461.878	4.58
462.081	4.61
462.284	4.64
462.486	4.66
462.689	4.8
462.892	4.8
463.095	4.89
463.298	5.01
463.5	5.03
463.703	5.1
463.906	5.08
464.109	5.18
464.311	5.17
464.514	5.14
464.717	5.21
464.92	5.07
465.122	5.12
465.325	5.13
465.528	5.14
465.73	5.29
465.933	5.2
466.135	5.12
466.338	5.09
466.541	5.06
466.743	5.03
466.946	5
467.148	5.01
467.351	4.92
467.553	4.83
467.756	4.71
467.958	4.59
468.161	4.57
468.363	4.64
468.566	4.69
468.768	4.71
468.971	4.68
469.173	4.7
469.375	4.75
469.578	4.86
469.78	4.85
469.983	4.89
470.185	4.95
470.387	4.95
470.59	5.03
470.792	5.12
470.994	5.17
471.196	5.28
471.399	5.24
471.601	5.3
471.803	5.18
472.005	5.25
472.208	5.29
472.41	5.29
472.612	5.34
472.814	5.2
473.016	5.07
473.218	5.04
473.421	5.04
473.623	5.09
473.825	5.05
474.027	5.09
474.229	5.06
474.431	5.1
474.633	5.09
474.835	5.1
475.037	5.16
475.239	5.14
475.441	5.15
475.643	5.13
475.845	4.97
476.047	4.99
476.249	5.01
476.451	5.03
476.653	5.04
476.855	5.1
477.057	4.96
477.258	4.98
477.46	5
477.662	5.01
477.864	4.97
478.066	5.08
478.268	5.01
478.469	5.01
478.671	5.07
478.873	5.07
479.075	5
479.276	5.13
479.478	5.1
479.68	5.15
479.882	5.09
480.083	5.13
480.285	5.07
480.487	5.1
480.688	5.08
480.89	5
481.091	4.91
481.293	4.85
481.495	4.68
481.696	4.64
481.898	4.51
482.099	4.45
482.301	4.35
482.502	4.31
482.704	4.27
482.905	4.2
483.107	4.14
483.308	4.09
483.51	4.06
483.711	4.06
483.913	4.04
484.114	4.04
484.315	4.02
484.517	4.03
484.718	4.03
484.92	4.01
485.121	4.01
485.322	4.01
485.524	4.03
485.725	4.03
485.926	4.01
486.127	4.02
486.329	4.01
486.53	4.01
486.731	4.02
486.932	3.97
487.134	3.94
487.335	3.97
487.536	3.97
487.737	3.96
487.938	3.97
488.139	4.02
488.341	4.02
488.542	4.04
488.743	4.09
488.944	4.1
489.145	4.15
489.346	4.19
489.547	4.16
489.748	4.2
489.949	4.24
490.15	4.25
490.351	4.27
490.552	4.2
490.753	4.14
490.954	4.15
491.155	4.14
491.356	4.19
491.557	4.19
491.758	4.23
491.959	4.26
492.159	4.27
492.36	4.28
492.561	4.33
492.762	4.45
492.963	4.57
493.164	4.56
493.364	4.62
493.565	4.66
493.766	4.75
493.967	4.75
494.167	4.79
494.368	4.8
494.569	4.89
494.769	4.84
494.97	4.81
495.171	4.85
495.371	4.87
495.572	4.92
495.773	4.9
495.973	4.89
496.174	4.94
496.375	4.94
496.575	4.98
496.776	4.96
496.976	4.97
497.177	5.02
497.377	5
497.578	5.03
497.778	4.99
497.979	5.01
498.179	5.1
498.38	5.15
498.58	5.15
498.78	5.2
498.981	5.22
499.181	5.27
499.382	5.33
499.582	5.34
499.782	5.39
499.983	5.45
500.183	5.49
500.383	5.49
500.584	5.55
500.784	5.65
500.984	5.65
501.184	5.8
501.385	5.85
501.585	5.89
501.785	5.93
501.985	5.94
502.185	5.96
502.386	5.97
502.586	5.96
502.786	5.94
502.986	5.93
503.186	6.05
503.386	5.94
503.586	5.91
503.786	5.96
503.987	6.01
504.187	6.07
504.387	6.17
504.587	6.31
504.787	6.37
504.987	6.46
505.187	6.52
505.387	6.5
505.587	6.55
505.786	6.63
505.986	6.64
506.186	6.77
506.386	6.79
506.586	6.69
506.786	6.59
506.986	6.68
507.186	6.69
507.386	6.74
507.585	6.74
507.785	6.83
507.985	6.82
508.185	6.86
508.384	6.85
508.584	7
508.784	7.07
508.984	7.15
509.183	7.23
509.383	7.25
509.583	7.32
509.782	7.33
509.982	7.4
510.182	7.52
510.381	7.54
510.581	7.59
510.781	7.62
510.98	7.73
511.18	7.76
511.379	7.79
511.579	7.81
511.778	7.84
511.978	7.93
512.177	7.97
512.377	8.02
512.576	8.08
512.776	8.12
512.975	8.12
513.175	8.14
513.374	8.18
513.573	8.23
513.773	8.45
513.972	8.53
514.172	8.62
514.371	8.73
514.57	8.77
514.77	8.81
514.969	8.89
515.168	9.07
515.367	9.2
515.567	9.3
515.766	9.41
515.965	9.38
516.164	9.5
516.364	9.56
516.563	9.67
516.762	9.74
516.961	9.88
517.16	9.93
517.359	9.97
517.559	9.98
517.758	10.04
517.957	10.08
518.156	10.13
518.355	10.17
518.554	10.23
518.753	10.23
518.952	10.29
519.151	10.29
519.35	10.36
519.549	10.35
519.748	10.45
519.947	10.56
520.146	10.61
520.345	10.73
520.544	10.82
520.743	10.97
520.942	11.08
521.141	11.19
521.339	11.35
521.538	11.47
521.737	11.62
521.936	11.66
522.135	11.67
522.333	11.71
522.532	11.74
522.731	11.81
522.93	11.73
523.129	11.71
523.327	11.71
523.526	11.76
523.725	11.81
523.923	11.82
524.122	11.92
524.321	12.05
524.519	12.1
524.718	12.15
524.917	12.19
525.115	12.35
525.314	12.4
525.512	12.53
525.711	12.53
525.909	12.53
526.108	12.56
526.306	12.6
526.505	12.64
526.703	12.68
526.902	12.76
527.1	12.77
527.299	12.73
527.497	12.78
527.696	12.77
527.894	12.79
528.092	12.83
528.291	12.9
528.489	12.93
528.688	12.93
528.886	12.93
529.084	12.98
529.283	13.05
529.481	13.12
529.679	13.17
529.877	13.26
530.076	13.37
530.274	13.45
530.472	13.49
530.67	13.57
530.869	13.67
531.067	13.8
531.265	13.81
531.463	13.87
531.661	13.94
531.859	14
532.057	14.01
532.255	14.06
532.454	14.09
532.652	14.17
532.85	14.22
533.048	14.22
533.246	14.3
533.444	14.4
533.642	14.46
533.84	14.47
534.038	14.54
534.236	14.58
534.434	14.59
534.632	14.7
534.83	14.76
535.027	14.82
535.225	14.94
535.423	14.94
535.621	14.95
535.819	14.94
536.017	15.05
536.215	15.09
536.412	15.14
536.61	15.25
536.808	15.31
537.006	15.33
537.203	15.38
537.401	15.48
537.599	15.56
537.797	15.61
537.994	15.75
538.192	15.86
538.39	16.04
538.587	16.15
538.785	16.2
538.983	16.2
539.18	16.27
539.378	16.33
539.575	16.39
539.773	16.49
539.97	16.56
540.168	16.6
540.366	16.59
540.563	16.58
540.761	16.6
540.958	16.63
541.155	16.65
541.353	16.68
541.55	16.72
541.748	16.69
541.945	16.72
542.143	16.75
542.34	16.77
542.537	16.81
542.735	16.82
542.932	16.89
543.129	17
543.327	17.09
543.524	17.2
543.721	17.31
543.919	17.51
544.116	17.58
544.313	17.71
544.51	17.88
544.708	17.96
544.905	18.05
545.102	18.14
545.299	18.25
545.496	18.39
545.693	18.45
545.891	18.42
546.088	18.46
546.285	18.48
546.482	18.51
546.679	18.61
546.876	18.73
547.073	18.82
547.27	18.88
547.467	18.9
547.664	18.88
547.861	18.88
548.058	19.01
548.255	19.02
548.452	19.13
548.649	19.14
548.846	19.05
549.043	19.12
549.24	19.15
549.437	19.16
549.633	19.04
549.83	19.12
550.027	19.25
550.224	19.27
550.421	19.23
550.618	19.25
550.814	19.31
551.011	19.33
551.208	19.3
551.405	19.4
551.601	19.34
551.798	19.46
551.995	19.4
552.191	19.4
552.388	19.38
552.585	19.56
552.781	19.55
552.978	19.58
553.175	19.61
553.371	19.63
553.568	19.61
553.764	19.76
553.961	19.8
554.157	19.9
554.354	19.94
554.55	20.03
554.747	19.92
554.943	20.09
555.14	20.19
555.336	20.32
555.533	20.4
555.729	20.45
555.926	20.46
556.122	20.47
556.318	20.53
556.515	20.57
556.711	20.6
556.907	20.66
557.104	20.8
557.3	20.78
557.496	20.73
557.693	20.73
557.889	20.77
558.085	20.89
558.281	21.03
558.478	21.1
558.674	21.11
558.87	21.1
559.066	21.01
559.262	20.94
559.459	20.96
559.655	21.1
559.851	21.07
560.047	21.04
560.243	21.04
560.439	21.01
560.635	21.07
560.831	21.12
561.027	21.18
561.223	21.24
561.419	21.15
561.615	21.18
561.811	21.21
562.007	21.38
562.203	21.41
562.399	21.37
562.595	21.29
562.791	21.32
562.987	21.42
563.183	21.41
563.379	21.54
563.575	21.74
563.771	21.68
563.966	21.6
564.162	21.59
564.358	21.75
564.554	21.74
564.75	21.86
564.945	21.78
565.141	21.72
565.337	21.84
565.533	21.91
565.728	21.82
565.924	21.91
566.12	22
566.315	21.99
566.511	21.96
566.707	22.01
566.902	22
567.098	22.04
567.293	21.97
567.489	21.9
567.684	21.91
567.88	21.97
568.076	21.94
568.271	21.99
568.467	22.05
568.662	22.16
568.858	22.18
569.053	22.46
569.248	22.49
569.444	22.69
569.639	22.75
569.835	22.7
570.03	22.68
570.225	22.69
570.421	22.73
570.616	22.72
570.812	22.64
571.007	22.69
571.202	22.62
571.397	22.77
571.593	22.75
571.788	22.76
571.983	22.77
572.178	22.81
572.374	22.95
572.569	22.9
572.764	22.94
572.959	22.97
573.154	23.06
573.35	23.04
573.545	23.04
573.74	23.16
573.935	23.12
574.13	23.15
574.325	23.17
574.52	23.2
574.715	23.24
574.91	23.4
575.105	23.43
575.3	23.41
575.495	23.35
575.69	23.34
575.885	23.28
576.08	23.43
576.275	23.52
576.47	23.63
576.665	23.63
576.86	23.81
577.055	23.73
577.25	23.8
577.444	23.79
577.639	24.1
577.834	24.06
578.029	24.19
578.224	24.24
578.418	24.45
578.613	24.4
578.808	24.5
579.003	24.33
579.197	24.36
579.392	24.44
579.587	24.47
579.781	24.28
579.976	24.32
580.171	24.25
580.365	24.28
580.56	24.15
580.755	24.27
580.949	24.29
581.144	24.42
581.338	24.5
581.533	24.46
581.727	24.45
581.922	24.45
582.116	24.6
582.311	24.61
582.505	24.64
582.7	24.79
582.894	24.86
583.089	24.89
583.283	24.87
583.478	24.88
583.672	24.93
583.866	25.11
584.061	25.11
584.255	25.17
584.449	25.2
584.644	25.28
584.838	25.21
585.032	25.18
585.226	25.15
585.421	25.23
585.615	25.12
585.809	25.16
586.003	25.16
586.198	25.32
586.392	25.39
586.586	25.38
586.78	25.31
586.974	25.32
587.168	25.24
587.363	25.27
587.557	25.21
587.751	25.33
587.945	25.4
588.139	25.37
588.333	25.4
588.527	25.19
588.721	25.21
588.915	25.24
589.109	25.09
589.303	25.14
589.497	25.08
589.691	25.2
589.885	25.21
590.079	25.03
590.273	25.03
590.466	25.06
590.66	25.12
590.854	25.24
591.048	25.32
591.242	25.39
591.436	25.39
591.629	25.58
591.823	25.56
592.017	25.51
592.211	25.53
592.404	25.56
592.598	25.41
592.792	25.49
592.986	25.44
593.179	25.31
593.373	25.35
593.567	25.56
593.76	25.41
593.954	25.32
594.147	25.44
594.341	25.42
594.535	25.31
594.728	25.3
594.922	25.23
595.115	25.12
595.309	25.08
595.502	25.17
595.696	25.02
595.889	25.09
596.083	25.04
596.276	25.01
596.47	25.03
596.663	25.03
596.856	25.15
597.05	25.05
597.243	25.15
597.437	25.19
597.63	25.12
597.823	25.11
598.017	25.18
598.21	25.41
598.403	25.43
598.596	25.52
598.79	25.66
598.983	25.65
599.176	25.93
599.369	25.93
599.563	26.12
599.756	26.25
599.949	26.25
600.142	26.21
600.335	26.22
600.528	26.18
600.722	26.25
600.915	26.09
601.108	26.15
601.301	26.12
601.494	26.1
601.687	25.94
601.88	25.99
602.073	25.89
602.266	25.68
602.459	25.5
602.652	25.53
602.845	25.43
603.038	25.44
603.231	25.33
603.424	25.17
603.617	25.22
603.809	25.32
604.002	25.18
604.195	25.17
604.388	25.27
604.581	25.34
604.774	25.33
604.966	25.37
605.159	25.51
605.352	25.56
605.545	25.68
605.737	25.59
605.93	25.61
606.123	25.76
606.316	25.97
606.508	26.02
606.701	26.03
606.894	26.11
607.086	26.24
607.279	26.24
607.471	26.2
607.664	26.32
607.857	26.43
608.049	26.47
608.242	26.47
608.434	26.72
608.627	27.01
608.819	27.28
609.012	27.51
609.204	27.82
609.397	28.15
609.589	28.77
609.782	29.15
609.974	29.75
610.166	30.32
610.359	30.91
610.551	31.29
610.743	31.68
610.936	32.02
611.128	32.25
611.32	32.43
611.513	32.55
611.705	32.51
611.897	32.6
612.09	32.37
612.282	32.1
612.474	31.84
612.666	31.51
612.858	31.08
613.051	30.89
613.243	30.8
613.435	30.54
613.627	30.38
613.819	30.16
614.011	30.08
614.203	30.04
614.395	29.87
614.588	29.57
614.78	29.39
614.972	29.44
615.164	29.36
615.356	29.13
615.548	28.94
615.74	28.91
615.932	28.84
616.124	28.46
616.315	28.21
616.507	28.26
616.699	28.27
616.891	28.26
617.083	28.17
617.275	27.98
617.467	27.83
617.659	27.89
617.85	27.77
618.042	27.62
618.234	27.67
618.426	27.58
618.618	27.44
618.809	27.3
619.001	27.21
619.193	27.07
619.384	27.1
619.576	27.37
619.768	27.35
619.959	27.36
620.151	27.38
620.343	27.53
620.534	27.55
620.726	27.49
620.917	27.7
621.109	27.95
621.301	28.09
621.492	27.86
621.684	27.67
621.875	27.69
622.067	27.81
622.258	27.54
622.45	27.49
622.641	27.66
622.832	27.7
623.024	27.75
623.215	27.61
623.407	27.45
623.598	27.69
623.789	27.64
623.981	27.66
624.172	27.66
624.363	27.94
624.555	27.78
624.746	27.64
624.937	27.82
625.129	27.72
625.32	27.64
625.511	27.69
625.702	27.7
625.893	27.79
626.085	27.75
626.276	27.65
626.467	27.57
626.658	27.61
626.849	27.7
627.04	27.6
627.231	27.64
627.422	27.7
627.614	27.83
627.805	27.77
627.996	27.89
628.187	28.02
628.378	28.13
628.569	28.28
628.76	28.3
628.951	28.24
629.142	28.32
629.332	28.37
629.523	28.38
629.714	28.32
629.905	28.53
630.096	28.57
630.287	28.6
630.478	28.51
630.669	28.57
630.859	28.49
631.05	28.5
631.241	28.59
631.432	28.61
631.623	28.55
631.813	28.43
632.004	28.19
632.195	27.88
632.385	27.7
632.576	27.62
632.767	27.35
632.957	27.31
633.148	27.47
633.339	27.17
633.529	27
633.72	26.93
633.91	27
634.101	27.05
634.292	27.02
634.482	27.13
634.673	27.27
634.863	27.49
635.054	27.56
635.244	27.54
635.435	27.49
635.625	27.54
635.815	27.48
636.006	27.5
636.196	27.4
636.387	27.72
636.577	27.57
636.767	27.48
636.958	27.12
637.148	27.24
637.338	27.09
637.529	27.27
637.719	27.36
637.909	27.68
638.099	27.71
638.29	27.62
638.48	27.46
638.67	27.58
638.86	27.61
639.05	27.85
639.241	27.75
639.431	27.81
639.621	27.81
639.811	27.51
640.001	27.38
640.191	27.33
640.381	27.46
640.571	27.49
640.761	27.48
640.951	27.45
641.141	27.45
641.331	27.47
641.521	27.43
641.711	27.48
641.901	27.64
642.091	27.63
642.281	27.81
642.471	27.92
642.661	27.82
642.851	27.94
643.041	27.99
643.231	28.18
643.42	28.43
643.61	28.43
643.8	28.34
643.99	28.35
644.18	28.35
644.369	28.3
644.559	28.35
644.749	28.35
644.939	28.28
645.128	28.29
645.318	28.15
645.508	27.88
645.697	27.75
645.887	27.91
646.076	28.16
646.266	28.03
646.456	28.27
646.645	28.26
646.835	28.51
647.024	28.5
647.214	28.46
647.403	28.45
647.593	28.58
647.782	28.65
647.972	28.59
648.161	28.53
648.351	28.71
648.54	28.21
648.73	28.13
648.919	28.13
649.108	28.01
649.298	28.12
649.487	28.14
649.677	28.2
649.866	28.29
650.055	28.34
650.244	28.12
650.434	28.04
650.623	28.13
650.812	28.13
651.002	27.86
651.191	27.94
651.38	28.03
651.569	28.1
651.758	28
651.947	28.12
652.137	28.11
652.326	28.17
652.515	28.16
652.704	28.24
652.893	28.37
653.082	28.34
653.271	28.56
653.46	28.47
653.649	28.37
653.838	28.32
654.027	28.22
654.216	28.23
654.405	28.27
654.594	28.21
654.783	28.26
654.972	28.18
655.161	28.43
655.35	28.23
655.539	28.31
655.728	28.46
655.916	28.66
656.105	28.55
656.294	28.74
656.483	28.68
656.672	28.66
656.86	28.74
657.049	28.73
657.238	28.54
657.427	28.68
657.615	28.34
657.804	28.19
657.993	27.98
658.181	27.99
658.37	27.67
658.559	27.77
658.747	27.76
658.936	27.64
659.125	27.48
659.313	27.49
659.502	27.32
659.69	27.37
659.879	27.43
660.067	27.47
660.256	27.45
660.444	27.55
660.633	27.43
660.821	27.44
661.01	27.58
661.198	27.48
661.387	27.46
661.575	27.48
661.763	27.63
661.952	27.64
662.14	27.73
662.328	27.95
662.517	28.08
662.705	28.39
662.893	28.57
663.082	28.67
663.27	28.99
663.458	29.05
663.646	29.43
663.834	29.53
664.023	29.64
664.211	29.61
664.399	29.45
664.587	29.36
664.775	29.05
664.963	29.04
665.152	29.2
665.34	29.26
665.528	29.37
665.716	29.23
665.904	29.35
666.092	29.03
666.28	29.07
666.468	29.01
666.656	29.05
666.844	29.2
667.032	29.09
667.22	28.74
667.408	28.75
667.596	28.68
667.784	28.42
667.971	28.24
668.159	28.48
668.347	28.38
668.535	28.49
668.723	28.35
668.911	28.38
669.098	28.67
669.286	28.6
669.474	28.38
669.662	28.47
669.849	28.72
670.037	28.94
670.225	29.18
670.413	29.45
670.6	29.58
670.788	29.85
670.976	29.73
671.163	29.5
671.351	29.83
671.538	30.06
671.726	30.09
671.913	29.79
672.101	29.41
672.289	29.02
672.476	28.97
672.664	29.01
672.851	29.08
673.039	29.09
673.226	29.13
673.413	29.03
673.601	28.97
673.788	29.07
673.976	29.2
674.163	29.41
674.35	29.77
674.538	29.67
674.725	29.6
674.912	29.55
675.1	29.62
675.287	29.75
675.474	29.81
675.662	29.92
675.849	29.78
676.036	29.9
676.223	29.91
676.411	29.49
676.598	29.26
676.785	29.12
676.972	29.03
677.159	28.83
677.346	28.5
677.533	28.34
677.721	28.35
677.908	28.23
678.095	28.12
678.282	28.14
678.469	28.41
678.656	28.49
678.843	28.6
679.03	28.43
679.217	28.66
679.404	28.82
679.591	29.03
679.778	28.8
679.964	28.76
680.151	28.67
680.338	28.66
680.525	28.64
680.712	28.67
680.899	28.61
681.086	28.61
681.272	28.57
681.459	28.68
681.646	28.41
681.833	28.69
682.02	28.87
682.206	29.01
682.393	29.17
682.58	29.14
682.766	29.36
682.953	29.28
683.14	29.47
683.326	29.78
683.513	29.95
683.7	29.98
683.886	30.03
684.073	30.08
684.259	29.96
684.446	29.97
684.632	29.7
684.819	29.32
685.005	29.47
685.192	29.35
685.378	29.2
685.565	28.78
685.751	28.88
685.938	28.83
686.124	28.89
686.31	29.01
686.497	28.89
686.683	29.34
686.87	29.65
687.056	29.57
687.242	29.35
687.429	29.29
687.615	29.32
687.801	29.48
687.987	29.37
688.174	29.25
688.36	29.08
688.546	29.13
688.732	28.88
688.918	29.19
689.105	29.45
689.291	29.67
689.477	29.6
689.663	29.86
689.849	29.62
690.035	29.91
690.221	29.86
690.407	30.28
690.593	30.25
690.779	30.48
690.965	30.19
691.151	30.18
691.337	30.6
691.523	30.85
691.709	30.76
691.895	30.81
692.081	30.6
692.267	30.41
692.453	30.22
692.639	30.01
692.825	29.99
693.011	29.94
693.196	29.85
693.382	29.49
693.568	29.51
693.754	29.68
693.94	29.47
694.125	29.51
694.311	30.22
694.497	30.49
694.682	30.6
694.868	30.83
695.054	30.96
695.239	30.73
695.425	30.59
695.611	30.46
695.796	30.31
695.982	30.56
696.168	30.56
696.353	30.15
696.539	29.71
696.724	29.78
696.91	29.25
697.095	29.01
697.281	29.23
697.466	29.24
697.652	29.25
697.837	29.09
698.023	29.16
698.208	29.1
698.393	28.7
698.579	28.74
698.764	28.56
698.949	28.59
699.135	28.57
699.32	28.29
699.505	28.42
699.691	28.4
699.876	28.28
700.061	28.22
700.246	28.2
700.432	28.57
700.617	28.55
700.802	28.8
700.987	28.89
701.172	29.01
701.358	29.38
701.543	29.24
701.728	29.15
701.913	29.37
702.098	29.31
702.283	29.2
702.468	29.25
702.653	29.26
702.838	29.42
703.023	29.57
703.208	29.78
703.393	29.66
703.578	29.87
703.763	30.19
703.948	30.43
704.133	31.1
704.318	31.73
704.503	31.99
704.688	31.94
704.873	31.76
705.057	32.05
705.242	32.27
705.427	32.48
705.612	32.55
705.797	32.52
705.981	33.07
706.166	32.45
706.351	32.2
706.536	32.43
706.72	32.88
706.905	33.13
707.09	33.2
707.274	33.06
707.459	33.42
707.644	33.32
707.828	33.52
708.013	33.02
708.197	33.13
708.382	33.08
708.567	32.83
708.751	32.76
708.936	32.65
709.12	32.61
709.305	32.29
709.489	31.92
709.673	32.19
709.858	32.01
710.042	31.93
710.227	32.12
710.411	32.15
710.596	32.19
710.78	31.74
710.964	31.61
711.149	31.69
711.333	32.03
711.517	31.93
711.702	31.69
711.886	31.59
712.07	31.35
712.254	31.22
712.438	31.18
712.623	30.86
712.807	31.31
712.991	31.23
713.175	30.94
713.359	30.77
713.544	30.77
713.728	30.88
713.912	30.78
714.096	31.09
714.28	30.99
714.464	30.67
714.648	30.75
714.832	30.7
715.016	30.87
715.2	30.65
715.384	30.62
715.568	30.46
715.752	30.27
715.936	30.16
716.12	29.98
716.304	30.41
716.488	30.87
716.671	30.65
716.855	30.87
717.039	30.61
717.223	30.74
717.407	30.87
717.59	30.99
717.774	30.96
717.958	31.27
718.142	31.64
718.325	31.16
718.509	30.91
718.693	31.14
718.877	30.53
719.06	30.43
719.244	30.41
719.428	30.17
719.611	30.11
719.795	30.04
719.978	30.04
720.162	30.04
720.345	30.18
720.529	30.02
720.713	30.44
720.896	31.14
721.08	31.66
721.263	31.66
721.446	31.65
721.63	32.09
721.813	32.6
721.997	32.54
722.18	32.45
722.364	32.45
722.547	32.83
722.73	32.44
722.914	32.14
723.097	32.04
723.28	32.45
723.464	32.95
723.647	32.76
723.83	32.78
724.013	32.68
724.197	32.99
724.38	32.94
724.563	32.8
724.746	32.75
724.929	32.71
725.112	32.6
725.296	32.22
725.479	31.83
725.662	32.06
725.845	31.84
726.028	31.92
726.211	31.62
726.394	31.64
726.577	31.36
726.76	31.68
726.943	31.58
727.126	31.93
727.309	32.25
727.492	32.2
727.675	31.91
727.858	32.24
728.041	32.58
728.224	32.45
728.407	32.32
728.589	32.94
728.772	32.86
728.955	33.02
729.138	33.08
729.321	32.7
729.503	32.61
729.686	32.6
729.869	31.97
730.052	31.51
730.234	31.52
730.417	31.33
730.6	30.97
730.782	30.74
730.965	30.72
731.148	30.19
731.33	30.57
731.513	30.97
731.695	31.14
731.878	31.38
732.061	31.24
732.243	31.67
732.426	32.04
732.608	31.92
732.791	31.71
732.973	31.58
733.156	31.35
733.338	31.21
733.52	31.36
733.703	31.19
733.885	31.11
734.068	31.41
734.25	30.85
734.432	31.3
734.615	31.53
734.797	32.04
734.979	31.99
735.162	32.42
735.344	32.57
735.526	32.25
735.708	32.59
735.891	32.77
736.073	33.03
736.255	33.29
736.437	32.25
736.619	32.51
736.802	32.51
736.984	32.88
737.166	32.96
737.348	32.5
737.53	32.24
737.712	31.9
737.894	31.7
738.076	31.87
738.258	31.9
738.44	32.09
738.622	32.01
738.804	31.91
738.986	32.42
739.168	32.54
739.35	32.66
739.532	32.92
739.714	32.87
739.896	32.9
740.078	32.33
740.259	32.56
740.441	32.87
740.623	32.37
740.805	32.5
740.987	31.89
741.168	32.3
741.35	32.26
741.532	32.64
741.714	32.71
741.895	33.02
742.077	33.29
742.259	32.84
742.44	33.12
742.622	33.2
742.804	33
742.985	33.05
743.167	32.15
743.348	32.32
743.53	32.32
743.711	32.75
743.893	32.48
744.075	32.73
744.256	33.44
744.438	33.2
744.619	33.3
744.8	33.27
744.982	33.69
745.163	34.04
745.345	34.41
745.526	34.1
745.707	33.33
745.889	33.45
746.07	33.32
746.252	33.5
746.433	33.38
746.614	33.48
746.795	33.4
746.977	33.23
747.158	33.75
747.339	33.32
747.52	33.46
747.702	34.36
747.883	34.68
748.064	34.17
748.245	33.41
748.426	33.51
748.607	33.73
748.788	34.4
748.97	33.98
749.151	33.71
749.332	33.92
749.513	33.85
749.694	33.07
749.875	33.32
750.056	33.84
750.237	34.1
750.418	34.22
750.599	34.43
750.78	33.71
750.96	34.06
751.141	34.22
751.322	33.88
751.503	33.72
751.684	34.27
751.865	34.14
752.046	34.63
752.226	34.58
752.407	34.56
752.588	34.84
752.769	35.58
752.949	35.2
753.13	34.89
753.311	35.58
753.492	35.75
753.672	35.52
753.853	35.35
754.034	34.52
754.214	34.21
754.395	34.29
754.575	33.67
754.756	33.72
754.937	34.11
755.117	34.79
755.298	34.91
755.478	34.71
755.659	35.23
755.839	35.43
756.02	35.56
756.2	35.96
756.381	35.79
756.561	35.33
756.741	35.4
756.922	35.79
757.102	34.53
757.283	34.36
757.463	34.59
757.643	34.39
757.823	34.02
758.004	33.88
758.184	34.03
758.364	34.64
758.545	35.21
758.725	34.77
758.905	34.53
759.085	35.26
759.265	34.99
759.446	35.22
759.626	34.93
759.806	35
759.986	35.26
760.166	34.82
760.346	33.84
760.526	34.19
760.706	33.85
760.886	33.27
761.066	33.26
761.246	32.98
761.426	32.51
761.606	32.27
761.786	32.25
761.966	31.91
762.146	32.05
762.326	32.62
762.506	32.26
762.686	32.42
762.866	32.71
763.046	32.25
763.225	32.47
763.405	32.19
763.585	31.96
763.765	31.56
763.945	31.58
764.124	31.43
764.304	31.17
764.484	31.31
764.664	31.25
764.843	30.87
765.023	31.36
765.203	31.46
765.382	32.16
765.562	32.79
765.741	33.49
765.921	34.11
766.101	34.51
766.28	34.5
766.46	33.93
766.639	34.38
766.819	34.85
766.998	34.77
767.178	34.91
767.357	34.62
767.537	34.22
767.716	33.62
767.896	33.31
768.075	33.43
768.254	33.16
768.434	33.88
768.613	33.7
768.792	33.74
768.972	33.98
769.151	33.86
769.33	34.42
769.51	34.83
769.689	35.06
769.868	34.49
770.047	34.23
770.226	34.83
770.406	34.73
770.585	35.01
770.764	35.29
770.943	35.6
771.122	35.17
771.301	34.91
771.48	34.68
771.66	34.54
771.839	35.31
772.018	35.48
772.197	35.37
772.376	34.42
772.555	34.4
772.734	33.6
772.913	33.09
773.092	33.47
773.271	33.56
773.449	34.29
773.628	34.25
773.807	33.42
773.986	33.07
774.165	32.94
774.344	33.89
774.523	33.33
774.701	33.64
774.88	33.71
775.059	34.49
775.238	34.16
775.417	33.5
775.595	34.08
775.774	34.55
775.953	34.17
776.131	34.92
776.31	34.94
776.489	35.11
776.667	35.68
776.846	35.88
777.025	35.71
777.203	35.65
777.382	35.46
777.56	35.64
777.739	35.98
777.917	37.05
778.096	36.21
778.274	35.72
778.453	36.48
778.631	36.3
778.81	35.67
778.988	34.4
779.166	34.86
779.345	35.34
779.523	35.23
779.702	35.01
779.88	34.96
780.058	35.26
780.237	36.22
780.415	35.95
780.593	35.67
780.771	36.38
780.95	38.06
781.128	38.15
781.306	38.86
781.484	38.56
781.662	38.53
781.841	38.76
782.019	39.18
782.197	39.33
782.375	39.12
782.553	39.1
782.731	38.91
782.909	38.24
783.087	38.27
783.265	37.78
783.443	38.6
783.621	39.65
783.799	39.33
783.977	38.44
784.155	37.71
784.333	37.93
784.511	38.82
784.689	38.72
784.867	38.38
785.045	37.82
785.223	38.05
785.4	38.06
785.578	37.36
785.756	37.37
785.934	38.61
786.112	39.08
786.289	39.06
786.467	39.31
786.645	40.11
786.823	41.08
787	41.64
787.178	40.77
787.356	40.68
787.533	41.49
787.711	41.03
787.889	40.83
788.066	40.46
788.244	40.94
788.421	40.44
788.599	39.77
788.776	38.88
788.954	38.43
789.131	39.11
789.309	38.63
789.486	37.87
789.664	38.24
789.841	38.32
790.019	38.36
790.196	38.02
790.373	37.26
790.551	36.89
790.728	38.02
790.906	38.84
791.083	38.68
791.26	38.26
791.437	38.42
791.615	38.76
791.792	38.54
791.969	39.06
792.146	38.87
792.324	39.76
792.501	40
792.678	39.35
792.855	38.93
793.032	38.82
793.209	40.05
793.387	39.4
793.564	39.74
793.741	39.46
793.918	39.1
794.095	39.43
794.272	39.28
794.449	39.55
794.626	38.94
794.803	38.06
794.98	38.54
795.157	37.88
795.334	37.67
795.511	36.73
795.688	36.93
795.864	36.55
796.041	36.54
796.218	36.24
796.395	35.2
796.572	35.62
796.749	35.84
796.925	35.31
797.102	36.2
797.279	36.64
797.456	36.1
797.632	35.77
797.809	35.79
797.986	35.17
798.162	35.07
798.339	35.74
798.516	35.98
798.692	36.49
798.869	36.85
799.046	37.04
799.222	36.59
799.399	38.39
799.575	38.22
799.752	38.32
799.928	39.1
800.105	39.27
800.281	39.87
800.458	39.92
800.634	39.37
800.811	40.02
800.987	39.66
801.163	40.87
801.34	39.21
801.516	39.92
801.692	40.1
801.869	39.75
802.045	40.03
802.221	39.55
802.398	39.17
802.574	39.64
802.75	39.32
802.926	38.52
803.103	38.31
803.279	39.56
803.455	38.43
803.631	40.43
803.807	40.72
803.983	40.74
804.16	41.32
804.336	41.46
804.512	42.15
804.688	41.77
804.864	42.55
805.04	42.86
805.216	43.19
805.392	44.32
805.568	42.37
805.744	42.79
805.92	43.4
806.096	44.12
806.272	45.1
806.448	45.12
806.623	44.47
806.799	44.77
806.975	43.54
807.151	42.26
807.327	41.48
807.503	41.67
807.678	41.19
807.854	40.47
808.03	39.8
808.206	39.16
808.381	38.61
808.557	39.25
808.733	40.47
808.908	42.94
809.084	43.44
809.26	44.73
809.435	43.03
809.611	43.08
809.787	43.18
809.962	43.23
810.138	42.59
810.313	41.55
810.489	41.88
810.664	40.2
810.84	36.92
811.015	36.74
811.191	37.33
811.366	40.53
811.542	40.37
811.717	41.65
811.892	41.58
812.068	41.97
812.243	43.76
812.419	43.31
812.594	43
812.769	44.29
812.944	44.16
813.12	42.43
813.295	40.2
813.47	40.34
813.645	39.77
813.821	39.08
813.996	39.74
814.171	39.69
814.346	40.6
814.521	40.93
814.697	41.86
814.872	41.79
815.047	42.77
815.222	43.9
815.397	44.1
815.572	43.96
815.747	44.5
815.922	43.06
816.097	43.07
816.272	42.6
816.447	42.9
816.622	42.59
816.797	42.84
816.972	41.83
817.147	40.81
817.322	39.55
817.496	39.73
817.671	39.89
817.846	40.29
818.021	39.87
818.196	39.19
818.371	38.73
818.545	39.19
818.72	39.28
818.895	39.89
819.069	39.47
819.244	40.4
819.419	39.66
819.594	38.85
819.768	38.9
819.943	38.47
820.117	37.09
820.292	35.66
820.467	34.37
820.641	33.5
820.816	32.02
820.99	31.55
821.165	30.3
821.339	29.62
821.514	29.09
821.688	28.44
821.863	28.11
822.037	28.02
822.212	28.1
822.386	27.79
822.56	27.66
822.735	27.78
822.909	27.72
823.084	27.97
823.258	27.95
823.432	28.11
823.606	28.33
823.781	28.4
823.955	28.5
824.129	28.49
824.303	28.79
824.478	28.98
824.652	29.3
824.826	29.45
825	29.38
825.174	29.74
825.348	29.87
825.523	29.82
825.697	29.61
825.871	30.07
826.045	30.53
826.219	30.99
826.393	31.11
826.567	31.02
826.741	30.92
826.915	31.03
827.089	31.54
827.263	31.71
827.437	32.32
827.611	32.83
827.784	32.95
827.958	32.98
828.132	32.67
828.306	32.71
828.48	32.81
828.654	33.42
828.827	33.69
829.001	33.4
829.175	33.56
829.349	33.68
829.522	33.54
829.696	34
829.87	34.62
830.044	35.69
830.217	36.34
830.391	37.04
830.565	37.3
830.738	38.15
830.912	38.39
831.085	40.58
831.259	41.17
831.432	41.89
831.606	42.15
831.779	41.06
831.953	39.95
832.126	39.06
832.3	38.76
832.473	38.61
832.647	38.01
832.82	37.51
832.994	35.21
833.167	34.51
833.34	34.16
833.514	33.75
833.687	33.82
833.86	34.77
834.034	34.33
834.207	34.39
834.38	33.92
834.553	33.19
834.727	33.2
834.9	33.72
835.073	34.24
835.246	34.35
835.419	34.65
835.593	35.66
835.766	34.74
835.939	36.2
836.112	36.41
836.285	37.32
836.458	38.2
836.631	38.22
836.804	38.96
836.977	38.91
837.15	39.85
837.323	40.92
837.496	41.01
837.669	42.67
837.842	42.81
838.015	43.39
838.188	44.01
838.361	46.85
838.533	49.55
838.706	48.45
838.879	48.71
839.052	48.19
839.225	47.45
839.398	47.59
839.57	46.6
839.743	47.37
839.916	48.19
840.088	46.33
840.261	45.34
840.434	44.68
840.607	45.95
840.779	45.35
840.952	45.18
841.124	44.9
841.297	44.83
841.47	44.91
841.642	45.53
841.815	45.67
841.987	47.3
842.16	49.57
842.332	48.91
842.505	49.11
842.677	49.23
842.85	50.39
843.022	51.42
843.194	51.67
843.367	53.79
843.539	51.21
843.712	51.15
843.884	52.4
844.056	51.63
844.229	55.43
844.401	56.13
844.573	58.09
844.745	59.3
844.918	61.45
845.09	62.6
845.262	64.83
845.434	66.36
845.606	65.63
845.779	66.47
845.951	65.46
846.123	62.73
846.295	62.43
846.467	64.68
846.639	64.51
846.811	61.18
846.983	61.89
847.155	58.16
847.327	58.23
847.499	58.87
847.671	58.09
847.843	57.93
848.015	59.13
848.187	57.9
848.359	56.11
848.531	58.54
848.703	62.81
848.875	63.25
849.047	65.23
849.218	64.68
849.39	66.69
849.562	66.43
849.734	66.87
849.905	67.01
850.077	67.98
850.249	67.72
850.421	64.1
850.592	61.82
850.764	60.05
850.936	59.92
851.107	61.6
851.279	58.93
851.451	61
851.622	60.54
851.794	61.06
851.965	65.99
852.137	68.1
852.308	71.54
852.48	71.12
852.651	70.44
852.823	70.79
852.994	66.79
853.166	71.01
853.337	70.06
853.509	73.03
853.68	72.06
853.851	70.43
854.023	70.23
854.194	67.99
854.365	70.6
854.537	74.75
854.708	71.98
854.879	73.51
855.05	73.65
855.222	73.25
855.393	72.73
855.564	73.97
855.735	70.01
855.906	67.61
856.078	68.39
856.249	65.5
856.42	63.77
856.591	66
856.762	68.7
856.933	66.4
857.104	63.6
857.275	62.94
857.446	62.09
857.617	64.29
857.788	65.3
857.959	63.19
858.13	64.15
858.301	65.4
858.472	63.3
858.643	62.09
858.814	64.15
858.985	65.71
859.155	66.89
859.326	67.63
859.497	67.49
859.668	67.45
859.839	67.21
860.009	67.45
860.18	66.41
860.351	69.52
860.522	73.38
860.692	73.39
860.863	73.91
861.034	73.92
861.204	75.07
861.375	80.21
861.546	82.98
861.716	83.42
861.887	82.41
862.057	80.67
862.228	83.07
862.398	81.72
862.569	78.87
862.739	81.36
862.91	78.96
863.08	79.04
863.251	76.13
863.421	72.25
863.592	75.5
863.762	79.84
863.932	81.98
864.103	78.86
864.273	77.61
864.443	76.76
864.614	75.79
864.784	79.92
864.954	78.32
865.125	76.83
865.295	81.76
865.465	80.38
865.635	78.12
865.805	79.13
865.976	81.56
866.146	79.44
866.316	80.38
866.486	76.96
866.656	70.73
866.826	72.26
866.996	73.11
867.166	70.99
867.336	71.86
867.506	73.78
867.676	71.78
867.846	70.1
868.016	70.73
868.186	70.53
868.356	73.75
868.526	77.25
868.696	75.75
868.866	73.33
869.036	70.33
869.206	68.32
869.376	65.97
869.545	65.6
869.715	64.34
869.885	60.57
870.055	65.05
870.224	68.56
870.394	68.22
870.564	71.61
870.734	72.94
870.903	73.95
871.073	74.34
871.243	73.44
871.412	70.65
871.582	71.97
871.751	76.64
871.921	73.83
872.091	71.2
872.26	70.01
872.43	66.15
872.599	65.29
872.769	67.06
872.938	67.27
873.108	69.55
873.277	74.6
873.446	75.62
873.616	75.78
873.785	75.41
873.955	73.9
874.124	72.5
874.293	70.4
874.463	71.36
874.632	71.43
874.801	71.24
874.971	66.81
875.14	63.5
875.309	62.06
875.478	59.15
875.647	59.82
875.817	57.66
875.986	60
876.155	60.51
876.324	59.23
876.493	57.54
876.662	59.43
876.831	62.16
877	61.36
877.17	63.05
877.339	64.27
877.508	63.8
877.677	67.33
877.846	71.57
878.015	73.36
878.184	73.44
878.352	72.36
878.521	70.33
878.69	69.08
878.859	71.23
879.028	69.52
879.197	67.72
879.366	65.11
879.534	61.39
879.703	56.35
879.872	54.42
880.041	53.02
880.21	51.18
880.378	47.56
880.547	45.79
880.716	41.67
880.884	39.12
881.053	38.82
881.222	38.03
881.39	37.29
881.559	36.01
881.727	35.07
881.896	33.77
882.065	32.52
882.233	32.37
882.402	31.69
882.57	32.12
882.739	32.41
882.907	32.82
883.076	32.92
883.244	33.44
883.412	33.93
883.581	34.95
883.749	35.9
883.918	37.65
884.086	39.1
884.254	40.62
884.423	42.09
884.591	42.89
884.759	43.4
884.927	44.58
885.096	45.26
885.264	47.33
885.432	48.06
885.6	48.79
885.769	50.06
885.937	50.39
886.105	52.64
886.273	55.21
886.441	56.11
886.609	57.86
886.777	59.74
886.945	59.57
887.113	58.63
887.281	59.08
887.449	60.87
887.617	59.44
887.785	61.21
887.953	62.07
888.121	60.64
888.289	62.51
888.457	62.57
888.625	64.73
888.793	67.63
888.961	68.88
889.129	69.58
889.296	71.8
889.464	74.07
889.632	74.39
889.8	73.89
889.967	74.88
890.135	77.19
