Data from 2938795__Reflection_03.txt Node
Date: Fri Mar 13 10:42:51 EDT 2015
User: robert
Spectrometer: USB4E03002
Autoset integration time: false
Trigger mode: 4
Integration Time (sec): 1.000000E-1
Scans to average: 10
Electric dark correction enabled: false
Nonlinearity correction enabled: false
Boxcar width: 5
Stray light correction enabled: false
XAxis mode: Wavelengths
Stop averaging: false
Number of Pixels in Spectrum: 3648
>>>>>Begin Spectral Data<<<<<
177.575	401.55
177.794	531.6
178.014	537.1
178.233	780.29
178.452	784.94
178.672	969.23
178.891	1168
179.11	1337.72
179.33	1788.71
179.549	1384.49
179.768	2390.28
179.987	4468.92
180.207	1423.04
180.426	17061.11
180.645	1171.53
180.864	971.6
181.084	875.27
181.303	846.92
181.522	672.12
181.741	559.48
181.96	727.51
182.179	833.08
182.398	1394.74
182.618	20900
182.837	803.1
183.056	1255.93
183.275	1189.49
183.494	1480.45
183.713	1076.13
183.932	2939.62
184.151	2763.89
184.37	1525.13
184.589	2942.86
184.808	924.71
185.027	908.93
185.246	1210.42
185.465	825.53
185.684	934.31
185.903	705.54
186.122	726.51
186.341	622.18
186.56	599.08
186.779	596.59
186.998	656.05
187.216	814.51
187.435	842.74
187.654	2390.77
187.873	6647.92
188.092	6640.43
188.311	43628.57
188.53	-2643.36
188.748	-3623.81
188.967	-1909.27
189.186	-6779.55
189.405	1859.28
189.623	1434.98
189.842	971.52
190.061	978.83
190.28	1239.26
190.498	2940.82
190.717	1286.7
190.936	1796.71
191.154	1505.62
191.373	1232
191.592	1997.08
191.81	2283.47
192.029	2503.85
192.248	5389.58
192.466	1798.09
192.685	1652.83
192.904	1371.35
193.122	3100
193.341	1183.13
193.559	5786
193.778	-7500
193.996	18881.25
194.215	14638.1
194.433	-5280
194.652	-19362.5
194.87	-4323.61
195.089	14204.17
195.307	2209.26
195.526	4816.44
195.744	2249.02
195.963	1078.5
196.181	931.88
196.399	986.29
196.618	1329.62
196.836	1256.04
197.055	1218.86
197.273	820.67
197.491	1396.05
197.71	1710.81
197.928	1270.9
198.146	1589.2
198.365	1527.98
198.583	1629.26
198.801	986.13
199.019	804.12
199.238	751.29
199.456	883.24
199.674	1497.54
199.892	822.68
200.111	753.38
200.329	718.73
200.547	596.3
200.765	642.65
200.983	533.56
201.202	616.99
201.42	534.56
201.638	543.16
201.856	599.13
202.074	470.35
202.292	483.38
202.51	493.97
202.728	528.08
202.946	608
203.165	579.21
203.383	600.35
203.601	728.75
203.819	1154.18
204.037	1085.67
204.255	1112.68
204.473	1410.17
204.691	976.94
204.909	1471.43
205.127	1702.9
205.345	1948.28
205.562	4065.43
205.78	4126.25
205.998	1529.09
206.216	1054.17
206.434	872.94
206.652	527.81
206.87	580.92
207.088	878.2
207.306	752.7
207.523	602.87
207.741	687.88
207.959	694.83
208.177	723.01
208.395	1072.76
208.612	1112.46
208.83	1448.95
209.048	6646.15
209.266	1537.67
209.483	1727.32
209.701	1081.27
209.919	1415.22
210.136	723.19
210.354	582.16
210.572	519.82
210.79	562.52
211.007	606.28
211.225	749.89
211.442	562.99
211.66	612.94
211.878	418.44
212.095	416.73
212.313	418.54
212.53	451.88
212.748	493.68
212.966	647.59
213.183	570.81
213.401	386.33
213.618	432.35
213.836	557.17
214.053	801.06
214.271	2218.52
214.488	-1650.89
214.705	-1128.93
214.923	-857.84
215.14	-1408.15
215.358	-2220.87
215.575	-10664
215.793	-976.26
216.01	-2199.19
216.227	-12268.18
216.445	1408.7
216.662	997.76
216.879	588.37
217.097	459.63
217.314	422.52
217.531	418.96
217.749	444.07
217.966	434.92
218.183	414.76
218.4	313.68
218.618	280.79
218.835	299.06
219.052	288.25
219.269	298.76
219.487	295.6
219.704	302.05
219.921	319.21
220.138	297.91
220.355	287.12
220.572	262.59
220.79	265.07
221.007	269.85
221.224	244.88
221.441	211.3
221.658	183.01
221.875	169.41
222.092	159.58
222.309	157.31
222.526	146.58
222.743	152.93
222.96	148.24
223.177	142.7
223.394	134.1
223.611	143.68
223.828	148.26
224.045	146.41
224.262	140.85
224.479	135.63
224.696	120.75
224.913	121.27
225.13	108
225.347	105.09
225.564	103.57
225.781	97.36
225.997	87.96
226.214	81.3
226.431	71.36
226.648	68.64
226.865	61.55
227.082	55.66
227.298	48.43
227.515	43.89
227.732	39
227.949	34.87
228.165	32.49
228.382	28.79
228.599	26.67
228.816	25.04
229.032	23.26
229.249	22.95
229.466	22.87
229.682	22.62
229.899	22.53
230.116	22.97
230.332	23.48
230.549	24.28
230.765	26.44
230.982	26.95
231.199	29.11
231.415	30.5
231.632	31.73
231.848	32.41
232.065	34.31
232.281	35.27
232.498	35.35
232.714	37.45
232.931	37.48
233.147	37.49
233.364	38.49
233.58	38.71
233.797	39
234.013	39.23
234.23	38.5
234.446	37.19
234.662	36.43
234.879	36.97
235.095	36.19
235.312	35.91
235.528	36.19
235.744	35.62
235.961	36.99
236.177	36.97
236.393	37.49
236.61	38.15
236.826	39
237.042	39.96
237.258	40.89
237.475	42.07
237.691	41.5
237.907	41.24
238.123	42.61
238.339	42.3
238.556	42.97
238.772	41.21
238.988	38.72
239.204	37.34
239.42	35.93
239.636	33.74
239.853	32.31
240.069	32.04
240.285	30.41
240.501	27.55
240.717	24.92
240.933	23.27
241.149	22.23
241.365	21.9
241.581	20.44
241.797	19.12
242.013	17.61
242.229	16.62
242.445	16.08
242.661	15.87
242.877	16.2
243.093	16.1
243.309	15.45
243.525	15.79
243.741	16.55
243.957	17.78
244.173	18.39
244.388	20.11
244.604	20.4
244.82	20.48
245.036	19.92
245.252	19.39
245.468	18.8
245.683	18.64
245.899	17.97
246.115	16.35
246.331	15.34
246.547	14.83
246.762	14.19
246.978	13.73
247.194	13.3
247.409	12.84
247.625	12.48
247.841	12.46
248.057	12.56
248.272	12.25
248.488	12.03
248.703	12.04
248.919	12.5
249.135	12.9
249.35	13.51
249.566	14.33
249.782	15.53
249.997	16.91
250.213	17.12
250.428	17.91
250.644	19.17
250.859	21.22
251.075	21.59
251.29	20.86
251.506	19.79
251.721	19.5
251.937	19.25
252.152	19.27
252.368	18.94
252.583	19.37
252.798	19.22
253.014	19.42
253.229	19.61
253.445	20.59
253.66	21.85
253.875	23.55
254.091	24.43
254.306	25.12
254.521	25.31
254.737	25.8
254.952	25.43
255.167	24.91
255.383	24.04
255.598	23.66
255.813	21.93
256.028	21.97
256.244	20.93
256.459	20.57
256.674	19.79
256.889	19.07
257.104	18.45
257.32	18.69
257.535	18.38
257.75	17.56
257.965	16.13
258.18	15.55
258.395	13.9
258.61	12.83
258.826	11.55
259.041	11.09
259.256	10.77
259.471	10.29
259.686	9.59
259.901	9.01
260.116	8.79
260.331	8.71
260.546	8.52
260.761	8.66
260.976	8.94
261.191	9.63
261.406	10.14
261.621	10.54
261.836	10.93
262.05	11.79
262.265	12.87
262.48	13.61
262.695	14.05
262.91	14.69
263.125	15.09
263.34	15.62
263.555	15.63
263.769	15.9
263.984	16.08
264.199	16.34
264.414	16.78
264.629	16.47
264.843	16.41
265.058	16.49
265.273	16
265.488	15.53
265.702	15.37
265.917	15.13
266.132	14.14
266.346	13.64
266.561	12.93
266.776	12.62
266.99	12.09
267.205	11.67
267.42	11.85
267.634	11.75
267.849	12.15
268.063	12.32
268.278	12.11
268.492	12.53
268.707	12.91
268.922	13.58
269.136	13.15
269.351	13.43
269.565	13.14
269.78	13
269.994	13.22
270.209	13.15
270.423	12.82
270.637	12.69
270.852	11.94
271.066	11.59
271.281	11.2
271.495	11.25
271.709	11.06
271.924	11.16
272.138	10.83
272.353	10.9
272.567	10.65
272.781	10.49
272.996	10.13
273.21	10.52
273.424	10.73
273.638	10.85
273.853	11.1
274.067	11.32
274.281	11.76
274.495	12.02
274.71	12.37
274.924	12.26
275.138	12.31
275.352	13.19
275.566	13.09
275.781	12.78
275.995	13.14
276.209	13.02
276.423	12.68
276.637	12.48
276.851	12.49
277.065	11.93
277.279	12.12
277.493	12.21
277.707	11.96
277.921	12.11
278.135	12.39
278.349	12.27
278.563	12.16
278.777	12.79
278.991	12.41
279.205	12.51
279.419	12.44
279.633	12.39
279.847	12.05
280.061	11.95
280.275	11.92
280.489	11.65
280.703	11.2
280.917	11.12
281.131	10.59
281.344	10.97
281.558	10.63
281.772	10.52
281.986	10.4
282.2	10.67
282.414	10.6
282.627	10.23
282.841	10.45
283.055	10.63
283.269	10.48
283.482	10.37
283.696	9.96
283.91	10.4
284.123	10.37
284.337	10.62
284.551	10.1
284.764	10.08
284.978	10.36
285.192	9.89
285.405	9.75
285.619	9.63
285.833	9.77
286.046	10.03
286.26	9.84
286.473	9.61
286.687	9.35
286.9	9.55
287.114	9.57
287.327	9.61
287.541	9.91
287.754	9.92
287.968	10.16
288.181	10.12
288.395	9.9
288.608	9.77
288.822	9.99
289.035	9.89
289.248	9.83
289.462	9.86
289.675	9.85
289.889	9.5
290.102	9.61
290.315	9.69
290.529	9.76
290.742	9.85
290.955	9.68
291.169	10.06
291.382	10.16
291.595	10.43
291.808	10.66
292.022	10.33
292.235	10.57
292.448	10.28
292.661	10.59
292.875	10.72
293.088	10.83
293.301	11.27
293.514	11.14
293.727	11.05
293.94	10.8
294.153	10.73
294.367	10.76
294.58	10.71
294.793	10.87
295.006	10.82
295.219	10.78
295.432	10.98
295.645	10.82
295.858	10.41
296.071	10.58
296.284	10.66
296.497	10.54
296.71	10.49
296.923	10.54
297.136	10.53
297.349	10.27
297.562	10.11
297.775	10.19
297.988	10.38
298.201	10.91
298.414	11.07
298.626	11.13
298.839	11.31
299.052	11.49
299.265	11.89
299.478	12.15
299.691	12.23
299.903	12.56
300.116	12.8
300.329	12.78
300.542	12.77
300.755	12.66
300.967	12.7
301.18	12.63
301.393	12.9
301.605	12.56
301.818	12.59
302.031	12.99
302.243	13.1
302.456	13.01
302.669	13.25
302.881	13.23
303.094	13.3
303.307	13.44
303.519	13.37
303.732	13.49
303.944	13.63
304.157	13.77
304.37	13.81
304.582	13.71
304.795	13.58
305.007	13.44
305.22	13.32
305.432	13.3
305.645	13.4
305.857	13.78
306.069	13.87
306.282	14.26
306.494	14.33
306.707	14.14
306.919	14.51
307.132	14.4
307.344	14.36
307.556	14.61
307.769	15.08
307.981	15.04
308.193	14.65
308.406	14.14
308.618	13.89
308.83	13.52
309.043	13.17
309.255	13.02
309.467	12.99
309.679	13.03
309.892	12.81
310.104	12.17
310.316	12.31
310.528	12.63
310.74	12.95
310.953	12.9
311.165	12.99
311.377	13.32
311.589	13.37
311.801	13.29
312.013	13.11
312.225	13.28
312.437	13.48
312.649	13.5
312.862	13.7
313.074	13.6
313.286	13.97
313.498	14.03
313.71	14
313.922	13.74
314.134	14.16
314.346	14.62
314.558	14.94
314.77	15.24
314.982	15.11
315.193	14.93
315.405	15.21
315.617	14.86
315.829	15.59
316.041	15.77
316.253	16.02
316.465	15.99
316.677	16.06
316.888	15.83
317.1	15.66
317.312	15.81
317.524	15.92
317.736	15.97
317.947	16.3
318.159	16.15
318.371	16.1
318.583	16.48
318.794	16.56
319.006	16.44
319.218	16.68
319.43	16.86
319.641	17.46
319.853	17.32
320.064	17.61
320.276	17.33
320.488	17.33
320.699	17.31
320.911	17.2
321.123	17.33
321.334	17.33
321.546	17.3
321.757	17.4
321.969	17.12
322.18	17.25
322.392	17.17
322.603	17.27
322.815	17.1
323.026	17.2
323.238	16.91
323.449	16.42
323.661	16.35
323.872	16.47
324.083	16.56
324.295	16.22
324.506	16.06
324.718	16.09
324.929	16.21
325.14	16.28
325.352	16.53
325.563	16.8
325.774	16.96
325.986	16.96
326.197	17.22
326.408	17.09
326.62	17.2
326.831	17.47
327.042	17.2
327.253	17.28
327.464	16.95
327.676	16.71
327.887	16.52
328.098	16.38
328.309	17
328.52	16.84
328.732	17.06
328.943	17.17
329.154	16.94
329.365	17.42
329.576	17.36
329.787	17.9
329.998	18.09
330.209	18.29
330.42	18.5
330.631	18.33
330.842	18.19
331.053	18.21
331.264	18.38
331.475	18.76
331.686	18.75
331.897	18.94
332.108	18.97
332.319	19.02
332.53	19.15
332.741	19.01
332.952	18.89
333.163	18.55
333.374	18.7
333.585	18.64
333.795	18.37
334.006	18.27
334.217	17.81
334.428	17.75
334.639	17.93
334.849	17.75
335.06	17.61
335.271	17.58
335.482	17.75
335.692	17.56
335.903	17.52
336.114	17.54
336.325	17.45
336.535	17.85
336.746	18.12
336.957	17.68
337.167	17.52
337.378	17.71
337.589	17.69
337.799	17.73
338.01	17.51
338.22	17.34
338.431	17.01
338.642	16.93
338.852	16.82
339.063	16.33
339.273	16.21
339.484	16.52
339.694	16.62
339.905	16.85
340.115	16.75
340.326	16.55
340.536	16.61
340.746	16.75
340.957	16.59
341.167	16.29
341.378	16.5
341.588	16.72
341.799	16.94
342.009	16.86
342.219	16.49
342.43	16.32
342.64	16.58
342.85	16.31
343.061	16.32
343.271	16.32
343.481	16.63
343.691	16.18
343.902	16.02
344.112	15.48
344.322	15.28
344.532	15.22
344.743	15.18
344.953	15.07
345.163	15.16
345.373	14.81
345.583	14.59
345.793	14.35
346.004	14.58
346.214	14.73
346.424	15.14
346.634	15.47
346.844	15.55
347.054	15.72
347.264	15.75
347.474	16.05
347.684	16.3
347.894	16.47
348.104	16.47
348.314	16.35
348.524	16.33
348.734	15.78
348.944	15.33
349.154	14.97
349.364	15
349.574	14.76
349.784	14.53
349.994	14.67
350.204	14.76
350.413	14.87
350.623	14.9
350.833	14.91
351.043	15.05
351.253	15.36
351.463	15.68
351.672	15.61
351.882	15.84
352.092	15.78
352.302	15.65
352.511	15.48
352.721	15.34
352.931	15.08
353.141	15.07
353.35	15.03
353.56	14.67
353.77	14.31
353.979	14.23
354.189	14.11
354.399	14.16
354.608	14.27
354.818	14.49
355.027	14.28
355.237	14.4
355.447	14.13
355.656	14.21
355.866	14.46
356.075	14.47
356.285	14.24
356.494	14.27
356.704	14.15
356.913	14.06
357.123	13.88
357.332	14.12
357.542	14.14
357.751	14.23
357.96	14.06
358.17	14.03
358.379	13.83
358.589	14
358.798	13.86
359.007	13.85
359.217	13.74
359.426	13.64
359.635	13.3
359.845	13.27
360.054	13.14
360.263	13.11
360.472	13.04
360.682	13.1
360.891	12.92
361.1	12.88
361.309	12.53
361.519	12.56
361.728	12.39
361.937	12.41
362.146	12.22
362.355	12.2
362.564	12.21
362.774	12.11
362.983	12.22
363.192	12.19
363.401	12.36
363.61	12.81
363.819	12.8
364.028	12.96
364.237	12.94
364.446	13.02
364.655	12.96
364.864	13.03
365.073	13.05
365.282	13.14
365.491	13.14
365.7	12.95
365.909	12.89
366.118	12.78
366.327	12.88
366.536	13.04
366.745	13.12
366.954	13.44
367.162	13.36
367.371	13.34
367.58	13.37
367.789	13.37
367.998	13.39
368.207	13.21
368.415	13.11
368.624	13
368.833	13.01
369.042	13.01
369.25	12.74
369.459	12.99
369.668	12.71
369.877	12.66
370.085	12.86
370.294	12.82
370.503	12.69
370.711	12.68
370.92	12.71
371.129	12.73
371.337	12.66
371.546	12.72
371.754	12.38
371.963	12.62
372.171	12.69
372.38	12.32
372.589	12.47
372.797	12.78
373.006	12.84
373.214	12.83
373.423	12.37
373.631	12.27
373.84	12.11
374.048	12.04
374.256	12.06
374.465	11.8
374.673	12.03
374.882	11.92
375.09	11.66
375.298	11.56
375.507	11.39
375.715	11.5
375.923	11.56
376.132	11.55
376.34	11.51
376.548	11.46
376.757	11.53
376.965	11.52
377.173	11.35
377.381	11.12
377.59	11.16
377.798	11.19
378.006	11.33
378.214	11.2
378.423	11.3
378.631	11.1
378.839	11.07
379.047	11.01
379.255	11
379.463	11.11
379.671	11.44
379.879	11.62
380.088	11.87
380.296	11.73
380.504	11.73
380.712	11.77
380.92	11.94
381.128	11.78
381.336	11.62
381.544	11.41
381.752	11.28
381.96	10.91
382.168	10.42
382.376	10.22
382.584	10.43
382.791	10.31
382.999	10.11
383.207	10.04
383.415	10.12
383.623	10.07
383.831	10.05
384.039	9.86
384.247	9.98
384.454	10.34
384.662	10.12
384.87	9.88
385.078	10.02
385.285	9.98
385.493	10.09
385.701	10.01
385.909	10.14
386.116	10.27
386.324	10.34
386.532	10.32
386.739	10.16
386.947	10.08
387.155	10.23
387.362	10.08
387.57	10.12
387.778	9.89
387.985	9.77
388.193	9.73
388.4	9.43
388.608	9.59
388.816	9.53
389.023	9.78
389.231	9.84
389.438	9.52
389.646	9.53
389.853	9.42
390.061	9.51
390.268	9.48
390.475	9.37
390.683	9.73
390.89	9.6
391.098	9.75
391.305	9.37
391.512	9.39
391.72	9.44
391.927	9.37
392.135	9.45
392.342	9.53
392.549	9.47
392.756	9.45
392.964	9.1
393.171	9.05
393.378	8.91
393.586	8.94
393.793	8.9
394	8.77
394.207	8.73
394.414	8.66
394.622	8.42
394.829	8.4
395.036	8.36
395.243	8.45
395.45	8.42
395.657	8.35
395.864	8.31
396.072	8.26
396.279	8.37
396.486	8.47
396.693	8.39
396.9	8.62
397.107	8.6
397.314	8.53
397.521	8.41
397.728	8.46
397.935	8.53
398.142	8.49
398.349	8.51
398.556	8.56
398.763	8.48
398.97	8.39
399.177	8.14
399.383	8.26
399.59	8.38
399.797	8.47
400.004	8.39
400.211	8.21
400.418	8.34
400.625	8.31
400.831	8.39
401.038	8.4
401.245	8.49
401.452	8.42
401.658	8.35
401.865	8.18
402.072	8.2
402.279	8.24
402.485	8.28
402.692	8.12
402.899	8.03
403.105	7.94
403.312	7.78
403.519	7.78
403.725	7.84
403.932	7.84
404.138	7.89
404.345	7.8
404.552	7.68
404.758	7.61
404.965	7.69
405.171	7.72
405.378	7.64
405.584	7.69
405.791	7.56
405.997	7.68
406.204	7.77
406.41	7.55
406.617	7.64
406.823	7.72
407.029	7.89
407.236	7.97
407.442	7.97
407.649	8.07
407.855	8.01
408.061	8.15
408.268	7.96
408.474	8
408.68	8.09
408.887	8.03
409.093	7.9
409.299	7.6
409.505	7.23
409.712	7.2
409.918	6.95
410.124	6.96
410.33	6.8
410.537	6.73
410.743	6.67
410.949	6.72
411.155	6.71
411.361	6.85
411.567	7.04
411.773	7.23
411.98	7.22
412.186	7.43
412.392	7.52
412.598	7.61
412.804	7.82
413.01	7.74
413.216	7.78
413.422	7.72
413.628	7.69
413.834	7.62
414.04	7.56
414.246	7.61
414.452	7.36
414.658	7.36
414.864	7.45
415.07	7.3
415.275	7.17
415.481	7.2
415.687	7.08
415.893	6.92
416.099	6.87
416.305	6.89
416.511	6.68
416.716	6.78
416.922	6.56
417.128	6.45
417.334	6.56
417.539	6.52
417.745	6.36
417.951	6.35
418.157	6.28
418.362	6.19
418.568	6.12
418.774	6.17
418.979	6.11
419.185	6.15
419.391	6.11
419.596	5.98
419.802	5.96
420.008	5.92
420.213	6
420.419	5.99
420.624	6.01
420.83	5.93
421.035	5.85
421.241	5.85
421.446	5.79
421.652	5.75
421.857	5.66
422.063	5.6
422.268	5.57
422.474	5.46
422.679	5.49
422.885	5.49
423.09	5.48
423.295	5.43
423.501	5.44
423.706	5.46
423.911	5.42
424.117	5.51
424.322	5.53
424.527	5.54
424.733	5.55
424.938	5.47
425.143	5.47
425.349	5.51
425.554	5.65
425.759	5.63
425.964	5.66
426.169	5.67
426.375	5.67
426.58	5.76
426.785	5.81
426.99	5.9
427.195	6.01
427.4	6.1
427.605	6.15
427.811	6.17
428.016	6.15
428.221	6.07
428.426	6.13
428.631	6.26
428.836	6.34
429.041	6.39
429.246	6.35
429.451	6.31
429.656	6.31
429.861	6.43
430.066	6.37
430.271	6.35
430.476	6.39
430.681	6.45
430.886	6.28
431.09	6.16
431.295	6.07
431.5	6.09
431.705	6.14
431.91	6.16
432.115	6.12
432.32	6.15
432.524	6.14
432.729	6.2
432.934	6.13
433.139	6.12
433.343	6.16
433.548	6.14
433.753	6.11
433.958	6
434.162	5.9
434.367	5.82
434.572	5.69
434.776	5.66
434.981	5.55
435.186	5.55
435.39	5.65
435.595	5.72
435.799	5.73
436.004	5.81
436.209	5.87
436.413	5.86
436.618	5.83
436.822	5.87
437.027	6
437.231	6.07
437.436	6.08
437.64	5.97
437.845	5.81
438.049	5.88
438.253	5.74
438.458	5.69
438.662	5.73
438.867	5.77
439.071	5.76
439.275	5.68
439.48	5.64
439.684	5.65
439.888	5.61
440.093	5.6
440.297	5.51
440.501	5.5
440.706	5.55
440.91	5.57
441.114	5.52
441.318	5.56
441.523	5.57
441.727	5.55
441.931	5.51
442.135	5.51
442.339	5.52
442.543	5.59
442.748	5.58
442.952	5.59
443.156	5.55
443.36	5.56
443.564	5.55
443.768	5.58
443.972	5.61
444.176	5.64
444.38	5.72
444.584	5.74
444.788	5.77
444.992	5.8
445.196	5.74
445.4	5.61
445.604	5.59
445.808	5.57
446.012	5.54
446.216	5.5
446.42	5.45
446.624	5.38
446.828	5.33
447.032	5.21
447.235	5.15
447.439	5.15
447.643	5.25
447.847	5.3
448.051	5.28
448.254	5.27
448.458	5.34
448.662	5.42
448.866	5.42
449.069	5.47
449.273	5.54
449.477	5.67
449.681	5.69
449.884	5.76
450.088	5.74
450.292	5.76
450.495	5.8
450.699	5.73
450.902	5.67
451.106	5.8
451.31	5.78
451.513	5.8
451.717	5.67
451.92	5.71
452.124	5.64
452.327	5.67
452.531	5.61
452.734	5.58
452.938	5.56
453.141	5.53
453.345	5.42
453.548	5.44
453.752	5.44
453.955	5.52
454.158	5.39
454.362	5.31
454.565	5.29
454.769	5.42
454.972	5.45
455.175	5.49
455.379	5.61
455.582	5.57
455.785	5.56
455.988	5.63
456.192	5.66
456.395	5.86
456.598	5.95
456.801	5.89
457.005	5.88
457.208	5.92
457.411	5.87
457.614	5.74
457.817	5.66
458.021	5.62
458.224	5.49
458.427	5.41
458.63	5.32
458.833	5.25
459.036	5.25
459.239	5.21
459.442	5.13
459.645	5.11
459.848	5.11
460.051	5.14
460.254	5.19
460.457	5.23
460.66	5.23
460.863	5.2
461.066	5.29
461.269	5.37
461.472	5.44
461.675	5.54
461.878	5.61
462.081	5.76
462.284	5.85
462.486	5.81
462.689	5.86
462.892	5.91
463.095	6.03
463.298	6
463.5	5.95
463.703	5.94
463.906	5.83
464.109	5.85
464.311	5.74
464.514	5.79
464.717	5.85
464.92	5.85
465.122	5.94
465.325	5.86
465.528	5.87
465.73	5.86
465.933	5.89
466.135	5.89
466.338	5.84
466.541	5.88
466.743	5.84
466.946	5.9
467.148	5.81
467.351	5.73
467.553	5.7
467.756	5.68
467.958	5.72
468.161	5.73
468.363	5.73
468.566	5.78
468.768	5.88
468.971	6
469.173	5.95
469.375	6.03
469.578	6.02
469.78	6.05
469.983	6.03
470.185	6.08
470.387	6
470.59	6.02
470.792	5.98
470.994	5.93
471.196	5.86
471.399	5.81
471.601	5.81
471.803	5.85
472.005	5.95
472.208	6
472.41	5.99
472.612	6.05
472.814	6.11
473.016	6.15
473.218	6.19
473.421	6.2
473.623	6.22
473.825	6.22
474.027	6.28
474.229	6.23
474.431	6.28
474.633	6.2
474.835	6.26
475.037	6.31
475.239	6.32
475.441	6.18
475.643	6.14
475.845	6.16
476.047	6.19
476.249	6.14
476.451	6.11
476.653	6
476.855	6.03
477.057	5.88
477.258	5.75
477.46	5.75
477.662	5.71
477.864	5.66
478.066	5.64
478.268	5.49
478.469	5.5
478.671	5.49
478.873	5.47
479.075	5.43
479.276	5.4
479.478	5.37
479.68	5.23
479.882	5.22
480.083	5.23
480.285	5.23
480.487	5.31
480.688	5.25
480.89	5.26
481.091	5.22
481.293	5.21
481.495	5.14
481.696	5.1
481.898	5.02
482.099	4.96
482.301	4.86
482.502	4.77
482.704	4.64
482.905	4.59
483.107	4.49
483.308	4.47
483.51	4.43
483.711	4.43
483.913	4.39
484.114	4.38
484.315	4.38
484.517	4.38
484.718	4.38
484.92	4.39
485.121	4.39
485.322	4.44
485.524	4.45
485.725	4.44
485.926	4.43
486.127	4.43
486.329	4.45
486.53	4.43
486.731	4.43
486.932	4.47
487.134	4.51
487.335	4.49
487.536	4.47
487.737	4.48
487.938	4.47
488.139	4.49
488.341	4.53
488.542	4.53
488.743	4.58
488.944	4.63
489.145	4.59
489.346	4.6
489.547	4.63
489.748	4.66
489.949	4.67
490.15	4.7
490.351	4.69
490.552	4.69
490.753	4.71
490.954	4.7
491.155	4.66
491.356	4.66
491.557	4.69
491.758	4.69
491.959	4.68
492.159	4.74
492.36	4.78
492.561	4.78
492.762	4.81
492.963	4.79
493.164	4.83
493.364	4.86
493.565	4.97
493.766	5.05
493.967	5.1
494.167	5.16
494.368	5.12
494.569	5.18
494.769	5.26
494.97	5.3
495.171	5.46
495.371	5.45
495.572	5.54
495.773	5.44
495.973	5.4
496.174	5.47
496.375	5.56
496.575	5.58
496.776	5.61
496.976	5.56
497.177	5.58
497.377	5.58
497.578	5.58
497.778	5.59
497.979	5.7
498.179	5.64
498.38	5.62
498.58	5.62
498.78	5.63
498.981	5.66
499.181	5.74
499.382	5.76
499.582	5.69
499.782	5.76
499.983	5.8
500.183	5.79
500.383	5.98
500.584	5.96
500.784	5.97
500.984	6.16
501.184	6.13
501.385	6.17
501.585	6.24
501.785	6.3
501.985	6.4
502.185	6.38
502.386	6.35
502.586	6.36
502.786	6.52
502.986	6.51
503.186	6.33
503.386	6.47
503.586	6.47
503.786	6.52
503.987	6.55
504.187	6.51
504.387	6.58
504.587	6.71
504.787	6.76
504.987	6.75
505.187	6.8
505.387	6.93
505.587	6.97
505.786	7.06
505.986	7.03
506.186	7.08
506.386	7.18
506.586	7.25
506.786	7.16
506.986	7.17
507.186	7.12
507.386	7.17
507.585	7.1
507.785	7.07
507.985	7.08
508.185	7.16
508.384	7.19
508.584	7.13
508.784	7.1
508.984	7.18
509.183	7.17
509.383	7.21
509.583	7.25
509.782	7.36
509.982	7.45
510.182	7.46
510.381	7.55
510.581	7.66
510.781	7.74
510.98	7.77
511.18	7.83
511.379	7.9
511.579	8.01
511.778	8.04
511.978	8.04
512.177	8.01
512.377	8.12
512.576	8.06
512.776	8.06
512.975	8.15
513.175	8.19
513.374	8.22
513.573	8.3
513.773	8.35
513.972	8.49
514.172	8.69
514.371	8.84
514.57	8.87
514.77	9.06
514.969	9.13
515.168	9.14
515.367	9.25
515.567	9.43
515.766	9.45
515.965	9.54
516.164	9.5
516.364	9.45
516.563	9.44
516.762	9.48
516.961	9.48
517.16	9.51
517.359	9.6
517.559	9.58
517.758	9.59
517.957	9.62
518.156	9.59
518.355	9.61
518.554	9.65
518.753	9.64
518.952	9.68
519.151	9.67
519.35	9.79
519.549	9.83
519.748	9.97
519.947	10.07
520.146	10.18
520.345	10.29
520.544	10.4
520.743	10.47
520.942	10.59
521.141	10.65
521.339	10.78
521.538	10.75
521.737	10.83
521.936	10.84
522.135	10.84
522.333	10.93
522.532	11.01
522.731	11.09
522.93	11.17
523.129	11.27
523.327	11.4
523.526	11.4
523.725	11.56
523.923	11.58
524.122	11.66
524.321	11.68
524.519	11.78
524.718	11.81
524.917	11.87
525.115	11.93
525.314	11.98
525.512	11.97
525.711	12.1
525.909	12.14
526.108	12.18
526.306	12.19
526.505	12.25
526.703	12.2
526.902	12.23
527.1	12.22
527.299	12.22
527.497	12.17
527.696	12.26
527.894	12.23
528.092	12.23
528.291	12.27
528.489	12.33
528.688	12.35
528.886	12.41
529.084	12.45
529.283	12.5
529.481	12.56
529.679	12.67
529.877	12.66
530.076	12.74
530.274	12.81
530.472	12.85
530.67	12.91
530.869	12.98
531.067	13.04
531.265	13.15
531.463	13.25
531.661	13.33
531.859	13.33
532.057	13.52
532.255	13.61
532.454	13.66
532.652	13.74
532.85	13.82
533.048	13.9
533.246	13.96
533.444	14.01
533.642	14.07
533.84	14.11
534.038	14.28
534.236	14.26
534.434	14.32
534.632	14.42
534.83	14.4
535.027	14.46
535.225	14.54
535.423	14.61
535.621	14.69
535.819	14.78
536.017	14.83
536.215	14.83
536.412	14.95
536.61	15.01
536.808	15.02
537.006	15.15
537.203	15.22
537.401	15.26
537.599	15.37
537.797	15.42
537.994	15.49
538.192	15.65
538.39	15.73
538.587	15.85
538.785	15.93
538.983	16.07
539.18	16.31
539.378	16.41
539.575	16.62
539.773	16.63
539.97	16.75
540.168	16.76
540.366	16.79
540.563	16.81
540.761	16.86
540.958	16.88
541.155	16.88
541.353	16.88
541.55	16.85
541.748	16.79
541.945	16.85
542.143	16.85
542.34	16.92
542.537	16.93
542.735	17.06
542.932	17.13
543.129	17.21
543.327	17.34
543.524	17.45
543.721	17.7
543.919	17.95
544.116	18.12
544.313	18.36
544.51	18.58
544.708	18.8
544.905	18.94
545.102	19.1
545.299	19.33
545.496	19.52
545.693	19.6
545.891	19.68
546.088	19.65
546.285	19.64
546.482	19.61
546.679	19.58
546.876	19.61
547.073	19.63
547.27	19.61
547.467	19.57
547.664	19.6
547.861	19.68
548.058	19.68
548.255	19.83
548.452	19.97
548.649	19.97
548.846	20.04
549.043	20.15
549.24	20.27
549.437	20.4
549.633	20.42
549.83	20.41
550.027	20.35
550.224	20.39
550.421	20.25
550.618	20.2
550.814	20.34
551.011	20.37
551.208	20.33
551.405	20.31
551.601	20.35
551.798	20.38
551.995	20.34
552.191	20.36
552.388	20.13
552.585	20.14
552.781	20.23
552.978	20.24
553.175	20.21
553.371	20.16
553.568	20.06
553.764	20.11
553.961	20.14
554.157	20.28
554.354	20.29
554.55	20.58
554.747	20.73
554.943	20.69
555.14	20.74
555.336	20.75
555.533	20.73
555.729	20.9
555.926	20.84
556.122	20.97
556.318	20.88
556.515	20.89
556.711	20.81
556.907	20.86
557.104	21.01
557.3	20.99
557.496	21.06
557.693	21.2
557.889	21.19
558.085	21.26
558.281	21.3
558.478	21.38
558.674	21.49
558.87	21.58
559.066	21.63
559.262	21.63
559.459	21.68
559.655	21.7
559.851	21.82
560.047	21.92
560.243	21.86
560.439	21.96
560.635	21.99
560.831	21.98
561.027	22.04
561.223	22.02
561.419	22.14
561.615	22.16
561.811	22.12
562.007	22.06
562.203	21.89
562.399	21.92
562.595	21.84
562.791	21.88
562.987	21.95
563.183	22.01
563.379	22.06
563.575	21.98
563.771	22.09
563.966	22.25
564.162	22.29
564.358	22.45
564.554	22.45
564.75	22.41
564.945	22.32
565.141	22.3
565.337	22.35
565.533	22.24
565.728	22.27
565.924	22.12
566.12	22.07
566.315	22.08
566.511	22.05
566.707	22.06
566.902	22.15
567.098	22.22
567.293	22.28
567.489	22.32
567.684	22.44
567.88	22.44
568.076	22.55
568.271	22.52
568.467	22.54
568.662	22.59
568.858	22.62
569.053	22.67
569.248	22.75
569.444	22.8
569.639	22.64
569.835	22.57
570.03	22.62
570.225	22.56
570.421	22.61
570.616	22.65
570.812	22.71
571.007	22.81
571.202	22.79
571.397	22.7
571.593	22.61
571.788	22.68
571.983	22.78
572.178	22.73
572.374	22.86
572.569	22.96
572.764	23.01
572.959	23.05
573.154	23.06
573.35	23.01
573.545	23.11
573.74	23.26
573.935	23.29
574.13	23.32
574.325	23.41
574.52	23.42
574.715	23.39
574.91	23.51
575.105	23.52
575.3	23.57
575.495	23.75
575.69	23.93
575.885	24.03
576.08	24.31
576.275	24.4
576.47	24.48
576.665	24.68
576.86	24.8
577.055	24.91
577.25	25.08
577.444	25.34
577.639	25.55
577.834	25.71
578.029	25.84
578.224	25.88
578.418	26.07
578.613	26.34
578.808	26.45
579.003	26.71
579.197	26.65
579.392	26.8
579.587	26.73
579.781	26.73
579.976	26.78
580.171	26.88
580.365	26.93
580.56	26.92
580.755	26.96
580.949	26.87
581.144	26.93
581.338	27.1
581.533	27.06
581.727	27.07
581.922	27.11
582.116	27.14
582.311	27.21
582.505	27.28
582.7	27.42
582.894	27.54
583.089	27.64
583.283	27.48
583.478	27.56
583.672	27.68
583.866	27.8
584.061	27.9
584.255	27.98
584.449	28.01
584.644	28.08
584.838	28.13
585.032	28.05
585.226	28.2
585.421	28.47
585.615	28.57
585.809	28.48
586.003	28.64
586.198	28.61
586.392	28.52
586.586	28.53
586.78	28.46
586.974	28.51
587.168	28.53
587.363	28.5
587.557	28.25
587.751	28.19
587.945	28.12
588.139	27.93
588.333	27.96
588.527	27.91
588.721	27.82
588.915	27.71
589.109	27.58
589.303	27.51
589.497	27.34
589.691	27.48
589.885	27.32
590.079	27.29
590.273	27.35
590.466	27.4
590.66	27.53
590.854	27.56
591.048	27.68
591.242	27.9
591.436	27.95
591.629	28.05
591.823	28.23
592.017	28.33
592.211	28.67
592.404	28.84
592.598	28.81
592.792	28.67
592.986	28.66
593.179	28.6
593.373	28.38
593.567	28.29
593.76	28.22
593.954	27.94
594.147	28.01
594.341	27.7
594.535	27.45
594.728	27.41
594.922	27.44
595.115	27.46
595.309	27.37
595.502	27.28
595.696	27.26
595.889	27.32
596.083	27.22
596.276	27.09
596.47	27.11
596.663	27.06
596.856	27.05
597.05	27.1
597.243	27.06
597.437	27.25
597.63	27.42
597.823	27.57
598.017	27.67
598.21	28
598.403	28.16
598.596	28.43
598.79	28.77
598.983	28.9
599.176	28.94
599.369	29.2
599.563	29.32
599.756	29.52
599.949	29.46
600.142	29.41
600.335	29.25
600.528	29.28
600.722	29.16
600.915	29.12
601.108	29.15
601.301	29.08
601.494	28.9
601.687	28.78
601.88	28.59
602.073	28.5
602.266	28.46
602.459	28.34
602.652	28.16
602.845	27.96
603.038	27.8
603.231	27.63
603.424	27.57
603.617	27.54
603.809	27.4
604.002	27.34
604.195	27.28
604.388	27.23
604.581	27.25
604.774	27.43
604.966	27.59
605.159	27.65
605.352	27.73
605.545	27.98
605.737	28.09
605.93	28.25
606.123	28.41
606.316	28.71
606.508	28.97
606.701	29.26
606.894	29.39
607.086	29.64
607.279	29.77
607.471	29.88
607.664	30.01
607.857	30.29
608.049	30.71
608.242	31.28
608.434	31.94
608.627	32.64
608.819	33.48
609.012	34.42
609.204	35.53
609.397	36.73
609.589	38.25
609.782	39.55
609.974	41.02
610.166	42.45
610.359	43.81
610.551	45.16
610.743	46.39
610.936	47.29
611.128	48.14
611.32	48.57
611.513	49.04
611.705	49.04
611.897	48.94
612.09	48.62
612.282	48.22
612.474	47.6
612.666	46.69
612.858	46.08
613.051	45.48
613.243	44.64
613.435	44.07
613.627	43.39
613.819	42.66
614.011	42.54
614.203	41.98
614.395	41.27
614.588	40.68
614.78	40.19
614.972	39.26
615.164	38.7
615.356	38.23
615.548	37.77
615.74	37.33
615.932	37.08
616.124	36.19
616.315	35.93
616.507	35.7
616.699	35.44
616.891	35.25
617.083	34.98
617.275	34.68
617.467	34.63
617.659	34.38
617.85	34.08
618.042	33.8
618.234	33.74
618.426	33.58
618.618	33.28
618.809	33.2
619.001	33.04
619.193	33.17
619.384	33.23
619.576	33.17
619.768	33.13
619.959	33.19
620.151	33.31
620.343	33.2
620.534	33.03
620.726	33.02
620.917	32.94
621.109	33.02
621.301	32.91
621.492	33.04
621.684	33.05
621.875	33.15
622.067	33.32
622.258	33.22
622.45	33.48
622.641	33.53
622.832	33.63
623.024	33.62
623.215	33.69
623.407	33.68
623.598	33.87
623.789	33.82
623.981	33.79
624.172	33.54
624.363	33.65
624.555	33.37
624.746	33.26
624.937	33.21
625.129	33.26
625.32	33.13
625.511	33.18
625.702	32.86
625.893	32.76
626.085	32.68
626.276	32.7
626.467	32.49
626.658	32.45
626.849	32.46
627.04	32.31
627.231	32.21
627.422	32.3
627.614	32.26
627.805	32.32
627.996	32.41
628.187	32.56
628.378	32.76
628.569	32.98
628.76	33.19
628.951	33.52
629.142	33.94
629.332	34.21
629.523	34.53
629.714	34.9
629.905	35.17
630.096	35.42
630.287	35.57
630.478	35.54
630.669	35.68
630.859	35.73
631.05	35.52
631.241	35.44
631.432	35.48
631.623	34.96
631.813	34.65
632.004	34.23
632.195	33.97
632.385	33.63
632.576	33.61
632.767	33.28
632.957	33.11
633.148	33.08
633.339	32.93
633.529	32.67
633.72	32.66
633.91	32.32
634.101	32.24
634.292	32.13
634.482	32.05
634.673	31.89
634.863	31.98
635.054	31.93
635.244	31.91
635.435	31.92
635.625	31.9
635.815	31.78
636.006	32.08
636.196	32.18
636.387	32.11
636.577	32.04
636.767	32.03
636.958	32.12
637.148	32.29
637.338	32.3
637.529	32.31
637.719	32.3
637.909	32.41
638.099	32.43
638.29	32.59
638.48	32.69
638.67	33.08
638.86	33.15
639.05	33.05
639.241	32.93
639.431	32.85
639.621	32.79
639.811	32.85
640.001	32.96
640.191	32.98
640.381	33
640.571	33.25
640.761	33.01
640.951	33.02
641.141	33.04
641.331	33.23
641.521	33.38
641.711	33.72
641.901	33.64
642.091	33.6
642.281	33.86
642.471	33.82
642.661	33.75
642.851	34.04
643.041	34
643.231	34.1
643.42	33.95
643.61	34.01
643.8	33.93
643.99	34
644.18	34.02
644.369	33.53
644.559	33.78
644.749	33.83
644.939	33.62
645.128	33.68
645.318	33.74
645.508	33.78
645.697	33.87
645.887	33.63
646.076	33.67
646.266	33.73
646.456	34.06
646.645	33.95
646.835	33.67
647.024	33.6
647.214	33.54
647.403	33.37
647.593	33.4
647.782	33.26
647.972	33.28
648.161	33.5
648.351	33.54
648.54	33.52
648.73	33.47
648.919	33.87
649.108	33.97
649.298	34.23
649.487	34.26
649.677	34.41
649.866	34.64
650.055	34.67
650.244	34.48
650.434	34.66
650.623	34.82
650.812	34.93
651.002	34.66
651.191	34.76
651.38	34.84
651.569	34.83
651.758	34.85
651.947	34.63
652.137	34.66
652.326	34.86
652.515	34.55
652.704	34.38
652.893	34.27
653.082	34.38
653.271	34.48
653.46	34.23
653.649	34.18
653.838	33.84
654.027	33.91
654.216	34.02
654.405	34.08
654.594	34.31
654.783	34.29
654.972	34.35
655.161	34.35
655.35	34.07
655.539	33.88
655.728	34.29
655.916	34.38
656.105	34.28
656.294	34.37
656.483	34.27
656.672	34.14
656.86	34.12
657.049	34
657.238	33.83
657.427	34.03
657.615	34.16
657.804	33.66
657.993	33.7
658.181	33.55
658.37	33.17
658.559	32.81
658.747	32.84
658.936	32.86
659.125	32.51
659.313	32.46
659.502	32.42
659.69	32.41
659.879	32.81
660.067	32.72
660.256	32.87
660.444	33.05
660.633	33.39
660.821	33.52
661.01	33.72
661.198	34.12
661.387	34.44
661.575	34.55
661.763	34.82
661.952	34.75
662.14	35.02
662.328	35.1
662.517	35.31
662.705	35.42
662.893	35.5
663.082	35.48
663.27	35.86
663.458	35.99
663.646	36.11
663.834	35.98
664.023	36.08
664.211	36.2
664.399	36.38
664.587	36.66
664.775	36.63
664.963	36.75
665.152	36.64
665.34	36.78
665.528	36.63
665.716	36.52
665.904	36.56
666.092	36.52
666.28	36.49
666.468	36.52
666.656	36.42
666.844	36.72
667.032	36.73
667.22	36.73
667.408	36.45
667.596	36.49
667.784	36.21
667.971	36.31
668.159	36.2
668.347	36.07
668.535	36.35
668.723	36.27
668.911	36.01
669.098	35.81
669.286	36.08
669.474	36.14
669.662	36.3
669.849	36.47
670.037	36.49
670.225	36.68
670.413	36.92
670.6	36.73
670.788	36.7
670.976	36.63
671.163	37.01
671.351	36.94
671.538	37.04
671.726	37.04
671.913	37.15
672.101	37.19
672.289	37.28
672.476	37.2
672.664	37.31
672.851	37.33
673.039	37.64
673.226	37.56
673.413	37.48
673.601	37.59
673.788	37.23
673.976	37.46
674.163	37.22
674.35	37
674.538	37.05
674.725	36.88
674.912	36.94
675.1	36.84
675.287	36.45
675.474	36.36
675.662	36.21
675.849	36.42
676.036	36.32
676.223	36.69
676.411	37.01
676.598	37.14
676.785	37.29
676.972	37.4
677.159	37.36
677.346	37.78
677.533	37.88
677.721	38.02
677.908	38.12
678.095	37.82
678.282	37.42
678.469	37.28
678.656	37.15
678.843	36.63
679.03	36.31
679.217	36.34
679.404	35.94
679.591	35.87
679.778	35.83
679.964	35.55
680.151	35.6
680.338	35.72
680.525	35.51
680.712	35.55
680.899	35.73
681.086	35.74
681.272	35.74
681.459	35.92
681.646	35.98
681.833	36.08
682.02	36.3
682.206	36.42
682.393	36.52
682.58	36.82
682.766	36.65
682.953	36.94
683.14	37.1
683.326	37.49
683.513	37.7
683.7	37.91
683.886	38.2
684.073	38.38
684.259	38.39
684.446	38.6
684.632	38.54
684.819	38.69
685.005	38.73
685.192	38.95
685.378	38.76
685.565	38.53
685.751	38.57
685.938	38.05
686.124	37.92
686.31	38.33
686.497	38.5
686.683	38.44
686.87	38.29
687.056	37.99
687.242	38.09
687.429	38.16
687.615	38.45
687.801	38.37
687.987	38.51
688.174	38.44
688.36	38.32
688.546	38.17
688.732	38.43
688.918	38.38
689.105	38.51
689.291	38.41
689.477	38.33
689.663	38.33
689.849	38.44
690.035	38.37
690.221	38.65
690.407	38.76
690.593	38.61
690.779	38.57
690.965	38.79
691.151	38.85
691.337	38.84
691.523	38.76
691.709	38.73
691.895	38.81
692.081	39.14
692.267	39.38
692.453	39.48
692.639	39.55
692.825	39.57
693.011	39.94
693.196	40.1
693.382	40.14
693.568	40.36
693.754	40.44
693.94	40.58
694.125	40.33
694.311	40.08
694.497	39.94
694.682	40.43
694.868	40.57
695.054	40.2
695.239	40.65
695.425	40.8
695.611	40.65
695.796	40.7
695.982	40.09
696.168	39.99
696.353	39.74
696.539	39.23
696.724	38.63
696.91	38.17
697.095	37.86
697.281	37.22
697.466	36.64
697.652	36.36
697.837	35.84
698.023	35.7
698.208	35.44
698.393	35.18
698.579	35.21
698.764	34.88
698.949	34.78
699.135	34.78
699.32	34.67
699.505	34.77
699.691	34.75
699.876	34.93
700.061	35.31
700.246	35.57
700.432	35.87
700.617	36.09
700.802	36.47
700.987	36.97
701.172	37.4
701.358	37.85
701.543	38.48
701.728	38.94
701.913	39.62
702.098	39.71
702.283	40.14
702.468	40.59
702.653	41.13
702.838	41.69
703.023	42.09
703.208	42.22
703.393	42.62
703.578	42.96
703.763	43.21
703.948	43.35
704.133	43.97
704.318	44.41
704.503	44.76
704.688	44.93
704.873	45.31
705.057	45.26
705.242	45.77
705.427	46.32
705.612	46.28
705.797	46.65
705.981	46.97
706.166	47
706.351	47.17
706.536	47.42
706.72	47.7
706.905	48.08
707.09	48
707.274	48.27
707.459	47.92
707.644	47.96
707.828	47.61
708.013	47.1
708.197	47.08
708.382	46.49
708.567	46.46
708.751	46.01
708.936	45.69
709.12	45.86
709.305	45.17
709.489	44.96
709.673	45.08
709.858	45.04
710.042	45.14
710.227	44.86
710.411	45.08
710.596	44.86
710.78	45.17
710.964	45.3
711.149	45.39
711.333	45.64
711.517	46.06
711.702	45.87
711.886	45.98
712.07	45.58
712.254	45.35
712.438	45.13
712.623	44.92
712.807	44.42
712.991	43.97
713.175	43.11
713.359	43.06
713.544	42.43
713.728	41.94
713.912	41.79
714.096	41.8
714.28	41.65
714.464	41.44
714.648	41.17
714.832	41.18
715.016	40.78
715.2	41.2
715.384	40.68
715.568	40.24
715.752	40.23
715.936	39.82
716.12	39.87
716.304	39.97
716.488	39.9
716.671	39.87
716.855	39.7
717.039	39.55
717.223	38.88
717.407	38.79
717.59	39.07
717.774	39.01
717.958	38.9
718.142	39
718.325	38.87
718.509	38.91
718.693	38.61
718.877	38.55
719.06	38.98
719.244	39.9
719.428	40.54
719.611	40.95
719.795	41.32
719.978	42.15
720.162	42.18
720.345	42.6
720.529	42.84
720.713	43.35
720.896	43.46
721.08	43.65
721.263	43.99
721.446	43.87
721.63	43.89
721.813	43.46
721.997	43.02
722.18	42.65
722.364	42.3
722.547	42.49
722.73	42.52
722.914	42.6
723.097	42.21
723.28	41.67
723.464	41.43
723.647	41.09
723.83	41.19
724.013	40.94
724.197	41.33
724.38	41.11
724.563	40.7
724.746	41.02
724.929	41.38
725.112	41.6
725.296	41.7
725.479	41.99
725.662	42.1
725.845	42.49
726.028	42.88
726.211	42.27
726.394	42.46
726.577	42.32
726.76	42.48
726.943	42.1
727.126	42.08
727.309	42.04
727.492	42.1
727.675	41.95
727.858	41.59
728.041	41.54
728.224	42.15
728.407	42.05
728.589	41.96
728.772	41.15
728.955	41.02
729.138	40.67
729.321	40.55
729.503	40.57
729.686	40.29
729.869	40.32
730.052	40.12
730.234	40.18
730.417	40.16
730.6	40.42
730.782	40.23
730.965	40.29
731.148	40.74
731.33	40.45
731.513	40.3
731.695	40.49
731.878	40.6
732.061	40.74
732.243	41.16
732.426	41.46
732.608	41.36
732.791	41.44
732.973	41.43
733.156	41.63
733.338	42.02
733.52	42.29
733.703	42.81
733.885	42.95
734.068	43.06
734.25	42.87
734.432	43.12
734.615	43.34
734.797	43.99
734.979	44.39
735.162	44.27
735.344	44.58
735.526	44.77
735.708	44.86
735.891	44.78
736.073	44.92
736.255	44.98
736.437	45.14
736.619	45.07
736.802	45.5
736.984	44.98
737.166	45.12
737.348	44.81
737.53	44.73
737.712	44.77
737.894	45.36
738.076	45.77
738.258	45.46
738.44	45.64
738.622	46.17
738.804	46.44
738.986	46.81
739.168	46.7
739.35	47.4
739.532	47.43
739.714	47.91
739.896	47.47
740.078	47.63
740.259	48.15
740.441	48.28
740.623	48.57
740.805	48.24
740.987	48.4
741.168	48.63
741.35	48.48
741.532	48.91
741.714	48.43
741.895	49.11
742.077	49.36
742.259	49.63
742.44	49.95
742.622	49.99
742.804	49.66
742.985	50.18
743.167	49.97
743.348	49.9
743.53	49.6
743.711	49.78
743.893	49.73
744.075	50
744.256	50.22
744.438	49.99
744.619	50.02
744.8	50.85
744.982	51.04
745.163	51.16
745.345	52.04
745.526	53.03
745.707	53.44
745.889	53.5
746.07	53.73
746.252	53.69
746.433	53.7
746.614	53.75
746.795	53.54
746.977	53.44
747.158	54.15
747.339	54.21
747.52	53.81
747.702	53.81
747.883	53.94
748.064	53.36
748.245	52.81
748.426	52.23
748.607	52.36
748.788	52.23
748.97	52.11
749.151	52.16
749.332	52.05
749.513	51.7
749.694	51.13
749.875	51.48
750.056	50.96
750.237	50.67
750.418	51.4
750.599	51.01
750.78	51.34
750.96	51.21
751.141	51.43
751.322	51.31
751.503	51.59
751.684	52.38
751.865	50.87
752.046	51.62
752.226	51.99
752.407	51.53
752.588	51.95
752.769	51.61
752.949	51.66
753.13	51.5
753.311	51.29
753.492	51.68
753.672	51.83
753.853	52.47
754.034	52.31
754.214	52.78
754.395	52.84
754.575	52.66
754.756	53.18
754.937	53.61
755.117	53.46
755.298	53.44
755.478	52.8
755.659	52.32
755.839	53.08
756.02	52.56
756.2	52.29
756.381	52.38
756.561	52.54
756.741	52.43
756.922	52.62
757.102	52.19
757.283	51.62
757.463	51.61
757.643	51.71
757.823	51.68
758.004	51.71
758.184	50.84
758.364	50.28
758.545	49.13
758.725	48.35
758.905	46.93
759.085	46.04
759.265	45.72
759.446	45.03
759.626	43.98
759.806	42.15
759.986	41.95
760.166	41.79
760.346	41.89
760.526	42.24
760.706	42.08
760.886	41.74
761.066	41.95
761.246	42.18
761.426	42.35
761.606	42.34
761.786	42.63
761.966	42.23
762.146	42.2
762.326	41.48
762.506	40.68
762.686	40.17
762.866	40.38
763.046	40.32
763.225	39.41
763.405	38.44
763.585	38.16
763.765	37.91
763.945	37.71
764.124	37.52
764.304	37.77
764.484	38.33
764.664	38.77
764.843	38.91
765.023	39.22
765.203	40.35
765.382	41.84
765.562	42.9
765.741	43.6
765.921	44.49
766.101	45.36
766.28	46.09
766.46	46.7
766.639	47.38
766.819	47.85
766.998	48.58
767.178	49.19
767.357	49.65
767.537	49.95
767.716	50.65
767.896	50.92
768.075	51.41
768.254	51.89
768.434	52.47
768.613	52.58
768.792	53.61
768.972	53.47
769.151	53.48
769.33	53.27
769.51	53.07
769.689	54.35
769.868	55.44
770.047	55.64
770.226	55.84
770.406	55.52
770.585	55.87
770.764	55.66
770.943	55.91
771.122	55.93
771.301	56.06
771.48	57.57
771.66	57.18
771.839	56.69
772.018	56.55
772.197	56.87
772.376	57.83
772.555	58.4
772.734	58.78
772.913	59.03
773.092	59.35
773.271	59.18
773.449	58.23
773.628	57.5
773.807	57.24
773.986	57.7
774.165	57.69
774.344	57.38
774.523	57.11
774.701	57.53
774.88	57.69
775.059	57.42
775.238	57.68
775.417	57.67
775.595	59.02
775.774	59.24
775.953	59.43
776.131	59.17
776.31	58.03
776.489	58.33
776.667	57.81
776.846	57.83
777.025	58.03
777.203	58.18
777.382	58.36
777.56	57.65
777.739	58.11
777.917	57.67
778.096	58.34
778.274	59.81
778.453	59.6
778.631	60.5
778.81	60.48
778.988	60.34
779.166	60.62
779.345	60.23
779.523	60.67
779.702	60.07
779.88	60.4
780.058	60
780.237	59.4
780.415	60.07
780.593	60.36
780.771	60.22
780.95	61.33
781.128	61.03
781.306	61.77
781.484	61.62
781.662	62
781.841	62.61
782.019	62.85
782.197	63.46
782.375	63.18
782.553	61.81
782.731	63.01
782.909	62.56
783.087	62.94
783.265	63.21
783.443	64.05
783.621	65.03
783.799	63.84
783.977	63.81
784.155	63.2
784.333	63.19
784.511	64.19
784.689	64.11
784.867	63.72
785.045	63.81
785.223	63.37
785.4	62.03
785.578	61.02
785.756	62.02
785.934	62.17
786.112	62.44
786.289	62.82
786.467	62.15
786.645	60.53
786.823	59.72
787	59.88
787.178	58.52
787.356	58.15
787.533	58.02
787.711	57.18
787.889	56.19
788.066	55.96
788.244	54.72
788.421	54.28
788.599	54.9
788.776	55.52
788.954	55.22
789.131	56.06
789.309	56.84
789.486	56.86
789.664	57.42
789.841	58.85
790.019	58.56
790.196	58.3
790.373	58.84
790.551	59.24
790.728	59.27
790.906	59.84
791.083	60.4
791.26	59.48
791.437	59.54
791.615	59.24
791.792	58.37
791.969	58.79
792.146	60.04
792.324	60.62
792.501	61.25
792.678	61.2
792.855	61.51
793.032	61.67
793.209	63.05
793.387	63.66
793.564	63.44
793.741	63.52
793.918	62.99
794.095	63.2
794.272	62.83
794.449	60.31
794.626	60.63
794.803	59.38
794.98	58.42
795.157	56.97
795.334	56.71
795.511	56.23
795.688	56.31
795.864	56.09
796.041	55.58
796.218	55.81
796.395	57.3
796.572	56.04
796.749	56.79
796.925	56.86
797.102	58.1
797.279	57.28
797.456	57.99
797.632	58.26
797.809	58.89
797.986	58.51
798.162	56.9
798.339	56.46
798.516	58.54
798.692	59.26
798.869	59.27
799.046	59.78
799.222	60.11
799.399	60.91
799.575	61.01
799.752	61.17
799.928	62.2
800.105	62.74
800.281	63.53
800.458	62.32
800.634	60.92
800.811	60.4
800.987	59.63
801.163	59.68
801.34	58.8
801.516	58.52
801.692	59.44
801.869	59.37
802.045	60.46
802.221	60.11
802.398	61.45
802.574	62.83
802.75	64.62
802.926	64.72
803.103	65.22
803.279	67.14
803.455	67.74
803.631	67.6
803.807	67.95
803.983	69.48
804.16	70.54
804.336	68.58
804.512	67.49
804.688	66.79
804.864	67.22
805.04	67.52
805.216	66.33
805.392	65.61
805.568	66.54
805.744	66.03
805.92	64.22
806.096	64.3
806.272	65.33
806.448	65.66
806.623	66.91
806.799	66.25
806.975	66.29
807.151	66.54
807.327	66.72
807.503	64.38
807.678	65.03
807.854	66.03
808.03	64.16
808.206	65.07
808.381	64.32
808.557	62.55
808.733	62.96
808.908	62.99
809.084	62.13
809.26	62.68
809.435	64.53
809.611	63.94
809.787	64.46
809.962	65.64
810.138	64.54
810.313	65.57
810.489	66.65
810.664	66.77
810.84	66.57
811.015	67.88
811.191	67.71
811.366	66.65
811.542	67.07
811.717	65.95
811.892	66.66
812.068	65.85
812.243	65.35
812.419	66.38
812.594	66.46
812.769	67.23
812.944	67.34
813.12	65.68
813.295	65.86
813.47	64.54
813.645	65.1
813.821	63.54
813.996	64.46
814.171	64.22
814.346	63.98
814.521	64.53
814.697	63.13
814.872	62.32
815.047	64.87
815.222	64.41
815.397	65.17
815.572	64.52
815.747	66.09
815.922	65.36
816.097	64.17
816.272	62.81
816.447	61.95
816.622	63.31
816.797	63.69
816.972	62.94
817.147	63.98
817.322	64.84
817.496	64.75
817.671	62.6
817.846	61.76
818.021	61.27
818.196	60.95
818.371	60.49
818.545	58.65
818.72	57.58
818.895	56.57
819.069	54.17
819.244	51.88
819.419	51.51
819.594	50.99
819.768	49.53
819.943	48.75
820.117	47.25
820.292	45.93
820.467	44.37
820.641	42.21
820.816	40.17
820.99	38.76
821.165	37.62
821.339	35.82
821.514	34.8
821.688	34.14
821.863	33.33
822.037	32.75
822.212	31.92
822.386	31.04
822.56	30.75
822.735	30.63
822.909	30.45
823.084	30.32
823.258	30.35
823.432	30.24
823.606	30.35
823.781	30.82
823.955	30.92
824.129	31.53
824.303	32.29
824.478	32.77
824.652	33.33
824.826	33.62
825	34.37
825.174	35.17
825.348	36.05
825.523	36.6
825.697	36.35
825.871	36.77
826.045	36.94
826.219	37.24
826.393	37.29
826.567	37.03
826.741	37.62
826.915	37.04
827.089	37.05
827.263	37.02
827.437	37.17
827.611	37.53
827.784	37.49
827.958	37.49
828.132	37.54
828.306	37.55
828.48	37.72
828.654	37.86
828.827	38.86
829.001	39.45
829.175	39.87
829.349	40.86
829.522	41.6
829.696	43.23
829.87	45.04
830.044	47.13
830.217	48.89
830.391	51.21
830.565	53.17
830.738	54.8
830.912	55.2
831.085	57.57
831.259	59.11
831.432	60
831.606	60.39
831.779	59.45
831.953	57.54
832.126	57.06
832.3	55.73
832.473	53.99
832.647	51.96
832.82	50.39
832.994	48.81
833.167	47.37
833.34	45.94
833.514	45.03
833.687	43.57
833.86	43.71
834.034	42.88
834.207	42.64
834.38	41.88
834.553	42.19
834.727	42
834.9	41.57
835.073	41.7
835.246	42.27
835.419	42.92
835.593	44.87
835.766	45.15
835.939	46.7
836.112	48.04
836.285	49.66
836.458	52.08
836.631	53.69
836.804	55.93
836.977	57
837.15	58.21
837.323	60.08
837.496	60.09
837.669	60.96
837.842	62.62
838.015	63.11
838.188	65.02
838.361	63.29
838.533	63.74
838.706	64.92
838.879	65.17
839.052	67.64
839.225	67.4
839.398	65.78
839.57	67.13
839.743	66.45
839.916	66.23
840.088	66.71
840.261	67.97
840.434	69.59
840.607	68.35
840.779	69.13
840.952	67.65
841.124	67.09
841.297	69.62
841.47	70.08
841.642	70.69
841.815	71.23
841.987	72.74
842.16	73.95
842.332	75.35
842.505	77.17
842.677	78.02
842.85	81.26
843.022	85.2
843.194	86.83
843.367	87.58
843.539	89.98
843.712	92.37
843.884	92.65
844.056	91.84
844.229	91.03
844.401	92.56
844.573	96.05
844.745	97.79
844.918	95.47
845.09	98.17
845.262	100.44
845.434	102.34
845.606	104.02
845.779	107.53
845.951	107.92
846.123	110.04
846.295	111.05
846.467	113.69
846.639	116.66
846.811	122.97
846.983	123.57
847.155	122.57
847.327	119.23
847.499	116.24
847.671	117
847.843	119.76
848.015	121.96
848.187	123.33
848.359	121.82
848.531	117.45
848.703	114.42
848.875	114.87
849.047	118.07
849.218	118.89
849.39	121.91
849.562	119.85
849.734	125.21
849.905	127.84
850.077	126.09
850.249	124.89
850.421	128.8
850.592	129.27
850.764	132.54
850.936	127.58
851.107	129.13
851.279	133.68
851.451	133.47
851.622	127.06
851.794	122.01
851.965	125.3
852.137	124.39
852.308	117.31
852.48	118.98
852.651	114.32
852.823	120.27
852.994	119.72
853.166	115.53
853.337	119.56
853.509	124.44
853.68	126.76
853.851	128.51
854.023	132.34
854.194	136.18
854.365	135.33
854.537	142.2
854.708	137.43
854.879	139.88
855.05	141.77
855.222	138.1
855.393	133.5
855.564	133.96
855.735	131.31
855.906	129.32
856.078	129.61
856.249	131.46
856.42	127.87
856.591	134.54
856.762	134.45
856.933	132.76
857.104	129.62
857.275	130.57
857.446	132.01
857.617	133.2
857.788	131.24
857.959	132.89
858.13	135.84
858.301	140.47
858.472	136.36
858.643	144.46
858.814	144.76
858.985	151.37
859.155	155.5
859.326	159.24
859.497	164.22
859.668	167.62
859.839	167.59
860.009	166.18
860.18	161.56
860.351	165.05
860.522	159.98
860.692	158.81
860.863	166.58
861.034	164.29
861.204	159.44
861.375	158.39
861.546	160.58
861.716	159.72
861.887	151.97
862.057	144.29
862.228	139.18
862.398	143.9
862.569	149.28
862.739	141.48
862.91	136.66
863.08	135.77
863.251	130.05
863.421	130.46
863.592	130.71
863.762	130.36
863.932	134.13
864.103	131.59
864.273	125.47
864.443	125.62
864.614	122.46
864.784	125.54
864.954	124.22
865.125	125.8
865.295	121.66
865.465	121.17
865.635	125.83
865.805	131.15
865.976	136.63
866.146	133.98
866.316	133.49
866.486	139.54
866.656	140.58
866.826	142.77
866.996	146.8
867.166	147.21
867.336	147.13
867.506	148.21
867.676	142.76
867.846	137.26
868.016	139.12
868.186	136.2
868.356	134.63
868.526	131.09
868.696	130.47
868.866	134.16
869.036	135.38
869.206	133.87
869.376	129.41
869.545	129.06
869.715	129.95
869.885	130.34
870.055	131.77
870.224	133.36
870.394	131.91
870.564	132.85
870.734	121.5
870.903	127
871.073	131.08
871.243	132.43
871.412	127.86
871.582	129.75
871.751	130.37
871.921	131.27
872.091	127.18
872.26	129.45
872.43	126.55
872.599	133.87
872.769	126.04
872.938	121.82
873.108	118.88
873.277	123.91
873.446	122.94
873.616	125.68
873.785	124.29
873.955	129.59
874.124	130.33
874.293	131.08
874.463	129.73
874.632	137.86
874.801	132.8
874.971	135.56
875.14	132.66
875.309	131.04
875.478	130.68
875.647	133.66
875.817	128.26
875.986	125.52
876.155	127.55
876.324	126.33
876.493	123.63
876.662	129.98
876.831	133.65
877	133.12
877.17	130.82
877.339	125.69
877.508	126.38
877.677	129.67
877.846	129.88
878.015	125.31
878.184	124.32
878.352	116.93
878.521	118.39
878.69	114.47
878.859	112.67
879.028	111.52
879.197	110.71
879.366	101.71
879.534	96.76
879.703	89.8
879.872	83.29
880.041	76.66
880.21	71.84
880.378	64.23
880.547	58.18
880.716	53.8
880.884	50.35
881.053	47.02
881.222	44.31
881.39	42.49
881.559	42.03
881.727	40.95
881.896	40.15
882.065	39.42
882.233	39.27
882.402	39.01
882.57	38.61
882.739	38.35
882.907	38.87
883.076	38.53
883.244	37.82
883.412	38.17
883.581	39.17
883.749	40.02
883.918	40.53
884.086	41.66
884.254	42.95
884.423	43.73
884.591	45.08
884.759	46.35
884.927	48.94
885.096	52.38
885.264	54.84
885.432	57.29
885.6	61.14
885.769	65.41
885.937	68.44
886.105	71.9
886.273	77.88
886.441	80.74
886.609	85.17
886.777	88.42
886.945	89.88
887.113	95.49
887.281	97.43
887.449	98.2
887.617	100.27
887.785	102.66
887.953	101.89
888.121	103.12
888.289	109.36
888.457	110.97
888.625	111.63
888.793	117.72
888.961	112.65
889.129	114.67
889.296	114.64
889.464	113.22
889.632	112.98
889.8	118.41
889.967	116.51
890.135	115.55
