Data from 2938801__Reflection_01.txt Node
Date: Thu Mar 12 22:45:37 EDT 2015
User: robert
Spectrometer: USB4E03002
Autoset integration time: false
Trigger mode: 4
Integration Time (sec): 1.000000E-1
Scans to average: 10
Electric dark correction enabled: false
Nonlinearity correction enabled: false
Boxcar width: 5
Stray light correction enabled: false
XAxis mode: Wavelengths
Stop averaging: false
Number of Pixels in Spectrum: 3648
>>>>>Begin Spectral Data<<<<<
177.575	700.93
177.794	1783.33
178.014	542.31
178.233	576.67
178.452	284.84
178.672	307.26
178.891	362.64
179.11	305.82
179.33	313.78
179.549	320.98
179.768	255.69
179.987	205.86
180.207	206.66
180.426	218.13
180.645	253.67
180.864	246.32
181.084	253.35
181.303	174.31
181.522	167.53
181.741	134.3
181.96	126.53
182.179	125.26
182.398	128.85
182.618	119.64
182.837	112.3
183.056	107.85
183.275	106.25
183.494	108.26
183.713	109.03
183.932	111.66
184.151	131.15
184.37	130.13
184.589	123.78
184.808	124.03
185.027	115.7
185.246	126.7
185.465	111.04
185.684	130.76
185.903	113.45
186.122	119.32
186.341	128.75
186.56	112.79
186.779	122.33
186.998	130.41
187.216	129.91
187.435	133.49
187.654	125.52
187.873	134.67
188.092	126.65
188.311	150.54
188.53	149.01
188.748	129.29
188.967	142.19
189.186	143.56
189.405	130
189.623	131.73
189.842	132.7
190.061	125.61
190.28	126.68
190.498	128.51
190.717	113.13
190.936	114.37
191.154	116.03
191.373	114.2
191.592	104.35
191.81	111.05
192.029	107.03
192.248	101.27
192.466	104.56
192.685	103.65
192.904	106.66
193.122	115.34
193.341	122.3
193.559	145.96
193.778	140.24
193.996	145.36
194.215	143.37
194.433	162.88
194.652	209.39
194.87	238.95
195.089	248.6
195.307	193.98
195.526	163.2
195.744	164.71
195.963	137.11
196.181	151.13
196.399	147.91
196.618	125.76
196.836	118.85
197.055	104.87
197.273	94.76
197.491	97.39
197.71	116.28
197.928	132.61
198.146	120.06
198.365	112.98
198.583	115.05
198.801	114.87
199.019	148.7
199.238	144.22
199.456	150.59
199.674	169.96
199.892	163.97
200.111	158.72
200.329	167.12
200.547	189.39
200.765	218.66
200.983	185.97
201.202	178.3
201.42	159.08
201.638	165.96
201.856	168.67
202.074	153.07
202.292	143.7
202.51	132.28
202.728	134.39
202.946	121.09
203.165	125.82
203.383	139.35
203.601	140.77
203.819	126.03
204.037	126.62
204.255	137.3
204.473	134.44
204.691	135.39
204.909	121
205.127	110.23
205.345	116.25
205.562	100.62
205.78	104.83
205.998	113.34
206.216	119.56
206.434	124.25
206.652	110.63
206.87	110.88
207.088	111.32
207.306	128.77
207.523	124.87
207.741	120.92
207.959	128.7
208.177	118.6
208.395	109.49
208.612	111.58
208.83	97.11
209.048	96.8
209.266	97.92
209.483	106.67
209.701	97.74
209.919	106.49
210.136	105.68
210.354	106.7
210.572	111.89
210.79	116.13
211.007	115.56
211.225	126.09
211.442	120.07
211.66	117.53
211.878	109.93
212.095	106.06
212.313	100.51
212.53	97.99
212.748	98
212.966	98.7
213.183	91.66
213.401	91.76
213.618	88.34
213.836	93.51
214.053	92.72
214.271	97.79
214.488	98.5
214.705	93.95
214.923	95.03
215.14	94.1
215.358	84.59
215.575	92.87
215.793	89.28
216.01	90.43
216.227	77.46
216.445	78.79
216.662	76.72
216.879	82.02
217.097	87.15
217.314	79.49
217.531	83.34
217.749	91.77
217.966	95.92
218.183	92.65
218.4	80.31
218.618	85.5
218.835	77.82
219.052	78.05
219.269	72.48
219.487	67.9
219.704	74.84
219.921	76.53
220.138	74.2
220.355	70.91
220.572	73.01
220.79	73.98
221.007	73.19
221.224	74.16
221.441	68.23
221.658	67.39
221.875	66.38
222.092	65.24
222.309	61.2
222.526	57.86
222.743	55.08
222.96	54.3
223.177	51.83
223.394	47.33
223.611	45.44
223.828	45.41
224.045	46.91
224.262	46.31
224.479	42.35
224.696	41.21
224.913	39.87
225.13	38.34
225.347	36.21
225.564	33.66
225.781	32.73
225.997	30.31
226.214	29.02
226.431	26.42
226.648	22.74
226.865	22.43
227.082	20.84
227.298	17.82
227.515	16.7
227.732	15.84
227.949	15.56
228.165	14.84
228.382	14.65
228.599	13.82
228.816	13.26
229.032	13.12
229.249	12.43
229.466	11.78
229.682	12.18
229.899	12.13
230.116	12.2
230.332	12.36
230.549	12.72
230.765	12.88
230.982	13.58
231.199	13.71
231.415	14.13
231.632	14.66
231.848	15.29
232.065	16.28
232.281	17.66
232.498	16.63
232.714	17.53
232.931	17.25
233.147	17.33
233.364	17.21
233.58	18.01
233.797	19.09
234.013	19.13
234.23	19.46
234.446	18.77
234.662	18.28
234.879	18.98
235.095	19.08
235.312	18.5
235.528	19.16
235.744	20.19
235.961	20.09
236.177	19
236.393	19.48
236.61	21.04
236.826	21.86
237.042	22.04
237.258	20.71
237.475	19.17
237.691	20.89
237.907	20.48
238.123	17.75
238.339	16.83
238.556	17.48
238.772	17.45
238.988	15.45
239.204	15.27
239.42	14.92
239.636	15.37
239.853	15.46
240.069	14.32
240.285	13.29
240.501	13.04
240.717	13.17
240.933	11.79
241.149	11.23
241.365	10.08
241.581	10.19
241.797	10.03
242.013	9.81
242.229	9.55
242.445	9.72
242.661	9.85
242.877	10.06
243.093	9.72
243.309	10.67
243.525	10.29
243.741	10.81
243.957	10.89
244.173	10.64
244.388	11.02
244.604	11.39
244.82	10.84
245.036	10.35
245.252	10.02
245.468	9.67
245.683	9.15
245.899	9.32
246.115	8.95
246.331	8.56
246.547	8.51
246.762	8.46
246.978	8.3
247.194	8.15
247.409	8.31
247.625	8.44
247.841	8.45
248.057	8.36
248.272	8.3
248.488	8.5
248.703	8.71
248.919	8.56
249.135	8.66
249.35	9.02
249.566	10.13
249.782	10.1
249.997	10.52
250.213	11.25
250.428	11.8
250.644	12.22
250.859	11.69
251.075	11.21
251.29	11.22
251.506	10.75
251.721	10.46
251.937	9.64
252.152	9.48
252.368	8.98
252.583	8.95
252.798	8.57
253.014	8.34
253.229	9.49
253.445	10.08
253.66	10.4
253.875	10.27
254.091	10.52
254.306	11.15
254.521	11.17
254.737	11.95
254.952	11.53
255.167	11.59
255.383	11.21
255.598	10.76
255.813	10.15
256.028	9.82
256.244	10.68
256.459	10.73
256.674	10.04
256.889	10.27
257.104	9.91
257.32	9.76
257.535	9.25
257.75	9.58
257.965	9.36
258.18	9.14
258.395	9.24
258.61	8.56
258.826	7.88
259.041	7.5
259.256	7.31
259.471	7.12
259.686	6.99
259.901	7.17
260.116	6.76
260.331	6.38
260.546	6.23
260.761	6.21
260.976	6.38
261.191	6.52
261.406	6.66
261.621	6.74
261.836	6.91
262.05	7.07
262.265	6.89
262.48	7.02
262.695	7.67
262.91	8
263.125	8.12
263.34	8.2
263.555	8.44
263.769	8.44
263.984	8.37
264.199	8.25
264.414	8.29
264.629	8.24
264.843	8.91
265.058	8.74
265.273	7.86
265.488	7.75
265.702	7.78
265.917	8.06
266.132	8.6
266.346	8.54
266.561	8.3
266.776	8.37
266.99	7.94
267.205	7.49
267.42	7.26
267.634	7.75
267.849	7.37
268.063	7.05
268.278	6.66
268.492	6.33
268.707	6.5
268.922	7.19
269.136	6.85
269.351	7.57
269.565	7.65
269.78	7.48
269.994	7.12
270.209	7.36
270.423	7.26
270.637	6.96
270.852	6.73
271.066	6.31
271.281	5.5
271.495	5.8
271.709	5.9
271.924	5.54
272.138	5.56
272.353	5.62
272.567	5.58
272.781	5.71
272.996	6.1
273.21	6.3
273.424	6.48
273.638	6.67
273.853	6.26
274.067	5.95
274.281	6.89
274.495	6.83
274.71	7.09
274.924	7.27
275.138	7.09
275.352	6.71
275.566	6.62
275.781	7.02
275.995	7.16
276.209	7.68
276.423	7.98
276.637	7.39
276.851	7.65
277.065	7.82
277.279	7.99
277.493	8.2
277.707	8.15
277.921	8.24
278.135	7.9
278.349	7.83
278.563	7.98
278.777	7.89
278.991	7.58
279.205	7.7
279.419	7.25
279.633	6.68
279.847	6.81
280.061	7.19
280.275	7.16
280.489	7.14
280.703	7.23
280.917	6.62
281.131	6.47
281.344	6.32
281.558	5.9
281.772	5.73
281.986	5.51
282.2	5.35
282.414	5.03
282.627	4.83
282.841	4.95
283.055	4.74
283.269	4.83
283.482	4.81
283.696	5.28
283.91	5.49
284.123	5.76
284.337	6.07
284.551	5.84
284.764	6.13
284.978	6.18
285.192	5.98
285.405	6.08
285.619	6.08
285.833	6.08
286.046	6.13
286.26	6.23
286.473	6.4
286.687	6.41
286.9	6.72
287.114	6.5
287.327	6.74
287.541	6.92
287.754	7.23
287.968	7.39
288.181	7.11
288.395	6.8
288.608	6.9
288.822	6.97
289.035	6.9
289.248	6.73
289.462	7.05
289.675	6.86
289.889	6.56
290.102	6.1
290.315	6.26
290.529	6.67
290.742	6.93
290.955	6.9
291.169	6.68
291.382	6.92
291.595	7.1
291.808	7.11
292.022	7.04
292.235	7.28
292.448	7.59
292.661	7.2
292.875	6.99
293.088	7.04
293.301	7.16
293.514	6.8
293.727	6.68
293.94	7.02
294.153	6.71
294.367	6.73
294.58	6.76
294.793	6.66
295.006	7.12
295.219	7.13
295.432	7.15
295.645	6.95
295.858	7.24
296.071	7.08
296.284	6.69
296.497	6.66
296.71	6.74
296.923	6.85
297.136	6.85
297.349	6.46
297.562	6.51
297.775	6.5
297.988	6.41
298.201	6.44
298.414	6.39
298.626	6.24
298.839	6.23
299.052	6.21
299.265	6.31
299.478	6.46
299.691	6.59
299.903	6.42
300.116	6.52
300.329	6.7
300.542	6.84
300.755	6.89
300.967	7.34
301.18	7.67
301.393	8.02
301.605	7.56
301.818	7.72
302.031	7.7
302.243	7.99
302.456	8.12
302.669	8.24
302.881	8.45
303.094	8.54
303.307	8.2
303.519	8.06
303.732	7.82
303.944	8.03
304.157	7.99
304.37	8.14
304.582	8.12
304.795	7.67
305.007	7.99
305.22	7.69
305.432	7.7
305.645	7.94
305.857	8.03
306.069	7.98
306.282	8.12
306.494	7.74
306.707	7.85
306.919	7.81
307.132	8.05
307.344	7.82
307.556	7.63
307.769	7.91
307.981	7.88
308.193	7.89
308.406	7.85
308.618	7.53
308.83	7.51
309.043	7.56
309.255	7.62
309.467	7.5
309.679	7.46
309.892	7.57
310.104	7.22
310.316	7.34
310.528	7.43
310.74	7.16
310.953	7.43
311.165	7.77
311.377	7.76
311.589	7.67
311.801	7.86
312.013	7.65
312.225	7.58
312.437	8.19
312.649	8.32
312.862	8.45
313.074	8.78
313.286	9.37
313.498	9.23
313.71	9.45
313.922	9.71
314.134	9.5
314.346	9.76
314.558	10.3
314.77	10.03
314.982	9.6
315.193	9.26
315.405	9.26
315.617	8.59
315.829	8.59
316.041	8.68
316.253	8.37
316.465	8.96
316.677	8.92
316.888	8.73
317.1	8.73
317.312	9.06
317.524	9.12
317.736	9.48
317.947	9.77
318.159	9.98
318.371	9.67
318.583	10
318.794	9.66
319.006	10.08
319.218	10.12
319.43	9.87
319.641	10.13
319.853	10.31
320.064	9.99
320.276	9.84
320.488	9.87
320.699	10.53
320.911	10.27
321.123	10.34
321.334	10.2
321.546	10.39
321.757	10.72
321.969	10.78
322.18	10.66
322.392	11.31
322.603	11.73
322.815	11.5
323.026	10.86
323.238	11
323.449	10.97
323.661	10.52
323.872	10.5
324.083	10.71
324.295	10.8
324.506	10.74
324.718	10.74
324.929	10.89
325.14	11.13
325.352	11.24
325.563	11.27
325.774	11.61
325.986	12.02
326.197	12.01
326.408	12.33
326.62	12.34
326.831	13
327.042	12.74
327.253	12.76
327.464	12.8
327.676	13.13
327.887	13.36
328.098	13.63
328.309	13.93
328.52	13.92
328.732	13.83
328.943	14.1
329.154	14.36
329.365	14.88
329.576	15.12
329.787	15.4
329.998	15.84
330.209	15.89
330.42	15.79
330.631	15.99
330.842	16.3
331.053	16.53
331.264	16.4
331.475	16.13
331.686	16.27
331.897	16.2
332.108	16.31
332.319	16.24
332.53	16.59
332.741	16.69
332.952	16.88
333.163	17.08
333.374	17.18
333.585	17.43
333.795	17.89
334.006	17.96
334.217	18.05
334.428	18.14
334.639	18.26
334.849	18.09
335.06	17.93
335.271	17.59
335.482	17.73
335.692	17.52
335.903	17.51
336.114	17.15
336.325	17.03
336.535	17.04
336.746	17.1
336.957	16.93
337.167	17.11
337.378	17.28
337.589	17.15
337.799	17.13
338.01	17.72
338.22	17.5
338.431	17.37
338.642	17.21
338.852	17.34
339.063	17.22
339.273	17.23
339.484	17.43
339.694	17.43
339.905	17.7
340.115	17.35
340.326	17.06
340.536	17.36
340.746	17.74
340.957	17.96
341.167	17.74
341.378	17.77
341.588	17.78
341.799	17.34
342.009	17.01
342.219	17.13
342.43	17.26
342.64	16.79
342.85	16.67
343.061	16.45
343.271	16.43
343.481	16.49
343.691	16.5
343.902	16.51
344.112	16.81
344.322	17.32
344.532	17.01
344.743	17.16
344.953	17.17
345.163	17.06
345.373	17.26
345.583	17.07
345.793	16.89
346.004	16.52
346.214	16.64
346.424	16.35
346.634	16.05
346.844	16.62
347.054	16.42
347.264	16.83
347.474	16.77
347.684	16.37
347.894	16.41
348.104	16.58
348.314	17.04
348.524	16.74
348.734	16.93
348.944	16.94
349.154	16.2
349.364	16.4
349.574	15.97
349.784	15.99
349.994	16.16
350.204	16.41
350.413	16.43
350.623	16.14
350.833	16.39
351.043	16.66
351.253	16.8
351.463	17.07
351.672	16.93
351.882	17.05
352.092	17.01
352.302	16.85
352.511	16.73
352.721	16.64
352.931	16.66
353.141	16.17
353.35	15.72
353.56	15.71
353.77	15.68
353.979	15.44
354.189	15.53
354.399	15.54
354.608	15.43
354.818	15.31
355.027	15.16
355.237	15.18
355.447	15.41
355.656	15.64
355.866	15.29
356.075	15.27
356.285	15.37
356.494	15.1
356.704	15.1
356.913	15.17
357.123	15.24
357.332	15.22
357.542	15.08
357.751	14.99
357.96	14.69
358.17	14.74
358.379	14.61
358.589	14.38
358.798	14.36
359.007	14.49
359.217	14.29
359.426	14.13
359.635	14.26
359.845	14.43
360.054	14.34
360.263	14.55
360.472	14.55
360.682	14.54
360.891	14.64
361.1	14.59
361.309	14.46
361.519	14.64
361.728	14.69
361.937	14.45
362.146	14.23
362.355	14.53
362.564	14.55
362.774	14.84
362.983	14.81
363.192	14.94
363.401	14.96
363.61	14.93
363.819	14.9
364.028	14.84
364.237	15
364.446	15.08
364.655	14.77
364.864	14.68
365.073	14.54
365.282	14.72
365.491	14.7
365.7	14.87
365.909	14.97
366.118	14.96
366.327	15
366.536	14.9
366.745	15.23
366.954	15.17
367.162	15.42
367.371	15.27
367.58	15.38
367.789	15.44
367.998	15.53
368.207	15.59
368.415	15.82
368.624	15.84
368.833	15.98
369.042	15.5
369.25	15.53
369.459	15.39
369.668	15.33
369.877	15.02
370.085	14.95
370.294	14.76
370.503	14.79
370.711	14.49
370.92	14.33
371.129	14.33
371.337	14.66
371.546	14.72
371.754	14.48
371.963	14.4
372.171	14.19
372.38	14.35
372.589	14.41
372.797	14.2
373.006	14.19
373.214	14.32
373.423	14.14
373.631	14.02
373.84	13.91
374.048	14.07
374.256	14.3
374.465	14.65
374.673	14.23
374.882	14.26
375.09	14.29
375.298	14.43
375.507	14.73
375.715	14.85
375.923	14.88
376.132	14.83
376.34	14.72
376.548	14.51
376.757	14.48
376.965	14.63
377.173	14.44
377.381	14.31
377.59	14.06
377.798	13.66
378.006	13.68
378.214	13.76
378.423	13.59
378.631	13.63
378.839	13.62
379.047	13.61
379.255	13.53
379.463	13.7
379.671	13.62
379.879	13.66
380.088	13.91
380.296	13.79
380.504	13.63
380.712	13.79
380.92	13.55
381.128	13.48
381.336	13.6
381.544	13.49
381.752	13.37
381.96	13.52
382.168	13.49
382.376	13.4
382.584	13.5
382.791	13.57
382.999	13.35
383.207	13.28
383.415	13.47
383.623	13.41
383.831	13.5
384.039	13.48
384.247	13.41
384.454	13.46
384.662	13.19
384.87	13.13
385.078	12.94
385.285	13.17
385.493	13.36
385.701	13.29
385.909	12.98
386.116	12.82
386.324	12.88
386.532	12.93
386.739	12.95
386.947	13.04
387.155	13.19
387.362	13.25
387.57	13.15
387.778	13.19
387.985	13.12
388.193	13.27
388.4	13.5
388.608	13.53
388.816	13.5
389.023	13.54
389.231	13.6
389.438	13.48
389.646	13.42
389.853	13.39
390.061	13.38
390.268	13.39
390.475	13.28
390.683	13.21
390.89	13.08
391.098	13.06
391.305	12.97
391.512	12.83
391.72	12.89
391.927	12.86
392.135	12.99
392.342	12.87
392.549	12.74
392.756	12.65
392.964	12.58
393.171	12.69
393.378	12.53
393.586	12.46
393.793	12.37
394	12.13
394.207	12.17
394.414	12.11
394.622	12.01
394.829	12.18
395.036	12.26
395.243	12.37
395.45	12.34
395.657	12.36
395.864	12.37
396.072	12.8
396.279	12.97
396.486	13.03
396.693	13.1
396.9	13.28
397.107	13.23
397.314	13.21
397.521	13
397.728	12.75
397.935	13.05
398.142	13.05
398.349	12.83
398.556	12.78
398.763	12.82
398.97	12.74
399.177	12.62
399.383	12.7
399.59	12.76
399.797	13.07
400.004	13.28
400.211	13.2
400.418	13.26
400.625	13.25
400.831	13.2
401.038	13.08
401.245	12.98
401.452	13.13
401.658	12.85
401.865	12.93
402.072	12.78
402.279	12.73
402.485	12.72
402.692	12.6
402.899	12.51
403.105	12.37
403.312	12.35
403.519	12.35
403.725	12.23
403.932	12.49
404.138	12.39
404.345	12.35
404.552	12.28
404.758	12.18
404.965	12.29
405.171	12.35
405.378	12.37
405.584	12.41
405.791	12.42
405.997	12.44
406.204	12.35
406.41	12.44
406.617	12.51
406.823	12.71
407.029	12.78
407.236	12.75
407.442	12.71
407.649	12.81
407.855	12.71
408.061	12.83
408.268	12.82
408.474	12.98
408.68	12.75
408.887	12.49
409.093	12.36
409.299	12.2
409.505	12.13
409.712	12.13
409.918	12.29
410.124	12.42
410.33	12.43
410.537	12.31
410.743	12.15
410.949	12.27
411.155	12.57
411.361	12.48
411.567	12.7
411.773	12.68
411.98	12.72
412.186	12.58
412.392	12.56
412.598	12.4
412.804	12.46
413.01	12.41
413.216	12.36
413.422	12.2
413.628	12.26
413.834	12.27
414.04	12.43
414.246	12.41
414.452	12.44
414.658	12.56
414.864	12.7
415.07	12.74
415.275	12.82
415.481	12.82
415.687	12.82
415.893	12.85
416.099	12.83
416.305	12.66
416.511	12.63
416.716	12.54
416.922	12.39
417.128	12.28
417.334	12.3
417.539	12.19
417.745	12.18
417.951	12.25
418.157	12.18
418.362	12.15
418.568	12.15
418.774	12.11
418.979	12.08
419.185	12.1
419.391	12.11
419.596	12.08
419.802	12.06
420.008	12
420.213	11.95
420.419	11.97
420.624	12.02
420.83	12.06
421.035	12.1
421.241	12.05
421.446	12
421.652	11.91
421.857	11.88
422.063	11.92
422.268	12
422.474	12
422.679	11.97
422.885	11.83
423.09	11.79
423.295	11.71
423.501	11.85
423.706	11.84
423.911	12.01
424.117	11.99
424.322	12.01
424.527	11.92
424.733	11.9
424.938	11.93
425.143	12
425.349	12.06
425.554	12.18
425.759	12.11
425.964	12.22
426.169	12.2
426.375	12.27
426.58	12.22
426.785	12.29
426.99	12.39
427.195	12.38
427.4	12.43
427.605	12.45
427.811	12.48
428.016	12.43
428.221	12.45
428.426	12.37
428.631	12.47
428.836	12.43
429.041	12.53
429.246	12.48
429.451	12.48
429.656	12.45
429.861	12.37
430.066	12.39
430.271	12.41
430.476	12.32
430.681	12.3
430.886	12.14
431.09	12.23
431.295	12.11
431.5	12.16
431.705	12.14
431.91	12.12
432.115	12.15
432.32	12.09
432.524	12.11
432.729	12.14
432.934	12.22
433.139	12.25
433.343	12.19
433.548	12.19
433.753	12.13
433.958	12.22
434.162	12.26
434.367	12.16
434.572	12.17
434.776	12.18
434.981	12.2
435.186	12.29
435.39	12.29
435.595	12.19
435.799	12.21
436.004	12.2
436.209	12.13
436.413	12.07
436.618	12.06
436.822	12.04
437.027	12.01
437.231	11.96
437.436	11.81
437.64	11.86
437.845	12.03
438.049	12.1
438.253	12.13
438.458	12.14
438.662	12.24
438.867	12.38
439.071	12.42
439.275	12.37
439.48	12.34
439.684	12.3
439.888	12.31
440.093	12.24
440.297	12.21
440.501	12.12
440.706	12.18
440.91	12.11
441.114	12
441.318	11.94
441.523	12.01
441.727	12.06
441.931	12.13
442.135	12.06
442.339	12.07
442.543	12.01
442.748	12.02
442.952	11.98
443.156	12.01
443.36	12.13
443.564	12.19
443.768	12.25
443.972	12.22
444.176	12.22
444.38	12.21
444.584	12.22
444.788	12.15
444.992	12.19
445.196	12.12
445.4	12.12
445.604	12.12
445.808	12.02
446.012	11.9
446.216	11.83
446.42	11.77
446.624	11.77
446.828	11.79
447.032	11.88
447.235	11.88
447.439	11.93
447.643	11.95
447.847	11.91
448.051	11.96
448.254	11.98
448.458	12.01
448.662	11.99
448.866	12
449.069	12.02
449.273	12.01
449.477	12.08
449.681	12.09
449.884	12.17
450.088	12.11
450.292	12.15
450.495	12.22
450.699	12.27
450.902	12.46
451.106	12.4
451.31	12.45
451.513	12.41
451.717	12.28
451.92	12.33
452.124	12.25
452.327	12.26
452.531	12.2
452.734	12.24
452.938	12.24
453.141	12.13
453.345	12.19
453.548	12.11
453.752	12.17
453.955	12.25
454.158	12.19
454.362	12.17
454.565	12.18
454.769	12.23
454.972	12.25
455.175	12.3
455.379	12.36
455.582	12.47
455.785	12.36
455.988	12.4
456.192	12.31
456.395	12.37
456.598	12.42
456.801	12.47
457.005	12.39
457.208	12.4
457.411	12.35
457.614	12.28
457.817	12.11
458.021	12.19
458.224	12.18
458.427	12.17
458.63	12.18
458.833	12.09
459.036	12.09
459.239	12.13
459.442	12.08
459.645	11.99
459.848	11.99
460.051	12.05
460.254	12.05
460.457	12.02
460.66	12.06
460.863	12
461.066	12.01
461.269	11.91
461.472	11.9
461.675	11.91
461.878	11.97
462.081	11.99
462.284	12.11
462.486	12.19
462.689	12.25
462.892	12.25
463.095	12.22
463.298	12.36
463.5	12.52
463.703	12.54
463.906	12.49
464.109	12.56
464.311	12.54
464.514	12.36
464.717	12.42
464.92	12.36
465.122	12.35
465.325	12.44
465.528	12.31
465.73	12.33
465.933	12.36
466.135	12.39
466.338	12.25
466.541	12.24
466.743	12.27
466.946	12.15
467.148	12.17
467.351	12.2
467.553	12.17
467.756	12.23
467.958	12.23
468.161	12.21
468.363	12.15
468.566	12.21
468.768	12.27
468.971	12.28
469.173	12.25
469.375	12.33
469.578	12.37
469.78	12.28
469.983	12.3
470.185	12.31
470.387	12.33
470.59	12.45
470.792	12.6
470.994	12.59
471.196	12.57
471.399	12.65
471.601	12.57
471.803	12.52
472.005	12.61
472.208	12.57
472.41	12.55
472.612	12.46
472.814	12.41
473.016	12.33
473.218	12.31
473.421	12.39
473.623	12.44
473.825	12.45
474.027	12.45
474.229	12.39
474.431	12.44
474.633	12.4
474.835	12.51
475.037	12.46
475.239	12.45
475.441	12.43
475.643	12.49
475.845	12.33
476.047	12.31
476.249	12.36
476.451	12.39
476.653	12.45
476.855	12.48
477.057	12.42
477.258	12.43
477.46	12.44
477.662	12.54
477.864	12.43
478.066	12.59
478.268	12.54
478.469	12.49
478.671	12.49
478.873	12.43
479.075	12.36
479.276	12.37
479.478	12.44
479.68	12.47
479.882	12.38
480.083	12.38
480.285	12.28
480.487	12.27
480.688	12.28
480.89	12.25
481.091	12.21
481.293	12.17
481.495	12.09
481.696	11.96
481.898	11.84
482.099	11.75
482.301	11.69
482.502	11.65
482.704	11.62
482.905	11.56
483.107	11.54
483.308	11.53
483.51	11.51
483.711	11.49
483.913	11.51
484.114	11.52
484.315	11.54
484.517	11.54
484.718	11.56
484.92	11.57
485.121	11.59
485.322	11.61
485.524	11.6
485.725	11.63
485.926	11.62
486.127	11.63
486.329	11.63
486.53	11.67
486.731	11.72
486.932	11.69
487.134	11.67
487.335	11.68
487.536	11.65
487.737	11.64
487.938	11.63
488.139	11.69
488.341	11.67
488.542	11.67
488.743	11.68
488.944	11.67
489.145	11.67
489.346	11.73
489.547	11.73
489.748	11.73
489.949	11.78
490.15	11.8
490.351	11.81
490.552	11.84
490.753	11.84
490.954	11.83
491.155	11.81
491.356	11.85
491.557	11.84
491.758	11.9
491.959	11.94
492.159	11.95
492.36	11.95
492.561	11.97
492.762	12.04
492.963	12.1
493.164	12.09
493.364	12.13
493.565	12.18
493.766	12.23
493.967	12.17
494.167	12.19
494.368	12.2
494.569	12.29
494.769	12.29
494.97	12.25
495.171	12.23
495.371	12.33
495.572	12.38
495.773	12.34
495.973	12.29
496.174	12.36
496.375	12.35
496.575	12.4
496.776	12.36
496.976	12.39
497.177	12.35
497.377	12.38
497.578	12.31
497.778	12.27
497.979	12.25
498.179	12.3
498.38	12.3
498.58	12.27
498.78	12.22
498.981	12.22
499.181	12.21
499.382	12.22
499.582	12.27
499.782	12.35
499.983	12.4
500.183	12.44
500.383	12.46
500.584	12.51
500.784	12.59
500.984	12.6
501.184	12.67
501.385	12.74
501.585	12.8
501.785	12.77
501.985	12.73
502.185	12.63
502.386	12.61
502.586	12.6
502.786	12.59
502.986	12.53
503.186	12.57
503.386	12.55
503.586	12.5
503.786	12.54
503.987	12.59
504.187	12.71
504.387	12.83
504.587	12.94
504.787	13
504.987	13.04
505.187	13.1
505.387	13.07
505.587	13.13
505.786	13.14
505.986	13.12
506.186	13.15
506.386	13.06
506.586	13.03
506.786	13.01
506.986	12.92
507.186	12.97
507.386	12.98
507.585	12.99
507.785	13.02
507.985	13.1
508.185	13.08
508.384	13.09
508.584	13.18
508.784	13.19
508.984	13.21
509.183	13.27
509.383	13.25
509.583	13.25
509.782	13.22
509.982	13.2
510.182	13.16
510.381	13.25
510.581	13.26
510.781	13.25
510.98	13.26
511.18	13.31
511.379	13.4
511.579	13.39
511.778	13.41
511.978	13.49
512.177	13.51
512.377	13.6
512.576	13.62
512.776	13.66
512.975	13.65
513.175	13.76
513.374	13.75
513.573	13.76
513.773	13.88
513.972	13.97
514.172	14.06
514.371	14.12
514.57	14.1
514.77	14.07
514.969	14.09
515.168	14.13
515.367	14.03
515.567	14.06
515.766	14.15
515.965	14.2
516.164	14.19
516.364	14.14
516.563	14.2
516.762	14.26
516.961	14.38
517.16	14.47
517.359	14.54
517.559	14.69
517.758	14.74
517.957	14.76
518.156	14.77
518.355	14.84
518.554	14.94
518.753	15
518.952	15.03
519.151	15.04
519.35	15.01
519.549	15.05
519.748	15.09
519.947	15.18
520.146	15.18
520.345	15.18
520.544	15.19
520.743	15.24
520.942	15.2
521.141	15.3
521.339	15.4
521.538	15.47
521.737	15.5
521.936	15.52
522.135	15.5
522.333	15.63
522.532	15.69
522.731	15.73
522.93	15.7
523.129	15.8
523.327	15.81
523.526	15.81
523.725	15.93
523.923	15.97
524.122	16.03
524.321	16.1
524.519	16.04
524.718	16.09
524.917	16.17
525.115	16.26
525.314	16.33
525.512	16.39
525.711	16.46
525.909	16.42
526.108	16.43
526.306	16.5
526.505	16.53
526.703	16.6
526.902	16.66
527.1	16.68
527.299	16.69
527.497	16.71
527.696	16.7
527.894	16.68
528.092	16.71
528.291	16.75
528.489	16.78
528.688	16.79
528.886	16.81
529.084	16.82
529.283	16.88
529.481	16.92
529.679	16.97
529.877	17.05
530.076	17.12
530.274	17.21
530.472	17.27
530.67	17.28
530.869	17.35
531.067	17.47
531.265	17.58
531.463	17.64
531.661	17.69
531.859	17.69
532.057	17.74
532.255	17.77
532.454	17.79
532.652	17.85
532.85	17.95
533.048	17.98
533.246	18.02
533.444	18.06
533.642	18.08
533.84	18.17
534.038	18.27
534.236	18.34
534.434	18.4
534.632	18.46
534.83	18.56
535.027	18.57
535.225	18.61
535.423	18.6
535.621	18.68
535.819	18.64
536.017	18.64
536.215	18.67
536.412	18.7
536.61	18.74
536.808	18.81
537.006	18.83
537.203	18.9
537.401	19.02
537.599	19.11
537.797	19.05
537.994	19.16
538.192	19.27
538.39	19.35
538.587	19.44
538.785	19.51
538.983	19.58
539.18	19.61
539.378	19.6
539.575	19.64
539.773	19.62
539.97	19.73
540.168	19.75
540.366	19.76
540.563	19.76
540.761	19.72
540.958	19.75
541.155	19.75
541.353	19.74
541.55	19.8
541.748	19.76
541.945	19.8
542.143	19.79
542.34	19.82
542.537	19.84
542.735	19.84
542.932	19.91
543.129	19.92
543.327	19.99
543.524	20.06
543.721	20.08
543.919	20.28
544.116	20.34
544.313	20.46
544.51	20.58
544.708	20.58
544.905	20.64
545.102	20.66
545.299	20.75
545.496	20.75
545.693	20.79
545.891	20.87
546.088	20.78
546.285	20.84
546.482	20.81
546.679	20.77
546.876	20.81
547.073	20.9
547.27	20.99
547.467	21.05
547.664	21.09
547.861	21.1
548.058	21.13
548.255	21.21
548.452	21.24
548.649	21.31
548.846	21.29
549.043	21.41
549.24	21.45
549.437	21.43
549.633	21.37
549.83	21.34
550.027	21.36
550.224	21.25
550.421	21.24
550.618	21.26
550.814	21.27
551.011	21.31
551.208	21.22
551.405	21.21
551.601	21.13
551.798	21.12
551.995	21.24
552.191	21.26
552.388	21.28
552.585	21.28
552.781	21.3
552.978	21.33
553.175	21.39
553.371	21.46
553.568	21.43
553.764	21.55
553.961	21.67
554.157	21.64
554.354	21.7
554.55	21.82
554.747	21.78
554.943	21.86
555.14	21.89
555.336	22.04
555.533	22.04
555.729	22.07
555.926	22.06
556.122	21.88
556.318	21.84
556.515	21.79
556.711	21.72
556.907	21.78
557.104	21.87
557.3	21.88
557.496	21.79
557.693	21.76
557.889	21.74
558.085	21.78
558.281	21.96
558.478	22.05
558.674	22.1
558.87	22.08
559.066	22.14
559.262	22.08
559.459	22.03
559.655	22.03
559.851	22.02
560.047	22.02
560.243	22.05
560.439	21.89
560.635	21.85
560.831	21.83
561.027	22.02
561.223	22.01
561.419	21.86
561.615	21.96
561.811	21.92
562.007	22.07
562.203	22.12
562.399	22.07
562.595	22.15
562.791	22.22
562.987	22.29
563.183	22.23
563.379	22.22
563.575	22.32
563.771	22.18
563.966	22.19
564.162	22.16
564.358	22.16
564.554	22.12
564.75	22.05
564.945	22.1
565.141	22.05
565.337	22.01
565.533	22.02
565.728	22.02
565.924	22.12
566.12	22.2
566.315	22.14
566.511	22.13
566.707	22.22
566.902	22.26
567.098	22.15
567.293	22.04
567.489	21.96
567.684	22.02
567.88	22.13
568.076	22.08
568.271	21.93
568.467	21.95
568.662	22
568.858	21.92
569.053	22.04
569.248	22.05
569.444	22.28
569.639	22.36
569.835	22.29
570.03	22.1
570.225	22.09
570.421	22.18
570.616	22.18
570.812	22.2
571.007	22.33
571.202	22.37
571.397	22.51
571.593	22.39
571.788	22.44
571.983	22.45
572.178	22.45
572.374	22.62
572.569	22.56
572.764	22.61
572.959	22.64
573.154	22.54
573.35	22.5
573.545	22.35
573.74	22.45
573.935	22.42
574.13	22.43
574.325	22.53
574.52	22.47
574.715	22.52
574.91	22.57
575.105	22.6
575.3	22.57
575.495	22.56
575.69	22.68
575.885	22.6
576.08	22.69
576.275	22.77
576.47	22.74
576.665	22.77
576.86	22.9
577.055	22.79
577.25	22.73
577.444	22.83
577.639	22.96
577.834	22.82
578.029	22.95
578.224	22.86
578.418	22.88
578.613	22.89
578.808	22.81
579.003	22.67
579.197	22.79
579.392	23.06
579.587	23.09
579.781	22.98
579.976	23.07
580.171	23.03
580.365	23.15
580.56	23.1
580.755	23.27
580.949	23.31
581.144	23.4
581.338	23.43
581.533	23.26
581.727	23.14
581.922	23.27
582.116	23.42
582.311	23.39
582.505	23.31
582.7	23.54
582.894	23.44
583.089	23.41
583.283	23.49
583.478	23.46
583.672	23.5
583.866	23.57
584.061	23.51
584.255	23.56
584.449	23.58
584.644	23.67
584.838	23.55
585.032	23.6
585.226	23.71
585.421	23.75
585.615	23.6
585.809	23.58
586.003	23.69
586.198	23.76
586.392	23.83
586.586	23.86
586.78	23.73
586.974	23.76
587.168	23.73
587.363	23.66
587.557	23.57
587.751	23.8
587.945	23.88
588.139	24.04
588.333	24.06
588.527	23.88
588.721	23.81
588.915	23.94
589.109	23.84
589.303	23.86
589.497	23.87
589.691	23.95
589.885	23.91
590.079	23.76
590.273	23.55
590.466	23.55
590.66	23.66
590.854	23.77
591.048	23.84
591.242	23.86
591.436	23.9
591.629	24.05
591.823	24.14
592.017	24.04
592.211	24.13
592.404	24.15
592.598	23.97
592.792	23.95
592.986	23.91
593.179	23.82
593.373	23.84
593.567	23.88
593.76	23.81
593.954	23.63
594.147	23.82
594.341	23.85
594.535	23.85
594.728	23.92
594.922	23.86
595.115	23.77
595.309	23.69
595.502	23.69
595.696	23.61
595.889	23.49
596.083	23.53
596.276	23.5
596.47	23.48
596.663	23.56
596.856	23.58
597.05	23.59
597.243	23.59
597.437	23.71
597.63	23.77
597.823	23.88
598.017	24.03
598.21	24.17
598.403	24.21
598.596	24.24
598.79	24.25
598.983	24.22
599.176	24.35
599.369	24.58
599.563	24.53
599.756	24.49
599.949	24.42
600.142	24.48
600.335	24.38
600.528	24.36
600.722	24.36
600.915	24.32
601.108	24.34
601.301	24.3
601.494	24.28
601.687	24.35
601.88	24.32
602.073	24.27
602.266	24.04
602.459	24.1
602.652	24.08
602.845	24.01
603.038	23.9
603.231	24.06
603.424	23.99
603.617	23.9
603.809	23.87
604.002	23.9
604.195	23.94
604.388	24.02
604.581	24.08
604.774	24.09
604.966	24.11
605.159	24.13
605.352	24.05
605.545	24.17
605.737	24.22
605.93	24.23
606.123	24.22
606.316	24.22
606.508	24.31
606.701	24.23
606.894	24.23
607.086	24.36
607.279	24.54
607.471	24.51
607.664	24.59
607.857	24.63
608.049	24.74
608.242	24.95
608.434	25.16
608.627	25.43
608.819	25.62
609.012	25.92
609.204	26.23
609.397	26.61
609.589	27.11
609.782	27.52
609.974	28.16
610.166	28.64
610.359	29.14
610.551	29.58
610.743	29.86
610.936	30.19
611.128	30.52
611.32	30.69
611.513	30.78
611.705	30.76
611.897	30.65
612.09	30.5
612.282	30.43
612.474	30.17
612.666	29.9
612.858	29.66
613.051	29.55
613.243	29.33
613.435	29.12
613.627	28.92
613.819	28.78
614.011	28.69
614.203	28.38
614.395	28.2
614.588	28.05
614.78	27.93
614.972	27.9
615.164	27.68
615.356	27.47
615.548	27.25
615.74	27.34
615.932	27.19
616.124	27.04
616.315	27.04
616.507	26.82
616.699	26.73
616.891	26.65
617.083	26.4
617.275	26.41
617.467	26.35
617.659	26.29
617.85	25.97
618.042	25.77
618.234	25.71
618.426	25.63
618.618	25.7
618.809	25.54
619.001	25.48
619.193	25.65
619.384	25.72
619.576	25.75
619.768	25.66
619.959	25.7
620.151	25.94
620.343	25.97
620.534	25.98
620.726	25.94
620.917	26.07
621.109	26.02
621.301	25.97
621.492	25.83
621.684	25.68
621.875	25.75
622.067	25.8
622.258	25.62
622.45	25.61
622.641	25.63
622.832	25.61
623.024	25.64
623.215	25.89
623.407	25.77
623.598	25.73
623.789	25.79
623.981	25.92
624.172	26.09
624.363	26.16
624.555	26.25
624.746	26.18
624.937	26.34
625.129	26.32
625.32	26.12
625.511	26.12
625.702	26.19
625.893	26.19
626.085	26.25
626.276	26.12
626.467	26.09
626.658	26.01
626.849	26.04
627.04	25.97
627.231	25.96
627.422	26
627.614	26.02
627.805	26.01
627.996	26.05
628.187	26.1
628.378	26.17
628.569	26.26
628.76	26.35
628.951	26.5
629.142	26.58
629.332	26.69
629.523	26.65
629.714	26.81
629.905	26.96
630.096	27.1
630.287	27.07
630.478	27.15
630.669	27.2
630.859	27.29
631.05	27.06
631.241	26.88
631.432	26.68
631.623	26.79
631.813	26.68
632.004	26.38
632.195	26.18
632.385	26.09
632.576	25.87
632.767	25.74
632.957	25.4
633.148	25.49
633.339	25.5
633.529	25.7
633.72	25.62
633.91	25.65
634.101	25.8
634.292	25.87
634.482	25.78
634.673	25.78
634.863	25.69
635.054	25.9
635.244	25.96
635.435	25.94
635.625	25.71
635.815	25.76
636.006	25.87
636.196	25.71
636.387	25.8
636.577	25.95
636.767	26.04
636.958	25.99
637.148	25.9
637.338	25.85
637.529	25.98
637.719	25.92
637.909	25.99
638.099	25.72
638.29	25.8
638.48	25.55
638.67	25.38
638.86	25.27
639.05	25.43
639.241	25.36
639.431	25.38
639.621	25.19
639.811	25.43
640.001	25.3
640.191	25.45
640.381	25.56
640.571	25.69
640.761	25.97
640.951	26.07
641.141	25.92
641.331	26.13
641.521	26.06
641.711	26.17
641.901	25.96
642.091	25.86
642.281	25.91
642.471	25.94
642.661	26.01
642.851	25.88
643.041	26.06
643.231	26.49
643.42	26.38
643.61	26.53
643.8	26.55
643.99	26.59
644.18	26.81
644.369	26.74
644.559	26.67
644.749	26.53
644.939	26.46
645.128	26.29
645.318	26.14
645.508	26.18
645.697	26.04
645.887	26.07
646.076	26.23
646.266	26.22
646.456	26.5
646.645	26.72
646.835	26.8
647.024	26.76
647.214	26.71
647.403	26.61
647.593	26.76
647.782	26.74
647.972	26.94
648.161	27.09
648.351	27.28
648.54	26.98
648.73	26.79
648.919	26.95
649.108	27.05
649.298	27.11
649.487	27.25
649.677	27.24
649.866	27.4
650.055	27.24
650.244	26.9
650.434	26.67
650.623	26.58
650.812	26.62
651.002	26.56
651.191	26.44
651.38	26.59
651.569	26.81
651.758	26.7
651.947	26.8
652.137	26.85
652.326	26.92
652.515	27.07
652.704	27.32
652.893	27.33
653.082	27.37
653.271	27.59
653.46	27.32
653.649	26.96
653.838	26.88
654.027	26.83
654.216	26.61
654.405	26.73
654.594	26.57
654.783	26.47
654.972	26.6
655.161	26.54
655.35	26.5
655.539	26.71
655.728	26.79
655.916	26.93
656.105	26.85
656.294	27.27
656.483	27.3
656.672	27.24
656.86	27.35
657.049	27.25
657.238	27.12
657.427	26.92
657.615	26.72
657.804	26.84
657.993	26.71
658.181	26.52
658.37	26.34
658.559	26.4
658.747	26.34
658.936	26.24
659.125	26.02
659.313	26.09
659.502	26.2
659.69	26.21
659.879	26.03
660.067	26.18
660.256	26.22
660.444	26.31
660.633	26.24
660.821	26.34
661.01	26.52
661.198	26.71
661.387	26.63
661.575	26.59
661.763	26.75
661.952	26.99
662.14	27.11
662.328	27.29
662.517	27.17
662.705	27.43
662.893	27.44
663.082	27.39
663.27	27.3
663.458	27.57
663.646	27.76
663.834	27.81
664.023	27.63
664.211	27.62
664.399	27.59
664.587	27.62
664.775	27.52
664.963	27.87
665.152	27.94
665.34	28.08
665.528	28.12
665.716	28.14
665.904	28.15
666.092	28.54
666.28	28.68
666.468	28.79
666.656	28.9
666.844	28.79
667.032	28.43
667.22	28.39
667.408	28.46
667.596	28.34
667.784	28.19
667.971	27.99
668.159	27.59
668.347	27.49
668.535	27.56
668.723	27.42
668.911	27.38
669.098	27.64
669.286	27.66
669.474	27.5
669.662	27.54
669.849	27.62
670.037	27.83
670.225	28.04
670.413	28.12
670.6	28.02
670.788	27.91
670.976	28
671.163	27.95
671.351	28.08
671.538	28.2
671.726	28.12
671.913	28.29
672.101	28.38
672.289	28.16
672.476	28.35
672.664	28.48
672.851	28.95
673.039	28.96
673.226	28.97
673.413	28.86
673.601	29.19
673.788	29.43
673.976	29.44
674.163	29.33
674.35	29.65
674.538	29.11
674.725	28.97
674.912	28.86
675.1	28.85
675.287	28.8
675.474	28.69
675.662	28.68
675.849	28.39
676.036	28.48
676.223	28.74
676.411	28.58
676.598	28.61
676.785	28.67
676.972	28.82
677.159	28.71
677.346	28.61
677.533	28.86
677.721	28.48
677.908	28.46
678.095	28.23
678.282	28.12
678.469	28.17
678.656	28.29
678.843	28.14
679.03	27.86
679.217	27.97
679.404	28.15
679.591	28.05
679.778	27.97
679.964	28.19
680.151	28.22
680.338	28.27
680.525	28.35
680.712	28.42
680.899	28.61
681.086	28.6
681.272	28.57
681.459	28.78
681.646	28.98
681.833	29.3
682.02	29.3
682.206	29.5
682.393	29.52
682.58	29.45
682.766	29.56
682.953	29.58
683.14	29.59
683.326	29.9
683.513	29.69
683.7	29.49
683.886	29.65
684.073	29.84
684.259	29.74
684.446	29.96
684.632	30.12
684.819	29.9
685.005	29.99
685.192	30.15
685.378	30.03
685.565	30.19
685.751	30.35
685.938	30.36
686.124	30.18
686.31	30.36
686.497	30.26
686.683	30.25
686.87	30.54
687.056	30.62
687.242	30.52
687.429	30.35
687.615	30.27
687.801	29.85
687.987	29.72
688.174	29.76
688.36	29.62
688.546	29.47
688.732	29.44
688.918	29.59
689.105	29.45
689.291	29.5
689.477	29.53
689.663	29.43
689.849	29.45
690.035	29.2
690.221	29.14
690.407	29.31
690.593	29.48
690.779	29.51
690.965	29.23
691.151	29.29
691.337	29.56
691.523	29.79
691.709	29.87
691.895	30.23
692.081	30.46
692.267	30.56
692.453	30.42
692.639	30.45
692.825	30.37
693.011	30.14
693.196	30.25
693.382	30.25
693.568	30.1
693.754	30.04
693.94	29.63
694.125	29.62
694.311	30.03
694.497	30.17
694.682	30.08
694.868	30.15
695.054	30.64
695.239	30.44
695.425	30.22
695.611	30.14
695.796	30.14
695.982	30.21
696.168	30.31
696.353	30.02
696.539	29.65
696.724	29.53
696.91	29.41
697.095	28.97
697.281	29.1
697.466	29.08
697.652	29.18
697.837	29.29
698.023	29.45
698.208	29.59
698.393	29.43
698.579	29.4
698.764	29.38
698.949	29.49
699.135	29.52
699.32	29.28
699.505	29.43
699.691	29.39
699.876	29.11
700.061	29.18
700.246	28.84
700.432	28.73
700.617	28.7
700.802	28.82
700.987	28.73
701.172	28.83
701.358	29.12
701.543	28.77
701.728	28.81
701.913	28.99
702.098	28.86
702.283	28.93
702.468	29
702.653	29.01
702.838	29.06
703.023	28.96
703.208	28.94
703.393	28.96
703.578	29.48
703.763	29.74
703.948	29.92
704.133	30.65
704.318	30.64
704.503	31.37
704.688	31.76
704.873	32.02
705.057	32.53
705.242	33.11
705.427	33.25
705.612	33.37
705.797	33.6
705.981	33.82
706.166	33.69
706.351	34.1
706.536	34.02
706.72	34.03
706.905	34.22
707.09	34.34
707.274	34.42
707.459	34.78
707.644	34.63
707.828	34.53
708.013	34.73
708.197	34.45
708.382	34.65
708.567	34.53
708.751	34.45
708.936	34.25
709.12	34.08
709.305	33.74
709.489	33.55
709.673	33.79
709.858	33.6
710.042	33.54
710.227	33.84
710.411	33.73
710.596	33.66
710.78	33.51
710.964	33.36
711.149	33.36
711.333	33.7
711.517	33.28
711.702	33.1
711.886	33.07
712.07	32.8
712.254	32.28
712.438	32.07
712.623	31.83
712.807	32.08
712.991	31.85
713.175	31.93
713.359	31.45
713.544	31.57
713.728	31.26
713.912	31.22
714.096	31.18
714.28	31.5
714.464	31.53
714.648	31.76
714.832	31.76
715.016	31.98
715.2	31.88
715.384	31.59
715.568	31.74
715.752	31.54
715.936	31.42
716.12	31.56
716.304	31.41
716.488	31.29
716.671	31.11
716.855	31.19
717.039	31
717.223	30.63
717.407	30.87
717.59	30.95
717.774	31.22
717.958	31.62
718.142	31.67
718.325	31.58
718.509	31.67
718.693	31.79
718.877	31.32
719.06	31.97
719.244	31.99
719.428	31.95
719.611	31.66
719.795	31.73
719.978	31.79
720.162	31.87
720.345	32.04
720.529	32.01
720.713	32.13
720.896	32.54
721.08	32.17
721.263	32.56
721.446	32.82
721.63	33.47
721.813	33.77
721.997	33.33
722.18	33.12
722.364	33.07
722.547	33.48
722.73	33.52
722.914	33.26
723.097	33.31
723.28	33.25
723.464	33.36
723.647	33.01
723.83	32.54
724.013	32.97
724.197	33.15
724.38	33.18
724.563	32.81
724.746	32.69
724.929	32.93
725.112	32.83
725.296	32.88
725.479	32.75
725.662	32.45
725.845	32.75
726.028	32.13
726.211	31.73
726.394	31.82
726.577	31.71
726.76	32.13
726.943	31.93
727.126	31.91
727.309	31.93
727.492	31.96
727.675	31.8
727.858	31.93
728.041	32.32
728.224	32.55
728.407	32.39
728.589	32.76
728.772	32.49
728.955	32.59
729.138	32.89
729.321	32.71
729.503	32.39
729.686	33.12
729.869	32.9
730.052	32.66
730.234	32.78
730.417	32.83
730.6	32.64
730.782	32.27
730.965	32.47
731.148	32.34
731.33	32.3
731.513	32.73
731.695	32.51
731.878	32.43
732.061	32.53
732.243	32.89
732.426	32.86
732.608	32.92
732.791	32.86
732.973	32.69
733.156	32.79
733.338	33.02
733.52	32.91
733.703	32.55
733.885	32.69
734.068	32.67
734.25	32.03
734.432	32.6
734.615	32.6
734.797	32.49
734.979	32.26
735.162	32.16
735.344	31.94
735.526	32.02
735.708	32.6
735.891	32.11
736.073	32.02
736.255	32.4
736.437	31.48
736.619	31.77
736.802	32.22
736.984	32.96
737.166	32.94
737.348	33.26
737.53	33.14
737.712	32.69
737.894	33.24
738.076	33.65
738.258	33.83
738.44	33.68
738.622	33.49
738.804	33.85
738.986	33.74
739.168	33.43
739.35	32.78
739.532	32.86
739.714	32.7
739.896	32.89
740.078	32.29
740.259	31.99
740.441	32.71
740.623	32.69
740.805	32.14
740.987	31.93
741.168	32.09
741.35	32.6
741.532	32.63
741.714	32.94
741.895	33.19
742.077	33.87
742.259	33.62
742.44	33.5
742.622	33.58
742.804	33.81
742.985	33.53
743.167	33.64
743.348	33.71
743.53	33.35
743.711	33.16
743.893	32.47
744.075	31.9
744.256	32.52
744.438	33.08
744.619	33.15
744.8	33.3
744.982	33.59
745.163	33.91
745.345	33.59
745.526	34.16
745.707	33.71
745.889	34.34
746.07	35.08
746.252	35.44
746.433	34.55
746.614	34.44
746.795	33.6
746.977	33.61
747.158	33.38
747.339	33.88
747.52	33.82
747.702	34.65
747.883	34.13
748.064	34.11
748.245	32.88
748.426	32.93
748.607	33.23
748.788	33.66
748.97	33.62
749.151	33.57
749.332	33.25
749.513	33.13
749.694	33.01
749.875	33.85
750.056	33.72
750.237	34.29
750.418	35.15
750.599	34.76
750.78	35.26
750.96	35.73
751.141	36.18
751.322	36.47
751.503	36.79
751.684	36.6
751.865	35.69
752.046	35.38
752.226	35.47
752.407	35.44
752.588	36.18
752.769	36.3
752.949	35.8
753.13	35.48
753.311	34.89
753.492	34.47
753.672	34.27
753.853	34.81
754.034	34.67
754.214	34.95
754.395	34.45
754.575	34.03
754.756	34.52
754.937	34.78
755.117	34.29
755.298	35.1
755.478	35.23
755.659	36.43
755.839	35.92
756.02	36.19
756.2	36.05
756.381	36.06
756.561	35.25
756.741	34.87
756.922	34.56
757.102	34.29
757.283	34.07
757.463	33.86
757.643	33.5
757.823	33.72
758.004	33.28
758.184	33.73
758.364	34.02
758.545	35.04
758.725	34.61
758.905	35.16
759.085	35.65
759.265	35.42
759.446	35.93
759.626	35.39
759.806	35.88
759.986	36.59
760.166	36.04
760.346	35.91
760.526	36
760.706	36.3
760.886	35.7
761.066	35.42
761.246	35.33
761.426	34.8
761.606	34.88
761.786	34.76
761.966	34.28
762.146	34.3
762.326	34.21
762.506	33.79
762.686	33.56
762.866	34.18
763.046	34.28
763.225	34.8
763.405	34.51
763.585	34.45
763.765	34.21
763.945	34.16
764.124	34
764.304	33.71
764.484	33.79
764.664	34.19
764.843	33.58
765.023	34.16
765.203	34.04
765.382	34.96
765.562	35.4
765.741	35.16
765.921	35.74
766.101	35.93
766.28	36.65
766.46	36.27
766.639	36.31
766.819	36.24
766.998	35.78
767.178	36.01
767.357	35.83
767.537	35.46
767.716	35.84
767.896	35.56
768.075	35.72
768.254	35.25
768.434	35.45
768.613	34.71
768.792	35.32
768.972	34.97
769.151	34.2
769.33	33.51
769.51	33.94
769.689	33.4
769.868	33.25
770.047	32.54
770.226	32.91
770.406	33.1
770.585	33.25
770.764	33.13
770.943	33.89
771.122	34.29
771.301	35.79
771.48	35.33
771.66	36.82
771.839	37.29
772.018	37.32
772.197	37.37
772.376	37.95
772.555	38.48
772.734	38.25
772.913	37.75
773.092	37.37
773.271	36.06
773.449	35.98
773.628	34.96
773.807	34.32
773.986	34.42
774.165	34.2
774.344	33.25
774.523	32.61
774.701	32.91
774.88	33.45
775.059	34.45
775.238	34.35
775.417	34.05
775.595	34.45
775.774	35.21
775.953	34.76
776.131	35.18
776.31	36.02
776.489	36.53
776.667	36.57
776.846	36.59
777.025	35.46
777.203	36.31
777.382	37.01
777.56	36.77
777.739	36.65
777.917	37.63
778.096	37.17
778.274	36.92
778.453	37.07
778.631	37.35
778.81	36.78
778.988	37.16
779.166	37.21
779.345	36.83
779.523	37.04
779.702	37
779.88	36.77
780.058	36.8
780.237	37.22
780.415	36.86
780.593	36.43
780.771	37.45
780.95	38.65
781.128	38.53
781.306	39.35
781.484	38.25
781.662	38.55
781.841	38.88
782.019	39.33
782.197	39.45
782.375	38.66
782.553	38.9
782.731	38.32
782.909	37.24
783.087	37.85
783.265	37.81
783.443	38.73
783.621	38.02
783.799	38.69
783.977	37.86
784.155	36.85
784.333	38.08
784.511	38.51
784.689	37.43
784.867	38.41
785.045	37.99
785.223	37.85
785.4	38.32
785.578	38.75
785.756	37.92
785.934	38.92
786.112	39.28
786.289	39.16
786.467	38.56
786.645	40.11
786.823	39.74
787	39.31
787.178	39.9
787.356	39.14
787.533	38.78
787.711	39.06
787.889	38.68
788.066	38.45
788.244	38.3
788.421	38.27
788.599	38.25
788.776	37.99
788.954	37.02
789.131	36.24
789.309	36.28
789.486	36.86
789.664	37.08
789.841	37.4
790.019	37.43
790.196	37.62
790.373	37.05
790.551	36.15
790.728	36.25
790.906	37.87
791.083	37.93
791.26	37.22
791.437	37.68
791.615	37.61
791.792	37.97
791.969	37.95
792.146	37.47
792.324	38.65
792.501	39.16
792.678	38.89
792.855	38.66
793.032	38.31
793.209	40.31
793.387	38.78
793.564	39.33
793.741	38.39
793.918	39.05
794.095	38.63
794.272	38.9
794.449	39.77
794.626	39.13
794.803	38.82
794.98	38.9
795.157	38.22
795.334	38.04
795.511	36.12
795.688	36.13
795.864	35.82
796.041	36.54
796.218	35.52
796.395	33.2
796.572	33.3
796.749	32.89
796.925	33.03
797.102	33.45
797.279	34.99
797.456	35.81
797.632	35.84
797.809	35.88
797.986	35.91
798.162	36.42
798.339	37.59
798.516	39.15
798.692	40.03
798.869	39.54
799.046	39.07
799.222	37.76
799.399	37.89
799.575	38.41
799.752	37.74
799.928	37.22
800.105	37.87
800.281	37.24
800.458	35.7
800.634	34.84
800.811	35.87
800.987	36.47
801.163	37.47
801.34	37.61
801.516	36.79
801.692	37.83
801.869	37.78
802.045	37.55
802.221	38.58
802.398	39.07
802.574	39.79
802.75	39.65
802.926	39.48
803.103	39.51
803.279	39.66
803.455	39.28
803.631	39.41
803.807	39.7
803.983	39.37
804.16	39.72
804.336	39.26
804.512	39
804.688	38.95
804.864	38.04
805.04	37.24
805.216	36.97
805.392	37.86
805.568	37.98
805.744	38.39
805.92	37.69
806.096	37.87
806.272	37.05
806.448	36.35
806.623	35.49
806.799	36.07
806.975	36.16
807.151	37.24
807.327	36.59
807.503	36.6
807.678	35.99
807.854	36.59
808.03	36.66
808.206	37.95
808.381	38.22
808.557	39.08
808.733	40.36
808.908	41.44
809.084	39.56
809.26	40.65
809.435	39.34
809.611	39.34
809.787	39.98
809.962	40.43
810.138	40.43
810.313	40.98
810.489	41.56
810.664	40.82
810.84	38.56
811.015	39.79
811.191	40.18
811.366	41.91
811.542	43.21
811.717	42.6
811.892	42.12
812.068	42.52
812.243	41.87
812.419	41.75
812.594	41.06
812.769	43.03
812.944	42.7
813.12	41.49
813.295	40.18
813.47	39.75
813.645	39.69
813.821	38.69
813.996	38.73
814.171	38.83
814.346	37.65
814.521	37.57
814.697	37.54
814.872	37.1
815.047	37.24
815.222	38.89
815.397	38.43
815.572	39.31
815.747	38.78
815.922	37.82
816.097	38.07
816.272	38.55
816.447	39.04
816.622	39.59
816.797	39.17
816.972	38.59
817.147	37.57
817.322	36.4
817.496	35.98
817.671	35.81
817.846	35.35
818.021	35.93
818.196	34.72
818.371	34.34
818.545	33.8
818.72	34.5
818.895	34.99
819.069	34.98
819.244	35.64
819.419	35.32
819.594	36.75
819.768	37.62
819.943	36.67
820.117	36.85
820.292	35.66
820.467	34.35
820.641	33.96
820.816	32.93
820.99	32.22
821.165	31.57
821.339	31.15
821.514	30.34
821.688	29.72
821.863	29.65
822.037	29.45
822.212	29.67
822.386	29.77
822.56	29.69
822.735	29.87
822.909	29.92
823.084	30.2
823.258	30.17
823.432	30.27
823.606	30.33
823.781	30.41
823.955	30.39
824.129	30.34
824.303	30.49
824.478	30.54
824.652	30.59
824.826	30.49
825	30.54
825.174	30.64
825.348	30.65
825.523	30.76
825.697	31.07
825.871	31.42
826.045	31.74
826.219	31.91
826.393	31.96
826.567	32.28
826.741	32.36
826.915	32.14
827.089	32.19
827.263	32.36
827.437	32.79
827.611	32.51
827.784	32.65
827.958	32.7
828.132	32.38
828.306	32.51
828.48	32.41
828.654	32.36
828.827	32.7
829.001	32.55
829.175	33.01
829.349	32.69
829.522	32.72
829.696	33.35
829.87	33.29
830.044	34.25
830.217	34.49
830.391	34.46
830.565	35.4
830.738	35.37
830.912	35.99
831.085	35.98
831.259	37.39
831.432	37.35
831.606	37.6
831.779	36.28
831.953	35.81
832.126	35.24
832.3	35.49
832.473	34.24
832.647	33.93
832.82	33.82
832.994	33.74
833.167	32.46
833.34	32.76
833.514	31.5
833.687	31.78
833.86	31.98
834.034	31.79
834.207	31.45
834.38	32.1
834.553	31.81
834.727	31.85
834.9	31.46
835.073	32.7
835.246	33.17
835.419	33.9
835.593	35.24
835.766	35.14
835.939	35.67
836.112	35.52
836.285	35.69
836.458	37.07
836.631	37.27
836.804	38.27
836.977	37.2
837.15	37.01
837.323	37.83
837.496	37.55
837.669	37.92
837.842	39.94
838.015	41.35
838.188	42.09
838.361	41.63
838.533	42.01
838.706	40.01
838.879	40.01
839.052	38.5
839.225	38.21
839.398	38.28
839.57	38.46
839.743	38.1
839.916	38.67
840.088	37.75
840.261	38.18
840.434	38.67
840.607	40.14
840.779	39.25
840.952	39.76
841.124	39.99
841.297	39.59
841.47	39.61
841.642	38.74
841.815	40.19
841.987	41.2
842.16	40.53
842.332	39.95
842.505	40.04
842.677	41.09
842.85	40.55
843.022	41.6
843.194	42.28
843.367	43.22
843.539	42.5
843.712	40.72
843.884	41.29
844.056	43.72
844.229	45.41
844.401	44.96
844.573	46.6
844.745	49.68
844.918	48.56
845.09	49.16
845.262	47.9
845.434	48.84
845.606	48.99
845.779	48.01
845.951	48.97
846.123	47.64
846.295	50.25
846.467	49.95
846.639	50.33
846.811	51.22
846.983	50.61
847.155	49.02
847.327	49.89
847.499	50.82
847.671	52.76
847.843	52.33
848.015	54.8
848.187	53.48
848.359	54.84
848.531	54.86
848.703	54.09
848.875	56.96
849.047	55.4
849.218	55.3
849.39	54.44
849.562	54.05
849.734	53.11
849.905	54.55
850.077	52.94
850.249	52.96
850.421	53.91
850.592	53.5
850.764	52.04
850.936	58.06
851.107	58.44
851.279	61.87
851.451	61.91
851.622	61.74
851.794	60.06
851.965	65.24
852.137	61.7
852.308	61.32
852.48	63.71
852.651	62.65
852.823	59.15
852.994	57.18
853.166	53.85
853.337	51.11
853.509	53.51
853.68	52.56
853.851	49.84
854.023	49.36
854.194	48.18
854.365	42.99
854.537	45.19
854.708	45.08
854.879	45.43
855.05	43.38
855.222	48.26
855.393	44.89
855.564	44.36
855.735	43.43
855.906	43.28
856.078	40.96
856.249	43.79
856.42	45.3
856.591	49.47
856.762	51.3
856.933	51.61
857.104	47.03
857.275	48.39
857.446	51.43
857.617	51.96
857.788	57.69
857.959	59.43
858.13	60.28
858.301	57.48
858.472	55.33
858.643	55.85
858.814	55.41
858.985	55.74
859.155	55.45
859.326	55.28
859.497	56.33
859.668	53.54
859.839	52.75
860.009	51.9
860.18	53.2
860.351	52.51
860.522	54.6
860.692	56.35
860.863	59.6
861.034	60.92
861.204	60.79
861.375	62.25
861.546	62.64
861.716	63.59
861.887	62.79
862.057	61.55
862.228	64.23
862.398	59.5
862.569	61.71
862.739	63.12
862.91	61.05
863.08	62.07
863.251	59.97
863.421	57.95
863.592	54.55
863.762	57.95
863.932	55.37
864.103	55.5
864.273	55.77
864.443	50.55
864.614	47.57
864.784	48.46
864.954	46.43
865.125	47.22
865.295	51.48
865.465	56.97
865.635	50.09
865.805	51.24
865.976	49.52
866.146	47.95
866.316	52.06
866.486	50.68
866.656	50.37
866.826	48.59
866.996	46.58
867.166	43.79
867.336	40.49
867.506	46.44
867.676	47.74
867.846	45.92
868.016	48.51
868.186	45.32
868.356	47.62
868.526	47.57
868.696	51.12
868.866	50.27
869.036	52.6
869.206	51.96
869.376	51.49
869.545	52.2
869.715	55.67
869.885	53.33
870.055	56.01
870.224	54.38
870.394	52.75
870.564	53.09
870.734	55.09
870.903	53.13
871.073	51.77
871.243	47.57
871.412	48.72
871.582	50.28
871.751	50.06
871.921	52.3
872.091	52.82
872.26	55.17
872.43	52.07
872.599	52.67
872.769	53.24
872.938	55.43
873.108	62.17
873.277	61.45
873.446	58.59
873.616	59.45
873.785	56.91
873.955	58.54
874.124	56.13
874.293	59.03
874.463	58.79
874.632	59.41
874.801	59.12
874.971	54.06
875.14	53.25
875.309	53.75
875.478	50.73
875.647	50.65
875.817	47.19
875.986	50.13
876.155	49.2
876.324	48.55
876.493	47.17
876.662	48.09
876.831	52.02
877	49.29
877.17	52.57
877.339	56.4
877.508	59.5
877.677	61.14
877.846	61.64
878.015	61.06
878.184	60.94
878.352	58.75
878.521	57.61
878.69	54.81
878.859	55.84
879.028	53.88
879.197	51.56
879.366	48.23
879.534	46.67
879.703	43.69
879.872	43.52
880.041	41.52
880.21	40.14
880.378	37.6
880.547	36.08
880.716	32.84
880.884	30.78
881.053	31.47
881.222	31.04
881.39	30.09
881.559	29.22
881.727	28.51
881.896	29
882.065	29.46
882.233	29.24
882.402	29.29
882.57	30.37
882.739	30.12
882.907	29.15
883.076	28.81
883.244	29.1
883.412	29.42
883.581	29.58
883.749	29.41
883.918	29.58
884.086	30.55
884.254	31.48
884.423	32.39
884.591	33.62
884.759	34.52
884.927	35.52
885.096	36.17
885.264	38.32
885.432	38.38
885.6	38.26
885.769	39.04
885.937	39.81
886.105	40.15
886.273	40.04
886.441	40.59
886.609	43.14
886.777	43.05
886.945	44.26
887.113	42.55
887.281	43.92
887.449	44.41
887.617	43.8
887.785	42.98
887.953	46.18
888.121	46.35
888.289	47.11
888.457	46.71
888.625	49.45
888.793	49.97
888.961	51.54
889.129	55.24
889.296	56.7
889.464	58.53
889.632	61.24
889.8	57.51
889.967	58.93
890.135	61.3
