Data from 2938771__Reflection_09.txt Node
Date: Fri Mar 13 15:28:29 EDT 2015
User: robert
Spectrometer: USB4E03002
Autoset integration time: false
Trigger mode: 4
Integration Time (sec): 1.000000E-1
Scans to average: 10
Electric dark correction enabled: false
Nonlinearity correction enabled: false
Boxcar width: 5
Stray light correction enabled: false
XAxis mode: Wavelengths
Stop averaging: false
Number of Pixels in Spectrum: 3648
>>>>>Begin Spectral Data<<<<<
177.575	-237.5
177.794	-542.47
178.014	-2062.96
178.233	949.25
178.452	1516.22
178.672	407.39
178.891	441.46
179.11	2926.09
179.33	-964.18
179.549	-419.05
179.768	-1766.67
179.987	882.09
180.207	2485.19
180.426	1078.46
180.645	-2211.43
180.864	-1475.81
181.084	-281.89
181.303	-321.5
181.522	-1478.72
181.741	4873.33
181.96	317.14
182.179	298.41
182.398	219.96
182.618	214.29
182.837	283.76
183.056	212.93
183.275	160.2
183.494	147.97
183.713	213.58
183.932	235.29
184.151	195.91
184.37	240.23
184.589	246.07
184.808	580
185.027	195.09
185.246	155.74
185.465	134.99
185.684	169.74
185.903	169.01
186.122	122.95
186.341	111.31
186.56	133.67
186.779	175.8
186.998	157.78
187.216	204.72
187.435	517.8
187.654	303.35
187.873	208.24
188.092	215.89
188.311	364.16
188.53	337.5
188.748	1146.87
188.967	-2391.67
189.186	557.25
189.405	681.29
189.623	353.26
189.842	281.64
190.061	280.05
190.28	400.98
190.498	257.82
190.717	234.95
190.936	250.08
191.154	209.72
191.373	220.46
191.592	187.71
191.81	143.98
192.029	135.37
192.248	144.88
192.466	139.97
192.685	150.3
192.904	171.31
193.122	126.88
193.341	151.61
193.559	298.13
193.778	221.86
193.996	265.17
194.215	2440
194.433	688.79
194.652	446.62
194.87	689.36
195.089	13320
195.307	2646.15
195.526	-592.52
195.744	1891.49
195.963	434.43
196.181	332.64
196.399	274.93
196.618	221.86
196.836	226.09
197.055	344.81
197.273	600
197.491	1255.88
197.71	753.7
197.928	353.63
198.146	439.83
198.365	904
198.583	1028.79
198.801	-224.02
199.019	-225.52
199.238	-155.64
199.456	-146.1
199.674	-211.59
199.892	-252.03
200.111	-212.45
200.329	-154.22
200.547	-129.34
200.765	-226.07
200.983	-205.35
201.202	-465.42
201.42	-1172.92
201.638	2852.17
201.856	690.72
202.074	1495.12
202.292	384.21
202.51	553.49
202.728	345.11
202.946	589.93
203.165	1488.89
203.383	84100
203.601	654.23
203.819	623.76
204.037	350.8
204.255	343.32
204.473	203.67
204.691	384.53
204.909	157.79
205.127	150.63
205.345	52.07
205.562	-10.7
205.78	26.39
205.998	-11.48
206.216	30.66
206.434	20.04
206.652	56.6
206.87	80.4
207.088	90.29
207.306	164.92
207.523	154.46
207.741	163
207.959	170.7
208.177	169.13
208.395	199.31
208.612	296.23
208.83	275
209.048	290.12
209.266	1553.33
209.483	-1029.41
209.701	-1112
209.919	776.56
210.136	10200
210.354	-1425
210.572	-238.8
210.79	656.07
211.007	263.77
211.225	1045.76
211.442	243.94
211.66	147.46
211.878	137.77
212.095	300.19
212.313	274.6
212.53	297.27
212.748	252.13
212.966	179.64
213.183	217.19
213.401	203.17
213.618	165.23
213.836	172.78
214.053	210.46
214.271	213.36
214.488	83
214.705	111.68
214.923	71.38
215.14	84.8
215.358	98.3
215.575	87.65
215.793	88.21
216.01	100.7
216.227	106.15
216.445	93.29
216.662	86.92
216.879	79.89
217.097	70.36
217.314	83.8
217.531	87.23
217.749	86.13
217.966	97.28
218.183	105.04
218.4	82.13
218.618	84.65
218.835	74.94
219.052	57.98
219.269	63.66
219.487	66.74
219.704	64.94
219.921	42.74
220.138	38.87
220.355	40.45
220.572	34.78
220.79	30.65
221.007	20.82
221.224	26.66
221.441	34.94
221.658	39.88
221.875	39.41
222.092	40.28
222.309	39.15
222.526	36.07
222.743	30.65
222.96	39.61
223.177	40.58
223.394	39.27
223.611	36.01
223.828	34.63
224.045	34.02
224.262	41.41
224.479	38.37
224.696	40.39
224.913	39.81
225.13	36.88
225.347	31.57
225.564	29.74
225.781	29.9
225.997	25.45
226.214	25.94
226.431	23.13
226.648	16.04
226.865	15.63
227.082	12.88
227.298	11.97
227.515	11.08
227.732	10.58
227.949	8.81
228.165	8.46
228.382	8.99
228.599	7.51
228.816	6.91
229.032	5.77
229.249	5.52
229.466	5.92
229.682	5.56
229.899	5.82
230.116	5.22
230.332	6.52
230.549	6.49
230.765	6.21
230.982	6.82
231.199	6.11
231.415	8.64
231.632	8.6
231.848	9.46
232.065	9.16
232.281	8.43
232.498	8.77
232.714	8.43
232.931	9.17
233.147	10.24
233.364	9.54
233.58	9.95
233.797	8.64
234.013	8.84
234.23	7.46
234.446	7.84
234.662	7.37
234.879	8.01
235.095	8.38
235.312	9.51
235.528	7.79
235.744	7.4
235.961	9.82
236.177	9.22
236.393	9.71
236.61	9.32
236.826	8.88
237.042	10.29
237.258	9.1
237.475	9.26
237.691	7.06
237.907	7.02
238.123	7.72
238.339	7.56
238.556	8.13
238.772	7.18
238.988	7.99
239.204	7.72
239.42	7.4
239.636	8.1
239.853	7.68
240.069	8.49
240.285	8.88
240.501	8.69
240.717	8.35
240.933	7.93
241.149	7.57
241.365	7
241.581	6.8
241.797	6.44
242.013	7.04
242.229	6.95
242.445	6.18
242.661	6.26
242.877	6.28
243.093	5.84
243.309	5.51
243.525	5.19
243.741	5.03
243.957	5.53
244.173	6.2
244.388	5.74
244.604	5.31
244.82	5.85
245.036	5.6
245.252	4.5
245.468	4.43
245.683	4.78
245.899	4.45
246.115	4.18
246.331	3.78
246.547	3.64
246.762	3.32
246.978	3.47
247.194	3.49
247.409	3.9
247.625	4.24
247.841	4.27
248.057	4.06
248.272	4.34
248.488	4.8
248.703	5.34
248.919	5.41
249.135	5.28
249.35	5.48
249.566	5.61
249.782	5.16
249.997	5.66
250.213	5.88
250.428	6.61
250.644	6.69
250.859	6.08
251.075	6.21
251.29	5.63
251.506	6.42
251.721	6.13
251.937	5.76
252.152	5.84
252.368	5.96
252.583	5.92
252.798	5.85
253.014	5.69
253.229	6.32
253.445	5.49
253.66	6.08
253.875	6.69
254.091	6.65
254.306	6.84
254.521	6.38
254.737	5.96
254.952	5.67
255.167	5.63
255.383	6.1
255.598	5.16
255.813	5.99
256.028	5.61
256.244	4.25
256.459	4.14
256.674	3.81
256.889	4.33
257.104	3.8
257.32	3.99
257.535	3.46
257.75	3.18
257.965	3.22
258.18	2.88
258.395	2.7
258.61	2.99
258.826	2.92
259.041	2.98
259.256	2.84
259.471	2.66
259.686	2.51
259.901	2.52
260.116	2.64
260.331	2.81
260.546	2.7
260.761	2.63
260.976	2.58
261.191	2.71
261.406	2.8
261.621	2.81
261.836	2.96
262.05	2.66
262.265	2.65
262.48	2.55
262.695	2.38
262.91	2.53
263.125	2.73
263.34	2.4
263.555	2.11
263.769	2.06
263.984	1.91
264.199	1.61
264.414	2.04
264.629	2.13
264.843	2.18
265.058	2.2
265.273	2.45
265.488	2.32
265.702	2.86
265.917	2.53
266.132	2.57
266.346	2.59
266.561	3.45
266.776	3.43
266.99	3.42
267.205	3.36
267.42	3.46
267.634	3.39
267.849	3.42
268.063	3.37
268.278	3.86
268.492	4.22
268.707	4.25
268.922	3.34
269.136	4.33
269.351	4.12
269.565	4.28
269.78	4.51
269.994	4.44
270.209	4.07
270.423	3.92
270.637	3.71
270.852	3.36
271.066	3.5
271.281	3.89
271.495	3.04
271.709	3.09
271.924	2.9
272.138	2.84
272.353	2.8
272.567	3.35
272.781	3
272.996	2.98
273.21	3.32
273.424	3.57
273.638	3.5
273.853	3.42
274.067	3.42
274.281	3.58
274.495	3.15
274.71	3.16
274.924	2.94
275.138	3.24
275.352	3.2
275.566	2.54
275.781	1.89
275.995	1.85
276.209	2.08
276.423	1.88
276.637	1.25
276.851	1.93
277.065	2.17
277.279	2.29
277.493	2.43
277.707	2.57
277.921	2.95
278.135	3.24
278.349	3.1
278.563	3.35
278.777	3.82
278.991	4.61
279.205	4.24
279.419	3.61
279.633	3.25
279.847	3.36
280.061	3.27
280.275	2.82
280.489	2.93
280.703	3.3
280.917	3
281.131	2.64
281.344	2.38
281.558	1.83
281.772	2.13
281.986	1.98
282.2	1.86
282.414	1.7
282.627	1.88
282.841	1.64
283.055	1.76
283.269	1.89
283.482	1.88
283.696	1.88
283.91	2.46
284.123	2.41
284.337	2.95
284.551	2.76
284.764	2.95
284.978	2.85
285.192	2.66
285.405	2.55
285.619	2.35
285.833	2.37
286.046	2.11
286.26	1.85
286.473	1.97
286.687	1.68
286.9	1.78
287.114	1.63
287.327	1.4
287.541	1.5
287.754	1.27
287.968	1.46
288.181	1.56
288.395	2.1
288.608	2.52
288.822	2.38
289.035	2.1
289.248	1.88
289.462	2.15
289.675	2.27
289.889	2.38
290.102	2.49
290.315	2.53
290.529	2.65
290.742	2.47
290.955	2.08
291.169	2.34
291.382	2.84
291.595	3.14
291.808	3.26
292.022	3.8
292.235	4.03
292.448	4.11
292.661	4.13
292.875	4.19
293.088	4.1
293.301	4.11
293.514	3.87
293.727	4.04
293.94	4
294.153	3.72
294.367	3.06
294.58	2.7
294.793	2.57
295.006	2.48
295.219	2.11
295.432	1.91
295.645	2.02
295.858	1.85
296.071	1.49
296.284	1.41
296.497	1.31
296.71	1.61
296.923	1.76
297.136	1.7
297.349	1.56
297.562	1.82
297.775	2.06
297.988	2.11
298.201	2.27
298.414	2.4
298.626	2.5
298.839	2.67
299.052	2.46
299.265	2.15
299.478	2.33
299.691	2.45
299.903	2.24
300.116	2.22
300.329	2.46
300.542	2.47
300.755	2.23
300.967	2.22
301.18	2.09
301.393	2.54
301.605	2.83
301.818	2.75
302.031	2.99
302.243	2.75
302.456	2.95
302.669	2.6
302.881	2.3
303.094	2.19
303.307	2.1
303.519	1.9
303.732	1.79
303.944	1.62
304.157	1.76
304.37	1.55
304.582	1.63
304.795	1.6
305.007	2.01
305.22	2.35
305.432	2.54
305.645	2.4
305.857	3.11
306.069	3.3
306.282	3.86
306.494	3.5
306.707	3.53
306.919	3.45
307.132	3.35
307.344	3.25
307.556	3.46
307.769	3.83
307.981	3.93
308.193	3.35
308.406	3.09
308.618	3.06
308.83	3.25
309.043	3.35
309.255	3.71
309.467	3.47
309.679	3
309.892	2.56
310.104	2.52
310.316	2.5
310.528	2.51
310.74	2.75
310.953	2.54
311.165	2.61
311.377	2.69
311.589	2.85
311.801	3.05
312.013	3.28
312.225	3.7
312.437	3.53
312.649	3.62
312.862	4.01
313.074	3.8
313.286	4.01
313.498	3.75
313.71	3.92
313.922	3.89
314.134	3.81
314.346	4.1
314.558	4.19
314.77	4.37
314.982	4.39
315.193	4.5
315.405	4.63
315.617	4.46
315.829	4.9
316.041	4.8
316.253	4.44
316.465	5.22
316.677	5.04
316.888	4.96
317.1	5.07
317.312	5.59
317.524	5.29
317.736	5.81
317.947	6.28
318.159	6.7
318.371	6.7
318.583	7.15
318.794	6.8
319.006	6.83
319.218	6.85
319.43	6.7
319.641	6.89
319.853	7.46
320.064	7.26
320.276	7.2
320.488	6.79
320.699	7.04
320.911	7.25
321.123	7.04
321.334	6.97
321.546	7.14
321.757	7.15
321.969	6.42
322.18	6.39
322.392	6.28
322.603	5.97
322.815	6.22
323.026	6.74
323.238	6.82
323.449	6.88
323.661	7.16
323.872	7.02
324.083	7.45
324.295	7.92
324.506	7.87
324.718	8.05
324.929	8.52
325.14	8.63
325.352	8.47
325.563	8.57
325.774	8.59
325.986	8.69
326.197	9.03
326.408	9.49
326.62	9.67
326.831	10.15
327.042	10.35
327.253	10.27
327.464	10.74
327.676	11.04
327.887	11.15
328.098	11.98
328.309	12.43
328.52	13.19
328.732	13.22
328.943	13.59
329.154	13.46
329.365	13.7
329.576	14.19
329.787	14.38
329.998	14.77
330.209	15.37
330.42	15.55
330.631	15.9
330.842	15.67
331.053	16.29
331.264	16.45
331.475	16.61
331.686	17.26
331.897	17.71
332.108	18.14
332.319	18.58
332.53	18.73
332.741	19.26
332.952	19.62
333.163	19.82
333.374	19.48
333.585	19.83
333.795	20.34
334.006	20.12
334.217	20.34
334.428	20.28
334.639	20.24
334.849	20.16
335.06	19.46
335.271	19.49
335.482	19.63
335.692	19.85
335.903	19.85
336.114	19.96
336.325	20.09
336.535	20.14
336.746	20.14
336.957	19.86
337.167	20.01
337.378	20.59
337.589	20.61
337.799	20.66
338.01	20.81
338.22	20.93
338.431	20.9
338.642	20.79
338.852	20.94
339.063	21.28
339.273	21.53
339.484	21.59
339.694	21.57
339.905	21.86
340.115	21.71
340.326	21.67
340.536	21.49
340.746	21.45
340.957	22.04
341.167	21.79
341.378	21.27
341.588	21.08
341.799	21.06
342.009	20.93
342.219	20.66
342.43	20.81
342.64	20.82
342.85	20.95
343.061	20.98
343.271	20.36
343.481	20.31
343.691	20.48
343.902	20.75
344.112	20.77
344.322	20.65
344.532	20.65
344.743	20.64
344.953	20.68
345.163	20.32
345.373	20.15
345.583	20.46
345.793	20.38
346.004	20.35
346.214	19.96
346.424	19.98
346.634	20.27
346.844	20.17
347.054	20.13
347.264	20.12
347.474	20.32
347.684	20.19
347.894	20.23
348.104	20.25
348.314	20.3
348.524	20.61
348.734	20.54
348.944	20.47
349.154	20.89
349.364	20.95
349.574	21.01
349.784	21.24
349.994	21.49
350.204	21.47
350.413	21.62
350.623	21.79
350.833	21.56
351.043	21.37
351.253	21.26
351.463	21.11
351.672	21.04
351.882	20.98
352.092	20.86
352.302	20.86
352.511	20.78
352.721	20.25
352.931	20.21
353.141	20.06
353.35	20.33
353.56	20.2
353.77	19.84
353.979	19.83
354.189	19.78
354.399	19.85
354.608	19.7
354.818	19.67
355.027	19.95
355.237	20
355.447	20.03
355.656	19.85
355.866	19.76
356.075	19.82
356.285	19.72
356.494	19.5
356.704	19.28
356.913	19.3
357.123	19.23
357.332	19.31
357.542	19.2
357.751	19.42
357.96	19.42
358.17	19.44
358.379	19.34
358.589	19.39
358.798	19.57
359.007	19.53
359.217	19.58
359.426	19.71
359.635	19.85
359.845	19.52
360.054	19.19
360.263	19.22
360.472	19.14
360.682	19.23
360.891	19.08
361.1	19
361.309	19.01
361.519	18.9
361.728	18.67
361.937	18.61
362.146	18.61
362.355	18.68
362.564	18.56
362.774	18.63
362.983	18.55
363.192	18.61
363.401	18.47
363.61	18.56
363.819	18.5
364.028	18.44
364.237	18.22
364.446	18.12
364.655	18.22
364.864	18.35
365.073	18.34
365.282	18.44
365.491	18.48
365.7	18.75
365.909	18.73
366.118	18.91
366.327	18.86
366.536	18.94
366.745	19.2
366.954	19.06
367.162	18.95
367.371	18.8
367.58	18.74
367.789	18.59
367.998	18.2
368.207	18.03
368.415	17.8
368.624	17.95
368.833	17.79
369.042	17.71
369.25	17.84
369.459	17.75
369.668	17.7
369.877	17.46
370.085	17.52
370.294	18
370.503	18.19
370.711	18.4
370.92	18.44
371.129	18.34
371.337	18.22
371.546	18.16
371.754	18.22
371.963	18.23
372.171	18.59
372.38	18.7
372.589	18.47
372.797	18.21
373.006	18.05
373.214	17.91
373.423	18.04
373.631	18.37
373.84	18.3
374.048	18.29
374.256	18.5
374.465	18.37
374.673	18.32
374.882	18.28
375.09	18.44
375.298	18.66
375.507	18.71
375.715	18.63
375.923	18.35
376.132	18.4
376.34	18.3
376.548	18.22
376.757	18.25
376.965	18.11
377.173	18.17
377.381	18.06
377.59	17.83
377.798	17.89
378.006	18.01
378.214	18.16
378.423	18.2
378.631	18.38
378.839	18.46
379.047	18.32
379.255	18.4
379.463	18.34
379.671	18.3
379.879	18.59
380.088	18.55
380.296	18.35
380.504	18.14
380.712	18.15
380.92	18.11
381.128	18.03
381.336	18.04
381.544	18.14
381.752	18.02
381.96	18.17
382.168	18.08
382.376	18.28
382.584	18.55
382.791	18.58
382.999	18.72
383.207	18.74
383.415	18.83
383.623	18.79
383.831	18.76
384.039	18.95
384.247	18.91
384.454	18.87
384.662	18.76
384.87	18.62
385.078	18.6
385.285	18.33
385.493	18.24
385.701	18.24
385.909	18.17
386.116	18.11
386.324	17.88
386.532	18.05
386.739	17.9
386.947	17.94
387.155	18.01
387.362	18.06
387.57	18.18
387.778	18.59
387.985	18.59
388.193	18.73
388.4	18.73
388.608	19.03
388.816	19
389.023	19.15
389.231	19.08
389.438	18.9
389.646	19.08
389.853	19.23
390.061	18.97
390.268	18.77
390.475	18.92
390.683	18.78
390.89	18.63
391.098	18.49
391.305	18.45
391.512	18.3
391.72	18.42
391.927	18.36
392.135	18.16
392.342	18.1
392.549	18.31
392.756	18.02
392.964	18.18
393.171	18.08
393.378	18
393.586	17.95
393.793	18.19
394	18.28
394.207	18.29
394.414	18.29
394.622	18.19
394.829	18.03
395.036	18.19
395.243	18.19
395.45	18.25
395.657	18.26
395.864	18.3
396.072	18.14
396.279	18.14
396.486	17.99
396.693	18.17
396.9	18.32
397.107	18.33
397.314	18.45
397.521	18.5
397.728	18.55
397.935	18.77
398.142	18.8
398.349	19.07
398.556	18.98
398.763	19.01
398.97	18.79
399.177	18.81
399.383	18.78
399.59	18.68
399.797	18.79
400.004	18.71
400.211	18.57
400.418	18.56
400.625	18.38
400.831	18.38
401.038	18.51
401.245	18.88
401.452	19.05
401.658	19.21
401.865	19.36
402.072	19.32
402.279	19.48
402.485	19.42
402.692	19.51
402.899	19.51
403.105	19.71
403.312	19.69
403.519	19.39
403.725	19.38
403.932	19.37
404.138	19.23
404.345	19.3
404.552	19.2
404.758	19.23
404.965	19.04
405.171	19.03
405.378	18.84
405.584	18.79
405.791	18.85
405.997	18.68
406.204	18.65
406.41	18.78
406.617	18.7
406.823	18.87
407.029	18.99
407.236	19.09
407.442	19.31
407.649	19.49
407.855	19.63
408.061	19.72
408.268	19.77
408.474	19.81
408.68	19.76
408.887	19.87
409.093	19.89
409.299	19.94
409.505	19.94
409.712	19.72
409.918	19.67
410.124	19.71
410.33	19.89
410.537	19.94
410.743	19.95
410.949	19.98
411.155	19.88
411.361	19.81
411.567	19.77
411.773	19.81
411.98	19.86
412.186	19.83
412.392	19.9
412.598	19.79
412.804	19.91
413.01	19.91
413.216	19.96
413.422	19.92
413.628	19.92
413.834	20.07
414.04	20.15
414.246	20.13
414.452	20.24
414.658	20.17
414.864	20.14
415.07	20.02
415.275	20.07
415.481	20.03
415.687	20.24
415.893	20.35
416.099	20.23
416.305	20.3
416.511	20.28
416.716	20.29
416.922	20.41
417.128	20.43
417.334	20.49
417.539	20.49
417.745	20.46
417.951	20.38
418.157	20.33
418.362	20.43
418.568	20.47
418.774	20.58
418.979	20.57
419.185	20.55
419.391	20.62
419.596	20.67
419.802	20.7
420.008	20.77
420.213	20.84
420.419	20.91
420.624	20.84
420.83	20.82
421.035	20.8
421.241	20.77
421.446	20.73
421.652	20.76
421.857	20.76
422.063	20.75
422.268	20.74
422.474	20.75
422.679	20.75
422.885	20.82
423.09	20.83
423.295	20.86
423.501	20.92
423.706	20.96
423.911	20.93
424.117	20.92
424.322	20.97
424.527	20.97
424.733	20.96
424.938	20.99
425.143	21.06
425.349	21.06
425.554	21.04
425.759	20.96
425.964	20.97
426.169	21.03
426.375	21.05
426.58	21.03
426.785	21.09
426.99	21.05
427.195	21.11
427.4	21.05
427.605	21.15
427.811	21.29
428.016	21.42
428.221	21.46
428.426	21.48
428.631	21.51
428.836	21.62
429.041	21.63
429.246	21.6
429.451	21.68
429.656	21.74
429.861	21.76
430.066	21.81
430.271	21.91
430.476	22.01
430.681	22
430.886	21.94
431.09	21.95
431.295	22.19
431.5	22.34
431.705	22.34
431.91	22.34
432.115	22.31
432.32	22.36
432.524	22.33
432.729	22.38
432.934	22.37
433.139	22.52
433.343	22.43
433.548	22.31
433.753	22.35
433.958	22.23
434.162	22.23
434.367	22.32
434.572	22.28
434.776	22.24
434.981	22.22
435.186	22.38
435.39	22.3
435.595	22.46
435.799	22.45
436.004	22.43
436.209	22.55
436.413	22.68
436.618	22.63
436.822	22.63
437.027	22.74
437.231	22.66
437.436	22.54
437.64	22.64
437.845	22.66
438.049	22.74
438.253	22.68
438.458	22.68
438.662	22.55
438.867	22.64
439.071	22.6
439.275	22.61
439.48	22.55
439.684	22.64
439.888	22.62
440.093	22.61
440.297	22.55
440.501	22.6
440.706	22.65
440.91	22.76
441.114	22.76
441.318	22.82
441.523	22.8
441.727	22.87
441.931	22.87
442.135	22.73
442.339	22.7
442.543	22.74
442.748	22.74
442.952	22.68
443.156	22.66
443.36	22.66
443.564	22.59
443.768	22.76
443.972	22.8
444.176	22.68
444.38	22.87
444.584	22.98
444.788	23.05
444.992	23.07
445.196	23.04
445.4	23.14
445.604	23.16
445.808	23.2
446.012	23.05
446.216	23.09
446.42	23.16
446.624	23.08
446.828	23.05
447.032	23
447.235	23.01
447.439	23.08
447.643	22.96
447.847	22.99
448.051	22.96
448.254	22.99
448.458	22.95
448.662	23.01
448.866	23.1
449.069	23.1
449.273	23.12
449.477	23.09
449.681	22.99
449.884	23.03
450.088	22.99
450.292	23.12
450.495	23.24
450.699	23.26
450.902	23.22
451.106	23.14
451.31	23.32
451.513	23.35
451.717	23.38
451.92	23.44
452.124	23.34
452.327	23.34
452.531	23.28
452.734	23.26
452.938	23.22
453.141	23.15
453.345	23.14
453.548	22.93
453.752	22.77
453.955	22.81
454.158	22.91
454.362	22.94
454.565	22.95
454.769	22.91
454.972	22.92
455.175	23.01
455.379	23.18
455.582	23.28
455.785	23.35
455.988	23.42
456.192	23.39
456.395	23.31
456.598	23.46
456.801	23.39
457.005	23.5
457.208	23.45
457.411	23.47
457.614	23.35
457.817	23.29
458.021	23.29
458.224	23.44
458.427	23.42
458.63	23.35
458.833	23.35
459.036	23.37
459.239	23.35
459.442	23.34
459.645	23.34
459.848	23.32
460.051	23.31
460.254	23.27
460.457	23.22
460.66	23.28
460.863	23.34
461.066	23.24
461.269	23.3
461.472	23.32
461.675	23.41
461.878	23.3
462.081	23.36
462.284	23.48
462.486	23.6
462.689	23.6
462.892	23.66
463.095	23.68
463.298	23.77
463.5	23.8
463.703	23.81
463.906	23.81
464.109	23.84
464.311	23.77
464.514	23.7
464.717	23.64
464.92	23.69
465.122	23.52
465.325	23.57
465.528	23.56
465.73	23.54
465.933	23.52
466.135	23.53
466.338	23.64
466.541	23.66
466.743	23.66
466.946	23.63
467.148	23.65
467.351	23.74
467.553	23.76
467.756	23.75
467.958	23.62
468.161	23.64
468.363	23.59
468.566	23.41
468.768	23.46
468.971	23.58
469.173	23.64
469.375	23.63
469.578	23.51
469.78	23.53
469.983	23.55
470.185	23.73
470.387	23.71
470.59	23.69
470.792	23.81
470.994	23.79
471.196	23.62
471.399	23.65
471.601	23.65
471.803	23.8
472.005	23.79
472.208	23.89
472.41	23.88
472.612	23.93
472.814	23.89
473.016	23.95
473.218	24.02
473.421	24.06
473.623	23.99
473.825	23.9
474.027	23.99
474.229	24.07
474.431	23.92
474.633	23.9
474.835	23.77
475.037	23.81
475.239	23.87
475.441	23.89
475.643	23.94
475.845	23.96
476.047	23.94
476.249	23.85
476.451	23.78
476.653	23.88
476.855	23.8
477.057	23.89
477.258	23.94
477.46	23.77
477.662	23.74
477.864	23.77
478.066	23.83
478.268	23.93
478.469	23.96
478.671	23.87
478.873	23.9
479.075	23.88
479.276	23.84
479.478	23.79
479.68	23.82
479.882	23.78
480.083	23.8
480.285	23.74
480.487	23.67
480.688	23.58
480.89	23.7
481.091	23.56
481.293	23.62
481.495	23.61
481.696	23.59
481.898	23.67
482.099	23.67
482.301	23.62
482.502	23.64
482.704	23.61
482.905	23.63
483.107	23.59
483.308	23.6
483.51	23.57
483.711	23.55
483.913	23.55
484.114	23.51
484.315	23.48
484.517	23.49
484.718	23.42
484.92	23.44
485.121	23.43
485.322	23.44
485.524	23.44
485.725	23.43
485.926	23.42
486.127	23.43
486.329	23.43
486.53	23.47
486.731	23.47
486.932	23.53
487.134	23.54
487.335	23.55
487.536	23.51
487.737	23.5
487.938	23.52
488.139	23.58
488.341	23.6
488.542	23.62
488.743	23.61
488.944	23.6
489.145	23.55
489.346	23.55
489.547	23.54
489.748	23.62
489.949	23.62
490.15	23.62
490.351	23.59
490.552	23.58
490.753	23.6
490.954	23.6
491.155	23.63
491.356	23.64
491.557	23.64
491.758	23.66
491.959	23.61
492.159	23.68
492.36	23.67
492.561	23.73
492.762	23.71
492.963	23.73
493.164	23.76
493.364	23.7
493.565	23.71
493.766	23.74
493.967	23.76
494.167	23.8
494.368	23.82
494.569	23.94
494.769	23.87
494.97	24
495.171	24.01
495.371	24.01
495.572	24.14
495.773	24.26
495.973	24.31
496.174	24.21
496.375	24.34
496.575	24.33
496.776	24.26
496.976	24.26
497.177	24.17
497.377	24.26
497.578	24.29
497.778	24.37
497.979	24.3
498.179	24.27
498.38	24.38
498.58	24.26
498.78	24.24
498.981	24.34
499.181	24.36
499.382	24.43
499.582	24.35
499.782	24.31
499.983	24.24
500.183	24.27
500.383	24.23
500.584	24.24
500.784	24.28
500.984	24.32
501.184	24.34
501.385	24.35
501.585	24.41
501.785	24.5
501.985	24.5
502.185	24.55
502.386	24.67
502.586	24.79
502.786	24.75
502.986	24.78
503.186	24.79
503.386	24.73
503.586	24.77
503.786	24.77
503.987	24.73
504.187	24.82
504.387	24.74
504.587	24.7
504.787	24.76
504.987	24.86
505.187	24.9
505.387	24.88
505.587	24.98
505.786	24.99
505.986	24.97
506.186	25.06
506.386	25.09
506.586	25.13
506.786	25.17
506.986	25.18
507.186	25.24
507.386	25.21
507.585	25.2
507.785	25.13
507.985	25.18
508.185	25.25
508.384	25.2
508.584	25.15
508.784	25.19
508.984	25.19
509.183	25.04
509.383	24.99
509.583	25.08
509.782	25.11
509.982	25.14
510.182	25.16
510.381	25.14
510.581	25.16
510.781	25.18
510.98	25.18
511.18	25.23
511.379	25.33
511.579	25.35
511.778	25.37
511.978	25.41
512.177	25.42
512.377	25.44
512.576	25.42
512.776	25.47
512.975	25.5
513.175	25.57
513.374	25.5
513.573	25.54
513.773	25.66
513.972	25.65
514.172	25.65
514.371	25.77
514.57	25.71
514.77	25.63
514.969	25.62
515.168	25.7
515.367	25.65
515.567	25.83
515.766	25.82
515.965	25.73
516.164	25.74
516.364	25.81
516.563	25.69
516.762	25.73
516.961	25.8
517.16	25.81
517.359	25.81
517.559	25.86
517.758	25.79
517.957	25.82
518.156	25.82
518.355	25.84
518.554	25.89
518.753	25.97
518.952	26.03
519.151	26.07
519.35	26.1
519.549	26.15
519.748	26.16
519.947	26.22
520.146	26.32
520.345	26.35
520.544	26.33
520.743	26.31
520.942	26.37
521.141	26.37
521.339	26.42
521.538	26.55
521.737	26.54
521.936	26.55
522.135	26.6
522.333	26.6
522.532	26.59
522.731	26.66
522.93	26.75
523.129	26.77
523.327	26.87
523.526	26.79
523.725	26.75
523.923	26.8
524.122	26.85
524.321	26.84
524.519	26.75
524.718	26.79
524.917	26.82
525.115	26.76
525.314	26.73
525.512	26.66
525.711	26.75
525.909	26.73
526.108	26.75
526.306	26.71
526.505	26.74
526.703	26.81
526.902	26.83
527.1	26.81
527.299	26.87
527.497	26.88
527.696	26.89
527.894	26.87
528.092	26.9
528.291	26.88
528.489	26.9
528.688	26.87
528.886	26.84
529.084	26.86
529.283	26.85
529.481	26.81
529.679	26.79
529.877	26.81
530.076	26.79
530.274	26.78
530.472	26.78
530.67	26.79
530.869	26.88
531.067	26.94
531.265	26.96
531.463	27.02
531.661	27.11
531.859	27.14
532.057	27.13
532.255	27.22
532.454	27.22
532.652	27.27
532.85	27.29
533.048	27.26
533.246	27.23
533.444	27.19
533.642	27.2
533.84	27.18
534.038	27.24
534.236	27.27
534.434	27.3
534.632	27.32
534.83	27.33
535.027	27.31
535.225	27.35
535.423	27.43
535.621	27.51
535.819	27.6
536.017	27.58
536.215	27.56
536.412	27.61
536.61	27.61
536.808	27.68
537.006	27.7
537.203	27.77
537.401	27.8
537.599	27.81
537.797	27.81
537.994	27.77
538.192	27.84
538.39	27.98
538.587	28.1
538.785	28.17
538.983	28.19
539.18	28.26
539.378	28.29
539.575	28.3
539.773	28.36
539.97	28.41
540.168	28.5
540.366	28.52
540.563	28.53
540.761	28.5
540.958	28.55
541.155	28.48
541.353	28.48
541.55	28.5
541.748	28.53
541.945	28.49
542.143	28.57
542.34	28.55
542.537	28.59
542.735	28.61
542.932	28.61
543.129	28.6
543.327	28.7
543.524	28.76
543.721	28.8
543.919	28.94
544.116	29.12
544.313	29.18
544.51	29.3
544.708	29.43
544.905	29.51
545.102	29.74
545.299	29.8
545.496	29.92
545.693	30.03
545.891	30.12
546.088	30.05
546.285	30.02
546.482	30
546.679	29.94
546.876	29.83
547.073	29.78
547.27	29.54
547.467	29.47
547.664	29.33
547.861	29.25
548.058	29.13
548.255	29.11
548.452	29.04
548.649	28.96
548.846	28.99
549.043	28.98
549.24	28.96
549.437	29.07
549.633	29.11
549.83	29.17
550.027	29.18
550.224	29.37
550.421	29.4
550.618	29.41
550.814	29.43
551.011	29.4
551.208	29.49
551.405	29.47
551.601	29.47
551.798	29.5
551.995	29.41
552.191	29.35
552.388	29.23
552.585	29.26
552.781	29.25
552.978	29.25
553.175	29.31
553.371	29.13
553.568	29.11
553.764	29.17
553.961	29.09
554.157	29.14
554.354	29.18
554.55	29.19
554.747	29.18
554.943	29.2
555.14	29.16
555.336	29.03
555.533	29.17
555.729	29.25
555.926	29.17
556.122	29.24
556.318	29.29
556.515	29.31
556.711	29.17
556.907	29.02
557.104	29.01
557.3	29.06
557.496	29.02
557.693	28.92
557.889	28.9
558.085	28.84
558.281	28.73
558.478	28.73
558.674	28.77
558.87	28.83
559.066	28.94
559.262	28.93
559.459	28.87
559.655	28.89
559.851	28.85
560.047	28.88
560.243	28.93
560.439	29.01
560.635	29.15
560.831	29.11
561.027	29.24
561.223	29.22
561.419	29.24
561.615	29.32
561.811	29.36
562.007	29.49
562.203	29.5
562.399	29.56
562.595	29.66
562.791	29.57
562.987	29.54
563.183	29.44
563.379	29.49
563.575	29.5
563.771	29.46
563.966	29.46
564.162	29.57
564.358	29.47
564.554	29.37
564.75	29.38
564.945	29.38
565.141	29.36
565.337	29.35
565.533	29.34
565.728	29.32
565.924	29.44
566.12	29.52
566.315	29.46
566.511	29.57
566.707	29.59
566.902	29.58
567.098	29.49
567.293	29.57
567.489	29.58
567.684	29.49
567.88	29.43
568.076	29.42
568.271	29.47
568.467	29.33
568.662	29.24
568.858	29.31
569.053	29.23
569.248	29.34
569.444	29.34
569.639	29.42
569.835	29.53
570.03	29.61
570.225	29.52
570.421	29.35
570.616	29.36
570.812	29.43
571.007	29.4
571.202	29.5
571.397	29.41
571.593	29.42
571.788	29.38
571.983	29.35
572.178	29.44
572.374	29.5
572.569	29.54
572.764	29.64
572.959	29.62
573.154	29.61
573.35	29.56
573.545	29.63
573.74	29.57
573.935	29.6
574.13	29.63
574.325	29.51
574.52	29.52
574.715	29.59
574.91	29.59
575.105	29.63
575.3	29.75
575.495	29.84
575.69	29.97
575.885	30.14
576.08	30.2
576.275	30.15
576.47	30.23
576.665	30.35
576.86	30.44
577.055	30.48
577.25	30.53
577.444	30.49
577.639	30.44
577.834	30.33
578.029	30.25
578.224	30.25
578.418	30.38
578.613	30.43
578.808	30.3
579.003	30.34
579.197	30.38
579.392	30.38
579.587	30.42
579.781	30.51
579.976	30.67
580.171	30.72
580.365	30.72
580.56	30.82
580.755	30.79
580.949	30.85
581.144	30.83
581.338	31.02
581.533	31.02
581.727	31.06
581.922	31.02
582.116	30.94
582.311	30.89
582.505	31.05
582.7	31.19
582.894	31.24
583.089	31.16
583.283	31.16
583.478	31.05
583.672	31.06
583.866	31.06
584.061	31.15
584.255	31.04
584.449	31.18
584.644	31.09
584.838	31.04
585.032	31.07
585.226	31.27
585.421	31.27
585.615	31.31
585.809	31.34
586.003	31.51
586.198	31.53
586.392	31.78
586.586	31.73
586.78	31.88
586.974	31.76
587.168	31.69
587.363	31.67
587.557	31.59
587.751	31.45
587.945	31.5
588.139	31.32
588.333	31.25
588.527	31.21
588.721	31.08
588.915	30.92
589.109	30.95
589.303	30.97
589.497	30.92
589.691	31.02
589.885	31.17
590.079	31.26
590.273	31.16
590.466	31.16
590.66	31.15
590.854	31.19
591.048	31.25
591.242	31.36
591.436	31.4
591.629	31.48
591.823	31.51
592.017	31.52
592.211	31.49
592.404	31.73
592.598	31.66
592.792	31.56
592.986	31.64
593.179	31.72
593.373	31.75
593.567	31.73
593.76	31.62
593.954	31.61
594.147	31.55
594.341	31.42
594.535	31.27
594.728	31.33
594.922	31.43
595.115	31.38
595.309	31.14
595.502	31.05
595.696	31.03
595.889	30.98
596.083	31.05
596.276	30.96
596.47	31.05
596.663	31.04
596.856	31.01
597.05	30.9
597.243	30.99
597.437	31.26
597.63	31.28
597.823	31.38
598.017	31.54
598.21	31.44
598.403	31.57
598.596	31.48
598.79	31.58
598.983	31.74
599.176	31.76
599.369	31.85
599.563	31.79
599.756	31.78
599.949	31.92
600.142	31.74
600.335	31.85
600.528	31.9
600.722	31.98
600.915	31.97
601.108	31.96
601.301	32.1
601.494	32
601.687	32.01
601.88	32.06
602.073	32.03
602.266	32.18
602.459	32.09
602.652	31.96
602.845	31.91
603.038	31.87
603.231	31.76
603.424	31.74
603.617	31.8
603.809	31.71
604.002	31.7
604.195	31.58
604.388	31.5
604.581	31.47
604.774	31.63
604.966	31.63
605.159	31.66
605.352	31.75
605.545	31.77
605.737	31.75
605.93	31.91
606.123	31.95
606.316	31.87
606.508	32
606.701	32.1
606.894	32.02
607.086	32.12
607.279	32.2
607.471	32.3
607.664	32.45
607.857	32.56
608.049	32.61
608.242	32.91
608.434	33.35
608.627	33.73
608.819	34.17
609.012	34.81
609.204	35.55
609.397	36.26
609.589	36.97
609.782	37.64
609.974	38.43
610.166	39.28
610.359	39.98
610.551	40.6
610.743	41.29
610.936	41.93
611.128	42.31
611.32	42.47
611.513	42.6
611.705	42.58
611.897	42.6
612.09	42.33
612.282	42.07
612.474	41.69
612.666	41.41
612.858	41.05
613.051	40.66
613.243	40.12
613.435	39.67
613.627	39.26
613.819	38.86
614.011	38.37
614.203	38.12
614.395	38.02
614.588	37.71
614.78	37.46
614.972	37.02
615.164	36.71
615.356	36.56
615.548	36.34
615.74	36.11
615.932	36
616.124	35.8
616.315	35.62
616.507	35.12
616.699	34.96
616.891	34.55
617.083	34.14
617.275	33.89
617.467	33.68
617.659	33.8
617.85	33.82
618.042	33.76
618.234	33.83
618.426	33.93
618.618	33.83
618.809	33.75
619.001	33.97
619.193	34.25
619.384	34.23
619.576	34.1
619.768	33.99
619.959	33.89
620.151	33.59
620.343	33.56
620.534	33.43
620.726	33.58
620.917	33.56
621.109	33.59
621.301	33.61
621.492	33.59
621.684	33.81
621.875	33.76
622.067	33.77
622.258	34
622.45	33.98
622.641	33.94
622.832	33.97
623.024	34.02
623.215	34
623.407	33.95
623.598	34.1
623.789	34.11
623.981	34.13
624.172	34.24
624.363	34.28
624.555	34.28
624.746	34.33
624.937	34.23
625.129	34.28
625.32	34.24
625.511	34.23
625.702	34.34
625.893	34.45
626.085	34.38
626.276	34.27
626.467	34.25
626.658	34.26
626.849	34.18
627.04	34.12
627.231	34.09
627.422	34.12
627.614	34.04
627.805	33.98
627.996	33.79
628.187	33.95
628.378	34.13
628.569	34.23
628.76	34.34
628.951	34.52
629.142	34.73
629.332	35.04
629.523	35.14
629.714	35.44
629.905	35.51
630.096	35.81
630.287	35.76
630.478	35.58
630.669	35.51
630.859	35.49
631.05	35.36
631.241	35.43
631.432	35.22
631.623	35.06
631.813	34.99
632.004	34.89
632.195	34.74
632.385	34.79
632.576	34.87
632.767	34.91
632.957	34.69
633.148	34.66
633.339	34.48
633.529	34.49
633.72	34.56
633.91	34.33
634.101	34.2
634.292	33.94
634.482	33.84
634.673	33.79
634.863	33.8
635.054	34.05
635.244	34.04
635.435	34.13
635.625	33.94
635.815	33.79
636.006	33.98
636.196	34.16
636.387	34.37
636.577	34.29
636.767	34.22
636.958	34.03
637.148	33.9
637.338	34.12
637.529	34.18
637.719	34.44
637.909	34.64
638.099	34.64
638.29	34.72
638.48	34.64
638.67	34.82
638.86	34.88
639.05	35.16
639.241	35.17
639.431	35.16
639.621	35
639.811	34.7
640.001	34.65
640.191	34.5
640.381	34.38
640.571	34.45
640.761	34.25
640.951	34.04
641.141	34.24
641.331	34.42
641.521	34.23
641.711	34.22
641.901	34.35
642.091	34.37
642.281	34.3
642.471	34.25
642.661	34.23
642.851	34.28
643.041	34.6
643.231	34.25
643.42	34.14
643.61	34.09
643.8	34.22
643.99	34.13
644.18	34.21
644.369	34.54
644.559	34.64
644.749	34.66
644.939	34.75
645.128	34.73
645.318	35.02
645.508	35.04
645.697	35.17
645.887	35.17
646.076	35.25
646.266	35
646.456	34.82
646.645	35.03
646.835	35.19
647.024	35.12
647.214	35.17
647.403	35.08
647.593	35.05
647.782	34.94
647.972	35.1
648.161	35.29
648.351	35.24
648.54	35.46
648.73	35.3
648.919	35.27
649.108	35.27
649.298	35.25
649.487	35.28
649.677	35.4
649.866	35.59
650.055	35.37
650.244	35.32
650.434	35.54
650.623	35.48
650.812	35.63
651.002	35.51
651.191	35.65
651.38	35.58
651.569	35.51
651.758	35.4
651.947	35.35
652.137	35.53
652.326	35.46
652.515	35.49
652.704	35.44
652.893	35.51
653.082	35.54
653.271	35.52
653.46	35.5
653.649	35.39
653.838	35.67
654.027	35.7
654.216	35.53
654.405	35.65
654.594	35.53
654.783	35.57
654.972	35.34
655.161	35.58
655.35	35.52
655.539	35.67
655.728	35.64
655.916	35.59
656.105	35.33
656.294	35.41
656.483	35.54
656.672	35.75
656.86	35.54
657.049	35.41
657.238	35.34
657.427	35.35
657.615	35.12
657.804	35.22
657.993	34.88
658.181	34.96
658.37	35
658.559	34.89
658.747	34.91
658.936	35.03
659.125	35.24
659.313	35.25
659.502	35.26
659.69	35.36
659.879	35.47
660.067	35.7
660.256	35.91
660.444	35.74
660.633	35.93
660.821	35.88
661.01	35.66
661.198	35.41
661.387	35.53
661.575	35.67
661.763	35.84
661.952	35.82
662.14	35.87
662.328	35.69
662.517	35.86
662.705	35.57
662.893	35.48
663.082	35.89
663.27	36.07
663.458	36.14
663.646	36.19
663.834	36.16
664.023	36.31
664.211	36.41
664.399	36.6
664.587	36.51
664.775	36.56
664.963	36.66
665.152	36.59
665.34	36.62
665.528	36.19
665.716	36.13
665.904	36.22
666.092	36.1
666.28	36.01
666.468	35.9
666.656	35.99
666.844	36.26
667.032	36.33
667.22	36.5
667.408	36.6
667.596	36.92
667.784	36.81
667.971	36.88
668.159	36.83
668.347	36.66
668.535	36.65
668.723	36.83
668.911	36.62
669.098	36.58
669.286	36.26
669.474	36.27
669.662	36.17
669.849	36.55
670.037	36.57
670.225	36.49
670.413	36.65
670.6	36.85
670.788	36.88
670.976	36.88
671.163	37.07
671.351	37.36
671.538	37.42
671.726	37.66
671.913	37.52
672.101	37.49
672.289	37.67
672.476	37.7
672.664	37.7
672.851	37.78
673.039	37.95
673.226	37.91
673.413	37.77
673.601	37.7
673.788	37.55
673.976	37.32
674.163	37.42
674.35	37.56
674.538	37.64
674.725	37.72
674.912	37.65
675.1	37.58
675.287	37.76
675.474	37.88
675.662	38.05
675.849	38.08
676.036	38.25
676.223	38.2
676.411	38.32
676.598	38.29
676.785	38.3
676.972	38.43
677.159	38.36
677.346	38.42
677.533	38.55
677.721	38.38
677.908	38.26
678.095	38.07
678.282	38.02
678.469	37.6
678.656	37.75
678.843	37.88
679.03	37.61
679.217	37.62
679.404	37.44
679.591	37.31
679.778	37.44
679.964	37.34
680.151	37.49
680.338	37.55
680.525	37.45
680.712	37.23
680.899	37.14
681.086	37.25
681.272	37.3
681.459	37.49
681.646	37.59
681.833	37.71
682.02	38.02
682.206	38.03
682.393	37.83
682.58	38.05
682.766	38.06
682.953	38.16
683.14	38.39
683.326	38.58
683.513	38.43
683.7	38.44
683.886	38.25
684.073	38.35
684.259	38.3
684.446	38.41
684.632	38.67
684.819	38.72
685.005	38.59
685.192	38.56
685.378	38.48
685.565	38.86
685.751	39.03
685.938	39.1
686.124	39.18
686.31	39.07
686.497	39.24
686.683	39
686.87	39.16
687.056	39.36
687.242	39.09
687.429	39.18
687.615	38.73
687.801	38.73
687.987	38.67
688.174	38.44
688.36	38.6
688.546	38.76
688.732	39.21
688.918	39.27
689.105	39.11
689.291	39.36
689.477	39.43
689.663	39.38
689.849	39.29
690.035	39.71
690.221	40.12
690.407	40.34
690.593	40.18
690.779	39.92
690.965	39.62
691.151	39.71
691.337	39.63
691.523	39.46
691.709	39.77
691.895	39.86
692.081	39.59
692.267	39.26
692.453	39.43
692.639	39.34
692.825	39.46
693.011	39.7
693.196	40.03
693.382	39.95
693.568	40.01
693.754	40.14
693.94	40.3
694.125	40.15
694.311	39.91
694.497	39.34
694.682	39.46
694.868	39.35
695.054	39.48
695.239	39.22
695.425	39.64
695.611	39.87
695.796	39.64
695.982	39.41
696.168	39.44
696.353	39.66
696.539	39.78
696.724	39.86
696.91	39.69
697.095	39.68
697.281	39.55
697.466	39.49
697.652	39.27
697.837	39.4
698.023	39.43
698.208	39.5
698.393	39.31
698.579	39.58
698.764	39.55
698.949	39.73
699.135	39.78
699.32	39.85
699.505	39.83
699.691	39.99
699.876	39.87
700.061	39.93
700.246	39.86
700.432	40.1
700.617	39.88
700.802	39.91
700.987	40.09
701.172	39.51
701.358	39.89
701.543	39.77
701.728	39.88
701.913	40.12
702.098	40.02
702.283	40.17
702.468	40.06
702.653	40.48
702.838	40.74
703.023	40.77
703.208	41.54
703.393	41.1
703.578	41.21
703.763	41.23
703.948	41.37
704.133	41.56
704.318	41.85
704.503	42.3
704.688	42.75
704.873	42.96
705.057	43.13
705.242	43.15
705.427	43.67
705.612	43.89
705.797	44.11
705.981	44.14
706.166	44.03
706.351	44.23
706.536	44.62
706.72	44.06
706.905	44.11
707.09	43.94
707.274	44.1
707.459	44.21
707.644	44.41
707.828	44.48
708.013	44.41
708.197	44.87
708.382	44.49
708.567	44.16
708.751	43.92
708.936	43.75
709.12	44.01
709.305	44.01
709.489	43.96
709.673	43.85
709.858	43.92
710.042	43.84
710.227	43.71
710.411	43.92
710.596	43.65
710.78	44.16
710.964	44
711.149	44.01
711.333	43.96
711.517	43.76
711.702	43.64
711.886	43.42
712.07	43.69
712.254	43.6
712.438	43.41
712.623	43.12
712.807	43.17
712.991	43.13
713.175	42.99
713.359	42.76
713.544	42.65
713.728	42.9
713.912	43
714.096	42.35
714.28	42.14
714.464	42.22
714.648	42.67
714.832	42.51
715.016	42.2
715.2	42.01
715.384	42.26
715.568	42.14
715.752	41.79
715.936	41.64
716.12	41.81
716.304	41.86
716.488	41.73
716.671	41.68
716.855	41.82
717.039	42.14
717.223	42.69
717.407	42.62
717.59	42.98
717.774	43.16
717.958	43.09
718.142	43.26
718.325	43.58
718.509	43.73
718.693	43.48
718.877	42.83
719.06	43.03
719.244	42.1
719.428	42.36
719.611	42.07
719.795	41.97
719.978	41.81
720.162	41.97
720.345	41.88
720.529	42.01
720.713	42.33
720.896	42.81
721.08	42.67
721.263	43.18
721.446	42.96
721.63	42.96
721.813	43.03
721.997	43.36
722.18	43.22
722.364	43.46
722.547	43.36
722.73	43.3
722.914	43.43
723.097	43.43
723.28	43.46
723.464	43.17
723.647	43.38
723.83	43.09
724.013	43.13
724.197	43.45
724.38	43.27
724.563	43.16
724.746	42.91
724.929	42.84
725.112	42.91
725.296	42.55
725.479	42.92
725.662	43.05
725.845	43.43
726.028	43.27
726.211	43.71
726.394	43.55
726.577	43.76
726.76	43.87
726.943	43.81
727.126	43.61
727.309	44.24
727.492	44.42
727.675	44.38
727.858	44.38
728.041	44.73
728.224	44.32
728.407	44.5
728.589	44.7
728.772	45.18
728.955	45.17
729.138	45.04
729.321	44.61
729.503	44.3
729.686	44.23
729.869	44.41
730.052	43.79
730.234	43.77
730.417	44.02
730.6	43.94
730.782	43.57
730.965	43.79
731.148	44.31
731.33	44.66
731.513	44.86
731.695	45.15
731.878	45.01
732.061	45.8
732.243	46.38
732.426	45.97
732.608	46.23
732.791	46.41
732.973	46.18
733.156	46.06
733.338	45.47
733.52	45.58
733.703	45.33
733.885	45.8
734.068	45.1
734.25	44.8
734.432	44.79
734.615	44.32
734.797	44.49
734.979	44.78
735.162	44.65
735.344	44.97
735.526	45.11
735.708	45.02
735.891	44.63
736.073	45.01
736.255	44.62
736.437	44.92
736.619	44.99
736.802	45.18
736.984	44.65
737.166	44.8
737.348	45.42
737.53	45.29
737.712	45.44
737.894	45.67
738.076	45.86
738.258	45.54
738.44	45.13
738.622	45.1
738.804	45.01
738.986	45.24
739.168	45.6
739.35	44.93
739.532	44.85
739.714	44.73
739.896	44.68
740.078	44.5
740.259	44.97
740.441	45.49
740.623	45.83
740.805	44.78
740.987	44.91
741.168	44.81
741.35	45.6
741.532	45.74
741.714	46.15
741.895	45.83
742.077	46.05
742.259	45.97
742.44	45.65
742.622	45.49
742.804	46.57
742.985	46.56
743.167	46.63
743.348	46.31
743.53	46.07
743.711	45.7
743.893	46.02
744.075	45.84
744.256	46.29
744.438	46.3
744.619	46.29
744.8	45.88
744.982	45.7
745.163	45.69
745.345	45.76
745.526	46.09
745.707	45.95
745.889	45.76
746.07	45.7
746.252	45.61
746.433	46.28
746.614	46.39
746.795	47.1
746.977	47.31
747.158	46.94
747.339	46.96
747.52	47.49
747.702	47.64
747.883	47.91
748.064	48.4
748.245	47.79
748.426	47.66
748.607	47.99
748.788	47.24
748.97	47.48
749.151	47.42
749.332	47.34
749.513	46.65
749.694	47.24
749.875	47
750.056	46.11
750.237	47.13
750.418	47.46
750.599	46.83
750.78	46.93
750.96	46.35
751.141	46.75
751.322	46.98
751.503	47.35
751.684	46.21
751.865	46.94
752.046	47.42
752.226	46.45
752.407	45.7
752.588	46.36
752.769	46.48
752.949	47.37
753.13	47.23
753.311	47.11
753.492	46.77
753.672	47.47
753.853	46.86
754.034	47.02
754.214	47.76
754.395	48.02
754.575	47.46
754.756	47.64
754.937	46.91
755.117	46.95
755.298	46.45
755.478	46.29
755.659	46.55
755.839	46.83
756.02	46.82
756.2	46.87
756.381	47.34
756.561	47.28
756.741	47.1
756.922	47.03
757.102	46.66
757.283	47.12
757.463	47.54
757.643	47.41
757.823	47.05
758.004	47.08
758.184	46.46
758.364	45.97
758.545	46.31
758.725	46.44
758.905	47.19
759.085	47.27
759.265	47.01
759.446	45.98
759.626	45.82
759.806	45.88
759.986	46.03
760.166	46.22
760.346	45.79
760.526	45.9
760.706	45.77
760.886	45.55
761.066	45.9
761.246	45.79
761.426	46.37
761.606	46.28
761.786	45.7
761.966	45.65
762.146	45.72
762.326	45.84
762.506	45.63
762.686	45.63
762.866	46.14
763.046	45.99
763.225	46.52
763.405	46.35
763.585	46.51
763.765	46.82
763.945	46.65
764.124	46.8
764.304	47.1
764.484	47.24
764.664	47.27
764.843	46.75
765.023	47.02
765.203	46.48
765.382	46.49
765.562	46.82
765.741	46.92
765.921	47.33
766.101	46.97
766.28	46.93
766.46	46.95
766.639	47.34
766.819	47.42
766.998	47.41
767.178	47.61
767.357	47.99
767.537	47.8
767.716	48.31
767.896	48.3
768.075	48.77
768.254	48.78
768.434	49.1
768.613	48.57
768.792	48.26
768.972	47.99
769.151	48.25
769.33	48.14
769.51	48.19
769.689	47.53
769.868	47.56
770.047	46.62
770.226	46.98
770.406	46.19
770.585	46.68
770.764	47.12
770.943	47.04
771.122	46.88
771.301	47.61
771.48	47.65
771.66	47.66
771.839	47.54
772.018	48.48
772.197	48.35
772.376	48.1
772.555	48.42
772.734	47.99
772.913	47.91
773.092	48.1
773.271	47.13
773.449	46.1
773.628	46.44
773.807	46.37
773.986	46.29
774.165	46.76
774.344	47.71
774.523	46.98
774.701	46.79
774.88	46.64
775.059	46.6
775.238	47.13
775.417	47.84
775.595	47.8
775.774	47.95
775.953	47.15
776.131	46.47
776.31	46.88
776.489	47.28
776.667	49
776.846	50.19
777.025	50.85
777.203	51.07
777.382	51.63
777.56	51.58
777.739	51.44
777.917	51.81
778.096	50.76
778.274	49.97
778.453	50.68
778.631	50.05
778.81	48.94
778.988	48.68
779.166	48.61
779.345	48.39
779.523	47.87
779.702	47.67
779.88	49.17
780.058	50.32
780.237	49.95
780.415	50.41
780.593	49.49
780.771	50
780.95	49.54
781.128	49.41
781.306	48.8
781.484	48.95
781.662	49.34
781.841	47.89
782.019	47.43
782.197	47.33
782.375	45.72
782.553	45.96
782.731	45.83
782.909	46.05
783.087	46.18
783.265	46.59
783.443	47.31
783.621	47.14
783.799	48.15
783.977	48.7
784.155	48.56
784.333	49.71
784.511	49.73
784.689	49.72
784.867	48.28
785.045	47.73
785.223	46.89
785.4	45.92
785.578	45.91
785.756	45.67
785.934	45.12
786.112	45.29
786.289	44.58
786.467	44.83
786.645	44.67
786.823	45.67
787	45.31
787.178	46.57
787.356	47.73
787.533	47.54
787.711	46.96
787.889	47.89
788.066	48.08
788.244	48.47
788.421	48.04
788.599	48.26
788.776	48.72
788.954	50.14
789.131	49.61
789.309	49.42
789.486	49.89
789.664	50.05
789.841	50.25
790.019	49.95
790.196	49.46
790.373	49.85
790.551	49.93
790.728	50.46
790.906	50.37
791.083	50.69
791.26	51.06
791.437	50.16
791.615	51.05
791.792	49.08
791.969	49.9
792.146	49.77
792.324	50.24
792.501	50.56
792.678	50.26
792.855	48.28
793.032	48.32
793.209	47.48
793.387	47.74
793.564	47.05
793.741	48.12
793.918	47.62
794.095	48.02
794.272	48.54
794.449	47.39
794.626	47.37
794.803	48.89
794.98	48.45
795.157	47.77
795.334	48.92
795.511	48.78
795.688	48.17
795.864	48.97
796.041	49.17
796.218	48.91
796.395	49.55
796.572	48.96
796.749	49.16
796.925	48.22
797.102	48.58
797.279	47.52
797.456	47.49
797.632	48.28
797.809	47.54
797.986	47.74
798.162	47.07
798.339	46.97
798.516	46.41
798.692	46.12
798.869	46.7
799.046	46.65
799.222	47.36
799.399	47.11
799.575	47.19
799.752	48.03
799.928	48.32
800.105	47.44
800.281	47.76
800.458	48.22
800.634	48.46
800.811	48.94
800.987	50.2
801.163	49.2
801.34	49.26
801.516	48.16
801.692	47.47
801.869	47.23
802.045	48.72
802.221	48.3
802.398	49.15
802.574	48.01
802.75	49.06
802.926	48.97
803.103	50.4
803.279	50.46
803.455	50.64
803.631	51.49
803.807	51.64
803.983	51.81
804.16	52.59
804.336	51.77
804.512	52.49
804.688	51.48
804.864	50.74
805.04	50.78
805.216	50.03
805.392	51.83
805.568	51.66
805.744	51.49
805.92	49.41
806.096	49.22
806.272	51.15
806.448	50.62
806.623	51.12
806.799	51.49
806.975	50.92
807.151	50.39
807.327	49.55
807.503	48.72
807.678	47.89
807.854	49.2
808.03	49.78
808.206	48.01
808.381	49.24
808.557	47
808.733	45.76
808.908	44.94
809.084	45.57
809.26	45.07
809.435	44.9
809.611	45.73
809.787	46.72
809.962	45.3
810.138	45.16
810.313	44.78
810.489	45.64
810.664	46.25
810.84	46.77
811.015	47.77
811.191	48.25
811.366	48.19
811.542	47.74
811.717	47.43
811.892	48.18
812.068	49.15
812.243	50.02
812.419	50.5
812.594	49.62
812.769	49.93
812.944	50.39
813.12	50.95
813.295	51.39
813.47	50.52
813.645	49.05
813.821	48.96
813.996	48.08
814.171	47.72
814.346	48.8
814.521	49.93
814.697	50.16
814.872	49.96
815.047	49.64
815.222	49.77
815.397	48.96
815.572	50.07
815.747	50.38
815.922	50.98
816.097	48.67
816.272	47.98
816.447	48.64
816.622	49.6
816.797	49.1
816.972	48.53
817.147	48.89
817.322	51.17
817.496	50.57
817.671	50.2
817.846	49
818.021	50.47
818.196	50.45
818.371	49.74
818.545	48.4
818.72	49.41
818.895	49.74
819.069	48.93
819.244	48.63
819.419	48.07
819.594	47.91
819.768	48.5
819.943	48.54
820.117	47.82
820.292	46.29
820.467	45.99
820.641	45.47
820.816	45.08
820.99	45
821.165	44.3
821.339	44.6
821.514	44.24
821.688	43.89
821.863	43.73
822.037	43.91
822.212	44.38
822.386	44.57
822.56	44.18
822.735	44.23
822.909	44.22
823.084	44.38
823.258	44.16
823.432	44.22
823.606	44.46
823.781	44.36
823.955	44.13
824.129	44.01
824.303	43.59
824.478	43.87
824.652	43.86
824.826	43.79
825	43.46
825.174	43.87
825.348	44.22
825.523	44.07
825.697	44.32
825.871	44.88
826.045	44.86
826.219	45.21
826.393	44.95
826.567	44.84
826.741	44.85
826.915	45.24
827.089	44.88
827.263	44.53
827.437	44.22
827.611	44.25
827.784	43.79
827.958	43.42
828.132	43.22
828.306	43.52
828.48	43.53
828.654	43.02
828.827	42.56
829.001	42.84
829.175	43.07
829.349	43.23
829.522	43.26
829.696	43.24
829.87	44.1
830.044	45.5
830.217	45.5
830.391	45.32
830.565	46.96
830.738	48.02
830.912	47.67
831.085	47.5
831.259	49.04
831.432	47.75
831.606	49.08
831.779	48.45
831.953	47.22
832.126	46.66
832.3	47.35
832.473	46.7
832.647	46.63
832.82	45.99
832.994	45.92
833.167	45.31
833.34	46.04
833.514	45.55
833.687	45.54
833.86	44.91
834.034	45.54
834.207	44.98
834.38	44.74
834.553	44.12
834.727	43.95
834.9	43.7
835.073	43.57
835.246	43.02
835.419	43.51
835.593	43.4
835.766	43.98
835.939	44.63
836.112	45.48
836.285	45.83
836.458	46.27
836.631	46.8
836.804	48.21
836.977	49.32
837.15	50.77
837.323	50.43
837.496	53.63
837.669	54.98
837.842	53.87
838.015	52.59
838.188	54.03
838.361	54.66
838.533	57.51
838.706	57.23
838.879	56.76
839.052	55.28
839.225	54.29
839.398	51.48
839.57	51.02
839.743	51.37
839.916	50.62
840.088	49.59
840.261	48.8
840.434	46.6
840.607	46.2
840.779	45.78
840.952	46.1
841.124	46.97
841.297	47.81
841.47	44.63
841.642	43.93
841.815	45.41
841.987	46.64
842.16	45.93
842.332	46.23
842.505	47.91
842.677	49.14
842.85	51.04
843.022	51.31
843.194	50.12
843.367	55.88
843.539	57.05
843.712	58.17
843.884	58.02
844.056	62.19
844.229	64.96
844.401	64.51
844.573	64.09
844.745	62.44
844.918	63.85
845.09	63.47
845.262	60.83
845.434	61.5
845.606	61.82
845.779	59.9
845.951	58.26
846.123	56.77
846.295	57.43
846.467	54.06
846.639	55.05
846.811	54.64
846.983	56.44
847.155	55.83
847.327	54.04
847.499	50.26
847.671	51.3
847.843	51.26
848.015	49.96
848.187	47.92
848.359	49.96
848.531	52.85
848.703	53.71
848.875	52.06
849.047	50.86
849.218	50.32
849.39	52.27
849.562	52.72
849.734	51.26
849.905	50.64
850.077	51.65
850.249	53.99
850.421	51.29
850.592	47.42
850.764	51.53
850.936	52.75
851.107	56.62
851.279	58.84
851.451	61.75
851.622	64.83
851.794	63.86
851.965	62.39
852.137	55.01
852.308	52.24
852.48	56.34
852.651	52.03
852.823	55.69
852.994	56.26
853.166	55.38
853.337	51.91
853.509	51.74
853.68	56.86
853.851	60.04
854.023	66.92
854.194	70.2
854.365	67.14
854.537	67.39
854.708	62.32
854.879	58.99
855.05	59.69
855.222	62.79
855.393	63.28
855.564	63.58
855.735	55.57
855.906	56.83
856.078	58.34
856.249	58.25
856.42	54.39
856.591	56.17
856.762	58.12
856.933	53.64
857.104	52.18
857.275	51.31
857.446	51.67
857.617	54.8
857.788	54.5
857.959	55.11
858.13	54.5
858.301	59.02
858.472	57.1
858.643	56.01
858.814	61.75
858.985	62.78
859.155	58.57
859.326	56.34
859.497	57.39
859.668	58.73
859.839	55.51
860.009	56.34
860.18	57.08
860.351	57.53
860.522	59.1
860.692	58.87
860.863	56.59
861.034	58.32
861.204	56.5
861.375	56.09
861.546	51.35
861.716	50.27
861.887	52.19
862.057	52.42
862.228	55.6
862.398	55.33
862.569	53.81
862.739	54.15
862.91	58.79
863.08	61.78
863.251	69.36
863.421	72.59
863.592	73.82
863.762	72.03
863.932	72.1
864.103	69.24
864.273	65.51
864.443	66.97
864.614	68.8
864.784	66.76
864.954	66.87
865.125	61.14
865.295	60.06
865.465	56.21
865.635	59.67
865.805	55.02
865.976	55.09
866.146	56.69
866.316	56.66
866.486	52.23
866.656	52.77
866.826	51.5
866.996	50.38
867.166	48.71
867.336	51.8
867.506	49.76
867.676	52.94
867.846	53.42
868.016	54.02
868.186	51.92
868.356	55.22
868.526	57.05
868.696	58.39
868.866	54.62
869.036	56.74
869.206	55.28
869.376	56.37
869.545	54.12
869.715	55.42
869.885	56.56
870.055	55.85
870.224	55.66
870.394	53.59
870.564	55.69
870.734	62.84
870.903	63.82
871.073	66.89
871.243	65.5
871.412	68.35
871.582	69.42
871.751	64.39
871.921	67.43
872.091	71.65
872.26	70.86
872.43	65.07
872.599	56.46
872.769	52.15
872.938	51.45
873.108	52.59
873.277	53.24
873.446	53.66
873.616	52.11
873.785	49.76
873.955	43.85
874.124	42.73
874.293	44.71
874.463	48.32
874.632	52.48
874.801	53.98
874.971	50.63
875.14	46.53
875.309	47.03
875.478	48.66
875.647	51.86
875.817	55.25
875.986	59.68
876.155	51.56
876.324	50.44
876.493	47.63
876.662	44.48
876.831	42.94
877	44.71
877.17	43.04
877.339	45.17
877.508	45.77
877.677	44.71
877.846	38.44
878.015	43.44
878.184	46.4
878.352	44.55
878.521	41.19
878.69	45.61
878.859	45.6
879.028	49.11
879.197	48.52
879.366	43.87
879.534	42.48
879.703	42.53
879.872	43.46
880.041	43.04
880.21	44.38
880.378	44.77
880.547	44.11
880.716	43.66
880.884	40.99
881.053	39.59
881.222	39.78
881.39	39.95
881.559	40.72
881.727	39.99
881.896	39.51
882.065	38.52
882.233	38.97
882.402	39.19
882.57	38.11
882.739	38.14
882.907	38.76
883.076	38.95
883.244	38.74
883.412	38.4
883.581	38.72
883.749	38.6
883.918	39.09
884.086	38.39
884.254	37.75
884.423	38.67
884.591	38.47
884.759	38.57
884.927	39.04
885.096	38.77
885.264	39.06
885.432	40.04
885.6	38.31
885.769	37.82
885.937	37.48
886.105	37.5
886.273	38.62
886.441	40.48
886.609	41.59
886.777	42.46
886.945	45.87
887.113	46.06
887.281	45.81
887.449	49.09
887.617	50.01
887.785	51.2
887.953	50.67
888.121	52.8
888.289	51.56
888.457	49.69
888.625	51.22
888.793	52.73
888.961	54.93
889.129	52.15
889.296	53.67
889.464	55.25
889.632	57.77
889.8	62.48
889.967	57.05
890.135	61.65
