Data from 2938755__Reflection_03.txt Node
Date: Fri Mar 13 19:07:43 EDT 2015
User: robert
Spectrometer: USB4E03002
Autoset integration time: false
Trigger mode: 4
Integration Time (sec): 1.000000E-1
Scans to average: 10
Electric dark correction enabled: false
Nonlinearity correction enabled: false
Boxcar width: 5
Stray light correction enabled: false
XAxis mode: Wavelengths
Stop averaging: false
Number of Pixels in Spectrum: 3648
>>>>>Begin Spectral Data<<<<<
177.575	-32.95
177.794	-942.86
178.014	74.14
178.233	181.08
178.452	-1100
178.672	-8.67
178.891	-153.76
179.11	-124.72
179.33	36.59
179.549	107.23
179.768	85.17
179.987	69.89
180.207	-13.64
180.426	136.81
180.645	365
180.864	60.95
181.084	-1.29
181.303	-1.17
181.522	4.05
181.741	88.99
181.96	83.59
182.179	82.37
182.398	95.61
182.618	116.09
182.837	107.83
183.056	119.92
183.275	61.41
183.494	73.72
183.713	71.43
183.932	100
184.151	15300
184.37	120.89
184.589	132.73
184.808	87.13
185.027	98.16
185.246	61.69
185.465	24.6
185.684	24.21
185.903	9.27
186.122	36.04
186.341	-192.25
186.56	3215.38
186.779	166.67
186.998	192.72
187.216	148.03
187.435	179.18
187.654	150.1
187.873	127.14
188.092	113.54
188.311	131.84
188.53	164.84
188.748	124.12
188.967	129.72
189.186	302.55
189.405	-105.88
189.623	-49.81
189.842	-140.11
190.061	-111.58
190.28	2.6
190.498	-2.59
190.717	-24.65
190.936	38.34
191.154	67.64
191.373	67.58
191.592	70.37
191.81	-768.75
192.029	-480
192.248	-208.28
192.466	-105.74
192.685	-52.98
192.904	-239.05
193.122	-770.21
193.341	-744.74
193.559	-926.92
193.778	1154.55
193.996	145.39
194.215	104.95
194.433	170.09
194.652	56.94
194.87	1000
195.089	9.76
195.307	341.94
195.526	38.54
195.744	32.45
195.963	25.57
196.181	31.05
196.399	44.63
196.618	45.02
196.836	62.61
197.055	25.31
197.273	-38.22
197.491	-11.21
197.71	22.87
197.928	63.92
198.146	87.18
198.365	260.61
198.583	154.17
198.801	59.86
199.019	35.4
199.238	29.15
199.456	82.03
199.674	114.92
199.892	159.8
200.111	180.14
200.329	135.44
200.547	192.89
200.765	139.37
200.983	149.64
201.202	140.8
201.42	197.41
201.638	177.26
201.856	142.65
202.074	119.29
202.292	49.14
202.51	75.09
202.728	59.72
202.946	56.32
203.165	70.19
203.383	3.09
203.601	-142.39
203.819	-19.18
204.037	-9.29
204.255	7.69
204.473	20.68
204.691	40.29
204.909	38.19
205.127	26.96
205.345	12.6
205.562	19.06
205.78	-15.46
205.998	8.82
206.216	31.81
206.434	45.36
206.652	46.42
206.87	45.18
207.088	36.34
207.306	13.75
207.523	7.27
207.741	25.08
207.959	19.94
208.177	48.22
208.395	55.35
208.612	53.42
208.83	49.46
209.048	41.2
209.266	31.32
209.483	36.92
209.701	50.99
209.919	58.33
210.136	54.38
210.354	41.67
210.572	38.5
210.79	31.95
211.007	48.47
211.225	34.97
211.442	8.78
211.66	37.35
211.878	36.79
212.095	65.71
212.313	74.86
212.53	82.33
212.748	111.59
212.966	103.14
213.183	122.27
213.401	82.25
213.618	89.55
213.836	136.69
214.053	209.36
214.271	181.16
214.488	115.25
214.705	67.28
214.923	50.38
215.14	29.08
215.358	31.84
215.575	28.96
215.793	25.78
216.01	45.61
216.227	49.31
216.445	43.62
216.662	39.24
216.879	46.66
217.097	45.41
217.314	44.33
217.531	62.61
217.749	55.15
217.966	45.42
218.183	55.82
218.4	33.19
218.618	37.58
218.835	36.78
219.052	29.11
219.269	21.14
219.487	33.44
219.704	29.6
219.921	25.2
220.138	28.07
220.355	24.97
220.572	22.5
220.79	19.96
221.007	17.46
221.224	7.69
221.441	14.37
221.658	10.52
221.875	12.08
222.092	23.39
222.309	18.74
222.526	11.81
222.743	9.32
222.96	9.74
223.177	12.4
223.394	13.26
223.611	17.14
223.828	18.53
224.045	20.49
224.262	17.51
224.479	12.25
224.696	14.19
224.913	11
225.13	11.69
225.347	6.82
225.564	8.11
225.781	6.28
225.997	7.76
226.214	6.41
226.431	5.53
226.648	6.94
226.865	5.71
227.082	3.88
227.298	5.86
227.515	7.34
227.732	7.66
227.949	6.2
228.165	6.65
228.382	7.23
228.599	6.94
228.816	6.57
229.032	6.79
229.249	6.33
229.466	7.11
229.682	7.67
229.899	7.99
230.116	6.97
230.332	6.37
230.549	6.41
230.765	4.49
230.982	4.97
231.199	5.86
231.415	5.53
231.632	6.82
231.848	6
232.065	3.92
232.281	2.83
232.498	4.78
232.714	7.45
232.931	6.48
233.147	7.77
233.364	8.24
233.58	7.89
233.797	6.18
234.013	5.64
234.23	4.85
234.446	6.47
234.662	4.95
234.879	4.32
235.095	5.35
235.312	6.01
235.528	6.19
235.744	3.57
235.961	3.61
236.177	4.46
236.393	4.79
236.61	6.02
236.826	5.87
237.042	7.25
237.258	8.29
237.475	8.27
237.691	8.23
237.907	8.68
238.123	10.32
238.339	9.86
238.556	9.31
238.772	7.63
238.988	7.7
239.204	8.16
239.42	8.36
239.636	8.52
239.853	7.69
240.069	7.73
240.285	7.04
240.501	6.3
240.717	5.36
240.933	5.28
241.149	6.14
241.365	5.57
241.581	5.68
241.797	5.68
242.013	5.07
242.229	4.86
242.445	4.05
242.661	3.44
242.877	3.57
243.093	4.19
243.309	4.61
243.525	4.1
243.741	3.81
243.957	3.6
244.173	3.21
244.388	3.39
244.604	2.49
244.82	3.4
245.036	4
245.252	3.51
245.468	3.33
245.683	3.18
245.899	3.52
246.115	4.15
246.331	3.99
246.547	4.59
246.762	4.55
246.978	4.79
247.194	4.54
247.409	4.63
247.625	4.53
247.841	4.34
248.057	4.23
248.272	4.48
248.488	4.16
248.703	4.13
248.919	3.25
249.135	3.38
249.35	3.1
249.566	3.38
249.782	3.69
249.997	4.75
250.213	4.82
250.428	4.96
250.644	4.52
250.859	4.82
251.075	4.76
251.29	5.19
251.506	4.33
251.721	5.12
251.937	5.38
252.152	4.83
252.368	4.67
252.583	4.88
252.798	5.2
253.014	5.08
253.229	5.3
253.445	5.1
253.66	5.05
253.875	5.57
254.091	6.18
254.306	5.92
254.521	6.01
254.737	5.7
254.952	5.63
255.167	5.61
255.383	5.61
255.598	5.31
255.813	5.44
256.028	5.3
256.244	5.53
256.459	4.48
256.674	4.15
256.889	4.23
257.104	3.96
257.32	4.25
257.535	3.31
257.75	3.47
257.965	2.81
258.18	2.67
258.395	2.71
258.61	2.19
258.826	1.71
259.041	1.56
259.256	1.39
259.471	1.47
259.686	1.21
259.901	1.43
260.116	1.36
260.331	1.46
260.546	1.66
260.761	1.52
260.976	1.87
261.191	2.24
261.406	2.59
261.621	2.68
261.836	2.52
262.05	2.41
262.265	2.05
262.48	1.99
262.695	1.93
262.91	2.31
263.125	2.47
263.34	2.14
263.555	2
263.769	1.46
263.984	1.46
264.199	1.81
264.414	2.91
264.629	3.43
264.843	3.41
265.058	4.52
265.273	3.88
265.488	3.88
265.702	3.43
265.917	3.39
266.132	3.32
266.346	3.36
266.561	3.49
266.776	3.15
266.99	3.84
267.205	3.61
267.42	2.86
267.634	3.1
267.849	3.15
268.063	3.46
268.278	3.3
268.492	3.3
268.707	3.42
268.922	3.52
269.136	3.26
269.351	2.86
269.565	2.63
269.78	2.84
269.994	2.72
270.209	2.52
270.423	2.28
270.637	2.53
270.852	2.58
271.066	2.44
271.281	2.18
271.495	2.12
271.709	1.88
271.924	2.08
272.138	2.33
272.353	2.42
272.567	2.35
272.781	2.57
272.996	2.31
273.21	2.48
273.424	2.56
273.638	2.65
273.853	3.03
274.067	3.05
274.281	2.97
274.495	2.73
274.71	2.45
274.924	2.83
275.138	2.85
275.352	2.8
275.566	2.72
275.781	2.79
275.995	2.67
276.209	2.83
276.423	2.5
276.637	2.8
276.851	2.79
277.065	2.6
277.279	2.3
277.493	2
277.707	2.02
277.921	1.55
278.135	1.62
278.349	1.76
278.563	1.84
278.777	2.41
278.991	1.99
279.205	2.04
279.419	2.2
279.633	2.72
279.847	2.89
280.061	2.96
280.275	3.44
280.489	3.04
280.703	3.14
280.917	2.74
281.131	2.43
281.344	2.48
281.558	2.62
281.772	2.53
281.986	2.43
282.2	2.35
282.414	2.26
282.627	2.42
282.841	2.64
283.055	2.5
283.269	2.34
283.482	2.62
283.696	2.89
283.91	2.28
284.123	2.33
284.337	2.21
284.551	2.25
284.764	2.16
284.978	2.12
285.192	1.73
285.405	1.78
285.619	1.8
285.833	1.75
286.046	1.6
286.26	1.81
286.473	1.96
286.687	1.84
286.9	1.94
287.114	2.19
287.327	2.19
287.541	2.75
287.754	2.84
287.968	3.04
288.181	2.82
288.395	2.99
288.608	3
288.822	3.01
289.035	2.92
289.248	2.66
289.462	2.46
289.675	2.22
289.889	1.85
290.102	1.79
290.315	1.74
290.529	2.06
290.742	2.02
290.955	2.4
291.169	2.32
291.382	2.6
291.595	3.12
291.808	3.34
292.022	3.35
292.235	3.73
292.448	3.77
292.661	3.8
292.875	3.53
293.088	3.33
293.301	3.16
293.514	2.91
293.727	2.76
293.94	2.52
294.153	2.7
294.367	2.83
294.58	2.63
294.793	2.68
295.006	2.63
295.219	2.45
295.432	2.49
295.645	2.39
295.858	2.6
296.071	2.75
296.284	2.89
296.497	2.86
296.71	2.72
296.923	2.79
297.136	2.73
297.349	2.9
297.562	2.99
297.775	3.05
297.988	3.31
298.201	3.37
298.414	3.15
298.626	3.07
298.839	2.78
299.052	3.07
299.265	3.06
299.478	2.91
299.691	2.84
299.903	2.67
300.116	2.73
300.329	2.49
300.542	2.49
300.755	2.51
300.967	2.62
301.18	2.81
301.393	2.46
301.605	2.23
301.818	2.26
302.031	2.14
302.243	2.47
302.456	2.5
302.669	2.25
302.881	2.21
303.094	2.61
303.307	2.31
303.519	2.47
303.732	2.5
303.944	2.94
304.157	2.81
304.37	2.81
304.582	2.84
304.795	2.71
305.007	3.05
305.22	2.88
305.432	2.77
305.645	2.62
305.857	2.64
306.069	3.21
306.282	3.01
306.494	3.6
306.707	3.63
306.919	4
307.132	4
307.344	3.65
307.556	3.95
307.769	3.97
307.981	4.17
308.193	4.34
308.406	4.06
308.618	4.13
308.83	3.99
309.043	4.15
309.255	3.87
309.467	3.88
309.679	4.14
309.892	4.18
310.104	3.91
310.316	3.73
310.528	3.49
310.74	3.46
310.953	3.12
311.165	2.87
311.377	3.02
311.589	3.23
311.801	3.49
312.013	3.46
312.225	3.28
312.437	3.5
312.649	3.59
312.862	3.98
313.074	4.06
313.286	4.62
313.498	5.09
313.71	4.8
313.922	4.63
314.134	4.44
314.346	4.73
314.558	4.87
314.77	5.03
314.982	5.16
315.193	4.72
315.405	4.73
315.617	5.02
315.829	4.51
316.041	4.94
316.253	5.03
316.465	5.25
316.677	5.04
316.888	4.65
317.1	4.46
317.312	4.85
317.524	4.53
317.736	4.48
317.947	3.51
318.159	3.55
318.371	3.4
318.583	3.06
318.794	2.78
319.006	3.27
319.218	3.41
319.43	3.55
319.641	3.23
319.853	3.31
320.064	3.38
320.276	3.62
320.488	4.26
320.699	3.89
320.911	4.03
321.123	4.63
321.334	4.29
321.546	4.06
321.757	3.89
321.969	4.03
322.18	3.98
322.392	4.1
322.603	4.53
322.815	4.3
323.026	4.3
323.238	4.71
323.449	3.94
323.661	3.37
323.872	4.02
324.083	4.01
324.295	4.16
324.506	4.58
324.718	4.59
324.929	4.88
325.14	4.99
325.352	5.18
325.563	5.09
325.774	5.35
325.986	5.73
326.197	5.74
326.408	6.11
326.62	6.26
326.831	6.19
327.042	6.26
327.253	6.06
327.464	6.27
327.676	6.51
327.887	6.75
328.098	7
328.309	7.03
328.52	7.21
328.732	7.43
328.943	7.12
329.154	7.24
329.365	6.91
329.576	7.2
329.787	7.05
329.998	6.95
330.209	6.72
330.42	6.77
330.631	6.97
330.842	7.12
331.053	6.74
331.264	6.93
331.475	6.83
331.686	7.53
331.897	7.19
332.108	7.2
332.319	7.24
332.53	7.36
332.741	7.34
332.952	7.1
333.163	6.87
333.374	7.42
333.585	7.35
333.795	7.82
334.006	7.06
334.217	7.23
334.428	6.98
334.639	7.26
334.849	7.27
335.06	7.3
335.271	7.5
335.482	7.5
335.692	7.1
335.903	7.17
336.114	7.04
336.325	7.65
336.535	7.41
336.746	7.74
336.957	7.25
337.167	7.02
337.378	7.05
337.589	7.41
337.799	7
338.01	6.87
338.22	6.83
338.431	6.55
338.642	6.48
338.852	6.6
339.063	6.36
339.273	6.84
339.484	6.85
339.694	6.8
339.905	6.26
340.115	6.76
340.326	6.65
340.536	6.62
340.746	6.7
340.957	6.67
341.167	6.55
341.378	6.82
341.588	6.36
341.799	6.18
342.009	6.08
342.219	6.52
342.43	6.48
342.64	6.39
342.85	6.59
343.061	6.77
343.271	6.66
343.481	6.61
343.691	6.54
343.902	6.97
344.112	7.35
344.322	7.46
344.532	7.19
344.743	7.02
344.953	7.12
345.163	7.12
345.373	6.93
345.583	6.97
345.793	7.24
346.004	7.12
346.214	6.68
346.424	6.75
346.634	6.8
346.844	6.82
347.054	6.82
347.264	6.7
347.474	6.8
347.684	6.89
347.894	6.93
348.104	7.14
348.314	7.04
348.524	7.47
348.734	7.33
348.944	7.15
349.154	7.42
349.364	7.48
349.574	7.74
349.784	7.76
349.994	7.86
350.204	7.76
350.413	7.38
350.623	7.57
350.833	7.14
351.043	7.43
351.253	7.81
351.463	7.6
351.672	7.41
351.882	7.38
352.092	7.2
352.302	7.14
352.511	7.13
352.721	7.4
352.931	7.28
353.141	7.41
353.35	6.92
353.56	6.72
353.77	6.43
353.979	6.47
354.189	6.01
354.399	5.86
354.608	5.6
354.818	5.48
355.027	5.15
355.237	5.1
355.447	5.2
355.656	5.23
355.866	5.15
356.075	5.31
356.285	5.29
356.494	5.64
356.704	5.76
356.913	6.14
357.123	6.1
357.332	6.16
357.542	6.3
357.751	6.23
357.96	6.36
358.17	6.56
358.379	6.63
358.589	6.69
358.798	6.8
359.007	6.96
359.217	6.71
359.426	6.78
359.635	6.77
359.845	6.76
360.054	6.69
360.263	6.72
360.472	6.43
360.682	6.29
360.891	6.28
361.1	6.26
361.309	6.09
361.519	5.81
361.728	5.77
361.937	5.64
362.146	5.44
362.355	5.53
362.564	5.47
362.774	5.42
362.983	5.4
363.192	5.21
363.401	5.08
363.61	5.04
363.819	5.35
364.028	5.68
364.237	5.66
364.446	5.73
364.655	5.85
364.864	5.63
365.073	5.78
365.282	6.09
365.491	6.26
365.7	6.41
365.909	6.57
366.118	6.56
366.327	6.25
366.536	6.38
366.745	6.52
366.954	6.16
367.162	6.38
367.371	6.33
367.58	6.07
367.789	5.99
367.998	5.8
368.207	5.75
368.415	5.46
368.624	5.42
368.833	5.37
369.042	5.26
369.25	5.38
369.459	5.17
369.668	5.16
369.877	5.08
370.085	5.32
370.294	5.56
370.503	5.51
370.711	5.71
370.92	5.75
371.129	5.69
371.337	5.71
371.546	5.9
371.754	5.9
371.963	5.73
372.171	5.65
372.38	5.63
372.589	5.48
372.797	5.36
373.006	5.54
373.214	5.5
373.423	5.7
373.631	6.02
373.84	5.83
374.048	5.76
374.256	6.16
374.465	5.92
374.673	5.74
374.882	5.85
375.09	5.8
375.298	5.53
375.507	5.74
375.715	5.45
375.923	5.24
376.132	5.45
376.34	5.43
376.548	5.17
376.757	5.64
376.965	5.71
377.173	5.38
377.381	5.42
377.59	5.41
377.798	5.12
378.006	5.38
378.214	5.26
378.423	4.92
378.631	5.1
378.839	5.14
379.047	5.06
379.255	4.83
379.463	5.02
379.671	4.99
379.879	5.02
380.088	5.04
380.296	4.95
380.504	4.79
380.712	4.75
380.92	4.6
381.128	4.51
381.336	4.34
381.544	4.61
381.752	4.43
381.96	4.32
382.168	4.47
382.376	4.53
382.584	4.58
382.791	4.77
382.999	5.12
383.207	5.23
383.415	5.05
383.623	5.1
383.831	5.01
384.039	5.27
384.247	5.31
384.454	5.2
384.662	4.92
384.87	4.69
385.078	4.47
385.285	4.17
385.493	4.07
385.701	4.16
385.909	4.19
386.116	4.23
386.324	4.19
386.532	4.14
386.739	3.92
386.947	4.19
387.155	4.17
387.362	4.22
387.57	4.32
387.778	4.37
387.985	4.38
388.193	4.22
388.4	4.09
388.608	3.88
388.816	4.06
389.023	4.3
389.231	4.27
389.438	4.48
389.646	4.7
389.853	4.6
390.061	4.5
390.268	4.36
390.475	4.42
390.683	4.45
390.89	4.46
391.098	4.35
391.305	4.2
391.512	4.07
391.72	4.02
391.927	3.95
392.135	3.85
392.342	3.89
392.549	4.07
392.756	4.19
392.964	4.15
393.171	4.23
393.378	4.32
393.586	4.36
393.793	4.58
394	4.45
394.207	4.29
394.414	4.45
394.622	4.27
394.829	4.16
395.036	3.95
395.243	4.01
395.45	3.92
395.657	3.67
395.864	3.78
396.072	3.63
396.279	3.77
396.486	3.89
396.693	3.75
396.9	3.82
397.107	3.89
397.314	3.99
397.521	4.01
397.728	3.95
397.935	3.9
398.142	3.69
398.349	3.54
398.556	3.58
398.763	3.47
398.97	3.5
399.177	3.58
399.383	3.68
399.59	3.71
399.797	3.77
400.004	3.9
400.211	3.89
400.418	3.96
400.625	4.18
400.831	3.91
401.038	3.96
401.245	4.14
401.452	4.18
401.658	3.9
401.865	3.92
402.072	3.55
402.279	3.41
402.485	3.52
402.692	3.48
402.899	3.54
403.105	3.8
403.312	3.8
403.519	3.67
403.725	3.55
403.932	3.59
404.138	3.45
404.345	3.6
404.552	3.69
404.758	3.84
404.965	3.93
405.171	3.72
405.378	3.62
405.584	3.58
405.791	3.6
405.997	3.63
406.204	3.67
406.41	3.9
406.617	3.98
406.823	3.8
407.029	3.84
407.236	3.85
407.442	3.88
407.649	3.88
407.855	3.95
408.061	3.81
408.268	3.79
408.474	3.99
408.68	3.87
408.887	3.8
409.093	3.92
409.299	3.94
409.505	3.76
409.712	3.83
409.918	3.91
410.124	3.91
410.33	4.13
410.537	4.21
410.743	4.1
410.949	4.04
411.155	4.11
411.361	4.12
411.567	3.96
411.773	4.1
411.98	4.03
412.186	3.97
412.392	3.96
412.598	3.8
412.804	3.9
413.01	3.92
413.216	3.77
413.422	3.87
413.628	3.87
413.834	3.9
414.04	3.92
414.246	4.12
414.452	4.2
414.658	4.15
414.864	4.2
415.07	4.12
415.275	4.18
415.481	4.33
415.687	4.24
415.893	4.13
416.099	4.1
416.305	4.03
416.511	3.87
416.716	3.75
416.922	3.74
417.128	3.74
417.334	3.82
417.539	3.73
417.745	3.72
417.951	3.69
418.157	3.74
418.362	3.72
418.568	3.8
418.774	3.83
418.979	3.84
419.185	3.99
419.391	3.87
419.596	3.8
419.802	3.85
420.008	3.89
420.213	3.25
420.419	3.29
420.624	3.34
420.83	3.23
421.035	3.26
421.241	3.24
421.446	3.1
421.652	3.15
421.857	3.15
422.063	3.05
422.268	3
422.474	3.61
422.679	3.61
422.885	3.55
423.09	3.73
423.295	3.76
423.501	3.8
423.706	3.85
423.911	3.9
424.117	3.91
424.322	3.97
424.527	4.01
424.733	4.02
424.938	4.07
425.143	4.1
425.349	3.94
425.554	3.88
425.759	3.77
425.964	3.83
426.169	3.86
426.375	3.85
426.58	3.89
426.785	3.88
426.99	3.9
427.195	3.87
427.4	3.85
427.605	4
427.811	4.06
428.016	4.21
428.221	4.13
428.426	4.15
428.631	4.2
428.836	4.27
429.041	4.22
429.246	4.16
429.451	4.24
429.656	4.19
429.861	4.17
430.066	4.17
430.271	4.21
430.476	4.18
430.681	4.13
430.886	4.14
431.09	4.1
431.295	4.1
431.5	4.13
431.705	4.07
431.91	4.12
432.115	4.07
432.32	4.04
432.524	3.95
432.729	3.9
432.934	3.89
433.139	3.93
433.343	3.86
433.548	4.01
433.753	4.05
433.958	3.98
434.162	3.99
434.367	3.97
434.572	4.11
434.776	4.21
434.981	4.32
435.186	4.41
435.39	4.38
435.595	4.43
435.799	4.3
436.004	4.24
436.209	4.27
436.413	4.36
436.618	4.45
436.822	4.41
437.027	4.44
437.231	4.48
437.436	4.48
437.64	4.47
437.845	4.5
438.049	4.48
438.253	4.56
438.458	4.57
438.662	4.53
438.867	4.47
439.071	4.44
439.275	4.39
439.48	4.35
439.684	4.31
439.888	4.3
440.093	4.26
440.297	4.26
440.501	4.21
440.706	4.34
440.91	4.37
441.114	4.36
441.318	4.37
441.523	4.3
441.727	4.3
441.931	4.32
442.135	4.39
442.339	4.4
442.543	4.4
442.748	4.39
442.952	4.34
443.156	4.28
443.36	4.34
443.564	4.26
443.768	4.33
443.972	4.38
444.176	4.37
444.38	4.39
444.584	4.44
444.788	4.46
444.992	4.49
445.196	4.43
445.4	4.47
445.604	4.46
445.808	4.44
446.012	4.45
446.216	4.39
446.42	4.41
446.624	4.33
446.828	4.27
447.032	4.27
447.235	4.23
447.439	4.27
447.643	4.18
447.847	4.15
448.051	4.2
448.254	4.21
448.458	4.2
448.662	4.16
448.866	4.2
449.069	4.27
449.273	4.24
449.477	4.35
449.681	4.3
449.884	4.33
450.088	4.38
450.292	4.44
450.495	4.39
450.699	4.41
450.902	4.53
451.106	4.44
451.31	4.23
451.513	4.28
451.717	4.23
451.92	4.23
452.124	4.19
452.327	4.2
452.531	4.16
452.734	4.2
452.938	4.26
453.141	4.15
453.345	4.22
453.548	4.41
453.752	4.38
453.955	4.3
454.158	4.32
454.362	4.42
454.565	4.37
454.769	4.36
454.972	4.39
455.175	4.35
455.379	4.37
455.582	4.36
455.785	4.4
455.988	4.48
456.192	4.57
456.395	4.55
456.598	4.47
456.801	4.46
457.005	4.57
457.208	4.53
457.411	4.53
457.614	4.56
457.817	4.42
458.021	4.4
458.224	4.35
458.427	4.39
458.63	4.44
458.833	4.5
459.036	4.51
459.239	4.43
459.442	4.44
459.645	4.51
459.848	4.47
460.051	4.62
460.254	4.63
460.457	4.61
460.66	4.57
460.863	4.54
461.066	4.5
461.269	4.6
461.472	4.56
461.675	4.51
461.878	4.4
462.081	4.39
462.284	4.33
462.486	4.32
462.689	4.4
462.892	4.36
463.095	4.35
463.298	4.39
463.5	4.32
463.703	4.38
463.906	4.39
464.109	4.28
464.311	4.32
464.514	4.22
464.717	4.21
464.92	4.08
465.122	4.1
465.325	4.14
465.528	4.1
465.73	4.02
465.933	3.84
466.135	4.02
466.338	4.17
466.541	4.27
466.743	4.36
466.946	4.35
467.148	4.45
467.351	4.4
467.553	4.46
467.756	4.51
467.958	4.57
468.161	4.78
468.363	4.59
468.566	4.77
468.768	4.68
468.971	4.72
469.173	4.63
469.375	4.71
469.578	4.8
469.78	4.76
469.983	4.76
470.185	4.65
470.387	4.54
470.59	4.54
470.792	4.35
470.994	4.39
471.196	4.32
471.399	4.39
471.601	4.29
471.803	4.28
472.005	4.16
472.208	4.13
472.41	4.29
472.612	4.33
472.814	4.38
473.016	4.43
473.218	4.31
473.421	4.34
473.623	4.35
473.825	4.41
474.027	4.4
474.229	4.55
474.431	4.55
474.633	4.54
474.835	4.55
475.037	4.6
475.239	4.52
475.441	4.66
475.643	4.72
475.845	4.74
476.047	4.65
476.249	4.56
476.451	4.59
476.653	4.67
476.855	4.64
477.057	4.63
477.258	4.59
477.46	4.54
477.662	4.5
477.864	4.48
478.066	4.43
478.268	4.45
478.469	4.55
478.671	4.48
478.873	4.41
479.075	4.34
479.276	4.34
479.478	4.29
479.68	4.28
479.882	4.25
480.083	4.28
480.285	4.3
480.487	4.34
480.688	4.29
480.89	4.31
481.091	4.29
481.293	4.37
481.495	4.4
481.696	4.44
481.898	4.49
482.099	4.51
482.301	4.49
482.502	4.5
482.704	4.49
482.905	4.5
483.107	4.51
483.308	4.51
483.51	4.45
483.711	4.43
483.913	4.44
484.114	4.42
484.315	4.41
484.517	4.38
484.718	4.36
484.92	4.36
485.121	4.35
485.322	4.33
485.524	4.32
485.725	4.39
485.926	4.4
486.127	4.38
486.329	4.39
486.53	4.38
486.731	4.41
486.932	4.44
487.134	4.43
487.335	4.47
487.536	4.46
487.737	4.47
487.938	4.43
488.139	4.42
488.341	4.44
488.542	4.48
488.743	4.48
488.944	4.46
489.145	4.47
489.346	4.47
489.547	4.42
489.748	4.44
489.949	4.46
490.15	4.52
490.351	4.51
490.552	4.51
490.753	4.47
490.954	4.47
491.155	4.47
491.356	4.48
491.557	4.49
491.758	4.49
491.959	4.51
492.159	4.49
492.36	4.45
492.561	4.5
492.762	4.47
492.963	4.5
493.164	4.56
493.364	4.63
493.565	4.62
493.766	4.62
493.967	4.65
494.167	4.66
494.368	4.71
494.569	4.76
494.769	4.75
494.97	4.84
495.171	4.84
495.371	4.79
495.572	4.74
495.773	4.74
495.973	4.76
496.174	4.78
496.375	4.78
496.575	4.85
496.776	4.85
496.976	4.8
497.177	4.77
497.377	4.81
497.578	4.9
497.778	4.93
497.979	4.95
498.179	4.96
498.38	4.97
498.58	4.98
498.78	4.85
498.981	4.85
499.181	4.89
499.382	4.9
499.582	4.83
499.782	4.75
499.983	4.73
500.183	4.77
500.383	4.84
500.584	4.87
500.784	4.83
500.984	4.89
501.184	5.01
501.385	5.09
501.585	5.17
501.785	5.18
501.985	5.29
502.185	5.31
502.386	5.32
502.586	5.28
502.786	5.34
502.986	5.4
503.186	5.51
503.386	5.47
503.586	5.42
503.786	5.35
503.987	5.38
504.187	5.3
504.387	5.37
504.587	5.39
504.787	5.41
504.987	5.47
505.187	5.55
505.387	5.5
505.587	5.59
505.786	5.56
505.986	5.67
506.186	5.76
506.386	5.83
506.586	5.92
506.786	5.89
506.986	5.88
507.186	5.82
507.386	5.78
507.585	5.72
507.785	5.69
507.985	5.78
508.185	5.79
508.384	5.75
508.584	5.77
508.784	5.72
508.984	5.72
509.183	5.81
509.383	5.82
509.583	5.92
509.782	5.98
509.982	5.95
510.182	6.01
510.381	6.09
510.581	6.09
510.781	6.08
510.98	6.16
511.18	6.19
511.379	6.18
511.579	6.21
511.778	6.18
511.978	6.26
512.177	6.36
512.377	6.33
512.576	6.35
512.776	6.51
512.975	6.57
513.175	6.57
513.374	6.63
513.573	6.68
513.773	6.75
513.972	6.82
514.172	6.83
514.371	6.89
514.57	6.92
514.77	6.95
514.969	6.93
515.168	6.96
515.367	7.04
515.567	7.12
515.766	7.13
515.965	7.08
516.164	7.1
516.364	7.23
516.563	7.24
516.762	7.33
516.961	7.36
517.16	7.34
517.359	7.49
517.559	7.55
517.758	7.58
517.957	7.63
518.156	7.75
518.355	7.76
518.554	7.75
518.753	7.84
518.952	7.88
519.151	7.9
519.35	7.96
519.549	7.95
519.748	7.96
519.947	8.05
520.146	8.1
520.345	8.13
520.544	8.21
520.743	8.29
520.942	8.29
521.141	8.31
521.339	8.41
521.538	8.49
521.737	8.56
521.936	8.66
522.135	8.63
522.333	8.65
522.532	8.69
522.731	8.79
522.93	8.86
523.129	8.95
523.327	9.03
523.526	9.14
523.725	9.19
523.923	9.25
524.122	9.26
524.321	9.39
524.519	9.49
524.718	9.53
524.917	9.53
525.115	9.58
525.314	9.59
525.512	9.64
525.711	9.65
525.909	9.62
526.108	9.59
526.306	9.62
526.505	9.63
526.703	9.67
526.902	9.73
527.1	9.77
527.299	9.77
527.497	9.8
527.696	9.82
527.894	9.82
528.092	9.91
528.291	9.96
528.489	10.02
528.688	10.04
528.886	10.06
529.084	10.08
529.283	10.14
529.481	10.17
529.679	10.17
529.877	10.2
530.076	10.26
530.274	10.31
530.472	10.34
530.67	10.35
530.869	10.42
531.067	10.49
531.265	10.56
531.463	10.64
531.661	10.73
531.859	10.89
532.057	10.99
532.255	11.06
532.454	11.08
532.652	11.16
532.85	11.19
533.048	11.25
533.246	11.24
533.444	11.27
533.642	11.25
533.84	11.24
534.038	11.27
534.236	11.3
534.434	11.32
534.632	11.34
534.83	11.38
535.027	11.47
535.225	11.5
535.423	11.6
535.621	11.61
535.819	11.69
536.017	11.72
536.215	11.72
536.412	11.72
536.61	11.81
536.808	11.9
537.006	11.95
537.203	11.93
537.401	12.02
537.599	12.06
537.797	12.15
537.994	12.22
538.192	12.39
538.39	12.57
538.587	12.7
538.785	12.79
538.983	12.93
539.18	13.1
539.378	13.29
539.575	13.35
539.773	13.47
539.97	13.6
540.168	13.69
540.366	13.8
540.563	13.8
540.761	13.89
540.958	13.98
541.155	14
541.353	13.98
541.55	13.98
541.748	14.04
541.945	14.08
542.143	14.15
542.34	14.22
542.537	14.19
542.735	14.34
542.932	14.36
543.129	14.41
543.327	14.55
543.524	14.78
543.721	15.03
543.919	15.28
544.116	15.55
544.313	15.77
544.51	16.02
544.708	16.37
544.905	16.61
545.102	16.91
545.299	17.18
545.496	17.34
545.693	17.52
545.891	17.59
546.088	17.54
546.285	17.46
546.482	17.44
546.679	17.33
546.876	17.21
547.073	17.05
547.27	16.89
547.467	16.75
547.664	16.7
547.861	16.52
548.058	16.33
548.255	16.33
548.452	16.33
548.649	16.26
548.846	16.24
549.043	16.15
549.24	16.11
549.437	16.24
549.633	16.15
549.83	16.06
550.027	15.9
550.224	15.9
550.421	15.79
550.618	15.72
550.814	15.69
551.011	15.73
551.208	15.92
551.405	15.97
551.601	15.92
551.798	15.96
551.995	15.92
552.191	15.98
552.388	15.91
552.585	15.9
552.781	15.86
552.978	15.82
553.175	15.78
553.371	15.7
553.568	15.68
553.764	15.63
553.961	15.58
554.157	15.61
554.354	15.71
554.55	15.77
554.747	15.84
554.943	15.86
555.14	15.87
555.336	15.99
555.533	15.91
555.729	15.97
555.926	15.99
556.122	16.05
556.318	15.96
556.515	16.04
556.711	16.23
556.907	16.2
557.104	16.19
557.3	16.15
557.496	16.03
557.693	16.07
557.889	16.11
558.085	16.12
558.281	16.1
558.478	16.2
558.674	16.03
558.87	15.95
559.066	16.09
559.262	16.22
559.459	16.41
559.655	16.48
559.851	16.43
560.047	16.41
560.243	16.38
560.439	16.44
560.635	16.59
560.831	16.71
561.027	16.72
561.223	16.69
561.419	16.76
561.615	16.91
561.811	16.98
562.007	17.01
562.203	17.07
562.399	17.09
562.595	17.17
562.791	17.19
562.987	17.2
563.183	17.17
563.379	17.26
563.575	17.14
563.771	17.04
563.966	17.13
564.162	17.13
564.358	17.15
564.554	17.23
564.75	17.33
564.945	17.3
565.141	17.4
565.337	17.55
565.533	17.57
565.728	17.62
565.924	17.68
566.12	17.71
566.315	17.82
566.511	17.76
566.707	17.87
566.902	17.77
567.098	17.89
567.293	17.84
567.489	17.77
567.684	17.78
567.88	17.84
568.076	17.84
568.271	17.83
568.467	17.87
568.662	18
568.858	17.97
569.053	18.01
569.248	18.01
569.444	18.14
569.639	18.29
569.835	18.35
570.03	18.44
570.225	18.48
570.421	18.47
570.616	18.5
570.812	18.42
571.007	18.5
571.202	18.78
571.397	18.83
571.593	18.72
571.788	18.67
571.983	18.68
572.178	18.69
572.374	18.75
572.569	18.84
572.764	18.77
572.959	18.98
573.154	18.96
573.35	18.78
573.545	18.8
573.74	18.99
573.935	19.01
574.13	19.02
574.325	19.02
574.52	19.03
574.715	19.08
574.91	19.3
575.105	19.28
575.3	19.47
575.495	19.59
575.69	19.73
575.885	19.86
576.08	20.04
576.275	20.3
576.47	20.56
576.665	20.83
576.86	20.86
577.055	21.01
577.25	21.18
577.444	21.15
577.639	21.33
577.834	21.48
578.029	21.54
578.224	21.6
578.418	21.53
578.613	21.52
578.808	21.59
579.003	21.88
579.197	22.02
579.392	21.96
579.587	22.08
579.781	22.11
579.976	22.1
580.171	22.02
580.365	22.15
580.56	22.21
580.755	22.3
580.949	22.17
581.144	22
581.338	21.93
581.533	21.95
581.727	21.99
581.922	21.95
582.116	22.01
582.311	22.09
582.505	22.12
582.7	22.18
582.894	22.09
583.089	22.18
583.283	22.24
583.478	22.16
583.672	22.3
583.866	22.25
584.061	22.26
584.255	22.15
584.449	22.29
584.644	22.28
584.838	22.34
585.032	22.36
585.226	22.56
585.421	22.71
585.615	23
585.809	23.09
586.003	23.38
586.198	23.48
586.392	23.69
586.586	23.74
586.78	23.81
586.974	23.87
587.168	23.99
587.363	23.69
587.557	23.62
587.751	23.52
587.945	23.39
588.139	23.14
588.333	23.1
588.527	23.04
588.721	22.91
588.915	22.67
589.109	22.61
589.303	22.51
589.497	22.43
589.691	22.41
589.885	22.28
590.079	22.32
590.273	22.45
590.466	22.52
590.66	22.49
590.854	22.6
591.048	22.89
591.242	23.02
591.436	23.21
591.629	23.5
591.823	23.76
592.017	23.87
592.211	24.14
592.404	24.29
592.598	24.3
592.792	24.4
592.986	24.37
593.179	24.18
593.373	23.95
593.567	23.93
593.76	23.75
593.954	23.52
594.147	23.51
594.341	23.08
594.535	22.94
594.728	22.94
594.922	22.63
595.115	22.46
595.309	22.42
595.502	22.59
595.696	22.48
595.889	22.47
596.083	22.52
596.276	22.42
596.47	22.6
596.663	22.53
596.856	22.4
597.05	22.61
597.243	22.71
597.437	22.96
597.63	22.87
597.823	23.03
598.017	23.17
598.21	23.2
598.403	23.3
598.596	23.35
598.79	23.55
598.983	23.72
599.176	23.76
599.369	23.89
599.563	23.7
599.756	23.8
599.949	23.76
600.142	23.65
600.335	23.63
600.528	23.68
600.722	23.8
600.915	23.61
601.108	23.6
601.301	23.6
601.494	23.51
601.687	23.62
601.88	23.63
602.073	23.59
602.266	23.66
602.459	23.53
602.652	23.46
602.845	23.34
603.038	23.34
603.231	23.13
603.424	23.09
603.617	23.05
603.809	22.92
604.002	22.79
604.195	22.75
604.388	22.74
604.581	22.87
604.774	22.98
604.966	22.97
605.159	23.08
605.352	23.31
605.545	23.21
605.737	23.3
605.93	23.39
606.123	23.66
606.316	23.66
606.508	23.77
606.701	23.87
606.894	23.9
607.086	24.13
607.279	24.17
607.471	24.35
607.664	24.83
607.857	25.25
608.049	25.8
608.242	26.32
608.434	27.28
608.627	28.25
608.819	29.27
609.012	30.7
609.204	32.22
609.397	33.97
609.589	35.88
609.782	37.78
609.974	39.72
610.166	41.55
610.359	43.44
610.551	45.19
610.743	46.78
610.936	48.1
611.128	49.1
611.32	49.82
611.513	50.16
611.705	50.01
611.897	49.74
612.09	49.21
612.282	48.71
612.474	47.83
612.666	46.8
612.858	45.78
613.051	44.91
613.243	43.8
613.435	42.78
613.627	41.68
613.819	40.8
614.011	39.93
614.203	39.03
614.395	37.95
614.588	37.04
614.78	36.17
614.972	35.15
615.164	34.25
615.356	33.53
615.548	32.68
615.74	32.11
615.932	31.4
616.124	30.73
616.315	29.95
616.507	29.59
616.699	29.13
616.891	28.72
617.083	28.51
617.275	28.29
617.467	27.85
617.659	27.55
617.85	27.29
618.042	27.21
618.234	27.15
618.426	27.15
618.618	27.02
618.809	27.05
619.001	26.92
619.193	26.8
619.384	26.87
619.576	27.01
619.768	27.22
619.959	27.27
620.151	27.22
620.343	26.86
620.534	26.99
620.726	27.09
620.917	27.12
621.109	27.11
621.301	27.22
621.492	27.11
621.684	27.08
621.875	27.03
622.067	26.86
622.258	27.09
622.45	27.19
622.641	27.14
622.832	27.05
623.024	26.81
623.215	27.02
623.407	26.81
623.598	26.83
623.789	26.85
623.981	26.84
624.172	27.22
624.363	27.18
624.555	27.5
624.746	27.54
624.937	27.56
625.129	27.77
625.32	27.6
625.511	27.68
625.702	27.56
625.893	27.59
626.085	27.6
626.276	27.4
626.467	27.31
626.658	27.21
626.849	27.23
627.04	27.28
627.231	27.34
627.422	27.39
627.614	27.37
627.805	27.55
627.996	27.55
628.187	27.58
628.378	27.88
628.569	28.07
628.76	28.44
628.951	28.59
629.142	28.8
629.332	28.92
629.523	29.19
629.714	29.52
629.905	29.66
630.096	29.68
630.287	29.85
630.478	29.92
630.669	30.05
630.859	29.92
631.05	29.62
631.241	29.41
631.432	29.27
631.623	28.88
631.813	28.46
632.004	28.15
632.195	28.17
632.385	28.05
632.576	27.62
632.767	27.23
632.957	26.95
633.148	26.98
633.339	26.67
633.529	26.39
633.72	26.27
633.91	26.12
634.101	25.81
634.292	25.55
634.482	25.29
634.673	25.11
634.863	25.03
635.054	24.86
635.244	24.71
635.435	24.8
635.625	24.78
635.815	24.97
636.006	25.12
636.196	25.16
636.387	25.16
636.577	25.09
636.767	25.16
636.958	25.1
637.148	25.14
637.338	25.22
637.529	25.16
637.719	25.2
637.909	24.98
638.099	24.84
638.29	24.94
638.48	24.92
638.67	24.97
638.86	25.12
639.05	25.11
639.241	25.04
639.431	24.96
639.621	24.98
639.811	24.98
640.001	24.98
640.191	24.89
640.381	25
640.571	25.25
640.761	25.26
640.951	25.15
641.141	25.22
641.331	25.29
641.521	25.28
641.711	25.36
641.901	25.34
642.091	25.46
642.281	25.89
642.471	25.91
642.661	25.91
642.851	25.97
643.041	25.95
643.231	25.99
643.42	26.07
643.61	26.07
643.8	25.92
643.99	25.99
644.18	25.81
644.369	25.57
644.559	25.45
644.749	25.24
644.939	25.32
645.128	25.19
645.318	25.23
645.508	25.12
645.697	25.28
645.887	25.27
646.076	25.15
646.266	25.37
646.456	25.37
646.645	25.51
646.835	25.5
647.024	25.48
647.214	25.69
647.403	25.72
647.593	25.81
647.782	25.91
647.972	26.05
648.161	25.98
648.351	25.98
648.54	26.16
648.73	26.23
648.919	26.49
649.108	26.63
649.298	26.71
649.487	26.69
649.677	26.8
649.866	26.81
650.055	27
650.244	27.16
650.434	27.29
650.623	27.32
650.812	27.42
651.002	27.22
651.191	27.36
651.38	27.2
651.569	27.32
651.758	27.16
651.947	27.13
652.137	27.07
652.326	27.02
652.515	27.01
652.704	26.85
652.893	26.79
653.082	26.85
653.271	26.57
653.46	26.64
653.649	26.44
653.838	26.53
654.027	26.42
654.216	26.21
654.405	26.37
654.594	26.22
654.783	26.18
654.972	26.09
655.161	26.17
655.35	26.18
655.539	26.02
655.728	26.15
655.916	25.96
656.105	26.02
656.294	26.13
656.483	25.85
656.672	26.07
656.86	26.13
657.049	25.95
657.238	25.8
657.427	25.81
657.615	25.91
657.804	25.74
657.993	26.04
658.181	25.79
658.37	25.78
658.559	25.9
658.747	25.54
658.936	25.48
659.125	25.88
659.313	25.84
659.502	25.7
659.69	25.72
659.879	25.83
660.067	25.56
660.256	25.68
660.444	25.6
660.633	25.59
660.821	25.92
661.01	26.01
661.198	25.73
661.387	25.88
661.575	26.15
661.763	26.22
661.952	26.24
662.14	26.33
662.328	26.49
662.517	26.55
662.705	26.56
662.893	26.57
663.082	26.62
663.27	26.74
663.458	26.6
663.646	26.47
663.834	26.5
664.023	26.54
664.211	26.7
664.399	26.54
664.587	26.59
664.775	26.63
664.963	26.51
665.152	26.56
665.34	26.44
665.528	26.51
665.716	26.38
665.904	26.12
666.092	26.07
666.28	26
666.468	26.11
666.656	26.17
666.844	26.37
667.032	26.29
667.22	26.13
667.408	26.16
667.596	26.09
667.784	26.14
667.971	26.13
668.159	26.03
668.347	26.02
668.535	25.78
668.723	25.64
668.911	25.56
669.098	25.62
669.286	25.75
669.474	25.68
669.662	25.48
669.849	25.48
670.037	25.76
670.225	25.9
670.413	25.99
670.6	26.16
670.788	26.21
670.976	26.24
671.163	26.32
671.351	26.56
671.538	26.45
671.726	26.79
671.913	26.87
672.101	26.96
672.289	26.92
672.476	26.77
672.664	26.88
672.851	27.21
673.039	27.04
673.226	27.03
673.413	26.59
673.601	26.79
673.788	26.7
673.976	26.76
674.163	26.84
674.35	26.99
674.538	26.89
674.725	26.9
674.912	26.63
675.1	26.44
675.287	26.37
675.474	26.36
675.662	26.45
675.849	26.56
676.036	26.62
676.223	26.46
676.411	26.22
676.598	26.3
676.785	26.08
676.972	26.29
677.159	26.6
677.346	26.65
677.533	26.77
677.721	26.46
677.908	26.55
678.095	26.42
678.282	26.37
678.469	26.35
678.656	26.39
678.843	26.6
679.03	26.41
679.217	26.48
679.404	26.54
679.591	26.55
679.778	26.93
679.964	26.92
680.151	27.03
680.338	27.08
680.525	27.18
680.712	27.21
680.899	27.46
681.086	27.29
681.272	27.18
681.459	27.21
681.646	27.24
681.833	27.09
682.02	27.05
682.206	26.96
682.393	26.73
682.58	26.94
682.766	27.05
682.953	26.78
683.14	27.2
683.326	27.17
683.513	27.01
683.7	27.29
683.886	27.17
684.073	27.02
684.259	26.89
684.446	27.1
684.632	27.15
684.819	27.24
685.005	27.32
685.192	27.18
685.378	27.28
685.565	27.65
685.751	27.51
685.938	27.66
686.124	27.89
686.31	27.93
686.497	28.14
686.683	27.89
686.87	27.61
687.056	27.69
687.242	27.93
687.429	27.82
687.615	27.33
687.801	27.33
687.987	27.21
688.174	27.23
688.36	27.49
688.546	27.45
688.732	27.49
688.918	27.56
689.105	27.67
689.291	27.28
689.477	27.5
689.663	27.79
689.849	27.6
690.035	27.44
690.221	27.56
690.407	27.45
690.593	27.43
690.779	27.18
690.965	27.09
691.151	26.6
691.337	26.88
691.523	26.91
691.709	27.06
691.895	27.08
692.081	27.41
692.267	27.21
692.453	27.25
692.639	27.19
692.825	27.36
693.011	27.57
693.196	27.84
693.382	27.58
693.568	27.64
693.754	27.48
693.94	27.51
694.125	27.12
694.311	27.14
694.497	27.06
694.682	26.68
694.868	26.83
695.054	26.61
695.239	26.69
695.425	26.87
695.611	26.71
695.796	26.48
695.982	26.65
696.168	26.73
696.353	26.54
696.539	26.7
696.724	26.87
696.91	26.86
697.095	27.02
697.281	26.87
697.466	26.63
697.652	26.61
697.837	26.66
698.023	26.42
698.208	26.69
698.393	26.69
698.579	26.4
698.764	26.26
698.949	26.13
699.135	26.1
699.32	26.03
699.505	26.08
699.691	26.05
699.876	25.95
700.061	25.85
700.246	25.67
700.432	25.68
700.617	25.8
700.802	26.15
700.987	26.15
701.172	25.98
701.358	25.95
701.543	25.87
701.728	25.79
701.913	25.9
702.098	26.15
702.283	26.32
702.468	26.39
702.653	26.55
702.838	26.31
703.023	26.25
703.208	26.36
703.393	26.67
703.578	27.18
703.763	27.51
703.948	27.84
704.133	28.17
704.318	28.18
704.503	28.54
704.688	28.78
704.873	29.31
705.057	29.83
705.242	30.65
705.427	30.73
705.612	31.09
705.797	31.24
705.981	31.6
706.166	32.25
706.351	32.61
706.536	32.89
706.72	32.88
706.905	33.17
707.09	33.48
707.274	33.51
707.459	33.87
707.644	33.88
707.828	34.06
708.013	34.1
708.197	33.7
708.382	33.35
708.567	33.28
708.751	33.36
708.936	33.23
709.12	32.71
709.305	32.33
709.489	31.99
709.673	31.7
709.858	31.65
710.042	31.53
710.227	31.81
710.411	31.9
710.596	31.6
710.78	31.87
710.964	31.61
711.149	31.89
711.333	32.06
711.517	32.29
711.702	32.59
711.886	32.25
712.07	32.05
712.254	31.52
712.438	31.22
712.623	31.04
712.807	30.62
712.991	30.54
713.175	30.1
713.359	29.52
713.544	29.04
713.728	28.42
713.912	28.31
714.096	27.78
714.28	27.34
714.464	27.23
714.648	27.09
714.832	26.77
715.016	26.33
715.2	26.33
715.384	26.27
715.568	26.35
715.752	26.18
715.936	25.76
716.12	26.04
716.304	26.23
716.488	26.29
716.671	26.13
716.855	26.09
717.039	25.89
717.223	25.61
717.407	25.7
717.59	25.1
717.774	25.06
717.958	25.48
718.142	25.22
718.325	25.32
718.509	24.88
718.693	25.13
718.877	25.1
719.06	25.77
719.244	26.17
719.428	26.23
719.611	26.97
719.795	27.13
719.978	26.56
720.162	26.99
720.345	26.91
720.529	27.02
720.713	27.06
720.896	27.13
721.08	26.8
721.263	26.29
721.446	26.51
721.63	26.47
721.813	26.42
721.997	26.73
722.18	26.64
722.364	26.61
722.547	26.97
722.73	26.86
722.914	26.91
723.097	26.95
723.28	27.06
723.464	26.75
723.647	26.47
723.83	26.3
724.013	26.46
724.197	26.16
724.38	26.01
724.563	26.32
724.746	26.24
724.929	26.5
725.112	26.57
725.296	26.46
725.479	26.71
725.662	26.76
725.845	27.04
726.028	26.6
726.211	27.07
726.394	27.02
726.577	26.77
726.76	26.85
726.943	26.68
727.126	26.59
727.309	26.75
727.492	26.44
727.675	26.81
727.858	27.07
728.041	27.61
728.224	27.34
728.407	27.8
728.589	27.82
728.772	27.85
728.955	27.93
729.138	27.69
729.321	27.93
729.503	28.02
729.686	27.9
729.869	28.05
730.052	28.09
730.234	27.98
730.417	27.53
730.6	27.35
730.782	27.59
730.965	27.33
731.148	27.49
731.33	27.16
731.513	26.99
731.695	26.82
731.878	26.69
732.061	26.2
732.243	26.06
732.426	26.03
732.608	25.92
732.791	25.63
732.973	25.72
733.156	26.16
733.338	26.19
733.52	26.15
733.703	26.15
733.885	25.64
734.068	25.95
734.25	26.37
734.432	26.33
734.615	26.34
734.797	26.12
734.979	26.16
735.162	25.64
735.344	25.89
735.526	26.1
735.708	26.23
735.891	26.34
736.073	26.05
736.255	25.68
736.437	26.24
736.619	26.58
736.802	26.56
736.984	26.5
737.166	26.77
737.348	26.72
737.53	27.14
737.712	27.13
737.894	27.58
738.076	27.66
738.258	27.86
738.44	28.1
738.622	28.24
738.804	28.77
738.986	28.82
739.168	28.83
739.35	28.72
739.532	28.54
739.714	28.14
739.896	27.85
740.078	28.66
740.259	28.39
740.441	27.46
740.623	27.17
740.805	27.03
740.987	27.39
741.168	27.28
741.35	27.4
741.532	27.47
741.714	27.76
741.895	27.87
742.077	27.21
742.259	27.57
742.44	27.5
742.622	27.63
742.804	27.1
742.985	26.71
743.167	26.33
743.348	26.58
743.53	26.2
743.711	26.39
743.893	26.26
744.075	26.86
744.256	26.71
744.438	27.35
744.619	27.19
744.8	27.71
744.982	27.71
745.163	28.24
745.345	27.98
745.526	27.9
745.707	27.39
745.889	27.64
746.07	27.29
746.252	27.96
746.433	28.22
746.614	28.54
746.795	28.97
746.977	28.57
747.158	28.2
747.339	28.72
747.52	28.67
747.702	28.57
747.883	29.38
748.064	29.51
748.245	29.18
748.426	29.08
748.607	28.86
748.788	28.32
748.97	29.17
749.151	29.62
749.332	29.16
749.513	28.85
749.694	28.91
749.875	27.83
750.056	27.9
750.237	27.33
750.418	27.84
750.599	27.86
750.78	28.01
750.96	27.77
751.141	27.46
751.322	27.36
751.503	27.99
751.684	28.78
751.865	28.41
752.046	27.33
752.226	27.39
752.407	26.33
752.588	26.32
752.769	26.04
752.949	25.54
753.13	25.22
753.311	26.08
753.492	25.66
753.672	25.02
753.853	25.69
754.034	27.11
754.214	27.26
754.395	27.82
754.575	27.81
754.756	27.79
754.937	28.29
755.117	29.57
755.298	28.89
755.478	29.52
755.659	29.69
755.839	29.7
756.02	29.71
756.2	29.65
756.381	29.21
756.561	28.85
756.741	29.05
756.922	29.92
757.102	28.92
757.283	29.31
757.463	28.75
757.643	28.68
757.823	28.53
758.004	27.93
758.184	28.24
758.364	28.38
758.545	29.01
758.725	29.17
758.905	28.41
759.085	28.6
759.265	27.9
759.446	28.98
759.626	29.29
759.806	29.05
759.986	29.04
760.166	28.24
760.346	28.74
760.526	27.96
760.706	27.19
760.886	27.34
761.066	26.77
761.246	26.26
761.426	25.2
761.606	24.96
761.786	25.28
761.966	25.6
762.146	25.86
762.326	24.68
762.506	24.5
762.686	25.12
762.866	24.36
763.046	24.69
763.225	25.45
763.405	25.73
763.585	25.72
763.765	25.32
763.945	24.93
764.124	25.15
764.304	25.82
764.484	26.58
764.664	26.36
764.843	26.72
765.023	26.75
765.203	26
765.382	25.53
765.562	25.47
765.741	25.55
765.921	25.97
766.101	25.83
766.28	25.93
766.46	25.55
766.639	25.75
766.819	26
766.998	26.05
767.178	27
767.357	27.37
767.537	27.53
767.716	27.54
767.896	27.29
768.075	27.72
768.254	27.55
768.434	27.83
768.613	27.88
768.792	27.9
768.972	27.86
769.151	27.54
769.33	27.87
769.51	28.46
769.689	28.71
769.868	28.32
770.047	28.12
770.226	28.01
770.406	28.28
770.585	28.02
770.764	28.05
770.943	27.99
771.122	28.29
771.301	28.15
771.48	27.12
771.66	27.58
771.839	27.95
772.018	27.13
772.197	27.84
772.376	27.42
772.555	28.25
772.734	28.69
772.913	28.48
773.092	28.21
773.271	28.13
773.449	27.33
773.628	26.83
773.807	26.84
773.986	27.29
774.165	26.66
774.344	26.62
774.523	26.1
774.701	25.61
774.88	26.67
775.059	26.7
775.238	26.53
775.417	27.95
775.595	27.51
775.774	28.29
775.953	27.95
776.131	28.44
776.31	28.35
776.489	28.16
776.667	28.41
776.846	27.26
777.025	27.5
777.203	28.62
777.382	28.72
777.56	28.85
777.739	27.97
777.917	28.61
778.096	28.22
778.274	27.96
778.453	28.05
778.631	27.41
778.81	28.15
778.988	28.12
779.166	27.18
779.345	27.42
779.523	28.13
779.702	28.93
779.88	29.11
780.058	28.38
780.237	28.1
780.415	28.88
780.593	29.24
780.771	28.96
780.95	29.05
781.128	29.74
781.306	28.95
781.484	28.14
781.662	28.28
781.841	28.56
782.019	29.74
782.197	30.27
782.375	29.61
782.553	29.81
782.731	29.57
782.909	29.3
783.087	28.33
783.265	28.83
783.443	29.93
783.621	28.48
783.799	28.06
783.977	27.77
784.155	27.51
784.333	27.27
784.511	26.9
784.689	27.41
784.867	27.68
785.045	27.96
785.223	27.3
785.4	26.31
785.578	27.26
785.756	27.19
785.934	26.49
786.112	26.6
786.289	26.61
786.467	26.75
786.645	26.54
786.823	26.42
787	26.45
787.178	26.23
787.356	26.84
787.533	26.31
787.711	26.28
787.889	26.25
788.066	26.82
788.244	26.85
788.421	27.11
788.599	26.4
788.776	26.21
788.954	26.51
789.131	26.87
789.309	26.55
789.486	25.23
789.664	25.69
789.841	25.56
790.019	24.29
790.196	24.23
790.373	23.58
790.551	24.05
790.728	23.31
790.906	22.44
791.083	22.42
791.26	22.97
791.437	24.69
791.615	24.15
791.792	25.06
791.969	25.57
792.146	26.36
792.324	26.78
792.501	27.53
792.678	27.58
792.855	28.37
793.032	29.01
793.209	28.15
793.387	28.15
793.564	27.92
793.741	27.17
793.918	27.41
794.095	26.52
794.272	26.49
794.449	26.3
794.626	27.57
794.803	26.63
794.98	25.72
795.157	26.2
795.334	26.53
795.511	26.54
795.688	25.89
795.864	25.78
796.041	25.93
796.218	25.7
796.395	25.28
796.572	24.73
796.749	24.34
796.925	24.91
797.102	24.78
797.279	24.86
797.456	24.73
797.632	25.4
797.809	26.33
797.986	27.13
798.162	27.36
798.339	27.83
798.516	28.34
798.692	29.45
798.869	29.38
799.046	29.93
799.222	29.64
799.399	30.2
799.575	30.57
799.752	30.6
799.928	30.32
800.105	29.88
800.281	29.56
800.458	29.24
800.634	29.2
800.811	29.22
800.987	28.25
801.163	28.66
801.34	28.87
801.516	28.57
801.692	28.1
801.869	27.45
802.045	28.15
802.221	28.31
802.398	28.3
802.574	27.8
802.75	27.85
802.926	28.91
803.103	28.13
803.279	29.09
803.455	29.16
803.631	27.95
803.807	28.26
803.983	28.01
804.16	28.08
804.336	27.24
804.512	26.84
804.688	28.53
804.864	28.37
805.04	29.41
805.216	26.66
805.392	26.39
805.568	27.33
805.744	26.39
805.92	25.05
806.096	24.68
806.272	26.36
806.448	27.01
806.623	24.71
806.799	24.43
806.975	22.51
807.151	22.42
807.327	23.08
807.503	22.99
807.678	24.47
807.854	24.25
808.03	23.87
808.206	21.86
808.381	21.64
808.557	21.3
808.733	21.83
808.908	22.76
809.084	24.43
809.26	23.3
809.435	23.85
809.611	22.39
809.787	22.32
809.962	22.96
810.138	23.53
810.313	24.72
810.489	25.41
810.664	24.96
810.84	25.33
811.015	25.08
811.191	26.51
811.366	25.48
811.542	24.76
811.717	27.07
811.892	27.15
812.068	28.29
812.243	27.95
812.419	28.7
812.594	27.51
812.769	26.71
812.944	25.98
813.12	24.12
813.295	24.49
813.47	26.24
813.645	25.41
813.821	26.31
813.996	25.8
814.171	23.78
814.346	21.9
814.521	22.87
814.697	22.27
814.872	23.31
815.047	24.97
815.222	26.06
815.397	24.57
815.572	24.28
815.747	22.87
815.922	22.84
816.097	24.68
816.272	25.33
816.447	24.77
816.622	25.79
816.797	26.2
816.972	25.93
817.147	24.6
817.322	27.46
817.496	28.32
817.671	27.76
817.846	26.74
818.021	27.32
818.196	28.75
818.371	28.94
818.545	28.84
818.72	27.88
818.895	26.91
819.069	26.57
819.244	24.55
819.419	24.82
819.594	25.46
819.768	24.83
819.943	24.8
820.117	23.78
820.292	23.47
820.467	23.43
820.641	23
820.816	23.44
820.99	23.36
821.165	23.87
821.339	23.61
821.514	23.4
821.688	23.68
821.863	23.21
822.037	23.15
822.212	23.34
822.386	23.31
822.56	23.66
822.735	23.74
822.909	23.82
823.084	23.51
823.258	23.4
823.432	23.14
823.606	23.3
823.781	23.54
823.955	23.71
824.129	23.44
824.303	23.2
824.478	22.88
824.652	22.79
824.826	22.58
825	22.99
825.174	22.98
825.348	23.04
825.523	22.96
825.697	22.69
825.871	22.32
826.045	22.31
826.219	23.08
826.393	23.02
826.567	22.81
826.741	22.92
826.915	23.02
827.089	23.23
827.263	24.11
827.437	24.16
827.611	24.17
827.784	24.86
827.958	25
828.132	25.04
828.306	25.33
828.48	25.28
828.654	25.04
828.827	24.97
829.001	25.49
829.175	24.68
829.349	24.11
829.522	24.82
829.696	24.73
829.87	25.05
830.044	25.11
830.217	25.34
830.391	26.72
830.565	27.58
830.738	28.28
830.912	27.66
831.085	28.89
831.259	29.13
831.432	27.18
831.606	26.65
831.779	26.47
831.953	25.51
832.126	23.9
832.3	22.26
832.473	22.55
832.647	21.74
832.82	21.92
832.994	20.75
833.167	20.74
833.34	22.42
833.514	22.59
833.687	22.79
833.86	23.07
834.034	24.36
834.207	24.43
834.38	24.14
834.553	23.81
834.727	23.17
834.9	23.85
835.073	23.59
835.246	23.84
835.419	23.65
835.593	23.4
835.766	23.46
835.939	23.52
836.112	23.42
836.285	23.15
836.458	23.44
836.631	24.41
836.804	24.81
836.977	25.87
837.15	24.54
837.323	24.98
837.496	26.54
837.669	25.43
837.842	24.47
838.015	23.39
838.188	24.9
838.361	25.23
838.533	24.05
838.706	23.54
838.879	23.8
839.052	23.76
839.225	23.61
839.398	22.36
839.57	23.8
839.743	23.29
839.916	26.11
840.088	26.81
840.261	27.22
840.434	27.28
840.607	27.21
840.779	27.5
840.952	26.88
841.124	25.38
841.297	25.54
841.47	24.83
841.642	24.9
841.815	25.6
841.987	27.2
842.16	25.81
842.332	27.96
842.505	26
842.677	25.96
842.85	27.63
843.022	29.08
843.194	30.29
843.367	30.39
843.539	32.31
843.712	29.7
843.884	27.46
844.056	29.2
844.229	27.8
844.401	30.06
844.573	31.76
844.745	33.29
844.918	32.12
845.09	29.23
845.262	32.13
845.434	30.01
845.606	31.65
845.779	32.94
845.951	33.23
846.123	32.9
846.295	31.15
846.467	27.42
846.639	24.45
846.811	24.53
846.983	26.03
847.155	22.08
847.327	22.78
847.499	20.98
847.671	19.04
847.843	20
848.015	18.61
848.187	20.71
848.359	24.13
848.531	25.3
848.703	26.78
848.875	28.3
849.047	28.38
849.218	25.9
849.39	27.75
849.562	27.51
849.734	26.79
849.905	27.49
850.077	29.55
850.249	31.7
850.421	31.73
850.592	32.81
850.764	33.63
850.936	35.63
851.107	38.94
851.279	39.27
851.451	40
851.622	40.28
851.794	39.48
851.965	36.6
852.137	34.63
852.308	33.47
852.48	34.28
852.651	30.82
852.823	30.33
852.994	32.43
853.166	31.47
853.337	31.02
853.509	27.47
853.68	25.07
853.851	28.32
854.023	30.98
854.194	34.33
854.365	33.76
854.537	36.48
854.708	37.75
854.879	36.92
855.05	38.04
855.222	37.93
855.393	37.65
855.564	40.4
855.735	37.81
855.906	35.37
856.078	32.29
856.249	31.58
856.42	29.17
856.591	27.21
856.762	24.01
856.933	20.82
857.104	20.13
857.275	22.48
857.446	19.33
857.617	21.97
857.788	22.29
857.959	20.93
858.13	23.03
858.301	22.2
858.472	23.67
858.643	25.28
858.814	29.51
858.985	30.41
859.155	28.26
859.326	32.95
859.497	34.29
859.668	31.01
859.839	30.81
860.009	30.54
860.18	34.99
860.351	34.99
860.522	35.93
860.692	33.62
860.863	31.35
861.034	35.17
861.204	30.82
861.375	28.86
861.546	28.09
861.716	30.28
861.887	28.13
862.057	28.56
862.228	28.82
862.398	26.31
862.569	26.82
862.739	26.29
862.91	24.56
863.08	25.87
863.251	22.59
863.421	26.67
863.592	27.31
863.762	30.01
863.932	25.67
864.103	28.44
864.273	31.08
864.443	32.9
864.614	33.39
864.784	32.51
864.954	30.25
865.125	34.13
865.295	33.26
865.465	32.57
865.635	32.3
865.805	35.24
865.976	32.67
866.146	29.75
866.316	27.82
866.486	29.7
866.656	28.78
866.826	34.09
866.996	31.8
867.166	32.27
867.336	32.18
867.506	30.7
867.676	29.43
867.846	30.81
868.016	27.31
868.186	32.72
868.356	30.48
868.526	31.83
868.696	28.96
868.866	28.9
869.036	30.36
869.206	32.21
869.376	33.99
869.545	34.93
869.715	32.21
869.885	36.29
870.055	33.09
870.224	32.87
870.394	33.34
870.564	37.99
870.734	40.96
870.903	38.42
871.073	39.15
871.243	37.55
871.412	39.65
871.582	44.48
871.751	44.74
871.921	45.43
872.091	49.66
872.26	49.01
872.43	43.82
872.599	41.18
872.769	39.36
872.938	41.26
873.108	40.87
873.277	41.14
873.446	39.21
873.616	40.78
873.785	39.94
873.955	39.25
874.124	35.15
874.293	37.06
874.463	37.16
874.632	41.32
874.801	38.13
874.971	37.2
875.14	36.73
875.309	37.87
875.478	34.49
875.647	32.24
875.817	31.57
875.986	34.71
876.155	31.25
876.324	31.57
876.493	27.61
876.662	27.6
876.831	26
877	21.28
877.17	20.61
877.339	21.22
877.508	23
877.677	22.19
877.846	22.8
878.015	25.24
878.184	22.75
878.352	23.04
878.521	22.26
878.69	23.65
878.859	28.67
879.028	26.11
879.197	26.32
879.366	28.39
879.534	28.35
879.703	26.93
879.872	26.65
880.041	25.9
880.21	24.49
880.378	24.36
880.547	24.9
880.716	23.53
880.884	24.48
881.053	23.87
881.222	22.98
881.39	23
881.559	22.73
881.727	22.33
881.896	22.94
882.065	23.26
882.233	22.81
882.402	22.28
882.57	22.35
882.739	21.58
882.907	21.73
883.076	21.52
883.244	21.14
883.412	22.09
883.581	21.91
883.749	21.41
883.918	22.01
884.086	22.35
884.254	22.12
884.423	20.99
884.591	21.34
884.759	21.31
884.927	20.81
885.096	20.74
885.264	19.49
885.432	19.66
885.6	20.21
885.769	17.22
885.937	16.64
886.105	18.29
886.273	19.23
886.441	21.53
886.609	20.46
886.777	22.19
886.945	21.45
887.113	20.32
887.281	20.11
887.449	21.76
887.617	24.22
887.785	26.8
887.953	24.89
888.121	27.36
888.289	23.39
888.457	24.64
888.625	27.88
888.793	31.04
888.961	33.58
889.129	30.73
889.296	28.33
889.464	28.61
889.632	27.39
889.8	28.95
889.967	26.55
890.135	28.26
