Data from 2938739__Reflection_01.txt Node
Date: Sun Mar 15 12:38:02 EDT 2015
User: robert
Spectrometer: USB4E03002
Autoset integration time: false
Trigger mode: 4
Integration Time (sec): 1.000000E-1
Scans to average: 10
Electric dark correction enabled: false
Nonlinearity correction enabled: false
Boxcar width: 5
Stray light correction enabled: false
XAxis mode: Wavelengths
Stop averaging: false
Number of Pixels in Spectrum: 3648
>>>>>Begin Spectral Data<<<<<
177.575	-118.06
177.794	-279.14
178.014	-538.75
178.233	-1033.33
178.452	977.46
178.672	436.17
178.891	274.92
179.11	185
179.33	165.63
179.549	145.22
179.768	133.57
179.987	121.32
180.207	141.02
180.426	168.54
180.645	159.69
180.864	153.85
181.084	168.31
181.303	157.8
181.522	152.98
181.741	125.47
181.96	163.38
182.179	178.92
182.398	189.78
182.618	198.31
182.837	188.81
183.056	184.68
183.275	163.24
183.494	156.54
183.713	142.65
183.932	134.3
184.151	146.46
184.37	135.7
184.589	132.62
184.808	132.09
185.027	127.8
185.246	105.11
185.465	105.32
185.684	104.35
185.903	112.1
186.122	123.94
186.341	143.9
186.56	141.53
186.779	140.44
186.998	129.87
187.216	141.3
187.435	121.79
187.654	126.47
187.873	145.07
188.092	171.87
188.311	152.24
188.53	146.98
188.748	130.37
188.967	125.16
189.186	131.6
189.405	128.37
189.623	119.07
189.842	132.7
190.061	122.18
190.28	113.68
190.498	115.59
190.717	117.96
190.936	112.35
191.154	110.35
191.373	111.29
191.592	103.18
191.81	102.29
192.029	99.17
192.248	95.4
192.466	109.61
192.685	103.17
192.904	93.07
193.122	91.51
193.341	103.95
193.559	123.63
193.778	124.55
193.996	119.85
194.215	126.24
194.433	116.98
194.652	115.44
194.87	109.21
195.089	110.67
195.307	110.15
195.526	117.11
195.744	101.47
195.963	100.63
196.181	101.68
196.399	107.79
196.618	104.78
196.836	105.45
197.055	103.24
197.273	106.82
197.491	114.02
197.71	118.4
197.928	125.55
198.146	136.75
198.365	115.79
198.583	113.79
198.801	93.95
199.019	106.45
199.238	112.97
199.456	122.66
199.674	104.32
199.892	101.36
200.111	106.75
200.329	95.32
200.547	95.13
200.765	100.31
200.983	101.23
201.202	114.49
201.42	114.97
201.638	99.44
201.856	102.11
202.074	114.62
202.292	111.37
202.51	109.11
202.728	106.99
202.946	118
203.165	119.24
203.383	113.97
203.601	98.03
203.819	88.87
204.037	99.93
204.255	86.24
204.473	89.97
204.691	95.74
204.909	88.14
205.127	90.47
205.345	88
205.562	85.79
205.78	93.32
205.998	102.09
206.216	98.75
206.434	103.78
206.652	113.12
206.87	102.8
207.088	95.64
207.306	104.66
207.523	101.25
207.741	93.23
207.959	88.45
208.177	86.59
208.395	90.94
208.612	101.3
208.83	102.89
209.048	102.14
209.266	112.87
209.483	123.86
209.701	117.33
209.919	134.47
210.136	135.2
210.354	132.18
210.572	137.94
210.79	123.12
211.007	119.88
211.225	118.19
211.442	108.58
211.66	92.2
211.878	93.02
212.095	85.93
212.313	81.17
212.53	75.9
212.748	79.69
212.966	70.26
213.183	69.87
213.401	67.43
213.618	62.91
213.836	67.61
214.053	75.54
214.271	75.19
214.488	74.84
214.705	69.39
214.923	70.71
215.14	74.49
215.358	71.34
215.575	78.3
215.793	78.56
216.01	78.92
216.227	82.18
216.445	76.45
216.662	75.5
216.879	79.85
217.097	78.24
217.314	82.15
217.531	78.77
217.749	78.09
217.966	79.9
218.183	80.19
218.4	81.17
218.618	75.78
218.835	73
219.052	66.81
219.269	63.43
219.487	68.25
219.704	68.4
219.921	70.31
220.138	75.86
220.355	68.87
220.572	71.87
220.79	67.86
221.007	73.25
221.224	73.7
221.441	70.55
221.658	68.75
221.875	65.87
222.092	62.33
222.309	55.66
222.526	52.17
222.743	44.22
222.96	36.06
223.177	36.68
223.394	32.05
223.611	32.09
223.828	35.27
224.045	32.49
224.262	33.08
224.479	33.76
224.696	31.76
224.913	29.94
225.13	31.31
225.347	34.55
225.564	35.65
225.781	33.29
225.997	33.09
226.214	29.08
226.431	28
226.648	24.63
226.865	20.91
227.082	20.19
227.298	16.04
227.515	15.06
227.732	12.37
227.949	10.35
228.165	9.96
228.382	8.31
228.599	8.32
228.816	8.66
229.032	9.12
229.249	8.31
229.466	7.38
229.682	8.81
229.899	9.39
230.116	9.3
230.332	8.89
230.549	9.15
230.765	10.11
230.982	9.49
231.199	8.34
231.415	8.01
231.632	9.32
231.848	9.68
232.065	8.55
232.281	7.05
232.498	7.21
232.714	9.6
232.931	10.42
233.147	9.54
233.364	8.95
233.58	10.33
233.797	10.67
234.013	10.34
234.23	11.57
234.446	11.25
234.662	11.64
234.879	11.53
235.095	10.39
235.312	9.58
235.528	9.59
235.744	10.52
235.961	11.54
236.177	10.84
236.393	11.05
236.61	9.4
236.826	9.1
237.042	9.73
237.258	10.08
237.475	10.07
237.691	10.18
237.907	10.12
238.123	10.72
238.339	8.53
238.556	8.28
238.772	8.55
238.988	10.28
239.204	11.64
239.42	12.22
239.636	12.02
239.853	11.95
240.069	11.46
240.285	10.57
240.501	10.29
240.717	10.21
240.933	9.79
241.149	10.16
241.365	9.08
241.581	8.28
241.797	6.97
242.013	6.95
242.229	6.53
242.445	6.23
242.661	6.17
242.877	6.56
243.093	6.05
243.309	6.15
243.525	5.85
243.741	6.4
243.957	6.99
244.173	7.66
244.388	7.24
244.604	7.38
244.82	8.13
245.036	8.25
245.252	7.06
245.468	7.66
245.683	7.57
245.899	6.64
246.115	6.32
246.331	5.96
246.547	5.96
246.762	5.92
246.978	5.84
247.194	5.35
247.409	5.35
247.625	5.59
247.841	5.5
248.057	5.47
248.272	5.43
248.488	5.33
248.703	5.6
248.919	5.44
249.135	5.39
249.35	5.4
249.566	5.84
249.782	6.38
249.997	6.17
250.213	6.15
250.428	5.78
250.644	6.71
250.859	7.42
251.075	6.67
251.29	6.26
251.506	6.62
251.721	6.96
251.937	7
252.152	6.53
252.368	6.77
252.583	6.78
252.798	7.04
253.014	6.64
253.229	5.98
253.445	6.28
253.66	7.1
253.875	8.03
254.091	7.8
254.306	7.93
254.521	8.12
254.737	8.1
254.952	8.74
255.167	8.74
255.383	9.12
255.598	9.01
255.813	8.95
256.028	8.78
256.244	7.53
256.459	7.94
256.674	7.82
256.889	7.06
257.104	6.85
257.32	5.81
257.535	5.58
257.75	4.83
257.965	4.84
258.18	4.79
258.395	4.52
258.61	4.72
258.826	4.48
259.041	4.38
259.256	4.69
259.471	4.57
259.686	4.47
259.901	4.19
260.116	4.46
260.331	4.6
260.546	4.63
260.761	4.83
260.976	4.81
261.191	4.7
261.406	4.4
261.621	4.14
261.836	3.97
262.05	4.28
262.265	4.87
262.48	5.13
262.695	4.91
262.91	4.65
263.125	4.56
263.34	4.18
263.555	5.11
263.769	6.12
263.984	6.9
264.199	7.47
264.414	7.81
264.629	8.13
264.843	7.49
265.058	7.5
265.273	7.53
265.488	7
265.702	7.06
265.917	5.72
266.132	5.05
266.346	4.36
266.561	4.52
266.776	4.44
266.99	4.52
267.205	5.11
267.42	5.2
267.634	5.28
267.849	5.52
268.063	5.76
268.278	6.47
268.492	6.43
268.707	6.7
268.922	6.51
269.136	6.47
269.351	6.35
269.565	5.97
269.78	5.38
269.994	5.51
270.209	5.64
270.423	5.25
270.637	4.77
270.852	5.25
271.066	5.05
271.281	4.81
271.495	4.95
271.709	4.87
271.924	4.51
272.138	4.66
272.353	4.31
272.567	4.39
272.781	4.41
272.996	4.26
273.21	4.26
273.424	4.4
273.638	4.15
273.853	3.97
274.067	3.69
274.281	4.2
274.495	4.93
274.71	5.16
274.924	4.79
275.138	5.12
275.352	5.22
275.566	4.97
275.781	4.91
275.995	5.19
276.209	4.98
276.423	4.99
276.637	4.34
276.851	4.3
277.065	4.09
277.279	4.56
277.493	4.22
277.707	4.52
277.921	4.38
278.135	4.67
278.349	4.79
278.563	5.06
278.777	4.94
278.991	5.46
279.205	5.44
279.419	5.71
279.633	5.74
279.847	5.8
280.061	5.74
280.275	5.81
280.489	6.08
280.703	6
280.917	5.56
281.131	5.47
281.344	5.42
281.558	5.01
281.772	5.09
281.986	4.84
282.2	4.52
282.414	4.3
282.627	4.08
282.841	3.3
283.055	3.32
283.269	3.7
283.482	3.56
283.696	3.43
283.91	3.41
284.123	2.9
284.337	2.63
284.551	2.86
284.764	3.07
284.978	3.32
285.192	3.18
285.405	3.26
285.619	3.13
285.833	3.61
286.046	3.56
286.26	3.59
286.473	3.84
286.687	3.95
286.9	4.04
287.114	3.89
287.327	3.78
287.541	4.32
287.754	4.59
287.968	4.51
288.181	4.41
288.395	4.56
288.608	4.65
288.822	4.56
289.035	4.54
289.248	4.36
289.462	4.79
289.675	4.69
289.889	4.6
290.102	4.67
290.315	4.97
290.529	4.99
290.742	4.87
290.955	4.82
291.169	4.7
291.382	4.75
291.595	4.73
291.808	4.69
292.022	4.76
292.235	4.45
292.448	3.8
292.661	3.69
292.875	3.71
293.088	4.02
293.301	3.98
293.514	4.16
293.727	4.47
293.94	4.48
294.153	4.33
294.367	4.24
294.58	4.68
294.793	5.36
295.006	5.22
295.219	4.96
295.432	4.74
295.645	4.85
295.858	4.97
296.071	4.86
296.284	5.04
296.497	4.96
296.71	4.96
296.923	4.92
297.136	4.94
297.349	4.79
297.562	4.99
297.775	5.2
297.988	5.16
298.201	5.33
298.414	5.17
298.626	5.18
298.839	5.36
299.052	5.45
299.265	5.39
299.478	4.98
299.691	5.01
299.903	4.65
300.116	4.54
300.329	4.68
300.542	4.52
300.755	5.05
300.967	5.42
301.18	5.7
301.393	6.06
301.605	5.89
301.818	5.92
302.031	6.23
302.243	6.46
302.456	6.73
302.669	6.79
302.881	6.82
303.094	6.64
303.307	6.57
303.519	6.69
303.732	6.5
303.944	6.74
304.157	6.76
304.37	6.83
304.582	7.13
304.795	6.89
305.007	7.12
305.22	7.4
305.432	7.34
305.645	7.27
305.857	6.7
306.069	7.1
306.282	7.06
306.494	7.24
306.707	6.84
306.919	6.59
307.132	6.73
307.344	6.47
307.556	6.44
307.769	6.45
307.981	6.29
308.193	6.33
308.406	6.01
308.618	6.05
308.83	6.03
309.043	6.28
309.255	6.1
309.467	6.05
309.679	5.91
309.892	5.94
310.104	5.88
310.316	5.92
310.528	5.94
310.74	5.95
310.953	6.05
311.165	5.79
311.377	6.08
311.589	6.38
311.801	6.47
312.013	6.4
312.225	6.47
312.437	6.58
312.649	6.86
312.862	7.02
313.074	6.75
313.286	7.02
313.498	7.45
313.71	7.15
313.922	7.12
314.134	6.84
314.346	7.11
314.558	7.06
314.77	6.67
314.982	6.68
315.193	6.49
315.405	6.83
315.617	6.82
315.829	6.78
316.041	7.22
316.253	7.28
316.465	7.51
316.677	7.42
316.888	7.15
317.1	7.56
317.312	7.44
317.524	8
317.736	8.25
317.947	8.2
318.159	8.31
318.371	8.12
318.583	7.91
318.794	7.91
319.006	8.24
319.218	8.37
319.43	8.28
319.641	8.66
319.853	8.5
320.064	8.68
320.276	8.56
320.488	8.85
320.699	9.08
320.911	9.43
321.123	9.7
321.334	9.57
321.546	9.54
321.757	9.68
321.969	9.42
322.18	9.39
322.392	8.88
322.603	9.23
322.815	9.08
323.026	8.9
323.238	8.95
323.449	8.81
323.661	8.81
323.872	9.22
324.083	9.53
324.295	9.06
324.506	8.96
324.718	9.07
324.929	8.73
325.14	8.68
325.352	8.64
325.563	8.47
325.774	8.27
325.986	8.13
326.197	7.68
326.408	7.32
326.62	7.69
326.831	8.05
327.042	8.07
327.253	8.13
327.464	8.61
327.676	9.01
327.887	9.01
328.098	9.15
328.309	9.7
328.52	9.75
328.732	9.85
328.943	10.08
329.154	10.17
329.365	10.18
329.576	10.13
329.787	9.63
329.998	9.77
330.209	10.26
330.42	10.62
330.631	10.4
330.842	10.53
331.053	10.99
331.264	10.73
331.475	10.9
331.686	10.87
331.897	11.13
332.108	11.27
332.319	11.15
332.53	11.03
332.741	10.66
332.952	10.68
333.163	10.8
333.374	10.49
333.585	10.39
333.795	10.06
334.006	10.46
334.217	10.4
334.428	10.28
334.639	10.09
334.849	9.75
335.06	9.98
335.271	9.9
335.482	9.65
335.692	9.88
335.903	10.04
336.114	9.9
336.325	9.7
336.535	9.9
336.746	10
336.957	9.82
337.167	10.07
337.378	10.2
337.589	9.94
337.799	10.21
338.01	9.82
338.22	9.77
338.431	10.06
338.642	9.94
338.852	9.81
339.063	9.69
339.273	9.81
339.484	9.97
339.694	9.68
339.905	10.19
340.115	10.02
340.326	10.07
340.536	10.44
340.746	9.89
340.957	9.89
341.167	9.89
341.378	9.92
341.588	9.91
341.799	9.72
342.009	9.76
342.219	9.47
342.43	9.66
342.64	9.79
342.85	9.69
343.061	9.82
343.271	10.09
343.481	9.94
343.691	9.79
343.902	9.96
344.112	9.87
344.322	9.99
344.532	9.81
344.743	9.61
344.953	9.26
345.163	8.91
345.373	8.65
345.583	8.12
345.793	8.15
346.004	8.44
346.214	8.18
346.424	8.24
346.634	8.18
346.844	8.37
347.054	8.23
347.264	8.55
347.474	8.8
347.684	9.28
347.894	9.61
348.104	9.73
348.314	9.52
348.524	9.46
348.734	9.21
348.944	9.19
349.154	9.07
349.364	9.4
349.574	9.19
349.784	9.03
349.994	9.08
350.204	8.9
350.413	8.87
350.623	9.29
350.833	9.42
351.043	9.41
351.253	9.67
351.463	9.32
351.672	9.47
351.882	9.32
352.092	9.06
352.302	8.65
352.511	9.04
352.721	8.61
352.931	7.93
353.141	7.82
353.35	8.12
353.56	7.84
353.77	8
353.979	7.71
354.189	7.94
354.399	8.33
354.608	8.3
354.818	8.01
355.027	8.49
355.237	8.6
355.447	8.75
355.656	8.47
355.866	8.37
356.075	8.41
356.285	8.39
356.494	8.61
356.704	8.77
356.913	8.95
357.123	8.92
357.332	8.76
357.542	8.7
357.751	8.47
357.96	8.91
358.17	8.92
358.379	8.91
358.589	8.93
358.798	8.62
359.007	8.36
359.217	8.49
359.426	8.42
359.635	8.43
359.845	8.47
360.054	8.57
360.263	8.24
360.472	8.04
360.682	8.04
360.891	7.9
361.1	7.85
361.309	7.72
361.519	7.61
361.728	7.62
361.937	7.42
362.146	7.5
362.355	7.51
362.564	7.54
362.774	7.72
362.983	7.78
363.192	7.91
363.401	8.13
363.61	8.08
363.819	8.09
364.028	8.13
364.237	8.24
364.446	8.28
364.655	8.15
364.864	8.14
365.073	8.15
365.282	8.29
365.491	8.34
365.7	8.17
365.909	8.3
366.118	8.45
366.327	8.35
366.536	8.39
366.745	8.43
366.954	8.58
367.162	8.37
367.371	8.5
367.58	8.36
367.789	8.17
367.998	8.27
368.207	8.27
368.415	8.02
368.624	8.16
368.833	8.15
369.042	7.89
369.25	7.83
369.459	7.98
369.668	7.68
369.877	7.66
370.085	7.87
370.294	7.78
370.503	7.76
370.711	7.85
370.92	7.87
371.129	7.6
371.337	7.63
371.546	7.46
371.754	7.56
371.963	7.66
372.171	7.73
372.38	7.48
372.589	7.35
372.797	7.29
373.006	6.91
373.214	6.87
373.423	7.31
373.631	7.45
373.84	7.32
374.048	7.23
374.256	7.25
374.465	7.14
374.673	7.18
374.882	7.35
375.09	7.32
375.298	7.42
375.507	7.06
375.715	6.73
375.923	6.51
376.132	6.66
376.34	6.45
376.548	6.4
376.757	6.41
376.965	6.38
377.173	6.3
377.381	6.47
377.59	6.71
377.798	7.08
378.006	7.05
378.214	6.87
378.423	6.84
378.631	6.88
378.839	6.83
379.047	6.62
379.255	6.57
379.463	6.51
379.671	6.34
379.879	6.21
380.088	6
380.296	6.13
380.504	6.28
380.712	6.15
380.92	6.3
381.128	6.32
381.336	6.36
381.544	6.32
381.752	6.62
381.96	6.64
382.168	6.64
382.376	6.51
382.584	6.47
382.791	6.41
382.999	6.5
383.207	6.47
383.415	6.43
383.623	6.58
383.831	6.68
384.039	6.29
384.247	6.35
384.454	6.35
384.662	6.48
384.87	6.43
385.078	6.38
385.285	6.53
385.493	6.54
385.701	6.68
385.909	6.55
386.116	6.56
386.324	6.63
386.532	6.62
386.739	6.36
386.947	6.35
387.155	6.46
387.362	6.64
387.57	6.38
387.778	6.15
387.985	5.88
388.193	5.88
388.4	5.75
388.608	6.02
388.816	5.83
389.023	6.22
389.231	6.14
389.438	5.98
389.646	6.08
389.853	6.19
390.061	6.13
390.268	6.25
390.475	6.21
390.683	6.27
390.89	5.88
391.098	5.65
391.305	5.36
391.512	5.38
391.72	5.49
391.927	5.56
392.135	5.61
392.342	5.79
392.549	5.97
392.756	6.11
392.964	5.94
393.171	5.99
393.378	6.17
393.586	6.11
393.793	6.19
394	6.13
394.207	5.86
394.414	5.96
394.622	5.82
394.829	5.63
395.036	5.53
395.243	5.47
395.45	5.53
395.657	5.75
395.864	5.89
396.072	5.93
396.279	5.93
396.486	6.03
396.693	5.99
396.9	6.06
397.107	6.09
397.314	6.29
397.521	6.27
397.728	6.18
397.935	6.1
398.142	5.93
398.349	5.75
398.556	5.8
398.763	5.73
398.97	5.64
399.177	5.57
399.383	5.45
399.59	5.3
399.797	5.62
400.004	5.67
400.211	5.52
400.418	5.63
400.625	5.61
400.831	5.45
401.038	5.43
401.245	5.41
401.452	5.44
401.658	5.49
401.865	5.52
402.072	5.65
402.279	5.62
402.485	5.48
402.692	5.58
402.899	5.58
403.105	5.66
403.312	5.72
403.519	5.72
403.725	5.66
403.932	5.67
404.138	5.55
404.345	5.33
404.552	5.41
404.758	5.53
404.965	5.45
405.171	5.65
405.378	5.51
405.584	5.38
405.791	5.3
405.997	5.56
406.204	5.77
406.41	5.81
406.617	5.77
406.823	5.78
407.029	5.66
407.236	5.74
407.442	5.57
407.649	5.61
407.855	5.63
408.061	5.62
408.268	5.47
408.474	5.13
408.68	5.11
408.887	5.13
409.093	5.04
409.299	5.29
409.505	5.21
409.712	5.08
409.918	4.98
410.124	5.01
410.33	5.19
410.537	5.17
410.743	5.31
410.949	5.4
411.155	5.49
411.361	5.49
411.567	5.32
411.773	5.44
411.98	5.59
412.186	5.77
412.392	5.88
412.598	5.83
412.804	5.85
413.01	5.8
413.216	5.76
413.422	5.71
413.628	5.94
413.834	6.15
414.04	6.17
414.246	6.15
414.452	6.33
414.658	6.44
414.864	6.39
415.07	6.2
415.275	6.29
415.481	6.24
415.687	6.11
415.893	5.92
416.099	5.85
416.305	5.76
416.511	5.84
416.716	5.78
416.922	5.61
417.128	5.58
417.334	5.65
417.539	5.49
417.745	5.53
417.951	5.6
418.157	5.59
418.362	5.49
418.568	5.41
418.774	5.35
418.979	5.18
419.185	5.23
419.391	5.14
419.596	5.17
419.802	5.2
420.008	5.12
420.213	5.21
420.419	5.17
420.624	5.3
420.83	5.29
421.035	5.22
421.241	5.33
421.446	5.27
421.652	5.3
421.857	5.28
422.063	5.27
422.268	5.29
422.474	5.22
422.679	5.17
422.885	5.04
423.09	5.14
423.295	5.17
423.501	5.11
423.706	5.17
423.911	5.19
424.117	5.26
424.322	5.31
424.527	5.37
424.733	5.4
424.938	5.49
425.143	5.61
425.349	5.61
425.554	5.74
425.759	5.83
425.964	5.78
426.169	5.83
426.375	5.7
426.58	5.66
426.785	5.68
426.99	5.72
427.195	5.75
427.4	5.63
427.605	5.57
427.811	5.49
428.016	5.49
428.221	5.46
428.426	5.54
428.631	5.6
428.836	5.65
429.041	5.54
429.246	5.43
429.451	5.49
429.656	5.65
429.861	5.65
430.066	5.57
430.271	5.55
430.476	5.65
430.681	5.57
430.886	5.67
431.09	5.74
431.295	5.9
431.5	5.88
431.705	5.89
431.91	5.85
432.115	5.89
432.32	6.09
432.524	6.11
432.729	6.16
432.934	6.08
433.139	6.03
433.343	6.04
433.548	6.02
433.753	6.1
433.958	6.05
434.162	6.04
434.367	5.97
434.572	5.89
434.776	5.72
434.981	5.66
435.186	5.74
435.39	5.74
435.595	5.65
435.799	5.71
436.004	5.7
436.209	5.64
436.413	5.63
436.618	5.84
436.822	5.77
437.027	5.88
437.231	5.95
437.436	5.97
437.64	6.06
437.845	6.13
438.049	5.96
438.253	6.02
438.458	6.07
438.662	6.1
438.867	5.94
439.071	5.92
439.275	6.07
439.48	6.06
439.684	6.12
439.888	6.06
440.093	6.07
440.297	6.14
440.501	6.12
440.706	6.07
440.91	6.08
441.114	6.08
441.318	6.18
441.523	6.15
441.727	6.21
441.931	6.18
442.135	6.22
442.339	6.24
442.543	6.22
442.748	6.25
442.952	6.25
443.156	6.25
443.36	6.38
443.564	6.36
443.768	6.34
443.972	6.33
444.176	6.19
444.38	6.22
444.584	6.17
444.788	6.21
444.992	6.13
445.196	6.15
445.4	6.15
445.604	6.11
445.808	6.13
446.012	6.16
446.216	6.12
446.42	6.1
446.624	6.05
446.828	6.08
447.032	6.13
447.235	6.08
447.439	6.11
447.643	6.06
447.847	6.1
448.051	6.07
448.254	5.92
448.458	5.93
448.662	6.02
448.866	6.07
449.069	5.99
449.273	5.96
449.477	6.05
449.681	6.03
449.884	6.05
450.088	5.96
450.292	6.07
450.495	6.18
450.699	6.04
450.902	6.1
451.106	6.12
451.31	6.1
451.513	6.07
451.717	5.99
451.92	6.12
452.124	6.12
452.327	6.15
452.531	6.07
452.734	6.05
452.938	6.19
453.141	6.14
453.345	6.16
453.548	6.2
453.752	6.31
453.955	6.45
454.158	6.42
454.362	6.47
454.565	6.55
454.769	6.54
454.972	6.66
455.175	6.66
455.379	6.66
455.582	6.67
455.785	6.65
455.988	6.53
456.192	6.43
456.395	6.41
456.598	6.46
456.801	6.53
457.005	6.5
457.208	6.41
457.411	6.37
457.614	6.46
457.817	6.28
458.021	6.27
458.224	6.24
458.427	6.28
458.63	6.27
458.833	6.24
459.036	6.03
459.239	6
459.442	6
459.645	6.07
459.848	6.01
460.051	6.1
460.254	6.15
460.457	6.19
460.66	6.25
460.863	6.23
461.066	6.22
461.269	6.33
461.472	6.34
461.675	6.43
461.878	6.33
462.081	6.39
462.284	6.38
462.486	6.44
462.689	6.39
462.892	6.25
463.095	6.36
463.298	6.34
463.5	6.31
463.703	6.35
463.906	6.24
464.109	6.32
464.311	6.33
464.514	6.33
464.717	6.32
464.92	6.26
465.122	6.25
465.325	6.24
465.528	6.28
465.73	6.28
465.933	6.17
466.135	6.23
466.338	6.21
466.541	6.16
466.743	6.13
466.946	6.1
467.148	6.04
467.351	6.02
467.553	6.01
467.756	5.99
467.958	6.1
468.161	6.31
468.363	6.37
468.566	6.42
468.768	6.46
468.971	6.56
469.173	6.45
469.375	6.56
469.578	6.7
469.78	6.68
469.983	6.76
470.185	6.7
470.387	6.48
470.59	6.37
470.792	6.33
470.994	6.4
471.196	6.35
471.399	6.39
471.601	6.47
471.803	6.44
472.005	6.35
472.208	6.34
472.41	6.41
472.612	6.56
472.814	6.64
473.016	6.68
473.218	6.58
473.421	6.66
473.623	6.68
473.825	6.65
474.027	6.61
474.229	6.68
474.431	6.68
474.633	6.62
474.835	6.51
475.037	6.45
475.239	6.36
475.441	6.4
475.643	6.31
475.845	6.38
476.047	6.42
476.249	6.48
476.451	6.52
476.653	6.45
476.855	6.48
477.057	6.49
477.258	6.44
477.46	6.54
477.662	6.52
477.864	6.54
478.066	6.4
478.268	6.42
478.469	6.38
478.671	6.41
478.873	6.51
479.075	6.43
479.276	6.45
479.478	6.48
479.68	6.43
479.882	6.49
480.083	6.46
480.285	6.57
480.487	6.51
480.688	6.55
480.89	6.55
481.091	6.4
481.293	6.44
481.495	6.47
481.696	6.45
481.898	6.46
482.099	6.33
482.301	6.35
482.502	6.3
482.704	6.31
482.905	6.27
483.107	6.19
483.308	6.19
483.51	6.14
483.711	6.1
483.913	6.07
484.114	6.07
484.315	6.1
484.517	6.08
484.718	6.06
484.92	6.05
485.121	6.06
485.322	6.07
485.524	6.12
485.725	6.15
485.926	6.18
486.127	6.22
486.329	6.18
486.53	6.14
486.731	6.2
486.932	6.24
487.134	6.2
487.335	6.21
487.536	6.21
487.737	6.19
487.938	6.17
488.139	6.16
488.341	6.13
488.542	6.13
488.743	6.16
488.944	6.12
489.145	6.13
489.346	6.16
489.547	6.19
489.748	6.18
489.949	6.22
490.15	6.28
490.351	6.26
490.552	6.33
490.753	6.4
490.954	6.38
491.155	6.29
491.356	6.29
491.557	6.29
491.758	6.25
491.959	6.31
492.159	6.28
492.36	6.3
492.561	6.35
492.762	6.32
492.963	6.27
493.164	6.3
493.364	6.43
493.565	6.4
493.766	6.43
493.967	6.44
494.167	6.37
494.368	6.42
494.569	6.37
494.769	6.31
494.97	6.37
495.171	6.39
495.371	6.45
495.572	6.43
495.773	6.55
495.973	6.58
496.174	6.64
496.375	6.71
496.575	6.63
496.776	6.7
496.976	6.74
497.177	6.71
497.377	6.76
497.578	6.68
497.778	6.71
497.979	6.68
498.179	6.73
498.38	6.72
498.58	6.64
498.78	6.7
498.981	6.64
499.181	6.63
499.382	6.65
499.582	6.72
499.782	6.85
499.983	6.96
500.183	6.99
500.383	6.96
500.584	6.94
500.784	7.01
500.984	7.12
501.184	7.16
501.385	7.16
501.585	7.25
501.785	7.15
501.985	7.09
502.185	7.05
502.386	7.07
502.586	7.05
502.786	7
502.986	7
503.186	6.89
503.386	6.86
503.586	6.95
503.786	6.97
503.987	7.02
504.187	7.1
504.387	7.11
504.587	7.13
504.787	7.21
504.987	7.24
505.187	7.32
505.387	7.48
505.587	7.53
505.786	7.56
505.986	7.55
506.186	7.59
506.386	7.67
506.586	7.7
506.786	7.73
506.986	7.75
507.186	7.89
507.386	7.85
507.585	7.82
507.785	7.85
507.985	7.88
508.185	7.87
508.384	7.93
508.584	7.85
508.784	7.87
508.984	7.86
509.183	7.86
509.383	7.85
509.583	7.93
509.782	7.91
509.982	7.97
510.182	8.04
510.381	8.08
510.581	8.01
510.781	8
510.98	8.03
511.18	7.97
511.379	8.01
511.579	8.06
511.778	8.11
511.978	8.16
512.177	8.18
512.377	8.12
512.576	8.11
512.776	8.15
512.975	8.2
513.175	8.17
513.374	8.3
513.573	8.36
513.773	8.33
513.972	8.37
514.172	8.52
514.371	8.62
514.57	8.74
514.77	8.81
514.969	8.89
515.168	8.97
515.367	9.04
515.567	9
515.766	9
515.965	9.2
516.164	9.14
516.364	9.15
516.563	9.22
516.762	9.33
516.961	9.42
517.16	9.55
517.359	9.59
517.559	9.6
517.758	9.61
517.957	9.65
518.156	9.64
518.355	9.78
518.554	9.83
518.753	9.84
518.952	9.75
519.151	9.83
519.35	9.82
519.549	9.88
519.748	9.97
519.947	10.17
520.146	10.22
520.345	10.32
520.544	10.38
520.743	10.42
520.942	10.41
521.141	10.56
521.339	10.55
521.538	10.63
521.737	10.7
521.936	10.71
522.135	10.66
522.333	10.73
522.532	10.65
522.731	10.48
522.93	10.62
523.129	10.69
523.327	10.79
523.526	10.82
523.725	10.75
523.923	10.81
524.122	10.98
524.321	11.09
524.519	11.16
524.718	11.26
524.917	11.36
525.115	11.34
525.314	11.38
525.512	11.41
525.711	11.5
525.909	11.61
526.108	11.6
526.306	11.61
526.505	11.64
526.703	11.69
526.902	11.67
527.1	11.79
527.299	11.86
527.497	11.92
527.696	11.87
527.894	11.89
528.092	11.92
528.291	12
528.489	11.97
528.688	11.97
528.886	11.98
529.084	12.05
529.283	12.02
529.481	11.97
529.679	11.98
529.877	12.05
530.076	12.08
530.274	12.13
530.472	12.16
530.67	12.26
530.869	12.34
531.067	12.43
531.265	12.57
531.463	12.67
531.661	12.83
531.859	12.89
532.057	12.9
532.255	12.97
532.454	12.99
532.652	12.98
532.85	13.06
533.048	13.08
533.246	13.05
533.444	13.02
533.642	13.02
533.84	12.97
534.038	12.98
534.236	13.09
534.434	13.13
534.632	13.19
534.83	13.25
535.027	13.26
535.225	13.35
535.423	13.39
535.621	13.39
535.819	13.5
536.017	13.6
536.215	13.72
536.412	13.72
536.61	13.74
536.808	13.77
537.006	13.83
537.203	13.83
537.401	13.85
537.599	13.88
537.797	13.94
537.994	13.93
538.192	13.92
538.39	13.94
538.587	14.02
538.785	14.04
538.983	14.12
539.18	14.21
539.378	14.27
539.575	14.32
539.773	14.51
539.97	14.53
540.168	14.59
540.366	14.67
540.563	14.64
540.761	14.57
540.958	14.58
541.155	14.54
541.353	14.49
541.55	14.5
541.748	14.57
541.945	14.52
542.143	14.56
542.34	14.56
542.537	14.55
542.735	14.6
542.932	14.66
543.129	14.66
543.327	14.76
543.524	14.85
543.721	14.91
543.919	14.83
544.116	14.88
544.313	14.85
544.51	14.88
544.708	14.99
544.905	14.92
545.102	15.01
545.299	15.06
545.496	15.11
545.693	15.09
545.891	15.11
546.088	15.15
546.285	15.13
546.482	15.13
546.679	15.11
546.876	15.05
547.073	15.17
547.27	15.18
547.467	15.3
547.664	15.26
547.861	15.36
548.058	15.3
548.255	15.36
548.452	15.44
548.649	15.58
548.846	15.66
549.043	15.71
549.24	15.77
549.437	15.74
549.633	15.56
549.83	15.52
550.027	15.49
550.224	15.53
550.421	15.62
550.618	15.56
550.814	15.53
551.011	15.4
551.208	15.44
551.405	15.52
551.601	15.53
551.798	15.67
551.995	15.71
552.191	15.64
552.388	15.8
552.585	15.71
552.781	15.67
552.978	15.71
553.175	15.99
553.371	15.95
553.568	15.86
553.764	15.91
553.961	15.91
554.157	16.02
554.354	16.19
554.55	16.09
554.747	16.21
554.943	16.28
555.14	16.33
555.336	16.26
555.533	16.21
555.729	16.25
555.926	16.2
556.122	16.24
556.318	16.23
556.515	16.16
556.711	16.09
556.907	16.02
557.104	16.21
557.3	16.18
557.496	16.19
557.693	16.19
557.889	16.17
558.085	16.17
558.281	16.21
558.478	16.16
558.674	16.12
558.87	16.28
559.066	16.27
559.262	16.08
559.459	16.16
559.655	16.22
559.851	16.28
560.047	16.28
560.243	16.49
560.439	16.52
560.635	16.67
560.831	16.74
561.027	16.65
561.223	16.86
561.419	16.8
561.615	16.88
561.811	16.7
562.007	16.77
562.203	16.82
562.399	16.71
562.595	16.65
562.791	16.58
562.987	16.51
563.183	16.47
563.379	16.36
563.575	16.43
563.771	16.25
563.966	16.41
564.162	16.45
564.358	16.38
564.554	16.45
564.75	16.39
564.945	16.27
565.141	16.43
565.337	16.52
565.533	16.57
565.728	16.66
565.924	16.77
566.12	16.69
566.315	16.63
566.511	16.74
566.707	16.56
566.902	16.7
567.098	16.77
567.293	16.67
567.489	16.68
567.684	16.64
567.88	16.63
568.076	16.51
568.271	16.69
568.467	16.81
568.662	16.77
568.858	16.97
569.053	17.02
569.248	17.09
569.444	17.22
569.639	17.21
569.835	17.24
570.03	17.26
570.225	17.44
570.421	17.41
570.616	17.24
570.812	17.26
571.007	17.14
571.202	17.15
571.397	17.1
571.593	17.11
571.788	17.2
571.983	17.21
572.178	17.29
572.374	17.28
572.569	17.22
572.764	17.34
572.959	17.4
573.154	17.47
573.35	17.45
573.545	17.49
573.74	17.38
573.935	17.33
574.13	17.49
574.325	17.45
574.52	17.52
574.715	17.57
574.91	17.71
575.105	17.74
575.3	17.81
575.495	17.87
575.69	17.85
575.885	17.97
576.08	18.02
576.275	18.02
576.47	18.09
576.665	18
576.86	18.11
577.055	17.97
577.25	17.99
577.444	17.96
577.639	18.01
577.834	18.19
578.029	18.21
578.224	18.31
578.418	18.29
578.613	18.29
578.808	18.44
579.003	18.47
579.197	18.62
579.392	18.66
579.587	18.68
579.781	18.59
579.976	18.49
580.171	18.45
580.365	18.42
580.56	18.35
580.755	18.4
580.949	18.43
581.144	18.36
581.338	18.3
581.533	18.26
581.727	18.29
581.922	18.23
582.116	18.2
582.311	18.38
582.505	18.63
582.7	18.68
582.894	18.63
583.089	18.62
583.283	18.65
583.478	18.78
583.672	18.69
583.866	18.78
584.061	18.95
584.255	19.08
584.449	19.02
584.644	18.97
584.838	19.11
585.032	19.14
585.226	18.99
585.421	19.1
585.615	18.97
585.809	19.22
586.003	19.19
586.198	19.31
586.392	19.38
586.586	19.34
586.78	19.18
586.974	19.01
587.168	19.09
587.363	19.33
587.557	19.35
587.751	19.41
587.945	19.38
588.139	19.43
588.333	19.31
588.527	19.35
588.721	19.23
588.915	19.21
589.109	19.17
589.303	19.23
589.497	19.2
589.691	19.14
589.885	19.06
590.079	18.91
590.273	18.87
590.466	18.83
590.66	18.81
590.854	18.9
591.048	18.98
591.242	19.03
591.436	18.93
591.629	18.94
591.823	18.99
592.017	19.17
592.211	19.19
592.404	19.25
592.598	19.3
592.792	19.13
592.986	19.24
593.179	19.25
593.373	19.27
593.567	19.31
593.76	19.24
593.954	19.26
594.147	19.44
594.341	19.39
594.535	19.44
594.728	19.26
594.922	19.44
595.115	19.21
595.309	19.2
595.502	19.3
595.696	19.38
595.889	19.34
596.083	19.25
596.276	18.95
596.47	18.89
596.663	18.82
596.856	18.85
597.05	18.73
597.243	18.92
597.437	18.87
597.63	18.9
597.823	18.77
598.017	18.85
598.21	18.82
598.403	18.87
598.596	19.22
598.79	19.24
598.983	19.47
599.176	19.58
599.369	19.49
599.563	19.44
599.756	19.38
599.949	19.4
600.142	19.43
600.335	19.42
600.528	19.43
600.722	19.31
600.915	19.3
601.108	19.25
601.301	19.19
601.494	19.23
601.687	19.34
601.88	19.34
602.073	19.34
602.266	19.17
602.459	19.37
602.652	19.31
602.845	19.29
603.038	19.17
603.231	19.15
603.424	19.09
603.617	19.08
603.809	19.13
604.002	19.07
604.195	18.98
604.388	19.09
604.581	19.04
604.774	19.07
604.966	19.03
605.159	19.13
605.352	19.22
605.545	19.4
605.737	19.41
605.93	19.33
606.123	19.31
606.316	19.59
606.508	19.69
606.701	19.68
606.894	19.79
607.086	20.03
607.279	20.17
607.471	20.02
607.664	20.09
607.857	20.28
608.049	20.52
608.242	20.6
608.434	20.62
608.627	20.68
608.819	20.76
609.012	20.94
609.204	21.15
609.397	21.39
609.589	21.91
609.782	22.14
609.974	22.39
610.166	22.65
610.359	23.13
610.551	23.44
610.743	23.65
610.936	24.08
611.128	24.29
611.32	24.41
611.513	24.49
611.705	24.43
611.897	24.29
612.09	24.26
612.282	24.12
612.474	23.81
612.666	23.6
612.858	23.41
613.051	23.2
613.243	23.16
613.435	23
613.627	22.96
613.819	22.68
614.011	22.89
614.203	22.8
614.395	22.8
614.588	22.7
614.78	22.41
614.972	22.43
615.164	22.26
615.356	22.05
615.548	21.98
615.74	21.88
615.932	21.93
616.124	21.78
616.315	21.7
616.507	21.5
616.699	21.53
616.891	21.66
617.083	21.47
617.275	21.35
617.467	21.4
617.659	21.16
617.85	20.88
618.042	20.76
618.234	20.4
618.426	20.22
618.618	20.39
618.809	20.43
619.001	20.44
619.193	20.39
619.384	20.35
619.576	20.21
619.768	20.3
619.959	20.18
620.151	19.94
620.343	20.07
620.534	20.12
620.726	20.04
620.917	19.89
621.109	19.83
621.301	20.16
621.492	20.31
621.684	20.37
621.875	20.54
622.067	20.77
622.258	20.79
622.45	20.8
622.641	20.92
622.832	20.72
623.024	20.82
623.215	20.75
623.407	20.56
623.598	20.49
623.789	20.66
623.981	20.75
624.172	20.84
624.363	21
624.555	21.07
624.746	21
624.937	21.21
625.129	21.15
625.32	21.11
625.511	21.06
625.702	21.05
625.893	20.98
626.085	20.62
626.276	20.62
626.467	20.66
626.658	20.57
626.849	20.52
627.04	20.41
627.231	20.54
627.422	20.73
627.614	20.74
627.805	20.79
627.996	20.72
628.187	20.82
628.378	20.83
628.569	20.81
628.76	20.87
628.951	20.91
629.142	20.92
629.332	20.82
629.523	20.65
629.714	20.75
629.905	20.91
630.096	21.14
630.287	21.28
630.478	21.38
630.669	21.46
630.859	21.22
631.05	21.41
631.241	21.36
631.432	21.39
631.623	21.55
631.813	21.54
632.004	21.43
632.195	21.09
632.385	20.8
632.576	20.58
632.767	20.62
632.957	20.9
633.148	20.71
633.339	20.74
633.529	20.63
633.72	20.7
633.91	20.49
634.101	20.45
634.292	20.62
634.482	20.84
634.673	21.01
634.863	20.92
635.054	21.05
635.244	21.11
635.435	21.26
635.625	21.5
635.815	21.2
636.006	21.4
636.196	21.35
636.387	21.33
636.577	21.24
636.767	21.2
636.958	21.2
637.148	21
637.338	21
637.529	21.04
637.719	20.73
637.909	21.12
638.099	21.09
638.29	21.04
638.48	20.86
638.67	21.11
638.86	21.11
639.05	21.03
639.241	21.38
639.431	21.31
639.621	21.11
639.811	21.3
640.001	21.2
640.191	21.04
640.381	21.17
640.571	21.41
640.761	21.16
640.951	21.19
641.141	21.23
641.331	20.88
641.521	20.95
641.711	21.12
641.901	21.21
642.091	21.21
642.281	21.56
642.471	21.54
642.661	21.41
642.851	21.63
643.041	21.71
643.231	21.72
643.42	21.86
643.61	22.08
643.8	22.04
643.99	21.86
644.18	21.79
644.369	21.53
644.559	21.64
644.749	21.81
644.939	21.88
645.128	21.67
645.318	21.66
645.508	21.75
645.697	21.66
645.887	21.73
646.076	21.86
646.266	21.66
646.456	21.67
646.645	21.4
646.835	21.24
647.024	21.09
647.214	21.16
647.403	21.42
647.593	21.34
647.782	21.34
647.972	21.04
648.161	21.25
648.351	21.45
648.54	21.36
648.73	21.51
648.919	21.63
649.108	21.76
649.298	21.81
649.487	21.75
649.677	21.59
649.866	21.3
650.055	21.57
650.244	21.25
650.434	21.54
650.623	21.6
650.812	21.49
651.002	21.38
651.191	21.27
651.38	21.36
651.569	21.28
651.758	21.22
651.947	21.41
652.137	21.44
652.326	21.65
652.515	21.36
652.704	21.61
652.893	21.72
653.082	21.73
653.271	21.81
653.46	21.91
653.649	22.17
653.838	22.3
654.027	22.32
654.216	22.43
654.405	22.43
654.594	22.69
654.783	22.63
654.972	22.83
655.161	22.85
655.35	22.95
655.539	22.72
655.728	22.32
655.916	22.24
656.105	22.32
656.294	22.25
656.483	21.84
656.672	21.69
656.86	21.57
657.049	21.28
657.238	21.43
657.427	21.16
657.615	21.31
657.804	21.21
657.993	21.1
658.181	20.98
658.37	20.86
658.559	21.2
658.747	21.03
658.936	20.93
659.125	20.86
659.313	20.78
659.502	20.76
659.69	20.52
659.879	20.91
660.067	21.23
660.256	21.24
660.444	21.38
660.633	21.14
660.821	21.34
661.01	21.42
661.198	21.6
661.387	21.6
661.575	21.88
661.763	22.23
661.952	22
662.14	21.85
662.328	21.84
662.517	21.91
662.705	22.26
662.893	22.41
663.082	22.43
663.27	22.75
663.458	22.88
663.646	22.68
663.834	22.6
664.023	22.66
664.211	22.79
664.399	22.82
664.587	22.85
664.775	22.9
664.963	22.8
665.152	23.01
665.34	22.91
665.528	22.95
665.716	23.33
665.904	23.33
666.092	23.67
666.28	23.82
666.468	24.09
666.656	24.08
666.844	23.85
667.032	23.78
667.22	23.84
667.408	23.77
667.596	23.56
667.784	23.23
667.971	23.06
668.159	22.91
668.347	22.74
668.535	22.53
668.723	22.41
668.911	22.6
669.098	22.59
669.286	22.64
669.474	22.62
669.662	22.9
669.849	22.68
670.037	22.67
670.225	22.59
670.413	22.77
670.6	22.73
670.788	22.74
670.976	22.56
671.163	22.61
671.351	22.76
671.538	22.73
671.726	22.64
671.913	22.88
672.101	23.03
672.289	23.08
672.476	22.84
672.664	23.03
672.851	23.15
673.039	23.08
673.226	22.91
673.413	22.52
673.601	22.41
673.788	22.4
673.976	22.62
674.163	22.64
674.35	22.93
674.538	23.19
674.725	23.47
674.912	23.49
675.1	23.44
675.287	23.52
675.474	23.84
675.662	23.91
675.849	24.05
676.036	23.83
676.223	23.77
676.411	23.29
676.598	23.25
676.785	23.04
676.972	22.92
677.159	23.19
677.346	23.3
677.533	23.21
677.721	23.21
677.908	23.01
678.095	23.22
678.282	23.29
678.469	23.45
678.656	23.31
678.843	23.06
679.03	22.91
679.217	23.01
679.404	23.06
679.591	23.18
679.778	23.57
679.964	23.82
680.151	23.87
680.338	23.82
680.525	23.72
680.712	23.56
680.899	23.73
681.086	24.06
681.272	23.88
681.459	23.67
681.646	23.48
681.833	23.29
682.02	23.12
682.206	22.91
682.393	22.85
682.58	23.08
682.766	23.23
682.953	23.33
683.14	23.44
683.326	23.67
683.513	23.92
683.7	24.14
683.886	24.22
684.073	24.04
684.259	24.06
684.446	24.23
684.632	24.15
684.819	24.29
685.005	24.03
685.192	23.87
685.378	23.89
685.565	23.99
685.751	24.07
685.938	24.12
686.124	24.31
686.31	24.43
686.497	24.55
686.683	24.59
686.87	24.78
687.056	25.02
687.242	25.01
687.429	24.99
687.615	25
687.801	24.7
687.987	24.53
688.174	24.68
688.36	24.62
688.546	24.58
688.732	24.52
688.918	24.42
689.105	24.53
689.291	24.27
689.477	24.18
689.663	24.19
689.849	24.24
690.035	24.26
690.221	24.09
690.407	24.21
690.593	24.05
690.779	23.79
690.965	23.55
691.151	23.44
691.337	23.98
691.523	23.95
691.709	23.95
691.895	24.01
692.081	24.33
692.267	23.95
692.453	24.11
692.639	23.99
692.825	24.04
693.011	24.18
693.196	24.45
693.382	24.24
693.568	24.41
693.754	24.84
693.94	24.81
694.125	24.44
694.311	25.09
694.497	24.85
694.682	25.34
694.868	25.73
695.054	25.64
695.239	25.59
695.425	25.31
695.611	25.37
695.796	24.98
695.982	24.94
696.168	24.86
696.353	24.8
696.539	24.8
696.724	24.65
696.91	24.71
697.095	24.67
697.281	24.34
697.466	24.61
697.652	24.25
697.837	24.12
698.023	24.06
698.208	24.08
698.393	24.01
698.579	24.04
698.764	23.74
698.949	23.4
699.135	23.62
699.32	23.66
699.505	23.32
699.691	23.54
699.876	23.71
700.061	23.65
700.246	23.64
700.432	23.71
700.617	23.77
700.802	24.29
700.987	24.35
701.172	24.31
701.358	24.63
701.543	24.78
701.728	24.93
701.913	24.77
702.098	25.23
702.283	25.71
702.468	25.98
702.653	25.86
702.838	25.87
703.023	26.41
703.208	26.36
703.393	26.03
703.578	26.65
703.763	26.59
703.948	27.19
704.133	26.99
704.318	26.47
704.503	26.58
704.688	27.1
704.873	27.23
705.057	27.32
705.242	27.55
705.427	28.05
705.612	27.98
705.797	28.17
705.981	27.93
706.166	28.09
706.351	28.71
706.536	28.84
706.72	28.57
706.905	28.74
707.09	28.54
707.274	28.67
707.459	28.88
707.644	28.83
707.828	28.71
708.013	28.59
708.197	28.85
708.382	28.39
708.567	28.04
708.751	27.91
708.936	27.66
709.12	27.73
709.305	27.37
709.489	26.94
709.673	26.93
709.858	27.17
710.042	27.42
710.227	27.52
710.411	27.46
710.596	27.47
710.78	27.78
710.964	27.83
711.149	27.65
711.333	27.72
711.517	27.96
711.702	28.23
711.886	28.04
712.07	27.9
712.254	27.42
712.438	27.27
712.623	27.24
712.807	26.77
712.991	26.36
713.175	26.52
713.359	26.74
713.544	26.76
713.728	26.33
713.912	26.15
714.096	26.08
714.28	26
714.464	26.06
714.648	26.16
714.832	26.27
715.016	26.32
715.2	26.09
715.384	25.82
715.568	25.57
715.752	25.39
715.936	25.27
716.12	25.17
716.304	25.38
716.488	25.18
716.671	25.04
716.855	25.05
717.039	25.1
717.223	25.14
717.407	25.24
717.59	24.75
717.774	25.17
717.958	25.58
718.142	25.55
718.325	25.32
718.509	26.16
718.693	26.3
718.877	26.54
719.06	26.68
719.244	26.58
719.428	26.36
719.611	26.9
719.795	26.91
719.978	27.27
720.162	27.57
720.345	27.44
720.529	27.43
720.713	27.76
720.896	27.47
721.08	27.32
721.263	27.94
721.446	28.52
721.63	28.61
721.813	28.2
721.997	27.54
722.18	27.36
722.364	27.91
722.547	27.59
722.73	27.38
722.914	27.54
723.097	27.83
723.28	27.37
723.464	27.67
723.647	27.47
723.83	27.73
724.013	27.48
724.197	27.77
724.38	27.81
724.563	27.33
724.746	26.68
724.929	27
725.112	26.87
725.296	26.95
725.479	25.91
725.662	25.82
725.845	26
726.028	26.3
726.211	25.94
726.394	25.7
726.577	25.71
726.76	26.02
726.943	26
727.126	25.63
727.309	25.63
727.492	26.46
727.675	26.53
727.858	25.94
728.041	25.9
728.224	25.81
728.407	25.62
728.589	26.24
728.772	26.34
728.955	26.27
729.138	26.78
729.321	26.74
729.503	26.44
729.686	26.29
729.869	26.39
730.052	26.87
730.234	27.06
730.417	27.45
730.6	27.09
730.782	27.37
730.965	26.9
731.148	26.97
731.33	27.2
731.513	27.48
731.695	27.58
731.878	28.21
732.061	28.23
732.243	28.47
732.426	28.25
732.608	28.89
732.791	28.49
732.973	28.79
733.156	28.76
733.338	28.38
733.52	28.24
733.703	28.3
733.885	27.97
734.068	27.64
734.25	26.89
734.432	27.21
734.615	26.81
734.797	27.33
734.979	27.44
735.162	27.06
735.344	27.19
735.526	27.17
735.708	27.23
735.891	27.14
736.073	27.59
736.255	28.47
736.437	28.31
736.619	27.88
736.802	27.85
736.984	28.24
737.166	28.52
737.348	29.05
737.53	29.37
737.712	29.5
737.894	29.82
738.076	29.55
738.258	29.51
738.44	29.51
738.622	30.1
738.804	29.55
738.986	28.7
739.168	28.72
739.35	28.83
739.532	28.51
739.714	28.93
739.896	28.73
740.078	28.57
740.259	28.28
740.441	28.96
740.623	28.91
740.805	29.23
740.987	29.93
741.168	30.35
741.35	29.87
741.532	29.17
741.714	29.29
741.895	29.69
742.077	29.6
742.259	29.46
742.44	28.93
742.622	29.18
742.804	28.91
742.985	29.09
743.167	28.9
743.348	29.24
743.53	29.9
743.711	29.7
743.893	29.77
744.075	30
744.256	30.21
744.438	29.84
744.619	30.12
744.8	30.09
744.982	30.46
745.163	30.25
745.345	30.78
745.526	31.85
745.707	31.73
745.889	31.97
746.07	31.89
746.252	32.25
746.433	32.95
746.614	32.54
746.795	33.19
746.977	32.73
747.158	32.92
747.339	32.67
747.52	32.04
747.702	32.29
747.883	31.9
748.064	32.86
748.245	32.64
748.426	31.75
748.607	31.73
748.788	31.98
748.97	32.37
749.151	32.31
749.332	32.29
749.513	31.58
749.694	31.62
749.875	31.63
750.056	30.94
750.237	31.23
750.418	31.87
750.599	31.49
750.78	31.02
750.96	30.48
751.141	30.71
751.322	30.65
751.503	31.24
751.684	30.72
751.865	30.41
752.046	30.13
752.226	29.85
752.407	29.99
752.588	30.07
752.769	30.29
752.949	30.27
753.13	30.5
753.311	30.32
753.492	30.23
753.672	30.92
753.853	31.32
754.034	31.32
754.214	31.13
754.395	31.11
754.575	32.35
754.756	32.5
754.937	32.6
755.117	32.99
755.298	33.01
755.478	32.78
755.659	32.27
755.839	31.77
756.02	31.5
756.2	32.89
756.381	33.38
756.561	32.53
756.741	31.95
756.922	31.84
757.102	31.31
757.283	31.44
757.463	32.29
757.643	32.66
757.823	33.07
758.004	33.67
758.184	32.79
758.364	32.26
758.545	31.93
758.725	32.36
758.905	32.4
759.085	31.13
759.265	30.07
759.446	29.43
759.626	28.97
759.806	28.44
759.986	28.96
760.166	28.64
760.346	28.07
760.526	27.99
760.706	27.46
760.886	27.26
761.066	27.96
761.246	29.3
761.426	29.52
761.606	29.74
761.786	29.85
761.966	29.1
762.146	28.68
762.326	28.62
762.506	28.91
762.686	28.8
762.866	28.27
763.046	28.11
763.225	27.66
763.405	26.94
763.585	26.78
763.765	27.26
763.945	27.31
764.124	27.55
764.304	27.87
764.484	27.71
764.664	27.88
764.843	28.6
765.023	28.88
765.203	28.57
765.382	29.02
765.562	29.25
765.741	28.54
765.921	28.57
766.101	29.46
766.28	29.08
766.46	29.28
766.639	29.52
766.819	29.74
766.998	30.62
767.178	31.02
767.357	31.21
767.537	31.79
767.716	32.14
767.896	32.49
768.075	32.23
768.254	32.5
768.434	32.43
768.613	33.14
768.792	33.44
768.972	32.13
769.151	32.79
769.33	33.74
769.51	33.44
769.689	34.24
769.868	34.48
770.047	34.75
770.226	35.14
770.406	34.85
770.585	34.23
770.764	33.85
770.943	35.05
771.122	35.1
771.301	34.6
771.48	34.06
771.66	34.16
771.839	34.63
772.018	34.22
772.197	35.21
772.376	35.62
772.555	34.94
772.734	35.19
772.913	34.91
773.092	35.14
773.271	34.19
773.449	35.34
773.628	34.72
773.807	33.87
773.986	34.24
774.165	32.85
774.344	34.87
774.523	35.89
774.701	35.61
774.88	35.77
775.059	35.34
775.238	36.54
775.417	36.26
775.595	36.75
775.774	37.61
775.953	37.2
776.131	38.18
776.31	36.92
776.489	37.5
776.667	37.72
776.846	37.45
777.025	37.53
777.203	36.59
777.382	36.64
777.56	36.03
777.739	35.6
777.917	35.8
778.096	36.3
778.274	35.24
778.453	35.02
778.631	34.95
778.81	35.27
778.988	35.61
779.166	36.91
779.345	36.47
779.523	36.77
779.702	37.36
779.88	37.77
780.058	37.25
780.237	38.27
780.415	37.93
780.593	37.54
780.771	36.78
780.95	37.57
781.128	36.69
781.306	37.42
781.484	37.61
781.662	37.02
781.841	37.5
782.019	37.43
782.197	37.66
782.375	37.37
782.553	38.13
782.731	38.23
782.909	37.35
783.087	37.28
783.265	36.73
783.443	37.42
783.621	37.16
783.799	36.82
783.977	37.89
784.155	37.08
784.333	38.25
784.511	37.39
784.689	38.64
784.867	38.6
785.045	38.14
785.223	38.53
785.4	37.74
785.578	38.62
785.756	38.19
785.934	37.12
786.112	36.85
786.289	35.95
786.467	36.45
786.645	35.72
786.823	36.08
787	37.44
787.178	36.76
787.356	35.57
787.533	35.18
787.711	34.96
787.889	34.91
788.066	34.95
788.244	34.46
788.421	34.97
788.599	35.64
788.776	36.23
788.954	35.39
789.131	35.87
789.309	37.33
789.486	37.27
789.664	37.73
789.841	37.66
790.019	37.8
790.196	37.86
790.373	36.88
790.551	36.7
790.728	36.06
790.906	37.39
791.083	39.14
791.26	39.52
791.437	38.84
791.615	38.84
791.792	38.15
791.969	38.16
792.146	38.84
792.324	40.55
792.501	39.32
792.678	39.31
792.855	39.51
793.032	36.93
793.209	36.56
793.387	37.82
793.564	37.3
793.741	38.58
793.918	39.97
794.095	40.76
794.272	39.42
794.449	39.44
794.626	37.95
794.803	37.33
794.98	37.59
795.157	37.6
795.334	36.64
795.511	36.48
795.688	36.41
795.864	35.12
796.041	34.39
796.218	35.68
796.395	36.3
796.572	36.26
796.749	36.14
796.925	36.72
797.102	36.03
797.279	35.09
797.456	34.64
797.632	33.74
797.809	34.93
797.986	34.9
798.162	33.42
798.339	33.64
798.516	34.81
798.692	34.69
798.869	34.27
799.046	35.21
799.222	36.68
799.399	38.03
799.575	38.5
799.752	37.4
799.928	37.97
800.105	37.41
800.281	37.28
800.458	36.67
800.634	36.59
800.811	37.24
800.987	37.35
801.163	36.61
801.34	35.28
801.516	36.04
801.692	36.6
801.869	36.4
802.045	36.57
802.221	37.13
802.398	37.59
802.574	38.45
802.75	39.05
802.926	39.39
803.103	40.64
803.279	41.67
803.455	40.78
803.631	40.88
803.807	40
803.983	40.64
804.16	41.39
804.336	41.02
804.512	40.91
804.688	39.83
804.864	38.89
805.04	38.26
805.216	38.21
805.392	38.13
805.568	38.16
805.744	38.06
805.92	39.47
806.096	38.24
806.272	38.68
806.448	37.81
806.623	38.89
806.799	38.06
806.975	37.52
807.151	37.44
807.327	37.5
807.503	36.7
807.678	37.48
807.854	36.98
808.03	37.28
808.206	36.21
808.381	35.81
808.557	35.28
808.733	34.65
808.908	34.63
809.084	34.76
809.26	35.97
809.435	36.82
809.611	36.15
809.787	35.6
809.962	35.13
810.138	35.71
810.313	35.96
810.489	35.14
810.664	36.8
810.84	36.78
811.015	37.71
811.191	36.48
811.366	36.9
811.542	36.62
811.717	37.29
811.892	38.25
812.068	38.01
812.243	37.81
812.419	38.23
812.594	38.33
812.769	38.43
812.944	38.44
813.12	38.69
813.295	38.17
813.47	40.06
813.645	40.41
813.821	38.46
813.996	39.85
814.171	39.53
814.346	38.49
814.521	38.8
814.697	39.12
814.872	38.17
815.047	38.65
815.222	38.27
815.397	37.63
815.572	38.17
815.747	38.87
815.922	37.54
816.097	36.76
816.272	38.23
816.447	37.5
816.622	36.64
816.797	36.86
816.972	35.91
817.147	34.98
817.322	35.19
817.496	32.8
817.671	32.73
817.846	33.72
818.021	34.19
818.196	34.4
818.371	34.53
818.545	33.91
818.72	33.31
818.895	33.35
819.069	34.25
819.244	32.37
819.419	31.75
819.594	31.33
819.768	30.41
819.943	29.72
820.117	27.56
820.292	27.74
820.467	27.67
820.641	27.18
820.816	26.22
820.99	25.64
821.165	25.83
821.339	25.76
821.514	25.65
821.688	25.82
821.863	25.94
822.037	26.18
822.212	25.57
822.386	25.44
822.56	25.12
822.735	25.27
822.909	25.25
823.084	25.16
823.258	25.24
823.432	24.93
823.606	24.86
823.781	24.8
823.955	24.31
824.129	24.42
824.303	24.46
824.478	24.48
824.652	24.55
824.826	24.2
825	24.54
825.174	24.86
825.348	25.28
825.523	24.76
825.697	24.69
825.871	26.01
826.045	25.99
826.219	25.87
826.393	26.75
826.567	27.22
826.741	28.14
826.915	27.59
827.089	27.62
827.263	27.46
827.437	27.75
827.611	27.89
827.784	28.14
827.958	28.78
828.132	29.33
828.306	28.87
828.48	29.11
828.654	29.28
828.827	29.44
829.001	29.5
829.175	30.73
829.349	31.7
829.522	32.59
829.696	32.65
829.87	32.48
830.044	32.61
830.217	32.97
830.391	32.38
830.565	31.83
830.738	34.02
830.912	34.67
831.085	34.27
831.259	32.9
831.432	31.45
831.606	32.15
831.779	31.64
831.953	30.86
832.126	32.01
832.3	31.55
832.473	32.18
832.647	31.16
832.82	30.57
832.994	29.88
833.167	30.25
833.34	30.87
833.514	29.62
833.687	29.29
833.86	29.08
834.034	28.01
834.207	28.66
834.38	28.19
834.553	28.56
834.727	28.4
834.9	28.49
835.073	28.15
835.246	28.19
835.419	28.79
835.593	29.95
835.766	30.56
835.939	32.94
836.112	33.48
836.285	33.04
836.458	32.31
836.631	32.27
836.804	34.3
836.977	35.61
837.15	36.86
837.323	37.44
837.496	37.35
837.669	39.01
837.842	37.84
838.015	38.94
838.188	42.74
838.361	44.14
838.533	43.95
838.706	41.74
838.879	42.37
839.052	41.76
839.225	40.73
839.398	40.42
839.57	39.15
839.743	38.9
839.916	38.2
840.088	37.28
840.261	36.9
840.434	38.57
840.607	39.87
840.779	41.14
840.952	40.38
841.124	40.83
841.297	41.88
841.47	42.26
841.642	41.61
841.815	41.15
841.987	40.71
842.16	41.14
842.332	40.53
842.505	41.04
842.677	40.49
842.85	42.43
843.022	43.58
843.194	45.39
843.367	47.31
843.539	49.77
843.712	51.01
843.884	53.26
844.056	55.33
844.229	54.46
844.401	54.3
844.573	53.55
844.745	53.57
844.918	52.19
845.09	49.36
845.262	49.79
845.434	48.35
845.606	49.53
845.779	48.97
845.951	49.95
846.123	52.59
846.295	52.73
846.467	53.34
846.639	53.78
846.811	53.29
846.983	55.6
847.155	54.72
847.327	54.01
847.499	55.18
847.671	52.51
847.843	48.25
848.015	47.81
848.187	44.89
848.359	45.8
848.531	48.68
848.703	48.98
848.875	48.79
849.047	49.44
849.218	51.96
849.39	48.13
849.562	45.89
849.734	47.52
849.905	50.68
850.077	53.5
850.249	52.68
850.421	49.27
850.592	49.84
850.764	50.09
850.936	47.41
851.107	48.38
851.279	47.64
851.451	51.65
851.622	51.43
851.794	48.89
851.965	52.29
852.137	54
852.308	53.2
852.48	56.57
852.651	58.11
852.823	62.87
852.994	61.57
853.166	62.99
853.337	62.34
853.509	61.13
853.68	61.99
853.851	58.21
854.023	55.43
854.194	53.59
854.365	53.26
854.537	55.1
854.708	51.51
854.879	51.42
855.05	49.38
855.222	48.95
855.393	48.06
855.564	48.28
855.735	47.26
855.906	48.66
856.078	52.08
856.249	49.99
856.42	47.8
856.591	45.3
856.762	44.85
856.933	47.25
857.104	48.15
857.275	53.98
857.446	53.74
857.617	56.5
857.788	55.53
857.959	57.89
858.13	62.35
858.301	61.41
858.472	62.94
858.643	61.31
858.814	61.46
858.985	61.29
859.155	57.33
859.326	57.01
859.497	59.3
859.668	57.87
859.839	52.77
860.009	52.23
860.18	50.2
860.351	52.69
860.522	56.82
860.692	57.45
860.863	56.41
861.034	55.15
861.204	57.55
861.375	55.73
861.546	59.12
861.716	61.76
861.887	60.07
862.057	64.65
862.228	63.23
862.398	60.37
862.569	59.49
862.739	58.59
862.91	62.2
863.08	59.53
863.251	57.57
863.421	54.23
863.592	52.28
863.762	50.35
863.932	48.59
864.103	46.85
864.273	46.47
864.443	50.57
864.614	53.68
864.784	50.82
864.954	47.79
865.125	49.03
865.295	51.34
865.465	51.1
865.635	55.57
865.805	54.64
865.976	56.9
866.146	57.38
866.316	50.14
866.486	49
866.656	51.53
866.826	54.97
866.996	53.36
867.166	52.88
867.336	53.95
867.506	50.55
867.676	48.66
867.846	48.05
868.016	47.1
868.186	51.8
868.356	49.53
868.526	49.21
868.696	42.73
868.866	41.47
869.036	41.76
869.206	41.58
869.376	41.75
869.545	41.55
869.715	43.05
869.885	45.28
870.055	43.85
870.224	49.91
870.394	49.11
870.564	53.69
870.734	55.72
870.903	53.56
871.073	56.51
871.243	59.02
871.412	63.56
871.582	63.31
871.751	63.94
871.921	62.32
872.091	59.32
872.26	55.23
872.43	53.48
872.599	52.36
872.769	54.9
872.938	55.69
873.108	51.42
873.277	50.37
873.446	49.41
873.616	47.43
873.785	48.61
873.955	46.85
874.124	51.69
874.293	54.09
874.463	53.42
874.632	53.49
874.801	52.13
874.971	57.12
875.14	59.51
875.309	58.58
875.478	58.73
875.647	60.94
875.817	63.43
875.986	60.79
876.155	61.15
876.324	65.61
876.493	63.74
876.662	61.19
876.831	57.8
877	57.97
877.17	58.91
877.339	55.8
877.508	52.73
877.677	46.82
877.846	45.83
878.015	43.94
878.184	40.14
878.352	37.04
878.521	35.75
878.69	39.08
878.859	37.52
879.028	36.48
879.197	35.72
879.366	35.6
879.534	37.77
879.703	37.94
879.872	38.09
880.041	35.28
880.21	37.45
880.378	36.71
880.547	32.75
880.716	31.2
880.884	30.18
881.053	28.62
881.222	27.91
881.39	27.61
881.559	26.76
881.727	26.39
881.896	26.25
882.065	25.65
882.233	25.59
882.402	25.91
882.57	25.94
882.739	26.56
882.907	27.78
883.076	27.47
883.244	27.97
883.412	28.38
883.581	28.92
883.749	28.61
883.918	27.68
884.086	27.78
884.254	27.98
884.423	27.62
884.591	27.13
884.759	26.98
884.927	27.71
885.096	26.47
885.264	27.22
885.432	26.48
885.6	28.7
885.769	31.5
885.937	33.98
886.105	32.99
886.273	32.97
886.441	35.51
886.609	37.19
886.777	40.33
886.945	41.21
887.113	41.4
887.281	41.1
887.449	42.01
887.617	42.11
887.785	41.59
887.953	44.09
888.121	47.22
888.289	49.06
888.457	47.62
888.625	46.18
888.793	48.1
888.961	48.9
889.129	50.83
889.296	51.85
889.464	51.89
889.632	50.19
889.8	53.29
889.967	55.65
890.135	50.6
