Data from 2938850__Reflection_03.txt Node
Date: Wed Mar 11 13:10:10 EDT 2015
User: robert
Spectrometer: USB4E03002
Autoset integration time: false
Trigger mode: 4
Integration Time (sec): 1.000000E-1
Scans to average: 10
Electric dark correction enabled: false
Nonlinearity correction enabled: false
Boxcar width: 5
Stray light correction enabled: false
XAxis mode: Wavelengths
Stop averaging: false
Number of Pixels in Spectrum: 3648
>>>>>Begin Spectral Data<<<<<
177.575	1188.89
177.794	-1129.17
178.014	-377.4
178.233	-910.29
178.452	-413.87
178.672	-151.52
178.891	-154.3
179.11	-128.32
179.33	-183.8
179.549	-167.5
179.768	-224.04
179.987	-205.02
180.207	-120.47
180.426	-109.42
180.645	-77.54
180.864	-65.19
181.084	-139.36
181.303	-390.48
181.522	-40.71
181.741	-51.48
181.96	-116.31
182.179	-343.1
182.398	-285.88
182.618	165.93
182.837	604.62
183.056	942.55
183.275	167.86
183.494	176.83
183.713	345.45
183.932	258.69
184.151	268.56
184.37	285.03
184.589	593.38
184.808	689.78
185.027	-2464.29
185.246	-845.56
185.465	-239.11
185.684	-128.63
185.903	-208.18
186.122	-159.96
186.341	-165.9
186.56	-128.19
186.779	-126.81
186.998	-89.7
187.216	-62.92
187.435	-61.63
187.654	-59.55
187.873	-71
188.092	-102.3
188.311	-57.94
188.53	-29.78
188.748	-5.25
188.967	0.15
189.186	4.83
189.405	-7.25
189.623	1.41
189.842	-1.23
190.061	-8.37
190.28	-15.36
190.498	5.99
190.717	-6.94
190.936	-31.91
191.154	-51.06
191.373	-64.89
191.592	-75.03
191.81	-66.75
192.029	-112.84
192.248	-171.98
192.466	-204.5
192.685	-259.67
192.904	-312.5
193.122	-244.99
193.341	-591.61
193.559	-541.33
193.778	-1033.33
193.996	-572.39
194.215	-474.39
194.433	-254.69
194.652	-202.24
194.87	-219.86
195.089	-152.44
195.307	-172.53
195.526	-276.54
195.744	-128.16
195.963	-124.73
196.181	-109.65
196.399	-116.1
196.618	-103.59
196.836	-100.36
197.055	-68.23
197.273	-37.13
197.491	-107.87
197.71	-143.59
197.928	-84.1
198.146	-118.59
198.365	-129.47
198.583	-93.92
198.801	-83.61
199.019	-77.6
199.238	-85.85
199.456	-104.41
199.674	-144.12
199.892	-57.33
200.111	-26.96
200.329	-36.71
200.547	-28.57
200.765	-47.7
200.983	-97.79
201.202	-78.76
201.42	-65
201.638	-54.16
201.856	-64.05
202.074	-83.84
202.292	-104.83
202.51	-114.4
202.728	-111.65
202.946	-70.15
203.165	-76.23
203.383	-31.36
203.601	-90.84
203.819	-162.72
204.037	-198.56
204.255	-104.51
204.473	-94.5
204.691	-101.61
204.909	-114.02
205.127	-140.58
205.345	-175.22
205.562	-84.53
205.78	-104.14
205.998	-162.4
206.216	-123.41
206.434	-36.67
206.652	-26.17
206.87	-26.4
207.088	0.47
207.306	-13.71
207.523	5.59
207.741	1.98
207.959	-22.73
208.177	-13.04
208.395	-10.5
208.612	-31.32
208.83	-55.91
209.048	-77.59
209.266	-36.57
209.483	-98.29
209.701	-101.49
209.919	-103.03
210.136	-130.84
210.354	-104.04
210.572	-109.89
210.79	-95.84
211.007	-101.12
211.225	-110.99
211.442	-104.1
211.66	-185.01
211.878	-124.92
212.095	-75.2
212.313	-67.59
212.53	-46.55
212.748	-21.81
212.966	-19.42
213.183	-10.9
213.401	-12.58
213.618	-10.04
213.836	2.47
214.053	2.4
214.271	-5.26
214.488	-18.48
214.705	-27.07
214.923	-42.67
215.14	-68.25
215.358	-69.6
215.575	-66.72
215.793	-70.27
216.01	-91.63
216.227	-84.7
216.445	-51.37
216.662	-45.9
216.879	-41.34
217.097	-39.13
217.314	-23.75
217.531	-16.04
217.749	-7.88
217.966	-7.3
218.183	-0.34
218.4	-2.7
218.618	-9.53
218.835	-13.51
219.052	-15.73
219.269	-17.08
219.487	-8.8
219.704	-16.05
219.921	-15.02
220.138	-22.02
220.355	-22.96
220.572	-26.76
220.79	-17.17
221.007	-18.6
221.224	-27.17
221.441	-30.67
221.658	-21.6
221.875	-26.9
222.092	-23.95
222.309	-27.92
222.526	-22.23
222.743	-23.9
222.96	-24.3
223.177	-26.98
223.394	-29.71
223.611	-23.35
223.828	-16.2
224.045	-14.12
224.262	-10.16
224.479	-5.81
224.696	-1.27
224.913	-1.59
225.13	0.78
225.347	-0.31
225.564	1.38
225.781	1.66
225.997	1.36
226.214	0.53
226.431	-0.83
226.648	-1.97
226.865	-2.58
227.082	-1.76
227.298	-1.3
227.515	-0.15
227.732	0.17
227.949	0.39
228.165	1.08
228.382	0.95
228.599	1.19
228.816	1.14
229.032	2
229.249	1.65
229.466	1.28
229.682	1.32
229.899	1.58
230.116	1.75
230.332	1.85
230.549	1.34
230.765	1.01
230.982	0.36
231.199	0.1
231.415	-0.77
231.632	-1.26
231.848	-1.91
232.065	-2.13
232.281	-2.6
232.498	-2.92
232.714	-3.89
232.931	-2.43
233.147	-3.33
233.364	-2.83
233.58	-1.48
233.797	0.08
234.013	1.99
234.23	3.55
234.446	3.57
234.662	2.84
234.879	2.89
235.095	3.55
235.312	3.53
235.528	3.49
235.744	3.92
235.961	3.45
236.177	1.58
236.393	0.49
236.61	-1.48
236.826	0.36
237.042	-0.67
237.258	-1.05
237.475	-1.68
237.691	-2.36
237.907	-0.76
238.123	-0.36
238.339	-0.02
238.556	-0.28
238.772	0.05
238.988	1.18
239.204	0.3
239.42	1.7
239.636	2.54
239.853	2.7
240.069	1.71
240.285	2.1
240.501	1.75
240.717	1.32
240.933	1.69
241.149	1.99
241.365	1.78
241.581	1.15
241.797	0.88
242.013	1.43
242.229	2.29
242.445	2.98
242.661	2.57
242.877	3.05
243.093	3.11
243.309	2.97
243.525	3
243.741	3.83
243.957	4.35
244.173	4.32
244.388	3.94
244.604	3.27
244.82	2.89
245.036	3.38
245.252	3.04
245.468	3.91
245.683	5.01
245.899	4.93
246.115	4.79
246.331	4.93
246.547	4.94
246.762	4.97
246.978	4.89
247.194	5.16
247.409	5.36
247.625	5.6
247.841	4.94
248.057	4.65
248.272	4.6
248.488	4.32
248.703	4.3
248.919	4.43
249.135	4.19
249.35	3.96
249.566	3.56
249.782	3.13
249.997	2.48
250.213	2.83
250.428	2.63
250.644	2.67
250.859	2.39
251.075	2.58
251.29	2.57
251.506	2.54
251.721	3.07
251.937	3.27
252.152	3.45
252.368	4.16
252.583	4.31
252.798	3.63
253.014	4.07
253.229	4.76
253.445	4.47
253.66	4.14
253.875	4.34
254.091	3.97
254.306	3.78
254.521	3.49
254.737	3.08
254.952	3.38
255.167	4.09
255.383	2.85
255.598	2.28
255.813	2.55
256.028	3.16
256.244	3.55
256.459	3.43
256.674	3.06
256.889	3.08
257.104	2.62
257.32	2.4
257.535	1.64
257.75	2.13
257.965	1.83
258.18	1.8
258.395	2.11
258.61	2.4
258.826	2.58
259.041	2.83
259.256	3.11
259.471	3.11
259.686	3.45
259.901	4.01
260.116	3.84
260.331	4
260.546	4.07
260.761	3.87
260.976	3.65
261.191	3.48
261.406	3.22
261.621	2.78
261.836	2.78
262.05	1.77
262.265	1.08
262.48	1.03
262.695	0.78
262.91	0.48
263.125	0.81
263.34	0.83
263.555	0.91
263.769	1.26
263.984	0.99
264.199	0.76
264.414	1.77
264.629	1.97
264.843	2.06
265.058	2.35
265.273	1.98
265.488	1.3
265.702	1.46
265.917	2.52
266.132	2.01
266.346	2.73
266.561	2.92
266.776	2.69
266.99	2.63
267.205	2.3
267.42	2.56
267.634	2.76
267.849	3.25
268.063	2.87
268.278	2.05
268.492	2.88
268.707	2.52
268.922	2.59
269.136	2.67
269.351	2.9
269.565	3.34
269.78	2.86
269.994	2.73
270.209	2.58
270.423	2.73
270.637	2.89
270.852	2.59
271.066	3.01
271.281	2.74
271.495	2.73
271.709	2.48
271.924	2.51
272.138	2.26
272.353	2.27
272.567	2.11
272.781	2.29
272.996	2.12
273.21	1.88
273.424	1.93
273.638	1.74
273.853	1.7
274.067	2.06
274.281	2.33
274.495	2.9
274.71	2.85
274.924	2.94
275.138	3.36
275.352	3.62
275.566	4.08
275.781	3.79
275.995	4.14
276.209	3.96
276.423	3.76
276.637	3.12
276.851	3.09
277.065	3.01
277.279	3.1
277.493	2.44
277.707	2.64
277.921	2.45
278.135	2.05
278.349	1.97
278.563	1.93
278.777	2.14
278.991	2.36
279.205	1.97
279.419	2.52
279.633	2.76
279.847	3.15
280.061	2.89
280.275	3.09
280.489	2.98
280.703	3.35
280.917	3.77
281.131	3.73
281.344	3.95
281.558	4.09
281.772	3.68
281.986	3.37
282.2	3.28
282.414	3.1
282.627	2.78
282.841	3.22
283.055	2.89
283.269	2.95
283.482	2.94
283.696	2.61
283.91	2.46
284.123	2.7
284.337	2.78
284.551	2.75
284.764	3.01
284.978	3.01
285.192	2.97
285.405	2.99
285.619	2.88
285.833	2.91
286.046	3.07
286.26	3.37
286.473	3.26
286.687	3.19
286.9	3.49
287.114	3.39
287.327	3.53
287.541	3.59
287.754	3.6
287.968	3.55
288.181	3.61
288.395	3.54
288.608	3.36
288.822	3.29
289.035	3.31
289.248	2.97
289.462	3.4
289.675	3.57
289.889	3.34
290.102	3.38
290.315	3.21
290.529	3.27
290.742	3.42
290.955	3.15
291.169	3.42
291.382	3.6
291.595	3.76
291.808	3.46
292.022	3.34
292.235	3.07
292.448	3.07
292.661	3.34
292.875	3.03
293.088	3.39
293.301	3.86
293.514	3.93
293.727	4.08
293.94	4.05
294.153	3.98
294.367	4
294.58	4.55
294.793	4.62
295.006	4.61
295.219	4.76
295.432	4.33
295.645	4.36
295.858	4.52
296.071	4.45
296.284	4.55
296.497	4.78
296.71	4.92
296.923	5.01
297.136	5.13
297.349	5.26
297.562	5.4
297.775	5.58
297.988	5.69
298.201	5.6
298.414	5.74
298.626	5.54
298.839	5.49
299.052	5.64
299.265	5.48
299.478	5.45
299.691	5.41
299.903	5.36
300.116	5.25
300.329	5.2
300.542	5.16
300.755	5.23
300.967	5.64
301.18	6.09
301.393	5.95
301.605	6.55
301.818	6.23
302.031	6.57
302.243	6.66
302.456	6.98
302.669	6.85
302.881	7.06
303.094	7
303.307	7.04
303.519	6.85
303.732	6.9
303.944	6.66
304.157	7.01
304.37	6.94
304.582	6.95
304.795	7.03
305.007	7.17
305.22	7.36
305.432	7.46
305.645	7.38
305.857	7.14
306.069	7.27
306.282	7.31
306.494	7.39
306.707	7.13
306.919	7.27
307.132	7.03
307.344	7.33
307.556	7.18
307.769	7.13
307.981	7.1
308.193	7.3
308.406	7.27
308.618	7.36
308.83	7.39
309.043	7.61
309.255	7.59
309.467	7.68
309.679	7.63
309.892	7.51
310.104	7.7
310.316	7.84
310.528	7.76
310.74	7.73
310.953	7.56
311.165	7.51
311.377	7.42
311.589	7.37
311.801	7.37
312.013	7.43
312.225	7.66
312.437	7.74
312.649	7.83
312.862	7.81
313.074	8.17
313.286	7.92
313.498	8.17
313.71	8.21
313.922	8.15
314.134	8.15
314.346	7.92
314.558	7.93
314.77	7.58
314.982	7.34
315.193	7.57
315.405	7.1
315.617	7.53
315.829	7.29
316.041	7.28
316.253	7.25
316.465	7.07
316.677	7.22
316.888	7.01
317.1	7.32
317.312	7.38
317.524	7.42
317.736	7.09
317.947	7.13
318.159	7.39
318.371	7.26
318.583	7.63
318.794	7.97
319.006	8
319.218	8.15
319.43	7.73
319.641	7.92
319.853	7.57
320.064	7.9
320.276	7.65
320.488	7.2
320.699	7.58
320.911	7.72
321.123	7.9
321.334	7.79
321.546	7.61
321.757	7.76
321.969	7.6
322.18	7.93
322.392	8.94
322.603	9.09
322.815	9.34
323.026	9.45
323.238	9.07
323.449	8.77
323.661	8.96
323.872	9.03
324.083	9.28
324.295	9.4
324.506	9.17
324.718	8.51
324.929	8.81
325.14	9.06
325.352	8.94
325.563	9.09
325.774	9.34
325.986	8.99
326.197	9.02
326.408	8.82
326.62	8.61
326.831	8.86
327.042	8.84
327.253	8.65
327.464	8.33
327.676	8.4
327.887	8.49
328.098	8.5
328.309	8.92
328.52	8.48
328.732	8.35
328.943	8.73
329.154	8.94
329.365	8.95
329.576	8.97
329.787	8.98
329.998	9.01
330.209	9.02
330.42	9.21
330.631	9.01
330.842	9.13
331.053	9.26
331.264	8.84
331.475	8.77
331.686	8.65
331.897	8.76
332.108	8.86
332.319	8.78
332.53	8.65
332.741	8.21
332.952	7.98
333.163	8.07
333.374	8.44
333.585	8.46
333.795	8.59
334.006	8.79
334.217	8.62
334.428	8.82
334.639	8.91
334.849	8.7
335.06	8.67
335.271	8.64
335.482	9.05
335.692	8.72
335.903	8.66
336.114	8.32
336.325	8.12
336.535	7.97
336.746	7.97
336.957	8
337.167	8.17
337.378	8.34
337.589	8.83
337.799	8.67
338.01	8.74
338.22	8.71
338.431	8.7
338.642	8.47
338.852	8.64
339.063	8.48
339.273	8.3
339.484	8.43
339.694	8.15
339.905	7.71
340.115	7.7
340.326	7.82
340.536	7.63
340.746	7.78
340.957	8.08
341.167	8.09
341.378	8.29
341.588	8.21
341.799	8.44
342.009	8.79
342.219	8.99
342.43	9.1
342.64	8.95
342.85	9.06
343.061	8.95
343.271	8.86
343.481	8.88
343.691	8.52
343.902	8.77
344.112	8.47
344.322	8.19
344.532	8.31
344.743	8.09
344.953	7.84
345.163	8.17
345.373	8.34
345.583	8.4
345.793	8.4
346.004	8.77
346.214	8.36
346.424	8.44
346.634	8.78
346.844	8.67
347.054	8.72
347.264	8.92
347.474	8.69
347.684	8.74
347.894	8.9
348.104	8.82
348.314	8.45
348.524	8.4
348.734	8.28
348.944	7.94
349.154	7.96
349.364	7.82
349.574	7.9
349.784	8.06
349.994	7.74
350.204	7.77
350.413	7.79
350.623	7.97
350.833	8.05
351.043	7.59
351.253	7.54
351.463	7.57
351.672	7.73
351.882	7.81
352.092	7.65
352.302	7.92
352.511	7.75
352.721	7.38
352.931	7.36
353.141	7.4
353.35	7.73
353.56	7.8
353.77	7.69
353.979	7.55
354.189	7.47
354.399	7.32
354.608	7.3
354.818	7.11
355.027	7.58
355.237	7.41
355.447	7.35
355.656	7.57
355.866	7.29
356.075	7.19
356.285	7.23
356.494	7.41
356.704	7.61
356.913	7.57
357.123	7.7
357.332	7.65
357.542	7.74
357.751	7.94
357.96	7.74
358.17	8.14
358.379	8.46
358.589	8.5
358.798	8.32
359.007	8.22
359.217	8.2
359.426	8.29
359.635	8.23
359.845	8.36
360.054	8.34
360.263	8.49
360.472	8.33
360.682	7.89
360.891	7.98
361.1	8.11
361.309	8.16
361.519	8.15
361.728	7.99
361.937	7.95
362.146	7.79
362.355	7.81
362.564	7.82
362.774	7.98
362.983	8.24
363.192	8.06
363.401	7.85
363.61	7.91
363.819	7.78
364.028	7.78
364.237	7.75
364.446	8
364.655	7.95
364.864	7.78
365.073	7.49
365.282	7.42
365.491	7.51
365.7	7.45
365.909	7.34
366.118	7.43
366.327	7.65
366.536	7.53
366.745	7.19
366.954	7.32
367.162	7.47
367.371	7.31
367.58	7.37
367.789	7.38
367.998	7.36
368.207	7.26
368.415	7.1
368.624	6.98
368.833	7.09
369.042	7.34
369.25	6.97
369.459	6.82
369.668	7.14
369.877	6.88
370.085	6.73
370.294	7.1
370.503	6.98
370.711	6.95
370.92	6.67
371.129	6.67
371.337	6.37
371.546	6.55
371.754	6.65
371.963	6.61
372.171	6.83
372.38	6.84
372.589	6.26
372.797	6.35
373.006	6.62
373.214	6.99
373.423	6.95
373.631	7.08
373.84	7.03
374.048	6.95
374.256	6.86
374.465	6.73
374.673	6.75
374.882	7.07
375.09	7.09
375.298	6.79
375.507	6.58
375.715	6.56
375.923	6.43
376.132	6.45
376.34	6.43
376.548	6.27
376.757	6.2
376.965	6.18
377.173	6.26
377.381	6.25
377.59	6.34
377.798	6.56
378.006	6.58
378.214	6.67
378.423	6.68
378.631	6.66
378.839	6.72
379.047	6.61
379.255	6.71
379.463	6.68
379.671	6.54
379.879	6.62
380.088	6.44
380.296	6.28
380.504	6.42
380.712	6.52
380.92	6.37
381.128	6.25
381.336	6.4
381.544	6.36
381.752	6.1
381.96	6.07
382.168	6.03
382.376	5.83
382.584	5.87
382.791	5.6
382.999	5.15
383.207	5.34
383.415	5.29
383.623	5.14
383.831	5.15
384.039	5.26
384.247	5.23
384.454	5.37
384.662	5.43
384.87	5.47
385.078	5.53
385.285	5.77
385.493	5.59
385.701	5.63
385.909	5.8
386.116	5.56
386.324	5.57
386.532	5.72
386.739	5.38
386.947	5.42
387.155	5.6
387.362	5.58
387.57	5.47
387.778	5.5
387.985	5.53
388.193	5.54
388.4	5.5
388.608	5.49
388.816	5.51
389.023	5.43
389.231	5.36
389.438	5.17
389.646	5.14
389.853	5.13
390.061	5.24
390.268	5.24
390.475	5.13
390.683	5.28
390.89	5.3
391.098	5.12
391.305	5.27
391.512	5.31
391.72	5.38
391.927	5.3
392.135	5.39
392.342	5.35
392.549	5.28
392.756	5.16
392.964	5.16
393.171	5.26
393.378	5.27
393.586	5.23
393.793	5.21
394	5
394.207	5.2
394.414	5.11
394.622	5.01
394.829	4.98
395.036	4.91
395.243	4.87
395.45	4.76
395.657	4.86
395.864	4.95
396.072	4.92
396.279	5.08
396.486	4.94
396.693	4.89
396.9	4.82
397.107	4.86
397.314	4.95
397.521	4.73
397.728	4.61
397.935	4.64
398.142	4.41
398.349	4.41
398.556	4.26
398.763	4.11
398.97	4.06
399.177	4.1
399.383	4.2
399.59	4.35
399.797	4.54
400.004	4.64
400.211	4.7
400.418	4.72
400.625	4.85
400.831	4.95
401.038	4.99
401.245	5.04
401.452	4.96
401.658	4.93
401.865	4.72
402.072	4.79
402.279	4.69
402.485	4.47
402.692	4.44
402.899	4.27
403.105	4.28
403.312	4.38
403.519	4.47
403.725	4.61
403.932	4.52
404.138	4.62
404.345	4.57
404.552	4.52
404.758	4.59
404.965	4.68
405.171	4.71
405.378	4.77
405.584	4.67
405.791	4.64
405.997	4.54
406.204	4.51
406.41	4.53
406.617	4.55
406.823	4.6
407.029	4.69
407.236	4.78
407.442	4.67
407.649	4.5
407.855	4.54
408.061	4.53
408.268	4.53
408.474	4.49
408.68	4.52
408.887	4.38
409.093	4.35
409.299	4.21
409.505	4.1
409.712	4.08
409.918	4.1
410.124	4.19
410.33	4.15
410.537	4.21
410.743	4.4
410.949	4.42
411.155	4.51
411.361	4.49
411.567	4.46
411.773	4.46
411.98	4.58
412.186	4.64
412.392	4.6
412.598	4.85
412.804	4.79
413.01	4.8
413.216	4.75
413.422	4.65
413.628	4.63
413.834	4.56
414.04	4.64
414.246	4.64
414.452	4.59
414.658	4.48
414.864	4.22
415.07	4.31
415.275	4.26
415.481	4.14
415.687	4.2
415.893	4.2
416.099	4.27
416.305	4.2
416.511	4.18
416.716	4.14
416.922	4.22
417.128	4.22
417.334	4.26
417.539	4.3
417.745	4.43
417.951	4.48
418.157	4.42
418.362	4.46
418.568	4.41
418.774	4.43
418.979	4.45
419.185	4.45
419.391	4.47
419.596	4.45
419.802	4.5
420.008	4.47
420.213	4.43
420.419	4.47
420.624	4.44
420.83	4.44
421.035	4.39
421.241	4.38
421.446	4.39
421.652	4.4
421.857	4.35
422.063	4.27
422.268	4.24
422.474	4.29
422.679	4.31
422.885	4.31
423.09	4.34
423.295	4.37
423.501	4.38
423.706	4.35
423.911	4.38
424.117	4.38
424.322	4.4
424.527	4.47
424.733	4.52
424.938	4.51
425.143	4.49
425.349	4.5
425.554	4.52
425.759	4.56
425.964	4.56
426.169	4.55
426.375	4.51
426.58	4.47
426.785	4.37
426.99	4.29
427.195	4.33
427.4	4.35
427.605	4.35
427.811	4.27
428.016	4.28
428.221	4.36
428.426	4.34
428.631	4.42
428.836	4.5
429.041	4.5
429.246	4.42
429.451	4.38
429.656	4.4
429.861	4.38
430.066	4.34
430.271	4.28
430.476	4.23
430.681	4.09
430.886	4.14
431.09	4.05
431.295	4.04
431.5	4
431.705	3.94
431.91	3.88
432.115	3.99
432.32	4.11
432.524	4.13
432.729	4.12
432.934	4.19
433.139	4.06
433.343	4.19
433.548	4.15
433.753	4.27
433.958	4.32
434.162	4.35
434.367	4.22
434.572	4.16
434.776	4.18
434.981	4.2
435.186	4.27
435.39	4.39
435.595	4.35
435.799	4.39
436.004	4.32
436.209	4.33
436.413	4.34
436.618	4.39
436.822	4.43
437.027	4.44
437.231	4.41
437.436	4.39
437.64	4.24
437.845	4.2
438.049	4.2
438.253	4.18
438.458	4.1
438.662	4.13
438.867	4.11
439.071	4.08
439.275	4.07
439.48	4.07
439.684	4.08
439.888	4.02
440.093	4
440.297	4.03
440.501	4.05
440.706	4.05
440.91	4.06
441.114	4.01
441.318	3.96
441.523	3.95
441.727	4
441.931	3.98
442.135	4.07
442.339	4.1
442.543	4.01
442.748	3.94
442.952	3.94
443.156	3.83
443.36	3.86
443.564	3.91
443.768	3.89
443.972	3.85
444.176	3.97
444.38	3.98
444.584	3.94
444.788	3.97
444.992	4.05
445.196	4.15
445.4	4.17
445.604	4.26
445.808	4.28
446.012	4.28
446.216	4.2
446.42	4.1
446.624	4.05
446.828	4
447.032	3.99
447.235	3.94
447.439	3.96
447.643	3.99
447.847	3.96
448.051	3.94
448.254	3.91
448.458	3.94
448.662	3.94
448.866	4.05
449.069	4.09
449.273	4.16
449.477	4.17
449.681	4.13
449.884	4.11
450.088	4.06
450.292	4.1
450.495	4.11
450.699	4.17
450.902	4.23
451.106	4.19
451.31	4.25
451.513	4.3
451.717	4.27
451.92	4.22
452.124	4.26
452.327	4.17
452.531	4.17
452.734	4.08
452.938	4.06
453.141	3.95
453.345	3.89
453.548	3.91
453.752	3.77
453.955	3.72
454.158	3.75
454.362	3.72
454.565	3.82
454.769	3.76
454.972	3.89
455.175	3.91
455.379	3.95
455.582	3.96
455.785	3.8
455.988	3.93
456.192	4.03
456.395	4.03
456.598	4.08
456.801	4.02
457.005	4.13
457.208	4.14
457.411	4.07
457.614	4.12
457.817	4.21
458.021	4.31
458.224	4.27
458.427	4.2
458.63	4.14
458.833	4.07
459.036	4.06
459.239	3.96
459.442	3.94
459.645	3.9
459.848	3.87
460.051	3.86
460.254	3.86
460.457	3.82
460.66	3.8
460.863	3.86
461.066	3.94
461.269	3.97
461.472	4.04
461.675	4.02
461.878	4.05
462.081	3.97
462.284	4
462.486	4.01
462.689	4.13
462.892	4.1
463.095	4.09
463.298	4.05
463.5	3.97
463.703	4.03
463.906	4.02
464.109	4.08
464.311	4.06
464.514	3.9
464.717	3.82
464.92	3.72
465.122	3.8
465.325	3.82
465.528	3.72
465.73	3.83
465.933	3.6
466.135	3.59
466.338	3.65
466.541	3.73
466.743	3.77
466.946	3.81
467.148	3.92
467.351	3.96
467.553	3.95
467.756	4.01
467.958	4.04
468.161	4.18
468.363	4.14
468.566	4.01
468.768	4
468.971	4.05
469.173	4.1
469.375	3.96
469.578	4.03
469.78	4.06
469.983	4.03
470.185	3.92
470.387	3.81
470.59	3.86
470.792	3.94
470.994	3.98
471.196	3.9
471.399	3.95
471.601	3.98
471.803	3.87
472.005	3.83
472.208	3.83
472.41	3.89
472.612	3.98
472.814	4.04
473.016	4.08
473.218	4
473.421	4.04
473.623	3.87
473.825	3.89
474.027	3.84
474.229	3.82
474.431	3.9
474.633	3.93
474.835	3.95
475.037	3.96
475.239	3.96
475.441	4
475.643	4.07
475.845	4.16
476.047	4.14
476.249	4.2
476.451	4.19
476.653	4.28
476.855	4.18
477.057	4.11
477.258	4.02
477.46	4.07
477.662	4.12
477.864	4.03
478.066	4.06
478.268	4.11
478.469	4.1
478.671	4.09
478.873	3.97
479.075	4.04
479.276	4.06
479.478	4.12
479.68	4
479.882	3.98
480.083	3.98
480.285	4
480.487	3.96
480.688	3.93
480.89	3.96
481.091	3.96
481.293	3.99
481.495	3.95
481.696	3.99
481.898	4.07
482.099	4.06
482.301	4.08
482.502	4.1
482.704	4.16
482.905	4.2
483.107	4.2
483.308	4.19
483.51	4.16
483.711	4.16
483.913	4.18
484.114	4.16
484.315	4.13
484.517	4.12
484.718	4.09
484.92	4.02
485.121	3.98
485.322	3.94
485.524	3.94
485.725	3.92
485.926	3.93
486.127	3.86
486.329	3.88
486.53	3.89
486.731	3.89
486.932	3.91
487.134	3.92
487.335	3.93
487.536	3.94
487.737	3.92
487.938	3.91
488.139	3.87
488.341	3.88
488.542	3.86
488.743	3.86
488.944	3.89
489.145	3.86
489.346	3.87
489.547	3.85
489.748	3.9
489.949	3.91
490.15	3.98
490.351	4.03
490.552	4.05
490.753	4.07
490.954	4.07
491.155	4.04
491.356	4.08
491.557	4.07
491.758	4.09
491.959	4.07
492.159	4.09
492.36	4.05
492.561	4.06
492.762	4.04
492.963	4.03
493.164	4.02
493.364	4.06
493.565	4.06
493.766	4.05
493.967	4.08
494.167	4.05
494.368	4.04
494.569	4.09
494.769	4.14
494.97	4.21
495.171	4.2
495.371	4.22
495.572	4.16
495.773	4.16
495.973	4.2
496.174	4.14
496.375	4.16
496.575	4.22
496.776	4.17
496.976	4.11
497.177	4.07
497.377	4.07
497.578	4.06
497.778	4.12
497.979	4.04
498.179	4.1
498.38	4.12
498.58	4.12
498.78	4.08
498.981	4.07
499.181	4.05
499.382	4.04
499.582	4.07
499.782	4.12
499.983	4.1
500.183	4.2
500.383	4.14
500.584	4.22
500.784	4.2
500.984	4.23
501.184	4.25
501.385	4.33
501.585	4.41
501.785	4.38
501.985	4.4
502.185	4.39
502.386	4.37
502.586	4.42
502.786	4.38
502.986	4.41
503.186	4.37
503.386	4.44
503.586	4.48
503.786	4.44
503.987	4.52
504.187	4.47
504.387	4.53
504.587	4.5
504.787	4.5
504.987	4.56
505.187	4.59
505.387	4.68
505.587	4.64
505.786	4.57
505.986	4.63
506.186	4.66
506.386	4.7
506.586	4.71
506.786	4.73
506.986	4.67
507.186	4.66
507.386	4.76
507.585	4.72
507.785	4.81
507.985	4.86
508.185	4.88
508.384	4.92
508.584	5
508.784	4.95
508.984	5.07
509.183	5.18
509.383	5.21
509.583	5.12
509.782	5.18
509.982	5.21
510.182	5.2
510.381	5.23
510.581	5.2
510.781	5.22
510.98	5.32
511.18	5.28
511.379	5.22
511.579	5.24
511.778	5.36
511.978	5.37
512.177	5.34
512.377	5.45
512.576	5.46
512.776	5.53
512.975	5.57
513.175	5.59
513.374	5.6
513.573	5.64
513.773	5.69
513.972	5.67
514.172	5.72
514.371	5.78
514.57	5.78
514.77	5.81
514.969	5.76
515.168	5.77
515.367	5.72
515.567	5.83
515.766	5.92
515.965	5.96
516.164	6.02
516.364	6.06
516.563	6.09
516.762	6.2
516.961	6.28
517.16	6.4
517.359	6.45
517.559	6.62
517.758	6.64
517.957	6.7
518.156	6.8
518.355	6.83
518.554	6.86
518.753	6.89
518.952	6.92
519.151	6.97
519.35	6.99
519.549	7
519.748	7.03
519.947	7.13
520.146	7.22
520.345	7.19
520.544	7.27
520.743	7.34
520.942	7.45
521.141	7.45
521.339	7.54
521.538	7.59
521.737	7.75
521.936	7.73
522.135	7.69
522.333	7.72
522.532	7.86
522.731	7.88
522.93	7.95
523.129	8.01
523.327	8.12
523.526	8.13
523.725	8.14
523.923	8.1
524.122	8.17
524.321	8.3
524.519	8.34
524.718	8.38
524.917	8.47
525.115	8.54
525.314	8.52
525.512	8.6
525.711	8.58
525.909	8.67
526.108	8.79
526.306	8.88
526.505	8.92
526.703	8.99
526.902	9.04
527.1	9.12
527.299	9.17
527.497	9.26
527.696	9.32
527.894	9.4
528.092	9.48
528.291	9.5
528.489	9.51
528.688	9.54
528.886	9.6
529.084	9.6
529.283	9.61
529.481	9.65
529.679	9.66
529.877	9.65
530.076	9.68
530.274	9.69
530.472	9.73
530.67	9.82
530.869	9.86
531.067	9.88
531.265	9.98
531.463	10.04
531.661	10.09
531.859	10.2
532.057	10.3
532.255	10.38
532.454	10.46
532.652	10.49
532.85	10.54
533.048	10.56
533.246	10.61
533.444	10.63
533.642	10.69
533.84	10.71
534.038	10.72
534.236	10.72
534.434	10.78
534.632	10.79
534.83	10.9
535.027	10.97
535.225	11.04
535.423	11.12
535.621	11.21
535.819	11.24
536.017	11.37
536.215	11.37
536.412	11.44
536.61	11.44
536.808	11.51
537.006	11.5
537.203	11.52
537.401	11.52
537.599	11.51
537.797	11.53
537.994	11.56
538.192	11.54
538.39	11.62
538.587	11.74
538.785	11.8
538.983	11.86
539.18	11.91
539.378	11.96
539.575	12.07
539.773	12.2
539.97	12.28
540.168	12.37
540.366	12.41
540.563	12.45
540.761	12.49
540.958	12.57
541.155	12.59
541.353	12.62
541.55	12.64
541.748	12.66
541.945	12.64
542.143	12.66
542.34	12.66
542.537	12.7
542.735	12.76
542.932	12.78
543.129	12.76
543.327	12.81
543.524	12.86
543.721	12.9
543.919	12.95
544.116	13
544.313	13
544.51	13.08
544.708	13.12
544.905	13.18
545.102	13.23
545.299	13.3
545.496	13.43
545.693	13.53
545.891	13.58
546.088	13.57
546.285	13.6
546.482	13.65
546.679	13.73
546.876	13.78
547.073	13.79
547.27	13.8
547.467	13.73
547.664	13.67
547.861	13.61
548.058	13.61
548.255	13.77
548.452	13.83
548.649	13.86
548.846	13.76
549.043	13.75
549.24	13.79
549.437	13.88
549.633	14.04
549.83	14
550.027	14.01
550.224	14.09
550.421	14.05
550.618	14
550.814	14.09
551.011	14.21
551.208	14.3
551.405	14.27
551.601	14.28
551.798	14.21
551.995	14.27
552.191	14.41
552.388	14.43
552.585	14.47
552.781	14.51
552.978	14.47
553.175	14.47
553.371	14.57
553.568	14.63
553.764	14.61
553.961	14.66
554.157	14.7
554.354	14.66
554.55	14.67
554.747	14.71
554.943	14.92
555.14	15
555.336	15.07
555.533	15.05
555.729	15.05
555.926	15.06
556.122	15.13
556.318	15.13
556.515	15.24
556.711	15.26
556.907	15.36
557.104	15.35
557.3	15.44
557.496	15.42
557.693	15.48
557.889	15.66
558.085	15.75
558.281	15.93
558.478	16.05
558.674	16.02
558.87	16.1
559.066	16.03
559.262	15.97
559.459	16.01
559.655	16.11
559.851	16.19
560.047	16.13
560.243	16.25
560.439	16.22
560.635	16.16
560.831	16.15
561.027	16.15
561.223	16.14
561.419	16.12
561.615	16.13
561.811	16.14
562.007	16.08
562.203	16.04
562.399	15.94
562.595	15.93
562.791	16.09
562.987	16.25
563.183	16.22
563.379	16.28
563.575	16.3
563.771	16.23
563.966	16.3
564.162	16.35
564.358	16.48
564.554	16.7
564.75	16.75
564.945	16.72
565.141	16.68
565.337	16.79
565.533	16.86
565.728	16.96
565.924	17.09
566.12	17.12
566.315	17.12
566.511	17.1
566.707	16.94
566.902	17
567.098	17.07
567.293	17.05
567.489	17.02
567.684	17.06
567.88	17.11
568.076	17.14
568.271	17.21
568.467	17.24
568.662	17.27
568.858	17.38
569.053	17.41
569.248	17.46
569.444	17.6
569.639	17.62
569.835	17.67
570.03	17.69
570.225	17.78
570.421	17.75
570.616	17.74
570.812	17.73
571.007	17.76
571.202	17.73
571.397	17.7
571.593	17.61
571.788	17.68
571.983	17.69
572.178	17.73
572.374	17.73
572.569	17.78
572.764	17.8
572.959	17.82
573.154	17.8
573.35	17.83
573.545	17.86
573.74	18.05
573.935	18.11
574.13	18.07
574.325	18.06
574.52	18
574.715	17.98
574.91	18.02
575.105	18.11
575.3	18.18
575.495	18.15
575.69	18.17
575.885	18.03
576.08	17.93
576.275	18.04
576.47	18
576.665	18
576.86	17.94
577.055	17.91
577.25	17.91
577.444	17.88
577.639	18.04
577.834	18.13
578.029	18.15
578.224	18.26
578.418	18.23
578.613	18.34
578.808	18.41
579.003	18.55
579.197	18.66
579.392	18.6
579.587	18.62
579.781	18.63
579.976	18.58
580.171	18.79
580.365	18.83
580.56	18.77
580.755	18.78
580.949	18.74
581.144	18.66
581.338	18.6
581.533	18.7
581.727	18.74
581.922	18.79
582.116	18.87
582.311	18.75
582.505	18.65
582.7	18.73
582.894	18.7
583.089	18.75
583.283	18.71
583.478	18.84
583.672	18.77
583.866	18.64
584.061	18.64
584.255	18.49
584.449	18.47
584.644	18.64
584.838	18.63
585.032	18.64
585.226	18.73
585.421	18.92
585.615	18.88
585.809	19.06
586.003	19.23
586.198	19.05
586.392	19.18
586.586	19.31
586.78	19.26
586.974	19.36
587.168	19.2
587.363	19.09
587.557	19.12
587.751	19.1
587.945	19.04
588.139	18.98
588.333	19.02
588.527	18.96
588.721	18.85
588.915	19.02
589.109	19.06
589.303	19.32
589.497	19.28
589.691	19.15
589.885	19.09
590.079	19.04
590.273	19.19
590.466	19.26
590.66	19.28
590.854	19.39
591.048	19.21
591.242	19.15
591.436	19.11
591.629	19.2
591.823	19.27
592.017	19.34
592.211	19.52
592.404	19.38
592.598	19.39
592.792	19.41
592.986	19.28
593.179	19.35
593.373	19.34
593.567	19.36
593.76	19.28
593.954	19.29
594.147	19.31
594.341	19.16
594.535	19.24
594.728	19.3
594.922	19.37
595.115	19.54
595.309	19.55
595.502	19.54
595.696	19.6
595.889	19.65
596.083	19.64
596.276	19.63
596.47	19.69
596.663	19.67
596.856	19.61
597.05	19.53
597.243	19.38
597.437	19.35
597.63	19.32
597.823	19.26
598.017	19.32
598.21	19.36
598.403	19.39
598.596	19.41
598.79	19.49
598.983	19.53
599.176	19.78
599.369	19.87
599.563	20.02
599.756	20.16
599.949	20.19
600.142	20.24
600.335	20.24
600.528	20.21
600.722	20.1
600.915	20.04
601.108	19.88
601.301	19.71
601.494	19.73
601.687	19.62
601.88	19.57
602.073	19.38
602.266	19.26
602.459	19.26
602.652	19.28
602.845	19.37
603.038	19.47
603.231	19.51
603.424	19.56
603.617	19.57
603.809	19.55
604.002	19.56
604.195	19.68
604.388	19.7
604.581	19.89
604.774	19.86
604.966	19.85
605.159	19.84
605.352	19.91
605.545	19.88
605.737	19.73
605.93	19.7
606.123	19.77
606.316	19.84
606.508	19.8
606.701	19.69
606.894	19.89
607.086	19.86
607.279	19.82
607.471	19.94
607.664	19.88
607.857	20.14
608.049	20.32
608.242	20.31
608.434	20.36
608.627	20.59
608.819	20.61
609.012	20.58
609.204	20.91
609.397	21.22
609.589	21.35
609.782	21.63
609.974	21.85
610.166	22.03
610.359	22.3
610.551	22.69
610.743	22.95
610.936	23.08
611.128	23.38
611.32	23.24
611.513	23.23
611.705	23.3
611.897	23.32
612.09	23.21
612.282	23.09
612.474	22.98
612.666	22.66
612.858	22.47
613.051	22.29
613.243	22.09
613.435	22.1
613.627	21.95
613.819	21.84
614.011	21.64
614.203	21.59
614.395	21.56
614.588	21.43
614.78	21.36
614.972	21.07
615.164	20.95
615.356	20.91
615.548	20.79
615.74	20.75
615.932	20.61
616.124	20.66
616.315	20.65
616.507	20.8
616.699	20.7
616.891	20.59
617.083	20.7
617.275	20.75
617.467	20.73
617.659	20.88
617.85	20.89
618.042	20.84
618.234	20.8
618.426	20.68
618.618	20.5
618.809	20.62
619.001	20.74
619.193	20.65
619.384	20.7
619.576	20.79
619.768	20.75
619.959	20.66
620.151	20.91
620.343	21.04
620.534	21.19
620.726	21.32
620.917	21.18
621.109	21.07
621.301	21.19
621.492	21.17
621.684	20.96
621.875	20.9
622.067	20.9
622.258	20.54
622.45	20.39
622.641	20.2
622.832	19.99
623.024	20.17
623.215	20.18
623.407	20.17
623.598	20.28
623.789	20.23
623.981	20.18
624.172	20.08
624.363	20.23
624.555	20.28
624.746	20.4
624.937	20.57
625.129	20.46
625.32	20.48
625.511	20.45
625.702	20.41
625.893	20.54
626.085	20.54
626.276	20.7
626.467	20.66
626.658	20.67
626.849	20.67
627.04	20.62
627.231	20.59
627.422	20.71
627.614	20.74
627.805	20.81
627.996	20.84
628.187	20.85
628.378	20.93
628.569	21.03
628.76	20.95
628.951	20.98
629.142	21.02
629.332	21.04
629.523	20.81
629.714	20.82
629.905	20.87
630.096	20.8
630.287	20.96
630.478	20.85
630.669	20.89
630.859	20.99
631.05	20.9
631.241	20.91
631.432	20.94
631.623	21.08
631.813	21.12
632.004	21.02
632.195	21.04
632.385	20.75
632.576	20.69
632.767	20.61
632.957	20.47
633.148	20.44
633.339	20.38
633.529	20.35
633.72	20.28
633.91	20.16
634.101	20.25
634.292	20.29
634.482	20.4
634.673	20.48
634.863	20.33
635.054	20.53
635.244	20.67
635.435	20.68
635.625	20.68
635.815	20.76
636.006	20.72
636.196	20.49
636.387	20.56
636.577	20.58
636.767	20.45
636.958	20.57
637.148	20.39
637.338	20.29
637.529	20.36
637.719	20.33
637.909	20.33
638.099	20.51
638.29	20.62
638.48	20.52
638.67	20.61
638.86	20.73
639.05	20.77
639.241	20.73
639.431	20.77
639.621	20.68
639.811	20.76
640.001	20.71
640.191	20.58
640.381	20.65
640.571	20.56
640.761	20.5
640.951	20.31
641.141	20.25
641.331	20.3
641.521	20.36
641.711	20.2
641.901	19.93
642.091	20.13
642.281	20.1
642.471	20.15
642.661	20.14
642.851	20.17
643.041	20.29
643.231	20.21
643.42	20.29
643.61	20.21
643.8	20.28
643.99	20.32
644.18	20.28
644.369	20.31
644.559	20.29
644.749	20.25
644.939	20.23
645.128	20.39
645.318	20.67
645.508	20.77
645.697	20.71
645.887	20.78
646.076	20.95
646.266	20.75
646.456	20.79
646.645	20.73
646.835	20.62
647.024	20.65
647.214	20.46
647.403	20.15
647.593	19.96
647.782	20.01
647.972	20.14
648.161	20.2
648.351	20.41
648.54	20.4
648.73	20.21
648.919	20.47
649.108	20.51
649.298	20.47
649.487	20.74
649.677	20.95
649.866	20.91
650.055	20.93
650.244	21
650.434	20.81
650.623	20.89
650.812	21.03
651.002	21
651.191	21.01
651.38	20.96
651.569	20.9
651.758	20.77
651.947	20.86
652.137	20.76
652.326	20.72
652.515	20.65
652.704	20.77
652.893	20.88
653.082	20.99
653.271	20.96
653.46	21.22
653.649	21.44
653.838	21.43
654.027	21.15
654.216	21.13
654.405	21.27
654.594	21.23
654.783	21.17
654.972	21.27
655.161	21.26
655.35	21.2
655.539	21.06
655.728	20.76
655.916	20.93
656.105	21.16
656.294	21.16
656.483	20.88
656.672	20.97
656.86	20.72
657.049	20.55
657.238	20.27
657.427	20.23
657.615	20.27
657.804	20.4
657.993	20.49
658.181	20.55
658.37	20.61
658.559	20.86
658.747	21.01
658.936	21
659.125	21.11
659.313	21.22
659.502	21.33
659.69	21.29
659.879	21.19
660.067	21.11
660.256	21.06
660.444	20.9
660.633	20.65
660.821	20.54
661.01	20.72
661.198	20.53
661.387	20.58
661.575	20.67
661.763	20.56
661.952	20.44
662.14	20.38
662.328	20.51
662.517	20.69
662.705	20.75
662.893	20.9
663.082	21.25
663.27	21.71
663.458	21.89
663.646	21.76
663.834	21.96
664.023	22.1
664.211	22.03
664.399	21.92
664.587	21.62
664.775	21.96
664.963	21.93
665.152	21.42
665.34	21.13
665.528	21.21
665.716	20.93
665.904	20.9
666.092	20.93
666.28	21.05
666.468	21.1
666.656	21.34
666.844	21.13
667.032	20.97
667.22	21.05
667.408	21.18
667.596	20.97
667.784	21.25
667.971	21.51
668.159	21.42
668.347	21.17
668.535	20.95
668.723	21.28
668.911	21.26
669.098	21.14
669.286	21.09
669.474	20.77
669.662	20.9
669.849	20.93
670.037	20.93
670.225	21.01
670.413	21.23
670.6	21.56
670.788	21.18
670.976	21.34
671.163	21.67
671.351	21.61
671.538	21.81
671.726	21.48
671.913	21.47
672.101	21.3
672.289	21.41
672.476	21.22
672.664	20.91
672.851	21
673.039	20.86
673.226	20.65
673.413	20.8
673.601	20.73
673.788	20.8
673.976	20.73
674.163	20.72
674.35	20.77
674.538	20.95
674.725	20.99
674.912	20.98
675.1	20.87
675.287	20.74
675.474	20.65
675.662	20.85
675.849	20.87
676.036	20.84
676.223	20.75
676.411	20.96
676.598	21.09
676.785	21.18
676.972	21.1
677.159	21.19
677.346	21.43
677.533	21.71
677.721	21.59
677.908	21.86
678.095	21.99
678.282	21.81
678.469	21.6
678.656	21.63
678.843	21.6
679.03	21.56
679.217	21.55
679.404	21.55
679.591	21.59
679.778	21.55
679.964	21.24
680.151	21.19
680.338	21.43
680.525	21.29
680.712	21.28
680.899	21.42
681.086	21.61
681.272	21.82
681.459	21.66
681.646	21.5
681.833	21.68
682.02	21.75
682.206	21.67
682.393	21.61
682.58	21.66
682.766	21.59
682.953	21.63
683.14	21.64
683.326	21.45
683.513	21.61
683.7	21.54
683.886	21.38
684.073	21.55
684.259	21.62
684.446	21.55
684.632	21.65
684.819	21.67
685.005	21.48
685.192	21.34
685.378	21.37
685.565	21.4
685.751	21.7
685.938	21.62
686.124	21.5
686.31	21.46
686.497	21.81
686.683	22.01
686.87	22.01
687.056	22.08
687.242	22.17
687.429	21.97
687.615	21.86
687.801	21.75
687.987	21.7
688.174	21.58
688.36	21.69
688.546	21.65
688.732	21.23
688.918	20.88
689.105	20.98
689.291	21.05
689.477	21.25
689.663	21.28
689.849	21.5
690.035	21.57
690.221	21.47
690.407	21.77
690.593	21.65
690.779	21.9
690.965	22.28
691.151	22.13
691.337	21.88
691.523	21.95
691.709	22.05
691.895	21.89
692.081	21.83
692.267	22.14
692.453	22.08
692.639	21.92
692.825	21.62
693.011	21.63
693.196	21.65
693.382	21.75
693.568	21.71
693.754	21.77
693.94	21.68
694.125	21.88
694.311	22.01
694.497	21.66
694.682	21.73
694.868	22.06
695.054	21.99
695.239	21.97
695.425	21.93
695.611	21.74
695.796	21.68
695.982	21.66
696.168	21.54
696.353	21.45
696.539	21.44
696.724	21.72
696.91	21.82
697.095	21.83
697.281	21.88
697.466	21.82
697.652	21.86
697.837	21.83
698.023	21.78
698.208	21.9
698.393	21.96
698.579	22.14
698.764	22.05
698.949	22.01
699.135	22.03
699.32	22.23
699.505	22.5
699.691	22.63
699.876	22.62
700.061	22.69
700.246	22.6
700.432	22.46
700.617	22.66
700.802	22.58
700.987	22.58
701.172	22.05
701.358	21.69
701.543	21.46
701.728	21.6
701.913	21.38
702.098	21.22
702.283	21.41
702.468	21.6
702.653	21.03
702.838	21.01
703.023	20.63
703.208	21.52
703.393	21.74
703.578	21.62
703.763	21.47
703.948	21.98
704.133	22.31
704.318	22.92
704.503	22.75
704.688	22.9
704.873	23.46
705.057	23.96
705.242	24.17
705.427	24.17
705.612	24.53
705.797	24.54
705.981	24.44
706.166	24.2
706.351	23.69
706.536	24.04
706.72	24.19
706.905	23.56
707.09	23.18
707.274	22.89
707.459	22.98
707.644	23
707.828	23.07
708.013	23.6
708.197	23.66
708.382	23.55
708.567	23.51
708.751	23.49
708.936	23.29
709.12	23.75
709.305	23.59
709.489	23.96
709.673	23.88
709.858	23.75
710.042	23.02
710.227	22.92
710.411	22.74
710.596	22.68
710.78	22.52
710.964	22.88
711.149	22.78
711.333	22.8
711.517	22.34
711.702	22.41
711.886	22.41
712.07	22.68
712.254	22.84
712.438	23.14
712.623	23.23
712.807	23.27
712.991	23.36
713.175	23.38
713.359	23.47
713.544	23.43
713.728	23.09
713.912	23.06
714.096	23.2
714.28	23.31
714.464	23.01
714.648	22.94
714.832	23.01
715.016	23.19
715.2	22.98
715.384	22.83
715.568	22.63
715.752	22.7
715.936	22.58
716.12	22.43
716.304	22.26
716.488	22.42
716.671	21.84
716.855	21.88
717.039	21.57
717.223	21.3
717.407	21.31
717.59	21.84
717.774	21.95
717.958	22.19
718.142	21.71
718.325	21.54
718.509	21.65
718.693	22.03
718.877	21.54
719.06	21.35
719.244	21.72
719.428	21.48
719.611	20.9
719.795	20.65
719.978	20.25
720.162	20.61
720.345	21.04
720.529	20.86
720.713	20.91
720.896	21.3
721.08	21.01
721.263	21.38
721.446	21.31
721.63	21.44
721.813	21.52
721.997	21.82
722.18	21.92
722.364	21.61
722.547	21.76
722.73	21.49
722.914	21
723.097	21.4
723.28	21.08
723.464	21.51
723.647	21.93
723.83	22.19
724.013	22.29
724.197	22
724.38	22.29
724.563	21.73
724.746	22.01
724.929	22.49
725.112	22.29
725.296	22.48
725.479	22.29
725.662	22.16
725.845	21.49
726.028	21.62
726.211	22.08
726.394	21.8
726.577	22.52
726.76	22.86
726.943	22.89
727.126	23.17
727.309	22.52
727.492	22.54
727.675	22.31
727.858	22.74
728.041	22.75
728.224	22.6
728.407	22.42
728.589	22.1
728.772	21.87
728.955	22.09
729.138	22.28
729.321	22.45
729.503	22.38
729.686	22.44
729.869	22.66
730.052	22.39
730.234	22.01
730.417	22.18
730.6	22
730.782	22.34
730.965	22.17
731.148	21.69
731.33	21.85
731.513	21.64
731.695	21.6
731.878	21.23
732.061	21.44
732.243	21.7
732.426	21.57
732.608	21.94
732.791	21.39
732.973	21.37
733.156	21.51
733.338	21.45
733.52	21.77
733.703	21.61
733.885	22.18
734.068	22.23
734.25	22.31
734.432	22.73
734.615	22.87
734.797	22.98
734.979	23.34
735.162	23.61
735.344	23.97
735.526	24.22
735.708	24.38
735.891	24.21
736.073	24.07
736.255	24.03
736.437	23.44
736.619	23.33
736.802	23.66
736.984	23.01
737.166	23.09
737.348	22.92
737.53	23.12
737.712	23.63
737.894	23.55
738.076	23.4
738.258	23.91
738.44	24.37
738.622	23.93
738.804	24.07
738.986	24.3
739.168	24.05
739.35	24.33
739.532	23.98
739.714	23.73
739.896	24.2
740.078	24.57
740.259	24.25
740.441	24.17
740.623	23.9
740.805	23.99
740.987	24.16
741.168	24.43
741.35	24.11
741.532	24.19
741.714	24.31
741.895	23.92
742.077	23.69
742.259	23.87
742.44	24.04
742.622	24.56
742.804	24.56
742.985	24.43
743.167	24.38
743.348	24.31
743.53	24.39
743.711	23.91
743.893	24.15
744.075	24.26
744.256	23.65
744.438	23.55
744.619	23.56
744.8	22.86
744.982	23.25
745.163	23.63
745.345	23.8
745.526	23.71
745.707	24.7
745.889	24.36
746.07	24.09
746.252	24.94
746.433	25.06
746.614	25.23
746.795	25.89
746.977	25.35
747.158	25.54
747.339	25.52
747.52	25.51
747.702	24.63
747.883	24.84
748.064	24.63
748.245	24.42
748.426	24.62
748.607	24.53
748.788	24.37
748.97	23.96
749.151	23.49
749.332	23.43
749.513	23.64
749.694	23.93
749.875	23.77
750.056	24.02
750.237	23.96
750.418	23.36
750.599	23.01
750.78	22.83
750.96	23.22
751.141	23.15
751.322	23.32
751.503	23.29
751.684	23.47
751.865	23.68
752.046	23.66
752.226	23.09
752.407	23.57
752.588	24.27
752.769	24.4
752.949	24.7
753.13	24.11
753.311	23.87
753.492	23.54
753.672	23.04
753.853	22.95
754.034	23.64
754.214	24.15
754.395	23.82
754.575	23.7
754.756	23.45
754.937	22.99
755.117	23.64
755.298	23.32
755.478	23.97
755.659	24.46
755.839	24.6
756.02	24.02
756.2	23.95
756.381	24.25
756.561	24.12
756.741	24.18
756.922	24.59
757.102	25
757.283	25.4
757.463	24.85
757.643	24.83
757.823	25.04
758.004	24.86
758.184	24.77
758.364	24.35
758.545	24.13
758.725	23.67
758.905	23.43
759.085	22.61
759.265	22.73
759.446	22.5
759.626	22.25
759.806	21.35
759.986	21.28
760.166	21.6
760.346	21.5
760.526	21.39
760.706	22.08
760.886	21.89
761.066	22.05
761.246	21.64
761.426	21.69
761.606	21.8
761.786	22.41
761.966	22.48
762.146	21.81
762.326	21.67
762.506	21.96
762.686	21.66
762.866	21.57
763.046	21.64
763.225	21.79
763.405	22.07
763.585	21.74
763.765	21.42
763.945	21.57
764.124	21.82
764.304	22.2
764.484	22.26
764.664	22.81
764.843	23.25
765.023	23.31
765.203	23.76
765.382	23.81
765.562	23.75
765.741	24.34
765.921	24.46
766.101	24.54
766.28	24.36
766.46	24.46
766.639	23.96
766.819	24.16
766.998	24.45
767.178	24.66
767.357	25.01
767.537	25.68
767.716	25.37
767.896	25.4
768.075	25.87
768.254	26.23
768.434	25.83
768.613	25.93
768.792	25.18
768.972	24.7
769.151	24.17
769.33	23.63
769.51	23.9
769.689	23.69
769.868	23.61
770.047	23.68
770.226	23.69
770.406	24.02
770.585	24.68
770.764	25.35
770.943	25.49
771.122	25.1
771.301	25.34
771.48	24.79
771.66	25.29
771.839	25.25
772.018	25.05
772.197	24.78
772.376	24.93
772.555	24.46
772.734	24.62
772.913	24.75
773.092	25.83
773.271	25.79
773.449	25.99
773.628	25.56
773.807	25.81
773.986	25.55
774.165	25.69
774.344	25.96
774.523	25.5
774.701	25.47
774.88	25.86
775.059	25.15
775.238	25.62
775.417	26.09
775.595	25.87
775.774	25.53
775.953	25.3
776.131	25.31
776.31	24.91
776.489	24
776.667	23.13
776.846	23.36
777.025	23.71
777.203	22.94
777.382	22.12
777.56	23.33
777.739	24.09
777.917	24.08
778.096	24.72
778.274	24.4
778.453	25.96
778.631	26.6
778.81	25.91
778.988	25.61
779.166	26.33
779.345	27.34
779.523	26.72
779.702	26.71
779.88	26.74
780.058	26.54
780.237	26.6
780.415	25.93
780.593	25.77
780.771	25.89
780.95	26.34
781.128	26.09
781.306	26.03
781.484	25.93
781.662	25.31
781.841	25.85
782.019	24.73
782.197	24.76
782.375	24.65
782.553	24.61
782.731	25.02
782.909	24.66
783.087	24.23
783.265	23.94
783.443	24.17
783.621	23.87
783.799	22.76
783.977	23.61
784.155	24.18
784.333	25.16
784.511	25.73
784.689	25.89
784.867	25.88
785.045	26.2
785.223	25.57
785.4	25.31
785.578	25.72
785.756	27.32
785.934	27.42
786.112	27.35
786.289	25.6
786.467	25.27
786.645	25.58
786.823	25.76
787	25.39
787.178	26.02
787.356	26.04
787.533	25.95
787.711	24.94
787.889	24.82
788.066	24.5
788.244	25.42
788.421	25.31
788.599	24.71
788.776	24.18
788.954	24.15
789.131	23.77
789.309	23.4
789.486	23.82
789.664	24.74
789.841	25
790.019	25.18
790.196	25.7
790.373	26.94
790.551	27.42
790.728	28.07
790.906	28.09
791.083	28.61
791.26	27.88
791.437	27.21
791.615	26.81
791.792	26.7
791.969	26.22
792.146	25.38
792.324	22.9
792.501	23.13
792.678	22.65
792.855	22.71
793.032	22.65
793.209	24.02
793.387	24.35
793.564	23.44
793.741	23.59
793.918	24.04
794.095	25.05
794.272	26.56
794.449	25.24
794.626	25.36
794.803	25.94
794.98	25.66
795.157	23.99
795.334	24.6
795.511	25.19
795.688	25.52
795.864	24.45
796.041	23.49
796.218	22.95
796.395	23.67
796.572	22.91
796.749	23.42
796.925	23.27
797.102	25.04
797.279	24
797.456	24.28
797.632	24.1
797.809	24.46
797.986	25.66
798.162	25.94
798.339	26.11
798.516	26.48
798.692	25.6
798.869	25.35
799.046	24.38
799.222	24.11
799.399	24.07
799.575	23.59
799.752	24.09
799.928	23.13
800.105	23.29
800.281	22.71
800.458	22.68
800.634	22.26
800.811	22.99
800.987	23.11
801.163	24.02
801.34	23.81
801.516	23.23
801.692	23.95
801.869	23.78
802.045	23.82
802.221	24.5
802.398	25.91
802.574	26.52
802.75	26.86
802.926	27.13
803.103	26.44
803.279	25.27
803.455	26.2
803.631	25.56
803.807	25.61
803.983	26.03
804.16	26.57
804.336	25.4
804.512	26.1
804.688	24.65
804.864	23.61
805.04	23.48
805.216	23.53
805.392	23.14
805.568	22.56
805.744	22.46
805.92	22.41
806.096	20.13
806.272	19.28
806.448	17.83
806.623	18.52
806.799	20.89
806.975	21.97
807.151	22.66
807.327	23.82
807.503	23.84
807.678	25.11
807.854	24.81
808.03	26.87
808.206	27.53
808.381	28.02
808.557	28.76
808.733	27.52
808.908	27.13
809.084	26.64
809.26	25.45
809.435	26.03
809.611	24.71
809.787	24.75
809.962	23.69
810.138	23.89
810.313	24.5
810.489	23.84
810.664	23.62
810.84	22.88
811.015	24.1
811.191	24.13
811.366	23.98
811.542	24.24
811.717	23
811.892	23.86
812.068	23.1
812.243	21.83
812.419	21.17
812.594	21.07
812.769	22.21
812.944	20.49
813.12	19.44
813.295	19.33
813.47	18.62
813.645	19.69
813.821	19.19
813.996	19.94
814.171	19.85
814.346	20.04
814.521	20.52
814.697	19.26
814.872	19.16
815.047	21.12
815.222	22.08
815.397	22.39
815.572	21.85
815.747	20.63
815.922	20.3
816.097	20.22
816.272	20.14
816.447	19.92
816.622	20.67
816.797	22.05
816.972	21.96
817.147	21.37
817.322	21.2
817.496	21.05
817.671	21.2
817.846	20.14
818.021	21.11
818.196	20.73
818.371	21.05
818.545	20.61
818.72	20.77
818.895	20.6
819.069	20.13
819.244	20.07
819.419	20.94
819.594	21.25
819.768	22.4
819.943	22.82
820.117	23.45
820.292	22.91
820.467	22.7
820.641	22.55
820.816	21.78
820.99	22.07
821.165	22.67
821.339	22.66
821.514	22.97
821.688	22.81
821.863	22.4
822.037	22.21
822.212	22.38
822.386	22.64
822.56	22.76
822.735	22.85
822.909	22.81
823.084	22.81
823.258	22.46
823.432	22.23
823.606	22.16
823.781	22.38
823.955	22.54
824.129	22.59
824.303	22.34
824.478	22.47
824.652	22.68
824.826	22.68
825	22.73
825.174	23.19
825.348	23.34
825.523	23.27
825.697	23.12
825.871	23.05
826.045	23.17
826.219	23.33
826.393	23.31
826.567	22.86
826.741	22.98
826.915	22.82
827.089	22.7
827.263	22.53
827.437	22.61
827.611	22.67
827.784	22.43
827.958	22.47
828.132	22.3
828.306	21.91
828.48	22.4
828.654	21.76
828.827	21.57
829.001	21.84
829.175	22.35
829.349	22.88
829.522	23.32
829.696	22.97
829.87	22.63
830.044	22.06
830.217	22.21
830.391	21.75
830.565	22.39
830.738	22.59
830.912	21.3
831.085	20.25
831.259	19.66
831.432	18.27
831.606	19.61
831.779	18.6
831.953	19.12
832.126	18.88
832.3	19.47
832.473	20.19
832.647	19.71
832.82	20.19
832.994	21.12
833.167	22.08
833.34	22.45
833.514	23.04
833.687	23.3
833.86	23.55
834.034	23.05
834.207	23.36
834.38	22.9
834.553	22.93
834.727	23.46
834.9	22.7
835.073	21.57
835.246	21.42
835.419	20.51
835.593	20.43
835.766	20.34
835.939	20.83
836.112	19.62
836.285	19.52
836.458	20
836.631	18.78
836.804	18.93
836.977	20.59
837.15	20.7
837.323	20.57
837.496	20.43
837.669	20.3
837.842	20.39
838.015	20.74
838.188	20.8
838.361	20.4
838.533	21.67
838.706	24.79
838.879	23.07
839.052	24.15
839.225	24.49
839.398	25.91
839.57	25.48
839.743	26.75
839.916	26.39
840.088	27.34
840.261	25.95
840.434	26.45
840.607	24.76
840.779	24.53
840.952	22.96
841.124	23.44
841.297	22.19
841.47	23.69
841.642	22.23
841.815	22.07
841.987	20.99
842.16	22.24
842.332	21.44
842.505	20.67
842.677	21.39
842.85	22.54
843.022	21.87
843.194	23.08
843.367	22.57
843.539	23.73
843.712	24.37
843.884	22.91
844.056	24.07
844.229	25.21
844.401	24.04
844.573	25.05
844.745	24.62
844.918	23.51
845.09	21.46
845.262	18.65
845.434	16.27
845.606	12.84
845.779	16.86
845.951	14.26
846.123	14.98
846.295	14.31
846.467	14.19
846.639	14.83
846.811	16.17
846.983	16.34
847.155	20.72
847.327	17.37
847.499	21.98
847.671	20.12
847.843	20.42
848.015	16.64
848.187	16.73
848.359	17.9
848.531	17.36
848.703	13.64
848.875	11.05
849.047	7.85
849.218	9.73
849.39	10.46
849.562	9.95
849.734	13.03
849.905	12.14
850.077	14.35
850.249	11.03
850.421	9.64
850.592	13.94
850.764	15.3
850.936	16.7
851.107	18.42
851.279	16.24
851.451	16.75
851.622	14.22
851.794	12.68
851.965	8.99
852.137	9.34
852.308	7.4
852.48	7.83
852.651	9.57
852.823	5.32
852.994	3.06
853.166	7.33
853.337	9.17
853.509	11.21
853.68	17.41
853.851	21.28
854.023	21.48
854.194	23.04
854.365	22.46
854.537	23.81
854.708	25.52
854.879	26.41
855.05	22.06
855.222	19.98
855.393	19.58
855.564	14.14
855.735	11.44
855.906	14.07
856.078	14.99
856.249	10.71
856.42	8.84
856.591	12.36
856.762	13.07
856.933	14.1
857.104	11.91
857.275	12.95
857.446	15.08
857.617	14.02
857.788	11.1
857.959	12.29
858.13	15.35
858.301	14.78
858.472	9.2
858.643	6.87
858.814	9.41
858.985	10.5
859.155	9.43
859.326	9.49
859.497	14.9
859.668	15.43
859.839	12.75
860.009	15.78
860.18	17.22
860.351	19.11
860.522	23.23
860.692	18.8
860.863	19.98
861.034	18.16
861.204	17.9
861.375	16.9
861.546	20.34
861.716	23.44
861.887	19.44
862.057	20.71
862.228	21.12
862.398	19.12
862.569	21.97
862.739	22.01
862.91	24.29
863.08	24.46
863.251	21.38
863.421	16.14
863.592	13.12
863.762	13.87
863.932	13.13
864.103	13.08
864.273	17.9
864.443	17.45
864.614	16.98
864.784	11.59
864.954	10.98
865.125	14.42
865.295	18.18
865.465	18.61
865.635	19.12
865.805	19.06
865.976	19.93
866.146	14.68
866.316	11.24
866.486	8.92
866.656	6.89
866.826	9.52
866.996	6.26
867.166	8.08
867.336	4.62
867.506	2.48
867.676	0.75
867.846	0.34
868.016	2.71
868.186	5.44
868.356	8.05
868.526	14.4
868.696	15.83
868.866	16.35
869.036	14.08
869.206	17.52
869.376	22.76
869.545	23.43
869.715	24.22
869.885	23.04
870.055	25.67
870.224	23.81
870.394	19.07
870.564	18.66
870.734	17.69
870.903	18.3
871.073	17.59
871.243	10.05
871.412	7.98
871.582	7.3
871.751	7.38
871.921	4.29
872.091	4.2
872.26	3.5
872.43	3.97
872.599	7.35
872.769	6.69
872.938	7.49
873.108	12.46
873.277	14.09
873.446	13.99
873.616	12.73
873.785	16.45
873.955	17.36
874.124	18.57
874.293	17.86
874.463	17.33
874.632	16.1
874.801	18.49
874.971	15.88
875.14	13.61
875.309	15.06
875.478	16.57
875.647	12.99
875.817	14.46
875.986	15.59
876.155	11.88
876.324	14.02
876.493	12.85
876.662	12.02
876.831	13.54
877	18.31
877.17	15.23
877.339	17.25
877.508	14.87
877.677	14.88
877.846	14.96
878.015	17.92
878.184	15.09
878.352	17.72
878.521	14.33
878.69	13.74
878.859	12.44
879.028	14.07
879.197	11.4
879.366	14.61
879.534	13.56
879.703	15.85
879.872	17.69
880.041	18.68
880.21	17.25
880.378	18.84
880.547	18.04
880.716	18.53
880.884	18.6
881.053	18.84
881.222	18.27
881.39	18.33
881.559	18.66
881.727	19.25
881.896	19.05
882.065	19.62
882.233	19.56
882.402	20.08
882.57	19.53
882.739	19.64
882.907	19.73
883.076	19.77
883.244	20.13
883.412	19.51
883.581	18.98
883.749	18.98
883.918	18.87
884.086	18.67
884.254	18.52
884.423	19.02
884.591	18.79
884.759	18.67
884.927	19.02
885.096	19.18
885.264	18.9
885.432	18.94
885.6	18.56
885.769	18.06
885.937	17.14
886.105	17.1
886.273	16.74
886.441	16.38
886.609	17.55
886.777	18.12
886.945	17.31
887.113	17.64
887.281	14.68
887.449	16.35
887.617	15.99
887.785	16.19
887.953	17.76
888.121	17.45
888.289	14.79
888.457	12.38
888.625	11.09
888.793	11.09
888.961	10.84
889.129	12.64
889.296	11.73
889.464	11.23
889.632	13.12
889.8	9.33
889.967	7.08
890.135	15.62
