Data from 2938709__Reflection_06.txt Node
Date: Tue Mar 17 19:42:59 EDT 2015
User: robert
Spectrometer: USB4E03002
Autoset integration time: false
Trigger mode: 4
Integration Time (sec): 1.000000E-1
Scans to average: 10
Electric dark correction enabled: false
Nonlinearity correction enabled: false
Boxcar width: 5
Stray light correction enabled: false
XAxis mode: Wavelengths
Stop averaging: false
Number of Pixels in Spectrum: 3648
>>>>>Begin Spectral Data<<<<<
177.575	168.95
177.794	168.12
178.014	207.65
178.233	197.64
178.452	185.92
178.672	260.96
178.891	305.14
179.11	363.08
179.33	298.84
179.549	396.3
179.768	383.13
179.987	425.71
180.207	-2891.3
180.426	484.81
180.645	290.21
180.864	179.92
181.084	140.58
181.303	121.1
181.522	125.34
181.741	144.85
181.96	146.45
182.179	143.55
182.398	133
182.618	134.57
182.837	154.11
183.056	179.66
183.275	312.28
183.494	267.73
183.713	304.99
183.932	229.46
184.151	372.54
184.37	431.37
184.589	367.28
184.808	402.3
185.027	497.15
185.246	414.12
185.465	625.83
185.684	511.67
185.903	262.81
186.122	338.71
186.341	409.09
186.56	375.19
186.779	274.2
186.998	362.26
187.216	393.64
187.435	348.81
187.654	294.58
187.873	338.66
188.092	402.52
188.311	1682.89
188.53	813.64
188.748	600.47
188.967	335.73
189.186	396.74
189.405	314.22
189.623	289.9
189.842	322.52
190.061	448.78
190.28	320.23
190.498	563.74
190.717	384.9
190.936	494.54
191.154	2554.55
191.373	-1477.97
191.592	911.68
191.81	2920
192.029	2831.82
192.248	41500
192.466	-1681.58
192.685	-495.04
192.904	-1490.28
193.122	-1878.46
193.341	-4082.14
193.559	21283.33
193.778	4444.44
193.996	-1735.85
194.215	-1208.64
194.433	-508.92
194.652	-1170.31
194.87	1566
195.089	704.67
195.307	1187.34
195.526	2612.9
195.744	3100
195.963	788.17
196.181	1057.89
196.399	927
196.618	3727.27
196.836	939.39
197.055	510.89
197.273	561.83
197.491	470.18
197.71	364.65
197.928	310.17
198.146	300.87
198.365	275.77
198.583	296.22
198.801	247.05
199.019	199
199.238	219.13
199.456	268.12
199.674	264.71
199.892	318.53
200.111	349.45
200.329	484.71
200.547	660.33
200.765	7178.95
200.983	4109.09
201.202	-1204.46
201.42	-509.96
201.638	-494.62
201.856	-344
202.074	-275.33
202.292	-364.53
202.51	-278.67
202.728	-288.01
202.946	-599.35
203.165	3072.22
203.383	18500
203.601	-1005
203.819	-606.9
204.037	1908.11
204.255	-1576.92
204.473	1222
204.691	1213.04
204.909	521.62
205.127	453.61
205.345	565.35
205.562	-957.78
205.78	474.81
205.998	225.37
206.216	194.36
206.434	262.11
206.652	215.05
206.87	219.24
207.088	242.26
207.306	231.29
207.523	220.69
207.741	218.8
207.959	195.32
208.177	217.02
208.395	200.87
208.612	226.46
208.83	234.53
209.048	289.97
209.266	380.63
209.483	315.72
209.701	366.23
209.919	722.48
210.136	928.16
210.354	2236.36
210.572	577.97
210.79	-8954.55
211.007	1031.78
211.225	635.26
211.442	314.59
211.66	191.81
211.878	182.64
212.095	47.39
212.313	63.4
212.53	58.99
212.748	59.75
212.966	44.19
213.183	25.25
213.401	8.33
213.618	8.92
213.836	1.37
214.053	-4.67
214.271	13.08
214.488	129.95
214.705	119.7
214.923	103.28
215.14	110.49
215.358	119.25
215.575	134.96
215.793	178.7
216.01	175.68
216.227	256.36
216.445	214.19
216.662	172.1
216.879	283.56
217.097	200
217.314	260.88
217.531	189.08
217.749	183.12
217.966	152.54
218.183	148.98
218.4	160.08
218.618	128.82
218.835	108.59
219.052	116.48
219.269	128.84
219.487	138.09
219.704	140.25
219.921	121.3
220.138	125.51
220.355	105.25
220.572	99.89
220.79	85.82
221.007	83.87
221.224	83.04
221.441	88.26
221.658	80.42
221.875	78.15
222.092	62.39
222.309	56.35
222.526	49.57
222.743	51.17
222.96	49.42
223.177	49.04
223.394	48.32
223.611	50.58
223.828	48.6
224.045	44.71
224.262	44.9
224.479	47.11
224.696	49.73
224.913	51.27
225.13	51.69
225.347	49.58
225.564	46.99
225.781	43.87
225.997	41.39
226.214	36.82
226.431	33.11
226.648	25.26
226.865	23.05
227.082	18.7
227.298	14.98
227.515	12
227.732	12.41
227.949	10.59
228.165	9.74
228.382	9.09
228.599	9.07
228.816	9.04
229.032	9.24
229.249	9.54
229.466	9.78
229.682	9.71
229.899	9.78
230.116	9.27
230.332	10.18
230.549	10.44
230.765	10.48
230.982	10.82
231.199	11.21
231.415	10.86
231.632	10.51
231.848	10.77
232.065	10.69
232.281	11.14
232.498	11.56
232.714	10.89
232.931	11.61
233.147	10.52
233.364	9.71
233.58	9.8
233.797	11.17
234.013	11.52
234.23	12.84
234.446	13.57
234.662	14.09
234.879	11.54
235.095	11.12
235.312	10.94
235.528	12.02
235.744	11.74
235.961	11.52
236.177	11.59
236.393	13.22
236.61	12.08
236.826	10.96
237.042	11.9
237.258	14.79
237.475	14
237.691	13.08
237.907	11.84
238.123	12.82
238.339	9.72
238.556	13.19
238.772	9.44
238.988	9.38
239.204	8.13
239.42	9.36
239.636	9.01
239.853	9.22
240.069	9.21
240.285	8.18
240.501	7.43
240.717	9.2
240.933	8.02
241.149	8.21
241.365	8.07
241.581	9
241.797	8.21
242.013	7.69
242.229	7.63
242.445	7.22
242.661	8.29
242.877	8.18
243.093	8.28
243.309	7.26
243.525	7.66
243.741	7.95
243.957	8.11
244.173	7.98
244.388	8.81
244.604	9.88
244.82	10.34
245.036	10.06
245.252	10.57
245.468	10.24
245.683	10.96
245.899	10.3
246.115	9.82
246.331	9.09
246.547	8.6
246.762	7.5
246.978	7.11
247.194	7.05
247.409	6.78
247.625	6.43
247.841	6.18
248.057	5.89
248.272	5.48
248.488	5.14
248.703	5.22
248.919	5.7
249.135	6.66
249.35	6.8
249.566	6.56
249.782	6.54
249.997	6.98
250.213	6.75
250.428	6.8
250.644	7.78
250.859	7.95
251.075	8.4
251.29	7.81
251.506	6.97
251.721	6.85
251.937	7.12
252.152	7.25
252.368	6.91
252.583	6.85
252.798	7.12
253.014	6.86
253.229	7.11
253.445	6.36
253.66	6
253.875	6.28
254.091	6.46
254.306	6.34
254.521	6.2
254.737	6.78
254.952	7.84
255.167	6.65
255.383	6.99
255.598	7.23
255.813	7.42
256.028	7.7
256.244	8.44
256.459	7.52
256.674	7.21
256.889	7.1
257.104	6.78
257.32	5.83
257.535	6.68
257.75	6.36
257.965	5.67
258.18	5.93
258.395	5.84
258.61	5.11
258.826	4.98
259.041	4.87
259.256	4.84
259.471	4.68
259.686	4.67
259.901	4.46
260.116	4.21
260.331	4.44
260.546	4.07
260.761	4.17
260.976	3.93
261.191	3.95
261.406	4.27
261.621	4.19
261.836	4.4
262.05	4.32
262.265	4.27
262.48	4.78
262.695	4.89
262.91	5.66
263.125	5.36
263.34	5.84
263.555	6.44
263.769	5.53
263.984	5.3
264.199	5.07
264.414	5.52
264.629	6.06
264.843	5.42
265.058	5.13
265.273	4.74
265.488	4.96
265.702	4.82
265.917	4.5
266.132	4.99
266.346	4.96
266.561	5.31
266.776	5.17
266.99	4.64
267.205	4.77
267.42	4.6
267.634	4.68
267.849	4.59
268.063	5.06
268.278	5.18
268.492	5.04
268.707	5.23
268.922	4.79
269.136	4.66
269.351	4.65
269.565	4.6
269.78	4.55
269.994	4.4
270.209	4.32
270.423	4.1
270.637	3.9
270.852	4.11
271.066	4.18
271.281	3.91
271.495	3.81
271.709	4.21
271.924	4.85
272.138	5.03
272.353	5.05
272.567	5.29
272.781	5.45
272.996	5.23
273.21	5.58
273.424	5.68
273.638	6.03
273.853	6.18
274.067	5.87
274.281	5.29
274.495	5.55
274.71	5.25
274.924	4.97
275.138	4.75
275.352	5.51
275.566	5.27
275.781	4.89
275.995	4.99
276.209	4.94
276.423	5.18
276.637	4.8
276.851	4.22
277.065	4.69
277.279	4.74
277.493	4.54
277.707	4.17
277.921	4.05
278.135	4.81
278.349	4.67
278.563	5.08
278.777	4.93
278.991	5.65
279.205	5.04
279.419	4.73
279.633	4.58
279.847	4.45
280.061	4.2
280.275	3.73
280.489	3.61
280.703	3.58
280.917	3.35
281.131	3.3
281.344	3.26
281.558	3.74
281.772	3.96
281.986	3.87
282.2	3.92
282.414	4.13
282.627	4.29
282.841	3.72
283.055	3.91
283.269	3.87
283.482	3.84
283.696	3.97
283.91	4.38
284.123	4.14
284.337	4.21
284.551	4.49
284.764	4.28
284.978	4.17
285.192	4.53
285.405	4.56
285.619	4.43
285.833	4.41
286.046	4.42
286.26	4.29
286.473	4.59
286.687	4.33
286.9	4.26
287.114	4.31
287.327	4.35
287.541	4.14
287.754	3.99
287.968	4.07
288.181	4.07
288.395	3.77
288.608	3.63
288.822	3.59
289.035	4.06
289.248	3.95
289.462	4.45
289.675	4.61
289.889	4.78
290.102	4.57
290.315	4.53
290.529	4.56
290.742	4.53
290.955	4.6
291.169	4.41
291.382	4.49
291.595	4.47
291.808	4.01
292.022	3.64
292.235	3.82
292.448	3.92
292.661	4.26
292.875	4.26
293.088	4.45
293.301	4.18
293.514	4.08
293.727	3.71
293.94	3.83
294.153	3.75
294.367	3.97
294.58	3.86
294.793	4.25
295.006	4.31
295.219	4.37
295.432	4
295.645	4.32
295.858	4.38
296.071	4.51
296.284	4.59
296.497	4.64
296.71	4.6
296.923	4.26
297.136	4.16
297.349	4.11
297.562	3.99
297.775	4.44
297.988	4.4
298.201	4.62
298.414	4.54
298.626	4.79
298.839	5
299.052	5.27
299.265	5.41
299.478	5.38
299.691	5.79
299.903	5.88
300.116	5.85
300.329	6.11
300.542	6.03
300.755	6.36
300.967	5.85
301.18	5.81
301.393	5.79
301.605	5.66
301.818	6.03
302.031	5.59
302.243	6.06
302.456	5.8
302.669	5.47
302.881	5.64
303.094	5.59
303.307	5.72
303.519	5.56
303.732	5.46
303.944	5.62
304.157	5.56
304.37	5.59
304.582	5.72
304.795	6
305.007	6.52
305.22	6.48
305.432	6.22
305.645	6.67
305.857	6.68
306.069	6.98
306.282	6.96
306.494	6.67
306.707	6.87
306.919	6.6
307.132	6.61
307.344	6.13
307.556	6.2
307.769	6.41
307.981	6.36
308.193	6.34
308.406	6.58
308.618	6.77
308.83	6.81
309.043	6.68
309.255	6.65
309.467	6.42
309.679	6.29
309.892	6.38
310.104	6.26
310.316	6
310.528	5.95
310.74	5.8
310.953	5.75
311.165	5.54
311.377	5.63
311.589	5.52
311.801	5.42
312.013	5.55
312.225	5.41
312.437	5.48
312.649	5.43
312.862	5.61
313.074	5.4
313.286	5.88
313.498	6.15
313.71	5.96
313.922	6.43
314.134	6.52
314.346	6.83
314.558	6.84
314.77	7.18
314.982	7.09
315.193	7.08
315.405	7.16
315.617	6.68
315.829	6.74
316.041	6.51
316.253	6.27
316.465	6.08
316.677	6.01
316.888	6
317.1	6.15
317.312	6.46
317.524	6.36
317.736	6.45
317.947	7.01
318.159	7.18
318.371	7.31
318.583	7.3
318.794	8.1
319.006	8.13
319.218	8.02
319.43	8.11
319.641	7.93
319.853	8.16
320.064	8.54
320.276	8.41
320.488	8.55
320.699	9.04
320.911	9.22
321.123	9
321.334	8.94
321.546	9.38
321.757	8.9
321.969	9.24
322.18	9.08
322.392	8.68
322.603	8.34
322.815	8.17
323.026	8.21
323.238	7.82
323.449	7.96
323.661	7.99
323.872	7.72
324.083	7.74
324.295	7.77
324.506	7.96
324.718	7.99
324.929	8.36
325.14	8.53
325.352	8.92
325.563	9.39
325.774	9.44
325.986	9.66
326.197	9.98
326.408	10.39
326.62	10.87
326.831	10.8
327.042	11
327.253	11.01
327.464	11.19
327.676	10.75
327.887	10.78
328.098	10.63
328.309	10.85
328.52	10.92
328.732	10.79
328.943	10.65
329.154	10.97
329.365	11.2
329.576	11.35
329.787	11.16
329.998	11.36
330.209	11.53
330.42	11.68
330.631	11.42
330.842	11.25
331.053	11.41
331.264	11.38
331.475	11.37
331.686	11.38
331.897	11.12
332.108	11.32
332.319	11.6
332.53	11.39
332.741	11.52
332.952	11.82
333.163	11.96
333.374	11.95
333.585	12.01
333.795	12.08
334.006	12.02
334.217	12.29
334.428	12.45
334.639	12.4
334.849	12.67
335.06	12.41
335.271	12.2
335.482	12.35
335.692	12.67
335.903	12.48
336.114	12.58
336.325	12.42
336.535	12.56
336.746	12.43
336.957	12.15
337.167	12.09
337.378	12.59
337.589	12.56
337.799	12.36
338.01	12.19
338.22	12.35
338.431	12.06
338.642	12.44
338.852	12.23
339.063	12.1
339.273	12.34
339.484	12.15
339.694	11.76
339.905	12
340.115	12.26
340.326	11.95
340.536	11.88
340.746	12.04
340.957	12.13
341.167	12.14
341.378	12.08
341.588	11.9
341.799	11.82
342.009	11.93
342.219	11.58
342.43	11.46
342.64	11.48
342.85	11.49
343.061	11.33
343.271	10.86
343.481	10.73
343.691	10.74
343.902	10.78
344.112	10.98
344.322	10.93
344.532	10.89
344.743	10.71
344.953	10.5
345.163	10.59
345.373	10.59
345.583	10.61
345.793	10.81
346.004	10.84
346.214	10.81
346.424	10.67
346.634	10.89
346.844	11
347.054	11.17
347.264	11.65
347.474	11.31
347.684	11.61
347.894	11.6
348.104	11.48
348.314	11.44
348.524	11.43
348.734	11.57
348.944	11.5
349.154	11.49
349.364	11.36
349.574	11.08
349.784	11.53
349.994	11.28
350.204	11.29
350.413	11.31
350.623	11.32
350.833	11.28
351.043	11.14
351.253	10.94
351.463	11.07
351.672	10.96
351.882	11.17
352.092	10.7
352.302	10.61
352.511	10.85
352.721	10.66
352.931	10.8
353.141	11.04
353.35	11.34
353.56	11.54
353.77	11.05
353.979	10.95
354.189	11.02
354.399	11.22
354.608	11.3
354.818	11.43
355.027	11.42
355.237	11.39
355.447	11.32
355.656	10.71
355.866	10.29
356.075	10.78
356.285	10.82
356.494	10.7
356.704	10.61
356.913	10.75
357.123	10.47
357.332	10.21
357.542	10.19
357.751	10.13
357.96	10.44
358.17	10.65
358.379	10.38
358.589	10.51
358.798	10.46
359.007	10.67
359.217	10.46
359.426	10.34
359.635	10.7
359.845	10.66
360.054	10.63
360.263	10.54
360.472	10.35
360.682	10.44
360.891	10.3
361.1	10.09
361.309	9.91
361.519	9.84
361.728	9.68
361.937	9.57
362.146	9.44
362.355	9.19
362.564	9.09
362.774	9.2
362.983	9.11
363.192	9.18
363.401	9.44
363.61	9.52
363.819	9.82
364.028	9.82
364.237	9.59
364.446	9.6
364.655	9.83
364.864	10.02
365.073	9.93
365.282	10.03
365.491	10.11
365.7	9.83
365.909	9.78
366.118	9.62
366.327	9.61
366.536	9.94
366.745	10.02
366.954	9.97
367.162	9.96
367.371	10.05
367.58	9.94
367.789	9.65
367.998	9.87
368.207	9.6
368.415	9.52
368.624	9.85
368.833	9.82
369.042	9.67
369.25	9.75
369.459	9.37
369.668	9.55
369.877	9.65
370.085	9.83
370.294	9.76
370.503	10.02
370.711	9.85
370.92	9.82
371.129	9.9
371.337	9.86
371.546	9.67
371.754	9.85
371.963	9.67
372.171	9.48
372.38	9.45
372.589	9.71
372.797	9.71
373.006	9.61
373.214	9.49
373.423	9.31
373.631	9.32
373.84	9.4
374.048	9.37
374.256	9.35
374.465	9.54
374.673	9.52
374.882	9.01
375.09	8.81
375.298	8.93
375.507	8.69
375.715	8.57
375.923	8.8
376.132	8.94
376.34	8.73
376.548	8.72
376.757	8.68
376.965	8.57
377.173	8.51
377.381	8.4
377.59	8.69
377.798	8.91
378.006	9.01
378.214	8.98
378.423	8.89
378.631	9
378.839	8.87
379.047	8.9
379.255	8.95
379.463	9.25
379.671	9.38
379.879	9.06
380.088	8.89
380.296	9.04
380.504	8.77
380.712	8.55
380.92	8.67
381.128	8.79
381.336	8.66
381.544	8.63
381.752	8.29
381.96	8.21
382.168	8.19
382.376	8.29
382.584	8.01
382.791	8.13
382.999	8.1
383.207	7.99
383.415	8.2
383.623	7.96
383.831	7.97
384.039	8.2
384.247	8.41
384.454	8.36
384.662	8.13
384.87	8.2
385.078	8.13
385.285	8.15
385.493	8.03
385.701	7.83
385.909	8.1
386.116	8.01
386.324	8.04
386.532	7.86
386.739	8.04
386.947	8.11
387.155	8.07
387.362	8.17
387.57	7.92
387.778	7.92
387.985	7.76
388.193	7.62
388.4	7.86
388.608	7.73
388.816	7.53
389.023	7.55
389.231	7.4
389.438	7.41
389.646	7.15
389.853	7.5
390.061	7.46
390.268	7.65
390.475	7.71
390.683	7.42
390.89	7.31
391.098	7.41
391.305	7.06
391.512	7.22
391.72	7.01
391.927	7.06
392.135	6.89
392.342	6.82
392.549	6.81
392.756	6.71
392.964	6.69
393.171	6.74
393.378	6.78
393.586	6.96
393.793	6.89
394	6.96
394.207	7.14
394.414	7.15
394.622	7.11
394.829	6.99
395.036	6.79
395.243	6.67
395.45	6.52
395.657	6.45
395.864	6.46
396.072	6.41
396.279	6.34
396.486	6.16
396.693	6.17
396.9	6.29
397.107	6.17
397.314	6.43
397.521	6.67
397.728	6.57
397.935	6.33
398.142	6.16
398.349	6.19
398.556	6.17
398.763	6.21
398.97	6.24
399.177	6.1
399.383	6.12
399.59	5.97
399.797	5.73
400.004	5.84
400.211	6.02
400.418	6.13
400.625	6.12
400.831	6.16
401.038	6.2
401.245	6.31
401.452	6.3
401.658	6.38
401.865	6.19
402.072	6.23
402.279	6.4
402.485	6.33
402.692	6.18
402.899	6.2
403.105	6.26
403.312	5.94
403.519	5.78
403.725	5.91
403.932	5.73
404.138	5.94
404.345	6.05
404.552	5.74
404.758	5.83
404.965	6.05
405.171	5.98
405.378	6.01
405.584	6.1
405.791	6.16
405.997	6.15
406.204	6.36
406.41	6.47
406.617	6.49
406.823	6.72
407.029	6.65
407.236	6.63
407.442	6.75
407.649	6.73
407.855	6.71
408.061	6.66
408.268	6.57
408.474	6.35
408.68	6.13
408.887	5.99
409.093	5.81
409.299	5.97
409.505	5.86
409.712	5.67
409.918	5.57
410.124	5.6
410.33	5.45
410.537	5.54
410.743	5.77
410.949	5.83
411.155	5.74
411.361	5.67
411.567	5.5
411.773	5.2
411.98	5.3
412.186	5.39
412.392	5.35
412.598	5.44
412.804	5.4
413.01	5.3
413.216	5.35
413.422	5.35
413.628	5.5
413.834	5.49
414.04	5.7
414.246	5.63
414.452	5.57
414.658	5.58
414.864	5.49
415.07	5.52
415.275	5.35
415.481	5.21
415.687	5.21
415.893	5.26
416.099	5.29
416.305	5.31
416.511	5.3
416.716	5.28
416.922	5.21
417.128	5.28
417.334	5.19
417.539	5.16
417.745	5.16
417.951	5.21
418.157	5.08
418.362	5.07
418.568	4.99
418.774	5.01
418.979	5.07
419.185	5.06
419.391	5
419.596	4.99
419.802	5.08
420.008	5.01
420.213	5.63
420.419	5.65
420.624	5.56
420.83	5.5
421.035	5.43
421.241	5.33
421.446	5.38
421.652	5.36
421.857	5.4
422.063	5.34
422.268	5.41
422.474	4.8
422.679	4.79
422.885	4.87
423.09	4.9
423.295	4.93
423.501	4.91
423.706	4.89
423.911	4.86
424.117	4.83
424.322	4.79
424.527	4.79
424.733	4.77
424.938	4.78
425.143	4.76
425.349	4.75
425.554	4.74
425.759	4.82
425.964	4.87
426.169	4.94
426.375	4.97
426.58	5.07
426.785	5.09
426.99	5.11
427.195	5.03
427.4	4.97
427.605	5.03
427.811	5.06
428.016	5
428.221	4.95
428.426	5.01
428.631	4.88
428.836	4.77
429.041	4.77
429.246	4.76
429.451	4.93
429.656	5.05
429.861	5.04
430.066	5.1
430.271	5.13
430.476	5.14
430.681	5.06
430.886	5.14
431.09	5.12
431.295	5.1
431.5	5.08
431.705	4.93
431.91	4.86
432.115	4.85
432.32	4.79
432.524	4.79
432.729	4.77
432.934	4.74
433.139	4.72
433.343	4.76
433.548	4.7
433.753	4.79
433.958	4.83
434.162	4.93
434.367	4.94
434.572	4.91
434.776	4.93
434.981	4.97
435.186	4.98
435.39	4.96
435.595	5
435.799	5.1
436.004	5.16
436.209	5.21
436.413	5.14
436.618	5.23
436.822	5.36
437.027	5.31
437.231	5.33
437.436	5.28
437.64	5.26
437.845	5.24
438.049	5.18
438.253	5.09
438.458	5.16
438.662	5.16
438.867	5.09
439.071	5.01
439.275	5.02
439.48	4.92
439.684	4.92
439.888	5.02
440.093	4.96
440.297	4.87
440.501	4.82
440.706	4.82
440.91	4.82
441.114	4.82
441.318	4.86
441.523	4.9
441.727	4.96
441.931	5.06
442.135	4.99
442.339	5.08
442.543	5.19
442.748	5.25
442.952	5.16
443.156	5.03
443.36	5.1
443.564	5
443.768	4.94
443.972	4.93
444.176	4.93
444.38	4.94
444.584	4.93
444.788	4.95
444.992	4.94
445.196	5
445.4	5.07
445.604	5.01
445.808	5.05
446.012	5.01
446.216	5.05
446.42	5.05
446.624	5.07
446.828	5.04
447.032	4.98
447.235	4.94
447.439	4.94
447.643	4.95
447.847	4.88
448.051	4.84
448.254	4.87
448.458	4.76
448.662	4.69
448.866	4.69
449.069	4.73
449.273	4.8
449.477	4.93
449.681	4.88
449.884	4.91
450.088	5.05
450.292	5.08
450.495	5.01
450.699	5.18
450.902	5.18
451.106	5.11
451.31	5.02
451.513	5.02
451.717	4.88
451.92	4.9
452.124	4.87
452.327	4.8
452.531	4.85
452.734	4.93
452.938	4.8
453.141	4.89
453.345	4.84
453.548	4.92
453.752	4.89
453.955	4.94
454.158	4.9
454.362	4.88
454.565	5
454.769	4.88
454.972	4.85
455.175	4.9
455.379	4.86
455.582	5.03
455.785	5.01
455.988	5.11
456.192	5.14
456.395	5.15
456.598	5.13
456.801	5.05
457.005	5.02
457.208	5.13
457.411	5.16
457.614	5.13
457.817	5.07
458.021	4.99
458.224	4.94
458.427	4.88
458.63	4.86
458.833	4.87
459.036	4.76
459.239	4.89
459.442	4.82
459.645	4.84
459.848	4.8
460.051	4.74
460.254	4.83
460.457	4.77
460.66	4.8
460.863	4.83
461.066	4.92
461.269	5.03
461.472	4.97
461.675	5.05
461.878	4.99
462.081	5.03
462.284	5.09
462.486	4.97
462.689	5.14
462.892	5.17
463.095	5.18
463.298	5.09
463.5	4.98
463.703	5
463.906	4.98
464.109	5.02
464.311	5.02
464.514	5
464.717	5.1
464.92	4.99
465.122	4.99
465.325	5.02
465.528	5.04
465.73	5.18
465.933	5.18
466.135	5.09
466.338	5.01
466.541	5.04
466.743	5.06
466.946	5.05
467.148	5
467.351	4.97
467.553	5
467.756	5.06
467.958	5.04
468.161	5.12
468.363	5.16
468.566	5.2
468.768	5.21
468.971	5.27
469.173	5.22
469.375	5.25
469.578	5.24
469.78	5.1
469.983	5.07
470.185	5.05
470.387	4.94
470.59	4.94
470.792	4.93
470.994	4.88
471.196	4.95
471.399	5.07
471.601	5.18
471.803	5.17
472.005	5.19
472.208	5.16
472.41	5.12
472.612	5.11
472.814	5.1
473.016	5.12
473.218	5.15
473.421	5.12
473.623	5.01
473.825	5.01
474.027	5.04
474.229	5.06
474.431	5.16
474.633	5.23
474.835	5.28
475.037	5.37
475.239	5.42
475.441	5.43
475.643	5.31
475.845	5.26
476.047	5.21
476.249	5.2
476.451	5.28
476.653	5.15
476.855	5.07
477.057	5.07
477.258	5.07
477.46	5.02
477.662	5.01
477.864	5.04
478.066	5.08
478.268	5.07
478.469	5.08
478.671	5.11
478.873	5.11
479.075	5.2
479.276	5.15
479.478	5.11
479.68	5.16
479.882	5.18
480.083	5.23
480.285	5.21
480.487	5.22
480.688	5.12
480.89	5.07
481.091	5.07
481.293	5
481.495	4.99
481.696	4.97
481.898	4.9
482.099	4.86
482.301	4.78
482.502	4.74
482.704	4.76
482.905	4.75
483.107	4.74
483.308	4.74
483.51	4.72
483.711	4.72
483.913	4.73
484.114	4.73
484.315	4.72
484.517	4.74
484.718	4.77
484.92	4.75
485.121	4.79
485.322	4.79
485.524	4.78
485.725	4.78
485.926	4.78
486.127	4.76
486.329	4.78
486.53	4.8
486.731	4.8
486.932	4.77
487.134	4.77
487.335	4.76
487.536	4.76
487.737	4.79
487.938	4.78
488.139	4.77
488.341	4.77
488.542	4.77
488.743	4.82
488.944	4.82
489.145	4.85
489.346	4.84
489.547	4.85
489.748	4.85
489.949	4.82
490.15	4.85
490.351	4.85
490.552	4.84
490.753	4.79
490.954	4.73
491.155	4.76
491.356	4.76
491.557	4.79
491.758	4.82
491.959	4.83
492.159	4.83
492.36	4.87
492.561	4.87
492.762	4.91
492.963	4.94
493.164	5.06
493.364	5.11
493.565	5.11
493.766	5.08
493.967	5.06
494.167	5.06
494.368	5.1
494.569	5.1
494.769	5.2
494.97	5.22
495.171	5.29
495.371	5.19
495.572	5.14
495.773	5.19
495.973	5.25
496.174	5.3
496.375	5.28
496.575	5.3
496.776	5.3
496.976	5.28
497.177	5.22
497.377	5.24
497.578	5.25
497.778	5.28
497.979	5.31
498.179	5.36
498.38	5.38
498.58	5.45
498.78	5.47
498.981	5.48
499.181	5.55
499.382	5.59
499.582	5.63
499.782	5.7
499.983	5.77
500.183	5.84
500.383	5.83
500.584	5.77
500.784	5.79
500.984	5.81
501.184	5.83
501.385	5.82
501.585	5.89
501.785	5.85
501.985	5.8
502.185	5.73
502.386	5.72
502.586	5.73
502.786	5.78
502.986	5.77
503.186	5.83
503.386	5.85
503.586	5.84
503.786	5.87
503.987	5.93
504.187	5.92
504.387	5.97
504.587	6.02
504.787	6.04
504.987	6.11
505.187	6.19
505.387	6.26
505.587	6.27
505.786	6.31
505.986	6.37
506.186	6.38
506.386	6.45
506.586	6.45
506.786	6.47
506.986	6.48
507.186	6.4
507.386	6.39
507.585	6.37
507.785	6.37
507.985	6.41
508.185	6.39
508.384	6.42
508.584	6.47
508.784	6.64
508.984	6.56
509.183	6.65
509.383	6.8
509.583	6.9
509.782	6.94
509.982	7.02
510.182	7.1
510.381	7.19
510.581	7.22
510.781	7.29
510.98	7.27
511.18	7.36
511.379	7.44
511.579	7.45
511.778	7.51
511.978	7.62
512.177	7.65
512.377	7.65
512.576	7.68
512.776	7.77
512.975	7.77
513.175	7.79
513.374	7.89
513.573	7.87
513.773	7.91
513.972	7.91
514.172	7.91
514.371	8.02
514.57	8.06
514.77	8.12
514.969	8.12
515.168	8.23
515.367	8.26
515.567	8.3
515.766	8.35
515.965	8.31
516.164	8.38
516.364	8.37
516.563	8.36
516.762	8.48
516.961	8.47
517.16	8.53
517.359	8.53
517.559	8.6
517.758	8.59
517.957	8.63
518.156	8.72
518.355	8.77
518.554	8.9
518.753	8.92
518.952	8.92
519.151	9.03
519.35	9.09
519.549	9.19
519.748	9.24
519.947	9.29
520.146	9.33
520.345	9.39
520.544	9.47
520.743	9.44
520.942	9.54
521.141	9.58
521.339	9.61
521.538	9.71
521.737	9.78
521.936	9.77
522.135	9.88
522.333	10.03
522.532	10.08
522.731	10.1
522.93	10.19
523.129	10.19
523.327	10.23
523.526	10.26
523.725	10.25
523.923	10.22
524.122	10.29
524.321	10.3
524.519	10.27
524.718	10.28
524.917	10.34
525.115	10.32
525.314	10.36
525.512	10.39
525.711	10.45
525.909	10.52
526.108	10.59
526.306	10.6
526.505	10.61
526.703	10.65
526.902	10.69
527.1	10.68
527.299	10.74
527.497	10.79
527.696	10.81
527.894	10.8
528.092	10.82
528.291	10.83
528.489	10.89
528.688	10.96
528.886	11
529.084	11.02
529.283	11.11
529.481	11.2
529.679	11.26
529.877	11.37
530.076	11.46
530.274	11.51
530.472	11.63
530.67	11.68
530.869	11.77
531.067	11.81
531.265	11.99
531.463	11.99
531.661	11.99
531.859	12.05
532.057	12.06
532.255	12.13
532.454	12.19
532.652	12.18
532.85	12.23
533.048	12.21
533.246	12.29
533.444	12.29
533.642	12.34
533.84	12.41
534.038	12.44
534.236	12.52
534.434	12.56
534.632	12.57
534.83	12.68
535.027	12.72
535.225	12.84
535.423	12.88
535.621	12.91
535.819	13.01
536.017	13.04
536.215	13.07
536.412	13.14
536.61	13.26
536.808	13.37
537.006	13.5
537.203	13.57
537.401	13.68
537.599	13.77
537.797	13.95
537.994	14.08
538.192	14.23
538.39	14.48
538.587	14.63
538.785	14.74
538.983	14.88
539.18	14.98
539.378	15.14
539.575	15.28
539.773	15.4
539.97	15.46
540.168	15.5
540.366	15.6
540.563	15.69
540.761	15.76
540.958	15.85
541.155	15.99
541.353	16.11
541.55	16.23
541.748	16.35
541.945	16.48
542.143	16.67
542.34	16.86
542.537	17.01
542.735	17.18
542.932	17.4
543.129	17.63
543.327	17.83
543.524	18.08
543.721	18.42
543.919	18.85
544.116	19.32
544.313	19.71
544.51	20.18
544.708	20.64
544.905	20.99
545.102	21.42
545.299	21.79
545.496	22.12
545.693	22.35
545.891	22.44
546.088	22.33
546.285	22.23
546.482	22.13
546.679	21.94
546.876	21.74
547.073	21.62
547.27	21.36
547.467	21.19
547.664	20.98
547.861	20.87
548.058	20.7
548.255	20.7
548.452	20.56
548.649	20.43
548.846	20.32
549.043	20.27
549.24	20.2
549.437	20.14
549.633	19.99
549.83	19.86
550.027	19.68
550.224	19.57
550.421	19.29
550.618	19.32
550.814	19.19
551.011	19.2
551.208	19.05
551.405	18.97
551.601	18.93
551.798	18.85
551.995	18.81
552.191	18.81
552.388	18.81
552.585	18.87
552.781	18.75
552.978	18.79
553.175	18.73
553.371	18.75
553.568	18.81
553.764	18.71
553.961	18.69
554.157	18.73
554.354	18.62
554.55	18.66
554.747	18.65
554.943	18.64
555.14	18.76
555.336	18.72
555.533	18.82
555.729	18.83
555.926	18.89
556.122	19.03
556.318	19.03
556.515	19.13
556.711	19.17
556.907	19.23
557.104	19.28
557.3	19.22
557.496	19.31
557.693	19.3
557.889	19.26
558.085	19.28
558.281	19.16
558.478	19.15
558.674	19.16
558.87	19.16
559.066	19.2
559.262	19.25
559.459	19.34
559.655	19.46
559.851	19.52
560.047	19.5
560.243	19.62
560.439	19.7
560.635	19.83
560.831	19.84
561.027	19.85
561.223	19.95
561.419	19.92
561.615	19.9
561.811	19.96
562.007	19.97
562.203	20.12
562.399	20.12
562.595	20.19
562.791	20.26
562.987	20.3
563.183	20.36
563.379	20.42
563.575	20.67
563.771	20.83
563.966	20.8
564.162	20.82
564.358	20.93
564.554	20.91
564.75	20.9
564.945	20.91
565.141	21.08
565.337	21.04
565.533	21.03
565.728	20.93
565.924	20.91
566.12	21
566.315	21.11
566.511	21.07
566.707	21.26
566.902	21.37
567.098	21.5
567.293	21.52
567.489	21.59
567.684	21.68
567.88	21.73
568.076	21.78
568.271	21.8
568.467	21.86
568.662	21.9
568.858	21.87
569.053	21.89
569.248	21.78
569.444	21.91
569.639	22
569.835	22.05
570.03	22.1
570.225	22.15
570.421	22.13
570.616	22.14
570.812	22.27
571.007	22.32
571.202	22.36
571.397	22.38
571.593	22.28
571.788	22.43
571.983	22.47
572.178	22.54
572.374	22.54
572.569	22.64
572.764	22.67
572.959	22.59
573.154	22.53
573.35	22.53
573.545	22.64
573.74	22.68
573.935	22.61
574.13	22.73
574.325	22.73
574.52	22.88
574.715	23.02
574.91	23.07
575.105	23.33
575.3	23.55
575.495	23.78
575.69	23.94
575.885	24.23
576.08	24.49
576.275	24.62
576.47	24.94
576.665	25.12
576.86	25.25
577.055	25.52
577.25	25.77
577.444	26.05
577.639	26.3
577.834	26.5
578.029	26.64
578.224	26.72
578.418	26.99
578.613	27.09
578.808	27.23
579.003	27.25
579.197	27.34
579.392	27.14
579.587	27.18
579.781	27.13
579.976	27.15
580.171	27.19
580.365	27.05
580.56	26.84
580.755	26.86
580.949	26.9
581.144	27.06
581.338	27.1
581.533	27.3
581.727	27.15
581.922	27.24
582.116	27.33
582.311	27.42
582.505	27.67
582.7	27.77
582.894	27.81
583.089	27.81
583.283	27.86
583.478	27.93
583.672	27.96
583.866	28.05
584.061	28.08
584.255	28.03
584.449	27.93
584.644	27.95
584.838	28.16
585.032	28.29
585.226	28.49
585.421	28.6
585.615	28.64
585.809	28.75
586.003	29.02
586.198	29.29
586.392	29.5
586.586	29.89
586.78	29.96
586.974	29.94
587.168	30
587.363	29.86
587.557	29.68
587.751	29.56
587.945	29.48
588.139	29.49
588.333	29.12
588.527	29.01
588.721	28.66
588.915	28.54
589.109	28.36
589.303	28.15
589.497	28.09
589.691	28.22
589.885	28.28
590.079	28.37
590.273	28.31
590.466	28.59
590.66	28.6
590.854	28.86
591.048	29.16
591.242	29.43
591.436	29.75
591.629	30.02
591.823	30.16
592.017	30.37
592.211	30.44
592.404	30.58
592.598	30.58
592.792	30.62
592.986	30.52
593.179	30.35
593.373	30.27
593.567	30.08
593.76	29.83
593.954	29.61
594.147	29.44
594.341	29.24
594.535	29.02
594.728	28.68
594.922	28.54
595.115	28.4
595.309	28.19
595.502	28.1
595.696	27.97
595.889	27.99
596.083	27.98
596.276	27.87
596.47	27.86
596.663	27.8
596.856	27.97
597.05	27.98
597.243	28.03
597.437	28.15
597.63	28.33
597.823	28.52
598.017	28.67
598.21	28.77
598.403	28.98
598.596	29.12
598.79	29.26
598.983	29.48
599.176	29.59
599.369	29.78
599.563	29.84
599.756	29.67
599.949	29.59
600.142	29.42
600.335	29.39
600.528	29.31
600.722	29.33
600.915	29.18
601.108	28.91
601.301	28.86
601.494	28.62
601.687	28.5
601.88	28.38
602.073	28.3
602.266	28.24
602.459	28.24
602.652	27.99
602.845	27.81
603.038	27.77
603.231	27.82
603.424	27.74
603.617	27.73
603.809	27.9
604.002	27.98
604.195	27.92
604.388	27.96
604.581	27.92
604.774	28
604.966	28.17
605.159	28.37
605.352	28.37
605.545	28.58
605.737	28.67
605.93	28.74
606.123	28.87
606.316	29.13
606.508	29.3
606.701	29.56
606.894	29.94
607.086	30.29
607.279	30.6
607.471	31.01
607.664	31.45
607.857	32.07
608.049	32.71
608.242	33.58
608.434	34.75
608.627	36.17
608.819	37.83
609.012	39.78
609.204	41.76
609.397	43.93
609.589	46.39
609.782	49
609.974	51.82
610.166	54.68
610.359	57.54
610.551	60.38
610.743	62.86
610.936	64.9
611.128	66.58
611.32	67.88
611.513	68.86
611.705	69.24
611.897	69.2
612.09	68.4
612.282	67.59
612.474	66.31
612.666	64.47
612.858	62.78
613.051	61.16
613.243	59.51
613.435	57.97
613.627	56.47
613.819	55.19
614.011	53.66
614.203	52.48
614.395	51.03
614.588	49.67
614.78	48.36
614.972	47.03
615.164	45.88
615.356	44.59
615.548	43.45
615.74	42.38
615.932	41.08
616.124	40.14
616.315	39.34
616.507	38.4
616.699	37.5
616.891	36.84
617.083	36.29
617.275	35.74
617.467	35.27
617.659	34.85
617.85	34.35
618.042	34.07
618.234	33.82
618.426	33.47
618.618	33.25
618.809	33.17
619.001	33.12
619.193	32.97
619.384	32.83
619.576	32.9
619.768	32.97
619.959	32.95
620.151	33.04
620.343	33.11
620.534	33.11
620.726	33.06
620.917	33.12
621.109	32.97
621.301	33.18
621.492	33.18
621.684	33.21
621.875	33.16
622.067	33.12
622.258	33.26
622.45	33.17
622.641	33.24
622.832	33.73
623.024	33.91
623.215	34.24
623.407	34.03
623.598	34.2
623.789	34.14
623.981	33.94
624.172	33.99
624.363	34.05
624.555	34.14
624.746	33.9
624.937	33.45
625.129	33.26
625.32	33.03
625.511	33.14
625.702	33.02
625.893	32.93
626.085	33.16
626.276	33.11
626.467	32.83
626.658	32.71
626.849	32.82
627.04	32.93
627.231	33.04
627.422	33.1
627.614	33.13
627.805	33.16
627.996	33.33
628.187	33.38
628.378	33.63
628.569	33.97
628.76	34.23
628.951	34.61
629.142	35
629.332	35.26
629.523	35.73
629.714	36.07
629.905	36.5
630.096	36.72
630.287	36.87
630.478	36.98
630.669	36.96
630.859	36.82
631.05	36.52
631.241	36.2
631.432	35.76
631.623	35.34
631.813	34.63
632.004	34.01
632.195	33.69
632.385	33.06
632.576	32.57
632.767	32.08
632.957	31.88
633.148	31.67
633.339	31.26
633.529	31.14
633.72	30.83
633.91	30.93
634.101	30.81
634.292	30.59
634.482	30.6
634.673	30.53
634.863	30.54
635.054	30.34
635.244	30.14
635.435	30.05
635.625	29.85
635.815	29.86
636.006	29.62
636.196	29.59
636.387	29.51
636.577	29.48
636.767	29.54
636.958	29.42
637.148	29.37
637.338	29.41
637.529	29.66
637.719	29.76
637.909	29.68
638.099	29.73
638.29	29.75
638.48	29.75
638.67	29.94
638.86	29.72
639.05	29.66
639.241	29.91
639.431	29.84
639.621	29.76
639.811	29.9
640.001	30.08
640.191	30.05
640.381	29.94
640.571	30.01
640.761	29.68
640.951	29.84
641.141	30
641.331	29.91
641.521	29.98
641.711	29.92
641.901	29.74
642.091	29.71
642.281	29.77
642.471	29.76
642.661	29.76
642.851	30.01
643.041	29.87
643.231	29.92
643.42	29.92
643.61	29.99
643.8	29.94
643.99	29.77
644.18	29.71
644.369	29.81
644.559	29.83
644.749	29.8
644.939	29.82
645.128	29.96
645.318	30.05
645.508	29.96
645.697	29.9
645.887	29.86
646.076	30.03
646.266	30.14
646.456	30.25
646.645	30.38
646.835	30.35
647.024	30.33
647.214	30.33
647.403	30.32
647.593	30.43
647.782	30.47
647.972	30.59
648.161	30.74
648.351	30.8
648.54	30.79
648.73	30.97
648.919	31.14
649.108	31.19
649.298	31.25
649.487	31.37
649.677	31.51
649.866	31.51
650.055	31.63
650.244	31.33
650.434	31.33
650.623	31.44
650.812	31.47
651.002	31.35
651.191	31.29
651.38	31.1
651.569	31.05
651.758	31.03
651.947	31.06
652.137	31.04
652.326	31.43
652.515	31.27
652.704	30.97
652.893	30.85
653.082	30.74
653.271	30.95
653.46	30.9
653.649	30.83
653.838	30.69
654.027	30.95
654.216	31.12
654.405	30.91
654.594	30.94
654.783	31.01
654.972	30.84
655.161	31.14
655.35	31
655.539	31.09
655.728	31
655.916	30.87
656.105	30.57
656.294	30.37
656.483	30.47
656.672	30.4
656.86	30.44
657.049	30.53
657.238	30.25
657.427	30.12
657.615	30.26
657.804	30.46
657.993	30.5
658.181	30.39
658.37	30.14
658.559	29.92
658.747	29.75
658.936	29.8
659.125	30.19
659.313	30.38
659.502	30.22
659.69	30.2
659.879	29.87
660.067	29.82
660.256	30.12
660.444	30.3
660.633	30.58
660.821	30.77
661.01	30.76
661.198	30.46
661.387	30.45
661.575	30.69
661.763	30.73
661.952	30.99
662.14	31.03
662.328	30.95
662.517	31.13
662.705	30.96
662.893	31.17
663.082	31.2
663.27	31
663.458	30.89
663.646	30.86
663.834	30.67
664.023	30.63
664.211	30.82
664.399	30.78
664.587	30.71
664.775	30.61
664.963	30.62
665.152	30.63
665.34	30.96
665.528	30.86
665.716	30.61
665.904	30.65
666.092	30.59
666.28	30.4
666.468	30.4
666.656	30.39
666.844	30.59
667.032	30.62
667.22	30.69
667.408	30.74
667.596	30.65
667.784	30.91
667.971	30.94
668.159	30.89
668.347	31.11
668.535	31.04
668.723	30.8
668.911	30.71
669.098	30.31
669.286	30.04
669.474	29.6
669.662	29.78
669.849	30.03
670.037	29.8
670.225	29.67
670.413	29.61
670.6	29.55
670.788	29.77
670.976	29.64
671.163	29.99
671.351	30.44
671.538	30.63
671.726	30.26
671.913	30.05
672.101	30.21
672.289	30.67
672.476	30.49
672.664	30.67
672.851	30.56
673.039	30.63
673.226	30.64
673.413	30.38
673.601	30.15
673.788	30.31
673.976	30.28
674.163	30.45
674.35	30.13
674.538	30.3
674.725	30.05
674.912	30.02
675.1	30.21
675.287	29.86
675.474	29.73
675.662	29.84
675.849	30.14
676.036	29.97
676.223	29.88
676.411	30.27
676.598	30.2
676.785	30.32
676.972	30.42
677.159	30.4
677.346	30.36
677.533	30.45
677.721	30.47
677.908	30.44
678.095	30.61
678.282	30.4
678.469	30.23
678.656	30.26
678.843	30.19
679.03	30.11
679.217	30.06
679.404	30.37
679.591	30.18
679.778	30.13
679.964	30.13
680.151	30.04
680.338	30.24
680.525	30.2
680.712	30.11
680.899	30.18
681.086	30.27
681.272	30.28
681.459	30
681.646	30.16
681.833	30.32
682.02	30.19
682.206	30.2
682.393	30.3
682.58	30.29
682.766	30.58
682.953	30.57
683.14	30.46
683.326	30.43
683.513	30.5
683.7	30.54
683.886	30.42
684.073	30.39
684.259	30.32
684.446	30.21
684.632	30.28
684.819	30.14
685.005	30.09
685.192	30.31
685.378	30.19
685.565	30.58
685.751	30.79
685.938	31.17
686.124	31.49
686.31	31.62
686.497	31.83
686.683	31.89
686.87	32.07
687.056	32.21
687.242	32.3
687.429	32.57
687.615	32.4
687.801	32.22
687.987	32.16
688.174	32.2
688.36	32.42
688.546	32.37
688.732	32.38
688.918	32.16
689.105	32.11
689.291	31.98
689.477	32.01
689.663	32.06
689.849	31.85
690.035	31.51
690.221	31.4
690.407	31.06
690.593	31.12
690.779	30.91
690.965	30.79
691.151	30.51
691.337	30.43
691.523	30.32
691.709	30.26
691.895	30.66
692.081	30.68
692.267	30.65
692.453	30.82
692.639	30.77
692.825	30.91
693.011	30.96
693.196	31.31
693.382	31.57
693.568	31.62
693.754	31.82
693.94	31.51
694.125	31.81
694.311	31.77
694.497	32.12
694.682	32.34
694.868	32.18
695.054	32.59
695.239	32.51
695.425	32.09
695.611	31.97
695.796	31.63
695.982	31.73
696.168	31.57
696.353	31.5
696.539	31.05
696.724	30.68
696.91	30.46
697.095	30.09
697.281	29.97
697.466	30
697.652	29.69
697.837	29.54
698.023	29.39
698.208	29.29
698.393	29.22
698.579	29.17
698.764	29.05
698.949	29.35
699.135	29.45
699.32	29.37
699.505	29.45
699.691	29.65
699.876	29.88
700.061	29.98
700.246	30.01
700.432	30.13
700.617	30.19
700.802	30.39
700.987	30.2
701.172	29.83
701.358	30.08
701.543	30.25
701.728	30.15
701.913	29.99
702.098	30.05
702.283	30.05
702.468	30.16
702.653	30.35
702.838	30.41
703.023	30.78
703.208	31.53
703.393	31.48
703.578	31.69
703.763	32
703.948	32.74
704.133	33.25
704.318	34.06
704.503	34.47
704.688	35.2
704.873	35.86
705.057	36.67
705.242	37.18
705.427	37.86
705.612	38.4
705.797	39.06
705.981	39.24
706.166	39.33
706.351	39.58
706.536	39.99
706.72	39.87
706.905	39.7
707.09	39.56
707.274	39.66
707.459	39.86
707.644	39.41
707.828	39.71
708.013	39.59
708.197	39.76
708.382	39.42
708.567	39.22
708.751	39.12
708.936	39.18
709.12	38.88
709.305	38.65
709.489	38.34
709.673	38.25
709.858	37.69
710.042	37.86
710.227	37.84
710.411	37.56
710.596	37.46
710.78	37.33
710.964	37.38
711.149	37.46
711.333	37.39
711.517	37.31
711.702	37.58
711.886	37.73
712.07	37.2
712.254	36.7
712.438	36.57
712.623	36.29
712.807	35.98
712.991	35.43
713.175	34.79
713.359	34.38
713.544	34
713.728	33.11
713.912	32.42
714.096	32.41
714.28	32.06
714.464	31.63
714.648	31.31
714.832	30.93
715.016	30.8
715.2	30.75
715.384	30.58
715.568	30.57
715.752	30.73
715.936	30.9
716.12	30.8
716.304	30.73
716.488	31.22
716.671	31.15
716.855	31.48
717.039	31.63
717.223	31.41
717.407	31.09
717.59	30.81
717.774	31.12
717.958	31.15
718.142	31
718.325	31.29
718.509	30.61
718.693	30.53
718.877	30.57
719.06	30.16
719.244	30.77
719.428	30.93
719.611	31.1
719.795	30.9
719.978	30.74
720.162	30.78
720.345	31
720.529	31.25
720.713	31.07
720.896	30.67
721.08	31.25
721.263	31.32
721.446	31.16
721.63	31.21
721.813	31.19
721.997	31.25
722.18	31
722.364	30.79
722.547	30.98
722.73	31.44
722.914	31.78
723.097	31.18
723.28	30.81
723.464	31.57
723.647	31.38
723.83	30.89
724.013	31.07
724.197	30.75
724.38	30.59
724.563	31.13
724.746	30.84
724.929	30.68
725.112	30.96
725.296	30.95
725.479	30.81
725.662	30.82
725.845	31.27
726.028	31.14
726.211	31.8
726.394	31.86
726.577	31.18
726.76	31.51
726.943	31.82
727.126	31.48
727.309	31.51
727.492	31.22
727.675	31.47
727.858	31.34
728.041	31.42
728.224	31.57
728.407	31.62
728.589	32.2
728.772	32.05
728.955	32.12
729.138	32.31
729.321	32.16
729.503	32.28
729.686	32.15
729.869	32.38
730.052	32.39
730.234	31.79
730.417	31.5
730.6	30.75
730.782	31.02
730.965	30.61
731.148	30.88
731.33	30.96
731.513	30.63
731.695	30.83
731.878	30.89
732.061	30.78
732.243	30.69
732.426	30.93
732.608	31.13
732.791	31.1
732.973	30.95
733.156	30.83
733.338	30.9
733.52	31.22
733.703	30.97
733.885	30.7
734.068	30.4
734.25	30.95
734.432	31.02
734.615	31.44
734.797	31.34
734.979	32.22
735.162	32.01
735.344	31.79
735.526	31.47
735.708	31.63
735.891	31.29
736.073	31.62
736.255	31.09
736.437	30.4
736.619	30.11
736.802	30.19
736.984	29.65
737.166	29.86
737.348	29.8
737.53	29.85
737.712	29.58
737.894	29.75
738.076	30.14
738.258	30.04
738.44	31.01
738.622	30.74
738.804	30.28
738.986	29.93
739.168	30.07
739.35	30.5
739.532	30.68
739.714	30.98
739.896	31.29
740.078	31.01
740.259	31.55
740.441	31.35
740.623	31.3
740.805	31.68
740.987	31.73
741.168	31.45
741.35	31.21
741.532	31.18
741.714	31.03
741.895	30.74
742.077	30.41
742.259	30.45
742.44	30.37
742.622	31.03
742.804	31.37
742.985	31.92
743.167	32.52
743.348	33.06
743.53	32.77
743.711	32.87
743.893	33.14
744.075	33.49
744.256	33.5
744.438	33.05
744.619	32.87
744.8	32.75
744.982	32.46
745.163	31.84
745.345	31.56
745.526	32.01
745.707	31.91
745.889	31.47
746.07	31.25
746.252	31.05
746.433	31.57
746.614	31.75
746.795	30.55
746.977	30.66
747.158	31.29
747.339	31.42
747.52	31.39
747.702	31.2
747.883	31.54
748.064	31.78
748.245	31.69
748.426	31.59
748.607	31.33
748.788	32.27
748.97	31.53
749.151	30.76
749.332	30.72
749.513	31.14
749.694	31.44
749.875	31.35
750.056	31.4
750.237	31.45
750.418	30.96
750.599	30.61
750.78	30.74
750.96	31.53
751.141	31.62
751.322	31.46
751.503	31.42
751.684	32.31
751.865	32.71
752.046	32.68
752.226	32.71
752.407	32.91
752.588	32.54
752.769	32.11
752.949	32.19
753.13	32.47
753.311	31.99
753.492	31.5
753.672	30.1
753.853	30.03
754.034	29.86
754.214	30.44
754.395	30.76
754.575	31.49
754.756	32
754.937	31.61
755.117	31.7
755.298	31.93
755.478	31.81
755.659	32.04
755.839	32.22
756.02	32.1
756.2	31.28
756.381	30.75
756.561	30.36
756.741	29.91
756.922	29.39
757.102	29.6
757.283	29.29
757.463	29.62
757.643	30.41
757.823	29.97
758.004	30.02
758.184	30.63
758.364	30.77
758.545	31.17
758.725	31.06
758.905	31.66
759.085	31.07
759.265	31.33
759.446	31.42
759.626	30.54
759.806	30.58
759.986	30.75
760.166	29.88
760.346	29.86
760.526	30
760.706	29.85
760.886	29.6
761.066	30.32
761.246	30.88
761.426	30.65
761.606	30.75
761.786	31.08
761.966	30.85
762.146	31.26
762.326	31
762.506	30.77
762.686	31.16
762.866	31.44
763.046	31.18
763.225	30.82
763.405	30.86
763.585	30.75
763.765	30.77
763.945	30.85
764.124	30.98
764.304	31.54
764.484	31.26
764.664	31.41
764.843	31.24
765.023	30.96
765.203	31.01
765.382	30.66
765.562	30.9
765.741	30.32
765.921	30.66
766.101	30.65
766.28	30.13
766.46	30.71
766.639	30.21
766.819	30.27
766.998	30.21
767.178	29.93
767.357	30.62
767.537	30.11
767.716	31
767.896	30.35
768.075	30.11
768.254	29.82
768.434	29.48
768.613	29.87
768.792	30.23
768.972	30.03
769.151	30.71
769.33	30.7
769.51	31.71
769.689	31.54
769.868	31.66
770.047	31.53
770.226	32.8
770.406	32.73
770.585	32.53
770.764	32.2
770.943	33.22
771.122	32.96
771.301	32.67
771.48	31.84
771.66	31.86
771.839	31.62
772.018	31.56
772.197	30.37
772.376	30.47
772.555	30.52
772.734	30.43
772.913	29.8
773.092	29.33
773.271	29.03
773.449	29.35
773.628	28.82
773.807	29.48
773.986	29.37
774.165	30.21
774.344	31.07
774.523	31.39
774.701	31.59
774.88	31.43
775.059	32.02
775.238	32.18
775.417	32.65
775.595	33.66
775.774	34.21
775.953	35.14
776.131	34.83
776.31	33.83
776.489	33.02
776.667	33.22
776.846	34.05
777.025	33.56
777.203	33.48
777.382	32.98
777.56	32.34
777.739	31.81
777.917	30.6
778.096	30.5
778.274	30.62
778.453	30.91
778.631	30.14
778.81	29.12
778.988	28.9
779.166	28.7
779.345	30.27
779.523	29.44
779.702	29.59
779.88	29.83
780.058	29.42
780.237	30.34
780.415	30.87
780.593	31.13
780.771	31.87
780.95	32.34
781.128	33.14
781.306	32.13
781.484	33.26
781.662	32.75
781.841	33.25
782.019	33.95
782.197	33.44
782.375	33.13
782.553	33.53
782.731	33.88
782.909	33.94
783.087	32.97
783.265	33.47
783.443	32.87
783.621	33.18
783.799	32.61
783.977	32.58
784.155	32.64
784.333	32.81
784.511	33.26
784.689	32.47
784.867	32.59
785.045	32.55
785.223	31.87
785.4	31.87
785.578	32.07
785.756	33.38
785.934	34.06
786.112	34.14
786.289	34.16
786.467	33.1
786.645	33.88
786.823	33.11
787	33.33
787.178	33.08
787.356	32.96
787.533	32.64
787.711	31.87
787.889	30.17
788.066	29.99
788.244	29.52
788.421	29.83
788.599	29.73
788.776	30.12
788.954	30.49
789.131	31.3
789.309	30.22
789.486	29.78
789.664	29.86
789.841	30.53
790.019	30.22
790.196	29.89
790.373	29.44
790.551	29.04
790.728	28.34
790.906	29.16
791.083	29.53
791.26	30.81
791.437	30.96
791.615	30.8
791.792	31.26
791.969	31.61
792.146	32.45
792.324	33.08
792.501	33.54
792.678	35.08
792.855	34.7
793.032	33.23
793.209	33.01
793.387	33.91
793.564	34.2
793.741	34.08
793.918	33.36
794.095	33.71
794.272	33.76
794.449	33.57
794.626	32.54
794.803	32.91
794.98	32.56
795.157	32.34
795.334	31.58
795.511	31.73
795.688	32.23
795.864	33.28
796.041	32.76
796.218	32.27
796.395	32.02
796.572	31.99
796.749	30.76
796.925	31.04
797.102	32.43
797.279	33.17
797.456	32.24
797.632	32.24
797.809	31.7
797.986	32.2
798.162	31.43
798.339	30.58
798.516	31.62
798.692	32.17
798.869	32.99
799.046	32.75
799.222	32.67
799.399	33.23
799.575	32.83
799.752	32.62
799.928	32.12
800.105	32.4
800.281	32.81
800.458	31.56
800.634	31.39
800.811	30.84
800.987	29.44
801.163	28.94
801.34	29.66
801.516	28.73
801.692	29.17
801.869	29.48
802.045	30.81
802.221	32.02
802.398	32.8
802.574	34.1
802.75	34.64
802.926	34.74
803.103	35.44
803.279	35.17
803.455	35.9
803.631	35.22
803.807	35.39
803.983	35.22
804.16	34.33
804.336	34.41
804.512	33.08
804.688	31.35
804.864	32.45
805.04	32.01
805.216	30.51
805.392	30.8
805.568	32.11
805.744	32.65
805.92	34.21
806.096	34.83
806.272	34.84
806.448	35.45
806.623	37.13
806.799	36.63
806.975	37.38
807.151	37.3
807.327	35.88
807.503	34.96
807.678	34.42
807.854	33.2
808.03	32.2
808.206	32.43
808.381	31.73
808.557	30.47
808.733	29.81
808.908	28.46
809.084	30.47
809.26	31.99
809.435	32.18
809.611	33.03
809.787	32.03
809.962	32.35
810.138	32.64
810.313	33.15
810.489	34.49
810.664	35.21
810.84	35.83
811.015	35.01
811.191	35.96
811.366	36.79
811.542	35.19
811.717	36.22
811.892	37.09
812.068	36.99
812.243	35.2
812.419	35.41
812.594	35.8
812.769	35.51
812.944	36.25
813.12	35.25
813.295	35.28
813.47	36.5
813.645	36.02
813.821	35.05
813.996	35.01
814.171	37.84
814.346	37.54
814.521	37.87
814.697	39.1
814.872	38.71
815.047	38.1
815.222	37.5
815.397	37.41
815.572	37.38
815.747	38.64
815.922	38.03
816.097	37.5
816.272	37.48
816.447	35.56
816.622	34.84
816.797	34.23
816.972	33.67
817.147	33.86
817.322	32.89
817.496	32.18
817.671	30.45
817.846	30.38
818.021	30.48
818.196	30.71
818.371	32.16
818.545	31.93
818.72	31.73
818.895	32.01
819.069	30.74
819.244	31.5
819.419	31.95
819.594	31.93
819.768	32.49
819.943	31.25
820.117	30.61
820.292	29.31
820.467	29.17
820.641	28.85
820.816	28.89
820.99	28.84
821.165	28.52
821.339	28.03
821.514	27.68
821.688	27.2
821.863	26.97
822.037	26.72
822.212	26.75
822.386	26.57
822.56	26.38
822.735	26.07
822.909	26.04
823.084	25.86
823.258	25.74
823.432	25.58
823.606	25.52
823.781	25.58
823.955	25.66
824.129	25.65
824.303	25.83
824.478	26.12
824.652	26.53
824.826	26.79
825	27.22
825.174	27.75
825.348	28.27
825.523	28.48
825.697	28.94
825.871	29.09
826.045	29.41
826.219	29.39
826.393	29.31
826.567	29.22
826.741	28.63
826.915	28.46
827.089	28.63
827.263	28.96
827.437	29.09
827.611	28.7
827.784	28.94
827.958	28.7
828.132	28.27
828.306	28.4
828.48	28.52
828.654	29.12
828.827	29.44
829.001	29.43
829.175	29.38
829.349	29.41
829.522	29.69
829.696	29.13
829.87	29
830.044	29.97
830.217	30.28
830.391	30.52
830.565	30.52
830.738	30.54
830.912	30.22
831.085	30.71
831.259	31.3
831.432	31.78
831.606	32.63
831.779	33.42
831.953	33.93
832.126	32.58
832.3	32.31
832.473	32.19
832.647	30.91
832.82	30.48
832.994	30.82
833.167	30.75
833.34	30.18
833.514	29.63
833.687	29.66
833.86	29.04
834.034	29.43
834.207	28.72
834.38	28.76
834.553	28.91
834.727	29.53
834.9	28.65
835.073	28.68
835.246	28.94
835.419	29.41
835.593	29.3
835.766	30.15
835.939	29.41
836.112	30.33
836.285	30.3
836.458	31.26
836.631	32
836.804	32.83
836.977	33.03
837.15	32.85
837.323	33.63
837.496	34.65
837.669	33.42
837.842	35.83
838.015	35.37
838.188	34.74
838.361	33.5
838.533	32.61
838.706	32.36
838.879	32.23
839.052	32.89
839.225	32.45
839.398	31.43
839.57	31.77
839.743	33.7
839.916	34.69
840.088	35.88
840.261	37.42
840.434	36.1
840.607	36.16
840.779	35.2
840.952	35.95
841.124	35.05
841.297	36.35
841.47	36.62
841.642	34.52
841.815	35.14
841.987	34.91
842.16	33.43
842.332	35.04
842.505	34.71
842.677	35.3
842.85	32.99
843.022	32.85
843.194	32.95
843.367	32.85
843.539	30.91
843.712	30.99
843.884	32.29
844.056	32.87
844.229	33.58
844.401	36.37
844.573	39.2
844.745	42.79
844.918	47.14
845.09	46.89
845.262	49.06
845.434	51.35
845.606	50.52
845.779	51.34
845.951	49.95
846.123	48.79
846.295	47.39
846.467	47
846.639	46.25
846.811	42.99
846.983	42.78
847.155	38.44
847.327	37.46
847.499	39.24
847.671	38.3
847.843	37.91
848.015	40.42
848.187	41.17
848.359	41.09
848.531	43.35
848.703	45.03
848.875	45.35
849.047	47.03
849.218	46.76
849.39	47.15
849.562	47.53
849.734	48.82
849.905	49.21
850.077	48.64
850.249	49.58
850.421	47.89
850.592	48.58
850.764	47.48
850.936	49.05
851.107	49.2
851.279	48.05
851.451	47.17
851.622	47.07
851.794	42.11
851.965	40.73
852.137	35.93
852.308	33.2
852.48	32.34
852.651	30.19
852.823	33.08
852.994	32.55
853.166	33.05
853.337	28.84
853.509	31.15
853.68	34.41
853.851	37.65
854.023	38.51
854.194	39.4
854.365	38.78
854.537	41.81
854.708	38.51
854.879	40.77
855.05	43.05
855.222	46.63
855.393	48.2
855.564	47.92
855.735	45.21
855.906	45.77
856.078	49.96
856.249	47.64
856.42	46.43
856.591	47.26
856.762	47.51
856.933	46.02
857.104	43.42
857.275	43.6
857.446	43
857.617	46.51
857.788	48.26
857.959	46.76
858.13	47.41
858.301	48.72
858.472	46.97
858.643	43.63
858.814	44.29
858.985	46.65
859.155	44.49
859.326	44.59
859.497	41.38
859.668	41.26
859.839	38.44
860.009	39.6
860.18	40.85
860.351	42.5
860.522	45.23
860.692	45.69
860.863	45.52
861.034	45.81
861.204	43.89
861.375	44.87
861.546	47.86
861.716	48.31
861.887	48.06
862.057	48.17
862.228	45.99
862.398	48.09
862.569	45.81
862.739	47.74
862.91	44.31
863.08	47.85
863.251	45.53
863.421	43.96
863.592	45.82
863.762	46.04
863.932	44.75
864.103	48.07
864.273	45.22
864.443	44.02
864.614	43.51
864.784	47.61
864.954	43.91
865.125	44.71
865.295	45.84
865.465	45.53
865.635	45.98
865.805	43.91
865.976	40.52
866.146	41.21
866.316	43.37
866.486	45.09
866.656	44.2
866.826	49.4
866.996	50.06
867.166	50.24
867.336	49.23
867.506	54.52
867.676	56.69
867.846	59.36
868.016	58.93
868.186	61.39
868.356	61.21
868.526	59.93
868.696	57.71
868.866	63.25
869.036	63.18
869.206	65.15
869.376	57.84
869.545	58.32
869.715	57.06
869.885	61.83
870.055	58.53
870.224	57.1
870.394	63.25
870.564	60.02
870.734	57.63
870.903	53.94
871.073	50.36
871.243	56.81
871.412	54.87
871.582	52.69
871.751	47.55
871.921	49.33
872.091	49.18
872.26	42.53
872.43	40.83
872.599	39.28
872.769	40.98
872.938	41.55
873.108	34.43
873.277	33.79
873.446	37.17
873.616	37.23
873.785	33.39
873.955	35.57
874.124	38.07
874.293	42.54
874.463	40.62
874.632	41.15
874.801	42.18
874.971	48.13
875.14	47.07
875.309	46.45
875.478	49.78
875.647	51.62
875.817	51.43
875.986	50.87
876.155	52.12
876.324	57.33
876.493	55.38
876.662	57.3
876.831	54.66
877	56.27
877.17	56.56
877.339	57.86
877.508	58.28
877.677	56.91
877.846	57.85
878.015	54.2
878.184	50.55
878.352	51.66
878.521	45.38
878.69	43.68
878.859	45.4
879.028	44.77
879.197	45.49
879.366	45.12
879.534	43.01
879.703	42.46
879.872	41.8
880.041	40.7
880.21	35.69
880.378	36.54
880.547	37.11
880.716	34.32
880.884	32.4
881.053	29.63
881.222	29.72
881.39	28.69
881.559	28.16
881.727	28.12
881.896	26.48
882.065	27.78
882.233	27.78
882.402	26.4
882.57	26.74
882.739	26.84
882.907	27.44
883.076	26.97
883.244	27.42
883.412	27.58
883.581	27.1
883.749	28.64
883.918	28.41
884.086	28.54
884.254	29.19
884.423	29.78
884.591	31.25
884.759	31.32
884.927	31.29
885.096	31.22
885.264	30.45
885.432	32.36
885.6	32.05
885.769	32.92
885.937	33.03
886.105	33.72
886.273	32.7
886.441	31.18
886.609	31.72
886.777	32.81
886.945	33.26
887.113	36.07
887.281	33.88
887.449	33.49
887.617	36.38
887.785	36.79
887.953	39.88
888.121	43.57
888.289	43.97
888.457	42.31
888.625	47.37
888.793	49.61
888.961	51.58
889.129	54.71
889.296	52.73
889.464	51.22
889.632	52.26
889.8	51.84
889.967	49.27
890.135	49.65
