Data from 2938824__Reflection_03.txt Node
Date: Thu Mar 12 14:01:39 EDT 2015
User: robert
Spectrometer: USB4E03002
Autoset integration time: false
Trigger mode: 4
Integration Time (sec): 1.000000E-1
Scans to average: 10
Electric dark correction enabled: false
Nonlinearity correction enabled: false
Boxcar width: 5
Stray light correction enabled: false
XAxis mode: Wavelengths
Stop averaging: false
Number of Pixels in Spectrum: 3648
>>>>>Begin Spectral Data<<<<<
177.575	92.87
177.794	123.37
178.014	120.15
178.233	120.19
178.452	118.63
178.672	130.25
178.891	106.26
179.11	105.66
179.33	93.12
179.549	155.5
179.768	191.62
179.987	276.05
180.207	254.39
180.426	203.35
180.645	239.75
180.864	319.89
181.084	212.75
181.303	379.81
181.522	344.26
181.741	479.49
181.96	412.71
182.179	229.2
182.398	180.85
182.618	177.98
182.837	183.98
183.056	167.94
183.275	200.25
183.494	164.92
183.713	115.89
183.932	134.01
184.151	127.05
184.37	133.13
184.589	136.26
184.808	169.02
185.027	177.15
185.246	207.99
185.465	182.19
185.684	130.77
185.903	209.3
186.122	366.18
186.341	191.87
186.56	224.03
186.779	441.38
186.998	433.33
187.216	234.71
187.435	140.32
187.654	142.77
187.873	143.27
188.092	185.79
188.311	1678.95
188.53	-1857.14
188.748	-964.52
188.967	-8950
189.186	293.39
189.405	225.29
189.623	549.48
189.842	-386.93
190.061	-608.4
190.28	-821.57
190.498	94200
190.717	648.95
190.936	16000
191.154	1269.35
191.373	749.51
191.592	-1172.92
191.81	487.76
192.029	872
192.248	343.61
192.466	240.3
192.685	214.29
192.904	224.6
193.122	168.65
193.341	145.89
193.559	115.04
193.778	112.11
193.996	101.33
194.215	98.49
194.433	74.83
194.652	74.14
194.87	98.34
195.089	109.93
195.307	105.54
195.526	120.95
195.744	84.24
195.963	215.53
196.181	-5980
196.399	254.88
196.618	246.39
196.836	314.2
197.055	3958.33
197.273	223.01
197.491	154.4
197.71	127.13
197.928	131.74
198.146	264.38
198.365	141.81
198.583	176.86
198.801	201.63
199.019	250.55
199.238	266.67
199.456	190.05
199.674	255.01
199.892	344.17
200.111	216.63
200.329	213.78
200.547	197.97
200.765	199.8
200.983	168.86
201.202	166.61
201.42	144.01
201.638	108.56
201.856	100.82
202.074	77.7
202.292	82.7
202.51	93.94
202.728	96.76
202.946	90.19
203.165	93.33
203.383	71.34
203.601	63.33
203.819	76.19
204.037	108.82
204.255	76.2
204.473	66.96
204.691	81.07
204.909	91.08
205.127	87.3
205.345	99.33
205.562	99.81
205.78	76.08
205.998	103.38
206.216	89.63
206.434	102.41
206.652	95.2
206.87	122.79
207.088	127.75
207.306	147.65
207.523	138.88
207.741	121
207.959	142.29
208.177	159.82
208.395	166.11
208.612	160.31
208.83	167.21
209.048	219.15
209.266	183.1
209.483	160.99
209.701	136.62
209.919	150
210.136	201.51
210.354	165.74
210.572	159.69
210.79	142.11
211.007	142.44
211.225	127.51
211.442	144.97
211.66	142.04
211.878	168.54
212.095	-4.9
212.313	19.65
212.53	-2.62
212.748	11.33
212.966	-1.23
213.183	-41.77
213.401	-47.46
213.618	-67.91
213.836	-55.83
214.053	-36.54
214.271	-8.23
214.488	95.93
214.705	87.95
214.923	78.4
215.14	78.93
215.358	81.36
215.575	82.86
215.793	88.17
216.01	107.43
216.227	103.88
216.445	90.74
216.662	96.75
216.879	75.05
217.097	70.79
217.314	72.81
217.531	45.4
217.749	42.28
217.966	42.37
218.183	41.95
218.4	38.66
218.618	36.35
218.835	30.38
219.052	28.81
219.269	40.03
219.487	48.04
219.704	36.8
219.921	38.71
220.138	51.77
220.355	50.87
220.572	45.62
220.79	37.37
221.007	41.49
221.224	44.92
221.441	45.08
221.658	41.7
221.875	34.72
222.092	40.69
222.309	44.88
222.526	41.61
222.743	36.32
222.96	40.25
223.177	44.22
223.394	40.33
223.611	39.99
223.828	40.74
224.045	40.13
224.262	42.09
224.479	36.43
224.696	35.35
224.913	32.18
225.13	32.93
225.347	28.99
225.564	24.72
225.781	24.29
225.997	17.55
226.214	15.7
226.431	13.45
226.648	11.03
226.865	10.58
227.082	6.13
227.298	4.05
227.515	5.72
227.732	3.86
227.949	3.43
228.165	3.34
228.382	4.41
228.599	3.89
228.816	4.39
229.032	4.4
229.249	4.52
229.466	5.45
229.682	5.98
229.899	5.64
230.116	6.82
230.332	7.26
230.549	6.72
230.765	6.6
230.982	7.04
231.199	6.2
231.415	6.24
231.632	5.74
231.848	6.09
232.065	6.06
232.281	6.53
232.498	6.31
232.714	5.98
232.931	6.51
233.147	6.88
233.364	5.74
233.58	5.13
233.797	5.27
234.013	7.64
234.23	6.83
234.446	6.84
234.662	5.87
234.879	5.58
235.095	6.86
235.312	6.79
235.528	8.61
235.744	9.18
235.961	10.98
236.177	11.39
236.393	9.98
236.61	11.78
236.826	12.58
237.042	14.17
237.258	14.4
237.475	13.85
237.691	14.04
237.907	12.98
238.123	12.81
238.339	12.73
238.556	12.2
238.772	11.39
238.988	10.67
239.204	10.24
239.42	8.38
239.636	8.55
239.853	7.64
240.069	7.51
240.285	6.94
240.501	6.18
240.717	5.97
240.933	6.43
241.149	5.09
241.365	4.48
241.581	4.45
241.797	3.98
242.013	3.08
242.229	3.63
242.445	3.54
242.661	3.53
242.877	3.85
243.093	3.32
243.309	2.84
243.525	3.31
243.741	3.78
243.957	3.77
244.173	3.81
244.388	4.4
244.604	4.6
244.82	4.57
245.036	4.93
245.252	4.52
245.468	4.76
245.683	4.51
245.899	4.25
246.115	3.83
246.331	3.55
246.547	3.97
246.762	3.88
246.978	3.56
247.194	3.39
247.409	2.84
247.625	3.23
247.841	3.47
248.057	3.54
248.272	4.09
248.488	4.15
248.703	4.11
248.919	4.16
249.135	4.45
249.35	4.64
249.566	5.24
249.782	5.72
249.997	5.6
250.213	5.57
250.428	5.88
250.644	5.39
250.859	6.07
251.075	5.85
251.29	5.07
251.506	4.52
251.721	4.23
251.937	3.33
252.152	3.33
252.368	3.27
252.583	2.72
252.798	2.51
253.014	2.76
253.229	2.06
253.445	2.42
253.66	3.17
253.875	4.2
254.091	4.33
254.306	5.48
254.521	5.42
254.737	4.08
254.952	4.4
255.167	3.96
255.383	3.49
255.598	3.39
255.813	3.68
256.028	2.94
256.244	1.76
256.459	1.84
256.674	1.64
256.889	2.48
257.104	3.55
257.32	2.9
257.535	2.69
257.75	2.9
257.965	2.54
258.18	2.22
258.395	2.19
258.61	2.15
258.826	1.98
259.041	1.54
259.256	1.53
259.471	1.31
259.686	1.38
259.901	1.45
260.116	1.26
260.331	1.25
260.546	1.31
260.761	1.26
260.976	1.31
261.191	1.04
261.406	1.45
261.621	1.26
261.836	1.57
262.05	1.48
262.265	1.36
262.48	1.23
262.695	1.63
262.91	2.12
263.125	2.48
263.34	2.12
263.555	3.25
263.769	3.4
263.984	3.44
264.199	3.44
264.414	3.97
264.629	4.44
264.843	4.33
265.058	4.48
265.273	3.49
265.488	3.37
265.702	3.55
265.917	3.28
266.132	3.07
266.346	3.25
266.561	3.46
266.776	3.38
266.99	3.39
267.205	3.81
267.42	3.36
267.634	3.54
267.849	3.22
268.063	3.45
268.278	2.95
268.492	3.02
268.707	2.98
268.922	2.58
269.136	2.24
269.351	2.31
269.565	2.05
269.78	2.17
269.994	1.83
270.209	1.93
270.423	1.58
270.637	1.6
270.852	1.76
271.066	2.04
271.281	2.13
271.495	2.38
271.709	2.46
271.924	2.35
272.138	2.39
272.353	2.71
272.567	2.72
272.781	3.23
272.996	3.61
273.21	3.48
273.424	3.11
273.638	2.96
273.853	2.95
274.067	2.58
274.281	2.69
274.495	2.7
274.71	2.69
274.924	2.98
275.138	2.53
275.352	2.38
275.566	2.7
275.781	3.01
275.995	3.09
276.209	3.1
276.423	2.77
276.637	2.79
276.851	3.12
277.065	3.31
277.279	3.38
277.493	3.65
277.707	3.83
277.921	3.16
278.135	2.67
278.349	2.57
278.563	2.43
278.777	2.86
278.991	2.67
279.205	2.42
279.419	2.38
279.633	2.29
279.847	2.13
280.061	1.93
280.275	2.27
280.489	2.4
280.703	2.34
280.917	2.6
281.131	2.81
281.344	3.09
281.558	3.07
281.772	3
281.986	2.98
282.2	2.77
282.414	2.47
282.627	2.45
282.841	2.46
283.055	2.35
283.269	2.19
283.482	1.9
283.696	1.93
283.91	1.95
284.123	2.06
284.337	1.82
284.551	1.82
284.764	1.97
284.978	1.88
285.192	1.65
285.405	1.74
285.619	1.67
285.833	1.61
286.046	1.57
286.26	1.5
286.473	1.51
286.687	2.01
286.9	2.07
287.114	2.17
287.327	2.27
287.541	2.79
287.754	2.89
287.968	2.97
288.181	2.62
288.395	2.66
288.608	2.54
288.822	2.48
289.035	2.32
289.248	2.4
289.462	2.25
289.675	2.16
289.889	1.89
290.102	1.57
290.315	1.77
290.529	2.33
290.742	2.08
290.955	2.07
291.169	1.66
291.382	1.41
291.595	1.63
291.808	1.96
292.022	1.8
292.235	2.03
292.448	2.24
292.661	2.14
292.875	2.11
293.088	2.16
293.301	2.48
293.514	2.52
293.727	2.4
293.94	2.15
294.153	1.66
294.367	1.66
294.58	1.25
294.793	1.5
295.006	1.52
295.219	1.21
295.432	1.28
295.645	1.3
295.858	1.36
296.071	1.38
296.284	1.43
296.497	1.76
296.71	1.86
296.923	2.04
297.136	2.07
297.349	2.11
297.562	2.36
297.775	2.31
297.988	2.22
298.201	2.33
298.414	2.4
298.626	2.42
298.839	2.29
299.052	2.58
299.265	2.44
299.478	2.28
299.691	2.2
299.903	2.28
300.116	2.55
300.329	2.64
300.542	2.34
300.755	2.41
300.967	2.38
301.18	2.7
301.393	2.41
301.605	2.77
301.818	2.59
302.031	2.5
302.243	2.45
302.456	2.39
302.669	2.56
302.881	2.82
303.094	2.91
303.307	2.9
303.519	2.91
303.732	3.15
303.944	2.95
304.157	3.5
304.37	3.53
304.582	3.64
304.795	3.57
305.007	3.7
305.22	4.08
305.432	4.35
305.645	4.18
305.857	4.38
306.069	4.28
306.282	4.75
306.494	4.49
306.707	4.6
306.919	4.38
307.132	4.5
307.344	4.27
307.556	4.17
307.769	3.88
307.981	3.91
308.193	3.63
308.406	3.73
308.618	3.66
308.83	3.66
309.043	3.65
309.255	3.72
309.467	3.63
309.679	3.74
309.892	3.57
310.104	3.86
310.316	4.03
310.528	3.88
310.74	3.69
310.953	3.78
311.165	3.72
311.377	3.65
311.589	3.75
311.801	3.77
312.013	3.57
312.225	3.94
312.437	3.64
312.649	3.69
312.862	3.97
313.074	4.35
313.286	4.42
313.498	4.7
313.71	4.93
313.922	4.96
314.134	5.08
314.346	5.3
314.558	4.99
314.77	5.33
314.982	5.42
315.193	5.47
315.405	5.33
315.617	5.23
315.829	5.33
316.041	5.5
316.253	5.72
316.465	6.18
316.677	6.16
316.888	6.43
317.1	6.49
317.312	6.14
317.524	6.43
317.736	6.51
317.947	6.61
318.159	6.21
318.371	6.35
318.583	6.44
318.794	5.97
319.006	6.27
319.218	6.27
319.43	6.49
319.641	6.81
319.853	6.75
320.064	6.9
320.276	6.84
320.488	7.41
320.699	7.5
320.911	7.04
321.123	7.34
321.334	7.1
321.546	6.75
321.757	6.68
321.969	7.08
322.18	6.69
322.392	6.4
322.603	6.3
322.815	6.37
323.026	6
323.238	5.98
323.449	6.15
323.661	5.92
323.872	6.51
324.083	6.03
324.295	5.41
324.506	5.51
324.718	5.74
324.929	5.86
325.14	6.03
325.352	6.39
325.563	6.93
325.774	6.97
325.986	7.12
326.197	7.07
326.408	7.31
326.62	8
326.831	8.54
327.042	8.77
327.253	8.96
327.464	8.68
327.676	8.46
327.887	8.73
328.098	9.24
328.309	9.59
328.52	9.92
328.732	10.42
328.943	10.77
329.154	10.76
329.365	10.7
329.576	10.83
329.787	11.51
329.998	12.31
330.209	12.15
330.42	11.83
330.631	12.09
330.842	11.95
331.053	11.98
331.264	12.15
331.475	12.59
331.686	13.34
331.897	13.49
332.108	13.22
332.319	13.33
332.53	13.54
332.741	13.9
332.952	13.99
333.163	14.33
333.374	14.59
333.585	14.33
333.795	14.5
334.006	14.53
334.217	15.12
334.428	15.4
334.639	15.55
334.849	15.79
335.06	15.98
335.271	16.45
335.482	16.66
335.692	16.53
335.903	16.52
336.114	16.26
336.325	16.17
336.535	16.08
336.746	16.22
336.957	16.13
337.167	16.08
337.378	15.73
337.589	15.78
337.799	15.62
338.01	16.01
338.22	16.2
338.431	16.39
338.642	16.45
338.852	16.04
339.063	16.24
339.273	16.06
339.484	16.31
339.694	16.77
339.905	16.49
340.115	16.52
340.326	16.17
340.536	16.67
340.746	16.58
340.957	16.48
341.167	16.89
341.378	17.01
341.588	17.24
341.799	17.23
342.009	17.13
342.219	17.25
342.43	17.38
342.64	17.56
342.85	17.25
343.061	17.26
343.271	17.2
343.481	17.29
343.691	17.02
343.902	16.75
344.112	16.83
344.322	16.63
344.532	16.34
344.743	16.19
344.953	16.2
345.163	16.19
345.373	16.21
345.583	16.46
345.793	16.15
346.004	16.1
346.214	16.4
346.424	16.17
346.634	15.91
346.844	15.93
347.054	15.81
347.264	15.92
347.474	15.95
347.684	15.98
347.894	15.74
348.104	16
348.314	16.09
348.524	16.12
348.734	16.14
348.944	16.42
349.154	16.66
349.364	16.78
349.574	16.29
349.784	15.97
349.994	15.99
350.204	16.02
350.413	15.82
350.623	15.78
350.833	15.78
351.043	15.76
351.253	15.83
351.463	15.87
351.672	16.02
351.882	16.45
352.092	16.73
352.302	16.67
352.511	16.92
352.721	17.02
352.931	17.16
353.141	17.14
353.35	17.22
353.56	17.21
353.77	16.97
353.979	16.8
354.189	16.62
354.399	16.38
354.608	16.41
354.818	16.37
355.027	16.2
355.237	16.09
355.447	15.81
355.656	15.78
355.866	15.73
356.075	15.81
356.285	16.07
356.494	16.1
356.704	16.36
356.913	16.41
357.123	16.24
357.332	16.47
357.542	16.59
357.751	16.94
357.96	16.92
358.17	16.94
358.379	16.9
358.589	16.68
358.798	16.83
359.007	16.7
359.217	16.66
359.426	16.53
359.635	16.52
359.845	16.38
360.054	16.06
360.263	15.91
360.472	15.79
360.682	15.71
360.891	15.68
361.1	15.52
361.309	15.51
361.519	15.49
361.728	15.64
361.937	15.63
362.146	15.6
362.355	15.67
362.564	15.88
362.774	15.99
362.983	16.03
363.192	15.9
363.401	15.82
363.61	15.94
363.819	15.84
364.028	15.7
364.237	15.45
364.446	15.41
364.655	15.4
364.864	15.27
365.073	15.37
365.282	15.53
365.491	15.78
365.7	15.99
365.909	15.81
366.118	15.75
366.327	15.95
366.536	16.27
366.745	16.29
366.954	16.26
367.162	15.93
367.371	15.62
367.58	15.6
367.789	15.68
367.998	15.72
368.207	15.81
368.415	15.8
368.624	15.75
368.833	15.51
369.042	15.57
369.25	15.46
369.459	15.7
369.668	15.82
369.877	15.74
370.085	15.48
370.294	15.27
370.503	15.31
370.711	15.42
370.92	15.45
371.129	15.43
371.337	15.44
371.546	15.43
371.754	15.4
371.963	15.42
372.171	15.44
372.38	15.54
372.589	15.67
372.797	15.68
373.006	15.52
373.214	15.36
373.423	15.36
373.631	15.24
373.84	15.47
374.048	15.52
374.256	15.29
374.465	15.33
374.673	15.41
374.882	15.35
375.09	15.15
375.298	15.04
375.507	15.14
375.715	15
375.923	14.99
376.132	14.66
376.34	14.58
376.548	14.77
376.757	14.65
376.965	14.61
377.173	14.49
377.381	14.53
377.59	14.7
377.798	14.49
378.006	14.57
378.214	14.53
378.423	14.87
378.631	14.91
378.839	14.73
379.047	14.83
379.255	14.78
379.463	15
379.671	15.06
379.879	15.1
380.088	14.98
380.296	14.91
380.504	14.84
380.712	14.67
380.92	14.72
381.128	14.85
381.336	14.82
381.544	14.77
381.752	14.68
381.96	14.67
382.168	14.6
382.376	14.68
382.584	14.79
382.791	14.99
382.999	14.97
383.207	15
383.415	14.96
383.623	14.95
383.831	15.14
384.039	15.04
384.247	15.24
384.454	15.38
384.662	15.41
384.87	15.45
385.078	15.27
385.285	15.31
385.493	15.24
385.701	15.22
385.909	15.16
386.116	15
386.324	15.21
386.532	14.96
386.739	14.77
386.947	14.84
387.155	14.91
387.362	14.87
387.57	14.72
387.778	14.66
387.985	14.77
388.193	14.71
388.4	14.61
388.608	14.63
388.816	14.85
389.023	14.91
389.231	14.98
389.438	14.75
389.646	15.06
389.853	15.38
390.061	15.41
390.268	15.3
390.475	15.43
390.683	15.56
390.89	15.17
391.098	15.05
391.305	15.19
391.512	15.07
391.72	15.16
391.927	14.98
392.135	14.72
392.342	14.71
392.549	14.99
392.756	14.89
392.964	15.01
393.171	15.2
393.378	15.23
393.586	15.24
393.793	15.25
394	15.26
394.207	15.24
394.414	15.27
394.622	15.3
394.829	15.2
395.036	15.32
395.243	14.93
395.45	14.88
395.657	14.72
395.864	14.57
396.072	14.66
396.279	14.77
396.486	14.86
396.693	14.9
396.9	14.94
397.107	14.93
397.314	14.95
397.521	15.11
397.728	15.13
397.935	15.18
398.142	15.28
398.349	15.17
398.556	15.07
398.763	15.08
398.97	15.01
399.177	14.97
399.383	14.91
399.59	14.95
399.797	14.89
400.004	14.85
400.211	14.9
400.418	14.81
400.625	14.86
400.831	14.92
401.038	14.9
401.245	14.98
401.452	15.03
401.658	14.84
401.865	14.59
402.072	14.66
402.279	14.82
402.485	14.99
402.692	15.07
402.899	15.12
403.105	15.17
403.312	15.32
403.519	15.38
403.725	15.49
403.932	15.84
404.138	15.93
404.345	15.99
404.552	16.02
404.758	15.91
404.965	15.83
405.171	15.75
405.378	15.59
405.584	15.39
405.791	15.31
405.997	15.28
406.204	15.26
406.41	15.26
406.617	15.16
406.823	15.01
407.029	14.97
407.236	14.96
407.442	15.01
407.649	15.23
407.855	15.23
408.061	15.15
408.268	15.04
408.474	14.84
408.68	14.96
408.887	15.13
409.093	15.24
409.299	15.26
409.505	15.28
409.712	15.28
409.918	15.17
410.124	15.34
410.33	15.33
410.537	15.32
410.743	15.5
410.949	15.35
411.155	15.32
411.361	15.22
411.567	15.19
411.773	15.13
411.98	15.17
412.186	15
412.392	14.92
412.598	15.03
412.804	14.92
413.01	14.76
413.216	14.85
413.422	14.86
413.628	15.01
413.834	15.14
414.04	15.06
414.246	15.07
414.452	15.26
414.658	15.24
414.864	15.2
415.07	15.35
415.275	15.48
415.481	15.45
415.687	15.36
415.893	15.43
416.099	15.28
416.305	15.38
416.511	15.46
416.716	15.47
416.922	15.4
417.128	15.53
417.334	15.62
417.539	15.63
417.745	15.66
417.951	15.77
418.157	15.67
418.362	15.8
418.568	15.85
418.774	15.85
418.979	15.83
419.185	15.92
419.391	15.99
419.596	15.95
419.802	15.94
420.008	15.99
420.213	16.66
420.419	16.64
420.624	16.57
420.83	16.59
421.035	16.55
421.241	16.62
421.446	16.6
421.652	16.49
421.857	16.48
422.063	16.47
422.268	16.42
422.474	15.84
422.679	15.93
422.885	15.92
423.09	15.89
423.295	16.02
423.501	15.93
423.706	15.89
423.911	15.97
424.117	16.04
424.322	16.03
424.527	16.11
424.733	15.99
424.938	15.96
425.143	16.06
425.349	16.1
425.554	15.98
425.759	16.09
425.964	16.08
426.169	16.1
426.375	15.98
426.58	15.94
426.785	15.82
426.99	15.8
427.195	15.77
427.4	15.62
427.605	15.72
427.811	15.6
428.016	15.52
428.221	15.61
428.426	15.55
428.631	15.58
428.836	15.68
429.041	15.79
429.246	15.87
429.451	15.92
429.656	15.99
429.861	15.96
430.066	16.1
430.271	16.11
430.476	16.15
430.681	15.98
430.886	16.07
431.09	16.03
431.295	16.01
431.5	16.12
431.705	16.1
431.91	16.22
432.115	16.11
432.32	16.14
432.524	16.15
432.729	16.09
432.934	16.27
433.139	16.34
433.343	16.51
433.548	16.68
433.753	16.71
433.958	16.77
434.162	16.87
434.367	16.99
434.572	17.14
434.776	17.34
434.981	17.52
435.186	17.69
435.39	17.77
435.595	17.73
435.799	17.65
436.004	17.64
436.209	17.64
436.413	17.47
436.618	17.48
436.822	17.39
437.027	17.18
437.231	17.17
437.436	17.06
437.64	16.98
437.845	16.85
438.049	16.77
438.253	16.76
438.458	16.8
438.662	16.84
438.867	16.81
439.071	16.87
439.275	16.83
439.48	16.74
439.684	16.77
439.888	16.75
440.093	16.85
440.297	16.79
440.501	16.77
440.706	16.73
440.91	16.65
441.114	16.54
441.318	16.48
441.523	16.54
441.727	16.59
441.931	16.45
442.135	16.49
442.339	16.4
442.543	16.43
442.748	16.47
442.952	16.52
443.156	16.48
443.36	16.53
443.564	16.53
443.768	16.59
443.972	16.54
444.176	16.59
444.38	16.63
444.584	16.61
444.788	16.71
444.992	16.73
445.196	16.74
445.4	16.83
445.604	16.83
445.808	16.86
446.012	16.83
446.216	16.91
446.42	16.95
446.624	16.82
446.828	16.85
447.032	16.87
447.235	16.8
447.439	16.78
447.643	16.85
447.847	16.95
448.051	16.95
448.254	17.02
448.458	16.94
448.662	16.86
448.866	16.91
449.069	16.8
449.273	16.68
449.477	16.66
449.681	16.67
449.884	16.65
450.088	16.65
450.292	16.62
450.495	16.55
450.699	16.55
450.902	16.64
451.106	16.68
451.31	16.95
451.513	17.03
451.717	17.15
451.92	16.97
452.124	16.84
452.327	16.77
452.531	16.83
452.734	16.85
452.938	16.74
453.141	16.65
453.345	16.58
453.548	16.37
453.752	16.39
453.955	16.36
454.158	16.54
454.362	16.58
454.565	16.6
454.769	16.54
454.972	16.56
455.175	16.79
455.379	16.89
455.582	17
455.785	17.05
455.988	16.97
456.192	16.99
456.395	16.86
456.598	16.86
456.801	16.78
457.005	16.7
457.208	16.72
457.411	16.66
457.614	16.67
457.817	16.54
458.021	16.64
458.224	16.71
458.427	16.63
458.63	16.73
458.833	16.69
459.036	16.84
459.239	16.81
459.442	16.77
459.645	16.75
459.848	16.72
460.051	16.71
460.254	16.68
460.457	16.64
460.66	16.66
460.863	16.58
461.066	16.63
461.269	16.63
461.472	16.61
461.675	16.53
461.878	16.55
462.081	16.58
462.284	16.63
462.486	16.54
462.689	16.56
462.892	16.46
463.095	16.51
463.298	16.45
463.5	16.3
463.703	16.44
463.906	16.51
464.109	16.52
464.311	16.42
464.514	16.43
464.717	16.44
464.92	16.51
465.122	16.7
465.325	16.67
465.528	16.77
465.73	16.85
465.933	16.88
466.135	16.82
466.338	16.84
466.541	16.88
466.743	16.9
466.946	16.96
467.148	17.02
467.351	17
467.553	17.02
467.756	16.91
467.958	16.89
468.161	16.84
468.363	16.88
468.566	16.94
468.768	16.87
468.971	16.91
469.173	16.95
469.375	16.77
469.578	16.82
469.78	16.83
469.983	16.9
470.185	16.9
470.387	16.86
470.59	16.86
470.792	16.9
470.994	17.15
471.196	17.07
471.399	17.11
471.601	17.12
471.803	17.07
472.005	17.09
472.208	17.07
472.41	17.09
472.612	17.09
472.814	17.11
473.016	17.04
473.218	16.89
473.421	16.96
473.623	16.88
473.825	16.91
474.027	16.86
474.229	16.92
474.431	16.96
474.633	17.04
474.835	17.11
475.037	17.17
475.239	17.18
475.441	17.33
475.643	17.23
475.845	17.25
476.047	17.26
476.249	17.37
476.451	17.27
476.653	17.28
476.855	17.19
477.057	17.2
477.258	17.13
477.46	17.13
477.662	16.95
477.864	17.12
478.066	17.17
478.268	17.18
478.469	17.2
478.671	17.25
478.873	17.19
479.075	17.21
479.276	17.24
479.478	17.24
479.68	17.22
479.882	17.36
480.083	17.31
480.285	17.34
480.487	17.38
480.688	17.41
480.89	17.44
481.091	17.52
481.293	17.49
481.495	17.47
481.696	17.47
481.898	17.44
482.099	17.41
482.301	17.48
482.502	17.48
482.704	17.53
482.905	17.53
483.107	17.53
483.308	17.52
483.51	17.56
483.711	17.58
483.913	17.61
484.114	17.61
484.315	17.63
484.517	17.61
484.718	17.62
484.92	17.58
485.121	17.56
485.322	17.57
485.524	17.57
485.725	17.58
485.926	17.59
486.127	17.59
486.329	17.64
486.53	17.64
486.731	17.66
486.932	17.66
487.134	17.69
487.335	17.71
487.536	17.73
487.737	17.72
487.938	17.71
488.139	17.7
488.341	17.72
488.542	17.71
488.743	17.76
488.944	17.78
489.145	17.8
489.346	17.84
489.547	17.85
489.748	17.81
489.949	17.85
490.15	17.87
490.351	17.93
490.552	17.96
490.753	17.97
490.954	17.95
491.155	17.87
491.356	17.86
491.557	17.83
491.758	17.82
491.959	17.88
492.159	17.83
492.36	17.82
492.561	17.76
492.762	17.68
492.963	17.7
493.164	17.71
493.364	17.72
493.565	17.7
493.766	17.71
493.967	17.73
494.167	17.73
494.368	17.86
494.569	17.85
494.769	17.87
494.97	17.94
495.171	17.91
495.371	17.89
495.572	17.93
495.773	17.95
495.973	17.9
496.174	17.93
496.375	17.88
496.575	17.83
496.776	17.95
496.976	18.05
497.177	18.07
497.377	17.99
497.578	18.05
497.778	18.02
497.979	18.03
498.179	18.07
498.38	18.05
498.58	18.12
498.78	18.16
498.981	17.98
499.181	17.83
499.382	17.72
499.582	17.75
499.782	17.66
499.983	17.72
500.183	17.75
500.383	17.68
500.584	17.66
500.784	17.63
500.984	17.64
501.184	17.77
501.385	17.84
501.585	17.98
501.785	17.99
501.985	18.12
502.185	18.07
502.386	17.97
502.586	18.12
502.786	18.12
502.986	18.08
503.186	18.05
503.386	18.01
503.586	18.09
503.786	18.04
503.987	17.99
504.187	18
504.387	18.08
504.587	18.2
504.787	18.17
504.987	18.22
505.187	18.19
505.387	18.2
505.587	18.24
505.786	18.24
505.986	18.27
506.186	18.4
506.386	18.38
506.586	18.38
506.786	18.41
506.986	18.41
507.186	18.38
507.386	18.54
507.585	18.53
507.785	18.57
507.985	18.59
508.185	18.63
508.384	18.66
508.584	18.61
508.784	18.64
508.984	18.58
509.183	18.59
509.383	18.59
509.583	18.58
509.782	18.58
509.982	18.64
510.182	18.66
510.381	18.64
510.581	18.64
510.781	18.67
510.98	18.72
511.18	18.84
511.379	18.86
511.579	18.89
511.778	18.96
511.978	18.9
512.177	18.87
512.377	18.74
512.576	18.76
512.776	18.77
512.975	18.81
513.175	18.79
513.374	18.7
513.573	18.75
513.773	18.73
513.972	18.68
514.172	18.89
514.371	18.86
514.57	19.03
514.77	19.07
514.969	19.08
515.168	19.11
515.367	19.13
515.567	19.16
515.766	19.14
515.965	19.29
516.164	19.35
516.364	19.33
516.563	19.27
516.762	19.31
516.961	19.33
517.16	19.4
517.359	19.48
517.559	19.57
517.758	19.59
517.957	19.64
518.156	19.59
518.355	19.64
518.554	19.68
518.753	19.81
518.952	19.8
519.151	19.8
519.35	19.8
519.549	19.74
519.748	19.69
519.947	19.69
520.146	19.65
520.345	19.73
520.544	19.66
520.743	19.56
520.942	19.61
521.141	19.64
521.339	19.67
521.538	19.75
521.737	19.74
521.936	19.79
522.135	19.8
522.333	19.85
522.532	19.8
522.731	19.82
522.93	19.94
523.129	19.9
523.327	19.89
523.526	19.9
523.725	19.83
523.923	19.94
524.122	20
524.321	20.08
524.519	20.04
524.718	20.16
524.917	20.29
525.115	20.32
525.314	20.3
525.512	20.32
525.711	20.35
525.909	20.38
526.108	20.44
526.306	20.37
526.505	20.4
526.703	20.46
526.902	20.45
527.1	20.4
527.299	20.37
527.497	20.45
527.696	20.47
527.894	20.49
528.092	20.51
528.291	20.48
528.489	20.52
528.688	20.52
528.886	20.52
529.084	20.53
529.283	20.53
529.481	20.53
529.679	20.51
529.877	20.54
530.076	20.52
530.274	20.53
530.472	20.51
530.67	20.51
530.869	20.52
531.067	20.52
531.265	20.49
531.463	20.59
531.661	20.65
531.859	20.64
532.057	20.63
532.255	20.69
532.454	20.77
532.652	20.86
532.85	20.87
533.048	20.93
533.246	20.95
533.444	21
533.642	21
533.84	21.04
534.038	21.11
534.236	21.13
534.434	21.19
534.632	21.24
534.83	21.29
535.027	21.38
535.225	21.39
535.423	21.5
535.621	21.53
535.819	21.58
536.017	21.54
536.215	21.58
536.412	21.6
536.61	21.61
536.808	21.6
537.006	21.54
537.203	21.5
537.401	21.53
537.599	21.58
537.797	21.59
537.994	21.69
538.192	21.94
538.39	22.05
538.587	22.19
538.785	22.36
538.983	22.54
539.18	22.75
539.378	22.95
539.575	23.12
539.773	23.28
539.97	23.44
540.168	23.51
540.366	23.55
540.563	23.66
540.761	23.75
540.958	23.75
541.155	23.81
541.353	23.78
541.55	23.85
541.748	23.92
541.945	23.9
542.143	23.93
542.34	23.92
542.537	23.95
542.735	23.98
542.932	24.06
543.129	24.17
543.327	24.36
543.524	24.67
543.721	24.92
543.919	25.23
544.116	25.63
544.313	26.01
544.51	26.54
544.708	26.97
544.905	27.39
545.102	27.72
545.299	28.07
545.496	28.23
545.693	28.36
545.891	28.37
546.088	28.25
546.285	28.05
546.482	27.88
546.679	27.58
546.876	27.35
547.073	27.03
547.27	26.81
547.467	26.57
547.664	26.31
547.861	25.99
548.058	25.78
548.255	25.57
548.452	25.43
548.649	25.34
548.846	25.2
549.043	25.09
549.24	25.06
549.437	24.95
549.633	24.7
549.83	24.62
550.027	24.53
550.224	24.4
550.421	24.43
550.618	24.36
550.814	24.19
551.011	24.1
551.208	23.85
551.405	23.68
551.601	23.54
551.798	23.55
551.995	23.45
552.191	23.41
552.388	23.2
552.585	23.09
552.781	22.92
552.978	22.88
553.175	22.84
553.371	22.8
553.568	22.76
553.764	22.73
553.961	22.71
554.157	22.61
554.354	22.65
554.55	22.83
554.747	22.75
554.943	22.7
555.14	22.68
555.336	22.74
555.533	22.74
555.729	22.72
555.926	22.78
556.122	22.62
556.318	22.68
556.515	22.61
556.711	22.57
556.907	22.5
557.104	22.7
557.3	22.66
557.496	22.56
557.693	22.56
557.889	22.45
558.085	22.43
558.281	22.46
558.478	22.45
558.674	22.53
558.87	22.53
559.066	22.62
559.262	22.57
559.459	22.6
559.655	22.49
559.851	22.56
560.047	22.66
560.243	22.63
560.439	22.7
560.635	22.83
560.831	22.77
561.027	22.76
561.223	22.83
561.419	22.73
561.615	22.83
561.811	22.95
562.007	22.93
562.203	23.01
562.399	22.92
562.595	22.99
562.791	22.87
562.987	22.87
563.183	22.81
563.379	22.72
563.575	22.81
563.771	22.79
563.966	22.87
564.162	22.94
564.358	22.93
564.554	22.93
564.75	22.86
564.945	22.86
565.141	22.91
565.337	23.03
565.533	23.17
565.728	23.19
565.924	23.09
566.12	23.09
566.315	23.1
566.511	23.09
566.707	23.17
566.902	23.11
567.098	23.03
567.293	23
567.489	22.92
567.684	22.78
567.88	22.79
568.076	22.86
568.271	22.81
568.467	22.73
568.662	22.64
568.858	22.54
569.053	22.64
569.248	22.75
569.444	22.69
569.639	22.62
569.835	22.67
570.03	22.61
570.225	22.57
570.421	22.58
570.616	22.67
570.812	22.71
571.007	22.82
571.202	22.8
571.397	22.86
571.593	22.85
571.788	22.84
571.983	22.73
572.178	22.78
572.374	22.8
572.569	22.83
572.764	22.78
572.959	22.84
573.154	22.88
573.35	22.83
573.545	22.72
573.74	22.77
573.935	22.96
574.13	23.02
574.325	23.06
574.52	23.21
574.715	23.25
574.91	23.34
575.105	23.34
575.3	23.37
575.495	23.55
575.69	23.77
575.885	23.96
576.08	24.02
576.275	24.24
576.47	24.44
576.665	24.48
576.86	24.58
577.055	24.6
577.25	24.83
577.444	25.06
577.639	25.24
577.834	25.25
578.029	25.33
578.224	25.35
578.418	25.46
578.613	25.39
578.808	25.33
579.003	25.49
579.197	25.64
579.392	25.43
579.587	25.39
579.781	25.26
579.976	25.19
580.171	25.22
580.365	25.26
580.56	25.24
580.755	25.07
580.949	25.23
581.144	25.26
581.338	25.22
581.533	25.35
581.727	25.28
581.922	25.24
582.116	25.46
582.311	25.49
582.505	25.55
582.7	25.45
582.894	25.69
583.089	25.58
583.283	25.56
583.478	25.58
583.672	25.64
583.866	25.71
584.061	25.85
584.255	25.71
584.449	25.72
584.644	25.6
584.838	25.74
585.032	25.75
585.226	25.91
585.421	26.02
585.615	26.12
585.809	26.22
586.003	26.39
586.198	26.52
586.392	26.63
586.586	26.65
586.78	26.72
586.974	26.78
587.168	26.78
587.363	26.73
587.557	26.66
587.751	26.65
587.945	26.56
588.139	26.43
588.333	26.36
588.527	26.28
588.721	26.14
588.915	26.1
589.109	25.98
589.303	26.07
589.497	25.92
589.691	25.73
589.885	25.63
590.079	25.67
590.273	25.66
590.466	25.76
590.66	25.95
590.854	26.04
591.048	26.14
591.242	26.34
591.436	26.27
591.629	26.48
591.823	26.71
592.017	26.84
592.211	26.81
592.404	26.95
592.598	26.88
592.792	26.8
592.986	26.79
593.179	26.73
593.373	26.5
593.567	26.62
593.76	26.53
593.954	26.38
594.147	26.22
594.341	26.09
594.535	25.91
594.728	25.78
594.922	25.69
595.115	25.71
595.309	25.76
595.502	25.81
595.696	25.62
595.889	25.54
596.083	25.53
596.276	25.59
596.47	25.64
596.663	25.65
596.856	25.69
597.05	25.73
597.243	25.85
597.437	25.91
597.63	26
597.823	26.07
598.017	26.18
598.21	26.32
598.403	26.42
598.596	26.55
598.79	26.67
598.983	26.77
599.176	26.78
599.369	26.69
599.563	26.7
599.756	26.74
599.949	27.05
600.142	27.08
600.335	27.03
600.528	27.03
600.722	27.18
600.915	27.07
601.108	26.96
601.301	27
601.494	27.12
601.687	27
601.88	26.76
602.073	26.49
602.266	26.42
602.459	26.33
602.652	26.22
602.845	25.99
603.038	26.22
603.231	26.22
603.424	26.05
603.617	25.96
603.809	25.97
604.002	26.11
604.195	26.14
604.388	26.23
604.581	26.22
604.774	26.31
604.966	26.45
605.159	26.38
605.352	26.38
605.545	26.49
605.737	26.44
605.93	26.54
606.123	26.76
606.316	26.9
606.508	27.02
606.701	27.23
606.894	27.59
607.086	27.74
607.279	27.85
607.471	28.14
607.664	28.69
607.857	29.11
608.049	29.69
608.242	29.94
608.434	30.73
608.627	31.68
608.819	32.9
609.012	34.03
609.204	35.39
609.397	36.92
609.589	38.64
609.782	40.31
609.974	42.25
610.166	44
610.359	45.91
610.551	47.47
610.743	48.74
610.936	49.63
611.128	50.5
611.32	51.02
611.513	51.35
611.705	51.14
611.897	50.73
612.09	50.09
612.282	49.17
612.474	48.33
612.666	47.3
612.858	46.41
613.051	45.5
613.243	44.41
613.435	43.36
613.627	42.35
613.819	41.78
614.011	41.29
614.203	40.49
614.395	39.77
614.588	38.98
614.78	38.39
614.972	37.72
615.164	36.88
615.356	36.14
615.548	35.49
615.74	34.95
615.932	34.12
616.124	33.27
616.315	32.87
616.507	32.47
616.699	32.04
616.891	31.84
617.083	31.38
617.275	31.24
617.467	30.93
617.659	31
617.85	30.77
618.042	30.84
618.234	30.81
618.426	30.44
618.618	30.25
618.809	30.11
619.001	29.66
619.193	29.52
619.384	29.43
619.576	29.8
619.768	29.71
619.959	29.86
620.151	29.77
620.343	29.7
620.534	29.73
620.726	29.93
620.917	29.73
621.109	29.87
621.301	29.91
621.492	29.94
621.684	29.61
621.875	29.83
622.067	29.81
622.258	29.81
622.45	29.93
622.641	30.1
622.832	30.15
623.024	30.51
623.215	30.53
623.407	30.63
623.598	30.82
623.789	31.1
623.981	30.9
624.172	30.94
624.363	30.87
624.555	30.84
624.746	30.69
624.937	30.51
625.129	30.48
625.32	30.5
625.511	30.53
625.702	30.49
625.893	30.25
626.085	30.16
626.276	29.83
626.467	29.93
626.658	29.84
626.849	29.85
627.04	30.03
627.231	29.97
627.422	29.94
627.614	29.97
627.805	29.96
627.996	29.97
628.187	30.11
628.378	30.42
628.569	30.53
628.76	30.72
628.951	31.03
629.142	31.02
629.332	31.33
629.523	31.59
629.714	31.72
629.905	32.08
630.096	32.45
630.287	32.69
630.478	32.77
630.669	32.57
630.859	32.7
631.05	32.51
631.241	32.46
631.432	32.39
631.623	32.06
631.813	31.73
632.004	31.21
632.195	31.07
632.385	30.67
632.576	30.65
632.767	30.58
632.957	30.29
633.148	30.04
633.339	29.69
633.529	29.29
633.72	29.18
633.91	29.08
634.101	28.95
634.292	28.6
634.482	28.63
634.673	28.32
634.863	28.33
635.054	28.24
635.244	28.23
635.435	28.41
635.625	28.41
635.815	28.38
636.006	28.17
636.196	28.4
636.387	28.51
636.577	28.47
636.767	28.46
636.958	28.29
637.148	28.17
637.338	28.23
637.529	28.16
637.719	28.23
637.909	28.27
638.099	28.48
638.29	28.26
638.48	28.2
638.67	28.15
638.86	28.26
639.05	28.37
639.241	28.41
639.431	28.26
639.621	28.09
639.811	27.95
640.001	27.86
640.191	27.98
640.381	28.12
640.571	28.15
640.761	28.19
640.951	28.2
641.141	28.26
641.331	28.25
641.521	28.27
641.711	28.45
641.901	28.43
642.091	28.63
642.281	28.68
642.471	28.82
642.661	28.72
642.851	28.84
643.041	28.86
643.231	28.9
643.42	28.91
643.61	28.93
643.8	28.99
643.99	29.02
644.18	28.87
644.369	28.69
644.559	28.71
644.749	28.75
644.939	28.48
645.128	28.38
645.318	28.25
645.508	28.52
645.697	28.6
645.887	28.54
646.076	28.62
646.266	28.73
646.456	28.97
646.645	28.72
646.835	28.69
647.024	28.77
647.214	28.97
647.403	29.06
647.593	28.81
647.782	28.97
647.972	29.16
648.161	29.31
648.351	29.37
648.54	29.5
648.73	29.78
648.919	30.13
649.108	30.24
649.298	30.14
649.487	30.27
649.677	30.45
649.866	30.45
650.055	30.38
650.244	30.5
650.434	30.5
650.623	30.44
650.812	30.38
651.002	30.27
651.191	30.24
651.38	30.22
651.569	30.13
651.758	29.9
651.947	29.88
652.137	30.01
652.326	29.93
652.515	29.7
652.704	29.47
652.893	29.33
653.082	29.34
653.271	29.62
653.46	29.82
653.649	29.88
653.838	30.03
654.027	30.08
654.216	29.96
654.405	29.89
654.594	30.02
654.783	30.07
654.972	30.24
655.161	30.08
655.35	29.79
655.539	29.73
655.728	29.42
655.916	29.47
656.105	29.51
656.294	29.34
656.483	29.34
656.672	29.41
656.86	29.26
657.049	29.12
657.238	29.26
657.427	29.26
657.615	29.28
657.804	29.46
657.993	29.55
658.181	29.26
658.37	29.51
658.559	29.44
658.747	29.23
658.936	29.41
659.125	29.72
659.313	29.6
659.502	29.5
659.69	29.43
659.879	29.46
660.067	29.47
660.256	29.66
660.444	29.52
660.633	29.52
660.821	29.85
661.01	30.03
661.198	29.67
661.387	29.8
661.575	29.99
661.763	30.05
661.952	30.01
662.14	30.04
662.328	30.1
662.517	30.18
662.705	30.15
662.893	30.37
663.082	30.12
663.27	30.18
663.458	30.1
663.646	30.22
663.834	30.43
664.023	30.53
664.211	30.14
664.399	30.07
664.587	29.94
664.775	30.13
664.963	29.48
665.152	29.74
665.34	29.74
665.528	30.14
665.716	29.89
665.904	29.62
666.092	29.82
666.28	30.09
666.468	30
666.656	30.25
666.844	30.31
667.032	30.74
667.22	30.61
667.408	30.58
667.596	30.13
667.784	30.5
667.971	30.61
668.159	30.29
668.347	30.27
668.535	30.59
668.723	30.31
668.911	30.41
669.098	30.25
669.286	30.05
669.474	30.09
669.662	30.27
669.849	29.97
670.037	29.94
670.225	29.99
670.413	30.03
670.6	29.73
670.788	29.88
670.976	29.48
671.163	29.8
671.351	30
671.538	29.97
671.726	29.96
671.913	30.08
672.101	29.97
672.289	30.26
672.476	30.09
672.664	30.29
672.851	30.39
673.039	30.37
673.226	30.1
673.413	29.98
673.601	29.97
673.788	29.92
673.976	29.82
674.163	29.77
674.35	29.48
674.538	29.69
674.725	29.53
674.912	29.23
675.1	29.32
675.287	29.51
675.474	29.67
675.662	29.87
675.849	29.81
676.036	29.8
676.223	29.73
676.411	29.94
676.598	29.88
676.785	29.98
676.972	30.05
677.159	30.1
677.346	29.87
677.533	29.86
677.721	29.61
677.908	29.6
678.095	29.73
678.282	30.16
678.469	29.95
678.656	30.17
678.843	30.4
679.03	30.52
679.217	30.44
679.404	30.5
679.591	30.49
679.778	30.64
679.964	30.73
680.151	30.7
680.338	30.46
680.525	30.48
680.712	30.36
680.899	30.34
681.086	30.56
681.272	30.7
681.459	30.82
681.646	30.8
681.833	30.82
682.02	30.83
682.206	30.84
682.393	31.01
682.58	31.36
682.766	31.33
682.953	31.27
683.14	31.21
683.326	31.28
683.513	31.15
683.7	31.18
683.886	31.2
684.073	31.17
684.259	31.31
684.446	31.1
684.632	31.14
684.819	31.03
685.005	30.79
685.192	30.46
685.378	30.53
685.565	30.73
685.751	30.67
685.938	30.76
686.124	31.04
686.31	30.84
686.497	31.02
686.683	30.57
686.87	30.72
687.056	31.04
687.242	31.42
687.429	31.63
687.615	31.44
687.801	31.52
687.987	31.27
688.174	31
688.36	31.14
688.546	31.04
688.732	31.35
688.918	31.61
689.105	31.28
689.291	31.05
689.477	31.06
689.663	31.33
689.849	31.18
690.035	31.09
690.221	31.54
690.407	31.29
690.593	31.25
690.779	31.03
690.965	30.87
691.151	31.35
691.337	31.77
691.523	31.34
691.709	31.1
691.895	31.16
692.081	31.6
692.267	31.32
692.453	32.09
692.639	32.25
692.825	32.5
693.011	32.57
693.196	32.45
693.382	31.87
693.568	32.41
693.754	32.53
693.94	32.96
694.125	32.58
694.311	32.5
694.497	31.82
694.682	31.58
694.868	31.06
695.054	30.85
695.239	30.43
695.425	30.54
695.611	30.06
695.796	29.81
695.982	29.54
696.168	29.68
696.353	29.52
696.539	29.39
696.724	29.51
696.91	30.09
697.095	30.01
697.281	30.08
697.466	29.9
697.652	30.28
697.837	30.12
698.023	30.02
698.208	29.88
698.393	29.85
698.579	29.91
698.764	29.8
698.949	29.5
699.135	29.5
699.32	29.68
699.505	29.98
699.691	29.54
699.876	29.75
700.061	30.02
700.246	30.17
700.432	30.5
700.617	30.81
700.802	31.15
700.987	31.31
701.172	31.6
701.358	31.54
701.543	31.75
701.728	32.36
701.913	32.44
702.098	32.27
702.283	32.44
702.468	32.11
702.653	32.21
702.838	32.3
703.023	32.58
703.208	32.49
703.393	32.54
703.578	32.32
703.763	32.24
703.948	32.7
704.133	33.03
704.318	33.3
704.503	33.59
704.688	33.72
704.873	34.22
705.057	34.8
705.242	35.26
705.427	35.99
705.612	36.21
705.797	36.42
705.981	36.56
706.166	36.81
706.351	36.94
706.536	37.28
706.72	37.61
706.905	37.4
707.09	37.33
707.274	37.43
707.459	36.96
707.644	36.93
707.828	37.06
708.013	36.95
708.197	36.83
708.382	36.73
708.567	36.81
708.751	36.56
708.936	36.33
709.12	36.19
709.305	35.75
709.489	36.01
709.673	36
709.858	35.65
710.042	35.87
710.227	35.32
710.411	35.5
710.596	35.36
710.78	35.33
710.964	35.27
711.149	35.1
711.333	35.56
711.517	35.38
711.702	35.55
711.886	35.12
712.07	34.79
712.254	35.39
712.438	34.77
712.623	34.71
712.807	34.32
712.991	34.5
713.175	34.34
713.359	34.01
713.544	33.58
713.728	32.99
713.912	33.16
714.096	32.63
714.28	31.9
714.464	32.18
714.648	32.03
714.832	31.79
715.016	31.59
715.2	31.6
715.384	31.44
715.568	31.39
715.752	31.52
715.936	31.62
716.12	31.72
716.304	31.95
716.488	31.67
716.671	31.07
716.855	31.22
717.039	30.79
717.223	30.32
717.407	29.91
717.59	30.05
717.774	29.72
717.958	29.66
718.142	29.37
718.325	28.93
718.509	28.72
718.693	28.89
718.877	28.59
719.06	28.69
719.244	28.34
719.428	28.39
719.611	28.57
719.795	28.71
719.978	28.64
720.162	29.12
720.345	29.49
720.529	30.11
720.713	30.44
720.896	30.36
721.08	30.66
721.263	31.06
721.446	31.39
721.63	31.48
721.813	31.39
721.997	30.89
722.18	30.54
722.364	29.94
722.547	29.26
722.73	28.67
722.914	28.76
723.097	28
723.28	27.94
723.464	27.94
723.647	27.82
723.83	28.33
724.013	28.65
724.197	29.01
724.38	29.45
724.563	29.5
724.746	30.64
724.929	30.87
725.112	31.44
725.296	31.36
725.479	31.39
725.662	31.51
725.845	30.85
726.028	30.92
726.211	30.91
726.394	30.99
726.577	31.35
726.76	30.78
726.943	30.72
727.126	30.71
727.309	31.19
727.492	31.12
727.675	30.51
727.858	31.02
728.041	30.99
728.224	31.04
728.407	31.21
728.589	31.56
728.772	31.81
728.955	31.81
729.138	31.86
729.321	31.68
729.503	31.51
729.686	31.83
729.869	31.44
730.052	31.34
730.234	31.22
730.417	31.35
730.6	30.89
730.782	30.64
730.965	30.83
731.148	30.73
731.33	30.67
731.513	30.54
731.695	29.89
731.878	29.77
732.061	29.67
732.243	30.01
732.426	29.63
732.608	29.37
732.791	29.35
732.973	29.76
733.156	29.96
733.338	30.22
733.52	30.37
733.703	30.65
733.885	30.74
734.068	31.21
734.25	30.82
734.432	31.32
734.615	32.1
734.797	32.08
734.979	31.29
735.162	31.19
735.344	31.25
735.526	31.3
735.708	31.75
735.891	32.45
736.073	32.55
736.255	32.8
736.437	32
736.619	31.43
736.802	31.34
736.984	31.2
737.166	31.11
737.348	30.66
737.53	30.85
737.712	30.63
737.894	30.48
738.076	30.46
738.258	30.51
738.44	31
738.622	31.37
738.804	31
738.986	31.32
739.168	31.69
739.35	32.28
739.532	32.02
739.714	32
739.896	31.81
740.078	31.48
740.259	31.08
740.441	31.05
740.623	31.04
740.805	31.78
740.987	31.58
741.168	31.65
741.35	31.99
741.532	31.94
741.714	32.09
741.895	32.44
742.077	32.81
742.259	32.92
742.44	32.9
742.622	32.58
742.804	32.25
742.985	32.68
743.167	32.59
743.348	31.9
743.53	31.97
743.711	31.98
743.893	31.34
744.075	30.59
744.256	30.59
744.438	30.67
744.619	30.54
744.8	31.06
744.982	31.63
745.163	31.27
745.345	31.17
745.526	31.88
745.707	32.13
745.889	33.08
746.07	33.51
746.252	33.68
746.433	33.45
746.614	33.93
746.795	33.3
746.977	32.74
747.158	32.06
747.339	31.55
747.52	31.15
747.702	31.01
747.883	30.92
748.064	31.46
748.245	31.04
748.426	31.56
748.607	31.14
748.788	31.12
748.97	30.67
749.151	31.82
749.332	32.47
749.513	31.7
749.694	31.96
749.875	31.42
750.056	31.56
750.237	31.79
750.418	31.31
750.599	31.09
750.78	31.43
750.96	31.84
751.141	31.31
751.322	30.86
751.503	31.44
751.684	30.8
751.865	30.41
752.046	29.62
752.226	29.71
752.407	29.67
752.588	29.25
752.769	29.72
752.949	29.07
753.13	29.46
753.311	30.1
753.492	30.15
753.672	30.37
753.853	30.1
754.034	30.2
754.214	30.61
754.395	30.76
754.575	31.27
754.756	30.26
754.937	31.09
755.117	31.04
755.298	31.05
755.478	30.58
755.659	30.65
755.839	31.06
756.02	30.89
756.2	30.61
756.381	30.94
756.561	30.95
756.741	31.36
756.922	31.39
757.102	31.38
757.283	31.12
757.463	30.99
757.643	30.75
757.823	30.83
758.004	30.66
758.184	30.3
758.364	29.35
758.545	29.64
758.725	29.95
758.905	28.89
759.085	28.31
759.265	27.46
759.446	27.68
759.626	27.36
759.806	26.95
759.986	27.59
760.166	27.82
760.346	27.58
760.526	27.01
760.706	26.17
760.886	26.5
761.066	26.61
761.246	27.08
761.426	27.06
761.606	26.59
761.786	26.74
761.966	26.45
762.146	26.44
762.326	27.36
762.506	27.49
762.686	28.14
762.866	28
763.046	28.01
763.225	28.48
763.405	28.75
763.585	29.19
763.765	29.39
763.945	28.97
764.124	28.72
764.304	28.59
764.484	28.91
764.664	28.4
764.843	28.71
765.023	28.83
765.203	28.53
765.382	28.68
765.562	28.83
765.741	28.71
765.921	28.83
766.101	29.43
766.28	29.22
766.46	29.52
766.639	29.65
766.819	29.17
766.998	29.37
767.178	29.04
767.357	29.02
767.537	29.27
767.716	29.69
767.896	30.33
768.075	29.87
768.254	29.67
768.434	29.81
768.613	29.99
768.792	31.07
768.972	31.11
769.151	31.08
769.33	30.61
769.51	30.32
769.689	30.41
769.868	29.82
770.047	30.41
770.226	31.38
770.406	30.7
770.585	31.66
770.764	30.75
770.943	31.29
771.122	31.81
771.301	31.85
771.48	31.86
771.66	31.94
771.839	32.23
772.018	31.84
772.197	30.96
772.376	31.29
772.555	30.44
772.734	30.93
772.913	30.07
773.092	30.31
773.271	30.37
773.449	31.24
773.628	31.08
773.807	31.21
773.986	31.94
774.165	33.02
774.344	32.91
774.523	33.03
774.701	32.99
774.88	33.7
775.059	33.76
775.238	34.5
775.417	34.24
775.595	33.85
775.774	33.65
775.953	32.57
776.131	31.33
776.31	30.58
776.489	30.96
776.667	31.23
776.846	30.5
777.025	31.4
777.203	31.02
777.382	30.83
777.56	31.06
777.739	31.38
777.917	32.06
778.096	33.21
778.274	33.37
778.453	33.11
778.631	33.3
778.81	32.9
778.988	31.4
779.166	31.04
779.345	31.27
779.523	31.06
779.702	31.31
779.88	30.91
780.058	29.85
780.237	29.65
780.415	29.65
780.593	29.76
780.771	30.32
780.95	31.03
781.128	31.62
781.306	30.74
781.484	31.25
781.662	30.74
781.841	31.09
782.019	31.03
782.197	31.83
782.375	31.27
782.553	31.03
782.731	31.22
782.909	30.21
783.087	30.6
783.265	31.03
783.443	30.91
783.621	30.96
783.799	30.62
783.977	31
784.155	30.79
784.333	31.98
784.511	31.79
784.689	31.41
784.867	32.67
785.045	32.23
785.223	31.82
785.4	31.21
785.578	33.04
785.756	33.35
785.934	33.18
786.112	32.79
786.289	31.23
786.467	31.05
786.645	31.15
786.823	30.7
787	30.64
787.178	32.22
787.356	32.83
787.533	30.53
787.711	30.09
787.889	29.75
788.066	29.99
788.244	30.17
788.421	30.02
788.599	30.6
788.776	31.12
788.954	30.38
789.131	28.58
789.309	27.83
789.486	28.62
789.664	29.85
789.841	30.4
790.019	30.34
790.196	30.97
790.373	31.55
790.551	31.43
790.728	31
790.906	30.95
791.083	31.48
791.26	32.83
791.437	32.47
791.615	31.42
791.792	31.49
791.969	32.43
792.146	32.01
792.324	32.56
792.501	32.15
792.678	32.55
792.855	33.11
793.032	33.61
793.209	32.51
793.387	33.5
793.564	33.47
793.741	33.68
793.918	32.69
794.095	33.4
794.272	32.07
794.449	32.4
794.626	31.49
794.803	32.64
794.98	32.44
795.157	32.9
795.334	31.22
795.511	31.11
795.688	31.11
795.864	31.28
796.041	30.48
796.218	30.19
796.395	30.68
796.572	30.85
796.749	29.29
796.925	29.45
797.102	28.86
797.279	30.64
797.456	30.16
797.632	30.18
797.809	29.93
797.986	30.53
798.162	31.32
798.339	30.06
798.516	30.26
798.692	30.69
798.869	30.54
799.046	30.66
799.222	30.29
799.399	30.1
799.575	29.36
799.752	29.42
799.928	29.15
800.105	29.12
800.281	29.32
800.458	29.58
800.634	30.19
800.811	30.73
800.987	30.02
801.163	29.63
801.34	30.32
801.516	31.43
801.692	31.42
801.869	30.26
802.045	30.7
802.221	30.77
802.398	30.73
802.574	30.72
802.75	30.16
802.926	30.4
803.103	30.71
803.279	29.8
803.455	29.35
803.631	30.14
803.807	31.63
803.983	31.54
804.16	31.67
804.336	31.98
804.512	31.89
804.688	31.74
804.864	32.06
805.04	31.33
805.216	32.69
805.392	31.5
805.568	31.11
805.744	31.26
805.92	31.09
806.096	32.44
806.272	33.12
806.448	32.5
806.623	32.16
806.799	31.58
806.975	31.81
807.151	32.69
807.327	34.39
807.503	35.66
807.678	37.13
807.854	36.78
808.03	36.42
808.206	34.91
808.381	35.35
808.557	35.12
808.733	35.86
808.908	35.57
809.084	33.57
809.26	32.36
809.435	31.7
809.611	30.62
809.787	30.76
809.962	30.95
810.138	31.46
810.313	31.38
810.489	32.11
810.664	31.46
810.84	31.38
811.015	32.57
811.191	33.36
811.366	33.83
811.542	33.44
811.717	32.49
811.892	31.36
812.068	32.79
812.243	31.29
812.419	30.53
812.594	30.95
812.769	31.14
812.944	29.42
813.12	28.08
813.295	26.41
813.47	25.54
813.645	25.61
813.821	25.85
813.996	23.57
814.171	24.66
814.346	24.92
814.521	24.35
814.697	24.02
814.872	24.11
815.047	24.59
815.222	24.87
815.397	25.29
815.572	26.26
815.747	25.29
815.922	25.16
816.097	25.05
816.272	26
816.447	27.72
816.622	28.09
816.797	29.1
816.972	28.98
817.147	27.66
817.322	28.52
817.496	28.57
817.671	29.68
817.846	29.69
818.021	29.47
818.196	28.46
818.371	27.78
818.545	28.62
818.72	29.31
818.895	28.34
819.069	28.53
819.244	28.34
819.419	28.74
819.594	28.48
819.768	28.47
819.943	27.79
820.117	27.68
820.292	26.59
820.467	25.09
820.641	24.5
820.816	25.27
820.99	25.21
821.165	24.53
821.339	23.75
821.514	23.37
821.688	23.45
821.863	23.6
822.037	23.47
822.212	23.75
822.386	23.77
822.56	23.84
822.735	23.69
822.909	23.57
823.084	23.62
823.258	23.61
823.432	23.51
823.606	23.49
823.781	23.19
823.955	23.35
824.129	22.94
824.303	22.91
824.478	22.37
824.652	22.22
824.826	22.58
825	23.16
825.174	23.28
825.348	23.45
825.523	23.05
825.697	23.28
825.871	23.13
826.045	23.78
826.219	23.98
826.393	24.63
826.567	24.88
826.741	24.48
826.915	23.8
827.089	24.06
827.263	24.12
827.437	23.81
827.611	23.64
827.784	23.56
827.958	23.22
828.132	23
828.306	22.76
828.48	22.35
828.654	22.2
828.827	21.72
829.001	21.32
829.175	21.02
829.349	22.72
829.522	23.68
829.696	23.59
829.87	24.24
830.044	25.93
830.217	27.08
830.391	28.09
830.565	29.25
830.738	30.07
830.912	29.68
831.085	31.32
831.259	29.49
831.432	29.8
831.606	30.82
831.779	31.39
831.953	29.64
832.126	28.4
832.3	27.98
832.473	26.59
832.647	25.47
832.82	24.58
832.994	23.16
833.167	23.35
833.34	22.55
833.514	22.22
833.687	21.6
833.86	21.87
834.034	21.61
834.207	21.38
834.38	22.4
834.553	23.2
834.727	23.91
834.9	24.98
835.073	24.88
835.246	25.07
835.419	24.51
835.593	24.41
835.766	24.1
835.939	23.64
836.112	23.46
836.285	22.99
836.458	22.62
836.631	23.59
836.804	23.75
836.977	23.52
837.15	24.06
837.323	25.59
837.496	25.57
837.669	25.18
837.842	27.88
838.015	30.22
838.188	31.44
838.361	32.35
838.533	32.26
838.706	31.99
838.879	33.4
839.052	31.41
839.225	31.57
839.398	32.7
839.57	33.36
839.743	31.94
839.916	30.17
840.088	29.84
840.261	29.14
840.434	28.95
840.607	28.84
840.779	29.46
840.952	30.65
841.124	29.64
841.297	29.52
841.47	30.17
841.642	30.87
841.815	31.04
841.987	30.58
842.16	32.92
842.332	32.71
842.505	32.59
842.677	32.73
842.85	33.25
843.022	34.7
843.194	35.82
843.367	36.67
843.539	38.53
843.712	38.6
843.884	39.83
844.056	38.58
844.229	40.4
844.401	40.69
844.573	39.67
844.745	41.07
844.918	38.35
845.09	37.45
845.262	36.41
845.434	35.22
845.606	35.22
845.779	33.65
845.951	35.69
846.123	34.16
846.295	33.6
846.467	35.58
846.639	34.44
846.811	36.44
846.983	38.4
847.155	38.47
847.327	38.16
847.499	39.49
847.671	39.35
847.843	38.72
848.015	40.53
848.187	40.64
848.359	38.21
848.531	40.61
848.703	42.81
848.875	41.45
849.047	40.82
849.218	39.94
849.39	40.81
849.562	40.9
849.734	40.03
849.905	38.98
850.077	40.81
850.249	45.39
850.421	41.49
850.592	41.61
850.764	41.33
850.936	42.56
851.107	42.27
851.279	42.57
851.451	43.33
851.622	42.01
851.794	43.21
851.965	42.71
852.137	39.32
852.308	43.69
852.48	46.13
852.651	45.54
852.823	47.36
852.994	46.35
853.166	43.62
853.337	44.44
853.509	46.83
853.68	46.41
853.851	45.12
854.023	43.83
854.194	44.6
854.365	41.72
854.537	40.22
854.708	40.67
854.879	43.43
855.05	48.17
855.222	46.23
855.393	47.93
855.564	46.35
855.735	47.35
855.906	50.85
856.078	48.57
856.249	48
856.42	51.22
856.591	47.13
856.762	49.05
856.933	46.08
857.104	47.25
857.275	45.65
857.446	47.61
857.617	46.11
857.788	44.64
857.959	42.86
858.13	43.51
858.301	42.67
858.472	43.51
858.643	43.57
858.814	46.67
858.985	44.07
859.155	43.59
859.326	42.37
859.497	44.03
859.668	42.71
859.839	42.89
860.009	38.84
860.18	38.61
860.351	42.01
860.522	40.08
860.692	38.78
860.863	40.73
861.034	39.32
861.204	38.06
861.375	40.62
861.546	41.22
861.716	38.09
861.887	43.8
862.057	46.97
862.228	45.34
862.398	43.39
862.569	45.21
862.739	44.54
862.91	41.61
863.08	43.44
863.251	40.59
863.421	39.42
863.592	45.2
863.762	38.41
863.932	34.5
864.103	32.03
864.273	33.35
864.443	27.02
864.614	29.64
864.784	36.28
864.954	37.72
865.125	40.8
865.295	42.68
865.465	39.03
865.635	40.23
865.805	40.66
865.976	39.94
866.146	40.87
866.316	46.78
866.486	44.47
866.656	40.78
866.826	42.13
866.996	37.14
867.166	36.79
867.336	42.79
867.506	44.04
867.676	40.41
867.846	41.78
868.016	41.76
868.186	35.05
868.356	34.48
868.526	37.5
868.696	32.92
868.866	37
869.036	35.38
869.206	30.15
869.376	30.8
869.545	35.08
869.715	37.8
869.885	35.05
870.055	40.27
870.224	42.14
870.394	41.01
870.564	40.15
870.734	39.47
870.903	41.14
871.073	41.74
871.243	42.95
871.412	45.37
871.582	45.73
871.751	47.57
871.921	40.34
872.091	37.12
872.26	36.34
872.43	40.45
872.599	38.83
872.769	38.7
872.938	39.34
873.108	36.99
873.277	32.15
873.446	29.98
873.616	29.38
873.785	34.52
873.955	38.13
874.124	39.06
874.293	38.02
874.463	39.77
874.632	37.68
874.801	36.3
874.971	36.06
875.14	37.6
875.309	36.81
875.478	39.87
875.647	42.41
875.817	39.59
875.986	37.4
876.155	36.71
876.324	34.2
876.493	39.68
876.662	38.9
876.831	41.78
877	42.74
877.17	44.09
877.339	42.57
877.508	36.61
877.677	37.69
877.846	35.82
878.015	34.8
878.184	35.22
878.352	31.7
878.521	31.66
878.69	30.39
878.859	30.08
879.028	30.65
879.197	33.82
879.366	36.33
879.534	35.81
879.703	34.87
879.872	34.61
880.041	33.82
880.21	32.47
880.378	32.51
880.547	30.29
880.716	28.15
880.884	26.12
881.053	23.4
881.222	22.65
881.39	21.54
881.559	21.82
881.727	20.84
881.896	19.99
882.065	19.75
882.233	18.81
882.402	17.9
882.57	18.02
882.739	18.11
882.907	18.81
883.076	18.55
883.244	18.67
883.412	18.35
883.581	19.17
883.749	19.84
883.918	18.97
884.086	19.28
884.254	20.43
884.423	20.65
884.591	20.99
884.759	20.94
884.927	21.93
885.096	21.56
885.264	22.4
885.432	22.71
885.6	22.78
885.769	24.79
885.937	25.99
886.105	26.52
886.273	28.09
886.441	27.95
886.609	28.1
886.777	29.22
886.945	31.38
887.113	33.42
887.281	34.23
887.449	36.78
887.617	39.14
887.785	38.91
887.953	40.99
888.121	40.74
888.289	43.28
888.457	41.74
888.625	38.93
888.793	40.14
888.961	37.66
889.129	36.7
889.296	31.76
889.464	29.86
889.632	31.17
889.8	29.56
889.967	30.6
890.135	28.65
