Data from 2938759__Reflection_04.txt Node
Date: Fri Mar 13 18:28:00 EDT 2015
User: robert
Spectrometer: USB4E03002
Autoset integration time: false
Trigger mode: 4
Integration Time (sec): 1.000000E-1
Scans to average: 10
Electric dark correction enabled: false
Nonlinearity correction enabled: false
Boxcar width: 5
Stray light correction enabled: false
XAxis mode: Wavelengths
Stop averaging: false
Number of Pixels in Spectrum: 3648
>>>>>Begin Spectral Data<<<<<
177.575	226.14
177.794	1200
178.014	269.83
178.233	520.27
178.452	-14300
178.672	-91.33
178.891	-223.66
179.11	-140.45
179.33	8.94
179.549	85.54
179.768	68.06
179.987	27.42
180.207	-159.09
180.426	25.15
180.645	365
180.864	68.57
181.084	20.69
181.303	-1.17
181.522	18.07
181.741	33.96
181.96	64.58
182.179	30.58
182.398	9.54
182.618	-26.39
182.837	-79.63
183.056	-145.34
183.275	-226.09
183.494	-103.85
183.713	-807.94
183.932	-1510
184.151	67900
184.37	314.38
184.589	283.09
184.808	240.42
185.027	204.99
185.246	162.41
185.465	227.42
185.684	152.74
185.903	186.9
186.122	390.09
186.341	322.48
186.56	-2192.31
186.779	-13.39
186.998	12.14
187.216	18.01
187.435	29.52
187.654	25.25
187.873	35.88
188.092	30.47
188.311	30.47
188.53	38.42
188.748	49.82
188.967	42.64
189.186	45.86
189.405	89.54
189.623	110.27
189.842	128.57
190.061	130.53
190.28	122.25
190.498	98.19
190.717	169.37
190.936	149.89
191.154	156.37
191.373	190
191.592	260.49
191.81	-3268.75
192.029	-1025
192.248	-286.62
192.466	-196.31
192.685	-116.93
192.904	-263.31
193.122	-972.34
193.341	-1076.32
193.559	-1834.62
193.778	3800
193.996	265.13
194.215	187.91
194.433	231.78
194.652	351.39
194.87	2800
195.089	275.61
195.307	-541.94
195.526	-9.37
195.744	15.01
195.963	23.49
196.181	10.61
196.399	-12.86
196.618	-29.04
196.836	-36.49
197.055	-81.25
197.273	-212.04
197.491	-159.05
197.71	-125.91
197.928	-269.62
198.146	-303.21
198.365	-473.74
198.583	-541.67
198.801	-282.99
199.019	-173.36
199.238	-199.06
199.456	-155.94
199.674	-83.92
199.892	-71.76
200.111	-102.09
200.329	-41.01
200.547	-132.49
200.765	-23.1
200.983	23.61
201.202	16.85
201.42	36.6
201.638	18.39
201.856	45.88
202.074	8.21
202.292	-44.33
202.51	-75.09
202.728	-116.96
202.946	-58.71
203.165	-118.87
203.383	-563.92
203.601	-738.04
203.819	-136.57
204.037	-203.21
204.255	-186.89
204.473	-242.71
204.691	-220.86
204.909	-124.73
205.127	-113.62
205.345	-48.4
205.562	-45.45
205.78	-99.03
205.998	-57.54
206.216	-66.92
206.434	-6.58
206.652	11.56
206.87	21.96
207.088	26.11
207.306	16.62
207.523	9.94
207.741	15.45
207.959	29.24
208.177	32.67
208.395	37.23
208.612	10.79
208.83	-19.84
209.048	-23.2
209.266	-24.02
209.483	-9.88
209.701	-12.07
209.919	26.49
210.136	10.27
210.354	0
210.572	43.77
210.79	26.04
211.007	64.26
211.225	63.65
211.442	59.88
211.66	65.53
211.878	48.38
212.095	-89.57
212.313	-233.51
212.53	-157.63
212.748	-187.05
212.966	-174.48
213.183	-185.61
213.401	-134.2
213.618	-110.78
213.836	-235.01
214.053	-491.13
214.271	-350
214.488	-8.47
214.705	5.4
214.923	15.99
215.14	16.2
215.358	5.1
215.575	11.56
215.793	-8.59
216.01	4.54
216.227	19.59
216.445	30.18
216.662	33.09
216.879	36.68
217.097	30.59
217.314	10.39
217.531	3.23
217.749	6.21
217.966	-10.4
218.183	23.71
218.4	12.88
218.618	13.23
218.835	14.71
219.052	19.37
219.269	4.57
219.487	2.08
219.704	9.95
219.921	14.15
220.138	13.71
220.355	11.57
220.572	0.5
220.79	0.18
221.007	-1.51
221.224	-17.12
221.441	-22.18
221.658	-14.23
221.875	-9.95
222.092	-3.38
222.309	-5.52
222.526	-17.57
222.743	-12.31
222.96	-19.34
223.177	-20.76
223.394	-24.2
223.611	-16.17
223.828	-11.11
224.045	-14.34
224.262	-14.47
224.479	-18.8
224.696	-11.98
224.913	-4.07
225.13	-3.12
225.347	1.64
225.564	-0.13
225.781	-3.18
225.997	-2.75
226.214	-1.27
226.431	-0.13
226.648	-0.45
226.865	0.9
227.082	-0.31
227.298	1.55
227.515	2.83
227.732	2.97
227.949	1.71
228.165	3.54
228.382	4.13
228.599	3.45
228.816	3.01
229.032	3.39
229.249	2.63
229.466	2.93
229.682	3.07
229.899	2.83
230.116	1.95
230.332	2.72
230.549	1.72
230.765	0.61
230.982	0.69
231.199	0.77
231.415	-0.4
231.632	-0.51
231.848	-0.85
232.065	-2.86
232.281	-4.59
232.498	-2.97
232.714	-0.26
232.931	0.36
233.147	1.03
233.364	2.6
233.58	2.56
233.797	2.04
234.013	2.34
234.23	1.35
234.446	0.35
234.662	-0.22
234.879	-1.44
235.095	-3.52
235.312	-3.03
235.528	-3.83
235.744	-6.6
235.961	-7.25
236.177	-5.2
236.393	-4.17
236.61	-3.7
236.826	-1.82
237.042	0.39
237.258	0.2
237.475	1.51
237.691	0.71
237.907	0.91
238.123	2.41
238.339	3.16
238.556	1.89
238.772	0.92
238.988	0.34
239.204	1.21
239.42	0.7
239.636	2.29
239.853	1.44
240.069	2.93
240.285	2.95
240.501	1.59
240.717	1.22
240.933	1
241.149	1.48
241.365	1.48
241.581	1.12
241.797	1.25
242.013	1.04
242.229	0.97
242.445	0.77
242.661	0.7
242.877	1.21
243.093	1.55
243.309	1.49
243.525	1.37
243.741	1.24
243.957	1.2
244.173	1.01
244.388	0.74
244.604	0.23
244.82	-0.14
245.036	0.14
245.252	0.08
245.468	0.39
245.683	0.88
245.899	1.35
246.115	1.71
246.331	1.56
246.547	1.76
246.762	1.88
246.978	1.9
247.194	1.87
247.409	1.95
247.625	1.88
247.841	1.6
248.057	1.82
248.272	1.72
248.488	1.85
248.703	1.97
248.919	1.26
249.135	1.44
249.35	1.17
249.566	1.14
249.782	1.19
249.997	1.38
250.213	1.35
250.428	1.03
250.644	0.9
250.859	0.47
251.075	0.39
251.29	1.44
251.506	0.75
251.721	1.45
251.937	1.88
252.152	1.29
252.368	1.35
252.583	1.87
252.798	2.06
253.014	1.74
253.229	1.8
253.445	1.63
253.66	1.62
253.875	2.1
254.091	1.87
254.306	1.99
254.521	2.29
254.737	2.28
254.952	2.01
255.167	2.27
255.383	2.24
255.598	2.55
255.813	1.69
256.028	1.53
256.244	1.09
256.459	1.36
256.674	0.44
256.889	1.61
257.104	1.37
257.32	2.01
257.535	1.02
257.75	1.06
257.965	0.83
258.18	1.17
258.395	1.31
258.61	1.1
258.826	0.82
259.041	0.82
259.256	0.27
259.471	0.23
259.686	-0.12
259.901	-0.02
260.116	0
260.331	0.1
260.546	0.39
260.761	0.17
260.976	0.24
261.191	0.33
261.406	0.46
261.621	0.62
261.836	0.38
262.05	0.43
262.265	0.57
262.48	0.75
262.695	0.62
262.91	0.58
263.125	0.78
263.34	0.99
263.555	1.35
263.769	1.4
263.984	1.59
264.199	2.61
264.414	3.08
264.629	3.55
264.843	3.08
265.058	3.28
265.273	2.85
265.488	2.43
265.702	1.8
265.917	1.69
266.132	1.52
266.346	1.16
266.561	0.92
266.776	0.9
266.99	0.86
267.205	0.84
267.42	0.26
267.634	0.75
267.849	0.89
268.063	1.37
268.278	1.57
268.492	1.5
268.707	1.81
268.922	1.69
269.136	1.08
269.351	1.06
269.565	1.14
269.78	1.19
269.994	0.87
270.209	0.81
270.423	0.62
270.637	0.45
270.852	0.14
271.066	0.02
271.281	0.3
271.495	0.5
271.709	0.28
271.924	0.12
272.138	0.32
272.353	0.61
272.567	0.6
272.781	0.75
272.996	0.27
273.21	0.64
273.424	0.69
273.638	0.46
273.853	0.58
274.067	0.62
274.281	0.41
274.495	0.31
274.71	-0.4
274.924	0.1
275.138	0.35
275.352	0.81
275.566	0.92
275.781	1.05
275.995	1.11
276.209	1.45
276.423	1.32
276.637	1.94
276.851	2.2
277.065	2.48
277.279	1.36
277.493	1.37
277.707	1.04
277.921	0.81
278.135	0.84
278.349	0.92
278.563	0.43
278.777	0.8
278.991	0.44
279.205	0.23
279.419	-0.03
279.633	0.95
279.847	0.64
280.061	0.92
280.275	1.11
280.489	1.27
280.703	1.59
280.917	1.4
281.131	1.02
281.344	0.97
281.558	0.83
281.772	1.08
281.986	1.07
282.2	0.78
282.414	0.6
282.627	0.63
282.841	0.4
283.055	0.07
283.269	0.13
283.482	0.09
283.696	0.58
283.91	0.41
284.123	0.36
284.337	0.24
284.551	0.38
284.764	0.65
284.978	0.65
285.192	0.27
285.405	0.41
285.619	0.65
285.833	0.95
286.046	0.85
286.26	1.16
286.473	1.09
286.687	0.91
286.9	0.91
287.114	1.18
287.327	1.08
287.541	1.53
287.754	1.52
287.968	1.5
288.181	1.39
288.395	1.26
288.608	0.89
288.822	1.08
289.035	1.29
289.248	1.59
289.462	0.99
289.675	0.78
289.889	0.59
290.102	0.48
290.315	0.23
290.529	0.22
290.742	0.15
290.955	0.58
291.169	0.62
291.382	0.6
291.595	0.52
291.808	0.9
292.022	1.01
292.235	1.18
292.448	1.09
292.661	1.17
292.875	1.43
293.088	1.29
293.301	1.21
293.514	0.95
293.727	0.88
293.94	0.72
294.153	0.56
294.367	0.76
294.58	0.87
294.793	1.04
295.006	1.15
295.219	0.71
295.432	1.09
295.645	1.1
295.858	1.38
296.071	1.26
296.284	1.5
296.497	1.54
296.71	1.6
296.923	1.51
297.136	1.8
297.349	1.85
297.562	1.81
297.775	1.78
297.988	2.11
298.201	2.12
298.414	2.43
298.626	2.34
298.839	2.24
299.052	2.19
299.265	2.09
299.478	2.04
299.691	1.88
299.903	2.06
300.116	2.05
300.329	1.56
300.542	1.45
300.755	1.12
300.967	1.36
301.18	1.42
301.393	1.4
301.605	1.1
301.818	0.73
302.031	0.61
302.243	0.8
302.456	0.57
302.669	0.27
302.881	0.11
303.094	0.26
303.307	-0.17
303.519	0.08
303.732	-0.09
303.944	0.28
304.157	0.22
304.37	0.62
304.582	0.63
304.795	0.83
305.007	1.05
305.22	1.23
305.432	1.38
305.645	1.12
305.857	0.76
306.069	1.2
306.282	1.06
306.494	1.32
306.707	0.89
306.919	1.01
307.132	0.41
307.344	0.61
307.556	0.71
307.769	0.63
307.981	0.89
308.193	1.38
308.406	1.31
308.618	1.51
308.83	1.28
309.043	1.79
309.255	1.61
309.467	2.13
309.679	2.09
309.892	2
310.104	1.94
310.316	2.16
310.528	2.21
310.74	1.92
310.953	1.8
311.165	1.84
311.377	1.91
311.589	2.07
311.801	2.01
312.013	2.15
312.225	2.02
312.437	2.1
312.649	1.97
312.862	1.66
313.074	1.87
313.286	2.2
313.498	2.3
313.71	2.11
313.922	2.1
314.134	1.95
314.346	2
314.558	2.3
314.77	2.5
314.982	2.76
315.193	2.87
315.405	2.98
315.617	3.06
315.829	3.25
316.041	3.92
316.253	3.83
316.465	4.15
316.677	4.37
316.888	3.97
317.1	4
317.312	4.18
317.524	4.1
317.736	4.05
317.947	3.63
318.159	3.44
318.371	3.19
318.583	3.22
318.794	3.34
319.006	3.31
319.218	3.86
319.43	4.09
319.641	3.88
319.853	4.03
320.064	4.56
320.276	4.82
320.488	5.55
320.699	5.25
320.911	5.48
321.123	5.94
321.334	5.99
321.546	5.77
321.757	5.42
321.969	5.76
322.18	5.74
322.392	5.67
322.603	5.91
322.815	5.47
323.026	5.42
323.238	5.57
323.449	5.21
323.661	4.84
323.872	5.27
324.083	5.69
324.295	5.63
324.506	6.19
324.718	6.16
324.929	6.44
325.14	6.91
325.352	7.25
325.563	7.07
325.774	6.87
325.986	7.42
326.197	7.33
326.408	7.4
326.62	7.66
326.831	7.53
327.042	7.79
327.253	7.51
327.464	7.82
327.676	7.84
327.887	8.3
328.098	8.67
328.309	8.99
328.52	9.38
328.732	9.52
328.943	9.48
329.154	10
329.365	9.72
329.576	10.46
329.787	10.24
329.998	10.92
330.209	11.32
330.42	11.73
330.631	11.54
330.842	11.92
331.053	12.27
331.264	12.61
331.475	12.38
331.686	12.93
331.897	12.67
332.108	13.02
332.319	13.01
332.53	13
332.741	12.89
332.952	13.17
333.163	12.88
333.374	13.11
333.585	13.27
333.795	13.57
334.006	13.13
334.217	13.35
334.428	13.01
334.639	13.26
334.849	13.43
335.06	13.79
335.271	13.84
335.482	13.96
335.692	13.76
335.903	13.46
336.114	13.78
336.325	14.18
336.535	14
336.746	14.49
336.957	14.14
337.167	13.87
337.378	14.09
337.589	14.26
337.799	14.16
338.01	14.29
338.22	14.68
338.431	14.53
338.642	15.01
338.852	15.21
339.063	15.06
339.273	15.48
339.484	15.66
339.694	15.23
339.905	14.9
340.115	15.19
340.326	15.36
340.536	15.24
340.746	14.85
340.957	14.63
341.167	14.5
341.378	14.59
341.588	14.54
341.799	14.82
342.009	14.82
342.219	15.23
342.43	14.99
342.64	14.62
342.85	14.7
343.061	15.06
343.271	14.71
343.481	14.93
343.691	14.96
343.902	14.8
344.112	14.58
344.322	14.84
344.532	14.67
344.743	14.88
344.953	14.89
345.163	14.8
345.373	14.88
345.583	15.03
345.793	15.06
346.004	14.68
346.214	14.57
346.424	14.66
346.634	14.7
346.844	14.76
347.054	14.55
347.264	14.52
347.474	14.92
347.684	14.83
347.894	14.8
348.104	14.68
348.314	14.63
348.524	14.73
348.734	14.55
348.944	14.05
349.154	14.28
349.364	14.33
349.574	14.61
349.784	14.34
349.994	14.08
350.204	14.13
350.413	14.17
350.623	14.02
350.833	13.77
351.043	14.24
351.253	14.85
351.463	14.64
351.672	14.68
351.882	14.49
352.092	14.61
352.302	14.54
352.511	14.49
352.721	14.48
352.931	14.97
353.141	15.12
353.35	14.52
353.56	14.15
353.77	14.13
353.979	13.96
354.189	13.7
354.399	13.33
354.608	13.05
354.818	13.03
355.027	12.94
355.237	12.58
355.447	12.4
355.656	12.61
355.866	12.65
356.075	12.46
356.285	12.6
356.494	12.88
356.704	13.2
356.913	13.58
357.123	13.71
357.332	13.84
357.542	13.99
357.751	14.11
357.96	14.04
358.17	14.15
358.379	14.02
358.589	14.26
358.798	14.21
359.007	14.12
359.217	13.95
359.426	13.8
359.635	13.75
359.845	13.83
360.054	13.62
360.263	13.63
360.472	13.37
360.682	13.48
360.891	13.24
361.1	13.27
361.309	13.19
361.519	13.19
361.728	13.26
361.937	13.15
362.146	13.08
362.355	13.12
362.564	13.07
362.774	13.19
362.983	13.18
363.192	13.07
363.401	12.99
363.61	12.92
363.819	12.97
364.028	13.02
364.237	13.1
364.446	12.92
364.655	12.91
364.864	13.09
365.073	13.07
365.282	13.4
365.491	13.61
365.7	13.75
365.909	13.85
366.118	13.95
366.327	13.88
366.536	13.87
366.745	14
366.954	14
367.162	13.82
367.371	13.8
367.58	13.32
367.789	13.25
367.998	12.96
368.207	12.92
368.415	12.76
368.624	12.64
368.833	12.77
369.042	12.72
369.25	13
369.459	12.85
369.668	12.75
369.877	13
370.085	12.77
370.294	13.05
370.503	12.99
370.711	13.08
370.92	13.1
371.129	12.94
371.337	12.97
371.546	12.93
371.754	13
371.963	13.14
372.171	12.94
372.38	13.3
372.589	13.37
372.797	13.36
373.006	13.46
373.214	13.55
373.423	13.56
373.631	13.9
373.84	13.58
374.048	13.66
374.256	13.84
374.465	13.88
374.673	13.86
374.882	13.85
375.09	14
375.298	13.88
375.507	13.84
375.715	13.78
375.923	13.6
376.132	13.79
376.34	13.78
376.548	13.5
376.757	13.57
376.965	13.43
377.173	13.14
377.381	12.99
377.59	12.99
377.798	12.99
378.006	13.07
378.214	13.04
378.423	12.84
378.631	12.78
378.839	12.88
379.047	12.76
379.255	12.87
379.463	12.7
379.671	12.67
379.879	12.72
380.088	12.57
380.296	12.45
380.504	12.36
380.712	12.54
380.92	12.58
381.128	12.51
381.336	12.52
381.544	12.41
381.752	12.73
381.96	12.64
382.168	12.74
382.376	12.82
382.584	12.98
382.791	12.9
382.999	13.09
383.207	13.22
383.415	13.09
383.623	13.23
383.831	13.34
384.039	13.48
384.247	13.58
384.454	13.44
384.662	13.3
384.87	13.15
385.078	13
385.285	12.79
385.493	12.63
385.701	12.74
385.909	12.8
386.116	12.69
386.324	12.62
386.532	12.65
386.739	12.53
386.947	12.67
387.155	12.73
387.362	13.07
387.57	13.15
387.778	13.14
387.985	13.27
388.193	13.17
388.4	13.09
388.608	12.88
388.816	13.02
389.023	13.4
389.231	13.33
389.438	13.51
389.646	13.59
389.853	13.4
390.061	13.27
390.268	13.17
390.475	13.19
390.683	13.24
390.89	13.27
391.098	13.01
391.305	12.68
391.512	12.71
391.72	12.75
391.927	12.71
392.135	12.67
392.342	12.59
392.549	12.55
392.756	12.65
392.964	12.64
393.171	12.68
393.378	12.8
393.586	12.87
393.793	13.06
394	12.96
394.207	12.85
394.414	13.06
394.622	13.19
394.829	13.31
395.036	13.01
395.243	13.07
395.45	13.03
395.657	12.88
395.864	12.83
396.072	12.46
396.279	12.38
396.486	12.34
396.693	12.18
396.9	12.31
397.107	12.21
397.314	12.46
397.521	12.47
397.728	12.51
397.935	12.54
398.142	12.58
398.349	12.86
398.556	13.03
398.763	12.94
398.97	13.11
399.177	13.12
399.383	13.17
399.59	13.05
399.797	13.17
400.004	12.98
400.211	13.08
400.418	13.09
400.625	13.09
400.831	12.9
401.038	13.03
401.245	13.06
401.452	12.94
401.658	12.81
401.865	12.86
402.072	12.54
402.279	12.73
402.485	12.79
402.692	12.84
402.899	13.06
403.105	13.3
403.312	13.37
403.519	13.41
403.725	13.36
403.932	13.49
404.138	13.45
404.345	13.65
404.552	13.61
404.758	13.65
404.965	13.71
405.171	13.43
405.378	13.34
405.584	13.15
405.791	13.1
405.997	13.18
406.204	13.12
406.41	13.17
406.617	13.22
406.823	13.31
407.029	13.35
407.236	13.34
407.442	13.35
407.649	13.28
407.855	13.43
408.061	13.29
408.268	13.2
408.474	13.26
408.68	13.39
408.887	13.27
409.093	13.25
409.299	13.16
409.505	12.98
409.712	13.08
409.918	13.17
410.124	13.07
410.33	13.12
410.537	13.36
410.743	13.46
410.949	13.29
411.155	13.35
411.361	13.32
411.567	13.29
411.773	13.45
411.98	13.37
412.186	13.39
412.392	13.53
412.598	13.61
412.804	13.39
413.01	13.35
413.216	13.29
413.422	13.38
413.628	13.47
413.834	13.62
414.04	13.72
414.246	13.8
414.452	13.83
414.658	13.82
414.864	13.78
415.07	13.82
415.275	13.75
415.481	13.84
415.687	13.9
415.893	13.84
416.099	13.75
416.305	13.64
416.511	13.6
416.716	13.55
416.922	13.63
417.128	13.62
417.334	13.75
417.539	13.82
417.745	13.77
417.951	13.62
418.157	13.69
418.362	13.72
418.568	13.8
418.774	13.89
418.979	13.91
419.185	13.94
419.391	13.96
419.596	13.87
419.802	13.86
420.008	13.86
420.213	13.95
420.419	13.92
420.624	13.95
420.83	13.9
421.035	13.88
421.241	13.88
421.446	13.85
421.652	13.83
421.857	13.9
422.063	13.81
422.268	13.9
422.474	13.87
422.679	13.92
422.885	13.86
423.09	13.96
423.295	14
423.501	14.01
423.706	13.91
423.911	13.92
424.117	13.95
424.322	14.03
424.527	14.02
424.733	14.08
424.938	14.04
425.143	14.03
425.349	13.96
425.554	13.85
425.759	13.84
425.964	13.94
426.169	14.01
426.375	13.96
426.58	13.97
426.785	14.08
426.99	14.04
427.195	14.01
427.4	14.11
427.605	14.07
427.811	14.15
428.016	14.17
428.221	14.15
428.426	14.2
428.631	14.26
428.836	14.31
429.041	14.25
429.246	14.21
429.451	14.4
429.656	14.3
429.861	14.49
430.066	14.48
430.271	14.51
430.476	14.55
430.681	14.45
430.886	14.43
431.09	14.38
431.295	14.4
431.5	14.46
431.705	14.38
431.91	14.49
432.115	14.39
432.32	14.55
432.524	14.53
432.729	14.59
432.934	14.58
433.139	14.69
433.343	14.78
433.548	14.83
433.753	14.96
433.958	15.06
434.162	15.05
434.367	15.03
434.572	14.98
434.776	15.04
434.981	15.03
435.186	15.17
435.39	15.1
435.595	15.05
435.799	14.97
436.004	14.84
436.209	14.75
436.413	14.8
436.618	14.87
436.822	15.01
437.027	15.1
437.231	15.15
437.436	15.14
437.64	15.1
437.845	15.2
438.049	15.16
438.253	15.31
438.458	15.29
438.662	15.36
438.867	15.39
439.071	15.3
439.275	15.17
439.48	15.16
439.684	15.14
439.888	15.19
440.093	15.18
440.297	15.17
440.501	15.11
440.706	15.21
440.91	15.23
441.114	15.25
441.318	15.21
441.523	15.25
441.727	15.22
441.931	15.23
442.135	15.22
442.339	15.18
442.543	15.31
442.748	15.27
442.952	15.28
443.156	15.16
443.36	15.22
443.564	15.34
443.768	15.39
443.972	15.41
444.176	15.36
444.38	15.35
444.584	15.4
444.788	15.33
444.992	15.35
445.196	15.35
445.4	15.4
445.604	15.28
445.808	15.25
446.012	15.19
446.216	15.2
446.42	15.24
446.624	15.23
446.828	15.13
447.032	15.15
447.235	15.15
447.439	15.14
447.643	15.07
447.847	15.05
448.051	15.08
448.254	15.16
448.458	15.11
448.662	15.09
448.866	15.14
449.069	15.26
449.273	15.29
449.477	15.37
449.681	15.32
449.884	15.38
450.088	15.47
450.292	15.48
450.495	15.44
450.699	15.47
450.902	15.59
451.106	15.61
451.31	15.5
451.513	15.51
451.717	15.44
451.92	15.41
452.124	15.35
452.327	15.36
452.531	15.3
452.734	15.25
452.938	15.32
453.141	15.3
453.345	15.37
453.548	15.42
453.752	15.41
453.955	15.34
454.158	15.45
454.362	15.53
454.565	15.54
454.769	15.62
454.972	15.75
455.175	15.72
455.379	15.77
455.582	15.69
455.785	15.73
455.988	15.72
456.192	15.93
456.395	15.87
456.598	15.79
456.801	15.8
457.005	15.75
457.208	15.68
457.411	15.72
457.614	15.56
457.817	15.51
458.021	15.53
458.224	15.6
458.427	15.46
458.63	15.5
458.833	15.53
459.036	15.5
459.239	15.55
459.442	15.59
459.645	15.67
459.848	15.75
460.051	15.81
460.254	15.81
460.457	15.81
460.66	15.86
460.863	15.83
461.066	15.84
461.269	15.86
461.472	15.8
461.675	15.73
461.878	15.58
462.081	15.57
462.284	15.57
462.486	15.52
462.689	15.53
462.892	15.57
463.095	15.53
463.298	15.55
463.5	15.62
463.703	15.65
463.906	15.73
464.109	15.72
464.311	15.66
464.514	15.53
464.717	15.61
464.92	15.52
465.122	15.52
465.325	15.57
465.528	15.63
465.73	15.54
465.933	15.41
466.135	15.44
466.338	15.48
466.541	15.59
466.743	15.63
466.946	15.64
467.148	15.69
467.351	15.59
467.553	15.62
467.756	15.65
467.958	15.74
468.161	15.94
468.363	15.89
468.566	16
468.768	15.9
468.971	15.98
469.173	15.98
469.375	15.98
469.578	16.06
469.78	16.03
469.983	16.04
470.185	15.94
470.387	15.81
470.59	15.88
470.792	15.84
470.994	15.88
471.196	15.86
471.399	15.83
471.601	15.75
471.803	15.78
472.005	15.75
472.208	15.77
472.41	15.82
472.612	15.85
472.814	15.85
473.016	15.88
473.218	15.82
473.421	15.92
473.623	15.92
473.825	15.98
474.027	15.92
474.229	16.01
474.431	15.96
474.633	16.12
474.835	16.17
475.037	16.13
475.239	16.12
475.441	16.21
475.643	16.17
475.845	16.25
476.047	16.25
476.249	16.19
476.451	16.25
476.653	16.34
476.855	16.23
477.057	16.09
477.258	16.11
477.46	16.01
477.662	15.94
477.864	15.99
478.066	15.93
478.268	16
478.469	16.04
478.671	16.04
478.873	15.85
479.075	15.75
479.276	15.83
479.478	15.77
479.68	15.85
479.882	15.91
480.083	15.86
480.285	15.85
480.487	15.77
480.688	15.8
480.89	15.76
481.091	15.77
481.293	15.85
481.495	15.91
481.696	15.95
481.898	15.88
482.099	15.87
482.301	15.87
482.502	15.87
482.704	15.89
482.905	15.87
483.107	15.9
483.308	15.91
483.51	15.86
483.711	15.83
483.913	15.78
484.114	15.8
484.315	15.78
484.517	15.75
484.718	15.74
484.92	15.74
485.121	15.74
485.322	15.71
485.524	15.72
485.725	15.74
485.926	15.75
486.127	15.79
486.329	15.75
486.53	15.77
486.731	15.8
486.932	15.8
487.134	15.79
487.335	15.8
487.536	15.81
487.737	15.81
487.938	15.83
488.139	15.85
488.341	15.86
488.542	15.89
488.743	15.92
488.944	15.91
489.145	15.95
489.346	15.97
489.547	15.94
489.748	15.9
489.949	15.91
490.15	15.93
490.351	15.92
490.552	15.95
490.753	15.95
490.954	15.95
491.155	15.91
491.356	15.86
491.557	15.84
491.758	15.86
491.959	15.88
492.159	15.88
492.36	15.84
492.561	15.83
492.762	15.78
492.963	15.77
493.164	15.76
493.364	15.85
493.565	15.9
493.766	15.95
493.967	15.9
494.167	16.02
494.368	16.03
494.569	16.06
494.769	16.11
494.97	16.13
495.171	16.14
495.371	16.17
495.572	16.09
495.773	16.05
495.973	16.03
496.174	16.1
496.375	16
496.575	16.01
496.776	16.02
496.976	15.99
497.177	16.04
497.377	16.05
497.578	16.07
497.778	16.12
497.979	16.2
498.179	16.19
498.38	16.19
498.58	16.28
498.78	16.25
498.981	16.34
499.181	16.32
499.382	16.31
499.582	16.31
499.782	16.28
499.983	16.26
500.183	16.24
500.383	16.29
500.584	16.36
500.784	16.27
500.984	16.36
501.184	16.4
501.385	16.49
501.585	16.49
501.785	16.52
501.985	16.54
502.185	16.55
502.386	16.64
502.586	16.68
502.786	16.65
502.986	16.65
503.186	16.66
503.386	16.59
503.586	16.5
503.786	16.53
503.987	16.53
504.187	16.46
504.387	16.5
504.587	16.48
504.787	16.5
504.987	16.57
505.187	16.63
505.387	16.55
505.587	16.67
505.786	16.69
505.986	16.69
506.186	16.72
506.386	16.82
506.586	16.88
506.786	16.84
506.986	16.76
507.186	16.7
507.386	16.76
507.585	16.82
507.785	16.76
507.985	16.84
508.185	16.82
508.384	16.83
508.584	16.86
508.784	16.81
508.984	16.85
509.183	16.91
509.383	16.94
509.583	16.92
509.782	16.95
509.982	16.87
510.182	16.88
510.381	16.92
510.581	16.91
510.781	16.87
510.98	16.97
511.18	16.94
511.379	16.96
511.579	16.99
511.778	17.05
511.978	17.06
512.177	17.12
512.377	17.14
512.576	17.16
512.776	17.23
512.975	17.29
513.175	17.25
513.374	17.33
513.573	17.33
513.773	17.3
513.972	17.25
514.172	17.36
514.371	17.49
514.57	17.48
514.77	17.57
514.969	17.58
515.168	17.56
515.367	17.55
515.567	17.6
515.766	17.54
515.965	17.58
516.164	17.61
516.364	17.55
516.563	17.5
516.762	17.59
516.961	17.48
517.16	17.47
517.359	17.57
517.559	17.65
517.758	17.68
517.957	17.66
518.156	17.74
518.355	17.69
518.554	17.73
518.753	17.8
518.952	17.8
519.151	17.82
519.35	17.87
519.549	17.81
519.748	17.81
519.947	17.84
520.146	17.94
520.345	17.94
520.544	18.02
520.743	18.06
520.942	18.03
521.141	18.01
521.339	18.08
521.538	18.15
521.737	18.25
521.936	18.29
522.135	18.26
522.333	18.27
522.532	18.24
522.731	18.36
522.93	18.36
523.129	18.45
523.327	18.54
523.526	18.6
523.725	18.51
523.923	18.49
524.122	18.5
524.321	18.46
524.519	18.49
524.718	18.53
524.917	18.5
525.115	18.47
525.314	18.47
525.512	18.45
525.711	18.45
525.909	18.41
526.108	18.41
526.306	18.37
526.505	18.41
526.703	18.38
526.902	18.41
527.1	18.42
527.299	18.43
527.497	18.43
527.696	18.45
527.894	18.45
528.092	18.49
528.291	18.54
528.489	18.55
528.688	18.53
528.886	18.55
529.084	18.54
529.283	18.56
529.481	18.56
529.679	18.54
529.877	18.55
530.076	18.57
530.274	18.6
530.472	18.59
530.67	18.66
530.869	18.74
531.067	18.79
531.265	18.87
531.463	18.9
531.661	19.02
531.859	19.08
532.057	19.1
532.255	19.15
532.454	19.21
532.652	19.23
532.85	19.21
533.048	19.22
533.246	19.22
533.444	19.21
533.642	19.14
533.84	19.11
534.038	19.1
534.236	19.1
534.434	19.12
534.632	19.09
534.83	19.14
535.027	19.17
535.225	19.16
535.423	19.23
535.621	19.22
535.819	19.25
536.017	19.2
536.215	19.21
536.412	19.25
536.61	19.26
536.808	19.28
537.006	19.31
537.203	19.37
537.401	19.47
537.599	19.42
537.797	19.45
537.994	19.57
538.192	19.68
538.39	19.8
538.587	19.8
538.785	19.8
538.983	19.81
539.18	19.86
539.378	19.9
539.575	19.91
539.773	19.99
539.97	20.03
540.168	20
540.366	20.03
540.563	20.01
540.761	20.04
540.958	20.06
541.155	20.13
541.353	20.09
541.55	20.1
541.748	20.12
541.945	20.14
542.143	20.16
542.34	20.25
542.537	20.27
542.735	20.38
542.932	20.44
543.129	20.54
543.327	20.57
543.524	20.69
543.721	20.74
543.919	20.8
544.116	20.94
544.313	21.06
544.51	21.14
544.708	21.32
544.905	21.36
545.102	21.49
545.299	21.54
545.496	21.62
545.693	21.67
545.891	21.69
546.088	21.69
546.285	21.64
546.482	21.62
546.679	21.6
546.876	21.49
547.073	21.47
547.27	21.4
547.467	21.32
547.664	21.25
547.861	21.13
548.058	21.21
548.255	21.12
548.452	21.08
548.649	21.09
548.846	20.98
549.043	20.94
549.24	20.83
549.437	20.89
549.633	20.83
549.83	20.86
550.027	20.82
550.224	20.7
550.421	20.67
550.618	20.53
550.814	20.42
551.011	20.48
551.208	20.48
551.405	20.54
551.601	20.37
551.798	20.35
551.995	20.31
552.191	20.39
552.388	20.4
552.585	20.34
552.781	20.49
552.978	20.58
553.175	20.52
553.371	20.46
553.568	20.53
553.764	20.54
553.961	20.65
554.157	20.59
554.354	20.55
554.55	20.61
554.747	20.83
554.943	20.72
555.14	20.54
555.336	20.57
555.533	20.64
555.729	20.51
555.926	20.54
556.122	20.48
556.318	20.5
556.515	20.48
556.711	20.49
556.907	20.29
557.104	20.29
557.3	20.3
557.496	20.31
557.693	20.33
557.889	20.4
558.085	20.34
558.281	20.31
558.478	20.23
558.674	20.13
558.87	19.94
559.066	20.09
559.262	20.11
559.459	20.18
559.655	20.16
559.851	20.17
560.047	20.16
560.243	20.24
560.439	20.32
560.635	20.42
560.831	20.54
561.027	20.7
561.223	20.68
561.419	20.72
561.615	20.74
561.811	20.82
562.007	20.68
562.203	20.64
562.399	20.67
562.595	20.66
562.791	20.67
562.987	20.67
563.183	20.5
563.379	20.57
563.575	20.59
563.771	20.66
563.966	20.66
564.162	20.74
564.358	20.85
564.554	20.81
564.75	20.78
564.945	20.8
565.141	20.77
565.337	20.81
565.533	20.72
565.728	20.64
565.924	20.62
566.12	20.66
566.315	20.69
566.511	20.51
566.707	20.55
566.902	20.44
567.098	20.47
567.293	20.45
567.489	20.45
567.684	20.57
567.88	20.61
568.076	20.54
568.271	20.5
568.467	20.56
568.662	20.79
568.858	20.73
569.053	20.85
569.248	20.87
569.444	21.03
569.639	21.1
569.835	21.04
570.03	21.04
570.225	21.14
570.421	21.06
570.616	20.94
570.812	20.82
571.007	20.76
571.202	20.65
571.397	20.73
571.593	20.59
571.788	20.58
571.983	20.56
572.178	20.58
572.374	20.5
572.569	20.6
572.764	20.7
572.959	20.77
573.154	20.85
573.35	20.99
573.545	20.94
573.74	20.96
573.935	20.94
574.13	20.96
574.325	20.94
574.52	21.03
574.715	20.96
574.91	20.98
575.105	20.94
575.3	20.99
575.495	21
575.69	20.95
575.885	20.96
576.08	21.03
576.275	21.02
576.47	21.13
576.665	21.11
576.86	21.11
577.055	21.07
577.25	21.09
577.444	21.2
577.639	21.28
577.834	21.46
578.029	21.56
578.224	21.52
578.418	21.45
578.613	21.48
578.808	21.62
579.003	21.77
579.197	21.88
579.392	21.92
579.587	21.81
579.781	21.74
579.976	21.74
580.171	21.75
580.365	21.8
580.56	21.99
580.755	21.99
580.949	21.83
581.144	21.73
581.338	21.72
581.533	21.8
581.727	21.85
581.922	21.84
582.116	21.67
582.311	21.58
582.505	21.6
582.7	21.63
582.894	21.52
583.089	21.75
583.283	21.83
583.478	21.75
583.672	21.84
583.866	21.79
584.061	21.85
584.255	21.91
584.449	22.05
584.644	22.08
584.838	22.1
585.032	22.26
585.226	22.26
585.421	22.28
585.615	22.39
585.809	22.15
586.003	22.3
586.198	22.33
586.392	22.43
586.586	22.47
586.78	22.57
586.974	22.57
587.168	22.54
587.363	22.36
587.557	22.32
587.751	22.48
587.945	22.6
588.139	22.5
588.333	22.33
588.527	22.39
588.721	22.32
588.915	22.15
589.109	22.17
589.303	22.18
589.497	22.21
589.691	22.19
589.885	22
590.079	22.02
590.273	22.13
590.466	22.23
590.66	22.16
590.854	22.06
591.048	22.25
591.242	22.2
591.436	22.29
591.629	22.42
591.823	22.6
592.017	22.7
592.211	22.76
592.404	22.68
592.598	22.76
592.792	22.81
592.986	22.84
593.179	22.72
593.373	22.66
593.567	22.65
593.76	22.53
593.954	22.44
594.147	22.44
594.341	22.36
594.535	22.36
594.728	22.32
594.922	22.26
595.115	22.34
595.309	22.48
595.502	22.5
595.696	22.44
595.889	22.48
596.083	22.48
596.276	22.39
596.47	22.4
596.663	22.41
596.856	22.47
597.05	22.51
597.243	22.45
597.437	22.43
597.63	22.54
597.823	22.55
598.017	22.55
598.21	22.57
598.403	22.64
598.596	22.59
598.79	22.67
598.983	22.66
599.176	22.64
599.369	22.7
599.563	22.67
599.756	22.68
599.949	22.6
600.142	22.7
600.335	22.69
600.528	22.8
600.722	22.92
600.915	22.87
601.108	23.03
601.301	23.06
601.494	23.05
601.687	23
601.88	22.96
602.073	23.01
602.266	22.91
602.459	22.91
602.652	22.83
602.845	22.82
603.038	22.8
603.231	22.61
603.424	22.63
603.617	22.66
603.809	22.64
604.002	22.6
604.195	22.66
604.388	22.63
604.581	22.73
604.774	22.69
604.966	22.69
605.159	22.74
605.352	22.78
605.545	22.67
605.737	22.69
605.93	22.75
606.123	22.91
606.316	22.77
606.508	22.83
606.701	22.67
606.894	22.7
607.086	22.8
607.279	22.88
607.471	23.1
607.664	23.33
607.857	23.52
608.049	23.7
608.242	23.89
608.434	24.35
608.627	24.72
608.819	25.25
609.012	25.86
609.204	26.41
609.397	26.97
609.589	27.75
609.782	28.4
609.974	29.22
610.166	29.96
610.359	30.63
610.551	31.34
610.743	32.09
610.936	32.68
611.128	33.08
611.32	33.46
611.513	33.72
611.705	33.58
611.897	33.58
612.09	33.32
612.282	33.06
612.474	32.79
612.666	32.44
612.858	31.99
613.051	31.55
613.243	31.16
613.435	30.57
613.627	30.1
613.819	29.74
614.011	29.36
614.203	29.01
614.395	28.68
614.588	28.3
614.78	27.95
614.972	27.49
615.164	27.11
615.356	26.56
615.548	26.47
615.74	26.28
615.932	25.91
616.124	25.8
616.315	25.57
616.507	25.45
616.699	25.18
616.891	24.91
617.083	24.8
617.275	24.84
617.467	24.84
617.659	24.58
617.85	24.52
618.042	24.64
618.234	24.69
618.426	24.62
618.618	24.41
618.809	24.51
619.001	24.6
619.193	24.57
619.384	24.49
619.576	24.56
619.768	24.6
619.959	24.64
620.151	24.67
620.343	24.54
620.534	24.56
620.726	24.9
620.917	25
621.109	24.99
621.301	25.2
621.492	25.08
621.684	25.07
621.875	25.23
622.067	24.97
622.258	24.99
622.45	24.78
622.641	24.8
622.832	24.7
623.024	24.51
623.215	24.47
623.407	24.36
623.598	24.41
623.789	24.48
623.981	24.41
624.172	24.62
624.363	24.58
624.555	24.76
624.746	24.79
624.937	24.82
625.129	24.81
625.32	24.83
625.511	24.8
625.702	24.81
625.893	24.8
626.085	24.82
626.276	24.87
626.467	24.91
626.658	24.81
626.849	24.87
627.04	24.73
627.231	24.74
627.422	24.75
627.614	24.82
627.805	24.89
627.996	24.97
628.187	24.98
628.378	24.82
628.569	24.81
628.76	24.95
628.951	25.08
629.142	25.2
629.332	25.35
629.523	25.44
629.714	25.53
629.905	25.63
630.096	25.68
630.287	25.86
630.478	25.92
630.669	25.95
630.859	25.9
631.05	25.52
631.241	25.57
631.432	25.62
631.623	25.46
631.813	25.32
632.004	25.13
632.195	25.03
632.385	24.7
632.576	24.6
632.767	24.45
632.957	24.48
633.148	24.54
633.339	24.3
633.529	24.07
633.72	24.19
633.91	24.03
634.101	23.84
634.292	23.76
634.482	23.88
634.673	23.99
634.863	23.91
635.054	23.94
635.244	23.98
635.435	24.14
635.625	24.23
635.815	24.04
636.006	24.08
636.196	24.09
636.387	24.03
636.577	24.01
636.767	23.92
636.958	24.03
637.148	23.89
637.338	24
637.529	23.97
637.719	23.91
637.909	24
638.099	23.92
638.29	24.09
638.48	23.98
638.67	24.03
638.86	24.11
639.05	24.25
639.241	24.38
639.431	24.22
639.621	24.09
639.811	23.99
640.001	23.83
640.191	24.02
640.381	24.03
640.571	24.25
640.761	24.17
640.951	24.1
641.141	24
641.331	23.92
641.521	24.04
641.711	24.13
641.901	24.12
642.091	24.33
642.281	24.26
642.471	24.34
642.661	24.26
642.851	24.24
643.041	24.11
643.231	23.94
643.42	23.85
643.61	23.7
643.8	23.73
643.99	23.92
644.18	23.9
644.369	24.14
644.559	24.03
644.749	24.03
644.939	24.1
645.128	24.36
645.318	24.48
645.508	24.46
645.697	24.51
645.887	24.39
646.076	24.35
646.266	24.41
646.456	24.25
646.645	24.16
646.835	24.21
647.024	24.05
647.214	23.97
647.403	24.1
647.593	24.25
647.782	24.33
647.972	24.51
648.161	24.49
648.351	24.57
648.54	24.68
648.73	24.88
648.919	24.96
649.108	25.1
649.298	25.15
649.487	24.99
649.677	24.96
649.866	25.05
650.055	25.02
650.244	25.19
650.434	25.11
650.623	25.23
650.812	25.48
651.002	25.65
651.191	25.84
651.38	25.83
651.569	25.93
651.758	25.93
651.947	25.71
652.137	25.84
652.326	25.75
652.515	25.78
652.704	25.68
652.893	25.54
653.082	25.27
653.271	25.26
653.46	25.38
653.649	25.25
653.838	25.26
654.027	25.23
654.216	25.1
654.405	25.05
654.594	24.92
654.783	24.6
654.972	24.53
655.161	24.64
655.35	24.53
655.539	24.38
655.728	24.59
655.916	24.47
656.105	24.55
656.294	24.66
656.483	24.74
656.672	24.96
656.86	25.25
657.049	24.99
657.238	24.86
657.427	24.68
657.615	24.64
657.804	24.46
657.993	24.6
658.181	24.58
658.37	24.43
658.559	24.5
658.747	24.24
658.936	24.22
659.125	24.28
659.313	24.48
659.502	24.47
659.69	24.39
659.879	24.54
660.067	24.48
660.256	24.48
660.444	24.53
660.633	24.52
660.821	24.74
661.01	24.84
661.198	25.13
661.387	25
661.575	25.23
661.763	25.59
661.952	25.61
662.14	25.73
662.328	25.79
662.517	25.72
662.705	25.75
662.893	25.67
663.082	25.67
663.27	25.57
663.458	25.6
663.646	25.51
663.834	25.4
664.023	25.22
664.211	25.45
664.399	25.51
664.587	25.76
664.775	25.8
664.963	25.95
665.152	25.82
665.34	25.87
665.528	25.75
665.716	25.86
665.904	25.98
666.092	26.11
666.28	25.96
666.468	25.98
666.656	25.92
666.844	25.84
667.032	25.65
667.22	25.47
667.408	25.33
667.596	25.6
667.784	25.46
667.971	25.15
668.159	25.2
668.347	25.03
668.535	24.9
668.723	24.78
668.911	24.66
669.098	24.74
669.286	25.06
669.474	25.2
669.662	25.13
669.849	25.25
670.037	25.47
670.225	25.47
670.413	25.46
670.6	25.79
670.788	25.91
670.976	26.06
671.163	26.23
671.351	26.14
671.538	26.18
671.726	26.03
671.913	26.01
672.101	25.87
672.289	26.03
672.476	25.92
672.664	25.74
672.851	25.58
673.039	25.47
673.226	25.39
673.413	25.37
673.601	25.22
673.788	25.43
673.976	25.44
674.163	25.66
674.35	25.54
674.538	25.81
674.725	26
674.912	25.98
675.1	25.92
675.287	26.2
675.474	26.36
675.662	26.53
675.849	26.41
676.036	26.55
676.223	26.67
676.411	26.53
676.598	26.26
676.785	26.11
676.972	26.39
677.159	26.43
677.346	26.13
677.533	26.05
677.721	25.77
677.908	26.16
678.095	25.95
678.282	25.86
678.469	26.11
678.656	26.35
678.843	26.63
679.03	26.43
679.217	26.35
679.404	26.4
679.591	26.49
679.778	26.68
679.964	26.54
680.151	26.86
680.338	26.93
680.525	26.73
680.712	26.81
680.899	26.69
681.086	26.69
681.272	26.96
681.459	27.05
681.646	26.71
681.833	26.77
682.02	26.9
682.206	26.63
682.393	26.34
682.58	26.44
682.766	26.39
682.953	26.36
683.14	26.7
683.326	26.69
683.513	26.64
683.7	26.92
683.886	26.8
684.073	26.37
684.259	26.68
684.446	26.94
684.632	27.06
684.819	26.96
685.005	26.94
685.192	26.55
685.378	26.37
685.565	26.45
685.751	26.41
685.938	26.48
686.124	26.56
686.31	26.09
686.497	26.22
686.683	26.25
686.87	26.4
687.056	26.39
687.242	26.72
687.429	27.02
687.615	27
687.801	27.1
687.987	27.11
688.174	27.46
688.36	27.87
688.546	27.74
688.732	27.72
688.918	27.8
689.105	27.78
689.291	27.51
689.477	27.52
689.663	27.56
689.849	27.54
690.035	27.47
690.221	27.45
690.407	26.99
690.593	27.03
690.779	26.84
690.965	26.81
691.151	26.85
691.337	27.18
691.523	27.22
691.709	27.2
691.895	27.31
692.081	27.53
692.267	27.3
692.453	27.89
692.639	27.89
692.825	28.19
693.011	28.16
693.196	28.03
693.382	27.5
693.568	27.33
693.754	27.36
693.94	27.2
694.125	26.97
694.311	27.02
694.497	26.68
694.682	26.57
694.868	26.48
695.054	26.25
695.239	26.1
695.425	26.56
695.611	26.26
695.796	26
695.982	26.03
696.168	26.16
696.353	26.01
696.539	26.17
696.724	26.06
696.91	25.93
697.095	25.97
697.281	26.2
697.466	26.11
697.652	26.54
697.837	26.85
698.023	26.95
698.208	26.9
698.393	26.92
698.579	26.8
698.764	26.91
698.949	26.93
699.135	27.06
699.32	27.07
699.505	27.12
699.691	26.92
699.876	26.77
700.061	26.76
700.246	26.75
700.432	26.63
700.617	26.58
700.802	26.46
700.987	26.74
701.172	26.89
701.358	26.76
701.543	26.71
701.728	26.87
701.913	26.55
702.098	26.41
702.283	26.45
702.468	26.72
702.653	26.74
702.838	26.8
703.023	26.23
703.208	25.86
703.393	25.92
703.578	26.07
703.763	26.09
703.948	26.57
704.133	26.74
704.318	26.62
704.503	26.97
704.688	27.08
704.873	27.46
705.057	28.01
705.242	28.18
705.427	28.52
705.612	28.68
705.797	28.97
705.981	29.01
706.166	29.14
706.351	29.5
706.536	29.55
706.72	29.75
706.905	29.5
707.09	29.69
707.274	30.18
707.459	30.39
707.644	30.42
707.828	30.12
708.013	30.08
708.197	30.17
708.382	29.93
708.567	29.97
708.751	29.96
708.936	30.39
709.12	30.26
709.305	30.12
709.489	29.45
709.673	29.62
709.858	29.72
710.042	29.9
710.227	29.88
710.411	30.05
710.596	29.78
710.78	29.67
710.964	29.69
711.149	29.6
711.333	29.6
711.517	29.95
711.702	29.85
711.886	29.38
712.07	29.47
712.254	29.48
712.438	29.32
712.623	29.4
712.807	29.66
712.991	29.4
713.175	29.52
713.359	29.51
713.544	29.47
713.728	29.23
713.912	29.64
714.096	29.17
714.28	28.71
714.464	28.76
714.648	28.8
714.832	28.4
715.016	28.23
715.2	27.95
715.384	27.58
715.568	27.57
715.752	27.64
715.936	27.34
716.12	27.59
716.304	27.53
716.488	27.49
716.671	27.1
716.855	26.99
717.039	26.79
717.223	26.74
717.407	26.67
717.59	26.17
717.774	26.18
717.958	26.36
718.142	25.96
718.325	26.5
718.509	26.19
718.693	26.42
718.877	26.91
719.06	27.2
719.244	27.27
719.428	27.37
719.611	28.13
719.795	28.12
719.978	27.29
720.162	27.7
720.345	27.42
720.529	27.22
720.713	27.12
720.896	26.9
721.08	26.65
721.263	26.71
721.446	26.55
721.63	26.15
721.813	25.56
721.997	26.16
722.18	26.06
722.364	26.28
722.547	26.64
722.73	26.65
722.914	26.74
723.097	26.75
723.28	26.74
723.464	26.72
723.647	26.58
723.83	26.88
724.013	26.97
724.197	26.74
724.38	26.44
724.563	26.78
724.746	26.91
724.929	26.7
725.112	26.54
725.296	26.45
725.479	26.93
725.662	27.47
725.845	27.82
726.028	27.83
726.211	27.67
726.394	27.74
726.577	27.7
726.76	27.48
726.943	27.42
727.126	27.59
727.309	27.23
727.492	27.13
727.675	27.17
727.858	26.77
728.041	27.08
728.224	27.22
728.407	27.09
728.589	27.14
728.772	27.16
728.955	27.36
729.138	27.34
729.321	27.77
729.503	27.4
729.686	27.55
729.869	28.21
730.052	28.21
730.234	28.34
730.417	28.66
730.6	28.54
730.782	28.93
730.965	29.25
731.148	29.33
731.33	29.02
731.513	29.35
731.695	29.08
731.878	29
732.061	28.6
732.243	28.36
732.426	28.2
732.608	28.03
732.791	27.76
732.973	27.22
733.156	27.42
733.338	27.95
733.52	27.4
733.703	27.82
733.885	27.16
734.068	27.42
734.25	27.77
734.432	27.55
734.615	27.58
734.797	27.55
734.979	27.64
735.162	27.19
735.344	27.02
735.526	27.6
735.708	26.84
735.891	26.88
736.073	26.25
736.255	26.13
736.437	26.63
736.619	26.94
736.802	26.57
736.984	26.46
737.166	26.75
737.348	26.88
737.53	27.23
737.712	27.12
737.894	27.76
738.076	28.34
738.258	28.61
738.44	28.3
738.622	28.19
738.804	28.52
738.986	28.95
739.168	28.87
739.35	28.83
739.532	28.4
739.714	28.13
739.896	27.95
740.078	28.3
740.259	27.79
740.441	27.84
740.623	28.11
740.805	28.31
740.987	27.88
741.168	28.03
741.35	27.95
741.532	27.87
741.714	28.2
741.895	28.07
742.077	28.19
742.259	28.91
742.44	28.9
742.622	28.77
742.804	28.34
742.985	28.85
743.167	28.19
743.348	27.59
743.53	27.44
743.711	27.37
743.893	27.13
744.075	26.75
744.256	26.3
744.438	26.56
744.619	25.98
744.8	26.14
744.982	25.78
745.163	25.87
745.345	26.11
745.526	27
745.707	27.7
745.889	28.29
746.07	28.16
746.252	28.23
746.433	28.06
746.614	28.11
746.795	28.58
746.977	28.61
747.158	28.79
747.339	29.24
747.52	28.48
747.702	28.11
747.883	28.03
748.064	28.21
748.245	27.98
748.426	27.23
748.607	28
748.788	27.49
748.97	27.49
749.151	28.17
749.332	27.61
749.513	27.67
749.694	27.39
749.875	26.8
750.056	26.15
750.237	26.75
750.418	27.43
750.599	26.68
750.78	27.03
750.96	26.74
751.141	26.27
751.322	26.42
751.503	26.22
751.684	26.88
751.865	27.32
752.046	27.04
752.226	26.96
752.407	27.34
752.588	27.33
752.769	27.12
752.949	27.11
753.13	26.92
753.311	27.81
753.492	27.49
753.672	27.38
753.853	27.44
754.034	28.44
754.214	27.86
754.395	27.99
754.575	28.08
754.756	27.66
754.937	27.92
755.117	28.89
755.298	28.09
755.478	28.22
755.659	27.99
755.839	27.89
756.02	27.75
756.2	27.74
756.381	27.13
756.561	27.39
756.741	28.06
756.922	28.88
757.102	27.65
757.283	28.15
757.463	28.75
757.643	28.62
757.823	28.8
758.004	29.06
758.184	29.24
758.364	28.44
758.545	28.82
758.725	28.58
758.905	27.92
759.085	28.8
759.265	27.65
759.446	28.07
759.626	28.18
759.806	27.65
759.986	27.15
760.166	26.66
760.346	27.52
760.526	26.71
760.706	26.63
760.886	26.29
761.066	26.07
761.246	26.75
761.426	26.01
761.606	26.41
761.786	26.63
761.966	26.75
762.146	27.48
762.326	27.26
762.506	27.21
762.686	27.59
762.866	27.8
763.046	27.59
763.225	27.54
763.405	27.68
763.585	27.48
763.765	27.61
763.945	27.46
764.124	27.71
764.304	27.93
764.484	28.3
764.664	27.72
764.843	28.16
765.023	28.53
765.203	28.65
765.382	28.85
765.562	28.76
765.741	28.82
765.921	28.92
766.101	28.63
766.28	29.26
766.46	29.1
766.639	30.11
766.819	29.77
766.998	29.58
767.178	29.72
767.357	29.89
767.537	29.72
767.716	29.52
767.896	29.62
768.075	29.58
768.254	29.47
768.434	29.86
768.613	29.54
768.792	29.59
768.972	29.92
769.151	29.82
769.33	30.55
769.51	31.07
769.689	31.16
769.868	31.3
770.047	30.65
770.226	30.27
770.406	30.16
770.585	30.48
770.764	29.99
770.943	29.58
771.122	29.59
771.301	28.55
771.48	28.41
771.66	28.7
771.839	28.7
772.018	29.08
772.197	28.81
772.376	28.53
772.555	28.77
772.734	29.34
772.913	29.28
773.092	29.65
773.271	29.5
773.449	29.99
773.628	29.79
773.807	29.78
773.986	30.83
774.165	30.96
774.344	31.74
774.523	30.49
774.701	30.38
774.88	30.12
775.059	29.2
775.238	30.15
775.417	29.47
775.595	29.35
775.774	29.09
775.953	27.45
776.131	27.13
776.31	25.92
776.489	26.23
776.667	26.71
776.846	26.79
777.025	27.57
777.203	26.85
777.382	26.97
777.56	26.85
777.739	27.58
777.917	28.11
778.096	28.03
778.274	27.95
778.453	28.37
778.631	27.99
778.81	27.8
778.988	28.13
779.166	28
779.345	28.02
779.523	27.95
779.702	27.72
779.88	28.26
780.058	28.21
780.237	28.59
780.415	28.82
780.593	29.09
780.771	29.42
780.95	28.87
781.128	28.89
781.306	28.54
781.484	28.76
781.662	28.02
781.841	27.88
782.019	28.36
782.197	28.79
782.375	28.06
782.553	27.98
782.731	28.52
782.909	28.78
783.087	29.01
783.265	29.74
783.443	30.07
783.621	30.51
783.799	30.18
783.977	29.11
784.155	28.21
784.333	28.09
784.511	27.39
784.689	27.19
784.867	26.41
785.045	26.1
785.223	25.65
785.4	25.37
785.578	25.77
785.756	25.17
785.934	26.35
786.112	26.38
786.289	26.35
786.467	26.03
786.645	26.38
786.823	27.44
787	27.66
787.178	27.36
787.356	27.96
787.533	27.55
787.711	28.44
787.889	27.48
788.066	28.25
788.244	29.03
788.421	29.54
788.599	28.57
788.776	28.57
788.954	28.8
789.131	29.22
789.309	28.37
789.486	27.62
789.664	26.96
789.841	26.62
790.019	25.72
790.196	24.51
790.373	24.3
790.551	25.07
790.728	24.5
790.906	24.51
791.083	23.78
791.26	24.07
791.437	24.35
791.615	24.94
791.792	25.48
791.969	27.14
792.146	28.97
792.324	29.71
792.501	30.11
792.678	29.78
792.855	30.23
793.032	31.07
793.209	31.49
793.387	32.6
793.564	32.72
793.741	32.81
793.918	31.59
794.095	30.71
794.272	30.17
794.449	30.13
794.626	30.89
794.803	29.75
794.98	29.41
795.157	29.66
795.334	29.63
795.511	29.45
795.688	29.67
795.864	29.36
796.041	29.1
796.218	28.78
796.395	27.62
796.572	27.46
796.749	26.66
796.925	26.28
797.102	25.99
797.279	25.79
797.456	25.49
797.632	25.7
797.809	26.98
797.986	27.5
798.162	28.09
798.339	28.52
798.516	28.94
798.692	29.45
798.869	29.12
799.046	28.45
799.222	28.18
799.399	27.83
799.575	27.39
799.752	27.01
799.928	26.44
800.105	26.28
800.281	26.21
800.458	25.65
800.634	26.11
800.811	26.47
800.987	26.41
801.163	27.35
801.34	27.91
801.516	27.41
801.692	27.33
801.869	27.95
802.045	26.85
802.221	27.64
802.398	26.54
802.574	25.09
802.75	24.2
802.926	26.01
803.103	25.63
803.279	26.16
803.455	26.4
803.631	26.36
803.807	26.3
803.983	27.22
804.16	25.78
804.336	26.13
804.512	26.31
804.688	29.72
804.864	28.36
805.04	27.76
805.216	26.88
805.392	27.81
805.568	27.72
805.744	27.04
805.92	25.75
806.096	27.06
806.272	28.02
806.448	27.9
806.623	25.85
806.799	25.71
806.975	26.39
807.151	26.34
807.327	25.49
807.503	24.7
807.678	25.73
807.854	26.35
808.03	25.86
808.206	24.06
808.381	24.18
808.557	23.46
808.733	24.57
808.908	24.28
809.084	25.42
809.26	25.59
809.435	25.91
809.611	24.8
809.787	24.95
809.962	25.6
810.138	27.47
810.313	29.95
810.489	29.77
810.664	27.9
810.84	27.95
811.015	26.71
811.191	27.7
811.366	27.38
811.542	26.22
811.717	26.83
811.892	26.56
812.068	26.47
812.243	24.59
812.419	25.63
812.594	26.66
812.769	24.99
812.944	25.17
813.12	23.61
813.295	25.14
813.47	26.66
813.645	26.45
813.821	25.99
813.996	26.5
814.171	26.06
814.346	24.09
814.521	23.9
814.697	25.41
814.872	25.47
815.047	25.69
815.222	25.21
815.397	24.43
815.572	24.85
815.747	23.89
815.922	21.73
816.097	21.82
816.272	23.14
816.447	22.14
816.622	21.35
816.797	22.38
816.972	22.76
817.147	21.8
817.322	22.51
817.496	20.09
817.671	20.64
817.846	22.24
818.021	22.51
818.196	23.51
818.371	24.34
818.545	24.44
818.72	23.31
818.895	23.21
819.069	24.04
819.244	23.14
819.419	25.51
819.594	25.59
819.768	25.41
819.943	26.46
820.117	26
820.292	25.17
820.467	25.62
820.641	26.06
820.816	25.93
820.99	25.68
821.165	25.98
821.339	25.83
821.514	26.06
821.688	26.04
821.863	26.2
822.037	26.41
822.212	26.96
822.386	26.95
822.56	27.03
822.735	27.26
822.909	27.28
823.084	27.2
823.258	27.2
823.432	27.11
823.606	27.09
823.781	26.85
823.955	26.76
824.129	26.39
824.303	26.02
824.478	25.77
824.652	25.54
824.826	25.14
825	25.21
825.174	24.79
825.348	24.8
825.523	24.85
825.697	24.71
825.871	24.63
826.045	24.6
826.219	25.12
826.393	25.41
826.567	25.25
826.741	25.44
826.915	25.63
827.089	25.64
827.263	25.82
827.437	25.97
827.611	26.15
827.784	26.22
827.958	25.91
828.132	26
828.306	25.78
828.48	26.37
828.654	26.73
828.827	26.39
829.001	27.15
829.175	26.51
829.349	25.97
829.522	26.03
829.696	25.88
829.87	26.16
830.044	25.61
830.217	25.9
830.391	24.85
830.565	23.8
830.738	24.17
830.912	22.75
831.085	23.26
831.259	23.75
831.432	22.98
831.606	22.21
831.779	21.93
831.953	21.87
832.126	20.7
832.3	20.4
832.473	21.62
832.647	21.19
832.82	22.04
832.994	21.69
833.167	21.55
833.34	21.69
833.514	22.04
833.687	23.4
833.86	23.73
834.034	24.09
834.207	24.28
834.38	24.26
834.553	24.98
834.727	24.58
834.9	25.23
835.073	25.46
835.246	26.3
835.419	26.74
835.593	25.44
835.766	25.42
835.939	26.25
836.112	26.41
836.285	26.28
836.458	25.83
836.631	26.48
836.804	25.54
836.977	26.27
837.15	25.31
837.323	24.83
837.496	25.53
837.669	24.47
837.842	21.9
838.015	20.52
838.188	20.37
838.361	18.85
838.533	18.83
838.706	19.87
838.879	17.65
839.052	17.83
839.225	18.26
839.398	18.43
839.57	19.46
839.743	20.82
839.916	20.88
840.088	20.52
840.261	22.1
840.434	21.32
840.607	20.69
840.779	21.3
840.952	21.24
841.124	19.46
841.297	19.57
841.47	18.12
841.642	16.69
841.815	17.97
841.987	20.34
842.16	18.17
842.332	19.9
842.505	19.16
842.677	19.69
842.85	17.15
843.022	19.26
843.194	19.86
843.367	22.44
843.539	24.99
843.712	22.78
843.884	20
844.056	22.56
844.229	20.48
844.401	20.74
844.573	20.5
844.745	24.48
844.918	21.37
845.09	20.96
845.262	20.66
845.434	18.73
845.606	20.27
845.779	21.32
845.951	22.18
846.123	20.99
846.295	20.83
846.467	17.59
846.639	18.2
846.811	21.44
846.983	20.49
847.155	17.85
847.327	18.28
847.499	18.75
847.671	17.23
847.843	11.67
848.015	10.12
848.187	11.55
848.359	15.47
848.531	13.34
848.703	14.13
848.875	14.68
849.047	15.57
849.218	15.15
849.39	16.78
849.562	14.34
849.734	18.3
849.905	21.58
850.077	24.64
850.249	25.12
850.421	25.31
850.592	26.65
850.764	27.23
850.936	29.58
851.107	34.32
851.279	33.96
851.451	37.77
851.622	34.78
851.794	31.61
851.965	27.62
852.137	26.33
852.308	25.65
852.48	24.1
852.651	23.62
852.823	24.56
852.994	21.14
853.166	22.38
853.337	22.77
853.509	24.12
853.68	23.76
853.851	29.18
854.023	33.44
854.194	34.53
854.365	35.7
854.537	34.13
854.708	33.52
854.879	37.83
855.05	37.57
855.222	36.8
855.393	35.04
855.564	35.51
855.735	29.01
855.906	24.57
856.078	24.25
856.249	21.53
856.42	22.17
856.591	20.09
856.762	16.81
856.933	15.88
857.104	15.38
857.275	18.39
857.446	18.82
857.617	24.75
857.788	27.76
857.959	29.23
858.13	31.5
858.301	29.99
858.472	35.33
858.643	31.48
858.814	32.65
858.985	34.57
859.155	31.04
859.326	32.13
859.497	28.99
859.668	24.57
859.839	23.99
860.009	21.78
860.18	25.51
860.351	20.03
860.522	22.95
860.692	17.95
860.863	12.32
861.034	13.42
861.204	11.57
861.375	9.17
861.546	12.25
861.716	9.59
861.887	10.93
862.057	12.54
862.228	15.71
862.398	15.39
862.569	18.91
862.739	23.06
862.91	20.22
863.08	20.28
863.251	21.91
863.421	23.59
863.592	26.82
863.762	27.98
863.932	27
864.103	29.94
864.273	33.23
864.443	34
864.614	32.76
864.784	35.7
864.954	38.17
865.125	39
865.295	38.39
865.465	37.57
865.635	38.14
865.805	37.24
865.976	34.25
866.146	29.6
866.316	28.42
866.486	31.68
866.656	32.51
866.826	33.27
866.996	29.66
867.166	31.79
867.336	31.42
867.506	29.45
867.676	28.1
867.846	26.97
868.016	25.77
868.186	32.35
868.356	26.56
868.526	22.67
868.696	20.04
868.866	21.77
869.036	18.29
869.206	16.28
869.376	19.23
869.545	17.58
869.715	17.54
869.885	20.11
870.055	13.9
870.224	14.66
870.394	15.23
870.564	16.89
870.734	17.52
870.903	14.66
871.073	16.32
871.243	16.84
871.412	18.9
871.582	22.18
871.751	24.6
871.921	24.3
872.091	26.3
872.26	29.47
872.43	25.98
872.599	25.37
872.769	29.83
872.938	29.51
873.108	29.32
873.277	28.54
873.446	27.56
873.616	29.16
873.785	30.76
873.955	32.71
874.124	29.55
874.293	33.7
874.463	36.41
874.632	40.21
874.801	40.51
874.971	40.72
875.14	43.5
875.309	43.93
875.478	41.34
875.647	37.47
875.817	37.37
875.986	37.24
876.155	35.52
876.324	32.02
876.493	25.34
876.662	21.45
876.831	20.12
877	15.88
877.17	14.1
877.339	10.47
877.508	14.04
877.677	14.09
877.846	17.53
878.015	15.62
878.184	16
878.352	15.61
878.521	17.26
878.69	17.52
878.859	18.07
879.028	16.64
879.197	18.87
879.366	20.22
879.534	21.94
879.703	19.78
879.872	21.96
880.041	21.43
880.21	22.21
880.378	22.9
880.547	21.04
880.716	21.77
880.884	22.95
881.053	22.34
881.222	22.04
881.39	20.57
881.559	20.45
881.727	19.7
881.896	20.28
882.065	21.01
882.233	20.25
882.402	20.85
882.57	21.14
882.739	20.15
882.907	19.9
883.076	19.2
883.244	19.57
883.412	20.23
883.581	20.85
883.749	21.05
883.918	20.37
884.086	21.47
884.254	20.52
884.423	20.14
884.591	21.04
884.759	20.92
884.927	21.2
885.096	20
885.264	20.75
885.432	19.96
885.6	20.17
885.769	17.54
885.937	16.05
886.105	17.44
886.273	14.92
886.441	14.99
886.609	17.94
886.777	20.55
886.945	23.35
887.113	19.65
887.281	18.9
887.449	18.16
887.617	20.07
887.785	18.27
887.953	18.02
888.121	23.63
888.289	20.06
888.457	16.61
888.625	14.85
888.793	14.73
888.961	14.7
889.129	13.05
889.296	7.41
889.464	10.67
889.632	13.43
889.8	12.1
889.967	3.32
890.135	7.32
