Data from 2938832__Reflection_02.txt Node
Date: Thu Mar 12 12:01:13 EDT 2015
User: robert
Spectrometer: USB4E03002
Autoset integration time: false
Trigger mode: 4
Integration Time (sec): 1.000000E-1
Scans to average: 10
Electric dark correction enabled: false
Nonlinearity correction enabled: false
Boxcar width: 5
Stray light correction enabled: false
XAxis mode: Wavelengths
Stop averaging: false
Number of Pixels in Spectrum: 3648
>>>>>Begin Spectral Data<<<<<
177.575	145.99
177.794	157.53
178.014	147.69
178.233	142.95
178.452	130.59
178.672	120.78
178.891	139.16
179.11	180.36
179.33	207.1
179.549	89.86
179.768	118.78
179.987	91.95
180.207	78.78
180.426	107.74
180.645	177.34
180.864	-685.71
181.084	340.3
181.303	54.49
181.522	23.75
181.741	8.38
181.96	14.38
182.179	-107.54
182.398	-201.86
182.618	-127.14
182.837	-588.75
183.056	-84.24
183.275	-107.29
183.494	-84
183.713	-23.32
183.932	-9.89
184.151	29.27
184.37	26.36
184.589	17.79
184.808	39.49
185.027	58.7
185.246	54.62
185.465	44.36
185.684	65.63
185.903	53.55
186.122	46.03
186.341	61.29
186.56	40.27
186.779	41.77
186.998	32.04
187.216	8.28
187.435	-5.6
187.654	-8.94
187.873	-61.34
188.092	-63.68
188.311	-34.7
188.53	-42.45
188.748	-37.34
188.967	4.55
189.186	4.81
189.405	41.94
189.623	55.86
189.842	41.62
190.061	60.57
190.28	40.91
190.498	49.28
190.717	47.68
190.936	45.88
191.154	31.01
191.373	48.38
191.592	68.5
191.81	90.24
192.029	124.72
192.248	226.47
192.466	146.72
192.685	297.61
192.904	280.69
193.122	183.23
193.341	119.14
193.559	112.38
193.778	60.5
193.996	49.54
194.215	21.38
194.433	26.6
194.652	19.3
194.87	10.73
195.089	-15.41
195.307	-23.99
195.526	-32.69
195.744	-31.73
195.963	6.6
196.181	7.72
196.399	23.03
196.618	-34.78
196.836	154.55
197.055	-131.17
197.273	-77.06
197.491	-4.94
197.71	105.3
197.928	23.33
198.146	6.09
198.365	-41.49
198.583	-25.32
198.801	-17.87
199.019	-3.21
199.238	-18.09
199.456	-29.23
199.674	-35.32
199.892	7.82
200.111	11.31
200.329	8.89
200.547	21.04
200.765	49.31
200.983	50.96
201.202	63.1
201.42	70.63
201.638	86.72
201.856	68.64
202.074	71.34
202.292	54.32
202.51	-22.7
202.728	28.81
202.946	37.97
203.165	27.82
203.383	60.82
203.601	41.57
203.819	11.3
204.037	7.28
204.255	36.38
204.473	48.32
204.691	59.94
204.909	78.13
205.127	76.73
205.345	93.25
205.562	88.97
205.78	65.83
205.998	67.7
206.216	85.31
206.434	74.22
206.652	58.43
206.87	52.9
207.088	50.12
207.306	48.22
207.523	56.82
207.741	34.8
207.959	28.61
208.177	25.23
208.395	13.18
208.612	13.36
208.83	28.12
209.048	42.01
209.266	42.99
209.483	52.92
209.701	32.05
209.919	34.59
210.136	3.4
210.354	-4.37
210.572	14.4
210.79	28.14
211.007	20.85
211.225	5.56
211.442	-6.51
211.66	13.88
211.878	-4.23
212.095	106.92
212.313	90.8
212.53	99.48
212.748	92.83
212.966	93.52
213.183	86.48
213.401	78.55
213.618	85.29
213.836	74.28
214.053	74.19
214.271	78.76
214.488	1.47
214.705	-1.05
214.923	-10.36
215.14	-8.67
215.358	-21.89
215.575	1.74
215.793	1.73
216.01	6.49
216.227	9.24
216.445	-16.92
216.662	-26.49
216.879	-38.44
217.097	-39.35
217.314	-16.16
217.531	-10.78
217.749	4.31
217.966	-8.54
218.183	-2.2
218.4	-5.78
218.618	7.71
218.835	21.08
219.052	14.71
219.269	13.27
219.487	7.6
219.704	15.51
219.921	4.88
220.138	9.99
220.355	6.72
220.572	22.15
220.79	30.14
221.007	11.45
221.224	18.69
221.441	26.05
221.658	25.87
221.875	27.9
222.092	17.45
222.309	23.77
222.526	20.8
222.743	17.76
222.96	10.62
223.177	4.71
223.394	15.27
223.611	8.25
223.828	9.79
224.045	8.48
224.262	9.49
224.479	12.66
224.696	7.75
224.913	12.03
225.13	17.14
225.347	16.82
225.564	19.67
225.781	16.31
225.997	13.71
226.214	14.47
226.431	13.02
226.648	11.83
226.865	9.14
227.082	10.42
227.298	8.22
227.515	6.72
227.732	8.2
227.949	7.81
228.165	7.23
228.382	8.64
228.599	7.65
228.816	7.07
229.032	7.53
229.249	8.29
229.466	6.94
229.682	7.29
229.899	7.44
230.116	7.64
230.332	7.26
230.549	7.36
230.765	6.97
230.982	7.94
231.199	8.72
231.415	7.11
231.632	7.61
231.848	9.29
232.065	9.97
232.281	10.13
232.498	8.25
232.714	8.12
232.931	7.07
233.147	6.21
233.364	4.23
233.58	4.46
233.797	5.9
234.013	5.49
234.23	5.56
234.446	6.3
234.662	6.91
234.879	7.08
235.095	8.83
235.312	9.35
235.528	9.3
235.744	8.74
235.961	8.29
236.177	7.93
236.393	8.12
236.61	8.59
236.826	8.26
237.042	7.24
237.258	8.22
237.475	6.93
237.691	6.1
237.907	5.75
238.123	6
238.339	6.87
238.556	6.61
238.772	6.79
238.988	6.32
239.204	5.72
239.42	5.49
239.636	4.16
239.853	3.4
240.069	4
240.285	4.66
240.501	4.33
240.717	4.76
240.933	5.26
241.149	5.34
241.365	5.48
241.581	5.6
241.797	5.73
242.013	5.91
242.229	6.21
242.445	6.17
242.661	6.34
242.877	7.1
243.093	6.28
243.309	6.1
243.525	6.09
243.741	5.48
243.957	4.97
244.173	5.03
244.388	5.03
244.604	4.23
244.82	4.38
245.036	4.16
245.252	3.59
245.468	4.62
245.683	4.87
245.899	4.82
246.115	5.21
246.331	5.46
246.547	5.86
246.762	5.81
246.978	6.44
247.194	6.63
247.409	6.62
247.625	6.75
247.841	6.71
248.057	6.58
248.272	6.35
248.488	6.55
248.703	6.51
248.919	6.53
249.135	6.56
249.35	6.34
249.566	6.19
249.782	6.41
249.997	6.61
250.213	6.32
250.428	6.44
250.644	6.38
250.859	6.53
251.075	6.67
251.29	6.77
251.506	7.07
251.721	7.04
251.937	6.38
252.152	6.13
252.368	6.09
252.583	6.53
252.798	6.9
253.014	7.65
253.229	7.48
253.445	7.62
253.66	7.78
253.875	7.7
254.091	7.89
254.306	7.98
254.521	8.01
254.737	8.14
254.952	7.72
255.167	6.85
255.383	6.64
255.598	5.93
255.813	5.69
256.028	3.49
256.244	3.75
256.459	2.62
256.674	3.41
256.889	4.27
257.104	4.06
257.32	5.04
257.535	5.15
257.75	4.47
257.965	4.36
258.18	4.01
258.395	4.6
258.61	4.84
258.826	5.23
259.041	4.98
259.256	4.45
259.471	4.77
259.686	4.13
259.901	4.44
260.116	4.55
260.331	4.64
260.546	4.88
260.761	4.87
260.976	4.59
261.191	4.46
261.406	4.74
261.621	4.98
261.836	4.98
262.05	5.32
262.265	4.48
262.48	4.25
262.695	4.37
262.91	4.22
263.125	3.94
263.34	4.05
263.555	3.68
263.769	3.32
263.984	2.66
264.199	2.02
264.414	2.32
264.629	3.04
264.843	3.5
265.058	3.25
265.273	3.15
265.488	3.49
265.702	3.6
265.917	4.16
266.132	4.28
266.346	4.97
266.561	4.94
266.776	4.29
266.99	4.92
267.205	4.73
267.42	4.46
267.634	4.37
267.849	4.18
268.063	3.91
268.278	3.85
268.492	4.1
268.707	3.57
268.922	3.6
269.136	4.19
269.351	4.24
269.565	4.37
269.78	4.52
269.994	4.43
270.209	4.68
270.423	4.37
270.637	3.95
270.852	3.74
271.066	3.86
271.281	4.02
271.495	3.97
271.709	3.21
271.924	3.04
272.138	3.15
272.353	3.05
272.567	2.85
272.781	3.05
272.996	3.28
273.21	3.38
273.424	3.5
273.638	3.37
273.853	2.93
274.067	3.01
274.281	3.15
274.495	2.93
274.71	3.43
274.924	3.18
275.138	3.42
275.352	3.11
275.566	2.77
275.781	2.6
275.995	2.37
276.209	2.96
276.423	2.73
276.637	2.09
276.851	1.99
277.065	2.13
277.279	2.39
277.493	2.39
277.707	2.84
277.921	2.63
278.135	2.54
278.349	2.32
278.563	2.39
278.777	2.34
278.991	2.72
279.205	3.13
279.419	2.58
279.633	2.45
279.847	2.53
280.061	2.22
280.275	2.64
280.489	3.01
280.703	3.45
280.917	3.29
281.131	4.04
281.344	4.23
281.558	4.29
281.772	4.31
281.986	4.76
282.2	4.49
282.414	4.98
282.627	4.74
282.841	4.63
283.055	4.47
283.269	4.15
283.482	3.64
283.696	3.65
283.91	3.49
284.123	4.28
284.337	4.03
284.551	3.98
284.764	3.68
284.978	3.68
285.192	3.49
285.405	3.26
285.619	3.64
285.833	3.76
286.046	3.63
286.26	3.68
286.473	2.8
286.687	2.69
286.9	2.84
287.114	2.67
287.327	2.71
287.541	3
287.754	3.27
287.968	3.27
288.181	3.4
288.395	3.48
288.608	3.37
288.822	4.13
289.035	4.24
289.248	4.2
289.462	4.63
289.675	4.51
289.889	4.61
290.102	4.7
290.315	4.36
290.529	4.47
290.742	4.35
290.955	4.29
291.169	3.8
291.382	4.07
291.595	4.09
291.808	4.05
292.022	4.33
292.235	4.31
292.448	4.27
292.661	4.86
292.875	4.9
293.088	5.25
293.301	5.92
293.514	6.13
293.727	6.22
293.94	6.38
294.153	6.21
294.367	6.1
294.58	6.24
294.793	6.28
295.006	5.83
295.219	5.73
295.432	5.59
295.645	5.35
295.858	5.48
296.071	5.49
296.284	5.59
296.497	5.61
296.71	5.58
296.923	5.31
297.136	5.34
297.349	5.39
297.562	5.46
297.775	5.53
297.988	5.58
298.201	5.47
298.414	5.53
298.626	5.51
298.839	5.69
299.052	5.87
299.265	6.23
299.478	6.08
299.691	6.44
299.903	6.76
300.116	7
300.329	7
300.542	6.98
300.755	6.88
300.967	6.71
301.18	6.78
301.393	6.8
301.605	6.7
301.818	6.88
302.031	6.99
302.243	6.76
302.456	6.4
302.669	6.25
302.881	6.55
303.094	6.4
303.307	6.65
303.519	6.38
303.732	6.54
303.944	6.27
304.157	5.88
304.37	5.43
304.582	5.5
304.795	5.75
305.007	5.89
305.22	5.82
305.432	6.39
305.645	6.68
305.857	6.99
306.069	6.83
306.282	7.17
306.494	7.94
306.707	8.17
306.919	7.97
307.132	8.19
307.344	8.67
307.556	8.8
307.769	8.16
307.981	8.02
308.193	7.64
308.406	7.75
308.618	8.12
308.83	7.93
309.043	7.94
309.255	8.17
309.467	7.95
309.679	7.66
309.892	7.66
310.104	7.84
310.316	7.55
310.528	7.67
310.74	7.53
310.953	7.34
311.165	7.52
311.377	7.59
311.589	7.47
311.801	7.51
312.013	7.44
312.225	7.78
312.437	7.96
312.649	8.33
312.862	8.88
313.074	9.08
313.286	9.27
313.498	9.36
313.71	9.42
313.922	9.54
314.134	9.75
314.346	10.34
314.558	9.93
314.77	9.69
314.982	9.47
315.193	9.05
315.405	9.08
315.617	8.78
315.829	8.51
316.041	8.39
316.253	8.09
316.465	7.77
316.677	7.77
316.888	7.82
317.1	7.79
317.312	7.9
317.524	7.74
317.736	7.65
317.947	7.66
318.159	7.85
318.371	7.94
318.583	7.97
318.794	8.14
319.006	7.63
319.218	7.54
319.43	7.34
319.641	7.39
319.853	7.88
320.064	8.44
320.276	8.23
320.488	8.01
320.699	8.24
320.911	8.66
321.123	8.65
321.334	8.5
321.546	8.29
321.757	8.55
321.969	8.54
322.18	8.44
322.392	8.25
322.603	8.37
322.815	8.4
323.026	8.42
323.238	8.46
323.449	8.74
323.661	9.04
323.872	9.25
324.083	9.47
324.295	9.41
324.506	9.53
324.718	9.59
324.929	9.71
325.14	10.12
325.352	9.84
325.563	10.18
325.774	10.14
325.986	10.1
326.197	10.18
326.408	10.04
326.62	9.89
326.831	10.12
327.042	10.03
327.253	10.31
327.464	10.43
327.676	10.93
327.887	10.99
328.098	10.88
328.309	10.8
328.52	10.99
328.732	11.28
328.943	11.88
329.154	11.86
329.365	12.28
329.576	12.38
329.787	12.3
329.998	12.56
330.209	12.47
330.42	13.27
330.631	13.81
330.842	14.13
331.053	14.29
331.264	14.46
331.475	14.14
331.686	14.29
331.897	14.63
332.108	14.51
332.319	14.45
332.53	14.34
332.741	14.34
332.952	13.98
333.163	13.73
333.374	13.73
333.585	13.54
333.795	13.89
334.006	13.95
334.217	13.8
334.428	13.74
334.639	14.02
334.849	14.25
335.06	14.25
335.271	14.33
335.482	14.57
335.692	14.96
335.903	14.67
336.114	14.61
336.325	14.29
336.535	14.06
336.746	14.08
336.957	13.36
337.167	13.22
337.378	12.87
337.589	13.13
337.799	12.78
338.01	12.36
338.22	12.77
338.431	12.85
338.642	12.68
338.852	13.06
339.063	13.15
339.273	13.73
339.484	13.89
339.694	14.19
339.905	14.09
340.115	14.17
340.326	14.32
340.536	14.07
340.746	14.06
340.957	14.31
341.167	14.4
341.378	14.62
341.588	14.29
341.799	14.05
342.009	13.96
342.219	13.86
342.43	13.82
342.64	14.03
342.85	14.39
343.061	14.22
343.271	14.25
343.481	13.83
343.691	13.38
343.902	13.16
344.112	13.35
344.322	13.32
344.532	13.76
344.743	13.98
344.953	14.08
345.163	13.9
345.373	13.83
345.583	13.72
345.793	13.76
346.004	14.03
346.214	13.95
346.424	14
346.634	13.84
346.844	13.77
347.054	13.96
347.264	13.35
347.474	13.4
347.684	13.33
347.894	13.16
348.104	13.14
348.314	13.15
348.524	13.56
348.734	13.25
348.944	13.2
349.154	12.94
349.364	12.43
349.574	12.61
349.784	11.95
349.994	12.04
350.204	12.32
350.413	12.35
350.623	12.26
350.833	12.24
351.043	12.24
351.253	12.36
351.463	12
351.672	12.18
351.882	12.13
352.092	12.35
352.302	12.27
352.511	12.22
352.721	12.18
352.931	12.19
353.141	12.12
353.35	12.06
353.56	11.99
353.77	12.2
353.979	12.01
354.189	12.07
354.399	12.05
354.608	12.22
354.818	12.5
355.027	12.47
355.237	12.19
355.447	12.3
355.656	12.66
355.866	12.66
356.075	12.72
356.285	12.75
356.494	12.7
356.704	12.74
356.913	12.7
357.123	12.21
357.332	12.14
357.542	12.39
357.751	12.53
357.96	12.23
358.17	12.22
358.379	12.22
358.589	12.15
358.798	12.09
359.007	11.94
359.217	11.8
359.426	11.93
359.635	11.87
359.845	11.79
360.054	11.48
360.263	11.45
360.472	11.4
360.682	11.36
360.891	11.57
361.1	11.79
361.309	11.89
361.519	11.97
361.728	11.85
361.937	11.87
362.146	11.63
362.355	11.65
362.564	11.75
362.774	11.69
362.983	11.49
363.192	11.25
363.401	11.02
363.61	11.23
363.819	11.14
364.028	11.33
364.237	11.34
364.446	11.63
364.655	11.44
364.864	11.2
365.073	11.14
365.282	11.36
365.491	11.69
365.7	11.75
365.909	11.43
366.118	11.59
366.327	11.47
366.536	11.42
366.745	11.46
366.954	11.68
367.162	11.98
367.371	12.16
367.58	12.12
367.789	11.67
367.998	11.63
368.207	11.78
368.415	11.55
368.624	11.38
368.833	11.48
369.042	11.37
369.25	11.33
369.459	11.11
369.668	11.04
369.877	11.08
370.085	11.42
370.294	11.31
370.503	11.18
370.711	11.33
370.92	11.4
371.129	11.33
371.337	11.14
371.546	11.12
371.754	11.15
371.963	10.9
372.171	10.83
372.38	10.53
372.589	10.58
372.797	10.45
373.006	10.3
373.214	10.41
373.423	10.49
373.631	10.63
373.84	10.74
374.048	10.62
374.256	11.04
374.465	11.02
374.673	11.2
374.882	11.21
375.09	11.25
375.298	11.14
375.507	10.96
375.715	10.74
375.923	10.78
376.132	10.33
376.34	10.28
376.548	9.96
376.757	9.93
376.965	9.81
377.173	9.74
377.381	9.7
377.59	9.62
377.798	9.6
378.006	9.61
378.214	9.51
378.423	9.62
378.631	9.85
378.839	9.8
379.047	9.81
379.255	9.91
379.463	9.78
379.671	9.8
379.879	9.88
380.088	9.98
380.296	9.91
380.504	9.83
380.712	9.82
380.92	9.6
381.128	9.64
381.336	9.18
381.544	9.01
381.752	8.96
381.96	8.92
382.168	9
382.376	8.83
382.584	8.78
382.791	8.8
382.999	8.75
383.207	8.75
383.415	8.82
383.623	9.27
383.831	9.3
384.039	9.4
384.247	9.24
384.454	9.23
384.662	9.1
384.87	9.14
385.078	9.13
385.285	9.1
385.493	8.92
385.701	8.69
385.909	8.4
386.116	8.3
386.324	8.18
386.532	8.41
386.739	8.25
386.947	8.34
387.155	8.31
387.362	8.14
387.57	8.36
387.778	8.58
387.985	8.71
388.193	8.62
388.4	8.67
388.608	8.83
388.816	8.61
389.023	8.58
389.231	8.64
389.438	8.61
389.646	8.94
389.853	8.68
390.061	8.8
390.268	8.74
390.475	8.89
390.683	9.03
390.89	8.82
391.098	8.95
391.305	8.93
391.512	8.86
391.72	8.72
391.927	8.62
392.135	8.81
392.342	8.71
392.549	8.66
392.756	8.72
392.964	8.43
393.171	8.5
393.378	8.43
393.586	8.49
393.793	8.41
394	8.5
394.207	8.25
394.414	8.26
394.622	8.16
394.829	8.15
395.036	8.27
395.243	8.26
395.45	8.28
395.657	8.24
395.864	8.26
396.072	8.25
396.279	8.24
396.486	8.34
396.693	8.39
396.9	8.36
397.107	8.49
397.314	8.34
397.521	8.57
397.728	8.61
397.935	8.55
398.142	8.62
398.349	8.63
398.556	8.5
398.763	8.59
398.97	8.34
399.177	8.22
399.383	8.11
399.59	7.81
399.797	7.85
400.004	7.8
400.211	7.88
400.418	7.65
400.625	7.74
400.831	7.79
401.038	7.83
401.245	7.84
401.452	8
401.658	8.02
401.865	8.18
402.072	7.95
402.279	8.04
402.485	8.04
402.692	8.17
402.899	8.07
403.105	8.16
403.312	8
403.519	7.95
403.725	8.03
403.932	8.24
404.138	8.25
404.345	8.22
404.552	8.03
404.758	7.88
404.965	7.74
405.171	7.63
405.378	7.54
405.584	7.69
405.791	7.82
405.997	7.71
406.204	7.45
406.41	7.68
406.617	7.74
406.823	7.69
407.029	7.89
407.236	7.92
407.442	8.12
407.649	8.28
407.855	8.23
408.061	8.22
408.268	8.22
408.474	8.22
408.68	8.1
408.887	8.09
409.093	8.23
409.299	8.07
409.505	8.19
409.712	8.06
409.918	7.96
410.124	7.96
410.33	7.97
410.537	8.07
410.743	8.04
410.949	7.88
411.155	7.94
411.361	7.93
411.567	7.88
411.773	7.9
411.98	7.93
412.186	7.93
412.392	7.92
412.598	7.98
412.804	7.81
413.01	8.03
413.216	8.19
413.422	8.2
413.628	8.33
413.834	8.53
414.04	8.47
414.246	8.51
414.452	8.61
414.658	8.48
414.864	8.35
415.07	8.4
415.275	8.35
415.481	8.23
415.687	8.4
415.893	8.32
416.099	8.36
416.305	8.31
416.511	8.37
416.716	8.28
416.922	8.34
417.128	8.46
417.334	8.45
417.539	8.37
417.745	8.3
417.951	7.98
418.157	7.97
418.362	7.99
418.568	8.04
418.774	7.97
418.979	7.98
419.185	7.94
419.391	7.79
419.596	7.74
419.802	7.79
420.008	7.85
420.213	7.99
420.419	8.05
420.624	7.99
420.83	7.96
421.035	8
421.241	8.01
421.446	8.04
421.652	8.04
421.857	8.17
422.063	8.18
422.268	8.23
422.474	8.28
422.679	8.22
422.885	8.24
423.09	8.31
423.295	8.36
423.501	8.38
423.706	8.4
423.911	8.47
424.117	8.34
424.322	8.33
424.527	8.39
424.733	8.39
424.938	8.38
425.143	8.47
425.349	8.38
425.554	8.31
425.759	8.33
425.964	8.38
426.169	8.37
426.375	8.45
426.58	8.49
426.785	8.46
426.99	8.5
427.195	8.52
427.4	8.36
427.605	8.48
427.811	8.49
428.016	8.42
428.221	8.44
428.426	8.47
428.631	8.41
428.836	8.28
429.041	8.21
429.246	8.16
429.451	8.24
429.656	8.35
429.861	8.33
430.066	8.46
430.271	8.45
430.476	8.38
430.681	8.37
430.886	8.42
431.09	8.51
431.295	8.57
431.5	8.51
431.705	8.5
431.91	8.43
432.115	8.37
432.32	8.26
432.524	8.34
432.729	8.28
432.934	8.37
433.139	8.4
433.343	8.52
433.548	8.55
433.753	8.61
433.958	8.59
434.162	8.63
434.367	8.72
434.572	8.69
434.776	8.75
434.981	8.8
435.186	8.75
435.39	8.73
435.595	8.58
435.799	8.67
436.004	8.74
436.209	8.72
436.413	8.76
436.618	8.8
436.822	8.93
437.027	8.88
437.231	8.9
437.436	8.99
437.64	8.99
437.845	9.04
438.049	8.86
438.253	8.82
438.458	8.9
438.662	8.92
438.867	8.84
439.071	8.79
439.275	8.79
439.48	8.73
439.684	8.73
439.888	8.71
440.093	8.75
440.297	8.88
440.501	8.88
440.706	8.87
440.91	8.81
441.114	8.85
441.318	8.89
441.523	8.94
441.727	9.01
441.931	8.9
442.135	8.96
442.339	8.98
442.543	8.93
442.748	8.9
442.952	8.8
443.156	8.79
443.36	8.83
443.564	8.81
443.768	8.77
443.972	8.83
444.176	8.91
444.38	8.82
444.584	8.79
444.788	8.87
444.992	8.94
445.196	9.07
445.4	9.07
445.604	9.07
445.808	9.01
446.012	9
446.216	8.94
446.42	8.93
446.624	8.96
446.828	8.97
447.032	8.89
447.235	8.78
447.439	8.77
447.643	8.88
447.847	8.81
448.051	8.87
448.254	8.93
448.458	8.94
448.662	8.94
448.866	8.98
449.069	8.97
449.273	8.98
449.477	9.14
449.681	9.09
449.884	8.95
450.088	9.07
450.292	9
450.495	8.97
450.699	9.04
450.902	9
451.106	8.91
451.31	8.97
451.513	8.89
451.717	8.8
451.92	8.91
452.124	8.94
452.327	8.81
452.531	8.87
452.734	8.84
452.938	8.86
453.141	8.88
453.345	8.98
453.548	8.88
453.752	8.96
453.955	8.89
454.158	8.86
454.362	8.89
454.565	8.89
454.769	8.96
454.972	8.98
455.175	8.92
455.379	9
455.582	8.91
455.785	8.95
455.988	8.99
456.192	9.07
456.395	9
456.598	8.99
456.801	9.02
457.005	9.01
457.208	9.06
457.411	8.91
457.614	8.78
457.817	8.87
458.021	8.98
458.224	8.96
458.427	8.99
458.63	9
458.833	8.94
459.036	8.94
459.239	8.91
459.442	8.87
459.645	8.94
459.848	9
460.051	9.03
460.254	8.94
460.457	8.89
460.66	8.92
460.863	8.85
461.066	8.89
461.269	8.94
461.472	8.89
461.675	8.92
461.878	8.9
462.081	8.94
462.284	8.79
462.486	8.8
462.689	8.77
462.892	8.69
463.095	8.82
463.298	8.88
463.5	8.85
463.703	9
463.906	9
464.109	9.1
464.311	8.99
464.514	9.18
464.717	9.04
464.92	9.04
465.122	9.08
465.325	9
465.528	8.91
465.73	8.83
465.933	8.8
466.135	8.69
466.338	8.72
466.541	8.82
466.743	8.82
466.946	8.98
467.148	9.09
467.351	9.07
467.553	9.12
467.756	9.19
467.958	9.22
468.161	9.23
468.363	9.34
468.566	9.32
468.768	9.24
468.971	9.2
469.173	9.32
469.375	9.3
469.578	9.33
469.78	9.3
469.983	9.39
470.185	9.45
470.387	9.46
470.59	9.37
470.792	9.44
470.994	9.43
471.196	9.43
471.399	9.23
471.601	9.21
471.803	9.17
472.005	9.22
472.208	9.19
472.41	9.13
472.612	9
472.814	8.97
473.016	8.78
473.218	8.88
473.421	8.86
473.623	8.96
473.825	8.96
474.027	8.96
474.229	8.95
474.431	8.88
474.633	8.91
474.835	8.98
475.037	9.08
475.239	9.2
475.441	9.2
475.643	9.24
475.845	9.23
476.047	9.3
476.249	9.23
476.451	9.23
476.653	9.14
476.855	9.22
477.057	9.21
477.258	9.17
477.46	9.14
477.662	9.16
477.864	9.09
478.066	9.15
478.268	9.12
478.469	9.16
478.671	9.21
478.873	9.3
479.075	9.21
479.276	9.17
479.478	9.22
479.68	9.24
479.882	9.19
480.083	9.19
480.285	9.07
480.487	9.1
480.688	9.1
480.89	9.15
481.091	9.17
481.293	9.18
481.495	9.15
481.696	9.1
481.898	9.05
482.099	8.99
482.301	9.05
482.502	9.07
482.704	9.03
482.905	9.03
483.107	8.97
483.308	8.94
483.51	8.95
483.711	9
483.913	8.98
484.114	9.01
484.315	9.04
484.517	8.99
484.718	8.99
484.92	9.02
485.121	9.03
485.322	9.05
485.524	9.07
485.725	9.06
485.926	9.01
486.127	9.06
486.329	9.02
486.53	8.99
486.731	9
486.932	9
487.134	8.93
487.335	8.92
487.536	8.92
487.737	8.93
487.938	8.93
488.139	8.94
488.341	8.95
488.542	8.96
488.743	8.99
488.944	9.01
489.145	9.02
489.346	9.07
489.547	9.01
489.748	8.98
489.949	8.98
490.15	8.99
490.351	8.99
490.552	8.98
490.753	8.96
490.954	8.98
491.155	9.03
491.356	9
491.557	9.03
491.758	9.11
491.959	9.11
492.159	9.13
492.36	9.13
492.561	9.16
492.762	9.21
492.963	9.32
493.164	9.29
493.364	9.27
493.565	9.33
493.766	9.33
493.967	9.32
494.167	9.4
494.368	9.34
494.569	9.37
494.769	9.41
494.97	9.34
495.171	9.28
495.371	9.26
495.572	9.29
495.773	9.31
495.973	9.28
496.174	9.36
496.375	9.4
496.575	9.47
496.776	9.43
496.976	9.39
497.177	9.39
497.377	9.41
497.578	9.54
497.778	9.53
497.979	9.54
498.179	9.51
498.38	9.41
498.58	9.35
498.78	9.34
498.981	9.42
499.181	9.5
499.382	9.52
499.582	9.5
499.782	9.54
499.983	9.57
500.183	9.6
500.383	9.72
500.584	9.82
500.784	9.91
500.984	9.92
501.184	9.89
501.385	10
501.585	10.01
501.785	9.98
501.985	9.92
502.185	9.86
502.386	9.8
502.586	9.79
502.786	9.79
502.986	9.74
503.186	9.82
503.386	9.82
503.586	9.74
503.786	9.73
503.987	9.77
504.187	9.77
504.387	9.77
504.587	9.85
504.787	9.76
504.987	9.8
505.187	9.86
505.387	9.88
505.587	10.02
505.786	10.03
505.986	10.17
506.186	10.23
506.386	10.28
506.586	10.31
506.786	10.35
506.986	10.46
507.186	10.49
507.386	10.53
507.585	10.43
507.785	10.32
507.985	10.34
508.185	10.29
508.384	10.34
508.584	10.41
508.784	10.46
508.984	10.52
509.183	10.55
509.383	10.53
509.583	10.47
509.782	10.64
509.982	10.77
510.182	10.83
510.381	10.92
510.581	10.92
510.781	10.91
510.98	11.04
511.18	11.02
511.379	11.05
511.579	11.14
511.778	11.23
511.978	11.19
512.177	11.19
512.377	11.25
512.576	11.3
512.776	11.37
512.975	11.42
513.175	11.43
513.374	11.52
513.573	11.62
513.773	11.68
513.972	11.77
514.172	11.88
514.371	11.95
514.57	11.95
514.77	12.01
514.969	12.11
515.168	12.08
515.367	12.1
515.567	12.15
515.766	12.22
515.965	12.2
516.164	12.26
516.364	12.3
516.563	12.3
516.762	12.39
516.961	12.41
517.16	12.38
517.359	12.46
517.559	12.52
517.758	12.55
517.957	12.54
518.156	12.53
518.355	12.58
518.554	12.63
518.753	12.66
518.952	12.74
519.151	12.8
519.35	12.9
519.549	13
519.748	13
519.947	13.11
520.146	13.2
520.345	13.38
520.544	13.38
520.743	13.39
520.942	13.46
521.141	13.51
521.339	13.55
521.538	13.53
521.737	13.58
521.936	13.72
522.135	13.78
522.333	13.84
522.532	13.84
522.731	14.01
522.93	14.18
523.129	14.3
523.327	14.31
523.526	14.4
523.725	14.45
523.923	14.48
524.122	14.54
524.321	14.54
524.519	14.66
524.718	14.75
524.917	14.77
525.115	14.79
525.314	14.88
525.512	15.01
525.711	15.09
525.909	15.2
526.108	15.32
526.306	15.42
526.505	15.49
526.703	15.53
526.902	15.62
527.1	15.65
527.299	15.69
527.497	15.76
527.696	15.79
527.894	15.84
528.092	15.87
528.291	15.92
528.489	15.95
528.688	15.99
528.886	16.04
529.084	16.08
529.283	16.12
529.481	16.22
529.679	16.25
529.877	16.28
530.076	16.31
530.274	16.36
530.472	16.4
530.67	16.47
530.869	16.58
531.067	16.62
531.265	16.74
531.463	16.89
531.661	16.92
531.859	17.02
532.057	17.09
532.255	17.2
532.454	17.27
532.652	17.32
532.85	17.37
533.048	17.38
533.246	17.44
533.444	17.44
533.642	17.51
533.84	17.59
534.038	17.64
534.236	17.74
534.434	17.81
534.632	17.85
534.83	17.95
535.027	18.03
535.225	18.15
535.423	18.26
535.621	18.36
535.819	18.4
536.017	18.44
536.215	18.49
536.412	18.59
536.61	18.6
536.808	18.76
537.006	18.79
537.203	18.87
537.401	18.88
537.599	18.9
537.797	18.98
537.994	19.1
538.192	19.17
538.39	19.31
538.587	19.39
538.785	19.55
538.983	19.56
539.18	19.62
539.378	19.73
539.575	19.8
539.773	19.96
539.97	20.01
540.168	20.03
540.366	20.08
540.563	20.09
540.761	20.09
540.958	20.09
541.155	20.14
541.353	20.22
541.55	20.24
541.748	20.28
541.945	20.3
542.143	20.3
542.34	20.35
542.537	20.43
542.735	20.48
542.932	20.57
543.129	20.64
543.327	20.74
543.524	20.81
543.721	20.93
543.919	21.04
544.116	21.16
544.313	21.34
544.51	21.45
544.708	21.54
544.905	21.68
545.102	21.74
545.299	21.74
545.496	21.8
545.693	21.79
545.891	21.8
546.088	21.81
546.285	21.75
546.482	21.77
546.679	21.69
546.876	21.7
547.073	21.62
547.27	21.64
547.467	21.71
547.664	21.59
547.861	21.65
548.058	21.66
548.255	21.74
548.452	21.82
548.649	21.83
548.846	21.99
549.043	21.89
549.24	21.98
549.437	22.04
549.633	22.05
549.83	22.21
550.027	22.27
550.224	22.23
550.421	22.18
550.618	22.06
550.814	22.01
551.011	21.93
551.208	22.12
551.405	22.03
551.601	22.01
551.798	21.94
551.995	21.85
552.191	21.77
552.388	21.75
552.585	21.82
552.781	21.88
552.978	22
553.175	22
553.371	21.94
553.568	22.11
553.764	22.09
553.961	22.21
554.157	22.32
554.354	22.37
554.55	22.5
554.747	22.31
554.943	22.35
555.14	22.21
555.336	22.28
555.533	22.33
555.729	22.13
555.926	22.35
556.122	22.29
556.318	22.27
556.515	22.26
556.711	22.31
556.907	22.53
557.104	22.51
557.3	22.5
557.496	22.44
557.693	22.43
557.889	22.44
558.085	22.48
558.281	22.49
558.478	22.49
558.674	22.53
558.87	22.39
559.066	22.38
559.262	22.41
559.459	22.43
559.655	22.49
559.851	22.41
560.047	22.57
560.243	22.4
560.439	22.43
560.635	22.51
560.831	22.47
561.027	22.63
561.223	22.66
561.419	22.79
561.615	22.86
561.811	22.87
562.007	23.02
562.203	22.95
562.399	23.07
562.595	23.02
562.791	22.99
562.987	23.05
563.183	23.03
563.379	22.91
563.575	22.83
563.771	22.92
563.966	22.93
564.162	22.82
564.358	22.82
564.554	22.74
564.75	22.81
564.945	22.82
565.141	22.81
565.337	22.83
565.533	22.85
565.728	22.8
565.924	22.78
566.12	22.91
566.315	22.96
566.511	23
566.707	22.94
566.902	23
567.098	23.06
567.293	23.12
567.489	23.21
567.684	23.26
567.88	23.35
568.076	23.34
568.271	23.22
568.467	23.15
568.662	23.18
568.858	23.26
569.053	23.19
569.248	23.02
569.444	23.01
569.639	22.74
569.835	22.75
570.03	22.71
570.225	22.64
570.421	22.65
570.616	22.66
570.812	22.61
571.007	22.66
571.202	22.8
571.397	22.85
571.593	22.78
571.788	22.95
571.983	23.04
572.178	23.12
572.374	23.13
572.569	23.15
572.764	23.32
572.959	23.36
573.154	23.37
573.35	23.33
573.545	23.41
573.74	23.43
573.935	23.34
574.13	23.32
574.325	23.32
574.52	23.45
574.715	23.38
574.91	23.22
575.105	23.25
575.3	23.13
575.495	23.12
575.69	23.15
575.885	23.32
576.08	23.45
576.275	23.47
576.47	23.52
576.665	23.63
576.86	23.73
577.055	23.9
577.25	24
577.444	24.25
577.639	24.42
577.834	24.43
578.029	24.51
578.224	24.57
578.418	24.77
578.613	24.78
578.808	24.79
579.003	24.81
579.197	24.79
579.392	24.72
579.587	24.7
579.781	24.59
579.976	24.68
580.171	24.56
580.365	24.55
580.56	24.53
580.755	24.62
580.949	24.54
581.144	24.63
581.338	24.55
581.533	24.47
581.727	24.58
581.922	24.55
582.116	24.56
582.311	24.63
582.505	24.71
582.7	24.7
582.894	24.59
583.089	24.51
583.283	24.41
583.478	24.67
583.672	24.85
583.866	24.76
584.061	24.74
584.255	24.74
584.449	24.81
584.644	24.73
584.838	24.63
585.032	24.72
585.226	24.82
585.421	24.89
585.615	24.86
585.809	25.06
586.003	25.08
586.198	25.2
586.392	25.28
586.586	25.28
586.78	25.3
586.974	25.4
587.168	25.23
587.363	25.3
587.557	25.32
587.751	25.23
587.945	25.01
588.139	25.08
588.333	24.94
588.527	24.79
588.721	24.72
588.915	24.72
589.109	24.6
589.303	24.69
589.497	24.62
589.691	24.56
589.885	24.5
590.079	24.64
590.273	24.49
590.466	24.48
590.66	24.6
590.854	24.77
591.048	24.85
591.242	24.95
591.436	25
591.629	25.04
591.823	25.14
592.017	25.25
592.211	25.24
592.404	25.32
592.598	25.61
592.792	25.69
592.986	25.66
593.179	25.68
593.373	25.63
593.567	25.6
593.76	25.63
593.954	25.61
594.147	25.5
594.341	25.43
594.535	25.43
594.728	25.32
594.922	25.21
595.115	25.07
595.309	25.01
595.502	24.95
595.696	24.98
595.889	25.1
596.083	25.12
596.276	25.2
596.47	25.19
596.663	25.24
596.856	25.26
597.05	25.33
597.243	25.44
597.437	25.49
597.63	25.64
597.823	25.75
598.017	25.63
598.21	25.73
598.403	25.87
598.596	26.08
598.79	26.1
598.983	26.2
599.176	26.16
599.369	26.13
599.563	26.24
599.756	26.25
599.949	26.32
600.142	26.47
600.335	26.5
600.528	26.38
600.722	26.3
600.915	26.21
601.108	26.23
601.301	26.2
601.494	26.18
601.687	26.14
601.88	26.08
602.073	26.08
602.266	26.03
602.459	25.98
602.652	26.01
602.845	26
603.038	26.03
603.231	26
603.424	26.04
603.617	26.1
603.809	25.99
604.002	25.9
604.195	25.72
604.388	25.72
604.581	25.78
604.774	25.82
604.966	25.8
605.159	25.76
605.352	25.8
605.545	25.9
605.737	25.9
605.93	26.03
606.123	26.29
606.316	26.38
606.508	26.39
606.701	26.44
606.894	26.46
607.086	26.55
607.279	26.88
607.471	26.89
607.664	26.93
607.857	27.16
608.049	27.29
608.242	27.48
608.434	27.92
608.627	28.35
608.819	28.79
609.012	29.42
609.204	29.94
609.397	30.58
609.589	31.17
609.782	31.97
609.974	32.86
610.166	33.76
610.359	34.52
610.551	35.17
610.743	35.79
610.936	36.32
611.128	36.67
611.32	37.18
611.513	37.17
611.705	37.42
611.897	37.2
612.09	36.82
612.282	36.43
612.474	36.02
612.666	35.76
612.858	35.32
613.051	34.92
613.243	34.49
613.435	33.97
613.627	33.71
613.819	33.25
614.011	33.09
614.203	32.85
614.395	32.56
614.588	32.35
614.78	31.84
614.972	31.63
615.164	31.24
615.356	31.04
615.548	30.78
615.74	30.68
615.932	30.52
616.124	30.23
616.315	29.83
616.507	29.7
616.699	29.65
616.891	29.66
617.083	29.6
617.275	29.44
617.467	29.41
617.659	29.34
617.85	29.12
618.042	29.1
618.234	29
618.426	29.02
618.618	28.91
618.809	28.86
619.001	28.74
619.193	28.69
619.384	28.8
619.576	28.8
619.768	28.73
619.959	28.76
620.151	28.83
620.343	28.87
620.534	29.05
620.726	29.11
620.917	29.09
621.109	29.15
621.301	29.15
621.492	29.21
621.684	29.31
621.875	29.32
622.067	29.48
622.258	29.46
622.45	29.61
622.641	29.65
622.832	29.59
623.024	29.68
623.215	29.75
623.407	29.74
623.598	29.69
623.789	29.46
623.981	29.51
624.172	29.49
624.363	29.38
624.555	29.29
624.746	29.21
624.937	29.19
625.129	29.15
625.32	29.03
625.511	29.05
625.702	29.25
625.893	29.23
626.085	29.14
626.276	29.06
626.467	29.1
626.658	29.14
626.849	28.91
627.04	28.96
627.231	28.84
627.422	29.01
627.614	28.94
627.805	28.87
627.996	28.9
628.187	29.02
628.378	29.15
628.569	29.3
628.76	29.4
628.951	29.67
629.142	29.85
629.332	29.96
629.523	29.98
629.714	30.26
629.905	30.4
630.096	30.58
630.287	30.56
630.478	30.57
630.669	30.5
630.859	30.51
631.05	30.52
631.241	30.42
631.432	30.49
631.623	30.49
631.813	30.25
632.004	29.99
632.195	29.76
632.385	29.81
632.576	29.78
632.767	29.68
632.957	29.5
633.148	29.33
633.339	29.28
633.529	29.27
633.72	29.15
633.91	29.08
634.101	29.05
634.292	29.15
634.482	29.04
634.673	29.01
634.863	29.04
635.054	29.1
635.244	29.16
635.435	29.21
635.625	29.07
635.815	29.05
636.006	28.93
636.196	28.93
636.387	28.91
636.577	29.15
636.767	29.12
636.958	29.14
637.148	29.25
637.338	29.28
637.529	29.12
637.719	29.21
637.909	29.21
638.099	29.36
638.29	29.44
638.48	29.45
638.67	29.35
638.86	29.48
639.05	29.43
639.241	29.45
639.431	29.47
639.621	29.62
639.811	29.58
640.001	29.66
640.191	29.7
640.381	29.8
640.571	29.88
640.761	29.93
640.951	29.7
641.141	29.75
641.331	29.64
641.521	29.95
641.711	30.04
641.901	29.91
642.091	30.03
642.281	29.97
642.471	30.06
642.661	30.08
642.851	30.1
643.041	30.3
643.231	30.26
643.42	30.27
643.61	30.1
643.8	29.89
643.99	30.04
644.18	30.06
644.369	30.13
644.559	30.03
644.749	29.98
644.939	29.94
645.128	29.94
645.318	30.11
645.508	30.01
645.697	29.98
645.887	30.22
646.076	30.27
646.266	30.34
646.456	30.38
646.645	30.61
646.835	30.63
647.024	30.58
647.214	30.56
647.403	30.33
647.593	30.44
647.782	30.34
647.972	30.13
648.161	30.4
648.351	30.31
648.54	30.33
648.73	30.24
648.919	30.38
649.108	30.56
649.298	30.7
649.487	30.99
649.677	31.2
649.866	31.53
650.055	31.77
650.244	31.54
650.434	31.35
650.623	31.5
650.812	31.26
651.002	31.22
651.191	31.37
651.38	31.26
651.569	31.46
651.758	31.24
651.947	31.18
652.137	31.15
652.326	31.34
652.515	31.51
652.704	31.4
652.893	31.66
653.082	31.7
653.271	31.53
653.46	31.62
653.649	31.38
653.838	31.1
654.027	30.94
654.216	31.06
654.405	30.8
654.594	30.86
654.783	31.15
654.972	31.03
655.161	30.95
655.35	30.9
655.539	30.57
655.728	30.65
655.916	31.07
656.105	31.23
656.294	31.25
656.483	31.23
656.672	31.22
656.86	30.92
657.049	30.9
657.238	30.87
657.427	30.95
657.615	30.99
657.804	30.88
657.993	30.64
658.181	30.38
658.37	30.14
658.559	30.24
658.747	30.1
658.936	30.12
659.125	30.13
659.313	30.04
659.502	30.01
659.69	30.21
659.879	30.32
660.067	30.37
660.256	30.62
660.444	30.82
660.633	31
660.821	31.19
661.01	31.44
661.198	31.43
661.387	31.69
661.575	31.64
661.763	31.33
661.952	31.46
662.14	31.93
662.328	31.95
662.517	31.92
662.705	31.77
662.893	31.77
663.082	31.63
663.27	31.96
663.458	31.76
663.646	32
663.834	32.41
664.023	32.29
664.211	32.23
664.399	32.24
664.587	32.31
664.775	32.26
664.963	32.13
665.152	32.24
665.34	32.1
665.528	32.33
665.716	32
665.904	31.95
666.092	31.9
666.28	31.92
666.468	31.89
666.656	31.92
666.844	31.99
667.032	32.25
667.22	32.18
667.408	32.23
667.596	32.28
667.784	32.4
667.971	32.48
668.159	32.49
668.347	32.34
668.535	32.38
668.723	32.29
668.911	32.25
669.098	32.14
669.286	32.03
669.474	31.92
669.662	31.89
669.849	32.2
670.037	32.13
670.225	32.26
670.413	32.28
670.6	32.04
670.788	32.2
670.976	32.25
671.163	32.3
671.351	32.55
671.538	32.86
671.726	32.96
671.913	32.58
672.101	32.4
672.289	32.19
672.476	32.09
672.664	32.31
672.851	32.37
673.039	32.3
673.226	32.27
673.413	32.16
673.601	31.91
673.788	31.74
673.976	31.76
674.163	32.02
674.35	32.52
674.538	32.77
674.725	32.96
674.912	32.9
675.1	33.11
675.287	33.06
675.474	33.01
675.662	33.18
675.849	33.09
676.036	33.56
676.223	33.56
676.411	33.33
676.598	33.26
676.785	33.35
676.972	33.18
677.159	33.03
677.346	33.53
677.533	33.55
677.721	33.53
677.908	33.9
678.095	33.68
678.282	33.7
678.469	33.75
678.656	33.56
678.843	33.39
679.03	33.42
679.217	33.54
679.404	33.07
679.591	33
679.778	32.77
679.964	32.47
680.151	32.43
680.338	32.39
680.525	32.51
680.712	32.63
680.899	32.54
681.086	32.67
681.272	32.51
681.459	32.59
681.646	32.86
681.833	32.8
682.02	33.1
682.206	33.07
682.393	32.85
682.58	32.45
682.766	32.38
682.953	32.6
683.14	32.63
683.326	32.94
683.513	33.13
683.7	33.08
683.886	33.18
684.073	32.93
684.259	32.97
684.446	33.29
684.632	33.36
684.819	33.62
685.005	33.62
685.192	33.67
685.378	33.63
685.565	33.53
685.751	33.62
685.938	34.1
686.124	34.28
686.31	34.54
686.497	34.63
686.683	34.75
686.87	34.62
687.056	34.31
687.242	34.29
687.429	34.05
687.615	33.71
687.801	33.43
687.987	33.28
688.174	33.18
688.36	32.92
688.546	32.8
688.732	32.86
688.918	32.84
689.105	32.86
689.291	32.96
689.477	33.05
689.663	33.52
689.849	33.62
690.035	33.29
690.221	33.22
690.407	33.24
690.593	33.27
690.779	33.3
690.965	33.33
691.151	33.69
691.337	33.42
691.523	33.37
691.709	33.17
691.895	33.39
692.081	33.66
692.267	33.9
692.453	34.18
692.639	34.17
692.825	34.21
693.011	34.37
693.196	33.98
693.382	34.38
693.568	34.56
693.754	34.83
693.94	34.93
694.125	35.01
694.311	35.43
694.497	35.05
694.682	34.85
694.868	34.84
695.054	34.85
695.239	35.16
695.425	34.94
695.611	34.74
695.796	34.53
695.982	34.06
696.168	33.89
696.353	33.23
696.539	33.32
696.724	33.37
696.91	33.28
697.095	33.18
697.281	32.8
697.466	32.88
697.652	32.98
697.837	33.14
698.023	33.14
698.208	32.98
698.393	32.96
698.579	32.85
698.764	32.9
698.949	32.88
699.135	32.72
699.32	32.73
699.505	32.58
699.691	32.65
699.876	32.39
700.061	32.4
700.246	32.35
700.432	32.9
700.617	33.32
700.802	33.25
700.987	33.45
701.172	33.49
701.358	34.12
701.543	34.3
701.728	34.24
701.913	34.56
702.098	34.99
702.283	35.52
702.468	35.1
702.653	34.92
702.838	34.96
703.023	35
703.208	35.55
703.393	35.54
703.578	35.87
703.763	36.28
703.948	36.49
704.133	36.92
704.318	37.09
704.503	37.42
704.688	37.6
704.873	38.13
705.057	38.39
705.242	38.73
705.427	38.96
705.612	39.27
705.797	39.54
705.981	39.97
706.166	40.18
706.351	40.26
706.536	40.67
706.72	40.97
706.905	41.14
707.09	41.17
707.274	41.14
707.459	41.29
707.644	41.21
707.828	40.8
708.013	40.52
708.197	40.11
708.382	39.93
708.567	39.44
708.751	39.33
708.936	38.96
709.12	38.96
709.305	38.87
709.489	38.6
709.673	38.33
709.858	38.67
710.042	38.89
710.227	38.76
710.411	38.84
710.596	38.99
710.78	38.93
710.964	39.35
711.149	39.27
711.333	39.22
711.517	39.09
711.702	39.03
711.886	38.7
712.07	38.68
712.254	38.81
712.438	38.77
712.623	38.58
712.807	38.44
712.991	38.06
713.175	38.11
713.359	37.6
713.544	37.6
713.728	37.5
713.912	37.4
714.096	36.46
714.28	36.18
714.464	36
714.648	36.21
714.832	35.77
715.016	35.46
715.2	34.91
715.384	35.23
715.568	34.92
715.752	34.81
715.936	34.79
716.12	35.22
716.304	35.1
716.488	34.84
716.671	34.33
716.855	34.7
717.039	34.97
717.223	34.95
717.407	34.62
717.59	34.71
717.774	34.76
717.958	34.45
718.142	34.26
718.325	33.77
718.509	33.86
718.693	33.86
718.877	33.69
719.06	33.62
719.244	33.98
719.428	33.8
719.611	33.51
719.795	33.61
719.978	34.05
720.162	34.35
720.345	35.29
720.529	35.66
720.713	35.93
720.896	36.16
721.08	36.29
721.263	36.28
721.446	36.73
721.63	37.16
721.813	36.95
721.997	36.87
722.18	36.72
722.364	36.51
722.547	36.02
722.73	35.84
722.914	35.35
723.097	35.24
723.28	35.05
723.464	34.85
723.647	34.68
723.83	34.72
724.013	34.72
724.197	34.98
724.38	35.15
724.563	35.39
724.746	35.33
724.929	35.84
725.112	35.94
725.296	36.15
725.479	36.4
725.662	36.34
725.845	36.42
726.028	36.79
726.211	36.6
726.394	36.52
726.577	36.55
726.76	36.57
726.943	36.27
727.126	35.8
727.309	35.6
727.492	35.51
727.675	35.69
727.858	35.73
728.041	35.07
728.224	35.08
728.407	35.05
728.589	34.97
728.772	35.27
728.955	35.31
729.138	35.38
729.321	35.21
729.503	35.22
729.686	35.13
729.869	35.17
730.052	35.45
730.234	35.54
730.417	35.24
730.6	35.54
730.782	35.53
730.965	35.56
731.148	36.23
731.33	36.52
731.513	36.23
731.695	36.31
731.878	36.32
732.061	36.77
732.243	36.81
732.426	36.85
732.608	36.57
732.791	36.95
732.973	37.19
733.156	36.84
733.338	36.83
733.52	37.2
733.703	36.85
733.885	37.12
734.068	36.81
734.25	36.97
734.432	37.19
734.615	37.65
734.797	37.56
734.979	37.62
735.162	37.91
735.344	38.26
735.526	38.14
735.708	39.12
735.891	39.2
736.073	39.38
736.255	39.06
736.437	39.18
736.619	38.95
736.802	38.85
736.984	39.15
737.166	39.23
737.348	38.85
737.53	39.24
737.712	38.9
737.894	38.23
738.076	38.44
738.258	39.12
738.44	38.99
738.622	39.11
738.804	39.25
738.986	39.15
739.168	39.22
739.35	39.42
739.532	39.41
739.714	39.14
739.896	39.74
740.078	38.98
740.259	38.37
740.441	38.86
740.623	38.98
740.805	39.21
740.987	39.49
741.168	39.62
741.35	39.9
741.532	39.39
741.714	39.73
741.895	39.78
742.077	39.94
742.259	40.23
742.44	40.54
742.622	40.55
742.804	40.22
742.985	39.77
743.167	39.03
743.348	39.01
743.53	39.9
743.711	40.32
743.893	39.86
744.075	40.9
744.256	40.91
744.438	41
744.619	41.15
744.8	41.54
744.982	41.76
745.163	42.38
745.345	42.85
745.526	42.45
745.707	42.36
745.889	42.84
746.07	42.22
746.252	42.52
746.433	41.67
746.614	42.16
746.795	41.64
746.977	41.9
747.158	41.85
747.339	41.01
747.52	41.02
747.702	41.21
747.883	41.46
748.064	41.96
748.245	41.52
748.426	41.6
748.607	41.19
748.788	40.88
748.97	40.82
749.151	40.49
749.332	40.98
749.513	41.33
749.694	40.67
749.875	40.25
750.056	39.93
750.237	40.49
750.418	40.59
750.599	40.57
750.78	40.89
750.96	40.67
751.141	41.42
751.322	41.17
751.503	40.53
751.684	40.86
751.865	41.92
752.046	42.3
752.226	42.24
752.407	42.91
752.588	43.23
752.769	42.86
752.949	42.95
753.13	42.4
753.311	42.67
753.492	43.5
753.672	43.53
753.853	42.76
754.034	42.58
754.214	42.53
754.395	42.06
754.575	41.59
754.756	42.47
754.937	42.67
755.117	42.69
755.298	42.85
755.478	42.11
755.659	42.09
755.839	41.49
756.02	41.21
756.2	40.73
756.381	40.41
756.561	41.08
756.741	40.49
756.922	40.11
757.102	39.99
757.283	38.85
757.463	39.45
757.643	38.82
757.823	38.91
758.004	38.15
758.184	37.69
758.364	37.71
758.545	36.61
758.725	37.01
758.905	35.83
759.085	35.67
759.265	36.1
759.446	34.82
759.626	34.57
759.806	34.07
759.986	33.69
760.166	33.47
760.346	32.89
760.526	32.11
760.706	31.24
760.886	31.33
761.066	31.21
761.246	31.76
761.426	32.1
761.606	32.15
761.786	32.93
761.966	33.72
762.146	33.79
762.326	33.95
762.506	34.46
762.686	34.41
762.866	34.74
763.046	34.47
763.225	34.44
763.405	34.41
763.585	34.43
763.765	34.11
763.945	33.75
764.124	33.87
764.304	34.35
764.484	34
764.664	34.24
764.843	34.68
765.023	35.17
765.203	34.6
765.382	35.06
765.562	35.22
765.741	35.93
765.921	36.35
766.101	36.49
766.28	36.48
766.46	37.39
766.639	37.52
766.819	37.4
766.998	36.9
767.178	37.45
767.357	37.26
767.537	38.21
767.716	37.92
767.896	38.38
768.075	39.02
768.254	39.54
768.434	40.26
768.613	40.51
768.792	41.02
768.972	42.1
769.151	42.2
769.33	42.71
769.51	42.64
769.689	42.45
769.868	42.45
770.047	42.3
770.226	42.07
770.406	41.99
770.585	41.82
770.764	41.98
770.943	42.42
771.122	42.73
771.301	42.17
771.48	42.16
771.66	42.73
771.839	42.93
772.018	43.22
772.197	43.92
772.376	43.44
772.555	43.65
772.734	44.49
772.913	42.94
773.092	43.15
773.271	43.88
773.449	43.98
773.628	44.06
773.807	44.33
773.986	44.41
774.165	43.73
774.344	43.59
774.523	43.62
774.701	42.62
774.88	43.7
775.059	43.01
775.238	43.29
775.417	43.44
775.595	43.53
775.774	43.36
775.953	43.92
776.131	43.49
776.31	43.48
776.489	43.8
776.667	43.69
776.846	43.64
777.025	44.72
777.203	44.01
777.382	43.54
777.56	43.27
777.739	44.3
777.917	44.16
778.096	44.81
778.274	45.37
778.453	45.7
778.631	46.29
778.81	45.93
778.988	45.23
779.166	45.5
779.345	45.81
779.523	46.43
779.702	45.52
779.88	45.53
780.058	45.83
780.237	45.07
780.415	45.22
780.593	45.09
780.771	45.58
780.95	45.89
781.128	46.12
781.306	46.15
781.484	45.71
781.662	45.05
781.841	45.04
782.019	44.12
782.197	45.91
782.375	45.63
782.553	46.03
782.731	46.88
782.909	46.42
783.087	45.98
783.265	45.79
783.443	45.44
783.621	46.01
783.799	45.93
783.977	46.45
784.155	44.87
784.333	43.91
784.511	42.97
784.689	42.89
784.867	43.89
785.045	44.21
785.223	44.47
785.4	44.81
785.578	45.08
785.756	44.52
785.934	44.2
786.112	43.95
786.289	44.73
786.467	44.39
786.645	42.98
786.823	42.52
787	43.13
787.178	42.33
787.356	41.62
787.533	41.48
787.711	41.48
787.889	41.71
788.066	41.96
788.244	41.32
788.421	41.52
788.599	42.14
788.776	41.47
788.954	40.15
789.131	41.14
789.309	41.62
789.486	41.58
789.664	41.62
789.841	42.45
790.019	42.47
790.196	43.12
790.373	43.26
790.551	43.05
790.728	43.91
790.906	45.35
791.083	44.48
791.26	44.73
791.437	44.27
791.615	43.65
791.792	41.97
791.969	41.67
792.146	41.02
792.324	40.82
792.501	40.56
792.678	40.16
792.855	39.75
793.032	40.21
793.209	39.46
793.387	39.24
793.564	39.11
793.741	39.14
793.918	39.92
794.095	39.25
794.272	38.74
794.449	39.15
794.626	39.03
794.803	38.55
794.98	38.45
795.157	38.21
795.334	39.12
795.511	39.09
795.688	40.04
795.864	39.15
796.041	39.21
796.218	39.45
796.395	39.52
796.572	39.87
796.749	39.31
796.925	38.21
797.102	38.25
797.279	37.09
797.456	37.95
797.632	37.8
797.809	38.2
797.986	39.58
798.162	38.79
798.339	38.22
798.516	37.98
798.692	38.44
798.869	39.33
799.046	39.8
799.222	40.38
799.399	39.78
799.575	38.63
799.752	38.24
799.928	36.5
800.105	37.5
800.281	37.64
800.458	37.74
800.634	37.91
800.811	37.6
800.987	38.87
801.163	38.6
801.34	38.52
801.516	39.02
801.692	39.23
801.869	40.39
802.045	40
802.221	39.79
802.398	39.46
802.574	39.16
802.75	40.12
802.926	38.15
803.103	38.16
803.279	37.66
803.455	38.03
803.631	38.75
803.807	38.39
803.983	39.84
804.16	40.11
804.336	39.9
804.512	40.25
804.688	38.99
804.864	39.83
805.04	40.07
805.216	41.69
805.392	41.65
805.568	41.07
805.744	41.72
805.92	40.07
806.096	39.42
806.272	40.02
806.448	40.16
806.623	39.95
806.799	39.51
806.975	40.31
807.151	38.82
807.327	39.28
807.503	39.28
807.678	38.19
807.854	38.7
808.03	39.56
808.206	38.89
808.381	39.25
808.557	38.76
808.733	40.09
808.908	38.78
809.084	40.02
809.26	39.73
809.435	39.09
809.611	39.74
809.787	39.77
809.962	39.79
810.138	40.14
810.313	39.75
810.489	40.82
810.664	39.97
810.84	39.93
811.015	39.01
811.191	38.91
811.366	39.61
811.542	39.17
811.717	37.33
811.892	36.7
812.068	36.53
812.243	36.07
812.419	36.41
812.594	35.65
812.769	36.1
812.944	36.62
813.12	36.58
813.295	35.98
813.47	35.25
813.645	35.97
813.821	37.62
813.996	37.02
814.171	36.56
814.346	36.53
814.521	36.65
814.697	36.05
814.872	36.27
815.047	35.3
815.222	34.99
815.397	34.67
815.572	34.07
815.747	32.28
815.922	31.99
816.097	32.11
816.272	32.75
816.447	32.18
816.622	32.22
816.797	31.98
816.972	32.03
817.147	33.42
817.322	34.4
817.496	34.92
817.671	34.6
817.846	33.25
818.021	33.09
818.196	32.35
818.371	32.58
818.545	33.7
818.72	32.88
818.895	32.86
819.069	32.96
819.244	32.26
819.419	33.61
819.594	33.26
819.768	32.89
819.943	33.41
820.117	31.81
820.292	31.71
820.467	30.72
820.641	30.53
820.816	29.74
820.99	28.59
821.165	28.23
821.339	27.24
821.514	27.41
821.688	27.97
821.863	27.53
822.037	27.57
822.212	27.22
822.386	26.98
822.56	26.89
822.735	26.76
822.909	26.67
823.084	26.85
823.258	27.01
823.432	26.75
823.606	26.65
823.781	26.82
823.955	27.14
824.129	27.51
824.303	27.65
824.478	27.8
824.652	28.26
824.826	28.45
825	28.6
825.174	28.43
825.348	28.26
825.523	28.5
825.697	27.99
825.871	27.87
826.045	27.75
826.219	27.87
826.393	27.4
826.567	27.66
826.741	27.71
826.915	27.24
827.089	27.59
827.263	27.97
827.437	28.07
827.611	28.55
827.784	28.33
827.958	27.96
828.132	28.03
828.306	28.5
828.48	27.78
828.654	27.69
828.827	28.14
829.001	28.01
829.175	28.21
829.349	27.68
829.522	27.73
829.696	28.72
829.87	29.61
830.044	30.04
830.217	30.07
830.391	32.1
830.565	32.49
830.738	32.88
830.912	34.01
831.085	35.08
831.259	36.69
831.432	35.42
831.606	34.55
831.779	33.96
831.953	33.99
832.126	33.28
832.3	30.78
832.473	31.14
832.647	30.66
832.82	29.48
832.994	28.36
833.167	27.28
833.34	28.15
833.514	27.76
833.687	27.34
833.86	26.97
834.034	27.42
834.207	28.75
834.38	28.54
834.553	28.78
834.727	29.47
834.9	29.83
835.073	29.54
835.246	29.34
835.419	30.33
835.593	30.5
835.766	29.88
835.939	29.3
836.112	28.83
836.285	28.58
836.458	28.24
836.631	28.06
836.804	28.48
836.977	29.59
837.15	30.7
837.323	29.86
837.496	31.8
837.669	34.18
837.842	35.83
838.015	35.03
838.188	36.6
838.361	36.99
838.533	36.28
838.706	38.48
838.879	39.05
839.052	37.88
839.225	37.35
839.398	35.36
839.57	34.54
839.743	33.51
839.916	34.9
840.088	35.54
840.261	37.46
840.434	39.01
840.607	38.11
840.779	38.77
840.952	37.98
841.124	37.63
841.297	38.75
841.47	38.63
841.642	38.58
841.815	37.63
841.987	36.52
842.16	33.85
842.332	31.22
842.505	29.79
842.677	28.43
842.85	31
843.022	31.96
843.194	31.76
843.367	36.19
843.539	39.14
843.712	40.29
843.884	42.79
844.056	43.92
844.229	46.53
844.401	46.44
844.573	48.05
844.745	47.52
844.918	50.12
845.09	51.58
845.262	46.27
845.434	45.69
845.606	47.1
845.779	46.55
845.951	48.45
846.123	48.46
846.295	49.05
846.467	46.34
846.639	49.06
846.811	48.46
846.983	48.8
847.155	46.33
847.327	44.19
847.499	45.89
847.671	44.28
847.843	43.88
848.015	42.11
848.187	42.01
848.359	42.32
848.531	40.75
848.703	39.61
848.875	37.94
849.047	42.55
849.218	46.14
849.39	43.5
849.562	43.42
849.734	40.36
849.905	41.34
850.077	40.25
850.249	41.69
850.421	40.38
850.592	42.35
850.764	43.98
850.936	42.16
851.107	39.57
851.279	41.78
851.451	43.51
851.622	44.15
851.794	44.06
851.965	47.13
852.137	46.31
852.308	46.83
852.48	42.79
852.651	42.42
852.823	44.61
852.994	43.29
853.166	40.19
853.337	37.56
853.509	39.96
853.68	39.79
853.851	37.26
854.023	36.17
854.194	34.53
854.365	35.96
854.537	35.69
854.708	35.35
854.879	36.24
855.05	37.29
855.222	37.31
855.393	35.66
855.564	34.26
855.735	33.31
855.906	31.13
856.078	35.22
856.249	34.69
856.42	32.56
856.591	31.94
856.762	30.91
856.933	31.79
857.104	32.08
857.275	30.45
857.446	33.06
857.617	31.98
857.788	35.5
857.959	28.42
858.13	27.62
858.301	26.99
858.472	28.36
858.643	34.34
858.814	30.98
858.985	33.53
859.155	37.28
859.326	39.54
859.497	40.83
859.668	40.2
859.839	44.15
860.009	46.86
860.18	49.98
860.351	49.43
860.522	46.23
860.692	48.69
860.863	50.71
861.034	45.55
861.204	44.44
861.375	42.45
861.546	43.3
861.716	44.46
861.887	42.67
862.057	41.59
862.228	43.81
862.398	45.68
862.569	47.79
862.739	44.23
862.91	43.98
863.08	39.57
863.251	40.66
863.421	42.49
863.592	41.88
863.762	45.63
863.932	46.94
864.103	45.42
864.273	43.18
864.443	36.95
864.614	35.84
864.784	39.88
864.954	43.26
865.125	44.5
865.295	38.02
865.465	38.29
865.635	32.52
865.805	27.76
865.976	24.11
866.146	22.81
866.316	27.52
866.486	26.38
866.656	27.23
866.826	26.83
866.996	26.47
867.166	31.65
867.336	28.55
867.506	33.19
867.676	32.16
867.846	34.88
868.016	34.16
868.186	30.61
868.356	30.12
868.526	28.78
868.696	29.33
868.866	34.42
869.036	35.54
869.206	35.22
869.376	34.15
869.545	35.05
869.715	34.04
869.885	38.39
870.055	43.18
870.224	44.59
870.394	43.06
870.564	44.08
870.734	40.8
870.903	40.13
871.073	43.37
871.243	42.28
871.412	45.89
871.582	49.54
871.751	48.62
871.921	43.27
872.091	46.35
872.26	47.36
872.43	43.04
872.599	40.5
872.769	41.72
872.938	40.8
873.108	48.3
873.277	45.53
873.446	42.07
873.616	41.45
873.785	43.12
873.955	38.42
874.124	38.41
874.293	38.54
874.463	37.29
874.632	33.94
874.801	35.25
874.971	31.27
875.14	30.08
875.309	28.81
875.478	27.76
875.647	27.24
875.817	31.42
875.986	32.16
876.155	33.11
876.324	37.61
876.493	37.26
876.662	37.49
876.831	35.88
877	35.42
877.17	39.38
877.339	37.85
877.508	37.04
877.677	37.54
877.846	37.68
878.015	35.39
878.184	30.7
878.352	32.47
878.521	31.69
878.69	33.09
878.859	34.13
879.028	33.3
879.197	34.3
879.366	33.88
879.534	35
879.703	32.16
879.872	30.99
880.041	30.93
880.21	30.27
880.378	29.82
880.547	27.5
880.716	27.68
880.884	26.65
881.053	26.96
881.222	26.57
881.39	25.88
881.559	26.08
881.727	26.56
881.896	26.63
882.065	26.16
882.233	25.51
882.402	24.84
882.57	24.76
882.739	24.9
882.907	25.06
883.076	25.13
883.244	24.58
883.412	24.27
883.581	23.89
883.749	23.89
883.918	24.28
884.086	23.93
884.254	25.22
884.423	24.63
884.591	24.25
884.759	22.31
884.927	22.71
885.096	23.04
885.264	22.27
885.432	23.4
885.6	23.7
885.769	23.19
885.937	24.08
886.105	22.87
886.273	23.64
886.441	23.63
886.609	25.21
886.777	24.62
886.945	24.74
887.113	27.91
887.281	26.21
887.449	24.24
887.617	24.23
887.785	24.8
887.953	24.7
888.121	25.56
888.289	25.91
888.457	25.22
888.625	24.2
888.793	24.4
888.961	23.26
889.129	25.68
889.296	26.72
889.464	26.34
889.632	26.5
889.8	27.47
889.967	27.26
890.135	28.02
