Data from 2938724__Reflection_01.txt Node
Date: Sun Mar 15 20:20:00 EDT 2015
User: robert
Spectrometer: USB4E03002
Autoset integration time: false
Trigger mode: 4
Integration Time (sec): 1.000000E-1
Scans to average: 10
Electric dark correction enabled: false
Nonlinearity correction enabled: false
Boxcar width: 5
Stray light correction enabled: false
XAxis mode: Wavelengths
Stop averaging: false
Number of Pixels in Spectrum: 3648
>>>>>Begin Spectral Data<<<<<
177.575	-6.7
177.794	48.92
178.014	27.37
178.233	30.55
178.452	54.94
178.672	52.24
178.891	62.46
179.11	92.65
179.33	98.37
179.549	184.62
179.768	134.91
179.987	176.77
180.207	730.77
180.426	285.71
180.645	-67.86
180.864	59.24
181.084	-9.68
181.303	189.47
181.522	87.77
181.741	233.01
181.96	44.55
182.179	-62.5
182.398	87.39
182.618	91.01
182.837	77.38
183.056	71.29
183.275	86.38
183.494	51.51
183.713	73.17
183.932	70.86
184.151	58.85
184.37	65.15
184.589	98.44
184.808	60.13
185.027	76.81
185.246	70.34
185.465	53.53
185.684	23.18
185.903	4.12
186.122	-24.1
186.341	8.41
186.56	9.18
186.779	41.71
186.998	34.44
187.216	62.5
187.435	43.01
187.654	47.03
187.873	57.45
188.092	108.91
188.311	127.66
188.53	384.94
188.748	-4363.64
188.967	-885.71
189.186	710.71
189.405	159.83
189.623	311.63
189.842	-24.46
190.061	-34.3
190.28	15.74
190.498	26.65
190.717	-48.26
190.936	-196.61
191.154	220.39
191.373	339.58
191.592	-824.39
191.81	-116.42
192.029	-294.05
192.248	-46.82
192.466	-92.57
192.685	-317.39
192.904	-63.08
193.122	-23.01
193.341	19.34
193.559	58.33
193.778	89.78
193.996	185.71
194.215	44.64
194.433	-553.12
194.652	23.29
194.87	50.28
195.089	60.19
195.307	53.46
195.526	29.98
195.744	32.51
195.963	35.51
196.181	48.59
196.399	59.93
196.618	62.03
196.836	80.81
197.055	67.79
197.273	17.49
197.491	-22.02
197.71	-83.13
197.928	1000
198.146	92.08
198.365	19.29
198.583	56.85
198.801	-32.24
199.019	21.26
199.238	-31.11
199.456	-808.11
199.674	637.93
199.892	5744.44
200.111	-736.51
200.329	-1694.12
200.547	681.25
200.765	148.51
200.983	90
201.202	32.26
201.42	79.47
201.638	51.84
201.856	-41.63
202.074	-30.43
202.292	-19.88
202.51	9.32
202.728	43.21
202.946	56.55
203.165	58.13
203.383	87.6
203.601	200
203.819	55.56
204.037	54.3
204.255	68.62
204.473	127.78
204.691	168.14
204.909	217.11
205.127	181.78
205.345	148.06
205.562	300
205.78	133.26
205.998	119.14
206.216	122.99
206.434	192.23
206.652	216.58
206.87	165.2
207.088	159.3
207.306	180.29
207.523	195.4
207.741	213.08
207.959	143.04
208.177	115.35
208.395	75.95
208.612	128.1
208.83	75.77
209.048	42.21
209.266	40.12
209.483	13.98
209.701	-119.4
209.919	-207.89
210.136	-42.96
210.354	123.81
210.572	146.11
210.79	129.11
211.007	127.4
211.225	104.64
211.442	53.99
211.66	72.81
211.878	78.56
212.095	82.53
212.313	88.26
212.53	78.36
212.748	54.99
212.966	64.26
213.183	63.11
213.401	60.46
213.618	80
213.836	100.88
214.053	117.52
214.271	104.95
214.488	138.55
214.705	106.82
214.923	109.21
215.14	112.29
215.358	184.3
215.575	211.88
215.793	257.45
216.01	229.11
216.227	277.23
216.445	200.57
216.662	229.96
216.879	124.63
217.097	130.45
217.314	158.46
217.531	176.7
217.749	134.89
217.966	108.08
218.183	74.23
218.4	60.3
218.618	72.24
218.835	68.5
219.052	77.64
219.269	84.57
219.487	88.92
219.704	78.79
219.921	56.64
220.138	48.46
220.355	52.64
220.572	56.8
220.79	49.54
221.007	41.55
221.224	35.88
221.441	19.46
221.658	24.33
221.875	17.47
222.092	7.39
222.309	22.2
222.526	21.15
222.743	19.37
222.96	12.98
223.177	14.46
223.394	9.6
223.611	14.12
223.828	13.94
224.045	9.45
224.262	10.33
224.479	11.14
224.696	12.72
224.913	14.49
225.13	15.84
225.347	8.96
225.564	9.35
225.781	5.7
225.997	0.48
226.214	1.15
226.431	1.74
226.648	4.71
226.865	3.14
227.082	-2.53
227.298	-5.94
227.515	-4.81
227.732	0.03
227.949	-0.08
228.165	1.15
228.382	2.64
228.599	1.78
228.816	1.78
229.032	0.31
229.249	0.2
229.466	1.47
229.682	1.92
229.899	1.36
230.116	1.35
230.332	0.8
230.549	1.19
230.765	-0.95
230.982	-0.08
231.199	-1.49
231.415	-0.83
231.632	-1.82
231.848	-3.73
232.065	-3.86
232.281	-2.84
232.498	-4.89
232.714	-4.24
232.931	-5.76
233.147	-2.57
233.364	-3.92
233.58	-4.35
233.797	-5.05
234.013	-3.11
234.23	-2.06
234.446	0.83
234.662	-1.05
234.879	-0.46
235.095	-1.5
235.312	1.42
235.528	0.41
235.744	1.5
235.961	3.75
236.177	3.13
236.393	4.42
236.61	3.8
236.826	0.63
237.042	2.2
237.258	4.2
237.475	3.74
237.691	1.36
237.907	1.54
238.123	-1.14
238.339	-2.69
238.556	0.95
238.772	-2.19
238.988	-1.49
239.204	-1.41
239.42	1.19
239.636	-0.61
239.853	4.16
240.069	4.02
240.285	2.66
240.501	3.63
240.717	4.5
240.933	2.23
241.149	3.11
241.365	3.08
241.581	3.35
241.797	2.24
242.013	2.78
242.229	1.92
242.445	1.77
242.661	1.56
242.877	1.2
243.093	1.06
243.309	1.66
243.525	1.57
243.741	1.64
243.957	2.92
244.173	2.82
244.388	2.16
244.604	2.22
244.82	1.88
245.036	2.56
245.252	2.92
245.468	2.54
245.683	1.83
245.899	1.06
246.115	0.76
246.331	0.04
246.547	0.14
246.762	-0.04
246.978	-0.3
247.194	-0.1
247.409	-0.17
247.625	0.16
247.841	0.35
248.057	0.69
248.272	0.7
248.488	1.42
248.703	1.18
248.919	1.36
249.135	1.52
249.35	1.33
249.566	1.18
249.782	1.84
249.997	1.09
250.213	0.44
250.428	-0.32
250.644	0.29
250.859	-0.58
251.075	-0.08
251.29	0.26
251.506	0.93
251.721	1.31
251.937	1.57
252.152	1.31
252.368	0.95
252.583	1.55
252.798	1.87
253.014	1.56
253.229	1.46
253.445	1.53
253.66	0.57
253.875	-0.05
254.091	-0.09
254.306	0.15
254.521	-0.05
254.737	2.1
254.952	1.66
255.167	1.19
255.383	1.47
255.598	-0.07
255.813	-0.22
256.028	-0.75
256.244	0.22
256.459	0.9
256.674	1.27
256.889	1.08
257.104	-0.24
257.32	-0.31
257.535	0.59
257.75	0.27
257.965	1.4
258.18	1.66
258.395	1.63
258.61	1.2
258.826	0.91
259.041	0.4
259.256	0.3
259.471	0.54
259.686	0.37
259.901	0.07
260.116	0.59
260.331	0.59
260.546	0.54
260.761	0.58
260.976	0.58
261.191	0.66
261.406	1.04
261.621	1.24
261.836	1.12
262.05	1.55
262.265	2.46
262.48	2.24
262.695	1.7
262.91	1.85
263.125	1.99
263.34	2.57
263.555	2.2
263.769	2.78
263.984	2.79
264.199	2.73
264.414	1.79
264.629	0.22
264.843	0.09
265.058	0.89
265.273	0.65
265.488	0.39
265.702	-0.52
265.917	-0.09
266.132	-0.89
266.346	-0.27
266.561	-0.2
266.776	0.78
266.99	1.28
267.205	0.93
267.42	1.19
267.634	1.1
267.849	1.85
268.063	2.19
268.278	2.07
268.492	2.38
268.707	2.05
268.922	2.16
269.136	2.46
269.351	2.3
269.565	2.56
269.78	1.89
269.994	2.71
270.209	2.16
270.423	2.14
270.637	2.26
270.852	2.09
271.066	2.24
271.281	2.31
271.495	1.96
271.709	1.9
271.924	1.78
272.138	1.56
272.353	0.79
272.567	1.25
272.781	0.88
272.996	0.57
273.21	0.38
273.424	0.23
273.638	-0.32
273.853	-0.08
274.067	0.04
274.281	0.78
274.495	1.19
274.71	1.39
274.924	0.6
275.138	1.19
275.352	1.51
275.566	1.17
275.781	0.43
275.995	0.83
276.209	0.43
276.423	0.23
276.637	-0.36
276.851	-0.6
277.065	-0.16
277.279	-0.01
277.493	0.07
277.707	0.12
277.921	0.59
278.135	1.39
278.349	1.58
278.563	1.68
278.777	1.54
278.991	2.05
279.205	1.91
279.419	2.63
279.633	3
279.847	2.32
280.061	2.13
280.275	1.92
280.489	1.66
280.703	1.43
280.917	1.45
281.131	1.36
281.344	0.84
281.558	1.16
281.772	0.2
281.986	-0.07
282.2	0.63
282.414	0.91
282.627	0.81
282.841	0.85
283.055	0.55
283.269	0.82
283.482	1.1
283.696	1.33
283.91	1.29
284.123	1.24
284.337	1.77
284.551	1.52
284.764	1.06
284.978	1.35
285.192	1.39
285.405	2.03
285.619	1.78
285.833	1.72
286.046	1.25
286.26	1.11
286.473	1.02
286.687	0.56
286.9	0.37
287.114	0.29
287.327	0.15
287.541	0.32
287.754	-0.11
287.968	-0.15
288.181	0.11
288.395	0.5
288.608	0.2
288.822	0.59
289.035	0.52
289.248	0.37
289.462	0.76
289.675	0.76
289.889	0.58
290.102	0.59
290.315	0.65
290.529	0.52
290.742	0.93
290.955	1.35
291.169	1.53
291.382	1.55
291.595	2.18
291.808	1.98
292.022	1.67
292.235	1.56
292.448	1.13
292.661	1.15
292.875	1.07
293.088	0.58
293.301	0.9
293.514	0.39
293.727	0.73
293.94	0.48
294.153	0.62
294.367	1.66
294.58	1.9
294.793	2.47
295.006	2.3
295.219	2.32
295.432	2.34
295.645	2.14
295.858	2.41
296.071	2.31
296.284	2.1
296.497	2.32
296.71	1.84
296.923	1.64
297.136	1.28
297.349	1.23
297.562	1.27
297.775	1.24
297.988	1.36
298.201	1.15
298.414	1.38
298.626	1.38
298.839	1.14
299.052	1.31
299.265	1.14
299.478	1.34
299.691	1.55
299.903	1.67
300.116	1.62
300.329	1.14
300.542	1.24
300.755	1.08
300.967	0.96
301.18	0.71
301.393	0.53
301.605	0.97
301.818	0.88
302.031	0.56
302.243	0.45
302.456	0.45
302.669	0.92
302.881	0.6
303.094	0.47
303.307	0.82
303.519	1.47
303.732	1.56
303.944	1.15
304.157	1.37
304.37	1.3
304.582	1.15
304.795	1.06
305.007	0.89
305.22	1.23
305.432	1.32
305.645	1.33
305.857	0.85
306.069	0.7
306.282	1.05
306.494	1.17
306.707	1.51
306.919	1.68
307.132	1.64
307.344	2.06
307.556	1.91
307.769	1.28
307.981	1.47
308.193	1.61
308.406	1.53
308.618	1.67
308.83	1.43
309.043	1
309.255	1.37
309.467	1.84
309.679	1.74
309.892	2.2
310.104	2.69
310.316	2.54
310.528	2.51
310.74	2.64
310.953	2.28
311.165	2.27
311.377	2.59
311.589	2.26
311.801	2.11
312.013	1.9
312.225	1.58
312.437	1.57
312.649	1.83
312.862	1.8
313.074	1.69
313.286	2.01
313.498	2.12
313.71	2.26
313.922	2.34
314.134	2.25
314.346	1.94
314.558	2.12
314.77	2.12
314.982	1.61
315.193	1.72
315.405	1.65
315.617	1.49
315.829	1.37
316.041	1.22
316.253	1.16
316.465	0.96
316.677	1.28
316.888	1.16
317.1	0.58
317.312	0.87
317.524	0.88
317.736	1.16
317.947	1.63
318.159	1.85
318.371	2.11
318.583	2
318.794	2.72
319.006	3.16
319.218	2.99
319.43	3.27
319.641	3.35
319.853	3.38
320.064	3.65
320.276	3.25
320.488	3.18
320.699	3.18
320.911	2.99
321.123	2.76
321.334	2.1
321.546	1.87
321.757	2.41
321.969	2.75
322.18	2.66
322.392	2.38
322.603	2.46
322.815	3.27
323.026	3.5
323.238	4.14
323.449	4.17
323.661	4.74
323.872	5.25
324.083	5.04
324.295	4.92
324.506	5.02
324.718	5.04
324.929	5.13
325.14	4.78
325.352	4.56
325.563	4.29
325.774	4.3
325.986	4.29
326.197	4.15
326.408	4.11
326.62	4.29
326.831	4.37
327.042	4.74
327.253	4.78
327.464	4.69
327.676	4.89
327.887	5.57
328.098	6.11
328.309	6.46
328.52	6.44
328.732	6.37
328.943	6.13
329.154	6.41
329.365	5.95
329.576	6.48
329.787	6.6
329.998	6.72
330.209	6.29
330.42	5.95
330.631	5.76
330.842	6.08
331.053	6.59
331.264	7.07
331.475	6.98
331.686	7.34
331.897	7.07
332.108	6.89
332.319	7.11
332.53	7.05
332.741	7.2
332.952	7.09
333.163	7.2
333.374	7.2
333.585	6.76
333.795	7.1
334.006	7.21
334.217	6.82
334.428	6.98
334.639	6.84
334.849	6.91
335.06	6.58
335.271	6.41
335.482	6.26
335.692	6.43
335.903	6.39
336.114	6.18
336.325	6.07
336.535	6.26
336.746	6.74
336.957	6.83
337.167	6.92
337.378	7.51
337.589	7.47
337.799	7.79
338.01	7.37
338.22	7.69
338.431	7.72
338.642	7.99
338.852	8.07
339.063	7.97
339.273	7.96
339.484	7.94
339.694	7.34
339.905	7.43
340.115	7.49
340.326	7.59
340.536	7.5
340.746	7.28
340.957	6.97
341.167	7.09
341.378	6.83
341.588	6.59
341.799	6.53
342.009	6.71
342.219	6.79
342.43	6.43
342.64	6.62
342.85	6.9
343.061	7.03
343.271	7.55
343.481	7.54
343.691	7.49
343.902	7.63
344.112	7.71
344.322	7.55
344.532	7.36
344.743	7.22
344.953	7.48
345.163	7.47
345.373	7.37
345.583	6.87
345.793	6.94
346.004	7.21
346.214	6.86
346.424	6.83
346.634	7.19
346.844	7.97
347.054	8.32
347.264	8.12
347.474	7.68
347.684	7.73
347.894	7.95
348.104	8.22
348.314	8.12
348.524	8.28
348.734	8.18
348.944	7.66
349.154	7.14
349.364	6.83
349.574	6.75
349.784	6.78
349.994	6.77
350.204	7
350.413	6.8
350.623	6.82
350.833	7.15
351.043	7.3
351.253	7.62
351.463	7.68
351.672	7.79
351.882	7.95
352.092	8.51
352.302	8.62
352.511	8.21
352.721	8.09
352.931	8.05
353.141	7.95
353.35	8
353.56	8.16
353.77	7.91
353.979	7.99
354.189	7.85
354.399	7.55
354.608	7.39
354.818	7.55
355.027	7.41
355.237	7.22
355.447	7.14
355.656	7.04
355.866	6.85
356.075	7.14
356.285	7.12
356.494	6.9
356.704	6.97
356.913	7
357.123	6.98
357.332	7.15
357.542	7.3
357.751	7.49
357.96	7.43
358.17	7.41
358.379	7.42
358.589	7.36
358.798	7.47
359.007	7.17
359.217	7.07
359.426	6.92
359.635	6.87
359.845	6.89
360.054	6.67
360.263	6.77
360.472	6.85
360.682	6.7
360.891	6.65
361.1	6.85
361.309	6.85
361.519	7.05
361.728	7.07
361.937	7.21
362.146	6.99
362.355	7.11
362.564	7.21
362.774	7.11
362.983	7.3
363.192	7.47
363.401	7.11
363.61	7.11
363.819	6.9
364.028	6.85
364.237	6.78
364.446	7.02
364.655	6.89
364.864	6.69
365.073	6.77
365.282	6.49
365.491	6.43
365.7	6.6
365.909	6.77
366.118	6.79
366.327	6.87
366.536	6.71
366.745	6.6
366.954	6.71
367.162	6.66
367.371	6.48
367.58	6.64
367.789	6.77
367.998	6.68
368.207	6.89
368.415	6.97
368.624	7.01
368.833	7.03
369.042	7.15
369.25	7.16
369.459	7.11
369.668	7.23
369.877	7.06
370.085	7.03
370.294	7.44
370.503	7.05
370.711	7.09
370.92	6.93
371.129	6.73
371.337	6.63
371.546	6.42
371.754	6.43
371.963	6.29
372.171	6.45
372.38	6.32
372.589	6.21
372.797	6.53
373.006	6.5
373.214	6.54
373.423	6.84
373.631	6.78
373.84	6.97
374.048	7.14
374.256	7.26
374.465	7.04
374.673	7.13
374.882	6.96
375.09	6.74
375.298	6.65
375.507	6.72
375.715	6.84
375.923	6.92
376.132	6.88
376.34	6.67
376.548	6.8
376.757	6.94
376.965	6.84
377.173	6.82
377.381	6.72
377.59	6.69
377.798	6.79
378.006	6.5
378.214	6.47
378.423	6.29
378.631	6.44
378.839	6.14
379.047	6.06
379.255	6.17
379.463	6.2
379.671	6.29
379.879	6.32
380.088	6.3
380.296	6.33
380.504	6.45
380.712	6.49
380.92	6.49
381.128	6.76
381.336	7.01
381.544	6.8
381.752	7.01
381.96	6.82
382.168	7.04
382.376	6.54
382.584	6.88
382.791	6.83
382.999	7.02
383.207	7.08
383.415	6.86
383.623	6.47
383.831	6.63
384.039	6.37
384.247	6.73
384.454	6.66
384.662	6.97
384.87	6.9
385.078	6.93
385.285	6.86
385.493	6.87
385.701	7.14
385.909	7.14
386.116	6.99
386.324	7.19
386.532	7.05
386.739	7.06
386.947	7.07
387.155	6.93
387.362	7.18
387.57	7.14
387.778	6.97
387.985	6.93
388.193	6.92
388.4	7.11
388.608	6.86
388.816	7.07
389.023	7.15
389.231	7.22
389.438	7.19
389.646	6.67
389.853	6.77
390.061	6.63
390.268	6.62
390.475	6.77
390.683	6.73
390.89	6.69
391.098	6.62
391.305	6.44
391.512	6.57
391.72	6.65
391.927	6.64
392.135	6.55
392.342	6.77
392.549	6.76
392.756	6.72
392.964	6.61
393.171	6.72
393.378	6.58
393.586	6.59
393.793	6.4
394	6.28
394.207	6.23
394.414	6.4
394.622	6.48
394.829	6.45
395.036	6.58
395.243	6.46
395.45	6.35
395.657	6.5
395.864	6.57
396.072	6.76
396.279	6.68
396.486	6.84
396.693	6.67
396.9	6.47
397.107	6.54
397.314	6.3
397.521	6.28
397.728	6.53
397.935	6.29
398.142	6.33
398.349	6.02
398.556	6.05
398.763	6.04
398.97	5.9
399.177	5.84
399.383	5.64
399.59	5.74
399.797	5.89
400.004	5.82
400.211	5.95
400.418	5.98
400.625	6.01
400.831	5.98
401.038	6.02
401.245	6.38
401.452	6.42
401.658	6.53
401.865	6.61
402.072	6.71
402.279	6.76
402.485	6.62
402.692	6.54
402.899	6.88
403.105	7.15
403.312	7.31
403.519	7.35
403.725	7.4
403.932	7.51
404.138	7.55
404.345	7.62
404.552	7.52
404.758	7.62
404.965	7.69
405.171	7.61
405.378	7.52
405.584	7.35
405.791	7.1
405.997	7.05
406.204	6.97
406.41	6.89
406.617	6.78
406.823	6.8
407.029	6.87
407.236	6.92
407.442	6.74
407.649	6.66
407.855	6.72
408.061	6.85
408.268	6.89
408.474	6.88
408.68	6.8
408.887	6.87
409.093	6.87
409.299	6.77
409.505	6.63
409.712	6.67
409.918	6.77
410.124	6.69
410.33	6.49
410.537	6.47
410.743	6.47
410.949	6.6
411.155	6.63
411.361	6.73
411.567	6.82
411.773	6.84
411.98	6.8
412.186	6.73
412.392	6.89
412.598	7.05
412.804	7.06
413.01	7.18
413.216	7.24
413.422	7.2
413.628	7.01
413.834	6.99
414.04	6.92
414.246	7.02
414.452	7.11
414.658	7.13
414.864	7.18
415.07	7.26
415.275	7.13
415.481	6.98
415.687	6.8
415.893	6.83
416.099	6.87
416.305	6.91
416.511	6.86
416.716	6.75
416.922	6.74
417.128	6.56
417.334	6.62
417.539	6.58
417.745	6.54
417.951	6.6
418.157	6.7
418.362	6.7
418.568	6.63
418.774	6.64
418.979	6.67
419.185	6.56
419.391	6.64
419.596	6.61
419.802	6.65
420.008	6.8
420.213	6.92
420.419	6.85
420.624	6.83
420.83	6.86
421.035	6.82
421.241	6.87
421.446	6.89
421.652	6.93
421.857	6.91
422.063	6.84
422.268	6.67
422.474	6.61
422.679	6.65
422.885	6.62
423.09	6.69
423.295	6.69
423.501	6.65
423.706	6.68
423.911	6.63
424.117	6.58
424.322	6.63
424.527	6.63
424.733	6.57
424.938	6.48
425.143	6.45
425.349	6.44
425.554	6.5
425.759	6.53
425.964	6.5
426.169	6.5
426.375	6.51
426.58	6.54
426.785	6.53
426.99	6.54
427.195	6.6
427.4	6.63
427.605	6.65
427.811	6.53
428.016	6.4
428.221	6.62
428.426	6.56
428.631	6.65
428.836	6.59
429.041	6.83
429.246	6.9
429.451	6.83
429.656	6.94
429.861	6.85
430.066	6.93
430.271	7.01
430.476	6.8
430.681	6.76
430.886	6.68
431.09	6.81
431.295	6.68
431.5	6.7
431.705	6.76
431.91	6.64
432.115	6.6
432.32	6.56
432.524	6.68
432.729	6.69
432.934	6.67
433.139	6.66
433.343	6.69
433.548	6.88
433.753	7.05
433.958	7.39
434.162	7.74
434.367	8.06
434.572	8.4
434.776	8.53
434.981	8.73
435.186	9.09
435.39	9.37
435.595	9.48
435.799	9.43
436.004	9.25
436.209	8.97
436.413	8.73
436.618	8.6
436.822	8.42
437.027	8.09
437.231	7.94
437.436	7.79
437.64	7.59
437.845	7.47
438.049	7.27
438.253	7.26
438.458	7.22
438.662	7.18
438.867	7
439.071	6.91
439.275	7.04
439.48	7.04
439.684	6.99
439.888	6.99
440.093	6.96
440.297	6.97
440.501	7
440.706	6.99
440.91	6.98
441.114	7.03
441.318	7
441.523	7.08
441.727	7.08
441.931	7.12
442.135	7.17
442.339	7.25
442.543	7.33
442.748	7.29
442.952	7.32
443.156	7.24
443.36	7.21
443.564	7.24
443.768	7.19
443.972	7.14
444.176	7.13
444.38	7.13
444.584	7.07
444.788	7.01
444.992	7.02
445.196	7.08
445.4	7.2
445.604	7.21
445.808	7.16
446.012	7.1
446.216	7.14
446.42	7.05
446.624	6.99
446.828	6.96
447.032	7.01
447.235	7.08
447.439	7.02
447.643	6.99
447.847	6.99
448.051	7.07
448.254	7.07
448.458	7.05
448.662	7.14
448.866	7.19
449.069	7.24
449.273	7.22
449.477	7.12
449.681	7.13
449.884	7.07
450.088	7.04
450.292	7.07
450.495	7.12
450.699	7.14
450.902	7.18
451.106	7.17
451.31	7.13
451.513	7.13
451.717	7.13
451.92	7.19
452.124	7.17
452.327	7.15
452.531	6.95
452.734	6.95
452.938	7.01
453.141	7.01
453.345	6.94
453.548	6.84
453.752	6.78
453.955	6.78
454.158	6.72
454.362	6.77
454.565	6.81
454.769	6.95
454.972	6.97
455.175	6.96
455.379	6.86
455.582	6.84
455.785	6.96
455.988	7.02
456.192	7.03
456.395	7.18
456.598	7.01
456.801	6.98
457.005	6.93
457.208	6.98
457.411	6.92
457.614	6.95
457.817	7.07
458.021	7.12
458.224	7.11
458.427	7.11
458.63	6.93
458.833	7
459.036	7.07
459.239	7.09
459.442	6.93
459.645	6.93
459.848	6.88
460.051	6.76
460.254	6.68
460.457	6.7
460.66	6.72
460.863	6.82
461.066	6.8
461.269	6.79
461.472	6.82
461.675	6.9
461.878	6.86
462.081	6.93
462.284	6.97
462.486	6.99
462.689	6.87
462.892	6.86
463.095	6.81
463.298	6.87
463.5	7
463.703	6.98
463.906	7.03
464.109	7.07
464.311	7.18
464.514	7.3
464.717	7.4
464.92	7.66
465.122	7.68
465.325	7.75
465.528	7.67
465.73	7.44
465.933	7.5
466.135	7.51
466.338	7.56
466.541	7.52
466.743	7.49
466.946	7.49
467.148	7.36
467.351	7.42
467.553	7.39
467.756	7.44
467.958	7.5
468.161	7.27
468.363	7.18
468.566	7.16
468.768	7.06
468.971	6.96
469.173	6.9
469.375	6.93
469.578	6.81
469.78	6.72
469.983	6.73
470.185	6.66
470.387	6.78
470.59	6.88
470.792	6.81
470.994	6.87
471.196	7
471.399	6.94
471.601	6.81
471.803	6.82
472.005	6.89
472.208	6.86
472.41	7
472.612	7.16
472.814	7.09
473.016	7.17
473.218	7.12
473.421	6.99
473.623	7.1
473.825	7.15
474.027	7.21
474.229	7.17
474.431	7.22
474.633	7.21
474.835	7.1
475.037	7.11
475.239	7.14
475.441	7.12
475.643	7.35
475.845	7.29
476.047	7.31
476.249	7.26
476.451	7.27
476.653	7.19
476.855	7.22
477.057	7.2
477.258	7.21
477.46	7.12
477.662	7.23
477.864	7.15
478.066	7.21
478.268	7.21
478.469	7.24
478.671	7.25
478.873	7.28
479.075	7.27
479.276	7.29
479.478	7.33
479.68	7.35
479.882	7.29
480.083	7.26
480.285	7.33
480.487	7.36
480.688	7.4
480.89	7.43
481.091	7.51
481.293	7.5
481.495	7.51
481.696	7.56
481.898	7.6
482.099	7.66
482.301	7.64
482.502	7.59
482.704	7.63
482.905	7.59
483.107	7.62
483.308	7.62
483.51	7.6
483.711	7.66
483.913	7.69
484.114	7.73
484.315	7.74
484.517	7.82
484.718	7.86
484.92	7.89
485.121	7.97
485.322	8.04
485.524	8.09
485.725	8.2
485.926	8.21
486.127	8.17
486.329	8.21
486.53	8.22
486.731	8.19
486.932	8.16
487.134	8.14
487.335	8.14
487.536	8.1
487.737	8.1
487.938	8.1
488.139	8.08
488.341	8.13
488.542	8.13
488.743	8.18
488.944	8.23
489.145	8.29
489.346	8.37
489.547	8.33
489.748	8.33
489.949	8.3
490.15	8.3
490.351	8.33
490.552	8.3
490.753	8.26
490.954	8.18
491.155	8.17
491.356	8.13
491.557	8.09
491.758	8.12
491.959	8.14
492.159	8.14
492.36	8.1
492.561	8.08
492.762	8.1
492.963	8.13
493.164	8.16
493.364	8.13
493.565	8.12
493.766	8.08
493.967	7.98
494.167	7.91
494.368	7.9
494.569	7.94
494.769	7.87
494.97	7.77
495.171	7.77
495.371	7.8
495.572	7.73
495.773	7.7
495.973	7.68
496.174	7.79
496.375	7.8
496.575	7.75
496.776	7.73
496.976	7.76
497.177	7.81
497.377	7.85
497.578	7.87
497.778	7.82
497.979	7.91
498.179	7.88
498.38	7.83
498.58	7.88
498.78	7.95
498.981	7.93
499.181	7.91
499.382	7.94
499.582	7.86
499.782	7.69
499.983	7.71
500.183	7.61
500.383	7.74
500.584	7.72
500.784	7.72
500.984	7.68
501.184	7.66
501.385	7.7
501.585	7.59
501.785	7.56
501.985	7.66
502.185	7.79
502.386	7.78
502.586	7.71
502.786	7.75
502.986	7.78
503.186	7.85
503.386	7.88
503.586	7.86
503.786	7.93
503.987	7.98
504.187	7.96
504.387	7.93
504.587	7.99
504.787	7.98
504.987	7.95
505.187	7.95
505.387	7.84
505.587	7.73
505.786	7.67
505.986	7.65
506.186	7.66
506.386	7.73
506.586	7.68
506.786	7.63
506.986	7.62
507.186	7.72
507.386	7.58
507.585	7.72
507.785	7.83
507.985	7.88
508.185	7.89
508.384	7.87
508.584	7.86
508.784	7.89
508.984	7.84
509.183	7.8
509.383	7.74
509.583	7.84
509.782	7.78
509.982	7.79
510.182	7.77
510.381	7.82
510.581	7.85
510.781	7.79
510.98	7.75
511.18	7.85
511.379	7.96
511.579	7.97
511.778	7.96
511.978	7.94
512.177	8.02
512.377	8.07
512.576	8
512.776	7.99
512.975	8.05
513.175	8.03
513.374	8.04
513.573	8.05
513.773	8.04
513.972	8.07
514.172	8.1
514.371	8.03
514.57	8.07
514.77	8.08
514.969	8.02
515.168	7.97
515.367	8.12
515.567	8.11
515.766	8.06
515.965	8.09
516.164	7.96
516.364	7.92
516.563	7.86
516.762	7.81
516.961	7.91
517.16	7.95
517.359	8
517.559	7.92
517.758	7.91
517.957	7.93
518.156	7.96
518.355	8.05
518.554	8.11
518.753	8.19
518.952	8.23
519.151	8.21
519.35	8.27
519.549	8.3
519.748	8.3
519.947	8.31
520.146	8.34
520.345	8.27
520.544	8.34
520.743	8.44
520.942	8.41
521.141	8.45
521.339	8.53
521.538	8.56
521.737	8.52
521.936	8.58
522.135	8.74
522.333	8.8
522.532	8.81
522.731	8.83
522.93	8.78
523.129	8.73
523.327	8.72
523.526	8.56
523.725	8.55
523.923	8.6
524.122	8.62
524.321	8.49
524.519	8.42
524.718	8.54
524.917	8.55
525.115	8.59
525.314	8.62
525.512	8.62
525.711	8.71
525.909	8.67
526.108	8.63
526.306	8.68
526.505	8.71
526.703	8.71
526.902	8.65
527.1	8.67
527.299	8.65
527.497	8.74
527.696	8.74
527.894	8.74
528.092	8.83
528.291	8.89
528.489	8.91
528.688	8.92
528.886	8.99
529.084	9.05
529.283	9.07
529.481	9.12
529.679	9.11
529.877	9.19
530.076	9.22
530.274	9.21
530.472	9.24
530.67	9.2
530.869	9.24
531.067	9.24
531.265	9.2
531.463	9.23
531.661	9.18
531.859	9.17
532.057	9.15
532.255	9.21
532.454	9.2
532.652	9.21
532.85	9.31
533.048	9.3
533.246	9.35
533.444	9.41
533.642	9.44
533.84	9.52
534.038	9.56
534.236	9.6
534.434	9.58
534.632	9.6
534.83	9.63
535.027	9.61
535.225	9.67
535.423	9.64
535.621	9.67
535.819	9.68
536.017	9.72
536.215	9.79
536.412	9.88
536.61	9.9
536.808	10
537.006	10.15
537.203	10.31
537.401	10.42
537.599	10.59
537.797	10.76
537.994	10.93
538.192	11.09
538.39	11.36
538.587	11.51
538.785	11.81
538.983	12.04
539.18	12.29
539.378	12.45
539.575	12.71
539.773	12.97
539.97	13.21
540.168	13.42
540.366	13.58
540.563	13.71
540.761	13.93
540.958	14.04
541.155	14.15
541.353	14.29
541.55	14.46
541.748	14.59
541.945	14.67
542.143	14.77
542.34	14.92
542.537	15.08
542.735	15.25
542.932	15.4
543.129	15.72
543.327	16.11
543.524	16.58
543.721	17.17
543.919	17.81
544.116	18.58
544.313	19.32
544.51	20.1
544.708	20.95
544.905	21.78
545.102	22.58
545.299	23.28
545.496	23.72
545.693	23.8
545.891	23.69
546.088	23.55
546.285	23.13
546.482	22.7
546.679	22.13
546.876	21.49
547.073	20.8
547.27	20.15
547.467	19.35
547.664	18.74
547.861	18.35
548.058	18.06
548.255	17.59
548.452	17.35
548.649	17.1
548.846	16.84
549.043	16.58
549.24	16.35
549.437	16.11
549.633	15.89
549.83	15.54
550.027	15.12
550.224	14.72
550.421	14.38
550.618	14.02
550.814	13.76
551.011	13.49
551.208	13.14
551.405	12.89
551.601	12.7
551.798	12.57
551.995	12.39
552.191	12.24
552.388	11.98
552.585	11.88
552.781	11.86
552.978	11.7
553.175	11.75
553.371	11.71
553.568	11.66
553.764	11.5
553.961	11.4
554.157	11.29
554.354	11.29
554.55	11.27
554.747	11.21
554.943	11.08
555.14	10.98
555.336	10.79
555.533	10.75
555.729	10.68
555.926	10.71
556.122	10.68
556.318	10.7
556.515	10.69
556.711	10.71
556.907	10.6
557.104	10.52
557.3	10.7
557.496	10.63
557.693	10.67
557.889	10.6
558.085	10.34
558.281	10.39
558.478	10.39
558.674	10.31
558.87	10.34
559.066	10.52
559.262	10.61
559.459	10.52
559.655	10.54
559.851	10.58
560.047	10.7
560.243	10.86
560.439	10.83
560.635	10.75
560.831	10.7
561.027	10.59
561.223	10.54
561.419	10.56
561.615	10.44
561.811	10.44
562.007	10.46
562.203	10.3
562.399	10.23
562.595	10.17
562.791	10.16
562.987	10.25
563.183	10.33
563.379	10.17
563.575	10.06
563.771	10.1
563.966	10.18
564.162	10.11
564.358	10.15
564.554	10.27
564.75	10.28
564.945	10.37
565.141	10.18
565.337	10.17
565.533	10.24
565.728	10.3
565.924	10.27
566.12	10.24
566.315	10.22
566.511	10.21
566.707	10.15
566.902	10.09
567.098	10.13
567.293	10.23
567.489	10.13
567.684	10.09
567.88	10.1
568.076	10.2
568.271	10.06
568.467	10.25
568.662	10.37
568.858	10.31
569.053	10.49
569.248	10.42
569.444	10.39
569.639	10.44
569.835	10.53
570.03	10.65
570.225	10.61
570.421	10.71
570.616	10.56
570.812	10.39
571.007	10.51
571.202	10.42
571.397	10.45
571.593	10.54
571.788	10.53
571.983	10.54
572.178	10.43
572.374	10.5
572.569	10.46
572.764	10.56
572.959	10.71
573.154	10.72
573.35	10.75
573.545	10.7
573.74	10.72
573.935	10.76
574.13	10.87
574.325	10.89
574.52	11.03
574.715	11.29
574.91	11.4
575.105	11.57
575.3	11.71
575.495	11.82
575.69	12.11
575.885	12.41
576.08	12.77
576.275	13.11
576.47	13.53
576.665	13.71
576.86	13.85
577.055	14
577.25	14.16
577.444	14.41
577.639	14.71
577.834	14.9
578.029	15
578.224	15.07
578.418	15.09
578.613	15.17
578.808	15.4
579.003	15.45
579.197	15.54
579.392	15.55
579.587	15.57
579.781	15.59
579.976	15.54
580.171	15.49
580.365	15.39
580.56	15.24
580.755	15.2
580.949	14.96
581.144	14.87
581.338	14.81
581.533	14.81
581.727	14.73
581.922	14.59
582.116	14.57
582.311	14.57
582.505	14.62
582.7	14.82
582.894	14.65
583.089	14.73
583.283	14.94
583.478	14.88
583.672	15.02
583.866	15.07
584.061	15.2
584.255	15.23
584.449	15.23
584.644	15.43
584.838	15.32
585.032	15.61
585.226	15.74
585.421	15.75
585.615	16.29
585.809	16.3
586.003	16.44
586.198	16.64
586.392	16.84
586.586	17.05
586.78	16.99
586.974	17.1
587.168	16.89
587.363	16.68
587.557	16.53
587.751	16.11
587.945	16.03
588.139	15.93
588.333	15.67
588.527	15.41
588.721	15.07
588.915	14.85
589.109	14.68
589.303	14.51
589.497	14.61
589.691	14.8
589.885	14.72
590.079	14.68
590.273	14.73
590.466	14.74
590.66	14.87
590.854	15.21
591.048	15.37
591.242	15.56
591.436	15.96
591.629	16.09
591.823	16.24
592.017	16.55
592.211	16.76
592.404	16.75
592.598	16.97
592.792	16.98
592.986	16.83
593.179	16.75
593.373	16.59
593.567	16.36
593.76	16.14
593.954	15.75
594.147	15.49
594.341	15.2
594.535	14.96
594.728	14.6
594.922	14.41
595.115	14.16
595.309	14.06
595.502	13.79
595.696	13.71
595.889	13.55
596.083	13.68
596.276	13.59
596.47	13.55
596.663	13.68
596.856	13.81
597.05	13.9
597.243	14.09
597.437	14.29
597.63	14.67
597.823	14.8
598.017	15.02
598.21	15.1
598.403	15.36
598.596	15.51
598.79	15.53
598.983	15.61
599.176	15.6
599.369	15.48
599.563	15.44
599.756	15.2
599.949	15.14
600.142	15.04
600.335	14.84
600.528	14.42
600.722	14.2
600.915	14.01
601.108	13.81
601.301	13.48
601.494	13.39
601.687	13.28
601.88	13.24
602.073	13
602.266	12.92
602.459	12.76
602.652	12.78
602.845	12.74
603.038	12.69
603.231	12.74
603.424	12.99
603.617	13.08
603.809	13.04
604.002	12.91
604.195	12.97
604.388	12.92
604.581	13.02
604.774	13.22
604.966	13.31
605.159	13.4
605.352	13.49
605.545	13.33
605.737	13.45
605.93	13.55
606.123	13.89
606.316	14.19
606.508	14.49
606.701	14.94
606.894	15.3
607.086	15.81
607.279	16.27
607.471	16.75
607.664	17.5
607.857	18.28
608.049	19.28
608.242	20.48
608.434	22.13
608.627	24.18
608.819	26.42
609.012	29.18
609.204	32.13
609.397	35.38
609.589	39.09
609.782	43.3
609.974	47.06
610.166	51.05
610.359	54.96
610.551	58.52
610.743	61.65
610.936	64.34
611.128	66.13
611.32	67.4
611.513	68.01
611.705	67.74
611.897	66.73
612.09	65.81
612.282	64.05
612.474	62.07
612.666	59.75
612.858	57.4
613.051	55.05
613.243	52.76
613.435	50.99
613.627	49.03
613.819	47.43
614.011	45.49
614.203	43.66
614.395	41.86
614.588	40.03
614.78	38.5
614.972	36.84
615.164	34.92
615.356	33.42
615.548	31.63
615.74	30.17
615.932	28.81
616.124	27.64
616.315	26.2
616.507	25.27
616.699	24.19
616.891	23.16
617.083	22.23
617.275	21.62
617.467	20.88
617.659	20.6
617.85	20.11
618.042	19.59
618.234	19.15
618.426	18.92
618.618	18.63
618.809	18.54
619.001	18.22
619.193	18.39
619.384	18.36
619.576	18.19
619.768	17.91
619.959	18.04
620.151	17.83
620.343	17.86
620.534	17.71
620.726	17.8
620.917	17.67
621.109	17.71
621.301	17.39
621.492	17.37
621.684	17.7
621.875	17.79
622.067	17.78
622.258	17.9
622.45	18.18
622.641	18.55
622.832	18.54
623.024	18.84
623.215	19.3
623.407	19.58
623.598	19.73
623.789	19.69
623.981	19.79
624.172	19.82
624.363	19.83
624.555	19.7
624.746	19.45
624.937	19.36
625.129	19.34
625.32	19.06
625.511	19.2
625.702	19
625.893	18.88
626.085	18.77
626.276	18.51
626.467	18.49
626.658	18.49
626.849	18.64
627.04	18.55
627.231	18.61
627.422	18.66
627.614	18.55
627.805	18.71
627.996	18.85
628.187	19.18
628.378	19.65
628.569	19.97
628.76	20.33
628.951	20.64
629.142	21.23
629.332	21.68
629.523	22.1
629.714	22.47
629.905	22.95
630.096	23.44
630.287	23.59
630.478	23.72
630.669	23.84
630.859	23.4
631.05	23.11
631.241	22.72
631.432	22.06
631.623	21.42
631.813	20.73
632.004	19.84
632.195	18.83
632.385	18.01
632.576	17.5
632.767	16.69
632.957	16.35
633.148	15.77
633.339	15.42
633.529	14.98
633.72	14.85
633.91	14.73
634.101	14.47
634.292	14.22
634.482	14.19
634.673	13.83
634.863	13.8
635.054	13.6
635.244	13.47
635.435	13.26
635.625	13.28
635.815	13.06
636.006	13.03
636.196	12.98
636.387	13.17
636.577	13.07
636.767	13.05
636.958	12.96
637.148	13.1
637.338	13.06
637.529	12.98
637.719	13.03
637.909	13.09
638.099	12.88
638.29	13.25
638.48	13.08
638.67	13.22
638.86	13.22
639.05	13.19
639.241	12.91
639.431	13.03
639.621	13.21
639.811	13.17
640.001	12.87
640.191	13.02
640.381	12.78
640.571	12.98
640.761	12.85
640.951	12.91
641.141	12.89
641.331	13.14
641.521	13.14
641.711	13.09
641.901	13.2
642.091	13.27
642.281	13.09
642.471	13.23
642.661	13.26
642.851	13.2
643.041	12.91
643.231	13.14
643.42	13.25
643.61	13.11
643.8	13.1
643.99	12.8
644.18	12.73
644.369	12.71
644.559	12.43
644.749	12.2
644.939	12.33
645.128	12.59
645.318	12.38
645.508	12.38
645.697	12.51
645.887	12.08
646.076	12.07
646.266	12.18
646.456	12.31
646.645	12.56
646.835	12.83
647.024	12.83
647.214	12.68
647.403	12.89
647.593	12.92
647.782	13.01
647.972	13.42
648.161	13.84
648.351	14.28
648.54	14.55
648.73	14.72
648.919	14.65
649.108	14.98
649.298	15.13
649.487	15.44
649.677	15.69
649.866	15.97
650.055	16.2
650.244	16.07
650.434	15.76
650.623	15.41
650.812	15.43
651.002	15.47
651.191	15.35
651.38	15.31
651.569	14.98
651.758	14.93
651.947	14.93
652.137	14.9
652.326	15.05
652.515	15.33
652.704	15.52
652.893	15.38
653.082	15.25
653.271	15.15
653.46	15.09
653.649	15.06
653.838	14.7
654.027	14.25
654.216	14.11
654.405	13.94
654.594	13.92
654.783	13.9
654.972	13.88
655.161	14.01
655.35	13.92
655.539	13.99
655.728	14.07
655.916	14.21
656.105	14.19
656.294	14.04
656.483	13.9
656.672	13.69
656.86	13.64
657.049	13.52
657.238	13.41
657.427	13.27
657.615	13.31
657.804	13.02
657.993	12.92
658.181	13.03
658.37	13.02
658.559	13.1
658.747	12.99
658.936	12.94
659.125	12.97
659.313	13.24
659.502	13.39
659.69	13.33
659.879	13.41
660.067	13.54
660.256	13.64
660.444	13.72
660.633	13.81
660.821	14.11
661.01	14.35
661.198	14.4
661.387	14.16
661.575	14.21
661.763	14.15
661.952	14.33
662.14	14.44
662.328	14.33
662.517	14.34
662.705	14.34
662.893	14.18
663.082	14.1
663.27	13.88
663.458	14.04
663.646	13.8
663.834	13.91
664.023	13.99
664.211	13.8
664.399	13.9
664.587	14.01
664.775	13.77
664.963	13.94
665.152	13.95
665.34	14.29
665.528	14.54
665.716	14.58
665.904	14.69
666.092	14.57
666.28	14.35
666.468	13.82
666.656	13.71
666.844	13.86
667.032	13.59
667.22	13.52
667.408	13.17
667.596	12.95
667.784	12.96
667.971	12.95
668.159	12.73
668.347	12.75
668.535	13.36
668.723	13.39
668.911	13.27
669.098	13.03
669.286	12.92
669.474	13.11
669.662	13.17
669.849	13.19
670.037	13.08
670.225	13.19
670.413	13.38
670.6	12.83
670.788	12.85
670.976	12.74
671.163	13.03
671.351	12.9
671.538	12.72
671.726	12.4
671.913	12.4
672.101	12.21
672.289	12.08
672.476	11.78
672.664	12.23
672.851	12.39
673.039	12.63
673.226	12.43
673.413	12.39
673.601	12.4
673.788	12.53
673.976	12.49
674.163	12.51
674.35	12.55
674.538	12.87
674.725	12.72
674.912	12.53
675.1	12.45
675.287	12.5
675.474	12.73
675.662	13.01
675.849	13.1
676.036	13.24
676.223	13.52
676.411	13.81
676.598	13.78
676.785	13.99
676.972	13.98
677.159	14.06
677.346	14.21
677.533	13.97
677.721	13.71
677.908	13.66
678.095	13.46
678.282	13.15
678.469	12.89
678.656	12.91
678.843	12.89
679.03	12.95
679.217	12.68
679.404	12.7
679.591	12.78
679.778	12.91
679.964	13.02
680.151	13.16
680.338	13.14
680.525	12.99
680.712	13.09
680.899	13.01
681.086	12.93
681.272	13.11
681.459	12.81
681.646	12.76
681.833	12.72
682.02	12.64
682.206	12.39
682.393	12.6
682.58	12.99
682.766	12.86
682.953	13.04
683.14	13.25
683.326	13.29
683.513	13.55
683.7	13.86
683.886	14.19
684.073	13.89
684.259	14.44
684.446	14.33
684.632	14.88
684.819	14.88
685.005	14.84
685.192	14.77
685.378	15.12
685.565	15.19
685.751	15.42
685.938	15.19
686.124	15.94
686.31	15.72
686.497	16.22
686.683	15.82
686.87	16.12
687.056	15.96
687.242	16.46
687.429	16.28
687.615	16.63
687.801	16.42
687.987	16.51
688.174	16.01
688.36	16.09
688.546	15.94
688.732	15.85
688.918	15.9
689.105	15.74
689.291	15.17
689.477	15.2
689.663	14.89
689.849	14.69
690.035	14.43
690.221	14.6
690.407	14.41
690.593	14.47
690.779	14.62
690.965	14.14
691.151	14.25
691.337	14.31
691.523	14.57
691.709	14.81
691.895	15.01
692.081	15.11
692.267	14.74
692.453	14.89
692.639	14.91
692.825	14.58
693.011	14.79
693.196	15.01
693.382	15.03
693.568	14.52
693.754	14.66
693.94	14.85
694.125	14.8
694.311	15.15
694.497	14.66
694.682	14.68
694.868	14.5
695.054	14.19
695.239	13.86
695.425	13.57
695.611	13.28
695.796	12.58
695.982	11.83
696.168	11.51
696.353	11.27
696.539	11.56
696.724	11.31
696.91	11.44
697.095	11.44
697.281	11.5
697.466	11.51
697.652	11.78
697.837	11.87
698.023	12.19
698.208	12.33
698.393	12.35
698.579	12.27
698.764	12.23
698.949	12.39
699.135	12.45
699.32	12.36
699.505	12.47
699.691	12.46
699.876	12.54
700.061	12.77
700.246	12.84
700.432	13.1
700.617	13.41
700.802	13.33
700.987	13.35
701.172	13.49
701.358	13.45
701.543	13.75
701.728	14.04
701.913	14.18
702.098	14.29
702.283	14.16
702.468	13.95
702.653	14.12
702.838	14.69
703.023	14.76
703.208	14.52
703.393	15.12
703.578	15.33
703.763	15.6
703.948	15.8
704.133	15.9
704.318	16.8
704.503	17.32
704.688	17.47
704.873	17.73
705.057	18.53
705.242	19.46
705.427	19.66
705.612	20.04
705.797	20.43
705.981	21.04
706.166	21.19
706.351	21.36
706.536	21.8
706.72	22.44
706.905	22.6
707.09	22.53
707.274	22.65
707.459	23.1
707.644	23.4
707.828	23.17
708.013	23.29
708.197	23.73
708.382	23.97
708.567	23.94
708.751	23.79
708.936	23.28
709.12	23.2
709.305	22.2
709.489	21.83
709.673	21.35
709.858	20.9
710.042	20.69
710.227	20.31
710.411	20.1
710.596	20.03
710.78	19.79
710.964	20.23
711.149	19.94
711.333	20.92
711.517	20.99
711.702	21.04
711.886	21.21
712.07	20.92
712.254	20.46
712.438	20.2
712.623	19.44
712.807	18.64
712.991	18.34
713.175	17.79
713.359	17.14
713.544	16.67
713.728	16.1
713.912	15.68
714.096	15.3
714.28	14.92
714.464	14.34
714.648	14.84
714.832	14.81
715.016	14.01
715.2	14.11
715.384	13.72
715.568	14.07
715.752	13.91
715.936	13.65
716.12	13.65
716.304	13.77
716.488	13.87
716.671	13.26
716.855	13.37
717.039	14.14
717.223	14.48
717.407	14.94
717.59	14.55
717.774	14.78
717.958	15.02
718.142	15.06
718.325	15.44
718.509	15.14
718.693	15.13
718.877	15.1
719.06	14.71
719.244	14.35
719.428	14.15
719.611	14.11
719.795	13.98
719.978	14.2
720.162	14.18
720.345	14.22
720.529	14.88
720.713	14.87
720.896	15.28
721.08	15.41
721.263	15.04
721.446	14.88
721.63	14.97
721.813	14.7
721.997	14.6
722.18	14.72
722.364	14.25
722.547	13.69
722.73	13.77
722.914	13.87
723.097	13.39
723.28	13.29
723.464	13.97
723.647	13.84
723.83	14.61
724.013	14.91
724.197	14.76
724.38	14.69
724.563	15.32
724.746	15.14
724.929	14.74
725.112	15.31
725.296	15.53
725.479	14.98
725.662	15.07
725.845	14.21
726.028	13.97
726.211	13.7
726.394	13.97
726.577	13.65
726.76	13.96
726.943	13.98
727.126	14.12
727.309	13.92
727.492	13.83
727.675	13.47
727.858	13.48
728.041	13.02
728.224	13.57
728.407	13.37
728.589	13.36
728.772	13.26
728.955	12.83
729.138	12.22
729.321	12.44
729.503	11.96
729.686	12.38
729.869	12.38
730.052	12.71
730.234	12.35
730.417	12.01
730.6	11.67
730.782	11.88
730.965	11.91
731.148	12.46
731.33	12.32
731.513	13.14
731.695	12.76
731.878	13.12
732.061	13.27
732.243	13.07
732.426	13.56
732.608	13.89
732.791	13.51
732.973	13.75
733.156	13.81
733.338	14.22
733.52	13.83
733.703	14.13
733.885	13.94
734.068	13.97
734.25	14.21
734.432	14.18
734.615	13.9
734.797	14.17
734.979	14.43
735.162	14.05
735.344	14.05
735.526	13.81
735.708	13.82
735.891	13.85
736.073	14.07
736.255	13.92
736.437	13.67
736.619	13.88
736.802	13.7
736.984	13.71
737.166	13.69
737.348	13.48
737.53	13.55
737.712	13.53
737.894	13.05
738.076	12.01
738.258	11.69
738.44	11.46
738.622	11.72
738.804	11.81
738.986	11.45
739.168	11.52
739.35	11.19
739.532	11.18
739.714	11.27
739.896	11.69
740.078	12.09
740.259	12.64
740.441	12.92
740.623	12.88
740.805	12.54
740.987	12.3
741.168	11.79
741.35	11.64
741.532	11.55
741.714	11.3
741.895	10.96
742.077	11.37
742.259	11.25
742.44	10.79
742.622	10.34
742.804	10.75
742.985	11.31
743.167	11.48
743.348	11.51
743.53	11.82
743.711	12.39
743.893	12.9
744.075	12.41
744.256	12.62
744.438	13.07
744.619	13.09
744.8	12.27
744.982	11.81
745.163	11.93
745.345	12.45
745.526	12.92
745.707	12.67
745.889	12.37
746.07	12.82
746.252	12.88
746.433	13.12
746.614	13.61
746.795	13.39
746.977	14.09
747.158	14.63
747.339	14.87
747.52	14.25
747.702	13.54
747.883	14.12
748.064	13.79
748.245	12.7
748.426	11.4
748.607	10.98
748.788	11.67
748.97	10.87
749.151	10.79
749.332	10.33
749.513	11.13
749.694	11.66
749.875	11.46
750.056	12.26
750.237	13.4
750.418	14.99
750.599	14.88
750.78	14.86
750.96	15.59
751.141	15
751.322	15.72
751.503	14.98
751.684	15.54
751.865	15.41
752.046	15.42
752.226	15.07
752.407	15.23
752.588	15.45
752.769	14.96
752.949	14.16
753.13	13.93
753.311	13.33
753.492	13.45
753.672	12.75
753.853	11.89
754.034	11.27
754.214	11.82
754.395	10.93
754.575	11.55
754.756	12.28
754.937	12.7
755.117	13.16
755.298	12.94
755.478	13.19
755.659	13.19
755.839	13.65
756.02	13.04
756.2	12.57
756.381	12.85
756.561	11.96
756.741	13.37
756.922	13.38
757.102	13.24
757.283	13.3
757.463	12.47
757.643	12.05
757.823	12.4
758.004	12.51
758.184	12.47
758.364	12.46
758.545	12.17
758.725	11.3
758.905	11.6
759.085	11.15
759.265	10.53
759.446	11.4
759.626	11.21
759.806	11.83
759.986	12.37
760.166	12.31
760.346	11.84
760.526	11.75
760.706	10.6
760.886	10.23
761.066	11.04
761.246	11.42
761.426	11.84
761.606	12.27
761.786	11.75
761.966	11.74
762.146	11.82
762.326	12.54
762.506	12.73
762.686	13.4
762.866	13.02
763.046	12.36
763.225	12.82
763.405	12.33
763.585	11.86
763.765	11.77
763.945	12.18
764.124	12.45
764.304	12.42
764.484	12.9
764.664	13.15
764.843	13.79
765.023	14.35
765.203	13.98
765.382	14.47
765.562	15.1
765.741	15.28
765.921	14.57
766.101	14.49
766.28	14.37
766.46	14.3
766.639	13.8
766.819	13.44
766.998	13.58
767.178	14.4
767.357	13.82
767.537	14.41
767.716	14.75
767.896	14.65
768.075	14.8
768.254	14.83
768.434	15.14
768.613	14.93
768.792	14.58
768.972	14.25
769.151	14.15
769.33	14.63
769.51	14.13
769.689	12.71
769.868	13.27
770.047	12.96
770.226	12.07
770.406	11.5
770.585	13.12
770.764	13.22
770.943	13.75
771.122	13.1
771.301	12.2
771.48	11.27
771.66	12.22
771.839	13.37
772.018	14.06
772.197	14.89
772.376	14.85
772.555	13.72
772.734	14.38
772.913	13.91
773.092	13.19
773.271	13.84
773.449	14.96
773.628	14.42
773.807	12.21
773.986	11.92
774.165	12.15
774.344	12.48
774.523	12.08
774.701	10.89
774.88	11.08
775.059	11.87
775.238	12.14
775.417	12.17
775.595	13.09
775.774	15.24
775.953	15.58
776.131	15.26
776.31	14.88
776.489	15.43
776.667	17.15
776.846	17.88
777.025	18.38
777.203	18.56
777.382	18.35
777.56	17.88
777.739	16.87
777.917	16.27
778.096	15.36
778.274	14.93
778.453	14.36
778.631	14.76
778.81	13.77
778.988	13.1
779.166	12.46
779.345	11.9
779.523	12.41
779.702	12.16
779.88	12.43
780.058	13.49
780.237	14.37
780.415	14.72
780.593	14.16
780.771	14.75
780.95	14.98
781.128	15.08
781.306	16.42
781.484	16.03
781.662	16.45
781.841	15.41
782.019	15.08
782.197	14.29
782.375	13.33
782.553	13.48
782.731	12.84
782.909	13.44
783.087	14.84
783.265	13.34
783.443	13.62
783.621	13.29
783.799	14.72
783.977	14.69
784.155	13.97
784.333	15.62
784.511	15.02
784.689	14.85
784.867	13.43
785.045	12.23
785.223	13.6
785.4	13.29
785.578	13.42
785.756	13.48
785.934	13.5
786.112	15.43
786.289	15.09
786.467	15.06
786.645	15.53
786.823	16.17
787	15.8
787.178	14.71
787.356	15.29
787.533	14.51
787.711	13.77
787.889	14.13
788.066	13.84
788.244	13.15
788.421	12.95
788.599	12.71
788.776	11.76
788.954	11.24
789.131	11.56
789.309	11.61
789.486	11.83
789.664	11.28
789.841	10.5
790.019	10.39
790.196	10.14
790.373	9.86
790.551	9.84
790.728	11.28
790.906	13.23
791.083	13.35
791.26	13.13
791.437	14.6
791.615	14.82
791.792	15.16
791.969	14.49
792.146	14.83
792.324	15.1
792.501	14.26
792.678	14.3
792.855	12.82
793.032	12.59
793.209	13.09
793.387	12.1
793.564	11.52
793.741	12.19
793.918	12.36
794.095	12.79
794.272	13.14
794.449	13.57
794.626	13.09
794.803	13.17
794.98	13.75
795.157	12.88
795.334	12.69
795.511	14.15
795.688	13.82
795.864	13.29
796.041	13.62
796.218	13.55
796.395	14.94
796.572	14.38
796.749	14.44
796.925	14.72
797.102	15.15
797.279	14.95
797.456	12.97
797.632	14.49
797.809	15.56
797.986	15.17
798.162	15.03
798.339	13.45
798.516	14.28
798.692	15.82
798.869	14.96
799.046	16.15
799.222	16.82
799.399	18.63
799.575	17.63
799.752	17.33
799.928	17.76
800.105	17.85
800.281	19.61
800.458	19.97
800.634	18.63
800.811	19.05
800.987	16.88
801.163	16.97
801.34	15.96
801.516	15.8
801.692	15.58
801.869	14.23
802.045	14.39
802.221	11.96
802.398	10.62
802.574	10.05
802.75	12.74
802.926	12.1
803.103	11.25
803.279	12.49
803.455	11.97
803.631	11.56
803.807	13.5
803.983	13.33
804.16	14.59
804.336	15.59
804.512	16.95
804.688	14.53
804.864	15.87
805.04	16.41
805.216	15.7
805.392	15.4
805.568	15.02
805.744	14.28
805.92	13.45
806.096	13.38
806.272	13.19
806.448	12.07
806.623	12.45
806.799	12.36
806.975	11.94
807.151	12.43
807.327	13.17
807.503	13.98
807.678	13.79
807.854	14.37
808.03	14.71
808.206	14.97
808.381	15.52
808.557	14.46
808.733	15.24
808.908	15.94
809.084	15.18
809.26	14.89
809.435	16.69
809.611	15.9
809.787	15.15
809.962	14.81
810.138	15.13
810.313	16.24
810.489	16.96
810.664	16.77
810.84	15.7
811.015	15.46
811.191	16.82
811.366	16
811.542	17.97
811.717	17.33
811.892	18.06
812.068	17.88
812.243	16.28
812.419	15.01
812.594	13.51
812.769	13.37
812.944	12.31
813.12	11.85
813.295	11.98
813.47	12.68
813.645	13.62
813.821	14.66
813.996	14.52
814.171	13.86
814.346	13.95
814.521	15.01
814.697	16.47
814.872	18.62
815.047	18.5
815.222	16.95
815.397	15.63
815.572	15.7
815.747	13.86
815.922	13.52
816.097	14.44
816.272	15.07
816.447	14.7
816.622	12.78
816.797	11.92
816.972	11.51
817.147	12.87
817.322	12.18
817.496	12.21
817.671	11.74
817.846	12.91
818.021	13.23
818.196	12.89
818.371	13.66
818.545	14.29
818.72	15.04
818.895	13.14
819.069	12.43
819.244	13.36
819.419	13.66
819.594	13.29
819.768	12.66
819.943	12.25
820.117	11.88
820.292	11.17
820.467	10.87
820.641	10.49
820.816	10.78
820.99	10.83
821.165	10.22
821.339	10.17
821.514	10.19
821.688	10.31
821.863	9.77
822.037	9.79
822.212	9.97
822.386	10.2
822.56	10.3
822.735	10.89
822.909	11.28
823.084	11.1
823.258	11.31
823.432	11.43
823.606	11.09
823.781	11.72
823.955	11.96
824.129	12.31
824.303	12.67
824.478	12.85
824.652	12.32
824.826	11.65
825	12.17
825.174	12.05
825.348	12.22
825.523	12.37
825.697	11.71
825.871	11.28
826.045	10.83
826.219	10.79
826.393	10.78
826.567	10.7
826.741	10.88
826.915	11.09
827.089	10.78
827.263	11.06
827.437	11.12
827.611	11.6
827.784	12.06
827.958	12.46
828.132	12.19
828.306	12.23
828.48	12.42
828.654	12.44
828.827	12.77
829.001	13.24
829.175	12.58
829.349	12.51
829.522	12.83
829.696	12.96
829.87	12.62
830.044	11.93
830.217	12.41
830.391	12.68
830.565	12.45
830.738	10.85
830.912	11.17
831.085	11.85
831.259	13.05
831.432	13.05
831.606	12.4
831.779	12.68
831.953	14.58
832.126	13.08
832.3	13.82
832.473	14.08
832.647	14.67
832.82	14.29
832.994	12.95
833.167	12.39
833.34	11.02
833.514	11.56
833.687	10.71
833.86	10.02
834.034	10.76
834.207	10.07
834.38	10.48
834.553	10.49
834.727	10.14
834.9	11.37
835.073	11.77
835.246	13.67
835.419	13.94
835.593	15.57
835.766	15.39
835.939	14.92
836.112	15.1
836.285	14.7
836.458	15.36
836.631	16.39
836.804	16.78
836.977	16.82
837.15	14.97
837.323	14.73
837.496	13.13
837.669	13.05
837.842	14.77
838.015	16.08
838.188	18.53
838.361	18.48
838.533	16.06
838.706	13.64
838.879	15.38
839.052	16.08
839.225	16.18
839.398	17.41
839.57	20.15
839.743	18.06
839.916	17.67
840.088	15.89
840.261	14.42
840.434	18.05
840.607	20.41
840.779	21.38
840.952	21.42
841.124	21.37
841.297	23.41
841.47	22.65
841.642	22.93
841.815	22.21
841.987	19.75
842.16	22.73
842.332	18.83
842.505	19.67
842.677	19.34
842.85	21.3
843.022	21.24
843.194	16.72
843.367	14.46
843.539	18.06
843.712	16.37
843.884	19.92
844.056	17.95
844.229	18.6
844.401	16.46
844.573	14.47
844.745	11.61
844.918	11.2
845.09	11.29
845.262	13.94
845.434	13.89
845.606	14.39
845.779	14.79
845.951	13.02
846.123	12.81
846.295	11.43
846.467	9.3
846.639	13.43
846.811	12.28
846.983	12.5
847.155	11.85
847.327	8.72
847.499	15.81
847.671	10.3
847.843	15.4
848.015	16.33
848.187	19.25
848.359	18.7
848.531	11.9
848.703	11.35
848.875	15.6
849.047	11.93
849.218	11.59
849.39	7.2
849.562	14.52
849.734	15.21
849.905	18.07
850.077	15.76
850.249	18.99
850.421	22.29
850.592	24.61
850.764	20.71
850.936	19.93
851.107	22.17
851.279	19.42
851.451	16.54
851.622	14
851.794	13.43
851.965	16.46
852.137	16.42
852.308	16.8
852.48	16.19
852.651	19.69
852.823	19.37
852.994	15.46
853.166	16.66
853.337	18.23
853.509	17.55
853.68	14.16
853.851	10.86
854.023	10.58
854.194	9.67
854.365	11.58
854.537	13.28
854.708	20.66
854.879	23.51
855.05	27.02
855.222	23.37
855.393	21.48
855.564	23.49
855.735	21.03
855.906	21.1
856.078	22.41
856.249	24.02
856.42	16.59
856.591	16.29
856.762	15.83
856.933	20.09
857.104	22.22
857.275	25.07
857.446	29.67
857.617	39.32
857.788	40.79
857.959	33.53
858.13	26.38
858.301	31.51
858.472	29.97
858.643	28.17
858.814	24.06
858.985	24.59
859.155	29.71
859.326	25.45
859.497	21.89
859.668	18.01
859.839	23.32
860.009	24.78
860.18	22.92
860.351	25.73
860.522	26.4
860.692	23.44
860.863	20.13
861.034	14.58
861.204	18.13
861.375	14.22
861.546	11.48
861.716	9.41
861.887	8.61
862.057	10.01
862.228	-4.2
862.398	-7.75
862.569	-1.1
862.739	7.33
862.91	6.83
863.08	5.23
863.251	4.57
863.421	5.84
863.592	9.08
863.762	9.73
863.932	16.45
864.103	21.97
864.273	22.85
864.443	17.29
864.614	15.34
864.784	16.04
864.954	16.64
865.125	19.9
865.295	21.88
865.465	27.61
865.635	28.82
865.805	24.26
865.976	24.69
866.146	27.99
866.316	31.9
866.486	31.86
866.656	34.66
866.826	33.04
866.996	32.8
867.166	27.58
867.336	17.8
867.506	19.9
867.676	19.19
867.846	14.62
868.016	9.83
868.186	7.89
868.356	10.78
868.526	8.71
868.696	9.41
868.866	8.78
869.036	6.88
869.206	11.29
869.376	3.91
869.545	8.76
869.715	11.54
869.885	9.08
870.055	7.63
870.224	-0.44
870.394	-4.22
870.564	-10.23
870.734	-7.34
870.903	-0.67
871.073	-1.97
871.243	8.25
871.412	-0.77
871.582	0.48
871.751	7.66
871.921	6.37
872.091	8.15
872.26	13.02
872.43	15.31
872.599	16.6
872.769	16.78
872.938	21.32
873.108	12.55
873.277	15.29
873.446	14.94
873.616	15.54
873.785	16.59
873.955	23.09
874.124	23.74
874.293	22.81
874.463	24.3
874.632	22.33
874.801	21.77
874.971	23.68
875.14	17.77
875.309	22.27
875.478	21.55
875.647	24.12
875.817	25.5
875.986	22.46
876.155	26.1
876.324	21.35
876.493	17.85
876.662	15.18
876.831	17.31
877	23.34
877.17	22.36
877.339	22.31
877.508	14.02
877.677	7.09
877.846	7.55
878.015	6.78
878.184	8.02
878.352	18.67
878.521	15.6
878.69	14.36
878.859	10.59
879.028	11.02
879.197	11.63
879.366	15.63
879.534	14.28
879.703	14.39
879.872	13.58
880.041	13.86
880.21	9.61
880.378	11.49
880.547	10.66
880.716	12.11
880.884	10.71
881.053	9.23
881.222	9.2
881.39	9.55
881.559	10.13
881.727	9.88
881.896	9.63
882.065	9.68
882.233	10.05
882.402	10.61
882.57	10.21
882.739	10.1
882.907	10.21
883.076	10.54
883.244	10.86
883.412	11
883.581	10.28
883.749	10.35
883.918	10.76
884.086	10.83
884.254	10.98
884.423	11.61
884.591	12.61
884.759	12.11
884.927	11.18
885.096	11.9
885.264	11.02
885.432	10.51
885.6	11.3
885.769	10.18
885.937	9.32
886.105	9.43
886.273	10.83
886.441	11.82
886.609	12.84
886.777	15.67
886.945	16.14
887.113	15.27
887.281	16.71
887.449	15.09
887.617	18.25
887.785	18.47
887.953	20.54
888.121	18.86
888.289	22.5
888.457	27.8
888.625	26.42
888.793	24.82
888.961	26.62
889.129	28.54
889.296	34.58
889.464	32.76
889.632	34.59
889.8	33.53
889.967	34.85
890.135	28.25
