Data from 2938761__Reflection_03.txt Node
Date: Fri Mar 13 17:07:02 EDT 2015
User: robert
Spectrometer: USB4E03002
Autoset integration time: false
Trigger mode: 4
Integration Time (sec): 1.000000E-1
Scans to average: 10
Electric dark correction enabled: false
Nonlinearity correction enabled: false
Boxcar width: 5
Stray light correction enabled: false
XAxis mode: Wavelengths
Stop averaging: false
Number of Pixels in Spectrum: 3648
>>>>>Begin Spectral Data<<<<<
177.575	-1110.42
177.794	-6115.38
178.014	-1089.74
178.233	-581.17
178.452	-458.26
178.672	-395.32
178.891	-244.73
179.11	-204.45
179.33	-299.4
179.549	-542.22
179.768	-387.07
179.987	-448.09
180.207	-318.27
180.426	-374.6
180.645	-1415.56
180.864	-6014.29
181.084	1522.47
181.303	1488.51
181.522	535.4
181.741	759.59
181.96	1046.81
182.179	477.43
182.398	490.08
182.618	445.99
182.837	283.03
183.056	349.03
183.275	351.23
183.494	252.1
183.713	236.85
183.932	163.62
184.151	162.45
184.37	170.44
184.589	151.62
184.808	160.51
185.027	150.83
185.246	138.99
185.465	139.56
185.684	160.3
185.903	256.26
186.122	289.78
186.341	533.49
186.56	2131.91
186.779	775.68
186.998	-408.42
187.216	-1193.94
187.435	746.03
187.654	-5786.67
187.873	-593.33
188.092	16816.67
188.311	965.69
188.53	381.67
188.748	414.38
188.967	410.73
189.186	441.62
189.405	291.04
189.623	384.69
189.842	516.86
190.061	832.68
190.28	478.44
190.498	619.58
190.717	480.99
190.936	580.54
191.154	485.59
191.373	485.84
191.592	443.56
191.81	471.01
192.029	689.33
192.248	815.38
192.466	266.76
192.685	258.82
192.904	304.13
193.122	292.71
193.341	390.65
193.559	719.59
193.778	868.57
193.996	2318.52
194.215	-1512.2
194.433	2100
194.652	-905.63
194.87	-369.02
195.089	-2968.42
195.307	1110.71
195.526	-3288.24
195.744	722.77
195.963	394.26
196.181	288.66
196.399	276.59
196.618	292.72
196.836	279.1
197.055	215.76
197.273	215.16
197.491	289.61
197.71	237.08
197.928	203.1
198.146	207.47
198.365	204.96
198.583	221.79
198.801	194.37
199.019	186.88
199.238	202.42
199.456	194.23
199.674	206.04
199.892	211
200.111	236.71
200.329	247.4
200.547	276.09
200.765	309.73
200.983	320.73
201.202	373.56
201.42	355.03
201.638	282.92
201.856	390.17
202.074	264.75
202.292	289.4
202.51	231.83
202.728	245.38
202.946	169.97
203.165	175.34
203.383	187.6
203.601	171.45
203.819	220
204.037	245.48
204.255	258.59
204.473	302.74
204.691	236.42
204.909	191.76
205.127	197.73
205.345	248.95
205.562	265.05
205.78	215.62
205.998	260.71
206.216	326.99
206.434	250.36
206.652	211.91
206.87	372.12
207.088	392.51
207.306	1663.49
207.523	908.7
207.741	841.67
207.959	687.43
208.177	996.69
208.395	363.82
208.612	188.35
208.83	216.7
209.048	262.27
209.266	253.5
209.483	245.6
209.701	220.41
209.919	235.86
210.136	202.04
210.354	234.98
210.572	248.9
210.79	265.71
211.007	287.43
211.225	265.3
211.442	283.22
211.66	251.48
211.878	200.69
212.095	207.46
212.313	178.16
212.53	195.9
212.748	160.44
212.966	160.07
213.183	187.83
213.401	232.15
213.618	195.87
213.836	154.16
214.053	146.52
214.271	200
214.488	199.09
214.705	245.55
214.923	230.53
215.14	289.38
215.358	271.1
215.575	176.77
215.793	136.72
216.01	155.54
216.227	181.29
216.445	161.17
216.662	129.44
216.879	125
217.097	125.14
217.314	127.82
217.531	114.31
217.749	112.33
217.966	123.46
218.183	130.4
218.4	118.21
218.618	110.75
218.835	105.95
219.052	120.49
219.269	116.02
219.487	115.25
219.704	105.75
219.921	110.03
220.138	106.27
220.355	101.15
220.572	83.65
220.79	95.65
221.007	101.38
221.224	106.62
221.441	92.16
221.658	90.65
221.875	87.26
222.092	79.04
222.309	82.78
222.526	85.03
222.743	79.99
222.96	78.98
223.177	72.15
223.394	62.13
223.611	57.07
223.828	57.51
224.045	55.48
224.262	51.09
224.479	55.61
224.696	48.92
224.913	42.19
225.13	39.13
225.347	41.64
225.564	39.18
225.781	39.55
225.997	34.37
226.214	31.35
226.431	31.1
226.648	28.17
226.865	22.01
227.082	20.47
227.298	17.36
227.515	15.55
227.732	13.9
227.949	11.77
228.165	10.03
228.382	9.74
228.599	9.06
228.816	8.46
229.032	8.42
229.249	8.32
229.466	8.26
229.682	8.99
229.899	9.67
230.116	8.58
230.332	9.93
230.549	10.73
230.765	10.59
230.982	11.35
231.199	11.99
231.415	12.97
231.632	14.16
231.848	13.72
232.065	14.12
232.281	14.62
232.498	15.63
232.714	15.16
232.931	16.38
233.147	18.58
233.364	16.63
233.58	15.49
233.797	13.6
234.013	14.03
234.23	13.33
234.446	11.63
234.662	11.46
234.879	12.54
235.095	11.17
235.312	10.57
235.528	8.66
235.744	9.43
235.961	10.09
236.177	10.78
236.393	11.17
236.61	11.53
236.826	13.36
237.042	13.54
237.258	11.83
237.475	12.73
237.691	12.25
237.907	11.99
238.123	13.06
238.339	13.8
238.556	13.76
238.772	13.11
238.988	13.37
239.204	13.43
239.42	12.55
239.636	13.23
239.853	12.45
240.069	11.43
240.285	10.96
240.501	9.44
240.717	8.67
240.933	9.39
241.149	8.07
241.365	7.03
241.581	6.45
241.797	5.92
242.013	5.5
242.229	4.97
242.445	4.88
242.661	4.85
242.877	5.24
243.093	4.61
243.309	3.79
243.525	4.35
243.741	5.33
243.957	5.21
244.173	5.41
244.388	6.09
244.604	7
244.82	7.36
245.036	8.03
245.252	7.59
245.468	8.2
245.683	7.81
245.899	6.99
246.115	6.4
246.331	6.26
246.547	6.01
246.762	5.32
246.978	5.44
247.194	5.02
247.409	4.98
247.625	5.18
247.841	5.3
248.057	5.39
248.272	5.4
248.488	5.15
248.703	5.58
248.919	5.68
249.135	6.12
249.35	5.9
249.566	6.58
249.782	5.7
249.997	5.33
250.213	4.98
250.428	5.1
250.644	5.81
250.859	6.53
251.075	5.57
251.29	5.34
251.506	4.79
251.721	4.48
251.937	4.33
252.152	5.02
252.368	5.01
252.583	4.97
252.798	5.14
253.014	5.39
253.229	5.97
253.445	6.44
253.66	7.76
253.875	8.69
254.091	8.87
254.306	9.54
254.521	10.33
254.737	10.72
254.952	9.53
255.167	10.03
255.383	8.64
255.598	7.54
255.813	7.27
256.028	7.74
256.244	6.98
256.459	7.42
256.674	6.44
256.889	5.7
257.104	5.92
257.32	6.6
257.535	5.29
257.75	5.09
257.965	5.1
258.18	5.03
258.395	4.26
258.61	4.19
258.826	4.29
259.041	4.08
259.256	4.08
259.471	3.79
259.686	3.56
259.901	3.7
260.116	4.15
260.331	4.08
260.546	4.03
260.761	4.11
260.976	4.14
261.191	4.03
261.406	4.63
261.621	4.56
261.836	4.87
262.05	5.29
262.265	5.59
262.48	5.41
262.695	5.87
262.91	6.53
263.125	6.23
263.34	6.75
263.555	6.61
263.769	6.44
263.984	6.71
264.199	6.65
264.414	7
264.629	7.19
264.843	7.61
265.058	7.58
265.273	6.77
265.488	7.17
265.702	6.69
265.917	7.22
266.132	7.12
266.346	6.81
266.561	6.59
266.776	6.27
266.99	5.46
267.205	5.27
267.42	4.67
267.634	4.72
267.849	4.58
268.063	4.83
268.278	4.47
268.492	4.23
268.707	4.19
268.922	4.27
269.136	4.29
269.351	4.93
269.565	4.82
269.78	5.12
269.994	5.23
270.209	5.16
270.423	5.34
270.637	5.4
270.852	5.37
271.066	4.98
271.281	4.7
271.495	4.84
271.709	4.54
271.924	4.5
272.138	4.4
272.353	4.35
272.567	4.15
272.781	4.07
272.996	3.68
273.21	3.56
273.424	3.71
273.638	3.85
273.853	3.53
274.067	4.11
274.281	4.25
274.495	4.18
274.71	3.64
274.924	3.69
275.138	3.05
275.352	3.44
275.566	3.36
275.781	3.48
275.995	3.32
276.209	3.48
276.423	2.86
276.637	2.95
276.851	2.99
277.065	3.28
277.279	3.16
277.493	3.1
277.707	3.22
277.921	3.26
278.135	3.69
278.349	3.51
278.563	3.77
278.777	4.26
278.991	3.84
279.205	4.1
279.419	4.13
279.633	4.51
279.847	4.8
280.061	4.51
280.275	4.52
280.489	4.03
280.703	4.48
280.917	4.29
281.131	3.97
281.344	3.84
281.558	3.79
281.772	3.73
281.986	3.48
282.2	3.53
282.414	3.59
282.627	3.64
282.841	3.98
283.055	3.85
283.269	3.55
283.482	3.4
283.696	3.37
283.91	2.94
284.123	2.88
284.337	2.78
284.551	2.68
284.764	2.57
284.978	2.83
285.192	2.57
285.405	2.77
285.619	2.84
285.833	2.81
286.046	2.92
286.26	2.93
286.473	2.99
286.687	3.1
286.9	3.34
287.114	3.55
287.327	3.05
287.541	2.88
287.754	2.69
287.968	2.62
288.181	2.71
288.395	2.47
288.608	2.96
288.822	3.23
289.035	3.3
289.248	2.99
289.462	2.85
289.675	2.84
289.889	3.18
290.102	3.03
290.315	3.06
290.529	3.02
290.742	3.49
290.955	3.27
291.169	2.91
291.382	2.88
291.595	2.77
291.808	2.82
292.022	2.92
292.235	2.84
292.448	3.17
292.661	2.95
292.875	3.22
293.088	3.03
293.301	3.23
293.514	3.64
293.727	3.3
293.94	3.36
294.153	3.51
294.367	3.37
294.58	3.34
294.793	3.1
295.006	3.21
295.219	2.85
295.432	2.91
295.645	2.69
295.858	2.51
296.071	2.48
296.284	2.79
296.497	2.66
296.71	2.82
296.923	2.86
297.136	3.05
297.349	3.31
297.562	3.5
297.775	3.24
297.988	3.44
298.201	3.49
298.414	3.81
298.626	3.62
298.839	3.78
299.052	3.65
299.265	3.87
299.478	3.72
299.691	3.78
299.903	3.67
300.116	3.65
300.329	3.48
300.542	3.28
300.755	3.26
300.967	3.22
301.18	3.04
301.393	3.4
301.605	3.11
301.818	2.72
302.031	2.5
302.243	2.51
302.456	2.97
302.669	2.77
302.881	3.11
303.094	2.91
303.307	3.13
303.519	3.02
303.732	3.06
303.944	2.94
304.157	3.62
304.37	3.4
304.582	3.77
304.795	3.69
305.007	4.2
305.22	4.33
305.432	4.15
305.645	4.21
305.857	4.52
306.069	4.4
306.282	4.48
306.494	4.4
306.707	4.83
306.919	4.47
307.132	4.15
307.344	3.85
307.556	4.03
307.769	4.63
307.981	4.42
308.193	4.03
308.406	4.07
308.618	3.95
308.83	3.96
309.043	3.67
309.255	3.76
309.467	3.68
309.679	3.67
309.892	3.49
310.104	3.03
310.316	3.39
310.528	3.59
310.74	3.47
310.953	3.75
311.165	3.59
311.377	3.66
311.589	3.57
311.801	3.67
312.013	3.67
312.225	3.64
312.437	3.97
312.649	3.8
312.862	3.77
313.074	3.98
313.286	4.04
313.498	4.2
313.71	4.11
313.922	4.44
314.134	4.44
314.346	4.37
314.558	4.44
314.77	4.62
314.982	4.34
315.193	4.48
315.405	4.17
315.617	4.09
315.829	4.05
316.041	4.3
316.253	3.83
316.465	3.96
316.677	4.31
316.888	4.25
317.1	4.15
317.312	4.41
317.524	4.34
317.736	4.44
317.947	4.36
318.159	4.54
318.371	4.67
318.583	5.01
318.794	5.28
319.006	5.49
319.218	5.1
319.43	4.84
319.641	4.61
319.853	4.3
320.064	4.73
320.276	5.04
320.488	4.49
320.699	4.44
320.911	4.33
321.123	4.03
321.334	3.71
321.546	4.17
321.757	4.75
321.969	5.18
322.18	5.55
322.392	5.15
322.603	4.63
322.815	5.33
323.026	5.1
323.238	5.03
323.449	5.43
323.661	5.3
323.872	5.07
324.083	4.82
324.295	4.52
324.506	4.6
324.718	4.56
324.929	4.84
325.14	4.65
325.352	4.89
325.563	4.77
325.774	4.69
325.986	4.75
326.197	4.98
326.408	5.05
326.62	5.14
326.831	5.1
327.042	5.31
327.253	5.1
327.464	4.99
327.676	5.15
327.887	5.59
328.098	5.62
328.309	6.1
328.52	6.13
328.732	6.09
328.943	6.2
329.154	6.02
329.365	6.24
329.576	6.8
329.787	6.81
329.998	6.68
330.209	6.41
330.42	6.34
330.631	5.99
330.842	5.66
331.053	5.73
331.264	5.75
331.475	5.61
331.686	5.25
331.897	5.17
332.108	5.08
332.319	5.07
332.53	5.15
332.741	5.17
332.952	5.53
333.163	5.93
333.374	6.01
333.585	5.88
333.795	6.34
334.006	6.54
334.217	6.66
334.428	7.2
334.639	7.01
334.849	6.95
335.06	7.01
335.271	6.33
335.482	6.55
335.692	6.64
335.903	6.83
336.114	6.58
336.325	6.65
336.535	6.45
336.746	6.01
336.957	6.31
337.167	6.43
337.378	6.56
337.589	6.74
337.799	6.31
338.01	6.13
338.22	5.98
338.431	5.84
338.642	5.72
338.852	5.65
339.063	5.67
339.273	5.62
339.484	5.45
339.694	5.22
339.905	5.54
340.115	5.63
340.326	5.32
340.536	5.47
340.746	5.69
340.957	5.71
341.167	6.08
341.378	6.19
341.588	6.08
341.799	6.08
342.009	5.67
342.219	5.68
342.43	5.57
342.64	5.96
342.85	6.02
343.061	6.18
343.271	6.22
343.481	5.76
343.691	5.76
343.902	5.52
344.112	5.58
344.322	5.88
344.532	5.69
344.743	5.93
344.953	5.85
345.163	5.47
345.373	5.39
345.583	5.33
345.793	5.36
346.004	5.39
346.214	5.38
346.424	5.42
346.634	5.47
346.844	5.55
347.054	5.44
347.264	5.27
347.474	5.52
347.684	5.38
347.894	5.46
348.104	5.61
348.314	5.56
348.524	5.63
348.734	5.44
348.944	5.52
349.154	5.31
349.364	5.37
349.574	5.29
349.784	5.52
349.994	5.33
350.204	5.41
350.413	5.35
350.623	5.29
350.833	5.3
351.043	5.45
351.253	5.18
351.463	4.96
351.672	4.95
351.882	5.03
352.092	4.83
352.302	5.2
352.511	5.04
352.721	4.92
352.931	4.93
353.141	4.9
353.35	4.79
353.56	4.93
353.77	5.01
353.979	4.84
354.189	5.11
354.399	5.24
354.608	5.3
354.818	5.22
355.027	5.37
355.237	5.33
355.447	5.7
355.656	5.91
355.866	6.14
356.075	6.09
356.285	6.16
356.494	5.98
356.704	5.89
356.913	5.65
357.123	5.49
357.332	5.35
357.542	5.24
357.751	5.02
357.96	4.88
358.17	4.58
358.379	4.93
358.589	4.88
358.798	4.84
359.007	4.64
359.217	4.72
359.426	4.91
359.635	4.86
359.845	5.03
360.054	4.96
360.263	4.9
360.472	4.92
360.682	4.62
360.891	4.42
361.1	4.29
361.309	4.39
361.519	4.42
361.728	4.35
361.937	4.21
362.146	4.16
362.355	4.09
362.564	4.14
362.774	4.12
362.983	4.17
363.192	4.3
363.401	4.26
363.61	4.2
363.819	4.23
364.028	4.14
364.237	4.52
364.446	4.57
364.655	4.58
364.864	4.66
365.073	4.65
365.282	4.7
365.491	4.66
365.7	4.89
365.909	5.16
366.118	4.93
366.327	5
366.536	5
366.745	4.86
366.954	5.02
367.162	4.82
367.371	4.81
367.58	5.01
367.789	5.08
367.998	4.93
368.207	4.79
368.415	4.66
368.624	4.7
368.833	4.34
369.042	4.4
369.25	4.22
369.459	4.23
369.668	4.28
369.877	3.9
370.085	3.77
370.294	4.04
370.503	3.99
370.711	4.36
370.92	4.19
371.129	4.6
371.337	4.59
371.546	4.61
371.754	4.56
371.963	4.71
372.171	4.71
372.38	4.64
372.589	4.5
372.797	4.49
373.006	4.23
373.214	4.27
373.423	4.03
373.631	4.08
373.84	3.82
374.048	4.05
374.256	3.84
374.465	3.99
374.673	4.21
374.882	4.38
375.09	4.26
375.298	4.36
375.507	4.38
375.715	4.47
375.923	4.45
376.132	4.81
376.34	4.62
376.548	4.62
376.757	4.56
376.965	4.32
377.173	4.04
377.381	4.26
377.59	4.25
377.798	4.42
378.006	4.32
378.214	4.24
378.423	4.08
378.631	4.21
378.839	4.22
379.047	4.33
379.255	4.73
379.463	4.91
379.671	4.57
379.879	4.52
380.088	4.54
380.296	4.63
380.504	4.57
380.712	4.86
380.92	4.98
381.128	4.93
381.336	4.94
381.544	4.85
381.752	4.7
381.96	4.84
382.168	4.87
382.376	4.76
382.584	4.69
382.791	4.76
382.999	4.58
383.207	4.51
383.415	4.39
383.623	4.39
383.831	4.06
384.039	4.21
384.247	4.13
384.454	4.14
384.662	4.11
384.87	3.98
385.078	4.03
385.285	3.82
385.493	3.67
385.701	3.64
385.909	3.33
386.116	3.38
386.324	3.14
386.532	3.11
386.739	3.19
386.947	3.1
387.155	3.07
387.362	3.06
387.57	3.15
387.778	3.16
387.985	3.38
388.193	3.52
388.4	3.42
388.608	3.47
388.816	3.52
389.023	3.45
389.231	3.74
389.438	3.75
389.646	3.58
389.853	3.51
390.061	3.61
390.268	3.55
390.475	3.57
390.683	3.8
390.89	3.54
391.098	3.7
391.305	3.5
391.512	3.37
391.72	3.4
391.927	3.38
392.135	3.18
392.342	3.04
392.549	3
392.756	2.98
392.964	2.85
393.171	3.03
393.378	2.75
393.586	2.9
393.793	2.84
394	2.99
394.207	3.15
394.414	3.41
394.622	3.34
394.829	3.38
395.036	3.37
395.243	3.31
395.45	3.36
395.657	3.54
395.864	3.63
396.072	3.64
396.279	3.46
396.486	3.43
396.693	3.29
396.9	3.32
397.107	3.56
397.314	3.66
397.521	3.56
397.728	3.61
397.935	3.66
398.142	3.74
398.349	3.72
398.556	3.5
398.763	3.55
398.97	3.62
399.177	3.9
399.383	3.66
399.59	3.69
399.797	3.8
400.004	3.71
400.211	3.53
400.418	3.2
400.625	3.14
400.831	3.42
401.038	3.17
401.245	3.21
401.452	2.93
401.658	2.87
401.865	2.66
402.072	2.81
402.279	2.89
402.485	2.84
402.692	3.06
402.899	3.11
403.105	3.01
403.312	3.18
403.519	3.16
403.725	3.2
403.932	3.27
404.138	3.25
404.345	3.2
404.552	3.24
404.758	3.35
404.965	3.14
405.171	3
405.378	2.97
405.584	3.06
405.791	3.03
405.997	2.99
406.204	2.92
406.41	3.05
406.617	3.02
406.823	2.95
407.029	2.95
407.236	3.06
407.442	3.12
407.649	3.29
407.855	3.07
408.061	3.14
408.268	3.12
408.474	3.1
408.68	3.08
408.887	3.03
409.093	2.99
409.299	3.11
409.505	3.08
409.712	3.06
409.918	2.98
410.124	2.95
410.33	2.9
410.537	2.72
410.743	2.77
410.949	2.66
411.155	2.65
411.361	2.65
411.567	2.38
411.773	2.4
411.98	2.43
412.186	2.41
412.392	2.58
412.598	2.46
412.804	2.85
413.01	2.87
413.216	3.01
413.422	3.05
413.628	3.07
413.834	3.2
414.04	3.15
414.246	3.17
414.452	3.09
414.658	2.94
414.864	3.02
415.07	2.81
415.275	2.72
415.481	2.62
415.687	2.6
415.893	2.41
416.099	2.31
416.305	2.27
416.511	2.22
416.716	2.13
416.922	2.1
417.128	2.02
417.334	1.98
417.539	1.96
417.745	2.07
417.951	2.02
418.157	2.1
418.362	2.07
418.568	2.14
418.774	2.11
418.979	2.18
419.185	2.17
419.391	2.15
419.596	2.13
419.802	2.18
420.008	2
420.213	2.65
420.419	2.62
420.624	2.59
420.83	2.56
421.035	2.59
421.241	2.54
421.446	2.53
421.652	2.6
421.857	2.65
422.063	2.62
422.268	2.7
422.474	2.07
422.679	2.05
422.885	2.06
423.09	2.05
423.295	1.96
423.501	1.91
423.706	1.97
423.911	1.93
424.117	1.93
424.322	1.9
424.527	1.92
424.733	1.86
424.938	1.89
425.143	1.85
425.349	1.91
425.554	2
425.759	2.05
425.964	2.02
426.169	2.09
426.375	2.04
426.58	2.1
426.785	2.09
426.99	2.2
427.195	2.22
427.4	2.35
427.605	2.16
427.811	2.08
428.016	2.16
428.221	2.12
428.426	2.07
428.631	2.15
428.836	2.1
429.041	2.12
429.246	2.13
429.451	2.12
429.656	2.15
429.861	2.26
430.066	2.33
430.271	2.21
430.476	2.2
430.681	2.23
430.886	2.22
431.09	2.28
431.295	2.28
431.5	2.34
431.705	2.29
431.91	2.25
432.115	2.18
432.32	2.17
432.524	2.17
432.729	2.16
432.934	2.16
433.139	2.18
433.343	2.04
433.548	2.05
433.753	1.95
433.958	2.12
434.162	2.22
434.367	2.36
434.572	2.39
434.776	2.55
434.981	2.65
435.186	2.59
435.39	2.64
435.595	2.79
435.799	2.63
436.004	2.73
436.209	2.61
436.413	2.47
436.618	2.36
436.822	2.33
437.027	2.37
437.231	2.25
437.436	2.24
437.64	2.08
437.845	2.01
438.049	2
438.253	2.02
438.458	1.96
438.662	1.93
438.867	1.94
439.071	1.85
439.275	1.73
439.48	1.75
439.684	1.79
439.888	1.85
440.093	1.83
440.297	1.94
440.501	1.9
440.706	1.84
440.91	1.85
441.114	1.8
441.318	1.88
441.523	1.86
441.727	1.92
441.931	1.88
442.135	1.86
442.339	1.89
442.543	1.78
442.748	1.76
442.952	1.9
443.156	1.96
443.36	2.07
443.564	2.17
443.768	2.21
443.972	2.18
444.176	2.18
444.38	2.23
444.584	2.23
444.788	2.21
444.992	2.16
445.196	2.09
445.4	2.04
445.604	1.99
445.808	1.88
446.012	1.84
446.216	1.74
446.42	1.77
446.624	1.73
446.828	1.72
447.032	1.81
447.235	1.77
447.439	1.76
447.643	1.76
447.847	1.77
448.051	1.79
448.254	1.81
448.458	1.9
448.662	1.89
448.866	1.86
449.069	1.93
449.273	1.85
449.477	2.02
449.681	2.12
449.884	2.18
450.088	2.15
450.292	2.16
450.495	2.1
450.699	2.04
450.902	2.06
451.106	2.07
451.31	1.93
451.513	2.02
451.717	1.85
451.92	1.78
452.124	1.75
452.327	1.73
452.531	1.78
452.734	1.83
452.938	1.91
453.141	1.91
453.345	1.82
453.548	1.86
453.752	1.88
453.955	2.02
454.158	1.97
454.362	2
454.565	1.96
454.769	1.86
454.972	1.91
455.175	1.93
455.379	1.88
455.582	1.97
455.785	2.02
455.988	2.04
456.192	1.96
456.395	2.05
456.598	2.03
456.801	2.04
457.005	2.2
457.208	2.18
457.411	2.15
457.614	2.16
457.817	2.14
458.021	2.11
458.224	2.08
458.427	2
458.63	1.93
458.833	1.95
459.036	1.99
459.239	1.92
459.442	1.82
459.645	1.81
459.848	1.75
460.051	1.74
460.254	1.74
460.457	1.71
460.66	1.73
460.863	1.81
461.066	1.82
461.269	1.81
461.472	1.86
461.675	1.97
461.878	2.01
462.081	2.02
462.284	2.08
462.486	2.1
462.689	2.15
462.892	2.16
463.095	2.02
463.298	2.04
463.5	2.02
463.703	1.98
463.906	2.01
464.109	1.92
464.311	2.01
464.514	1.95
464.717	1.97
464.92	1.83
465.122	1.95
465.325	2.03
465.528	1.99
465.73	2.07
465.933	2.01
466.135	1.98
466.338	1.97
466.541	1.96
466.743	1.98
466.946	2.02
467.148	2.09
467.351	2.01
467.553	1.94
467.756	2.04
467.958	1.97
468.161	2.03
468.363	2.05
468.566	2.12
468.768	2.1
468.971	2.08
469.173	2.12
469.375	2
469.578	2.03
469.78	2.12
469.983	1.94
470.185	2.09
470.387	1.98
470.59	1.94
470.792	1.95
470.994	2.05
471.196	2.06
471.399	2.01
471.601	2.1
471.803	2.13
472.005	2.17
472.208	2.27
472.41	2.16
472.612	2.14
472.814	2.25
473.016	2.17
473.218	2.04
473.421	2.05
473.623	2.1
473.825	2.14
474.027	2.06
474.229	1.96
474.431	1.94
474.633	2.02
474.835	2.05
475.037	1.98
475.239	1.99
475.441	1.95
475.643	2.01
475.845	1.9
476.047	1.85
476.249	1.97
476.451	2.04
476.653	1.99
476.855	1.97
477.057	2.09
477.258	2.05
477.46	2.03
477.662	2.11
477.864	2.03
478.066	2.09
478.268	2.08
478.469	1.98
478.671	1.93
478.873	1.88
479.075	1.83
479.276	1.73
479.478	1.79
479.68	1.82
479.882	1.8
480.083	1.84
480.285	1.74
480.487	1.78
480.688	1.78
480.89	1.73
481.091	1.75
481.293	1.71
481.495	1.65
481.696	1.64
481.898	1.65
482.099	1.59
482.301	1.57
482.502	1.58
482.704	1.51
482.905	1.49
483.107	1.48
483.308	1.5
483.51	1.51
483.711	1.52
483.913	1.51
484.114	1.5
484.315	1.53
484.517	1.51
484.718	1.51
484.92	1.56
485.121	1.58
485.322	1.61
485.524	1.62
485.725	1.63
485.926	1.63
486.127	1.64
486.329	1.62
486.53	1.59
486.731	1.62
486.932	1.61
487.134	1.58
487.335	1.59
487.536	1.57
487.737	1.58
487.938	1.59
488.139	1.59
488.341	1.6
488.542	1.61
488.743	1.67
488.944	1.72
489.145	1.76
489.346	1.78
489.547	1.77
489.748	1.8
489.949	1.79
490.15	1.71
490.351	1.74
490.552	1.73
490.753	1.73
490.954	1.67
491.155	1.63
491.356	1.63
491.557	1.65
491.758	1.68
491.959	1.67
492.159	1.69
492.36	1.75
492.561	1.77
492.762	1.8
492.963	1.88
493.164	1.88
493.364	1.9
493.565	1.88
493.766	1.88
493.967	1.85
494.167	1.91
494.368	1.96
494.569	1.93
494.769	1.94
494.97	1.93
495.171	1.86
495.371	1.96
495.572	1.97
495.773	2.02
495.973	2.11
496.174	2.17
496.375	2.1
496.575	2.08
496.776	2.09
496.976	2.14
497.177	2.17
497.377	2.24
497.578	2.27
497.778	2.3
497.979	2.29
498.179	2.32
498.38	2.36
498.58	2.42
498.78	2.41
498.981	2.43
499.181	2.34
499.382	2.3
499.582	2.29
499.782	2.28
499.983	2.33
500.183	2.39
500.383	2.31
500.584	2.26
500.784	2.27
500.984	2.31
501.184	2.45
501.385	2.47
501.585	2.51
501.785	2.52
501.985	2.53
502.185	2.56
502.386	2.59
502.586	2.67
502.786	2.79
502.986	2.85
503.186	2.95
503.386	2.94
503.586	3.02
503.786	2.98
503.987	3.02
504.187	3.1
504.387	3.05
504.587	3.04
504.787	2.89
504.987	2.8
505.187	2.76
505.387	2.74
505.587	2.69
505.786	2.72
505.986	2.91
506.186	2.86
506.386	2.78
506.586	2.92
506.786	2.89
506.986	3.03
507.186	3.09
507.386	3.15
507.585	3.17
507.785	3.26
507.985	3.16
508.185	3.08
508.384	3.22
508.584	3.19
508.784	3.16
508.984	3.16
509.183	3.2
509.383	3.15
509.583	3.16
509.782	3.11
509.982	3.01
510.182	3.15
510.381	3.12
510.581	3.04
510.781	3.11
510.98	3.15
511.18	3.25
511.379	3.16
511.579	3.27
511.778	3.31
511.978	3.34
512.177	3.41
512.377	3.47
512.576	3.51
512.776	3.51
512.975	3.51
513.175	3.43
513.374	3.45
513.573	3.65
513.773	3.61
513.972	3.59
514.172	3.59
514.371	3.62
514.57	3.59
514.77	3.6
514.969	3.64
515.168	3.73
515.367	3.79
515.567	3.77
515.766	3.76
515.965	3.78
516.164	3.8
516.364	3.88
516.563	3.91
516.762	3.88
516.961	3.9
517.16	3.96
517.359	3.89
517.559	3.86
517.758	3.83
517.957	3.72
518.156	3.76
518.355	3.73
518.554	3.77
518.753	3.75
518.952	3.78
519.151	3.89
519.35	3.88
519.549	3.92
519.748	3.95
519.947	3.99
520.146	4.13
520.345	4.11
520.544	4.23
520.743	4.27
520.942	4.33
521.141	4.37
521.339	4.37
521.538	4.45
521.737	4.45
521.936	4.65
522.135	4.74
522.333	4.79
522.532	4.88
522.731	4.84
522.93	4.85
523.129	4.89
523.327	4.97
523.526	4.91
523.725	4.9
523.923	4.92
524.122	4.89
524.321	4.9
524.519	4.86
524.718	4.88
524.917	4.95
525.115	4.92
525.314	4.92
525.512	4.91
525.711	4.99
525.909	4.94
526.108	4.96
526.306	4.93
526.505	4.96
526.703	4.97
526.902	4.92
527.1	4.82
527.299	4.78
527.497	4.76
527.696	4.74
527.894	4.71
528.092	4.75
528.291	4.72
528.489	4.73
528.688	4.71
528.886	4.71
529.084	4.74
529.283	4.83
529.481	4.88
529.679	4.91
529.877	4.93
530.076	5
530.274	5.04
530.472	5.13
530.67	5.18
530.869	5.24
531.067	5.32
531.265	5.37
531.463	5.36
531.661	5.39
531.859	5.47
532.057	5.53
532.255	5.5
532.454	5.52
532.652	5.52
532.85	5.57
533.048	5.61
533.246	5.62
533.444	5.66
533.642	5.69
533.84	5.74
534.038	5.8
534.236	5.81
534.434	5.89
534.632	5.92
534.83	5.99
535.027	6.02
535.225	6.05
535.423	6.13
535.621	6.24
535.819	6.37
536.017	6.44
536.215	6.46
536.412	6.61
536.61	6.65
536.808	6.82
537.006	6.86
537.203	6.97
537.401	7.12
537.599	7.24
537.797	7.35
537.994	7.48
538.192	7.62
538.39	7.69
538.587	7.77
538.785	7.95
538.983	8.03
539.18	8.25
539.378	8.37
539.575	8.45
539.773	8.54
539.97	8.61
540.168	8.69
540.366	8.8
540.563	8.9
540.761	8.99
540.958	9.02
541.155	9.09
541.353	9.12
541.55	9.22
541.748	9.32
541.945	9.42
542.143	9.51
542.34	9.62
542.537	9.73
542.735	9.9
542.932	10.12
543.129	10.42
543.327	10.7
543.524	11.04
543.721	11.44
543.919	11.87
544.116	12.33
544.313	12.87
544.51	13.41
544.708	13.93
544.905	14.45
545.102	14.88
545.299	15.26
545.496	15.6
545.693	15.83
545.891	15.84
546.088	15.82
546.285	15.68
546.482	15.49
546.679	15.28
546.876	15.09
547.073	14.86
547.27	14.59
547.467	14.25
547.664	13.96
547.861	13.75
548.058	13.57
548.255	13.32
548.452	13.29
548.649	13.23
548.846	13.2
549.043	13.02
549.24	12.95
549.437	12.95
549.633	12.85
549.83	12.74
550.027	12.57
550.224	12.5
550.421	12.57
550.618	12.44
550.814	12.26
551.011	12.02
551.208	11.89
551.405	11.73
551.601	11.47
551.798	11.38
551.995	11.35
552.191	11.23
552.388	11.16
552.585	11.01
552.781	10.91
552.978	10.85
553.175	10.82
553.371	10.77
553.568	10.74
553.764	10.75
553.961	10.84
554.157	10.79
554.354	10.87
554.55	10.82
554.747	10.9
554.943	10.87
555.14	10.94
555.336	11.07
555.533	11.13
555.729	11.18
555.926	11.24
556.122	11.18
556.318	11.17
556.515	11.23
556.711	11.27
556.907	11.27
557.104	11.37
557.3	11.39
557.496	11.31
557.693	11.36
557.889	11.35
558.085	11.44
558.281	11.45
558.478	11.61
558.674	11.59
558.87	11.7
559.066	11.67
559.262	11.62
559.459	11.57
559.655	11.61
559.851	11.6
560.047	11.54
560.243	11.48
560.439	11.53
560.635	11.42
560.831	11.33
561.027	11.33
561.223	11.41
561.419	11.5
561.615	11.57
561.811	11.63
562.007	11.66
562.203	11.81
562.399	11.84
562.595	11.94
562.791	12.1
562.987	12.24
563.183	12.22
563.379	12.27
563.575	12.29
563.771	12.28
563.966	12.17
564.162	12.01
564.358	11.89
564.554	11.95
564.75	11.94
564.945	11.81
565.141	11.77
565.337	11.71
565.533	11.59
565.728	11.48
565.924	11.5
566.12	11.65
566.315	11.79
566.511	11.85
566.707	11.76
566.902	11.83
567.098	11.89
567.293	11.88
567.489	11.99
567.684	12.11
567.88	12.12
568.076	12.16
568.271	12.13
568.467	12.25
568.662	12.33
568.858	12.37
569.053	12.33
569.248	12.3
569.444	12.33
569.639	12.38
569.835	12.31
570.03	12.36
570.225	12.29
570.421	12.32
570.616	12.27
570.812	12.18
571.007	12.22
571.202	12.25
571.397	12.28
571.593	12.29
571.788	12.19
571.983	12.22
572.178	12.28
572.374	12.35
572.569	12.34
572.764	12.35
572.959	12.39
573.154	12.42
573.35	12.39
573.545	12.45
573.74	12.57
573.935	12.65
574.13	12.72
574.325	12.84
574.52	12.96
574.715	13.12
574.91	13.36
575.105	13.63
575.3	13.83
575.495	14.08
575.69	14.3
575.885	14.56
576.08	14.95
576.275	15.32
576.47	15.75
576.665	16.01
576.86	16.33
577.055	16.62
577.25	16.9
577.444	17.31
577.639	17.65
577.834	18.08
578.029	18.35
578.224	18.59
578.418	18.92
578.613	18.98
578.808	19.28
579.003	19.37
579.197	19.49
579.392	19.67
579.587	19.66
579.781	19.69
579.976	19.59
580.171	19.5
580.365	19.33
580.56	19.3
580.755	19.19
580.949	19.2
581.144	19.24
581.338	19.23
581.533	19.14
581.727	19.27
581.922	19.33
582.116	19.45
582.311	19.71
582.505	20.01
582.7	19.96
582.894	20.24
583.089	20.26
583.283	20.43
583.478	20.63
583.672	20.68
583.866	20.74
584.061	20.65
584.255	20.71
584.449	20.6
584.644	20.63
584.838	20.78
585.032	20.84
585.226	21.03
585.421	21.06
585.615	21.1
585.809	21.4
586.003	21.5
586.198	21.87
586.392	22.04
586.586	22.19
586.78	22.17
586.974	22.26
587.168	22.18
587.363	21.95
587.557	21.7
587.751	21.47
587.945	21.02
588.139	20.86
588.333	20.39
588.527	20.11
588.721	19.78
588.915	19.48
589.109	19.13
589.303	18.97
589.497	18.98
589.691	18.98
589.885	18.82
590.079	19
590.273	18.93
590.466	19.24
590.66	19.42
590.854	19.67
591.048	19.97
591.242	20.37
591.436	20.65
591.629	20.86
591.823	21.15
592.017	21.58
592.211	21.79
592.404	21.88
592.598	21.84
592.792	21.9
592.986	21.82
593.179	21.68
593.373	21.41
593.567	21.23
593.76	20.97
593.954	20.71
594.147	20.28
594.341	19.81
594.535	19.73
594.728	19.4
594.922	18.95
595.115	18.6
595.309	18.41
595.502	18.19
595.696	17.99
595.889	17.8
596.083	17.59
596.276	17.54
596.47	17.47
596.663	17.27
596.856	17.34
597.05	17.57
597.243	17.92
597.437	18
597.63	18.16
597.823	18.31
598.017	18.5
598.21	18.81
598.403	19.19
598.596	19.68
598.79	19.98
598.983	20.27
599.176	20.28
599.369	20.31
599.563	20.52
599.756	20.63
599.949	20.8
600.142	21
600.335	20.94
600.528	20.7
600.722	20.55
600.915	20.37
601.108	20.16
601.301	20.02
601.494	19.73
601.687	19.41
601.88	19.18
602.073	18.94
602.266	18.61
602.459	18.43
602.652	18.17
602.845	17.86
603.038	17.65
603.231	17.51
603.424	17.32
603.617	17.32
603.809	17.15
604.002	17.04
604.195	17.03
604.388	17.03
604.581	17.06
604.774	17.17
604.966	17.33
605.159	17.53
605.352	17.73
605.545	18.02
605.737	18.11
605.93	18.47
606.123	18.85
606.316	19.18
606.508	19.51
606.701	19.9
606.894	20.37
607.086	20.74
607.279	21.32
607.471	21.68
607.664	22.23
607.857	23.11
608.049	24.13
608.242	25.37
608.434	27.06
608.627	29.13
608.819	31.59
609.012	34.44
609.204	37.65
609.397	40.95
609.589	44.69
609.782	48.64
609.974	52.73
610.166	56.95
610.359	61.04
610.551	64.59
610.743	67.86
610.936	70.85
611.128	73.11
611.32	74.74
611.513	75.83
611.705	76.15
611.897	75.9
612.09	75.05
612.282	73.72
612.474	71.93
612.666	69.89
612.858	67.93
613.051	65.58
613.243	63.32
613.435	61.26
613.627	59.38
613.819	57.62
614.011	55.82
614.203	54.13
614.395	52.2
614.588	50.3
614.78	48.54
614.972	46.92
615.164	45.1
615.356	43.41
615.548	41.73
615.74	40.18
615.932	38.49
616.124	37.05
616.315	35.6
616.507	34.33
616.699	33.27
616.891	32.36
617.083	31.06
617.275	30.36
617.467	29.64
617.659	28.82
617.85	28.1
618.042	27.75
618.234	27.46
618.426	27.21
618.618	26.9
618.809	26.81
619.001	26.51
619.193	26.46
619.384	26.28
619.576	26.2
619.768	26.41
619.959	26.25
620.151	26.3
620.343	26.27
620.534	26.24
620.726	26.31
620.917	26.31
621.109	26.31
621.301	26.39
621.492	26.21
621.684	26.38
621.875	26.53
622.067	26.76
622.258	26.83
622.45	26.82
622.641	26.82
622.832	26.89
623.024	26.87
623.215	27.03
623.407	26.95
623.598	27.14
623.789	27.14
623.981	26.81
624.172	26.64
624.363	26.68
624.555	26.65
624.746	26.38
624.937	26.15
625.129	25.94
625.32	25.68
625.511	25.64
625.702	25.36
625.893	25.11
626.085	25
626.276	24.95
626.467	24.66
626.658	24.47
626.849	24.5
627.04	24.58
627.231	24.62
627.422	24.76
627.614	24.84
627.805	25.07
627.996	25.25
628.187	25.59
628.378	25.87
628.569	26.34
628.76	26.8
628.951	27.49
629.142	28.13
629.332	28.77
629.523	29.28
629.714	29.8
629.905	30.44
630.096	30.94
630.287	31.35
630.478	31.66
630.669	31.63
630.859	31.69
631.05	31.31
631.241	30.87
631.432	30.38
631.623	29.74
631.813	29.09
632.004	28.31
632.195	27.44
632.385	26.62
632.576	25.88
632.767	25.35
632.957	24.73
633.148	24.05
633.339	23.38
633.529	22.76
633.72	22.38
633.91	22.13
634.101	21.65
634.292	21.16
634.482	20.97
634.673	20.84
634.863	20.68
635.054	20.53
635.244	20.45
635.435	20.54
635.625	20.72
635.815	20.81
636.006	20.59
636.196	20.61
636.387	21.03
636.577	21.29
636.767	21.31
636.958	21.32
637.148	21.39
637.338	21.55
637.529	21.35
637.719	21.4
637.909	21.53
638.099	21.58
638.29	21.55
638.48	21.53
638.67	21.2
638.86	21.32
639.05	21.22
639.241	21.39
639.431	21.38
639.621	21.53
639.811	21.41
640.001	21.69
640.191	21.95
640.381	22.15
640.571	22.16
640.761	22.33
640.951	22.16
641.141	22.21
641.331	21.96
641.521	22.13
641.711	22.6
641.901	22.73
642.091	22.59
642.281	22.56
642.471	22.61
642.661	22.6
642.851	22.7
643.041	22.97
643.231	23.11
643.42	23.28
643.61	23.02
643.8	22.74
643.99	22.62
644.18	22.31
644.369	22.28
644.559	22.3
644.749	22.33
644.939	22.15
645.128	22.06
645.318	21.96
645.508	22.07
645.697	22.28
645.887	22.24
646.076	22.27
646.266	22.39
646.456	22.41
646.645	22.48
646.835	22.73
647.024	22.77
647.214	22.62
647.403	22.69
647.593	22.71
647.782	22.61
647.972	22.58
648.161	22.71
648.351	22.9
648.54	23.26
648.73	23.45
648.919	23.39
649.108	23.52
649.298	23.95
649.487	24.07
649.677	24.16
649.866	24.43
650.055	24.42
650.244	24.46
650.434	24.48
650.623	24.3
650.812	24.1
651.002	24.09
651.191	24
651.38	23.77
651.569	23.8
651.758	23.74
651.947	23.56
652.137	23.85
652.326	24
652.515	24
652.704	23.96
652.893	23.92
653.082	23.98
653.271	24.09
653.46	23.98
653.649	23.96
653.838	23.75
654.027	23.89
654.216	23.76
654.405	23.64
654.594	23.43
654.783	23.07
654.972	23.08
655.161	22.86
655.35	22.91
655.539	23.05
655.728	23.04
655.916	23.11
656.105	23.13
656.294	22.97
656.483	22.83
656.672	22.81
656.86	23.04
657.049	22.97
657.238	22.65
657.427	22.24
657.615	21.99
657.804	21.85
657.993	21.51
658.181	21.26
658.37	21.19
658.559	20.98
658.747	20.97
658.936	20.6
659.125	20.62
659.313	20.63
659.502	20.71
659.69	20.66
659.879	20.72
660.067	21
660.256	21.2
660.444	21.3
660.633	21.62
660.821	21.77
661.01	22.2
661.198	22.37
661.387	22.64
661.575	22.99
661.763	23.52
661.952	23.56
662.14	23.96
662.328	24.1
662.517	24.39
662.705	24.43
662.893	24.57
663.082	24.82
663.27	24.89
663.458	25.37
663.646	25.36
663.834	25.42
664.023	25.47
664.211	25.51
664.399	25.46
664.587	25.39
664.775	25.32
664.963	25.26
665.152	25.02
665.34	24.96
665.528	24.51
665.716	24.5
665.904	24.26
666.092	24.52
666.28	24.49
666.468	24.11
666.656	23.96
666.844	23.94
667.032	23.92
667.22	23.93
667.408	23.63
667.596	23.73
667.784	23.65
667.971	23.78
668.159	23.45
668.347	22.95
668.535	23.24
668.723	23.42
668.911	23.35
669.098	23.24
669.286	23.41
669.474	23.59
669.662	23.64
669.849	23.67
670.037	23.44
670.225	23.66
670.413	23.98
670.6	23.89
670.788	23.91
670.976	23.99
671.163	24.18
671.351	24.11
671.538	24.11
671.726	24.16
671.913	24.24
672.101	24.33
672.289	24.43
672.476	24.47
672.664	24.64
672.851	24.39
673.039	24.64
673.226	24.8
673.413	24.76
673.601	24.89
673.788	24.98
673.976	24.92
674.163	24.73
674.35	24.4
674.538	24.4
674.725	24.47
674.912	24.63
675.1	24.61
675.287	24.41
675.474	24.53
675.662	24.68
675.849	24.5
676.036	24.73
676.223	24.72
676.411	25.05
676.598	24.86
676.785	24.9
676.972	24.79
677.159	24.69
677.346	24.64
677.533	24.45
677.721	24.13
677.908	24.11
678.095	23.81
678.282	23.91
678.469	23.7
678.656	23.61
678.843	23.35
679.03	23
679.217	22.76
679.404	22.88
679.591	22.7
679.778	22.66
679.964	22.26
680.151	22.15
680.338	22.18
680.525	22.04
680.712	21.92
680.899	21.86
681.086	22.17
681.272	22.12
681.459	21.97
681.646	21.99
681.833	22.19
682.02	22.44
682.206	22.52
682.393	22.5
682.58	22.64
682.766	23.06
682.953	23.12
683.14	23.09
683.326	23.71
683.513	23.88
683.7	24.24
683.886	24.22
684.073	24.58
684.259	24.88
684.446	25.02
684.632	25.36
684.819	25.34
685.005	25.42
685.192	25.89
685.378	25.61
685.565	25.63
685.751	25.63
685.938	25.7
686.124	25.52
686.31	25.52
686.497	25.41
686.683	25.09
686.87	25.23
687.056	25.33
687.242	25
687.429	25
687.615	25.12
687.801	25.03
687.987	24.97
688.174	24.98
688.36	24.94
688.546	25.13
688.732	25.19
688.918	24.73
689.105	24.89
689.291	25.17
689.477	25.16
689.663	24.88
689.849	25.02
690.035	25.1
690.221	25
690.407	25
690.593	24.72
690.779	24.84
690.965	25.2
691.151	25.04
691.337	24.65
691.523	24.9
691.709	24.98
691.895	25.37
692.081	25.46
692.267	25.78
692.453	25.89
692.639	26.05
692.825	26
693.011	26.1
693.196	26.21
693.382	26.4
693.568	26.28
693.754	26.17
693.94	25.81
694.125	25.48
694.311	25.37
694.497	25.12
694.682	24.87
694.868	25.03
695.054	24.96
695.239	24.87
695.425	24.71
695.611	24.58
695.796	24.71
695.982	24.62
696.168	24.4
696.353	24.16
696.539	24.06
696.724	23.99
696.91	23.69
697.095	23.4
697.281	23.17
697.466	22.45
697.652	22.16
697.837	21.7
698.023	21.14
698.208	21.19
698.393	20.85
698.579	20.6
698.764	20.28
698.949	19.94
699.135	19.88
699.32	19.89
699.505	20.37
699.691	20.4
699.876	20.48
700.061	20.74
700.246	20.85
700.432	21.33
700.617	21.66
700.802	22.15
700.987	22.58
701.172	22.96
701.358	23.15
701.543	23.61
701.728	23.89
701.913	24.43
702.098	24.98
702.283	25.31
702.468	25.7
702.653	26.07
702.838	26.63
703.023	27.18
703.208	27.4
703.393	28.17
703.578	28.62
703.763	29.63
703.948	30.21
704.133	30.66
704.318	31.01
704.503	31.76
704.688	32.55
704.873	33.07
705.057	33.77
705.242	34.7
705.427	35.24
705.612	35.89
705.797	36.32
705.981	36.93
706.166	37.48
706.351	38.69
706.536	39.36
706.72	40.28
706.905	41.08
707.09	41.68
707.274	41.88
707.459	42.04
707.644	42.41
707.828	42.44
708.013	42.83
708.197	43.11
708.382	42.43
708.567	41.78
708.751	40.94
708.936	40.49
709.12	39.53
709.305	39.06
709.489	38.79
709.673	38.24
709.858	37.76
710.042	37.25
710.227	37.1
710.411	37.21
710.596	37.44
710.78	37.47
710.964	37.26
711.149	37.5
711.333	37.47
711.517	37.06
711.702	37.07
711.886	37.1
712.07	36.88
712.254	36.34
712.438	36.02
712.623	35.39
712.807	34.94
712.991	34.32
713.175	33.77
713.359	32.96
713.544	32.56
713.728	31.23
713.912	30.37
714.096	29.44
714.28	28.64
714.464	27.97
714.648	27.26
714.832	26.4
715.016	26.05
715.2	25.43
715.384	25.05
715.568	24.5
715.752	24.38
715.936	24.21
716.12	23.7
716.304	23.48
716.488	23.06
716.671	22.85
716.855	22.78
717.039	22.61
717.223	22.53
717.407	22.36
717.59	22.28
717.774	22.49
717.958	22.18
718.142	22.53
718.325	22.31
718.509	22.39
718.693	22.4
718.877	22.46
719.06	22.5
719.244	22.65
719.428	23.39
719.611	24
719.795	24.2
719.978	24.36
720.162	24.59
720.345	25.29
720.529	25.97
720.713	26.1
720.896	26.63
721.08	26.24
721.263	26.68
721.446	26.79
721.63	26.34
721.813	26.48
721.997	27.04
722.18	27.47
722.364	27.5
722.547	27.2
722.73	27.55
722.914	27.5
723.097	27.54
723.28	27.17
723.464	26.43
723.647	26.31
723.83	26.15
724.013	25.83
724.197	25.43
724.38	25.37
724.563	25.3
724.746	25.49
724.929	25.4
725.112	25.31
725.296	25.77
725.479	25.86
725.662	26.15
725.845	25.65
726.028	25.58
726.211	25.99
726.394	25.82
726.577	25.24
726.76	24.73
726.943	24.84
727.126	25.07
727.309	24.3
727.492	24.37
727.675	24.27
727.858	24.57
728.041	24.47
728.224	24.2
728.407	23.82
728.589	24.2
728.772	24.66
728.955	24.61
729.138	25
729.321	25.48
729.503	25.41
729.686	25.47
729.869	25.64
730.052	25.62
730.234	25.47
730.417	25.6
730.6	25.74
730.782	25.54
730.965	25.45
731.148	25.14
731.33	25.06
731.513	25.45
731.695	25.4
731.878	25.54
732.061	25.71
732.243	26.08
732.426	26.1
732.608	26.04
732.791	26.46
732.973	26.84
733.156	27.38
733.338	27.75
733.52	28.04
733.703	28.45
733.885	28.44
734.068	28.9
734.25	28.72
734.432	29.22
734.615	29.71
734.797	29.67
734.979	30.02
735.162	29.96
735.344	29.92
735.526	29.69
735.708	29.6
735.891	30.01
736.073	29.84
736.255	29.65
736.437	29.78
736.619	29.74
736.802	29.29
736.984	29.28
737.166	29.28
737.348	29.53
737.53	29.99
737.712	30.33
737.894	30.12
738.076	29.88
738.258	30.21
738.44	30.36
738.622	30.57
738.804	31.29
738.986	31.13
739.168	31.16
739.35	31.09
739.532	30.5
739.714	30.35
739.896	30.36
740.078	31.25
740.259	31.77
740.441	32.03
740.623	32.35
740.805	32.69
740.987	32.38
741.168	32.89
741.35	33.05
741.532	33.73
741.714	33.99
741.895	34.29
742.077	34.31
742.259	33.98
742.44	33.88
742.622	33.59
742.804	33.62
742.985	34.05
743.167	33.52
743.348	33.63
743.53	34.09
743.711	34.28
743.893	34.86
744.075	34.54
744.256	35.05
744.438	35.27
744.619	34.61
744.8	34.5
744.982	34.96
745.163	35.29
745.345	35.74
745.526	35.04
745.707	35.01
745.889	34.82
746.07	35.31
746.252	34.85
746.433	34.97
746.614	35.9
746.795	36.52
746.977	36.62
747.158	36.95
747.339	37.1
747.52	37.87
747.702	37.61
747.883	37.74
748.064	38.05
748.245	38.39
748.426	38.27
748.607	37.78
748.788	36.83
748.97	36.16
749.151	35.77
749.332	35.16
749.513	34.86
749.694	34.98
749.875	34.72
750.056	34.06
750.237	34.26
750.418	34.26
750.599	34.77
750.78	34.8
750.96	35.42
751.141	36.11
751.322	36.21
751.503	36.38
751.684	36.78
751.865	36.84
752.046	37.37
752.226	37.37
752.407	37.64
752.588	37.84
752.769	38.3
752.949	37.89
753.13	37.88
753.311	37.96
753.492	37.41
753.672	38.03
753.853	38.58
754.034	38.06
754.214	38.39
754.395	37.76
754.575	37.29
754.756	37.09
754.937	37.91
755.117	38.04
755.298	37.48
755.478	37.81
755.659	36.72
755.839	36.44
756.02	36.41
756.2	35.98
756.381	36.87
756.561	37.41
756.741	37.53
756.922	36.61
757.102	35.93
757.283	36.46
757.463	35.86
757.643	35.47
757.823	34.29
758.004	33.74
758.184	32.33
758.364	31.51
758.545	29.93
758.725	28.61
758.905	27.79
759.085	27.17
759.265	25.81
759.446	24.83
759.626	24.72
759.806	23.82
759.986	23.38
760.166	23.06
760.346	22.75
760.526	22.89
760.706	22.61
760.886	22.31
761.066	22.4
761.246	22.57
761.426	23.07
761.606	22.41
761.786	22.53
761.966	22.01
762.146	22.3
762.326	21.93
762.506	21.85
762.686	21.75
762.866	21.44
763.046	20.59
763.225	20.6
763.405	20.44
763.585	20.09
763.765	20.32
763.945	20.51
764.124	20.39
764.304	20.55
764.484	20.86
764.664	21.67
764.843	22.25
765.023	23.13
765.203	23.79
765.382	24.04
765.562	25.75
765.741	26.27
765.921	27.38
766.101	28.37
766.28	29.35
766.46	29.6
766.639	29.81
766.819	30.69
766.998	31.92
767.178	32.77
767.357	33.75
767.537	33.83
767.716	34.65
767.896	34.8
768.075	34.78
768.254	34.89
768.434	36.19
768.613	36.7
768.792	37.27
768.972	37.06
769.151	36.96
769.33	37.71
769.51	38.64
769.689	39.21
769.868	40.61
770.047	42.4
770.226	42.15
770.406	42.02
770.585	42.47
770.764	43.26
770.943	43.22
771.122	43.66
771.301	44.16
771.48	43.7
771.66	44.06
771.839	43.47
772.018	42.97
772.197	42.8
772.376	43.44
772.555	43.35
772.734	41.65
772.913	41.28
773.092	41.59
773.271	41.09
773.449	41.25
773.628	41.14
773.807	41.25
773.986	40.58
774.165	42.09
774.344	42.02
774.523	41.91
774.701	43.35
774.88	44.33
775.059	44.66
775.238	45.12
775.417	44.65
775.595	44.5
775.774	44.35
775.953	45.05
776.131	44.47
776.31	43.7
776.489	43.08
776.667	42.76
776.846	42.21
777.025	41.51
777.203	41.1
777.382	41.17
777.56	40.75
777.739	40.48
777.917	40.12
778.096	40.89
778.274	41.17
778.453	41.92
778.631	41.88
778.81	42.54
778.988	42.68
779.166	42.96
779.345	43.73
779.523	45.03
779.702	45.03
779.88	46.26
780.058	44.81
780.237	45.74
780.415	45.9
780.593	45.74
780.771	45.23
780.95	45.56
781.128	44.85
781.306	44.56
781.484	44.51
781.662	44.8
781.841	44.48
782.019	44.93
782.197	44.74
782.375	44.74
782.553	44.72
782.731	44.97
782.909	44.3
783.087	45.83
783.265	46
783.443	45.4
783.621	45.01
783.799	45.38
783.977	45.7
784.155	45.46
784.333	45.24
784.511	45.59
784.689	45.64
784.867	46
785.045	45.01
785.223	44.32
785.4	44.01
785.578	44.33
785.756	43.98
785.934	43.99
786.112	43.08
786.289	43.57
786.467	42.45
786.645	42.21
786.823	41.96
787	41.5
787.178	42.57
787.356	41.93
787.533	41.27
787.711	40.66
787.889	40.29
788.066	40.33
788.244	39.89
788.421	39.84
788.599	39.94
788.776	39.54
788.954	39.61
789.131	38.04
789.309	38.2
789.486	38.11
789.664	37.97
789.841	37.52
790.019	37.43
790.196	37.57
790.373	37.33
790.551	37.44
790.728	38.26
790.906	37.99
791.083	39.16
791.26	39.75
791.437	39.65
791.615	40.24
791.792	40.6
791.969	41.46
792.146	41.82
792.324	43.29
792.501	43.74
792.678	43.41
792.855	42.81
793.032	42.88
793.209	42.43
793.387	43.54
793.564	43.44
793.741	44.37
793.918	43.85
794.095	43.86
794.272	43.92
794.449	43.98
794.626	43.49
794.803	43.53
794.98	43.1
795.157	42.91
795.334	42.9
795.511	42.16
795.688	40.82
795.864	41.52
796.041	40.26
796.218	39.03
796.395	37.56
796.572	37.21
796.749	37.2
796.925	36.9
797.102	38
797.279	38.25
797.456	37.81
797.632	38.31
797.809	37.39
797.986	38.14
798.162	38.39
798.339	38.64
798.516	39.62
798.692	40.93
798.869	41.87
799.046	41.02
799.222	40.17
799.399	41.35
799.575	41.96
799.752	43.11
799.928	42.75
800.105	42.27
800.281	42.93
800.458	42.13
800.634	41.78
800.811	40.41
800.987	40.31
801.163	40.42
801.34	40.35
801.516	40.01
801.692	38.39
801.869	38.75
802.045	41.03
802.221	40.37
802.398	40.95
802.574	40.91
802.75	41.15
802.926	40.59
803.103	41.38
803.279	40.96
803.455	41.33
803.631	43.3
803.807	43.42
803.983	41.37
804.16	41.44
804.336	40.77
804.512	39.5
804.688	39.85
804.864	39.86
805.04	38.6
805.216	37.67
805.392	36.44
805.568	35.18
805.744	35.4
805.92	35.69
806.096	35.47
806.272	36.68
806.448	36.84
806.623	36.82
806.799	37.77
806.975	38.19
807.151	39.38
807.327	39.77
807.503	40.08
807.678	40.28
807.854	40.52
808.03	41.48
808.206	40.88
808.381	41.77
808.557	42.63
808.733	43.6
808.908	44.5
809.084	44.36
809.26	44.75
809.435	43.85
809.611	41.97
809.787	42.42
809.962	42.37
810.138	42.45
810.313	41.92
810.489	41.59
810.664	40.74
810.84	39.39
811.015	39.64
811.191	40.75
811.366	41.5
811.542	42.68
811.717	42.81
811.892	43.62
812.068	43.14
812.243	43.32
812.419	43.17
812.594	42.28
812.769	42.3
812.944	40.79
813.12	38.52
813.295	38.06
813.47	37.86
813.645	36.08
813.821	34.89
813.996	33.55
814.171	33.43
814.346	33.85
814.521	32.89
814.697	33.97
814.872	35.39
815.047	35.82
815.222	34.36
815.397	33.4
815.572	34.99
815.747	35.57
815.922	36.98
816.097	37.29
816.272	35.97
816.447	36.92
816.622	36.56
816.797	35.66
816.972	35.05
817.147	36.59
817.322	37.85
817.496	35.99
817.671	34.5
817.846	33.62
818.021	32.98
818.196	32.42
818.371	31.82
818.545	31.75
818.72	31.23
818.895	31.26
819.069	30.06
819.244	29.22
819.419	29.55
819.594	29.67
819.768	29.27
819.943	28.04
820.117	27.16
820.292	26.32
820.467	24.31
820.641	23
820.816	21.55
820.99	20.31
821.165	18.83
821.339	17.67
821.514	16.61
821.688	16.34
821.863	15.94
822.037	15.43
822.212	15.19
822.386	15.05
822.56	15.11
822.735	14.98
822.909	15.06
823.084	15.31
823.258	15.14
823.432	15.14
823.606	15.03
823.781	15.17
823.955	15.64
824.129	15.64
824.303	15.98
824.478	16.42
824.652	16.95
824.826	17.05
825	17.14
825.174	18.12
825.348	18.73
825.523	18.97
825.697	19.43
825.871	19.67
826.045	19.91
826.219	19.73
826.393	19.53
826.567	19.33
826.741	19.37
826.915	19.39
827.089	19.39
827.263	19.4
827.437	19.41
827.611	19.38
827.784	19.85
827.958	19.67
828.132	19.97
828.306	20.3
828.48	20.52
828.654	20.94
828.827	21.23
829.001	21.8
829.175	22.57
829.349	23.25
829.522	23.36
829.696	23.68
829.87	24.87
830.044	25.64
830.217	25.81
830.391	27.53
830.565	28.25
830.738	30.1
830.912	30.19
831.085	29.74
831.259	31.25
831.432	32.59
831.606	32
831.779	31.95
831.953	31.44
832.126	31.35
832.3	30.15
832.473	29.42
832.647	28.79
832.82	28.17
832.994	27.64
833.167	26.79
833.34	24.79
833.514	23.68
833.687	23.05
833.86	22.47
834.034	22.07
834.207	22.14
834.38	21.63
834.553	20.54
834.727	20.44
834.9	20.6
835.073	19.77
835.246	21.39
835.419	22.42
835.593	23.47
835.766	24.38
835.939	25.06
836.112	24.98
836.285	27.53
836.458	28.6
836.631	29.1
836.804	30.87
836.977	33.56
837.15	34.48
837.323	36.86
837.496	38.4
837.669	39.51
837.842	39.18
838.015	41.27
838.188	41.78
838.361	43.76
838.533	45.6
838.706	44.74
838.879	44.55
839.052	44.37
839.225	43.52
839.398	41.08
839.57	42.92
839.743	43.74
839.916	41.8
840.088	40.13
840.261	39.29
840.434	39.3
840.607	41.06
840.779	40.55
840.952	39.58
841.124	38.18
841.297	40.64
841.47	40.68
841.642	40.63
841.815	41.38
841.987	43.18
842.16	45.09
842.332	43.84
842.505	43.4
842.677	44.79
842.85	45.26
843.022	47.04
843.194	47.81
843.367	47.35
843.539	49.29
843.712	52.78
843.884	53.93
844.056	55.52
844.229	57.87
844.401	60.03
844.573	62.25
844.745	63.4
844.918	62.89
845.09	62.83
845.262	62.18
845.434	62.58
845.606	59.73
845.779	59.9
845.951	57.22
846.123	59.15
846.295	59.1
846.467	58
846.639	59
846.811	61.19
846.983	60.8
847.155	61.52
847.327	61.86
847.499	67.98
847.671	67.49
847.843	73.44
848.015	76.29
848.187	79.39
848.359	78.88
848.531	79.62
848.703	79.69
848.875	78.87
849.047	74.91
849.218	73.48
849.39	70.84
849.562	72.58
849.734	72.77
849.905	71.12
850.077	67.55
850.249	69.81
850.421	69.96
850.592	68.39
850.764	71.25
850.936	76.99
851.107	74.76
851.279	73.86
851.451	76.05
851.622	71.23
851.794	70.36
851.965	73.15
852.137	66.31
852.308	63.98
852.48	65.28
852.651	65.92
852.823	64.15
852.994	71.76
853.166	71.66
853.337	70.41
853.509	69.35
853.68	67.91
853.851	64.48
854.023	70.07
854.194	74.81
854.365	77.96
854.537	78.11
854.708	80.91
854.879	75.71
855.05	76.28
855.222	72.67
855.393	74.73
855.564	75.68
855.735	76.34
855.906	75.93
856.078	75.51
856.249	77.64
856.42	75.22
856.591	76.87
856.762	78.51
856.933	78.81
857.104	79.95
857.275	80.61
857.446	79.33
857.617	83.12
857.788	83.46
857.959	85.42
858.13	81.13
858.301	80.18
858.472	75.81
858.643	75.22
858.814	72.77
858.985	72.52
859.155	74.62
859.326	75.03
859.497	76.58
859.668	79.49
859.839	76.22
860.009	77.34
860.18	82.52
860.351	83.56
860.522	83.59
860.692	82.02
860.863	86.94
861.034	88.9
861.204	86.76
861.375	81.36
861.546	74.77
861.716	71.69
861.887	67.18
862.057	62.28
862.228	61.43
862.398	59.84
862.569	62.33
862.739	57.82
862.91	52.2
863.08	53.83
863.251	51.84
863.421	50.79
863.592	54.72
863.762	56.69
863.932	55.88
864.103	53.72
864.273	54.18
864.443	55.79
864.614	53.75
864.784	56.83
864.954	56.32
865.125	59.54
865.295	64.88
865.465	63.41
865.635	62.11
865.805	63.54
865.976	64.44
866.146	66.05
866.316	67.59
866.486	77.1
866.656	72.19
866.826	78.52
866.996	78.27
867.166	79.69
867.336	78.78
867.506	80.95
867.676	79.33
867.846	82.72
868.016	82.15
868.186	82.54
868.356	78.18
868.526	79.96
868.696	77.81
868.866	78.78
869.036	77.38
869.206	75.91
869.376	72.41
869.545	77.09
869.715	73.88
869.885	73.83
870.055	78.09
870.224	74.73
870.394	80.71
870.564	77.39
870.734	77.38
870.903	77.34
871.073	74.4
871.243	77.46
871.412	71.34
871.582	74.53
871.751	76
871.921	69.93
872.091	69.94
872.26	61.45
872.43	58.98
872.599	57.52
872.769	59.54
872.938	64.9
873.108	63.55
873.277	64.74
873.446	60.94
873.616	56.45
873.785	57.21
873.955	54.49
874.124	58.81
874.293	60.65
874.463	58.62
874.632	57.83
874.801	57.49
874.971	61.05
875.14	61.68
875.309	62.2
875.478	63.71
875.647	62.28
875.817	70.79
875.986	70.62
876.155	75.81
876.324	75.48
876.493	72.67
876.662	68.74
876.831	65.77
877	64.53
877.17	65.83
877.339	70.41
877.508	70.38
877.677	66.37
877.846	71.77
878.015	65.62
878.184	63.92
878.352	65.58
878.521	65.82
878.69	63.51
878.859	63.05
879.028	59.42
879.197	54.01
879.366	52.44
879.534	50.24
879.703	42.45
879.872	38.39
880.041	38.8
880.21	33.05
880.378	30.42
880.547	26.77
880.716	25.97
880.884	24.28
881.053	23.66
881.222	22.41
881.39	21.5
881.559	20.75
881.727	20.51
881.896	18.63
882.065	18.13
882.233	18.58
882.402	18.95
882.57	17.8
882.739	17.73
882.907	17.28
883.076	17.97
883.244	17.88
883.412	18.18
883.581	18.34
883.749	18.98
883.918	19.15
884.086	19.47
884.254	20.48
884.423	21.63
884.591	22.67
884.759	22.9
884.927	22.79
885.096	23.51
885.264	25.56
885.432	27.39
885.6	29.6
885.769	30.81
885.937	30.54
886.105	31.08
886.273	34.03
886.441	35.32
886.609	37.98
886.777	39.67
886.945	40.62
887.113	42.41
887.281	43.52
887.449	45.41
887.617	51.73
887.785	55.86
887.953	57.05
888.121	54.71
888.289	54.16
888.457	56.89
888.625	56.35
888.793	60.36
888.961	58.72
889.129	61.1
889.296	61.14
889.464	59.37
889.632	56.88
889.8	57.62
889.967	61.9
890.135	65.8
