Data from 2938839__Reflection_02.txt Node
Date: Wed Mar 11 15:54:17 EDT 2015
User: robert
Spectrometer: USB4E03002
Autoset integration time: false
Trigger mode: 4
Integration Time (sec): 1.000000E-1
Scans to average: 10
Electric dark correction enabled: false
Nonlinearity correction enabled: false
Boxcar width: 5
Stray light correction enabled: false
XAxis mode: Wavelengths
Stop averaging: false
Number of Pixels in Spectrum: 3648
>>>>>Begin Spectral Data<<<<<
177.575	395.56
177.794	112
178.014	126.76
178.233	197.06
178.452	466.13
178.672	665.62
178.891	703.85
179.11	-2192.86
179.33	-64.09
179.549	-127.42
179.768	-234.44
179.987	-227.47
180.207	-306.41
180.426	-242.92
180.645	-284.92
180.864	-305.07
181.084	-102.44
181.303	-12.61
181.522	-24.42
181.741	-440
181.96	251.35
182.179	123.4
182.398	16
182.618	47.62
182.837	107.92
183.056	131.97
183.275	99.38
183.494	30.88
183.713	-113.43
183.932	-35.92
184.151	-28.57
184.37	-725
184.589	180
184.808	-12.8
185.027	-42.75
185.246	-115
185.465	-139.2
185.684	-155.22
185.903	-52.94
186.122	-121.58
186.341	-144.81
186.56	-63.04
186.779	-26.37
186.998	-12.82
187.216	24.38
187.435	51.64
187.654	133.92
187.873	117.22
188.092	81.86
188.311	137.9
188.53	128.76
188.748	110.89
188.967	203.97
189.186	2.19
189.405	-8.03
189.623	30
189.842	14.41
190.061	484.62
190.28	86.01
190.498	10.87
190.717	44.36
190.936	81.52
191.154	40.53
191.373	34.81
191.592	90.12
191.81	70.54
192.029	125.63
192.248	265.77
192.466	167.78
192.685	71.72
192.904	44.99
193.122	46.38
193.341	38.03
193.559	26.03
193.778	35.9
193.996	31.84
194.215	23.63
194.433	1.72
194.652	-60.34
194.87	-44.39
195.089	-148.85
195.307	-2166.67
195.526	-68.25
195.744	-123.91
195.963	684.21
196.181	-75.82
196.399	-189.76
196.618	-109.26
196.836	-35.92
197.055	-14.89
197.273	-8.91
197.491	-14.12
197.71	-29.74
197.928	-60.25
198.146	-166.89
198.365	-83.42
198.583	-198.06
198.801	-164.57
199.019	-226.44
199.238	329.41
199.456	326.67
199.674	571.7
199.892	-66.9
200.111	-22.35
200.329	20.08
200.547	110.66
200.765	47.72
200.983	29.61
201.202	33.4
201.42	54.13
201.638	17.13
201.856	21.99
202.074	1.65
202.292	11.2
202.51	39.94
202.728	-12.27
202.946	-40.56
203.165	57.85
203.383	67.43
203.601	32.39
203.819	26.67
204.037	24.13
204.255	1.05
204.473	62.69
204.691	-18.75
204.909	-1.13
205.127	-3.25
205.345	2.82
205.562	9.88
205.78	18.44
205.998	17.58
206.216	33.86
206.434	24.96
206.652	26.01
206.87	28.27
207.088	9.31
207.306	-41.96
207.523	51.24
207.741	36.36
207.959	213.56
208.177	63.96
208.395	41.58
208.612	93.09
208.83	134.46
209.048	225.35
209.266	201.67
209.483	141.55
209.701	37.5
209.919	132
210.136	108.77
210.354	-617.14
210.572	-368.92
210.79	-141.38
211.007	-40.64
211.225	-9.24
211.442	76.84
211.66	69.16
211.878	75.54
212.095	427.7
212.313	337.68
212.53	354.59
212.748	347.93
212.966	212.42
213.183	167.88
213.401	123.67
213.618	99.77
213.836	90.66
214.053	81.82
214.271	66.26
214.488	-61.19
214.705	-37.5
214.923	-12.73
215.14	-33.7
215.358	-26.13
215.575	-48.96
215.793	-42.87
216.01	-14.84
216.227	-20.58
216.445	-39.03
216.662	-26.1
216.879	-17.44
217.097	-33.06
217.314	-32.89
217.531	-2.81
217.749	6.96
217.966	2.13
218.183	2.19
218.4	-2.9
218.618	-7.5
218.835	-19.73
219.052	-21.18
219.269	-19.04
219.487	-15.65
219.704	-22.76
219.921	-26.71
220.138	-43.33
220.355	-31.74
220.572	-32.83
220.79	-30.19
221.007	-21.87
221.224	-11.61
221.441	-30.26
221.658	-20.62
221.875	-28.4
222.092	-24.7
222.309	-18
222.526	-11.82
222.743	-18.15
222.96	-21.14
223.177	-20.37
223.394	-17.93
223.611	-20.94
223.828	-3.06
224.045	-10.57
224.262	-1
224.479	-5.06
224.696	-6.7
224.913	-7.07
225.13	-8.5
225.347	-3.98
225.564	-7
225.781	-10.08
225.997	-6.73
226.214	-6.92
226.431	-7.41
226.648	-8.47
226.865	-4.93
227.082	-2.31
227.298	-2.06
227.515	1.01
227.732	2.45
227.949	2.43
228.165	3.42
228.382	3.18
228.599	3.31
228.816	3.01
229.032	2.89
229.249	2.2
229.466	2.02
229.682	1.85
229.899	1.54
230.116	-0.02
230.332	0.41
230.549	-0.19
230.765	0.25
230.982	-0.76
231.199	-0.65
231.415	-0.49
231.632	-0.89
231.848	-2.22
232.065	-1.86
232.281	-2.14
232.498	-1.99
232.714	-1.01
232.931	-0.45
233.147	-2.68
233.364	-2.86
233.58	-2.19
233.797	-2.04
234.013	-0
234.23	0.15
234.446	-0.03
234.662	-1.9
234.879	-2.5
235.095	-3.12
235.312	-3.9
235.528	-1.73
235.744	-0.81
235.961	0.18
236.177	0.29
236.393	-1.71
236.61	-1.83
236.826	-1.06
237.042	-0.3
237.258	-0.54
237.475	-1.81
237.691	-3.8
237.907	-5.1
238.123	-5.19
238.339	-6.58
238.556	-5.61
238.772	-3.2
238.988	-2.53
239.204	-1.41
239.42	-2.4
239.636	-0.2
239.853	1.18
240.069	3.58
240.285	3.94
240.501	3.06
240.717	4.65
240.933	4.89
241.149	3.57
241.365	3.95
241.581	3.57
241.797	4.58
242.013	4.74
242.229	4.29
242.445	4.08
242.661	3.87
242.877	4.37
243.093	3.14
243.309	2.89
243.525	3.17
243.741	2.7
243.957	2.63
244.173	2.41
244.388	2.1
244.604	2.52
244.82	2.33
245.036	2.72
245.252	3.16
245.468	3.03
245.683	3.02
245.899	3.63
246.115	3.78
246.331	3.7
246.547	4.13
246.762	4.14
246.978	4.09
247.194	4
247.409	3.97
247.625	3.75
247.841	4.29
248.057	4.28
248.272	4.18
248.488	4.25
248.703	4.2
248.919	3.79
249.135	3.52
249.35	3.17
249.566	3.44
249.782	2.8
249.997	2.55
250.213	2.16
250.428	1.95
250.644	1.49
250.859	1.3
251.075	1.26
251.29	0.86
251.506	0.88
251.721	1.45
251.937	0.65
252.152	0.65
252.368	0.42
252.583	1
252.798	0.67
253.014	0.94
253.229	0.39
253.445	0.48
253.66	0.88
253.875	0.89
254.091	0.48
254.306	0.99
254.521	1.23
254.737	1.47
254.952	0.38
255.167	0.45
255.383	0.97
255.598	1.2
255.813	1.24
256.028	1.23
256.244	1.98
256.459	2.18
256.674	2.84
256.889	2.98
257.104	2.6
257.32	2.57
257.535	2.61
257.75	2.71
257.965	3.42
258.18	3.81
258.395	3.76
258.61	3.75
258.826	3.63
259.041	3.42
259.256	3.51
259.471	3.78
259.686	3.84
259.901	3.92
260.116	3.61
260.331	3.29
260.546	3.15
260.761	3.13
260.976	2.88
261.191	2.91
261.406	2.9
261.621	3.18
261.836	3.16
262.05	3.2
262.265	3.15
262.48	3.05
262.695	2.85
262.91	2.8
263.125	2.55
263.34	2.02
263.555	1.97
263.769	1.87
263.984	1.61
264.199	1.13
264.414	1.73
264.629	1.67
264.843	2.1
265.058	2.71
265.273	2.56
265.488	2.91
265.702	3.18
265.917	3.11
266.132	3.19
266.346	3
266.561	3.39
266.776	3.07
266.99	3.33
267.205	3.23
267.42	3.04
267.634	2.63
267.849	2.55
268.063	2.63
268.278	2.78
268.492	2.25
268.707	2.04
268.922	1.93
269.136	1.31
269.351	1.09
269.565	0.75
269.78	0.71
269.994	0.87
270.209	1.16
270.423	0.85
270.637	0.83
270.852	1.79
271.066	1.77
271.281	1.91
271.495	2.19
271.709	2.14
271.924	2.41
272.138	2.51
272.353	2.51
272.567	2.26
272.781	2.63
272.996	2.53
273.21	2.01
273.424	1.96
273.638	1.8
273.853	1.58
274.067	1.38
274.281	1.66
274.495	1.95
274.71	1.71
274.924	1.62
275.138	1.51
275.352	1.46
275.566	1.68
275.781	1.75
275.995	2.1
276.209	2.32
276.423	2.77
276.637	2.29
276.851	1.72
277.065	2.52
277.279	2.2
277.493	2.08
277.707	1.85
277.921	1.72
278.135	1.42
278.349	1.18
278.563	1.69
278.777	1.22
278.991	1.59
279.205	1.63
279.419	1.24
279.633	1.85
279.847	1.98
280.061	2.27
280.275	1.95
280.489	2.41
280.703	2.24
280.917	2.07
281.131	2.34
281.344	2.29
281.558	1.96
281.772	2.21
281.986	2.15
282.2	2.43
282.414	2.6
282.627	3.07
282.841	2.96
283.055	3.01
283.269	2.89
283.482	2.72
283.696	2.73
283.91	3.02
284.123	2.76
284.337	2.71
284.551	2.6
284.764	2.67
284.978	2.36
285.192	2.51
285.405	2.38
285.619	2.27
285.833	2.35
286.046	2.43
286.26	2.83
286.473	2.6
286.687	2.56
286.9	2.34
287.114	2.21
287.327	2.51
287.541	2.21
287.754	2.72
287.968	2.93
288.181	2.8
288.395	2.71
288.608	2.54
288.822	2.77
289.035	2.73
289.248	2.96
289.462	3.05
289.675	2.99
289.889	3.44
290.102	2.95
290.315	2.75
290.529	3.02
290.742	2.79
290.955	2.68
291.169	2.95
291.382	3.28
291.595	3.48
291.808	3.47
292.022	3.42
292.235	3.2
292.448	3.58
292.661	3.67
292.875	3.73
293.088	4.05
293.301	4.31
293.514	3.9
293.727	3.53
293.94	3.63
294.153	3.48
294.367	3.35
294.58	3.32
294.793	3.18
295.006	3.19
295.219	2.87
295.432	2.96
295.645	2.91
295.858	3.2
296.071	3.33
296.284	3.32
296.497	3.54
296.71	3.6
296.923	3.61
297.136	3.44
297.349	3.42
297.562	3.68
297.775	3.67
297.988	3.71
298.201	3.7
298.414	3.65
298.626	3.38
298.839	3.27
299.052	3.31
299.265	3.14
299.478	3.39
299.691	3.41
299.903	3.41
300.116	3.64
300.329	3.88
300.542	3.97
300.755	4.11
300.967	4.23
301.18	4.29
301.393	4.28
301.605	4.33
301.818	4.08
302.031	3.93
302.243	3.84
302.456	3.25
302.669	3.07
302.881	2.97
303.094	2.78
303.307	2.66
303.519	2.46
303.732	2.6
303.944	2.84
304.157	3.47
304.37	3.54
304.582	3.58
304.795	3.76
305.007	3.34
305.22	3.27
305.432	3.53
305.645	3.71
305.857	4.15
306.069	4.03
306.282	3.93
306.494	3.21
306.707	3.5
306.919	3.37
307.132	3.66
307.344	4.04
307.556	4.27
307.769	4.23
307.981	4.1
308.193	3.72
308.406	4.05
308.618	4.17
308.83	4.41
309.043	4.25
309.255	4.2
309.467	4.18
309.679	4.25
309.892	4.12
310.104	3.96
310.316	4.14
310.528	4.46
310.74	4.33
310.953	4.35
311.165	4.33
311.377	4.41
311.589	4.5
311.801	4.63
312.013	4.55
312.225	4.79
312.437	4.99
312.649	5.12
312.862	4.88
313.074	4.95
313.286	4.77
313.498	4.79
313.71	4.84
313.922	4.95
314.134	4.86
314.346	4.81
314.558	4.55
314.77	4.84
314.982	4.76
315.193	4.94
315.405	4.57
315.617	4.9
315.829	4.95
316.041	4.58
316.253	4.53
316.465	4.52
316.677	4.57
316.888	4.53
317.1	4.33
317.312	3.8
317.524	3.7
317.736	3.66
317.947	3.7
318.159	3.97
318.371	4.55
318.583	4.49
318.794	4.43
319.006	4.42
319.218	4.85
319.43	4.7
319.641	5.2
319.853	5.7
320.064	6.04
320.276	6.11
320.488	6.04
320.699	5.57
320.911	5.71
321.123	5.88
321.334	6.01
321.546	5.77
321.757	5.77
321.969	6.18
322.18	5.92
322.392	6.28
322.603	6.19
322.815	6.24
323.026	7
323.238	7.26
323.449	7.13
323.661	6.91
323.872	7.05
324.083	7.44
324.295	7.3
324.506	7.18
324.718	6.9
324.929	7.14
325.14	7.29
325.352	7.18
325.563	7.4
325.774	7.59
325.986	7.92
326.197	8.2
326.408	8.47
326.62	8.62
326.831	8.82
327.042	9.62
327.253	9.94
327.464	10.21
327.676	10.14
327.887	10.47
328.098	10.77
328.309	11.3
328.52	11.65
328.732	11.67
328.943	11.89
329.154	12.46
329.365	12.33
329.576	12.5
329.787	12.61
329.998	13.38
330.209	13.41
330.42	13.83
330.631	14.02
330.842	13.99
331.053	14.43
331.264	14.76
331.475	14.75
331.686	15.4
331.897	15.31
332.108	15.6
332.319	15.74
332.53	15.45
332.741	15.62
332.952	15.48
333.163	15.49
333.374	15.47
333.585	15.49
333.795	15.57
334.006	15.35
334.217	15.59
334.428	15.59
334.639	15.53
334.849	15.91
335.06	15.93
335.271	16.24
335.482	16.66
335.692	16.47
335.903	16.88
336.114	17.17
336.325	17.32
336.535	17.02
336.746	17.14
336.957	17.31
337.167	17.61
337.378	17.43
337.589	17.44
337.799	17.24
338.01	17.41
338.22	16.97
338.431	16.81
338.642	16.98
338.852	17.5
339.063	17.3
339.273	16.98
339.484	16.95
339.694	17.04
339.905	17.15
340.115	17.15
340.326	17.61
340.536	17.83
340.746	17.79
340.957	17.5
341.167	17.73
341.378	17.95
341.588	18.14
341.799	18.06
342.009	18.4
342.219	18.35
342.43	18.58
342.64	18.2
342.85	18.1
343.061	18.1
343.271	18.02
343.481	17.62
343.691	17.49
343.902	17.43
344.112	17.25
344.322	17.16
344.532	17.11
344.743	16.82
344.953	16.64
345.163	16.8
345.373	16.87
345.583	16.84
345.793	17.14
346.004	17.41
346.214	17.46
346.424	17.42
346.634	17.37
346.844	17.53
347.054	17.78
347.264	17.9
347.474	17.62
347.684	17.68
347.894	17.6
348.104	17.52
348.314	17.3
348.524	17.54
348.734	17.71
348.944	17.52
349.154	17.66
349.364	17.46
349.574	17.59
349.784	17.63
349.994	17.38
350.204	17.36
350.413	17.06
350.623	17.12
350.833	16.67
351.043	16.59
351.253	16.31
351.463	16.13
351.672	16.35
351.882	16.41
352.092	16.49
352.302	16.72
352.511	16.77
352.721	16.84
352.931	16.96
353.141	17.28
353.35	17.41
353.56	17.76
353.77	17.68
353.979	17.4
354.189	17.25
354.399	17.26
354.608	17.24
354.818	17.36
355.027	17.49
355.237	17.29
355.447	17.38
355.656	17.03
355.866	16.87
356.075	17.05
356.285	17.36
356.494	17.37
356.704	17.31
356.913	17.01
357.123	16.7
357.332	16.62
357.542	16.44
357.751	16.43
357.96	16.52
358.17	16.5
358.379	16.3
358.589	15.77
358.798	15.75
359.007	15.79
359.217	16.09
359.426	16.17
359.635	16.35
359.845	16.59
360.054	16.24
360.263	16.3
360.472	16.44
360.682	16.51
360.891	16.82
361.1	16.99
361.309	16.97
361.519	16.79
361.728	16.76
361.937	16.68
362.146	16.69
362.355	16.88
362.564	16.91
362.774	16.87
362.983	16.63
363.192	16.68
363.401	16.46
363.61	16.62
363.819	16.64
364.028	16.79
364.237	16.75
364.446	16.64
364.655	16.48
364.864	16.46
365.073	16.06
365.282	16.18
365.491	16.04
365.7	15.85
365.909	15.53
366.118	15.56
366.327	15.62
366.536	15.54
366.745	15.6
366.954	15.85
367.162	15.93
367.371	16.18
367.58	16.29
367.789	16.23
367.998	16.51
368.207	16.77
368.415	16.79
368.624	16.46
368.833	16.56
369.042	16.39
369.25	16.08
369.459	15.95
369.668	15.89
369.877	15.55
370.085	15.7
370.294	15.7
370.503	15.73
370.711	15.56
370.92	15.81
371.129	15.59
371.337	15.78
371.546	15.57
371.754	15.7
371.963	15.9
372.171	16.11
372.38	15.91
372.589	15.94
372.797	15.8
373.006	15.82
373.214	15.74
373.423	15.83
373.631	15.6
373.84	15.83
374.048	15.76
374.256	15.6
374.465	15.64
374.673	15.76
374.882	15.63
375.09	15.68
375.298	15.7
375.507	15.79
375.715	15.74
375.923	15.81
376.132	15.89
376.34	15.77
376.548	15.84
376.757	15.7
376.965	15.64
377.173	15.71
377.381	15.58
377.59	15.72
377.798	15.67
378.006	15.59
378.214	15.73
378.423	15.77
378.631	15.83
378.839	15.87
379.047	16.02
379.255	15.87
379.463	15.95
379.671	15.98
379.879	15.84
380.088	16.05
380.296	16.15
380.504	15.96
380.712	15.85
380.92	15.81
381.128	15.83
381.336	15.82
381.544	15.88
381.752	15.9
381.96	15.93
382.168	16.03
382.376	15.98
382.584	16.07
382.791	15.99
382.999	16.21
383.207	16.29
383.415	16.21
383.623	16.17
383.831	16.11
384.039	15.92
384.247	15.84
384.454	15.85
384.662	15.64
384.87	15.47
385.078	15.51
385.285	15.3
385.493	15.21
385.701	15.06
385.909	15.03
386.116	14.95
386.324	15.1
386.532	15.12
386.739	15.04
386.947	15.09
387.155	15.09
387.362	15.22
387.57	15.22
387.778	15.36
387.985	15.61
388.193	15.87
388.4	15.95
388.608	15.64
388.816	15.84
389.023	15.86
389.231	15.99
389.438	16.11
389.646	16.17
389.853	16.19
390.061	16.17
390.268	16.14
390.475	15.93
390.683	16.05
390.89	16.34
391.098	16.19
391.305	16.3
391.512	16.41
391.72	16.45
391.927	16.28
392.135	16.43
392.342	16.62
392.549	16.66
392.756	16.71
392.964	16.78
393.171	16.63
393.378	16.67
393.586	16.52
393.793	16.34
394	16.46
394.207	16.67
394.414	16.62
394.622	16.53
394.829	16.48
395.036	16.35
395.243	16.34
395.45	16.37
395.657	16.33
395.864	16.4
396.072	16.54
396.279	16.38
396.486	16.3
396.693	16.23
396.9	16.11
397.107	16.1
397.314	16.13
397.521	16.12
397.728	16.01
397.935	15.95
398.142	15.88
398.349	15.74
398.556	15.85
398.763	15.94
398.97	16.02
399.177	15.92
399.383	16.04
399.59	16.02
399.797	15.96
400.004	16.06
400.211	16.23
400.418	16.33
400.625	16.16
400.831	16.11
401.038	16.21
401.245	16.21
401.452	16.38
401.658	16.41
401.865	16.62
402.072	16.63
402.279	16.75
402.485	16.65
402.692	16.8
402.899	16.92
403.105	16.91
403.312	16.72
403.519	16.89
403.725	16.8
403.932	16.77
404.138	16.73
404.345	16.8
404.552	16.75
404.758	16.81
404.965	16.75
405.171	16.81
405.378	16.89
405.584	17.05
405.791	16.86
405.997	16.88
406.204	16.9
406.41	16.81
406.617	16.77
406.823	16.84
407.029	16.95
407.236	16.87
407.442	16.9
407.649	16.87
407.855	16.7
408.061	16.64
408.268	16.63
408.474	16.61
408.68	16.68
408.887	16.64
409.093	16.58
409.299	16.63
409.505	16.69
409.712	16.76
409.918	16.85
410.124	16.82
410.33	17.1
410.537	17.09
410.743	17.12
410.949	17.31
411.155	17.34
411.361	17.4
411.567	17.26
411.773	17.28
411.98	17.3
412.186	17.3
412.392	17.49
412.598	17.26
412.804	17.4
413.01	17.32
413.216	17.27
413.422	17.31
413.628	17.39
413.834	17.49
414.04	17.42
414.246	17.44
414.452	17.49
414.658	17.44
414.864	17.6
415.07	17.55
415.275	17.67
415.481	17.69
415.687	17.86
415.893	17.83
416.099	17.91
416.305	18.08
416.511	17.96
416.716	17.91
416.922	18.02
417.128	17.97
417.334	18.13
417.539	18.06
417.745	18.04
417.951	18.02
418.157	18.07
418.362	18.04
418.568	18.05
418.774	18.11
418.979	18.12
419.185	18.14
419.391	18.15
419.596	18.15
419.802	18.2
420.008	18.21
420.213	17.89
420.419	17.95
420.624	17.91
420.83	18
421.035	18.1
421.241	18.2
421.446	18.2
421.652	18.27
421.857	18.22
422.063	18.26
422.268	18.29
422.474	18.62
422.679	18.66
422.885	18.82
423.09	18.79
423.295	18.7
423.501	18.7
423.706	18.73
423.911	18.75
424.117	18.8
424.322	18.83
424.527	18.91
424.733	18.93
424.938	18.88
425.143	18.78
425.349	18.79
425.554	18.82
425.759	18.75
425.964	18.78
426.169	18.89
426.375	18.82
426.58	18.8
426.785	18.73
426.99	18.67
427.195	18.7
427.4	18.72
427.605	18.72
427.811	18.73
428.016	18.83
428.221	18.75
428.426	18.6
428.631	18.82
428.836	18.88
429.041	18.82
429.246	18.88
429.451	18.95
429.656	18.99
429.861	19.02
430.066	19.17
430.271	19.13
430.476	19.05
430.681	19.06
430.886	18.96
431.09	18.98
431.295	19.06
431.5	19.09
431.705	19.01
431.91	19.03
432.115	18.99
432.32	18.94
432.524	18.95
432.729	19.18
432.934	19.35
433.139	19.36
433.343	19.31
433.548	19.32
433.753	19.31
433.958	19.39
434.162	19.49
434.367	19.48
434.572	19.46
434.776	19.6
434.981	19.47
435.186	19.28
435.39	19.23
435.595	19.25
435.799	19.28
436.004	19.18
436.209	19.16
436.413	19.13
436.618	19.15
436.822	19.18
437.027	19.15
437.231	19.16
437.436	19.15
437.64	19.3
437.845	19.36
438.049	19.46
438.253	19.56
438.458	19.63
438.662	19.51
438.867	19.49
439.071	19.51
439.275	19.55
439.48	19.64
439.684	19.77
439.888	19.73
440.093	19.71
440.297	19.67
440.501	19.76
440.706	19.7
440.91	19.74
441.114	19.8
441.318	19.81
441.523	19.83
441.727	19.74
441.931	19.66
442.135	19.67
442.339	19.7
442.543	19.7
442.748	19.71
442.952	19.7
443.156	19.77
443.36	19.77
443.564	19.75
443.768	19.66
443.972	19.79
444.176	19.78
444.38	19.83
444.584	19.83
444.788	19.82
444.992	19.75
445.196	19.76
445.4	19.77
445.604	19.84
445.808	19.88
446.012	19.95
446.216	19.93
446.42	19.93
446.624	19.96
446.828	19.96
447.032	19.95
447.235	20.01
447.439	20.05
447.643	20.07
447.847	20.05
448.051	20.08
448.254	20
448.458	20.04
448.662	20.08
448.866	20.05
449.069	20.01
449.273	20.06
449.477	19.96
449.681	19.98
449.884	19.95
450.088	19.94
450.292	20
450.495	20.03
450.699	19.9
450.902	19.87
451.106	19.82
451.31	19.81
451.513	19.71
451.717	19.72
451.92	19.65
452.124	19.63
452.327	19.56
452.531	19.44
452.734	19.39
452.938	19.44
453.141	19.47
453.345	19.47
453.548	19.59
453.752	19.59
453.955	19.65
454.158	19.63
454.362	19.66
454.565	19.67
454.769	19.8
454.972	19.81
455.175	19.75
455.379	19.85
455.582	19.84
455.785	19.73
455.988	19.77
456.192	19.79
456.395	19.83
456.598	19.71
456.801	19.67
457.005	19.61
457.208	19.64
457.411	19.78
457.614	19.64
457.817	19.62
458.021	19.69
458.224	19.67
458.427	19.58
458.63	19.64
458.833	19.7
459.036	19.74
459.239	19.76
459.442	19.74
459.645	19.66
459.848	19.71
460.051	19.77
460.254	19.75
460.457	19.72
460.66	19.8
460.863	19.79
461.066	19.81
461.269	19.86
461.472	19.82
461.675	19.88
461.878	19.86
462.081	19.85
462.284	19.82
462.486	19.8
462.689	19.94
462.892	19.92
463.095	19.92
463.298	19.9
463.5	19.97
463.703	19.92
463.906	19.92
464.109	19.94
464.311	19.96
464.514	20.03
464.717	20.08
464.92	19.92
465.122	19.99
465.325	20.06
465.528	20.14
465.73	20.06
465.933	20.15
466.135	20.16
466.338	20.27
466.541	20.26
466.743	20.22
466.946	20.17
467.148	20.25
467.351	20.17
467.553	20.12
467.756	19.98
467.958	19.85
468.161	19.75
468.363	19.78
468.566	19.65
468.768	19.67
468.971	19.63
469.173	19.68
469.375	19.68
469.578	19.76
469.78	19.73
469.983	19.79
470.185	19.93
470.387	19.97
470.59	19.96
470.792	20.04
470.994	20.08
471.196	20.08
471.399	20.09
471.601	20.16
471.803	20.14
472.005	20.22
472.208	20.14
472.41	20.08
472.612	20.16
472.814	20.05
473.016	20.06
473.218	20.05
473.421	20.07
473.623	20.06
473.825	19.99
474.027	19.98
474.229	19.93
474.431	20.01
474.633	20.08
474.835	20.01
475.037	20.08
475.239	20.13
475.441	20.12
475.643	20.14
475.845	20.16
476.047	20.19
476.249	20.19
476.451	20.12
476.653	20.22
476.855	20.13
477.057	20.19
477.258	20.18
477.46	20.04
477.662	20.09
477.864	20.02
478.066	20.04
478.268	20.11
478.469	20.17
478.671	20.29
478.873	20.25
479.075	20.22
479.276	20.19
479.478	20.24
479.68	20.33
479.882	20.2
480.083	20.31
480.285	20.28
480.487	20.22
480.688	20.22
480.89	20.13
481.091	20.05
481.293	20.13
481.495	20.16
481.696	20.11
481.898	20.06
482.099	20.11
482.301	20.09
482.502	20.05
482.704	20.11
482.905	20.1
483.107	20.16
483.308	20.23
483.51	20.23
483.711	20.25
483.913	20.24
484.114	20.28
484.315	20.29
484.517	20.3
484.718	20.34
484.92	20.31
485.121	20.35
485.322	20.3
485.524	20.3
485.725	20.32
485.926	20.29
486.127	20.32
486.329	20.31
486.53	20.34
486.731	20.33
486.932	20.29
487.134	20.31
487.335	20.3
487.536	20.33
487.737	20.32
487.938	20.32
488.139	20.31
488.341	20.34
488.542	20.4
488.743	20.44
488.944	20.49
489.145	20.56
489.346	20.52
489.547	20.5
489.748	20.47
489.949	20.45
490.15	20.46
490.351	20.49
490.552	20.45
490.753	20.37
490.954	20.3
491.155	20.28
491.356	20.26
491.557	20.33
491.758	20.34
491.959	20.42
492.159	20.45
492.36	20.52
492.561	20.53
492.762	20.59
492.963	20.69
493.164	20.78
493.364	20.83
493.565	20.88
493.766	20.88
493.967	21
494.167	20.96
494.368	21.01
494.569	20.94
494.769	20.98
494.97	20.93
495.171	20.9
495.371	20.94
495.572	20.95
495.773	20.95
495.973	20.95
496.174	20.85
496.375	20.86
496.575	20.8
496.776	20.85
496.976	20.84
497.177	20.86
497.377	20.88
497.578	20.85
497.778	20.85
497.979	20.79
498.179	20.85
498.38	20.94
498.58	20.95
498.78	20.95
498.981	21.03
499.181	20.99
499.382	20.98
499.582	20.9
499.782	20.95
499.983	20.97
500.183	20.96
500.383	20.99
500.584	20.93
500.784	21.04
500.984	21.12
501.184	21.11
501.385	21.17
501.585	21.21
501.785	21.24
501.985	21.2
502.185	21.23
502.386	21.38
502.586	21.33
502.786	21.36
502.986	21.29
503.186	21.34
503.386	21.24
503.586	21.23
503.786	21.34
503.987	21.4
504.187	21.4
504.387	21.39
504.587	21.29
504.787	21.23
504.987	21.28
505.187	21.37
505.387	21.36
505.587	21.42
505.786	21.46
505.986	21.45
506.186	21.42
506.386	21.46
506.586	21.44
506.786	21.58
506.986	21.68
507.186	21.66
507.386	21.63
507.585	21.66
507.785	21.79
507.985	21.82
508.185	21.85
508.384	21.86
508.584	21.86
508.784	21.89
508.984	21.86
509.183	21.84
509.383	21.92
509.583	21.97
509.782	22.01
509.982	21.94
510.182	21.91
510.381	21.91
510.581	21.97
510.781	21.95
510.98	21.91
511.18	21.99
511.379	22.01
511.579	21.96
511.778	21.94
511.978	21.95
512.177	21.97
512.377	21.97
512.576	21.93
512.776	21.92
512.975	22
513.175	22.04
513.374	21.97
513.573	22.06
513.773	22.15
513.972	22.2
514.172	22.11
514.371	22.02
514.57	22.14
514.77	22.25
514.969	22.32
515.168	22.36
515.367	22.45
515.567	22.53
515.766	22.56
515.965	22.59
516.164	22.59
516.364	22.75
516.563	22.8
516.762	22.84
516.961	22.73
517.16	22.7
517.359	22.69
517.559	22.64
517.758	22.59
517.957	22.5
518.156	22.45
518.355	22.52
518.554	22.48
518.753	22.57
518.952	22.51
519.151	22.6
519.35	22.66
519.549	22.66
519.748	22.76
519.947	22.83
520.146	22.93
520.345	22.95
520.544	22.86
520.743	22.83
520.942	22.84
521.141	22.88
521.339	22.91
521.538	22.87
521.737	22.83
521.936	22.84
522.135	22.85
522.333	22.79
522.532	22.83
522.731	22.94
522.93	23.03
523.129	23.05
523.327	23.03
523.526	23
523.725	23.02
523.923	23.05
524.122	22.99
524.321	23.04
524.519	23.08
524.718	23.09
524.917	23.05
525.115	23.05
525.314	23.01
525.512	23.13
525.711	23.21
525.909	23.26
526.108	23.29
526.306	23.34
526.505	23.31
526.703	23.29
526.902	23.28
527.1	23.27
527.299	23.26
527.497	23.27
527.696	23.2
527.894	23.19
528.092	23.15
528.291	23.17
528.489	23.21
528.688	23.24
528.886	23.37
529.084	23.43
529.283	23.52
529.481	23.59
529.679	23.68
529.877	23.78
530.076	23.8
530.274	23.91
530.472	23.96
530.67	23.96
530.869	23.98
531.067	23.91
531.265	23.87
531.463	23.82
531.661	23.76
531.859	23.75
532.057	23.67
532.255	23.71
532.454	23.67
532.652	23.66
532.85	23.7
533.048	23.71
533.246	23.75
533.444	23.81
533.642	23.82
533.84	23.88
534.038	23.89
534.236	23.96
534.434	24.01
534.632	24.05
534.83	24.05
535.027	24.06
535.225	24.04
535.423	24
535.621	24.01
535.819	24.05
536.017	24.02
536.215	24.03
536.412	24.05
536.61	24
536.808	24.03
537.006	24.07
537.203	24.1
537.401	24.21
537.599	24.27
537.797	24.25
537.994	24.19
538.192	24.19
538.39	24.2
538.587	24.19
538.785	24.2
538.983	24.17
539.18	24.17
539.378	24.15
539.575	24.11
539.773	24.05
539.97	24.07
540.168	24.13
540.366	24.17
540.563	24.08
540.761	24.1
540.958	24.11
541.155	24.16
541.353	24.22
541.55	24.22
541.748	24.24
541.945	24.31
542.143	24.34
542.34	24.42
542.537	24.47
542.735	24.6
542.932	24.67
543.129	24.75
543.327	24.74
543.524	24.76
543.721	24.8
543.919	24.86
544.116	24.88
544.313	24.88
544.51	24.83
544.708	24.77
544.905	24.75
545.102	24.72
545.299	24.68
545.496	24.74
545.693	24.71
545.891	24.7
546.088	24.64
546.285	24.62
546.482	24.64
546.679	24.69
546.876	24.72
547.073	24.72
547.27	24.78
547.467	24.73
547.664	24.77
547.861	24.76
548.058	24.71
548.255	24.84
548.452	24.85
548.649	24.89
548.846	24.86
549.043	24.87
549.24	24.87
549.437	24.76
549.633	24.74
549.83	24.62
550.027	24.68
550.224	24.72
550.421	24.6
550.618	24.6
550.814	24.55
551.011	24.63
551.208	24.58
551.405	24.65
551.601	24.7
551.798	24.86
551.995	24.9
552.191	24.89
552.388	24.93
552.585	24.97
552.781	24.93
552.978	24.88
553.175	24.86
553.371	24.98
553.568	24.86
553.764	24.91
553.961	24.88
554.157	24.88
554.354	24.88
554.55	24.88
554.747	24.9
554.943	24.95
555.14	24.97
555.336	24.97
555.533	24.96
555.729	25.06
555.926	24.98
556.122	24.93
556.318	24.92
556.515	24.97
556.711	25.09
556.907	25.08
557.104	25.13
557.3	25.09
557.496	25.12
557.693	25.1
557.889	25.07
558.085	24.99
558.281	25.05
558.478	25.15
558.674	25.08
558.87	24.94
559.066	25
559.262	24.97
559.459	25.06
559.655	25.02
559.851	25.15
560.047	25.17
560.243	25.27
560.439	25.24
560.635	25.21
560.831	25.21
561.027	25.23
561.223	25.21
561.419	25.17
561.615	25.18
561.811	25.31
562.007	25.14
562.203	25.14
562.399	25.15
562.595	25.11
562.791	25.17
562.987	25.29
563.183	25.32
563.379	25.33
563.575	25.44
563.771	25.41
563.966	25.28
564.162	25.5
564.358	25.56
564.554	25.68
564.75	25.73
564.945	25.7
565.141	25.6
565.337	25.62
565.533	25.68
565.728	25.61
565.924	25.66
566.12	25.61
566.315	25.44
566.511	25.47
566.707	25.45
566.902	25.48
567.098	25.41
567.293	25.46
567.489	25.49
567.684	25.46
567.88	25.51
568.076	25.48
568.271	25.56
568.467	25.6
568.662	25.55
568.858	25.51
569.053	25.55
569.248	25.58
569.444	25.61
569.639	25.6
569.835	25.63
570.03	25.54
570.225	25.63
570.421	25.61
570.616	25.59
570.812	25.58
571.007	25.53
571.202	25.49
571.397	25.47
571.593	25.48
571.788	25.48
571.983	25.39
572.178	25.47
572.374	25.48
572.569	25.52
572.764	25.62
572.959	25.67
573.154	25.72
573.35	25.74
573.545	25.81
573.74	25.72
573.935	25.76
574.13	25.8
574.325	25.86
574.52	25.85
574.715	25.82
574.91	25.8
575.105	25.8
575.3	25.78
575.495	25.84
575.69	25.8
575.885	25.86
576.08	25.84
576.275	25.87
576.47	25.84
576.665	25.78
576.86	25.78
577.055	25.81
577.25	25.84
577.444	25.86
577.639	25.78
577.834	25.84
578.029	25.84
578.224	25.84
578.418	25.86
578.613	25.81
578.808	25.72
579.003	25.71
579.197	25.67
579.392	25.6
579.587	25.77
579.781	25.87
579.976	25.83
580.171	25.84
580.365	25.89
580.56	25.96
580.755	25.97
580.949	26.14
581.144	26.11
581.338	26.19
581.533	26.23
581.727	26.11
581.922	25.94
582.116	26.06
582.311	26.02
582.505	26.08
582.7	26.01
582.894	26.11
583.089	26.11
583.283	26.12
583.478	25.99
583.672	26.07
583.866	25.93
584.061	26.03
584.255	25.8
584.449	25.93
584.644	25.69
584.838	25.74
585.032	25.64
585.226	25.56
585.421	25.71
585.615	25.9
585.809	25.69
586.003	26.01
586.198	26.06
586.392	26.18
586.586	26.22
586.78	26.42
586.974	26.47
587.168	26.63
587.363	26.72
587.557	26.64
587.751	26.53
587.945	26.65
588.139	26.37
588.333	26.35
588.527	26.34
588.721	26.39
588.915	26.37
589.109	26.32
589.303	26.2
589.497	26.24
589.691	26.16
589.885	26.19
590.079	26.22
590.273	26.35
590.466	26.35
590.66	26.4
590.854	26.14
591.048	26.04
591.242	26.08
591.436	26.08
591.629	26.15
591.823	26.26
592.017	26.32
592.211	26.29
592.404	26.23
592.598	26.19
592.792	26.18
592.986	26.36
593.179	26.51
593.373	26.49
593.567	26.44
593.76	26.34
593.954	26.37
594.147	26.33
594.341	26.37
594.535	26.41
594.728	26.37
594.922	26.31
595.115	26.35
595.309	26.35
595.502	26.3
595.696	26.47
595.889	26.42
596.083	26.47
596.276	26.42
596.47	26.54
596.663	26.55
596.856	26.66
597.05	26.81
597.243	26.82
597.437	26.84
597.63	27
597.823	26.93
598.017	27.03
598.21	27.11
598.403	27.17
598.596	27.05
598.79	27.15
598.983	27.04
599.176	27.09
599.369	27.07
599.563	27.01
599.756	26.97
599.949	26.91
600.142	26.82
600.335	26.75
600.528	26.81
600.722	26.85
600.915	26.84
601.108	27.06
601.301	26.97
601.494	27.01
601.687	26.97
601.88	26.84
602.073	26.83
602.266	26.86
602.459	26.82
602.652	26.81
602.845	26.77
603.038	26.66
603.231	26.48
603.424	26.52
603.617	26.43
603.809	26.63
604.002	26.7
604.195	26.71
604.388	26.73
604.581	26.74
604.774	26.7
604.966	26.78
605.159	26.91
605.352	27.17
605.545	27.23
605.737	27.34
605.93	27.19
606.123	27.21
606.316	27.34
606.508	27.3
606.701	27.32
606.894	27.29
607.086	27.22
607.279	27.16
607.471	27.06
607.664	26.9
607.857	26.91
608.049	27.12
608.242	27.19
608.434	27.36
608.627	27.6
608.819	27.73
609.012	27.85
609.204	27.98
609.397	28.17
609.589	28.36
609.782	28.61
609.974	28.95
610.166	28.91
610.359	29.14
610.551	29.22
610.743	29.25
610.936	29.36
611.128	29.65
611.32	29.79
611.513	29.79
611.705	29.77
611.897	29.81
612.09	29.54
612.282	29.66
612.474	29.47
612.666	29.41
612.858	29.51
613.051	29.47
613.243	29.12
613.435	29.16
613.627	29.18
613.819	29.12
614.011	28.98
614.203	28.9
614.395	28.91
614.588	28.86
614.78	28.76
614.972	28.67
615.164	28.68
615.356	28.78
615.548	28.49
615.74	28.27
615.932	28.17
616.124	28.09
616.315	28.1
616.507	27.85
616.699	27.89
616.891	27.67
617.083	27.55
617.275	27.46
617.467	27.35
617.659	27.3
617.85	27.32
618.042	27.4
618.234	27.35
618.426	27.32
618.618	27.53
618.809	27.5
619.001	27.45
619.193	27.45
619.384	27.43
619.576	27.45
619.768	27.66
619.959	27.7
620.151	27.56
620.343	27.76
620.534	27.86
620.726	27.73
620.917	27.75
621.109	28.07
621.301	28.04
621.492	28.04
621.684	28.18
621.875	28.18
622.067	28.32
622.258	28.36
622.45	28.22
622.641	28.16
622.832	28.15
623.024	28.15
623.215	28.09
623.407	27.99
623.598	27.89
623.789	27.86
623.981	27.82
624.172	27.77
624.363	27.74
624.555	27.76
624.746	27.61
624.937	27.59
625.129	27.44
625.32	27.46
625.511	27.66
625.702	27.67
625.893	27.64
626.085	27.63
626.276	27.58
626.467	27.58
626.658	27.58
626.849	27.64
627.04	27.71
627.231	27.83
627.422	27.82
627.614	27.75
627.805	27.78
627.996	27.74
628.187	27.85
628.378	27.85
628.569	28.02
628.76	28.08
628.951	28.19
629.142	28.19
629.332	28.25
629.523	28.19
629.714	28.19
629.905	28.28
630.096	28.33
630.287	28.17
630.478	28.24
630.669	28.06
630.859	28.07
631.05	28
631.241	28.05
631.432	27.93
631.623	27.83
631.813	28.02
632.004	28
632.195	27.95
632.385	27.97
632.576	27.9
632.767	28.02
632.957	28.06
633.148	28.06
633.339	28.06
633.529	28.02
633.72	28.22
633.91	28.12
634.101	27.99
634.292	27.9
634.482	27.86
634.673	28.16
634.863	28.1
635.054	28.08
635.244	28.1
635.435	28.01
635.625	28.2
635.815	27.96
636.006	28.02
636.196	28.11
636.387	28.18
636.577	28.24
636.767	27.88
636.958	27.86
637.148	27.81
637.338	27.79
637.529	27.83
637.719	27.77
637.909	27.63
638.099	27.44
638.29	27.39
638.48	27.41
638.67	27.63
638.86	27.75
639.05	27.62
639.241	27.58
639.431	27.51
639.621	27.42
639.811	27.46
640.001	27.79
640.191	27.87
640.381	27.98
640.571	28.08
640.761	27.76
640.951	27.78
641.141	27.91
641.331	28
641.521	28.2
641.711	28.46
641.901	28.47
642.091	28.56
642.281	28.66
642.471	28.59
642.661	28.68
642.851	28.91
643.041	28.99
643.231	28.9
643.42	28.83
643.61	28.79
643.8	28.7
643.99	28.46
644.18	28.52
644.369	28.49
644.559	28.56
644.749	28.53
644.939	28.34
645.128	28.12
645.318	28.37
645.508	28.44
645.697	28.5
645.887	28.43
646.076	28.45
646.266	28.37
646.456	28.28
646.645	28.42
646.835	28.32
647.024	28.47
647.214	28.58
647.403	28.52
647.593	28.41
647.782	28.39
647.972	28.5
648.161	28.76
648.351	28.82
648.54	28.99
648.73	28.87
648.919	28.94
649.108	29.04
649.298	28.99
649.487	28.99
649.677	29.13
649.866	28.94
650.055	28.9
650.244	28.76
650.434	28.58
650.623	28.5
650.812	28.54
651.002	28.4
651.191	28.32
651.38	28.52
651.569	28.56
651.758	28.56
651.947	29.06
652.137	28.93
652.326	28.95
652.515	28.97
652.704	28.68
652.893	28.63
653.082	28.81
653.271	28.86
653.46	28.55
653.649	28.48
653.838	28.51
654.027	28.09
654.216	28.1
654.405	28.08
654.594	27.91
654.783	28.01
654.972	28.04
655.161	28.06
655.35	28.05
655.539	28
655.728	27.92
655.916	27.86
656.105	27.92
656.294	28.02
656.483	27.89
656.672	28.17
656.86	28.32
657.049	28.16
657.238	28.04
657.427	28.03
657.615	28.03
657.804	28.07
657.993	28.01
658.181	27.93
658.37	27.86
658.559	27.96
658.747	27.86
658.936	28.06
659.125	27.94
659.313	28
659.502	28.08
659.69	28.3
659.879	28.45
660.067	28.61
660.256	28.64
660.444	28.74
660.633	28.75
660.821	28.84
661.01	28.7
661.198	29.01
661.387	29
661.575	28.89
661.763	28.77
661.952	28.62
662.14	28.33
662.328	28.42
662.517	28.44
662.705	28.66
662.893	28.56
663.082	28.59
663.27	28.47
663.458	28.63
663.646	28.6
663.834	28.65
664.023	28.7
664.211	28.68
664.399	28.73
664.587	28.6
664.775	28.45
664.963	28.72
665.152	28.71
665.34	28.97
665.528	29
665.716	29.06
665.904	29.01
666.092	29.02
666.28	29.24
666.468	29.21
666.656	29.35
666.844	29.43
667.032	29.07
667.22	29.09
667.408	28.95
667.596	28.66
667.784	28.59
667.971	28.66
668.159	28.47
668.347	28.44
668.535	28.38
668.723	28.54
668.911	28.57
669.098	28.76
669.286	28.54
669.474	28.72
669.662	28.79
669.849	28.72
670.037	28.75
670.225	28.95
670.413	29.04
670.6	29.06
670.788	28.7
670.976	28.53
671.163	28.69
671.351	28.75
671.538	28.54
671.726	28.42
671.913	28.59
672.101	28.34
672.289	28.2
672.476	27.87
672.664	28.08
672.851	28.37
673.039	28.61
673.226	28.36
673.413	28.24
673.601	28.12
673.788	28.14
673.976	28.22
674.163	28.56
674.35	28.54
674.538	28.82
674.725	28.48
674.912	28.3
675.1	27.95
675.287	28.06
675.474	28.2
675.662	28.46
675.849	28.56
676.036	28.6
676.223	28.49
676.411	28.4
676.598	28.46
676.785	28.51
676.972	28.59
677.159	28.59
677.346	28.42
677.533	28.47
677.721	28.25
677.908	28.09
678.095	27.69
678.282	27.89
678.469	28.14
678.656	28.2
678.843	28.42
679.03	28.55
679.217	28.87
679.404	28.94
679.591	28.92
679.778	29.08
679.964	29.24
680.151	29.43
680.338	29.46
680.525	29.41
680.712	29.55
680.899	29.56
681.086	29.59
681.272	29.43
681.459	29.68
681.646	29.75
681.833	29.83
682.02	29.95
682.206	30.1
682.393	29.97
682.58	30.11
682.766	29.93
682.953	29.8
683.14	29.71
683.326	29.98
683.513	29.78
683.7	29.43
683.886	29.51
684.073	29.31
684.259	29.26
684.446	29.29
684.632	29.05
684.819	29.13
685.005	28.93
685.192	28.87
685.378	28.87
685.565	28.96
685.751	29.3
685.938	28.87
686.124	29.16
686.31	29.09
686.497	28.97
686.683	29.09
686.87	28.71
687.056	28.99
687.242	29.02
687.429	28.76
687.615	28.93
687.801	28.88
687.987	29.34
688.174	29.2
688.36	29.25
688.546	29.31
688.732	29.53
688.918	29.85
689.105	29.83
689.291	29.92
689.477	30.19
689.663	29.93
689.849	30.16
690.035	29.8
690.221	29.87
690.407	29.79
690.593	29.85
690.779	29.61
690.965	29.49
691.151	29.37
691.337	29.31
691.523	28.89
691.709	28.9
691.895	28.64
692.081	28.86
692.267	28.77
692.453	28.92
692.639	29.03
692.825	29.1
693.011	29.42
693.196	29.62
693.382	29.49
693.568	29.77
693.754	29.72
693.94	29.78
694.125	29.54
694.311	29.64
694.497	29.72
694.682	29.81
694.868	29.54
695.054	29.51
695.239	29.44
695.425	29.35
695.611	29.33
695.796	29.6
695.982	29.78
696.168	29.96
696.353	29.62
696.539	29.35
696.724	29.25
696.91	29.62
697.095	29.34
697.281	29.2
697.466	29.27
697.652	29.23
697.837	29.23
698.023	29.03
698.208	29.18
698.393	29.49
698.579	29.95
698.764	29.74
698.949	29.72
699.135	29.98
699.32	29.97
699.505	30.15
699.691	30.16
699.876	30.09
700.061	30.2
700.246	29.93
700.432	29.86
700.617	29.49
700.802	29.62
700.987	29.68
701.172	29.7
701.358	30.11
701.543	30.24
701.728	30.14
701.913	29.84
702.098	29.95
702.283	30.24
702.468	30.5
702.653	30.49
702.838	30.92
703.023	30.91
703.208	30.66
703.393	30.13
703.578	29.88
703.763	30.19
703.948	30.84
704.133	30.96
704.318	30.9
704.503	30.8
704.688	30.81
704.873	30.16
705.057	29.76
705.242	30.14
705.427	30.41
705.612	30.4
705.797	30.53
705.981	30.26
706.166	30.16
706.351	30.53
706.536	30.48
706.72	30.67
706.905	30.96
707.09	31
707.274	30.98
707.459	31.38
707.644	31.57
707.828	31.36
708.013	31.48
708.197	31.32
708.382	31.03
708.567	30.68
708.751	30.44
708.936	30.6
709.12	30.83
709.305	30.64
709.489	30.28
709.673	30.03
709.858	29.79
710.042	29.6
710.227	29.81
710.411	29.77
710.596	30.12
710.78	30.37
710.964	30.49
711.149	30.64
711.333	30.93
711.517	30.76
711.702	31.02
711.886	30.9
712.07	31.22
712.254	31.36
712.438	31.2
712.623	31.21
712.807	31.06
712.991	31.09
713.175	31.19
713.359	31.05
713.544	31.11
713.728	30.91
713.912	31.03
714.096	30.8
714.28	30.56
714.464	30.52
714.648	30.36
714.832	30.28
715.016	30.35
715.2	29.99
715.384	29.88
715.568	30.15
715.752	30.35
715.936	30.38
716.12	30.34
716.304	30.39
716.488	30.49
716.671	30.12
716.855	30.11
717.039	29.68
717.223	29.98
717.407	29.96
717.59	29.57
717.774	29.18
717.958	29.64
718.142	29.64
718.325	29.89
718.509	29.86
718.693	29.96
718.877	30.09
719.06	30.2
719.244	29.74
719.428	29.83
719.611	30.1
719.795	30.2
719.978	30.12
720.162	30.56
720.345	30.32
720.529	30.7
720.713	30.97
720.896	31
721.08	31.11
721.263	31.3
721.446	31.23
721.63	31.05
721.813	30.99
721.997	30.84
722.18	30.37
722.364	29.86
722.547	29.14
722.73	29.18
722.914	29.06
723.097	29.32
723.28	29.18
723.464	29.27
723.647	29.59
723.83	29.66
724.013	29.47
724.197	29.7
724.38	30.23
724.563	30.53
724.746	30.45
724.929	30.46
725.112	30.14
725.296	30.22
725.479	29.99
725.662	30.21
725.845	30.1
726.028	30.06
726.211	29.78
726.394	29.46
726.577	29.32
726.76	29.87
726.943	29.78
727.126	29.66
727.309	29.57
727.492	29.8
727.675	29.6
727.858	29.76
728.041	29.93
728.224	30.18
728.407	30.5
728.589	30.84
728.772	30.47
728.955	29.91
729.138	29.84
729.321	29.75
729.503	29.69
729.686	29.3
729.869	29.45
730.052	29.2
730.234	28.93
730.417	28.86
730.6	28.65
730.782	28.91
730.965	29.5
731.148	29.81
731.33	29.98
731.513	29.78
731.695	29.95
731.878	30
732.061	30.1
732.243	30.5
732.426	30.88
732.608	31.62
732.791	31.65
732.973	31.89
733.156	31.77
733.338	31.85
733.52	32.18
733.703	32.34
733.885	32.25
734.068	32.32
734.25	32.01
734.432	31.74
734.615	31.02
734.797	30.95
734.979	30.92
735.162	30.77
735.344	30.94
735.526	30.22
735.708	30.16
735.891	30.6
736.073	30.53
736.255	30.65
736.437	30.32
736.619	30.25
736.802	29.77
736.984	29.7
737.166	30.06
737.348	30.13
737.53	30.78
737.712	30.75
737.894	30.23
738.076	30.6
738.258	31.04
738.44	31.06
738.622	31.19
738.804	31.47
738.986	31.51
739.168	31.13
739.35	30.85
739.532	30.57
739.714	30.44
739.896	30.76
740.078	30.33
740.259	30.18
740.441	30.09
740.623	29.88
740.805	30.07
740.987	29.8
741.168	29.99
741.35	30.53
741.532	30.74
741.714	30.87
741.895	30.22
742.077	30.55
742.259	30.63
742.44	31.18
742.622	31.31
742.804	30.88
742.985	31.15
743.167	30.92
743.348	31.23
743.53	30.87
743.711	30.85
743.893	30.87
744.075	30.34
744.256	30.14
744.438	29.45
744.619	29.57
744.8	29.91
744.982	29.8
745.163	29.84
745.345	29.13
745.526	29.68
745.707	29.29
745.889	29.65
746.07	29.85
746.252	29.77
746.433	30.79
746.614	31.53
746.795	31.35
746.977	31.32
747.158	31.82
747.339	32.09
747.52	31.58
747.702	32.07
747.883	31.8
748.064	32.08
748.245	31.94
748.426	31.35
748.607	30.64
748.788	30.52
748.97	30.22
749.151	29.37
749.332	29.45
749.513	30.06
749.694	30.09
749.875	30.64
750.056	30.99
750.237	30.92
750.418	31.1
750.599	30.93
750.78	30.6
750.96	31.29
751.141	32.02
751.322	31.52
751.503	31.07
751.684	31.11
751.865	30.98
752.046	31.09
752.226	30.7
752.407	30.31
752.588	30.54
752.769	30.86
752.949	30.35
753.13	30.32
753.311	30.9
753.492	30.83
753.672	30.63
753.853	31.07
754.034	30.97
754.214	31.69
754.395	31.48
754.575	31.16
754.756	32.19
754.937	32.66
755.117	32.18
755.298	31.42
755.478	31.78
755.659	31.68
755.839	31.43
756.02	30.83
756.2	30.78
756.381	30.79
756.561	31.08
756.741	30.2
756.922	30.05
757.102	30.07
757.283	30.85
757.463	30.87
757.643	31.04
757.823	29.96
758.004	29.93
758.184	29.36
758.364	29.25
758.545	29.44
758.725	29.15
758.905	29.26
759.085	29.68
759.265	28.65
759.446	28.22
759.626	27.96
759.806	28.64
759.986	28.39
760.166	28.82
760.346	29.22
760.526	29.33
760.706	29.47
760.886	29.72
761.066	30.07
761.246	30.64
761.426	31.28
761.606	31.03
761.786	31.02
761.966	31.61
762.146	31.37
762.326	31.42
762.506	31.5
762.686	31.62
762.866	31.16
763.046	30.96
763.225	31.02
763.405	30.86
763.585	30.92
763.765	31
763.945	30.9
764.124	30.84
764.304	30.43
764.484	30.48
764.664	30.5
764.843	30.97
765.023	30.49
765.203	30.51
765.382	30.24
765.562	30.64
765.741	30.52
765.921	30.75
766.101	31.05
766.28	31.23
766.46	30.67
766.639	30.68
766.819	29.8
766.998	29.96
767.178	30.01
767.357	30.33
767.537	30.44
767.716	31.02
767.896	30.47
768.075	30.47
768.254	30.7
768.434	30.43
768.613	29.89
768.792	30.07
768.972	30.54
769.151	30.66
769.33	30.39
769.51	30.23
769.689	29.3
769.868	29.63
770.047	30.07
770.226	30.57
770.406	31.75
770.585	31.76
770.764	32.04
770.943	32.1
771.122	31.67
771.301	31.49
771.48	32.3
771.66	32.78
771.839	32.56
772.018	31.93
772.197	31.44
772.376	30.2
772.555	31.11
772.734	30.32
772.913	30
773.092	29.8
773.271	30.3
773.449	29.17
773.628	29.23
773.807	29.32
773.986	28.88
774.165	29.29
774.344	30.18
774.523	30.53
774.701	31.09
774.88	31.1
775.059	31.56
775.238	31.23
775.417	31.14
775.595	31.5
775.774	30.89
775.953	30.78
776.131	30.68
776.31	30.75
776.489	29.86
776.667	30.28
776.846	30.57
777.025	29.83
777.203	29.86
777.382	31
777.56	30.01
777.739	31.02
777.917	30.73
778.096	30.67
778.274	30
778.453	29.97
778.631	29.29
778.81	28.87
778.988	29.49
779.166	30.01
779.345	29.61
779.523	29.84
779.702	30.56
779.88	30.87
780.058	30.92
780.237	31.35
780.415	31.27
780.593	31.25
780.771	31.09
780.95	31.86
781.128	31.29
781.306	30.62
781.484	31.23
781.662	30.52
781.841	30.71
782.019	30.77
782.197	31.1
782.375	31.19
782.553	32.32
782.731	32.86
782.909	32.4
783.087	32.09
783.265	32.72
783.443	31.87
783.621	31.8
783.799	32.23
783.977	31.78
784.155	30.42
784.333	30.38
784.511	30.87
784.689	30.21
784.867	29.88
785.045	30.69
785.223	30.19
785.4	30.14
785.578	30.28
785.756	29.35
785.934	28.96
786.112	29.91
786.289	29.67
786.467	28.22
786.645	29.02
786.823	27.96
787	28.87
787.178	29.41
787.356	29.78
787.533	29.86
787.711	30.39
787.889	31.72
788.066	31.75
788.244	32.04
788.421	31.98
788.599	30.87
788.776	32.35
788.954	30.93
789.131	30.66
789.309	30.74
789.486	30.37
789.664	30.83
789.841	30.44
790.019	29.59
790.196	29.51
790.373	29.68
790.551	31.07
790.728	30.79
790.906	30.47
791.083	30.24
791.26	29.74
791.437	29.46
791.615	28.35
791.792	28.01
791.969	29.08
792.146	29.33
792.324	29.9
792.501	29.31
792.678	27.98
792.855	28.5
793.032	28.21
793.209	28.69
793.387	28.92
793.564	29.49
793.741	29.31
793.918	28.41
794.095	28.19
794.272	27.53
794.449	27.95
794.626	28.54
794.803	29.02
794.98	28.87
795.157	28.5
795.334	28.82
795.511	28.96
795.688	28.94
795.864	28.14
796.041	28.63
796.218	27.37
796.395	26.99
796.572	27.18
796.749	26.45
796.925	27
797.102	27.62
797.279	26.41
797.456	26.24
797.632	26.4
797.809	27.18
797.986	26.95
798.162	28.99
798.339	28.8
798.516	28.71
798.692	29.05
798.869	28.72
799.046	28.27
799.222	28.7
799.399	28.86
799.575	29.43
799.752	29.19
799.928	28.24
800.105	27.61
800.281	27.63
800.458	28.16
800.634	28.89
800.811	28.93
800.987	28.58
801.163	29.08
801.34	29
801.516	28.37
801.692	28.97
801.869	29.57
802.045	30.26
802.221	31.01
802.398	30.35
802.574	28.62
802.75	29.13
802.926	29.25
803.103	29.48
803.279	29.48
803.455	29.4
803.631	29.98
803.807	31.02
803.983	30.72
804.16	29.95
804.336	29.66
804.512	30.53
804.688	30.66
804.864	31.97
805.04	31.3
805.216	31.96
805.392	32.02
805.568	31.1
805.744	29.18
805.92	28.92
806.096	29.26
806.272	28.46
806.448	28.76
806.623	28.07
806.799	26.99
806.975	27.04
807.151	25.97
807.327	25.51
807.503	26.28
807.678	27.92
807.854	27.74
808.03	26.27
808.206	27.47
808.381	26.53
808.557	27.23
808.733	27.29
808.908	26.63
809.084	27.86
809.26	28.88
809.435	27.55
809.611	26.79
809.787	26.03
809.962	26.21
810.138	25.82
810.313	26.83
810.489	26.86
810.664	26.7
810.84	26.22
811.015	25.77
811.191	23.92
811.366	26.36
811.542	26.24
811.717	26.62
811.892	27.9
812.068	27.68
812.243	27.37
812.419	27.36
812.594	27.93
812.769	29.9
812.944	30.18
813.12	30.91
813.295	29.43
813.47	30.06
813.645	30.09
813.821	29
813.996	28.98
814.171	29.52
814.346	27.8
814.521	27.03
814.697	25.62
814.872	24.89
815.047	25.4
815.222	25.36
815.397	22.98
815.572	22.93
815.747	24.52
815.922	25.37
816.097	24.29
816.272	27.12
816.447	26.93
816.622	28.43
816.797	27.95
816.972	26.27
817.147	27.31
817.322	28.22
817.496	27.98
817.671	26.49
817.846	26.41
818.021	26.57
818.196	23.86
818.371	24.43
818.545	24.61
818.72	24.9
818.895	25.64
819.069	25.55
819.244	26.52
819.419	26.91
819.594	28.42
819.768	28.3
819.943	28.84
820.117	29.28
820.292	29.92
820.467	30.02
820.641	30.02
820.816	30.84
820.99	30.33
821.165	30.59
821.339	29.93
821.514	29.96
821.688	30.08
821.863	30.23
822.037	30.29
822.212	29.91
822.386	29.93
822.56	30.04
822.735	29.87
822.909	30.13
823.084	30.16
823.258	30.66
823.432	30.56
823.606	30.46
823.781	30.4
823.955	30.46
824.129	30.58
824.303	30.72
824.478	30.89
824.652	30.94
824.826	30.99
825	30.41
825.174	30.09
825.348	30.03
825.523	29.84
825.697	29.6
825.871	29.59
826.045	29.58
826.219	29.16
826.393	28.74
826.567	28.44
826.741	28.07
826.915	28.53
827.089	28.31
827.263	28.06
827.437	28.31
827.611	28.42
827.784	28.08
827.958	28.01
828.132	27.8
828.306	28.01
828.48	28.06
828.654	28.08
828.827	28.44
829.001	28.66
829.175	28.72
829.349	28.84
829.522	28.47
829.696	29.16
829.87	29.94
830.044	30.21
830.217	29.97
830.391	29.57
830.565	28.99
830.738	27.7
830.912	27.68
831.085	28.3
831.259	28.16
831.432	28.47
831.606	27.36
831.779	26.62
831.953	26.27
832.126	26.24
832.3	27.27
832.473	27.59
832.647	27.99
832.82	27.95
832.994	27.39
833.167	27.46
833.34	27.23
833.514	28.01
833.687	27.66
833.86	27.42
834.034	27.29
834.207	27.21
834.38	27.25
834.553	27.11
834.727	27.46
834.9	27.52
835.073	27.56
835.246	27.82
835.419	27.4
835.593	27.5
835.766	27.57
835.939	28.38
836.112	28.61
836.285	29.36
836.458	29.04
836.631	28.32
836.804	28.25
836.977	27.37
837.15	27.48
837.323	28.21
837.496	27.55
837.669	27.28
837.842	25.99
838.015	25.03
838.188	22.55
838.361	22.31
838.533	23.18
838.706	22.42
838.879	22.67
839.052	21.66
839.225	20.58
839.398	21.52
839.57	23.02
839.743	21.8
839.916	23.46
840.088	27.03
840.261	28.65
840.434	27.71
840.607	28.37
840.779	28.45
840.952	28.2
841.124	27.63
841.297	28.31
841.47	27.57
841.642	29.45
841.815	27.91
841.987	24.24
842.16	22.76
842.332	26.37
842.505	26.6
842.677	26.48
842.85	28.21
843.022	30.44
843.194	30.74
843.367	30.1
843.539	29.05
843.712	28.82
843.884	29.7
844.056	33.73
844.229	29.89
844.401	28.67
844.573	29.4
844.745	29.5
844.918	26.92
845.09	25.54
845.262	25.65
845.434	27.78
845.606	27.02
845.779	27.03
845.951	25.56
846.123	25.3
846.295	23.66
846.467	24.44
846.639	23.19
846.811	24.77
846.983	24.46
847.155	24.43
847.327	21.84
847.499	21.09
847.671	22.24
847.843	16.66
848.015	16.61
848.187	21.41
848.359	21.62
848.531	22.13
848.703	21.71
848.875	23.08
849.047	26
849.218	27.31
849.39	26.77
849.562	24.8
849.734	27.52
849.905	26.52
850.077	22.74
850.249	21.9
850.421	21.68
850.592	23.12
850.764	18.06
850.936	16.3
851.107	15.17
851.279	19.28
851.451	19.27
851.622	21.16
851.794	23.41
851.965	25.68
852.137	25.53
852.308	26.07
852.48	26.14
852.651	30.57
852.823	32.51
852.994	31.69
853.166	29.78
853.337	30.15
853.509	27.86
853.68	30.04
853.851	27.35
854.023	25.51
854.194	23.16
854.365	24.73
854.537	26.52
854.708	26.31
854.879	25.31
855.05	22.23
855.222	24.82
855.393	24.73
855.564	20.84
855.735	22.44
855.906	22.13
856.078	24.37
856.249	16.88
856.42	14.52
856.591	13.68
856.762	18.04
856.933	23.35
857.104	22.29
857.275	22.62
857.446	24.51
857.617	24.3
857.788	28.07
857.959	27.25
858.13	29.87
858.301	29.46
858.472	26.2
858.643	25.12
858.814	21.85
858.985	20.23
859.155	20.13
859.326	18.47
859.497	18.1
859.668	13.87
859.839	12.68
860.009	10.75
860.18	13.03
860.351	14.86
860.522	15.2
860.692	19.6
860.863	20.42
861.034	23.92
861.204	26.83
861.375	25.8
861.546	28.48
861.716	26.78
861.887	36.24
862.057	34.91
862.228	34.66
862.398	30.92
862.569	31.83
862.739	33.16
862.91	32.51
863.08	27.05
863.251	30.52
863.421	29.76
863.592	29.33
863.762	25.39
863.932	24.65
864.103	24.73
864.273	25.54
864.443	20.5
864.614	15.65
864.784	10
864.954	14.21
865.125	14.4
865.295	12.76
865.465	14.19
865.635	13.27
865.805	13.23
865.976	13.82
866.146	16.03
866.316	16.09
866.486	22.43
866.656	23.41
866.826	22.44
866.996	21.2
867.166	22.12
867.336	19.46
867.506	19.37
867.676	17.7
867.846	17.14
868.016	20.4
868.186	20.19
868.356	13.94
868.526	15.96
868.696	18.59
868.866	14.96
869.036	14.84
869.206	15.74
869.376	18.17
869.545	20.8
869.715	19.84
869.885	15.08
870.055	18.35
870.224	21.27
870.394	17.32
870.564	12.21
870.734	16.53
870.903	18.45
871.073	19.03
871.243	15.8
871.412	15.82
871.582	18.16
871.751	18.74
871.921	17.79
872.091	16.07
872.26	19.67
872.43	22.01
872.599	21.85
872.769	22.47
872.938	23.51
873.108	24.42
873.277	19.88
873.446	20.02
873.616	22.53
873.785	25.14
873.955	24.99
874.124	23.54
874.293	24.51
874.463	22.67
874.632	22.86
874.801	23.39
874.971	23.03
875.14	23.46
875.309	19.35
875.478	16.88
875.647	12.13
875.817	17.98
875.986	17.7
876.155	15.68
876.324	16.43
876.493	17.18
876.662	20.71
876.831	22.39
877	24.94
877.17	28.04
877.339	28.73
877.508	31.16
877.677	25.37
877.846	28.63
878.015	30.84
878.184	30.39
878.352	27.12
878.521	24.99
878.69	20.95
878.859	20.25
879.028	21.31
879.197	22.17
879.366	22.98
879.534	23.82
879.703	22.27
879.872	22.37
880.041	21.6
880.21	20.62
880.378	20.92
880.547	22.48
880.716	24.3
880.884	23.08
881.053	22.75
881.222	22.58
881.39	23.44
881.559	23.58
881.727	23.95
881.896	24.82
882.065	25.47
882.233	25.99
882.402	26.46
882.57	25.88
882.739	26.4
882.907	27.36
883.076	27.22
883.244	27.17
883.412	27.12
883.581	27.15
883.749	25.85
883.918	25.86
884.086	24.92
884.254	24.18
884.423	25.02
884.591	24.41
884.759	23.48
884.927	22.98
885.096	23.28
885.264	22.05
885.432	20.36
885.6	21.72
885.769	20.45
885.937	19.01
886.105	20.08
886.273	18.6
886.441	19.47
886.609	16.52
886.777	16.71
886.945	15.73
887.113	17.22
887.281	18.29
887.449	17.91
887.617	17.63
887.785	19.52
887.953	16.46
888.121	14.35
888.289	12.55
888.457	15.19
888.625	19.38
888.793	18.03
888.961	18.43
889.129	14.52
889.296	17.22
889.464	19.65
889.632	22.1
889.8	23.09
889.967	24.7
890.135	27.71
