Data from 2938755__Reflection_02.txt Node
Date: Fri Mar 13 19:07:18 EDT 2015
User: robert
Spectrometer: USB4E03002
Autoset integration time: false
Trigger mode: 4
Integration Time (sec): 1.000000E-1
Scans to average: 10
Electric dark correction enabled: false
Nonlinearity correction enabled: false
Boxcar width: 5
Stray light correction enabled: false
XAxis mode: Wavelengths
Stop averaging: false
Number of Pixels in Spectrum: 3648
>>>>>Begin Spectral Data<<<<<
177.575	-390.91
177.794	-2428.57
178.014	-218.97
178.233	-171.62
178.452	20500
178.672	90.17
178.891	-51.61
179.11	-89.89
179.33	-217.07
179.549	-291.57
179.768	-80.61
179.987	-161.29
180.207	-815.91
180.426	-116.56
180.645	103.33
180.864	126.67
181.084	28.02
181.303	39.45
181.522	75.08
181.741	44.65
181.96	27.21
182.179	13.49
182.398	-1.91
182.618	-29.18
182.837	-43.6
183.056	-31.36
183.275	-50
183.494	3.85
183.713	-157.14
183.932	-435
184.151	6200
184.37	33.9
184.589	0
184.808	33.83
185.027	47.77
185.246	10.36
185.465	-31.05
185.684	3.46
185.903	47.6
186.122	54.05
186.341	-54.26
186.56	723.08
186.779	67.76
186.998	74.03
187.216	95.68
187.435	151.03
187.654	140.24
187.873	117.3
188.092	112.27
188.311	156.05
188.53	151.97
188.748	132.75
188.967	152.97
189.186	284.08
189.405	-218.95
189.623	-96.58
189.842	-129.12
190.061	-70.53
190.28	-21.97
190.498	18.39
190.717	-3.87
190.936	50.98
191.154	56.99
191.373	56.06
191.592	12.76
191.81	-325
192.029	-240
192.248	-34.39
192.466	9.02
192.685	20.69
192.904	-33.73
193.122	-572.34
193.341	-610.53
193.559	-634.62
193.778	1563.64
193.996	168.42
194.215	150.55
194.433	349.53
194.652	556.94
194.87	11100
195.089	643.9
195.307	-1303.23
195.526	-47.57
195.744	-9.69
195.963	-19.54
196.181	9.36
196.399	2.87
196.618	1.37
196.836	36.49
197.055	36.25
197.273	18.85
197.491	68.1
197.71	51.52
197.928	65.19
198.146	82.05
198.365	109.09
198.583	-122.92
198.801	29.93
199.019	51.82
199.238	27.9
199.456	35.36
199.674	58.51
199.892	-6.36
200.111	-23.69
200.329	14.94
200.547	-74.62
200.765	19.95
200.983	70.6
201.202	50.78
201.42	65.99
201.638	58.86
201.856	63.44
202.074	50.36
202.292	88.66
202.51	107.96
202.728	44.52
202.946	31.98
203.165	21.89
203.383	-69.07
203.601	-327.17
203.819	-60.61
204.037	-84.29
204.255	-47.01
204.473	-108.14
204.691	-97.84
204.909	-76.92
205.127	-50.43
205.345	6.6
205.562	6.29
205.78	-2.42
205.998	60.09
206.216	59.8
206.434	55.48
206.652	50.28
206.87	61.61
207.088	63.66
207.306	67.19
207.523	84.87
207.741	91.03
207.959	88.01
208.177	61.4
208.395	59.63
208.612	51.32
208.83	28.26
209.048	7.6
209.266	8.9
209.483	9.01
209.701	2.71
209.919	-16.07
210.136	-27.44
210.354	-67.23
210.572	-31.47
210.79	-60.06
211.007	-35.58
211.225	-65.42
211.442	-35.13
211.66	-15.96
211.878	-29.37
212.095	-19.43
212.313	-31.08
212.53	-25.5
212.748	7.73
212.966	21.34
213.183	-1.62
213.401	15.96
213.618	37.15
213.836	22.97
214.053	44.33
214.271	73.19
214.488	72.32
214.705	51.6
214.923	82.96
215.14	74.72
215.358	70.4
215.575	89.34
215.793	91.65
216.01	94.55
216.227	79.67
216.445	73.06
216.662	86.57
216.879	69.84
217.097	68.46
217.314	46.25
217.531	34.91
217.749	18.34
217.966	23.39
218.183	24.61
218.4	3.66
218.618	17.98
218.835	10.55
219.052	13.18
219.269	19.09
219.487	22.71
219.704	33.73
219.921	38.39
220.138	39.97
220.355	33.58
220.572	32.3
220.79	35.28
221.007	28.3
221.224	25.81
221.441	25.06
221.658	24.7
221.875	20.26
222.092	21.97
222.309	18.41
222.526	17.19
222.743	19.63
222.96	16.8
223.177	12.13
223.394	10.11
223.611	12.38
223.828	10.99
224.045	9.71
224.262	8.52
224.479	4.71
224.696	6.85
224.913	5.73
225.13	2.49
225.347	0.68
225.564	3.82
225.781	3.55
225.997	3.25
226.214	1.56
226.431	1.64
226.648	4.68
226.865	4.64
227.082	1.81
227.298	2.46
227.515	2.36
227.732	2.98
227.949	1.52
228.165	3.19
228.382	4.26
228.599	4.56
228.816	3.62
229.032	3.51
229.249	3.27
229.466	4.74
229.682	5.23
229.899	6.38
230.116	5.78
230.332	5.84
230.549	5.21
230.765	3.86
230.982	3.82
231.199	5.02
231.415	4.32
231.632	4.79
231.848	4.14
232.065	2.6
232.281	1.18
232.498	2.54
232.714	4.52
232.931	3.42
233.147	5.55
233.364	6.44
233.58	6.45
233.797	5.59
234.013	5.35
234.23	3.04
234.446	3.94
234.662	1.93
234.879	1.06
235.095	2.67
235.312	2.31
235.528	-0.99
235.744	-2.24
235.961	-1.76
236.177	-0.33
236.393	-0.97
236.61	1.4
236.826	1.58
237.042	4.35
237.258	4.96
237.475	4.57
237.691	4.17
237.907	4.42
238.123	3.84
238.339	2.38
238.556	3.02
238.772	2.68
238.988	0.19
239.204	1.07
239.42	1.01
239.636	1.75
239.853	1.33
240.069	3.06
240.285	4.07
240.501	4.13
240.717	3.7
240.933	3.5
241.149	3.67
241.365	3.86
241.581	3.18
241.797	3.16
242.013	2.71
242.229	2.6
242.445	2.08
242.661	1.91
242.877	1.87
243.093	2.27
243.309	1.87
243.525	2.38
243.741	2.66
243.957	3.26
244.173	3.37
244.388	3.83
244.604	3.2
244.82	3.53
245.036	3.23
245.252	2.85
245.468	2.65
245.683	2.85
245.899	2.64
246.115	2.76
246.331	2.43
246.547	2.59
246.762	2.13
246.978	2.42
247.194	2.32
247.409	2.57
247.625	2.67
247.841	2.63
248.057	2.59
248.272	2.87
248.488	2.53
248.703	2.45
248.919	1.94
249.135	2.19
249.35	1.98
249.566	1.88
249.782	2.04
249.997	2.43
250.213	2.5
250.428	2.19
250.644	1.42
250.859	2.14
251.075	2.34
251.29	2.6
251.506	2.47
251.721	2.47
251.937	2.69
252.152	2.42
252.368	2.04
252.583	2.51
252.798	3.37
253.014	3.25
253.229	3.4
253.445	3.37
253.66	4.15
253.875	4.4
254.091	5.65
254.306	5.82
254.521	5.31
254.737	5.83
254.952	5.52
255.167	5.28
255.383	5.24
255.598	5.12
255.813	5.17
256.028	3.53
256.244	3.48
256.459	2.62
256.674	2.15
256.889	2.58
257.104	2.64
257.32	2.16
257.535	1.21
257.75	1.3
257.965	0.82
258.18	0.41
258.395	0.69
258.61	0.67
258.826	0.54
259.041	0.62
259.256	0.71
259.471	0.7
259.686	0.74
259.901	0.9
260.116	0.8
260.331	0.85
260.546	1.19
260.761	1.47
260.976	1.62
261.191	1.81
261.406	1.98
261.621	1.74
261.836	1.69
262.05	1.71
262.265	1.28
262.48	1.28
262.695	1.71
262.91	1.39
263.125	0.94
263.34	0.63
263.555	0.34
263.769	0.08
263.984	0.66
264.199	0.86
264.414	1.39
264.629	1.93
264.843	2.05
265.058	1.76
265.273	2
265.488	1.69
265.702	1.4
265.917	1.44
266.132	1.86
266.346	1.4
266.561	1.48
266.776	1.53
266.99	1.74
267.205	1.68
267.42	1.25
267.634	1.35
267.849	1.6
268.063	2.07
268.278	2.01
268.492	1.72
268.707	2.03
268.922	2.03
269.136	1.4
269.351	1.57
269.565	1.35
269.78	1.66
269.994	1.79
270.209	1.49
270.423	1.47
270.637	1.44
270.852	1.28
271.066	1.33
271.281	1.14
271.495	1.5
271.709	1.45
271.924	1.71
272.138	1.41
272.353	1.63
272.567	1.85
272.781	1.66
272.996	1.46
273.21	1.56
273.424	1.48
273.638	1.43
273.853	1.62
274.067	1.29
274.281	0.85
274.495	1.27
274.71	0.97
274.924	0.83
275.138	1.1
275.352	1.54
275.566	1.84
275.781	2.09
275.995	1.96
276.209	1.76
276.423	1.63
276.637	2.56
276.851	2.85
277.065	2.86
277.279	2.73
277.493	2.76
277.707	1.92
277.921	1.93
278.135	1.72
278.349	2.26
278.563	2.43
278.777	3.05
278.991	2.32
279.205	1.87
279.419	1.45
279.633	2.19
279.847	2.11
280.061	2.49
280.275	2.42
280.489	2.49
280.703	2.25
280.917	2.17
281.131	1.9
281.344	1.98
281.558	2.12
281.772	2.17
281.986	1.94
282.2	1.87
282.414	2.07
282.627	2.17
282.841	2.12
283.055	1.92
283.269	1.72
283.482	1.46
283.696	1.64
283.91	1.07
284.123	1.29
284.337	1.08
284.551	1.06
284.764	1.08
284.978	0.9
285.192	0.65
285.405	0.71
285.619	0.96
285.833	1.21
286.046	1.27
286.26	1.59
286.473	1.41
286.687	1.52
286.9	1.66
287.114	1.6
287.327	1.64
287.541	1.98
287.754	2.14
287.968	2.09
288.181	1.86
288.395	1.78
288.608	1.81
288.822	1.97
289.035	1.62
289.248	1.59
289.462	1.49
289.675	1.26
289.889	1.27
290.102	1.17
290.315	0.81
290.529	0.98
290.742	1
290.955	1.2
291.169	1.13
291.382	1.61
291.595	1.52
291.808	1.82
292.022	2.14
292.235	2.07
292.448	2.28
292.661	2.56
292.875	2.81
293.088	2.8
293.301	2.94
293.514	2.63
293.727	2.57
293.94	2.38
294.153	2.47
294.367	2.39
294.58	2.15
294.793	2.01
295.006	1.88
295.219	1.63
295.432	1.51
295.645	1.2
295.858	1.44
296.071	1.24
296.284	1.68
296.497	1.5
296.71	1.67
296.923	1.88
297.136	2.04
297.349	2.29
297.562	2.26
297.775	2.42
297.988	2.87
298.201	3.01
298.414	3.17
298.626	3.07
298.839	3.22
299.052	3.16
299.265	3.11
299.478	2.99
299.691	2.83
299.903	3.02
300.116	3.01
300.329	2.47
300.542	2.37
300.755	2.22
300.967	2.43
301.18	2.25
301.393	1.87
301.605	1.86
301.818	1.83
302.031	1.68
302.243	1.62
302.456	1.73
302.669	1.44
302.881	1.5
303.094	1.6
303.307	1.39
303.519	1.76
303.732	2.17
303.944	2.14
304.157	2.18
304.37	2.42
304.582	2.34
304.795	2.13
305.007	2.79
305.22	2.66
305.432	2.55
305.645	2.22
305.857	2.04
306.069	2.2
306.282	2.19
306.494	2.42
306.707	2.14
306.919	2.87
307.132	3.13
307.344	2.97
307.556	3.13
307.769	3.4
307.981	3.71
308.193	3.9
308.406	3.87
308.618	3.84
308.83	3.44
309.043	3.88
309.255	3.37
309.467	3.06
309.679	3.11
309.892	3.33
310.104	3.23
310.316	2.87
310.528	3.04
310.74	2.91
310.953	2.95
311.165	3.1
311.377	3.06
311.589	3.29
311.801	3.51
312.013	3.31
312.225	3.14
312.437	3.32
312.649	3.44
312.862	3.18
313.074	3.29
313.286	3.64
313.498	3.77
313.71	3.75
313.922	3.62
314.134	3.78
314.346	4.16
314.558	4.26
314.77	4.17
314.982	4.46
315.193	4.15
315.405	4.05
315.617	4.09
315.829	3.69
316.041	4.33
316.253	4.44
316.465	4.36
316.677	4.35
316.888	4.09
317.1	4.07
317.312	4.18
317.524	4.32
317.736	4.52
317.947	4.18
318.159	4.55
318.371	4.08
318.583	4.09
318.794	4.18
319.006	4.7
319.218	4.78
319.43	5.32
319.641	5.77
319.853	6.15
320.064	6.5
320.276	6.72
320.488	7.12
320.699	6.71
320.911	6.53
321.123	6.49
321.334	6.05
321.546	5.92
321.757	5.59
321.969	4.84
322.18	4.8
322.392	4.92
322.603	4.86
322.815	4.94
323.026	5.18
323.238	6.05
323.449	5.86
323.661	5.77
323.872	6.33
324.083	6.33
324.295	6.64
324.506	6.71
324.718	6.74
324.929	7.14
325.14	7.44
325.352	7.76
325.563	7.59
325.774	8.13
325.986	8.55
326.197	8.96
326.408	9.27
326.62	9.73
326.831	10.16
327.042	10.39
327.253	10.42
327.464	11.1
327.676	11.42
327.887	11.78
328.098	11.79
328.309	12.13
328.52	12.13
328.732	12.44
328.943	12.33
329.154	12.72
329.365	12.64
329.576	13.38
329.787	13.1
329.998	13.22
330.209	13.47
330.42	14.11
330.631	14.13
330.842	14.55
331.053	14.67
331.264	15.34
331.475	14.98
331.686	15.7
331.897	15.63
332.108	15.88
332.319	16.22
332.53	16.47
332.741	16.67
332.952	16.66
333.163	16.5
333.374	16.68
333.585	16.51
333.795	17.24
334.006	16.71
334.217	16.65
334.428	16.55
334.639	16.73
334.849	16.65
335.06	16.8
335.271	17.35
335.482	17.51
335.692	17.78
335.903	17.95
336.114	18.24
336.325	18.99
336.535	19.2
336.746	19.58
336.957	19.31
337.167	19.29
337.378	19.04
337.589	19.01
337.799	18.78
338.01	18.63
338.22	18.78
338.431	18.56
338.642	18.26
338.852	18.27
339.063	18.11
339.273	18.46
339.484	18.7
339.694	18.69
339.905	18.62
340.115	18.66
340.326	18.79
340.536	18.33
340.746	17.97
340.957	18.02
341.167	18.04
341.378	18.25
341.588	17.86
341.799	17.57
342.009	17.74
342.219	17.72
342.43	18.16
342.64	18.18
342.85	18.33
343.061	18.41
343.271	18.07
343.481	18.11
343.691	17.8
343.902	18.1
344.112	18.2
344.322	18.38
344.532	18.36
344.743	18.28
344.953	18.31
345.163	18.47
345.373	18.38
345.583	18.7
345.793	18.56
346.004	18.54
346.214	18.29
346.424	18.58
346.634	18.35
346.844	18.32
347.054	18.26
347.264	18.07
347.474	18.28
347.684	18.36
347.894	18.3
348.104	18.46
348.314	18.15
348.524	18.48
348.734	18.24
348.944	18.26
349.154	18.53
349.364	18.41
349.574	18.54
349.784	18.62
349.994	18.77
350.204	18.64
350.413	18.48
350.623	18.75
350.833	18.34
351.043	18.42
351.253	18.27
351.463	18.1
351.672	18.02
351.882	17.88
352.092	17.76
352.302	17.45
352.511	17.64
352.721	17.98
352.931	17.99
353.141	18.36
353.35	18.11
353.56	18.32
353.77	18.01
353.979	18.05
354.189	17.8
354.399	17.53
354.608	17.49
354.818	17.05
355.027	16.77
355.237	16.8
355.447	16.83
355.656	17.02
355.866	16.94
356.075	17.16
356.285	17.27
356.494	17.44
356.704	17.54
356.913	17.64
357.123	17.85
357.332	17.78
357.542	17.74
357.751	17.54
357.96	17.4
358.17	17.43
358.379	17.23
358.589	17.18
358.798	17.22
359.007	17.2
359.217	17.13
359.426	17.07
359.635	17.06
359.845	17.32
360.054	17.28
360.263	17.25
360.472	17.11
360.682	17.25
360.891	17.13
361.1	17.17
361.309	17.02
361.519	16.92
361.728	16.9
361.937	16.7
362.146	16.35
362.355	16.34
362.564	16.3
362.774	16.34
362.983	16.24
363.192	16.31
363.401	16.21
363.61	16.33
363.819	16.41
364.028	16.58
364.237	16.71
364.446	16.63
364.655	16.79
364.864	16.8
365.073	16.9
365.282	16.91
365.491	16.99
365.7	17.27
365.909	17.17
366.118	17.23
366.327	17.05
366.536	17.18
366.745	17.41
366.954	17.25
367.162	17.2
367.371	16.79
367.58	16.6
367.789	16.52
367.998	16.03
368.207	15.93
368.415	15.93
368.624	15.96
368.833	15.91
369.042	15.92
369.25	16.09
369.459	16.11
369.668	16.24
369.877	16.36
370.085	16.17
370.294	16.4
370.503	16.61
370.711	16.67
370.92	16.79
371.129	16.75
371.337	16.78
371.546	16.58
371.754	16.67
371.963	16.86
372.171	16.93
372.38	16.98
372.589	16.99
372.797	16.81
373.006	16.85
373.214	16.72
373.423	16.86
373.631	17.01
373.84	16.98
374.048	16.71
374.256	16.72
374.465	16.55
374.673	16.61
374.882	16.71
375.09	16.98
375.298	17
375.507	16.92
375.715	16.73
375.923	16.53
376.132	16.55
376.34	16.65
376.548	16.55
376.757	16.64
376.965	16.72
377.173	16.58
377.381	16.43
377.59	16.34
377.798	16.38
378.006	16.52
378.214	16.45
378.423	16.32
378.631	16.46
378.839	16.43
379.047	16.41
379.255	16.3
379.463	16.25
379.671	16.12
379.879	16.16
380.088	16.2
380.296	15.93
380.504	15.97
380.712	15.87
380.92	15.9
381.128	15.96
381.336	15.9
381.544	16.02
381.752	16.06
381.96	15.96
382.168	15.91
382.376	16.01
382.584	16.25
382.791	16.22
382.999	16.52
383.207	16.38
383.415	16.14
383.623	16.22
383.831	16.01
384.039	16.06
384.247	16.23
384.454	16.03
384.662	16.01
384.87	16
385.078	15.96
385.285	15.9
385.493	15.97
385.701	16.08
385.909	16.05
386.116	16.35
386.324	16.31
386.532	16.36
386.739	16.38
386.947	16.23
387.155	16.16
387.362	16.11
387.57	16.17
387.778	16.18
387.985	16.27
388.193	16.34
388.4	15.97
388.608	15.8
388.816	15.82
389.023	16.06
389.231	15.91
389.438	16.05
389.646	16.37
389.853	16.15
390.061	16.08
390.268	16.05
390.475	16.12
390.683	16.21
390.89	16.28
391.098	16.2
391.305	16.11
391.512	16.27
391.72	16.2
391.927	15.92
392.135	15.92
392.342	15.82
392.549	15.75
392.756	15.57
392.964	15.67
393.171	15.85
393.378	15.74
393.586	15.89
393.793	15.97
394	15.96
394.207	15.99
394.414	16.07
394.622	16.13
394.829	16.31
395.036	16.28
395.243	16.33
395.45	16.18
395.657	16.23
395.864	16.02
396.072	15.84
396.279	15.84
396.486	15.85
396.693	16.07
396.9	16.11
397.107	16.08
397.314	16.22
397.521	16.07
397.728	16.19
397.935	16.24
398.142	16.26
398.349	16.39
398.556	16.25
398.763	16.31
398.97	16.18
399.177	16.04
399.383	15.97
399.59	15.89
399.797	16.16
400.004	16.02
400.211	15.92
400.418	15.81
400.625	15.58
400.831	15.79
401.038	15.67
401.245	15.76
401.452	15.91
401.658	15.87
401.865	16.01
402.072	15.59
402.279	15.59
402.485	15.72
402.692	15.9
402.899	16.13
403.105	16.26
403.312	16.53
403.519	16.49
403.725	16.6
403.932	16.72
404.138	16.56
404.345	16.97
404.552	16.97
404.758	17.04
404.965	17.09
405.171	17.09
405.378	17.01
405.584	16.97
405.791	16.98
405.997	16.84
406.204	16.82
406.41	16.92
406.617	16.89
406.823	17.01
407.029	17.03
407.236	17.11
407.442	17.02
407.649	17.03
407.855	17.04
408.061	16.87
408.268	16.98
408.474	17.09
408.68	17.19
408.887	16.91
409.093	16.87
409.299	16.86
409.505	16.68
409.712	16.76
409.918	16.85
410.124	16.69
410.33	16.97
410.537	16.99
410.743	17
410.949	16.92
411.155	17.16
411.361	17.1
411.567	17.18
411.773	17.26
411.98	17.36
412.186	17.29
412.392	17.32
412.598	17.33
412.804	17.27
413.01	17.15
413.216	17.22
413.422	17.28
413.628	17.33
413.834	17.27
414.04	17.38
414.246	17.41
414.452	17.47
414.658	17.55
414.864	17.4
415.07	17.42
415.275	17.54
415.481	17.44
415.687	17.45
415.893	17.43
416.099	17.41
416.305	17.23
416.511	17.25
416.716	17.18
416.922	17.31
417.128	17.44
417.334	17.59
417.539	17.55
417.745	17.6
417.951	17.49
418.157	17.52
418.362	17.6
418.568	17.76
418.774	17.83
418.979	17.95
419.185	17.92
419.391	17.82
419.596	17.79
419.802	17.82
420.008	17.82
420.213	17.26
420.419	17.3
420.624	17.21
420.83	17.18
421.035	17.17
421.241	17.1
421.446	17.06
421.652	17.12
421.857	17.05
422.063	17.01
422.268	17.03
422.474	17.6
422.679	17.63
422.885	17.69
423.09	17.74
423.295	17.8
423.501	17.81
423.706	17.8
423.911	17.79
424.117	17.81
424.322	17.85
424.527	17.95
424.733	17.96
424.938	17.96
425.143	18.04
425.349	18.02
425.554	17.87
425.759	17.83
425.964	17.9
426.169	17.97
426.375	18.01
426.58	18.06
426.785	18.08
426.99	18.1
427.195	18.18
427.4	18.06
427.605	18.08
427.811	18.21
428.016	18.37
428.221	18.41
428.426	18.42
428.631	18.43
428.836	18.46
429.041	18.41
429.246	18.5
429.451	18.58
429.656	18.6
429.861	18.65
430.066	18.65
430.271	18.6
430.476	18.57
430.681	18.58
430.886	18.7
431.09	18.72
431.295	18.64
431.5	18.65
431.705	18.6
431.91	18.63
432.115	18.69
432.32	18.71
432.524	18.81
432.729	18.8
432.934	18.84
433.139	18.85
433.343	18.8
433.548	19.05
433.753	19.07
433.958	19.06
434.162	19.11
434.367	19.08
434.572	19.19
434.776	19.15
434.981	19.25
435.186	19.25
435.39	19.22
435.595	19.28
435.799	19.08
436.004	19.08
436.209	19.06
436.413	19.13
436.618	19.13
436.822	19.24
437.027	19.41
437.231	19.41
437.436	19.49
437.64	19.53
437.845	19.56
438.049	19.6
438.253	19.66
438.458	19.6
438.662	19.66
438.867	19.68
439.071	19.5
439.275	19.43
439.48	19.43
439.684	19.39
439.888	19.42
440.093	19.43
440.297	19.42
440.501	19.35
440.706	19.43
440.91	19.49
441.114	19.48
441.318	19.49
441.523	19.45
441.727	19.43
441.931	19.45
442.135	19.46
442.339	19.46
442.543	19.57
442.748	19.58
442.952	19.57
443.156	19.41
443.36	19.47
443.564	19.56
443.768	19.53
443.972	19.57
444.176	19.49
444.38	19.49
444.584	19.55
444.788	19.43
444.992	19.43
445.196	19.39
445.4	19.46
445.604	19.46
445.808	19.37
446.012	19.43
446.216	19.41
446.42	19.48
446.624	19.41
446.828	19.32
447.032	19.41
447.235	19.42
447.439	19.54
447.643	19.48
447.847	19.49
448.051	19.55
448.254	19.59
448.458	19.54
448.662	19.52
448.866	19.62
449.069	19.68
449.273	19.61
449.477	19.66
449.681	19.58
449.884	19.64
450.088	19.62
450.292	19.76
450.495	19.7
450.699	19.87
450.902	19.91
451.106	19.81
451.31	19.71
451.513	19.79
451.717	19.81
451.92	19.76
452.124	19.65
452.327	19.63
452.531	19.52
452.734	19.46
452.938	19.43
453.141	19.44
453.345	19.61
453.548	19.65
453.752	19.66
453.955	19.49
454.158	19.53
454.362	19.73
454.565	19.74
454.769	19.73
454.972	19.83
455.175	19.73
455.379	19.7
455.582	19.58
455.785	19.7
455.988	19.58
456.192	19.7
456.395	19.79
456.598	19.8
456.801	19.83
457.005	19.82
457.208	19.78
457.411	19.81
457.614	19.74
457.817	19.72
458.021	19.71
458.224	19.75
458.427	19.78
458.63	19.78
458.833	19.74
459.036	19.75
459.239	19.81
459.442	19.87
459.645	19.86
459.848	19.89
460.051	19.95
460.254	19.89
460.457	19.94
460.66	19.88
460.863	19.9
461.066	19.85
461.269	19.92
461.472	19.85
461.675	19.73
461.878	19.73
462.081	19.75
462.284	19.77
462.486	19.82
462.689	19.9
462.892	19.83
463.095	19.75
463.298	19.8
463.5	19.73
463.703	19.75
463.906	19.82
464.109	19.73
464.311	19.8
464.514	19.69
464.717	19.69
464.92	19.57
465.122	19.67
465.325	19.74
465.528	19.64
465.73	19.67
465.933	19.55
466.135	19.58
466.338	19.7
466.541	19.67
466.743	19.71
466.946	19.71
467.148	19.74
467.351	19.71
467.553	19.74
467.756	19.8
467.958	19.73
468.161	19.89
468.363	19.83
468.566	19.8
468.768	19.7
468.971	19.73
469.173	19.72
469.375	19.76
469.578	19.81
469.78	19.88
469.983	19.83
470.185	19.87
470.387	19.82
470.59	19.87
470.792	19.84
470.994	19.96
471.196	19.98
471.399	20.05
471.601	20.06
471.803	20.13
472.005	20.05
472.208	20.16
472.41	20.21
472.612	20.24
472.814	20.29
473.016	20.38
473.218	20.38
473.421	20.34
473.623	20.29
473.825	20.38
474.027	20.32
474.229	20.37
474.431	20.36
474.633	20.36
474.835	20.37
475.037	20.33
475.239	20.36
475.441	20.34
475.643	20.44
475.845	20.45
476.047	20.32
476.249	20.33
476.451	20.38
476.653	20.43
476.855	20.44
477.057	20.38
477.258	20.38
477.46	20.22
477.662	20.17
477.864	20.17
478.066	20.21
478.268	20.23
478.469	20.24
478.671	20.14
478.873	20.08
479.075	20.01
479.276	20.01
479.478	20.02
479.68	20.08
479.882	20.17
480.083	20.13
480.285	20.05
480.487	20.01
480.688	20.02
480.89	19.98
481.091	19.94
481.293	20.01
481.495	20
481.696	20.01
481.898	20.06
482.099	20.03
482.301	19.99
482.502	20.04
482.704	20.08
482.905	20.07
483.107	20.08
483.308	20.07
483.51	20.01
483.711	20.02
483.913	19.98
484.114	19.97
484.315	19.95
484.517	19.93
484.718	19.89
484.92	19.89
485.121	19.87
485.322	19.83
485.524	19.84
485.725	19.85
485.926	19.86
486.127	19.89
486.329	19.88
486.53	19.89
486.731	19.95
486.932	19.96
487.134	19.95
487.335	19.99
487.536	20.02
487.737	20.03
487.938	20.05
488.139	20.04
488.341	20.03
488.542	20.04
488.743	20.06
488.944	20.05
489.145	20.03
489.346	20.04
489.547	20
489.748	19.98
489.949	19.97
490.15	20.04
490.351	20.08
490.552	20.06
490.753	20.06
490.954	20.03
491.155	20.06
491.356	20.1
491.557	20.07
491.758	20.12
491.959	20.16
492.159	20.18
492.36	20.13
492.561	20.12
492.762	20.15
492.963	20.13
493.164	20.17
493.364	20.2
493.565	20.19
493.766	20.22
493.967	20.19
494.167	20.22
494.368	20.3
494.569	20.31
494.769	20.35
494.97	20.39
495.171	20.51
495.371	20.49
495.572	20.5
495.773	20.49
495.973	20.56
496.174	20.59
496.375	20.55
496.575	20.51
496.776	20.55
496.976	20.53
497.177	20.54
497.377	20.47
497.578	20.57
497.778	20.51
497.979	20.5
498.179	20.49
498.38	20.48
498.58	20.59
498.78	20.55
498.981	20.54
499.181	20.56
499.382	20.57
499.582	20.61
499.782	20.54
499.983	20.52
500.183	20.69
500.383	20.77
500.584	20.83
500.784	20.7
500.984	20.76
501.184	20.79
501.385	20.84
501.585	20.9
501.785	20.95
501.985	21.06
502.185	21.2
502.386	21.21
502.586	21.15
502.786	21.16
502.986	21.24
503.186	21.3
503.386	21.39
503.586	21.38
503.786	21.31
503.987	21.31
504.187	21.21
504.387	21.22
504.587	21.2
504.787	21.22
504.987	21.3
505.187	21.37
505.387	21.33
505.587	21.35
505.786	21.43
505.986	21.54
506.186	21.64
506.386	21.7
506.586	21.79
506.786	21.78
506.986	21.8
507.186	21.81
507.386	21.79
507.585	21.87
507.785	21.88
507.985	21.89
508.185	21.89
508.384	21.94
508.584	22.07
508.784	22
508.984	22.08
509.183	22.15
509.383	22.12
509.583	22.13
509.782	22.11
509.982	22.06
510.182	22.06
510.381	22.07
510.581	21.95
510.781	21.86
510.98	21.98
511.18	21.92
511.379	21.95
511.579	21.98
511.778	22.07
511.978	22.05
512.177	22.21
512.377	22.26
512.576	22.29
512.776	22.44
512.975	22.5
513.175	22.48
513.374	22.54
513.573	22.56
513.773	22.63
513.972	22.64
514.172	22.71
514.371	22.73
514.57	22.72
514.77	22.75
514.969	22.74
515.168	22.81
515.367	22.84
515.567	22.85
515.766	22.84
515.965	22.92
516.164	22.9
516.364	23.05
516.563	23.09
516.762	23.2
516.961	23.25
517.16	23.29
517.359	23.39
517.559	23.45
517.758	23.47
517.957	23.46
518.156	23.45
518.355	23.45
518.554	23.44
518.753	23.47
518.952	23.45
519.151	23.47
519.35	23.53
519.549	23.49
519.748	23.51
519.947	23.62
520.146	23.71
520.345	23.7
520.544	23.79
520.743	23.8
520.942	23.8
521.141	23.79
521.339	23.92
521.538	23.91
521.737	23.96
521.936	24.01
522.135	23.96
522.333	24.06
522.532	24.14
522.731	24.22
522.93	24.29
523.129	24.36
523.327	24.47
523.526	24.39
523.725	24.46
523.923	24.48
524.122	24.44
524.321	24.45
524.519	24.45
524.718	24.4
524.917	24.43
525.115	24.38
525.314	24.33
525.512	24.37
525.711	24.43
525.909	24.39
526.108	24.43
526.306	24.44
526.505	24.52
526.703	24.5
526.902	24.6
527.1	24.58
527.299	24.62
527.497	24.61
527.696	24.61
527.894	24.6
528.092	24.67
528.291	24.67
528.489	24.67
528.688	24.6
528.886	24.63
529.084	24.61
529.283	24.59
529.481	24.6
529.679	24.6
529.877	24.62
530.076	24.59
530.274	24.58
530.472	24.59
530.67	24.64
530.869	24.71
531.067	24.71
531.265	24.77
531.463	24.83
531.661	24.89
531.859	24.92
532.057	24.93
532.255	24.99
532.454	25.03
532.652	25.06
532.85	25.04
533.048	25.07
533.246	25.05
533.444	25.05
533.642	25.05
533.84	25.09
534.038	25.16
534.236	25.16
534.434	25.19
534.632	25.21
534.83	25.21
535.027	25.3
535.225	25.27
535.423	25.3
535.621	25.32
535.819	25.34
536.017	25.3
536.215	25.31
536.412	25.33
536.61	25.41
536.808	25.4
537.006	25.46
537.203	25.45
537.401	25.54
537.599	25.57
537.797	25.65
537.994	25.7
538.192	25.78
538.39	25.83
538.587	25.9
538.785	25.84
538.983	25.93
539.18	25.98
539.378	26.09
539.575	26.15
539.773	26.24
539.97	26.3
540.168	26.37
540.366	26.42
540.563	26.45
540.761	26.47
540.958	26.52
541.155	26.51
541.353	26.49
541.55	26.5
541.748	26.5
541.945	26.5
542.143	26.51
542.34	26.55
542.537	26.55
542.735	26.62
542.932	26.63
543.129	26.66
543.327	26.74
543.524	26.86
543.721	27
543.919	27.18
544.116	27.41
544.313	27.56
544.51	27.68
544.708	27.83
544.905	28.05
545.102	28.31
545.299	28.53
545.496	28.68
545.693	28.79
545.891	28.78
546.088	28.68
546.285	28.56
546.482	28.5
546.679	28.44
546.876	28.36
547.073	28.17
547.27	27.94
547.467	27.78
547.664	27.65
547.861	27.49
548.058	27.46
548.255	27.39
548.452	27.36
548.649	27.29
548.846	27.25
549.043	27.22
549.24	27.18
549.437	27.38
549.633	27.25
549.83	27.32
550.027	27.29
550.224	27.21
550.421	27.23
550.618	27.21
550.814	27.13
551.011	27.07
551.208	27.12
551.405	27.13
551.601	26.99
551.798	27.09
551.995	26.97
552.191	26.95
552.388	26.89
552.585	26.84
552.781	26.86
552.978	26.85
553.175	26.78
553.371	26.76
553.568	26.73
553.764	26.63
553.961	26.57
554.157	26.53
554.354	26.51
554.55	26.5
554.747	26.54
554.943	26.41
555.14	26.45
555.336	26.52
555.533	26.43
555.729	26.52
555.926	26.6
556.122	26.62
556.318	26.58
556.515	26.6
556.711	26.74
556.907	26.72
557.104	26.76
557.3	26.65
557.496	26.67
557.693	26.63
557.889	26.57
558.085	26.52
558.281	26.54
558.478	26.56
558.674	26.55
558.87	26.43
559.066	26.54
559.262	26.51
559.459	26.58
559.655	26.53
559.851	26.58
560.047	26.53
560.243	26.57
560.439	26.61
560.635	26.67
560.831	26.75
561.027	26.74
561.223	26.6
561.419	26.69
561.615	26.71
561.811	26.83
562.007	26.82
562.203	26.91
562.399	26.92
562.595	26.91
562.791	26.95
562.987	26.92
563.183	26.92
563.379	27.05
563.575	27.14
563.771	27.18
563.966	27.25
564.162	27.15
564.358	27.11
564.554	27.11
564.75	27.19
564.945	27.13
565.141	27.15
565.337	27.13
565.533	27.1
565.728	26.99
565.924	27.02
566.12	26.95
566.315	27.05
566.511	27.01
566.707	27.06
566.902	26.88
567.098	26.91
567.293	26.92
567.489	26.9
567.684	27
567.88	26.98
568.076	26.96
568.271	26.92
568.467	26.93
568.662	26.97
568.858	26.98
569.053	27.07
569.248	27.14
569.444	27.18
569.639	27.33
569.835	27.29
570.03	27.42
570.225	27.41
570.421	27.47
570.616	27.45
570.812	27.49
571.007	27.36
571.202	27.42
571.397	27.34
571.593	27.22
571.788	27.16
571.983	27.1
572.178	27.03
572.374	26.96
572.569	26.92
572.764	26.93
572.959	26.94
573.154	27.09
573.35	27.11
573.545	27.21
573.74	27.25
573.935	27.26
574.13	27.29
574.325	27.29
574.52	27.39
574.715	27.43
574.91	27.55
575.105	27.54
575.3	27.6
575.495	27.6
575.69	27.59
575.885	27.73
576.08	27.81
576.275	27.94
576.47	28.06
576.665	28.12
576.86	27.99
577.055	28.06
577.25	28.18
577.444	28.11
577.639	28.24
577.834	28.37
578.029	28.34
578.224	28.34
578.418	28.3
578.613	28.3
578.808	28.36
579.003	28.67
579.197	28.63
579.392	28.48
579.587	28.6
579.781	28.44
579.976	28.46
580.171	28.53
580.365	28.57
580.56	28.56
580.755	28.56
580.949	28.45
581.144	28.39
581.338	28.37
581.533	28.51
581.727	28.44
581.922	28.4
582.116	28.34
582.311	28.26
582.505	28.27
582.7	28.31
582.894	28.31
583.089	28.5
583.283	28.54
583.478	28.52
583.672	28.72
583.866	28.73
584.061	28.84
584.255	28.93
584.449	29.14
584.644	29.21
584.838	29.32
585.032	29.42
585.226	29.45
585.421	29.42
585.615	29.54
585.809	29.4
586.003	29.55
586.198	29.66
586.392	29.72
586.586	29.78
586.78	29.83
586.974	29.84
587.168	29.89
587.363	29.91
587.557	29.92
587.751	29.93
587.945	29.84
588.139	29.62
588.333	29.53
588.527	29.46
588.721	29.32
588.915	29.12
589.109	29.04
589.303	28.99
589.497	28.92
589.691	28.9
589.885	28.76
590.079	28.91
590.273	29.04
590.466	29.13
590.66	29.21
590.854	29.31
591.048	29.5
591.242	29.54
591.436	29.58
591.629	29.8
591.823	29.98
592.017	30.13
592.211	30.27
592.404	30.32
592.598	30.34
592.792	30.39
592.986	30.32
593.179	30.28
593.373	30.26
593.567	30.22
593.76	29.94
593.954	29.79
594.147	29.68
594.341	29.47
594.535	29.59
594.728	29.49
594.922	29.35
595.115	29.27
595.309	29.2
595.502	29.23
595.696	29.12
595.889	29.14
596.083	29.14
596.276	29.2
596.47	29.16
596.663	29
596.856	29.04
597.05	29.08
597.243	29.21
597.437	29.33
597.63	29.39
597.823	29.55
598.017	29.74
598.21	29.82
598.403	29.86
598.596	30.02
598.79	30.1
598.983	30.1
599.176	30.08
599.369	30.02
599.563	30.01
599.756	30.02
599.949	30.04
600.142	29.91
600.335	30
600.528	30.07
600.722	30.08
600.915	30.15
601.108	30.23
601.301	30.25
601.494	30.38
601.687	30.27
601.88	30.35
602.073	30.23
602.266	30.27
602.459	30.11
602.652	30.13
602.845	30.1
603.038	30.04
603.231	29.87
603.424	29.88
603.617	29.72
603.809	29.74
604.002	29.6
604.195	29.66
604.388	29.62
604.581	29.7
604.774	29.71
604.966	29.73
605.159	29.77
605.352	29.81
605.545	29.77
605.737	29.9
605.93	29.89
606.123	29.99
606.316	30
606.508	29.98
606.701	30
606.894	30.03
607.086	30.13
607.279	30.25
607.471	30.66
607.664	30.81
607.857	31.11
608.049	31.5
608.242	31.93
608.434	32.41
608.627	33.04
608.819	33.84
609.012	34.68
609.204	35.63
609.397	36.55
609.589	37.52
609.782	38.63
609.974	39.63
610.166	40.65
610.359	41.54
610.551	42.64
610.743	43.61
610.936	44.23
611.128	44.72
611.32	44.9
611.513	45.04
611.705	44.76
611.897	44.68
612.09	44.32
612.282	44
612.474	43.65
612.666	43.04
612.858	42.49
613.051	41.99
613.243	41.52
613.435	41.26
613.627	40.66
613.819	40.4
614.011	39.89
614.203	39.45
614.395	38.99
614.588	38.49
614.78	37.94
614.972	37.29
615.164	36.74
615.356	36.19
615.548	35.53
615.74	35.24
615.932	34.67
616.124	34.34
616.315	34.03
616.507	33.64
616.699	33.25
616.891	33.13
617.083	32.99
617.275	32.97
617.467	32.78
617.659	32.71
617.85	32.54
618.042	32.75
618.234	32.83
618.426	32.68
618.618	32.84
618.809	32.91
619.001	32.83
619.193	32.93
619.384	32.88
619.576	33.02
619.768	33
619.959	33.13
620.151	33.11
620.343	32.84
620.534	32.92
620.726	32.96
620.917	33.18
621.109	33.23
621.301	33.14
621.492	33
621.684	32.91
621.875	33.04
622.067	33.06
622.258	32.97
622.45	33.14
622.641	33.17
622.832	32.99
623.024	32.63
623.215	32.81
623.407	32.81
623.598	32.94
623.789	32.95
623.981	33
624.172	33.11
624.363	33.13
624.555	33.14
624.746	33.37
624.937	33.48
625.129	33.61
625.32	33.38
625.511	33.46
625.702	33.45
625.893	33.61
626.085	33.58
626.276	33.43
626.467	33.55
626.658	33.69
626.849	33.54
627.04	33.43
627.231	33.46
627.422	33.52
627.614	33.43
627.805	33.48
627.996	33.45
628.187	33.51
628.378	33.71
628.569	33.67
628.76	33.69
628.951	33.81
629.142	34.18
629.332	34.37
629.523	34.56
629.714	34.72
629.905	34.89
630.096	35.21
630.287	35.22
630.478	35.12
630.669	35.25
630.859	35.3
631.05	35.19
631.241	35.03
631.432	34.94
631.623	34.76
631.813	34.64
632.004	34.25
632.195	33.91
632.385	33.85
632.576	33.78
632.767	33.67
632.957	33.28
633.148	33.23
633.339	33.09
633.529	32.89
633.72	32.87
633.91	32.74
634.101	32.72
634.292	32.6
634.482	32.59
634.673	32.46
634.863	32.3
635.054	32.43
635.244	32.47
635.435	32.51
635.625	32.57
635.815	32.62
636.006	32.72
636.196	32.72
636.387	32.69
636.577	32.52
636.767	32.62
636.958	32.63
637.148	32.69
637.338	32.86
637.529	32.67
637.719	32.52
637.909	32.39
638.099	32.34
638.29	32.49
638.48	32.64
638.67	32.82
638.86	32.85
639.05	32.99
639.241	33.14
639.431	32.94
639.621	33.1
639.811	33.11
640.001	33.24
640.191	33.34
640.381	33.52
640.571	33.5
640.761	33.47
640.951	33.46
641.141	33.44
641.331	33.16
641.521	33.23
641.711	33.4
641.901	33.53
642.091	33.63
642.281	33.7
642.471	33.63
642.661	33.96
642.851	33.88
643.041	33.82
643.231	33.75
643.42	33.77
643.61	33.98
643.8	33.91
643.99	33.93
644.18	33.9
644.369	33.89
644.559	33.98
644.749	33.76
644.939	34.08
645.128	34.24
645.318	34.36
645.508	34.45
645.697	34.18
645.887	34.08
646.076	34.05
646.266	33.88
646.456	33.87
646.645	33.83
646.835	33.6
647.024	33.39
647.214	33.46
647.403	33.72
647.593	33.66
647.782	33.7
647.972	33.81
648.161	33.77
648.351	34.02
648.54	34.07
648.73	34.12
648.919	34.34
649.108	34.59
649.298	34.67
649.487	34.43
649.677	34.62
649.866	34.89
650.055	35.19
650.244	35.55
650.434	35.75
650.623	35.86
650.812	35.86
651.002	35.83
651.191	35.77
651.38	35.64
651.569	35.72
651.758	35.55
651.947	35.33
652.137	35.2
652.326	35.12
652.515	34.98
652.704	34.93
652.893	35.02
653.082	35.05
653.271	35.19
653.46	35.2
653.649	35.21
653.838	35.45
654.027	35.66
654.216	35.67
654.405	35.73
654.594	35.57
654.783	35.44
654.972	35.42
655.161	35.38
655.35	35.4
655.539	35.49
655.728	35.56
655.916	35.32
656.105	35.31
656.294	35.22
656.483	35.15
656.672	35.24
656.86	35.46
657.049	35.29
657.238	35.29
657.427	34.95
657.615	35.02
657.804	35.04
657.993	35.06
658.181	34.92
658.37	34.89
658.559	34.82
658.747	34.74
658.936	34.7
659.125	34.96
659.313	35.05
659.502	35.25
659.69	35.17
659.879	35.15
660.067	35.26
660.256	35.22
660.444	35.35
660.633	35.49
660.821	35.57
661.01	35.56
661.198	35.45
661.387	35.31
661.575	35.36
661.763	35.34
661.952	35.35
662.14	35.56
662.328	35.78
662.517	35.64
662.705	35.58
662.893	35.66
663.082	35.73
663.27	35.75
663.458	35.86
663.646	35.75
663.834	35.92
664.023	36.09
664.211	35.9
664.399	35.68
664.587	35.95
664.775	36.08
664.963	36.2
665.152	36.36
665.34	36.35
665.528	36.56
665.716	36.58
665.904	36.76
666.092	36.62
666.28	36.74
666.468	36.77
666.656	36.58
666.844	36.51
667.032	36.47
667.22	36.28
667.408	36.41
667.596	36.29
667.784	36.33
667.971	36.07
668.159	36.1
668.347	35.98
668.535	35.86
668.723	35.88
668.911	35.87
669.098	35.93
669.286	35.93
669.474	35.92
669.662	35.96
669.849	36.13
670.037	36.16
670.225	36.14
670.413	36.19
670.6	36.62
670.788	36.75
670.976	36.81
671.163	36.97
671.351	37.19
671.538	37.22
671.726	37.22
671.913	37.1
672.101	37.54
672.289	37.77
672.476	37.81
672.664	37.69
672.851	37.69
673.039	37.8
673.226	37.77
673.413	37.74
673.601	37.53
673.788	37.76
673.976	37.75
674.163	37.47
674.35	37.26
674.538	37.36
674.725	37.48
674.912	37.55
675.1	37.5
675.287	37.39
675.474	37.34
675.662	37.79
675.849	37.67
676.036	37.96
676.223	37.97
676.411	37.91
676.598	37.67
676.785	37.77
676.972	37.74
677.159	37.88
677.346	38.02
677.533	37.94
677.721	37.76
677.908	37.75
678.095	37.5
678.282	37.31
678.469	37.52
678.656	37.8
678.843	37.82
679.03	37.73
679.217	37.57
679.404	37.47
679.591	37.56
679.778	37.62
679.964	37.7
680.151	37.83
680.338	37.98
680.525	37.82
680.712	37.79
680.899	37.88
681.086	37.89
681.272	37.82
681.459	37.77
681.646	37.58
681.833	37.37
682.02	37.35
682.206	36.94
682.393	36.73
682.58	37.11
682.766	36.99
682.953	36.74
683.14	36.94
683.326	37.16
683.513	37.29
683.7	37.49
683.886	37.56
684.073	37.38
684.259	37.95
684.446	38.28
684.632	37.82
684.819	38.06
685.005	38.31
685.192	38.11
685.378	38.14
685.565	38.29
685.751	38.49
685.938	38.77
686.124	38.84
686.31	38.39
686.497	38.4
686.683	38.74
686.87	38.49
687.056	38.58
687.242	38.41
687.429	38.44
687.615	38.13
687.801	37.88
687.987	37.66
688.174	37.81
688.36	38.24
688.546	38.18
688.732	38.17
688.918	38.44
689.105	37.99
689.291	38.18
689.477	38.15
689.663	38.21
689.849	38.26
690.035	38.31
690.221	38.17
690.407	37.91
690.593	38.02
690.779	37.89
690.965	37.71
691.151	37.86
691.337	37.98
691.523	38.02
691.709	38.2
691.895	38.47
692.081	38.7
692.267	38.96
692.453	39.47
692.639	39.28
692.825	39.08
693.011	39.15
693.196	38.97
693.382	38.59
693.568	38.7
693.754	38.81
693.94	38.41
694.125	37.92
694.311	37.8
694.497	37.23
694.682	37.29
694.868	37.93
695.054	37.95
695.239	38.41
695.425	38.58
695.611	38.28
695.796	37.93
695.982	37.93
696.168	38.05
696.353	38.04
696.539	38.28
696.724	38.41
696.91	38.22
697.095	38.14
697.281	38.16
697.466	38.27
697.652	38.37
697.837	38.31
698.023	38.38
698.208	38.42
698.393	38.49
698.579	38.36
698.764	38.37
698.949	38.21
699.135	38.18
699.32	38.13
699.505	38.03
699.691	38.03
699.876	38.17
700.061	38.08
700.246	38.05
700.432	37.91
700.617	37.68
700.802	37.5
700.987	37.46
701.172	37.85
701.358	37.49
701.543	37.67
701.728	37.73
701.913	37.55
702.098	37.74
702.283	37.73
702.468	37.85
702.653	38.34
702.838	38.39
703.023	38.66
703.208	37.93
703.393	38.42
703.578	38.51
703.763	38.53
703.948	38.7
704.133	38.71
704.318	38.54
704.503	38.73
704.688	38.75
704.873	38.95
705.057	39.36
705.242	40.19
705.427	40.42
705.612	40.89
705.797	41.16
705.981	41.54
706.166	41.81
706.351	42.63
706.536	43.05
706.72	43.26
706.905	43.42
707.09	43.23
707.274	43.16
707.459	43.09
707.644	42.88
707.828	43.14
708.013	43.31
708.197	43.41
708.382	42.83
708.567	42.66
708.751	42.7
708.936	42.88
709.12	42.68
709.305	42.73
709.489	42.46
709.673	42.33
709.858	41.89
710.042	41.7
710.227	41.82
710.411	42.12
710.596	41.94
710.78	42.04
710.964	41.86
711.149	42.13
711.333	42.24
711.517	42.26
711.702	42.28
711.886	42.36
712.07	42.42
712.254	42
712.438	41.7
712.623	41.6
712.807	41.41
712.991	41.47
713.175	41.35
713.359	40.95
713.544	40.96
713.728	40.99
713.912	40.95
714.096	40.73
714.28	40.92
714.464	40.6
714.648	40.25
714.832	39.61
715.016	39.33
715.2	38.76
715.384	38.86
715.568	38.57
715.752	38.37
715.936	38.24
716.12	38.1
716.304	38.14
716.488	38.44
716.671	38.7
716.855	39.07
717.039	39.14
717.223	39.23
717.407	39.18
717.59	38.97
717.774	39.38
717.958	39.39
718.142	39.8
718.325	40.02
718.509	39.64
718.693	39.4
718.877	39.17
719.06	38.98
719.244	39.29
719.428	38.98
719.611	39.64
719.795	39.13
719.978	38.38
720.162	37.85
720.345	37.38
720.529	37.96
720.713	38.28
720.896	38.71
721.08	38.88
721.263	38.56
721.446	38.65
721.63	38.84
721.813	38.51
721.997	39.04
722.18	39.2
722.364	39.44
722.547	39.15
722.73	38.78
722.914	38.47
723.097	38.06
723.28	38.11
723.464	38.16
723.647	37.63
723.83	37.8
724.013	37.88
724.197	37.81
724.38	37.54
724.563	38.06
724.746	38.29
724.929	38.47
725.112	38.78
725.296	39.08
725.479	38.96
725.662	39.31
725.845	39.5
726.028	39.3
726.211	39.53
726.394	39.17
726.577	39.39
726.76	39.49
726.943	39.55
727.126	39.55
727.309	39.28
727.492	39.27
727.675	39.43
727.858	39.36
728.041	39.79
728.224	39.63
728.407	40.22
728.589	39.97
728.772	40.29
728.955	40.35
729.138	40.56
729.321	40.71
729.503	40.82
729.686	40.87
729.869	41.34
730.052	41.27
730.234	41.35
730.417	41.25
730.6	41.06
730.782	40.95
730.965	41.05
731.148	40.78
731.33	40.22
731.513	40.18
731.695	40.04
731.878	40.11
732.061	39.92
732.243	39.71
732.426	39.8
732.608	39.84
732.791	39.65
732.973	39.6
733.156	39.68
733.338	40.07
733.52	39.84
733.703	39.88
733.885	39.33
734.068	39.96
734.25	39.97
734.432	39.54
734.615	39.55
734.797	39.52
734.979	39.22
735.162	38.71
735.344	38.89
735.526	39.34
735.708	39.06
735.891	38.98
736.073	38.45
736.255	38.65
736.437	39.22
736.619	39.37
736.802	39.47
736.984	39.63
737.166	40.61
737.348	40.61
737.53	41.04
737.712	40.83
737.894	41.44
738.076	41.15
738.258	40.86
738.44	40.85
738.622	41.06
738.804	41.37
738.986	41.5
739.168	41.4
739.35	41.32
739.532	41.1
739.714	41.28
739.896	40.83
740.078	41.13
740.259	41.27
740.441	41.02
740.623	40.41
740.805	40.24
740.987	39.9
741.168	39.69
741.35	40.02
741.532	39.74
741.714	39.69
741.895	40.07
742.077	40.43
742.259	40.95
742.44	40.31
742.622	40.72
742.804	40.41
742.985	40.39
743.167	39.98
743.348	39.76
743.53	40.19
743.711	40.85
743.893	40.77
744.075	41.05
744.256	40.91
744.438	41.83
744.619	41.65
744.8	41.65
744.982	41.9
745.163	42.41
745.345	42.88
745.526	42.82
745.707	42.69
745.889	42.88
746.07	41.98
746.252	42.28
746.433	42.3
746.614	42.38
746.795	43.19
746.977	43.38
747.158	43.16
747.339	43.05
747.52	42.65
747.702	42.2
747.883	42.67
748.064	42.8
748.245	42.17
748.426	41.52
748.607	41.56
748.788	40.58
748.97	40.42
749.151	41.14
749.332	41
749.513	40.83
749.694	40.69
749.875	39.76
750.056	39.59
750.237	39.98
750.418	40.62
750.599	40.42
750.78	40.92
750.96	40.41
751.141	39.6
751.322	39.67
751.503	39.88
751.684	40.7
751.865	40.32
752.046	39.61
752.226	38.93
752.407	38.95
752.588	39.27
752.769	39.04
752.949	40.26
753.13	40.55
753.311	40.85
753.492	40.81
753.672	40.52
753.853	41.02
754.034	41.85
754.214	42.86
754.395	42.68
754.575	42.57
754.756	42.09
754.937	41.38
755.117	41.45
755.298	40.8
755.478	40.84
755.659	40.69
755.839	41.3
756.02	41.5
756.2	40.82
756.381	40.72
756.561	40.33
756.741	41.08
756.922	41.74
757.102	41.36
757.283	41.54
757.463	40.97
757.643	41.29
757.823	40.86
758.004	40.6
758.184	40.14
758.364	40.08
758.545	40.52
758.725	40.36
758.905	40.27
759.085	40.73
759.265	39.84
759.446	41.16
759.626	40.55
759.806	40.45
759.986	40.73
760.166	40.45
760.346	40.9
760.526	40.49
760.706	40.56
760.886	39.9
761.066	39.5
761.246	40.15
761.426	39.18
761.606	39.06
761.786	39.68
761.966	39.72
762.146	40.38
762.326	39.92
762.506	39.32
762.686	39.18
762.866	38.94
763.046	39.22
763.225	39.38
763.405	39.38
763.585	39.48
763.765	38.98
763.945	38.73
764.124	38.38
764.304	38.33
764.484	39.14
764.664	38.89
764.843	39.43
765.023	39.05
765.203	38.58
765.382	38.61
765.562	38.49
765.741	38.54
765.921	38.42
766.101	38.97
766.28	39.41
766.46	39.05
766.639	39.12
766.819	39.23
766.998	38.92
767.178	39.47
767.357	40.2
767.537	40.76
767.716	40.32
767.896	40.61
768.075	40.7
768.254	40.68
768.434	40.72
768.613	41.41
768.792	40.62
768.972	41.44
769.151	41.13
769.33	41.15
769.51	41.11
769.689	41.76
769.868	41.63
770.047	41.27
770.226	41.01
770.406	41.56
770.585	41.62
770.764	42.01
770.943	42.23
771.122	42.02
771.301	41.02
771.48	40.45
771.66	40.48
771.839	40.69
772.018	40.43
772.197	40.89
772.376	40.58
772.555	40.02
772.734	40.07
772.913	39.81
773.092	40.51
773.271	41.23
773.449	41.18
773.628	40.23
773.807	40.56
773.986	40.8
774.165	40.37
774.344	40.68
774.523	40.78
774.701	40.43
774.88	40.84
775.059	40.48
775.238	40.27
775.417	40.95
775.595	41.68
775.774	41.29
775.953	40.5
776.131	40.61
776.31	40.4
776.489	40.8
776.667	42.11
776.846	41.22
777.025	41.02
777.203	40.48
777.382	40.41
777.56	39.76
777.739	40.08
777.917	40.34
778.096	40.53
778.274	40.49
778.453	39.78
778.631	38.42
778.81	38.54
778.988	38.32
779.166	38.84
779.345	38.72
779.523	39.13
779.702	39.51
779.88	40.58
780.058	40.31
780.237	39.69
780.415	40.59
780.593	40.9
780.771	40.76
780.95	41.17
781.128	41.19
781.306	40.83
781.484	40.29
781.662	39.92
781.841	39.74
782.019	39.73
782.197	40.87
782.375	39.86
782.553	39.66
782.731	40.54
782.909	40.85
783.087	40.08
783.265	41.07
783.443	42.15
783.621	41.63
783.799	41.43
783.977	40.78
784.155	39.41
784.333	39.76
784.511	40.29
784.689	39.84
784.867	39.35
785.045	39.64
785.223	39.18
785.4	38.25
785.578	38.92
785.756	38.32
785.934	39.45
786.112	39.97
786.289	40.69
786.467	39.89
786.645	40.99
786.823	40.69
787	40.53
787.178	40.33
787.356	40.48
787.533	40.01
787.711	41.29
787.889	40.03
788.066	40.08
788.244	39.22
788.421	39.6
788.599	37.95
788.776	38.09
788.954	38.66
789.131	39.24
789.309	39.36
789.486	38.52
789.664	37.38
789.841	37.46
790.019	37.02
790.196	37.24
790.373	36.96
790.551	37.65
790.728	37.28
790.906	36.82
791.083	35.2
791.26	35.3
791.437	35.77
791.615	34.91
791.792	35.56
791.969	35.65
792.146	36.57
792.324	37.75
792.501	37.73
792.678	38.01
792.855	38.94
793.032	39.55
793.209	39.96
793.387	40.67
793.564	42.36
793.741	41.99
793.918	42.18
794.095	42.02
794.272	40.9
794.449	41.41
794.626	40.97
794.803	40.15
794.98	40.17
795.157	38.92
795.334	38.91
795.511	37.96
795.688	37.98
795.864	37.56
796.041	36.33
796.218	36.43
796.395	35.78
796.572	35.66
796.749	34.98
796.925	35.59
797.102	36.16
797.279	36.22
797.456	36.35
797.632	36.99
797.809	37.67
797.986	38.57
798.162	39.16
798.339	39.34
798.516	40.14
798.692	41
798.869	39.98
799.046	39.91
799.222	39.66
799.399	39.83
799.575	39.76
799.752	39.82
799.928	39.91
800.105	40.03
800.281	39.44
800.458	39.66
800.634	39.09
800.811	39.37
800.987	40.03
801.163	40.23
801.34	40.9
801.516	39.96
801.692	40.1
801.869	39.28
802.045	38.36
802.221	39.29
802.398	39.36
802.574	39.8
802.75	40.54
802.926	40.17
803.103	39.35
803.279	39.58
803.455	39.89
803.631	39.2
803.807	40.1
803.983	39.96
804.16	38.67
804.336	38.06
804.512	37.63
804.688	39.2
804.864	38.62
805.04	38.7
805.216	37.71
805.392	37.85
805.568	38.16
805.744	36.53
805.92	35.25
806.096	36.16
806.272	36.11
806.448	35.86
806.623	33.78
806.799	32.87
806.975	34.37
807.151	34.48
807.327	33.8
807.503	34.8
807.678	36.66
807.854	37.39
808.03	37.04
808.206	37.17
808.381	37.26
808.557	36.39
808.733	37.71
808.908	36.15
809.084	35.46
809.26	35.37
809.435	33.54
809.611	32.73
809.787	32.18
809.962	32.56
810.138	33.11
810.313	34.02
810.489	33.67
810.664	34.6
810.84	34.81
811.015	36.47
811.191	37.87
811.366	38.77
811.542	38.01
811.717	39.04
811.892	39.14
812.068	38.67
812.243	38.82
812.419	39.88
812.594	39.44
812.769	39.71
812.944	36.92
813.12	35.66
813.295	35.04
813.47	35.47
813.645	35.6
813.821	35.09
813.996	36.12
814.171	35.53
814.346	34.92
814.521	34.19
814.697	34.47
814.872	35.81
815.047	35.43
815.222	36.36
815.397	35.68
815.572	35.99
815.747	36.18
815.922	34.04
816.097	33.28
816.272	33.51
816.447	32.95
816.622	32.3
816.797	33.44
816.972	33.11
817.147	31.95
817.322	33.23
817.496	32.9
817.671	32.7
817.846	32.76
818.021	33.32
818.196	34.06
818.371	34.72
818.545	34.9
818.72	34.23
818.895	35.31
819.069	36.4
819.244	35.71
819.419	34.68
819.594	35.1
819.768	35.24
819.943	36.03
820.117	35.15
820.292	34.75
820.467	34.58
820.641	34.06
820.816	34.14
820.99	33.52
821.165	33.23
821.339	33.61
821.514	33.15
821.688	33.07
821.863	32.62
822.037	32.81
822.212	32.68
822.386	32.71
822.56	32.77
822.735	32.5
822.909	32.38
823.084	32.18
823.258	32.21
823.432	31.89
823.606	31.87
823.781	31.82
823.955	31.72
824.129	31.61
824.303	31.31
824.478	31.1
824.652	31.33
824.826	31.27
825	31.66
825.174	31.24
825.348	31.76
825.523	31.73
825.697	31.46
825.871	31.47
826.045	31.81
826.219	32.57
826.393	32.7
826.567	32.48
826.741	32.45
826.915	32.61
827.089	33.23
827.263	33.39
827.437	33.29
827.611	33.45
827.784	32.97
827.958	32.7
828.132	32.22
828.306	32.47
828.48	32.65
828.654	33.06
828.827	32.97
829.001	32.52
829.175	32.01
829.349	32.42
829.522	33.44
829.696	34.68
829.87	35.05
830.044	35.49
830.217	35.62
830.391	35.57
830.565	35.29
830.738	35.43
830.912	35.17
831.085	35.84
831.259	35.91
831.432	34.13
831.606	33.26
831.779	33.38
831.953	32.58
832.126	31.04
832.3	30.17
832.473	30.18
832.647	30
832.82	30.18
832.994	29.69
833.167	29.46
833.34	30.19
833.514	30.29
833.687	30.64
833.86	31.09
834.034	32.34
834.207	32.68
834.38	32.59
834.553	32.79
834.727	32.48
834.9	32.57
835.073	32.55
835.246	32.63
835.419	32.25
835.593	31.4
835.766	31.9
835.939	31.38
836.112	31.16
836.285	31.76
836.458	31.85
836.631	32.47
836.804	33
836.977	33.77
837.15	32.8
837.323	33.59
837.496	35.17
837.669	32.99
837.842	32.72
838.015	31.43
838.188	30.13
838.361	27.8
838.533	27.31
838.706	28.27
838.879	26.21
839.052	27.31
839.225	27.64
839.398	27.1
839.57	29.17
839.743	28.04
839.916	29.44
840.088	30.98
840.261	32.47
840.434	31.78
840.607	30.69
840.779	32.95
840.952	32.37
841.124	31.93
841.297	32.07
841.47	31.31
841.642	33.13
841.815	34.36
841.987	34.68
842.16	33.89
842.332	36.23
842.505	36.04
842.677	36.92
842.85	37.52
843.022	36.08
843.194	36.55
843.367	37.02
843.539	38.85
843.712	36.77
843.884	35.5
844.056	36.59
844.229	34.42
844.401	35.9
844.573	34.09
844.745	37.14
844.918	38.34
845.09	38.51
845.262	37.41
845.434	31.45
845.606	34.44
845.779	34.62
845.951	36.27
846.123	35.77
846.295	34.61
846.467	31.53
846.639	29.04
846.811	30.69
846.983	29.64
847.155	28.11
847.327	32.22
847.499	31.37
847.671	28.59
847.843	24.71
848.015	25.79
848.187	30.11
848.359	36.12
848.531	32.64
848.703	32.34
848.875	34.11
849.047	36.46
849.218	33.43
849.39	33.36
849.562	36.89
849.734	37.64
849.905	38.85
850.077	36.39
850.249	34.12
850.421	36.8
850.592	37.95
850.764	37.62
850.936	37.47
851.107	40.74
851.279	38.95
851.451	39.22
851.622	42.84
851.794	40
851.965	41.21
852.137	38.3
852.308	38.45
852.48	38.09
852.651	38.28
852.823	37.55
852.994	37.11
853.166	40.29
853.337	39.09
853.509	35.3
853.68	35.98
853.851	37.99
854.023	41.72
854.194	45.63
854.365	45.87
854.537	46.8
854.708	48.15
854.879	49.28
855.05	46.46
855.222	45.43
855.393	47.77
855.564	46.52
855.735	41.55
855.906	39.77
856.078	35.45
856.249	29.91
856.42	28.6
856.591	23.8
856.762	21.33
856.933	22.1
857.104	23.39
857.275	19.31
857.446	18.92
857.617	25.55
857.788	28.86
857.959	26.25
858.13	28.71
858.301	24.1
858.472	30.19
858.643	29.48
858.814	30.46
858.985	30.77
859.155	29.22
859.326	29.83
859.497	24.99
859.668	20.82
859.839	22.01
860.009	24.69
860.18	30.47
860.351	29.6
860.522	32.25
860.692	28.76
860.863	22.88
861.034	27.32
861.204	25.99
861.375	27.25
861.546	30.59
861.716	27.65
861.887	27.39
862.057	26.74
862.228	27.22
862.398	23.79
862.569	27.01
862.739	33.07
862.91	29.35
863.08	30.63
863.251	27.89
863.421	28.42
863.592	32.02
863.762	39.15
863.932	36.82
864.103	41.36
864.273	45.07
864.443	42.91
864.614	36.58
864.784	36.9
864.954	36.56
865.125	41.54
865.295	41.03
865.465	40.49
865.635	33.38
865.805	35.56
865.976	29.41
866.146	26.16
866.316	25.09
866.486	29.42
866.656	30.44
866.826	34.87
866.996	30.32
867.166	30.07
867.336	33.15
867.506	35.93
867.676	36.06
867.846	36.67
868.016	30.84
868.186	36.45
868.356	35.86
868.526	38.6
868.696	37.17
868.866	39.42
869.036	41.27
869.206	36.44
869.376	31.09
869.545	26.33
869.715	27.22
869.885	33.94
870.055	33.64
870.224	32.61
870.394	31.7
870.564	30.7
870.734	29.95
870.903	26.74
871.073	29.74
871.243	31.32
871.412	33.84
871.582	37.92
871.751	40.39
871.921	36.44
872.091	38.76
872.26	38.4
872.43	36.42
872.599	39.65
872.769	40.89
872.938	41.58
873.108	42.91
873.277	48.37
873.446	46.26
873.616	43.09
873.785	46.29
873.955	47.84
874.124	48.58
874.293	51.16
874.463	47.79
874.632	47.87
874.801	45.67
874.971	41.66
875.14	40.76
875.309	40.97
875.478	39.97
875.647	36.25
875.817	36.76
875.986	33.19
876.155	27.25
876.324	26.13
876.493	26.72
876.662	25.41
876.831	27.84
877	22.84
877.17	22.15
877.339	19.64
877.508	24.12
877.677	22.51
877.846	25.75
878.015	27.62
878.184	30.9
878.352	30.38
878.521	30.8
878.69	31.48
878.859	36.11
879.028	35.6
879.197	37.79
879.366	37.99
879.534	40.2
879.703	40.29
879.872	38.7
880.041	35.87
880.21	35.36
880.378	35.18
880.547	33.33
880.716	31.8
880.884	31.35
881.053	30.21
881.222	29.66
881.39	28.02
881.559	27.17
881.727	27.29
881.896	26.87
882.065	26.39
882.233	26.35
882.402	26.56
882.57	26.54
882.739	26.11
882.907	25.96
883.076	25.29
883.244	25.44
883.412	26.13
883.581	26.38
883.749	26.77
883.918	27.55
884.086	27.26
884.254	27.87
884.423	27.26
884.591	27.62
884.759	27.86
884.927	27.8
885.096	28.88
885.264	28.93
885.432	29.44
885.6	30.39
885.769	29.21
885.937	29.75
886.105	28.65
886.273	28.21
886.441	27
886.609	26.64
886.777	29.54
886.945	25.89
887.113	25.83
887.281	23.53
887.449	22.63
887.617	25.28
887.785	24.06
887.953	23.51
888.121	27.2
888.289	28.2
888.457	31.92
888.625	29.93
888.793	34.72
888.961	30.91
889.129	33.1
889.296	31.13
889.464	28.23
889.632	30.94
889.8	31.18
889.967	26.9
890.135	29.34
