Data from 2938762__Reflection_01.txt Node
Date: Fri Mar 13 16:52:31 EDT 2015
User: robert
Spectrometer: USB4E03002
Autoset integration time: false
Trigger mode: 4
Integration Time (sec): 1.000000E-1
Scans to average: 10
Electric dark correction enabled: false
Nonlinearity correction enabled: false
Boxcar width: 5
Stray light correction enabled: false
XAxis mode: Wavelengths
Stop averaging: false
Number of Pixels in Spectrum: 3648
>>>>>Begin Spectral Data<<<<<
177.575	-1268.75
177.794	-6276.92
178.014	-1164.1
178.233	-587.01
178.452	-471.1
178.672	-394.96
178.891	-236.25
179.11	-178.54
179.33	-236.56
179.549	-422.67
179.768	-306.46
179.987	-327.48
180.207	-224.15
180.426	-214.79
180.645	-902.22
180.864	-3442.86
181.084	940.45
181.303	816.09
181.522	328.32
181.741	591.78
181.96	785.11
182.179	453.54
182.398	425.62
182.618	408.76
182.837	274.54
183.056	329.81
183.275	358.33
183.494	241.18
183.713	237.81
183.932	178.5
184.151	155.76
184.37	153.04
184.589	120.65
184.808	130.14
185.027	119.67
185.246	123.99
185.465	114.93
185.684	133.33
185.903	205.69
186.122	200.49
186.341	351.83
186.56	1531.91
186.779	584.68
186.998	-293.16
187.216	-972.73
187.435	637.3
187.654	-5060
187.873	-592
188.092	18333.33
188.311	1021.57
188.53	469.33
188.748	455.56
188.967	420.9
189.186	457.19
189.405	314.05
189.623	390.31
189.842	492.72
190.061	819.61
190.28	435.69
190.498	513.76
190.717	432.64
190.936	541.08
191.154	494.32
191.373	507.08
191.592	499.62
191.81	494.96
192.029	820.67
192.248	1030.77
192.466	330.14
192.685	303.58
192.904	361.95
193.122	395.14
193.341	547.66
193.559	1119.59
193.778	1451.43
193.996	3403.7
194.215	-2331.71
194.433	3110.34
194.652	-1404.23
194.87	-565.22
195.089	-6331.58
195.307	2271.43
195.526	-6635.29
195.744	1195.05
195.963	589.47
196.181	417.53
196.399	403.47
196.618	370.59
196.836	384.18
197.055	343.6
197.273	292.01
197.491	359.82
197.71	249.33
197.928	217.25
198.146	238.88
198.365	209.05
198.583	222.36
198.801	187.04
199.019	201.87
199.238	225.3
199.456	179.64
199.674	198.02
199.892	193.57
200.111	247.73
200.329	262.68
200.547	287.96
200.765	410.27
200.983	460.06
201.202	489.94
201.42	453.44
201.638	308.02
201.856	473.9
202.074	331.41
202.292	394.56
202.51	303.23
202.728	360.05
202.946	254.34
203.165	234.38
203.383	232.91
203.601	227.39
203.819	289.37
204.037	373.87
204.255	347.06
204.473	376.9
204.691	296.21
204.909	254.37
205.127	226.67
205.345	280.11
205.562	337.73
205.78	267.81
205.998	283.66
206.216	389.27
206.434	266.67
206.652	259.55
206.87	483.19
207.088	379.78
207.306	1312.7
207.523	848.7
207.741	737.12
207.959	482.72
208.177	817.36
208.395	329.12
208.612	190.79
208.83	218.61
209.048	247.03
209.266	224.72
209.483	235.9
209.701	225.51
209.919	239.31
210.136	210.5
210.354	235.47
210.572	199.71
210.79	224.49
211.007	232.46
211.225	226.66
211.442	247.03
211.66	218.82
211.878	166.21
212.095	168.7
212.313	125.64
212.53	129.6
212.748	111.29
212.966	135.37
213.183	143.92
213.401	140.51
213.618	109.82
213.836	98.34
214.053	111.6
214.271	158.8
214.488	173.8
214.705	247.98
214.923	241.48
215.14	317.81
215.358	293.51
215.575	204.95
215.793	188.82
216.01	224.46
216.227	236.17
216.445	185.92
216.662	149.11
216.879	133.62
217.097	113.36
217.314	112.57
217.531	97.12
217.749	92.13
217.966	95.84
218.183	86.71
218.4	82.21
218.618	73.6
218.835	75.42
219.052	81.55
219.269	77.21
219.487	88.07
219.704	74.64
219.921	82.08
220.138	83.3
220.355	77.23
220.572	72.28
220.79	81.49
221.007	90.82
221.224	82.03
221.441	82.04
221.658	80.56
221.875	82.86
222.092	86.32
222.309	86.89
222.526	78.33
222.743	74.92
222.96	69.62
223.177	61.06
223.394	54.19
223.611	51.29
223.828	48.94
224.045	46.02
224.262	40.83
224.479	36.27
224.696	29.27
224.913	29.97
225.13	28.53
225.347	32.8
225.564	29.79
225.781	28.38
225.997	24.76
226.214	25.35
226.431	25.63
226.648	19.9
226.865	19.89
227.082	19.39
227.298	17.43
227.515	15.81
227.732	14.29
227.949	13.2
228.165	12.54
228.382	12.27
228.599	10.36
228.816	9.68
229.032	9.59
229.249	9.19
229.466	8.53
229.682	8.71
229.899	9.25
230.116	7.8
230.332	8.38
230.549	7.88
230.765	8.06
230.982	9.18
231.199	9.87
231.415	11.41
231.632	11.89
231.848	13.33
232.065	14.16
232.281	14.35
232.498	16.63
232.714	15.82
232.931	16.47
233.147	17.46
233.364	16.23
233.58	13.68
233.797	13.04
234.013	12.29
234.23	11.96
234.446	10.77
234.662	12.2
234.879	11.23
235.095	10.33
235.312	11.71
235.528	9.29
235.744	9.37
235.961	10.81
236.177	11.38
236.393	13.48
236.61	11.25
236.826	12.67
237.042	12.58
237.258	13.61
237.475	16.69
237.691	16.48
237.907	16.34
238.123	17.44
238.339	16.75
238.556	16.73
238.772	15.29
238.988	15.49
239.204	14.48
239.42	12.45
239.636	11.04
239.853	8.76
240.069	8.67
240.285	8.56
240.501	7.31
240.717	7.58
240.933	7.38
241.149	6.31
241.365	6.69
241.581	6.07
241.797	5.54
242.013	5.75
242.229	5.6
242.445	5.22
242.661	5.63
242.877	5.94
243.093	5.5
243.309	4.98
243.525	5.32
243.741	6.2
243.957	6.76
244.173	7.28
244.388	7.52
244.604	7.8
244.82	7.91
245.036	7.9
245.252	7.77
245.468	7.33
245.683	7.1
245.899	6.53
246.115	5.62
246.331	5.47
246.547	5.3
246.762	4.78
246.978	5.07
247.194	4.67
247.409	4.64
247.625	4.42
247.841	4.91
248.057	4.87
248.272	4.95
248.488	4.97
248.703	4.94
248.919	5.11
249.135	5.45
249.35	5.22
249.566	5.81
249.782	5.27
249.997	5.21
250.213	5.22
250.428	5
250.644	6.08
250.859	5.45
251.075	5.02
251.29	4.94
251.506	4.45
251.721	4.14
251.937	4.04
252.152	4.94
252.368	4.93
252.583	4.56
252.798	5.28
253.014	5.22
253.229	6.89
253.445	7.45
253.66	8.59
253.875	9.18
254.091	9.72
254.306	10.01
254.521	10.16
254.737	11.16
254.952	10.65
255.167	10.96
255.383	9.53
255.598	7.8
255.813	7.25
256.028	6.51
256.244	6.1
256.459	5.46
256.674	4.58
256.889	4.72
257.104	4.73
257.32	4.87
257.535	3.98
257.75	3.65
257.965	3.42
258.18	3.17
258.395	3.07
258.61	3
258.826	3.27
259.041	3.24
259.256	3.19
259.471	2.94
259.686	3
259.901	3.03
260.116	3.34
260.331	3.2
260.546	3.37
260.761	3.13
260.976	3.19
261.191	3.08
261.406	3.84
261.621	4.01
261.836	4.01
262.05	4.03
262.265	4.12
262.48	4.05
262.695	4.48
262.91	4.91
263.125	5.43
263.34	5.98
263.555	6.49
263.769	5.72
263.984	5.02
264.199	5.37
264.414	5.53
264.629	5.4
264.843	5.97
265.058	6.53
265.273	6.78
265.488	6.58
265.702	6.97
265.917	7.13
266.132	7.11
266.346	7.01
266.561	6.73
266.776	6.74
266.99	6.95
267.205	6.4
267.42	5.46
267.634	5.35
267.849	5.39
268.063	5.03
268.278	4.16
268.492	3.98
268.707	3.78
268.922	3.77
269.136	3.82
269.351	3.75
269.565	3.82
269.78	4.14
269.994	3.8
270.209	3.85
270.423	3.68
270.637	3.95
270.852	4
271.066	3.87
271.281	3.66
271.495	3.41
271.709	3.19
271.924	3.08
272.138	3.44
272.353	3.45
272.567	3.36
272.781	3.84
272.996	3.45
273.21	3.75
273.424	4.3
273.638	4.52
273.853	4.53
274.067	5.05
274.281	5.2
274.495	4.99
274.71	4.6
274.924	4.49
275.138	4.03
275.352	4.43
275.566	3.92
275.781	3.55
275.995	3.49
276.209	3.86
276.423	3.91
276.637	4.26
276.851	4.45
277.065	4.46
277.279	4.19
277.493	3.79
277.707	4.04
277.921	3.84
278.135	4.08
278.349	4.19
278.563	4.64
278.777	4.58
278.991	4.4
279.205	4.34
279.419	4.19
279.633	4.65
279.847	5.09
280.061	5.3
280.275	5.6
280.489	5.66
280.703	5.71
280.917	4.87
281.131	4.51
281.344	4.42
281.558	4.18
281.772	4.53
281.986	4.27
282.2	4.25
282.414	4.03
282.627	3.9
282.841	3.81
283.055	3.72
283.269	3.84
283.482	3.44
283.696	3.5
283.91	3.58
284.123	3.35
284.337	3.16
284.551	3.07
284.764	2.78
284.978	2.99
285.192	2.88
285.405	3.18
285.619	3.04
285.833	3.32
286.046	3.13
286.26	2.84
286.473	2.94
286.687	3.15
286.9	3.36
287.114	3.79
287.327	3.48
287.541	3.43
287.754	3.06
287.968	3.58
288.181	3.52
288.395	3.35
288.608	3.81
288.822	3.82
289.035	3.66
289.248	3.45
289.462	3.09
289.675	3.05
289.889	3.28
290.102	3.09
290.315	2.46
290.529	2.51
290.742	2.79
290.955	2.64
291.169	2.63
291.382	2.59
291.595	2.34
291.808	2.64
292.022	2.97
292.235	2.77
292.448	2.95
292.661	2.92
292.875	2.88
293.088	2.77
293.301	2.76
293.514	2.75
293.727	2.75
293.94	2.83
294.153	3.06
294.367	2.57
294.58	2.9
294.793	2.83
295.006	3.11
295.219	2.96
295.432	2.74
295.645	2.65
295.858	2.89
296.071	2.75
296.284	3
296.497	2.8
296.71	2.94
296.923	2.62
297.136	2.82
297.349	2.9
297.562	3.01
297.775	3.15
297.988	3.31
298.201	3.06
298.414	3.43
298.626	3.1
298.839	3.01
299.052	3.07
299.265	3.16
299.478	3.21
299.691	3.37
299.903	3.47
300.116	3.47
300.329	3.37
300.542	3.36
300.755	3.08
300.967	3.1
301.18	2.99
301.393	3.38
301.605	3.21
301.818	2.8
302.031	2.18
302.243	2.28
302.456	2.29
302.669	2.28
302.881	2.46
303.094	2.78
303.307	2.93
303.519	2.94
303.732	2.9
303.944	3.04
304.157	3.39
304.37	3.9
304.582	3.6
304.795	3.79
305.007	4.19
305.22	4.45
305.432	4.18
305.645	4.35
305.857	4.66
306.069	4.4
306.282	4.6
306.494	4.75
306.707	4.9
306.919	5.07
307.132	4.86
307.344	4.53
307.556	4.17
307.769	4.49
307.981	4.38
308.193	4.03
308.406	3.87
308.618	3.91
308.83	3.75
309.043	3.33
309.255	3.33
309.467	3.25
309.679	3.3
309.892	3.41
310.104	3.43
310.316	3.56
310.528	3.63
310.74	3.84
310.953	3.78
311.165	3.81
311.377	4
311.589	3.92
311.801	4.28
312.013	4.15
312.225	4.24
312.437	4.25
312.649	4.08
312.862	4.26
313.074	4.2
313.286	4.29
313.498	4.41
313.71	4.38
313.922	5.01
314.134	4.5
314.346	5.05
314.558	4.81
314.77	4.96
314.982	4.8
315.193	4.64
315.405	4.44
315.617	4.17
315.829	4.36
316.041	4.85
316.253	4.01
316.465	4.56
316.677	4.28
316.888	4.37
317.1	4.4
317.312	4.59
317.524	4.4
317.736	4.47
317.947	4.71
318.159	4.79
318.371	4.51
318.583	5.45
318.794	5.27
319.006	5.2
319.218	5.37
319.43	4.9
319.641	5.38
319.853	5.78
320.064	6.47
320.276	7.07
320.488	6.36
320.699	6.15
320.911	5.82
321.123	5.98
321.334	6.21
321.546	6.6
321.757	7.28
321.969	7.31
322.18	7.66
322.392	7.27
322.603	6.82
322.815	7.7
323.026	7.98
323.238	7.56
323.449	7.83
323.661	7.74
323.872	7.67
324.083	7.64
324.295	7.95
324.506	7.63
324.718	7.71
324.929	7.81
325.14	7.68
325.352	7.85
325.563	8.36
325.774	8.73
325.986	8.81
326.197	8.99
326.408	9.22
326.62	8.97
326.831	9.62
327.042	10.14
327.253	10.35
327.464	10.33
327.676	10.57
327.887	11.03
328.098	11.08
328.309	11.62
328.52	11.76
328.732	11.75
328.943	12.59
329.154	12.21
329.365	12.27
329.576	12.75
329.787	13.28
329.998	13.63
330.209	13.73
330.42	14.06
330.631	14.16
330.842	14.32
331.053	14.79
331.264	14.7
331.475	15.31
331.686	15.78
331.897	15.9
332.108	16.06
332.319	16.22
332.53	16.3
332.741	16.41
332.952	16.82
333.163	16.92
333.374	17.22
333.585	17.39
333.795	17.87
334.006	17.95
334.217	18.23
334.428	18.54
334.639	18.5
334.849	18.76
335.06	18.86
335.271	18.91
335.482	19.18
335.692	19.29
335.903	19.19
336.114	19.12
336.325	19.09
336.535	19.09
336.746	19.08
336.957	19.28
337.167	19.4
337.378	19.6
337.589	19.36
337.799	19.64
338.01	19.53
338.22	19.8
338.431	19.58
338.642	20.07
338.852	20.14
339.063	20.16
339.273	20.57
339.484	20.49
339.694	20.57
339.905	20.87
340.115	20.87
340.326	20.79
340.536	20.72
340.746	21.06
340.957	21
341.167	21.13
341.378	21.31
341.588	20.86
341.799	20.9
342.009	20.53
342.219	20.68
342.43	20.48
342.64	20.57
342.85	20.5
343.061	20.36
343.271	19.91
343.481	19.66
343.691	19.64
343.902	19.79
344.112	19.81
344.322	19.97
344.532	19.77
344.743	19.83
344.953	19.59
345.163	19.64
345.373	19.68
345.583	20.07
345.793	20.1
346.004	20.02
346.214	19.98
346.424	19.94
346.634	19.99
346.844	20.12
347.054	19.99
347.264	20.26
347.474	20.33
347.684	20.27
347.894	19.99
348.104	20.03
348.314	20.08
348.524	19.9
348.734	19.85
348.944	19.67
349.154	19.51
349.364	19.42
349.574	19.38
349.784	19.31
349.994	18.97
350.204	19.14
350.413	19.04
350.623	18.82
350.833	19.04
351.043	19.06
351.253	19.02
351.463	18.79
351.672	18.88
351.882	18.78
352.092	18.84
352.302	19.2
352.511	18.8
352.721	18.87
352.931	19.06
353.141	18.9
353.35	18.91
353.56	19.06
353.77	19.52
353.979	19.76
354.189	19.73
354.399	19.81
354.608	19.84
354.818	20.06
355.027	19.97
355.237	19.96
355.447	20.01
355.656	19.77
355.866	19.67
356.075	19.23
356.285	19.15
356.494	19.15
356.704	18.87
356.913	18.72
357.123	18.56
357.332	18.21
357.542	18.17
357.751	18.04
357.96	18.07
358.17	17.77
358.379	18
358.589	17.76
358.798	17.7
359.007	17.65
359.217	17.85
359.426	17.8
359.635	18.12
359.845	18
360.054	18.01
360.263	18.07
360.472	18.31
360.682	18.28
360.891	18.14
361.1	18.11
361.309	18.06
361.519	17.84
361.728	17.8
361.937	17.59
362.146	17.57
362.355	17.55
362.564	17.56
362.774	17.59
362.983	17.39
363.192	17.43
363.401	17.37
363.61	17.36
363.819	17.58
364.028	17.6
364.237	17.82
364.446	17.91
364.655	17.97
364.864	18.13
365.073	17.99
365.282	18.16
365.491	18.35
365.7	18.59
365.909	18.66
366.118	18.33
366.327	18.01
366.536	18.05
366.745	17.91
366.954	17.93
367.162	17.8
367.371	17.83
367.58	17.91
367.789	17.73
367.998	17.56
368.207	17.59
368.415	17.42
368.624	17.84
368.833	17.48
369.042	17.6
369.25	17.52
369.459	17.48
369.668	17.51
369.877	17.43
370.085	17.34
370.294	17.41
370.503	17.39
370.711	17.52
370.92	17.3
371.129	17.73
371.337	17.54
371.546	17.66
371.754	17.47
371.963	17.41
372.171	17.2
372.38	17.28
372.589	17.23
372.797	17.4
373.006	17.3
373.214	17.47
373.423	17.57
373.631	17.67
373.84	17.47
374.048	17.74
374.256	17.76
374.465	17.83
374.673	17.98
374.882	18.1
375.09	18.03
375.298	18.12
375.507	18.03
375.715	17.81
375.923	17.7
376.132	17.71
376.34	17.48
376.548	17.43
376.757	17.33
376.965	17.34
377.173	16.98
377.381	16.88
377.59	17.1
377.798	17.14
378.006	17.12
378.214	17.08
378.423	17.14
378.631	17.17
378.839	17.1
379.047	17.35
379.255	17.4
379.463	17.59
379.671	17.48
379.879	17.46
380.088	17.42
380.296	17.29
380.504	17.42
380.712	17.38
380.92	17.45
381.128	17.57
381.336	17.53
381.544	17.49
381.752	17.47
381.96	17.58
382.168	17.53
382.376	17.49
382.584	17.61
382.791	17.57
382.999	17.67
383.207	17.76
383.415	17.8
383.623	17.66
383.831	17.47
384.039	17.63
384.247	17.55
384.454	17.64
384.662	17.55
384.87	17.31
385.078	17.26
385.285	17.03
385.493	16.83
385.701	16.68
385.909	16.72
386.116	16.87
386.324	16.69
386.532	16.55
386.739	16.4
386.947	16.55
387.155	16.64
387.362	16.73
387.57	16.76
387.778	16.76
387.985	16.88
388.193	16.8
388.4	16.7
388.608	16.76
388.816	16.73
389.023	16.73
389.231	16.76
389.438	16.78
389.646	16.75
389.853	16.68
390.061	16.8
390.268	16.62
390.475	16.89
390.683	17.01
390.89	16.83
391.098	16.99
391.305	16.89
391.512	17.01
391.72	17.12
391.927	16.98
392.135	17.04
392.342	16.97
392.549	17.26
392.756	17
392.964	16.87
393.171	17.01
393.378	17.04
393.586	17.12
393.793	16.95
394	16.99
394.207	17.34
394.414	17.34
394.622	17.29
394.829	17.21
395.036	17.24
395.243	17.23
395.45	17.06
395.657	17.19
395.864	17.37
396.072	17.35
396.279	17.18
396.486	17.01
396.693	16.99
396.9	17.18
397.107	17.19
397.314	17.24
397.521	17.17
397.728	17.44
397.935	17.47
398.142	17.34
398.349	17.44
398.556	17.4
398.763	17.53
398.97	17.59
399.177	17.65
399.383	17.48
399.59	17.59
399.797	17.62
400.004	17.51
400.211	17.18
400.418	17.15
400.625	17.04
400.831	17.14
401.038	17.01
401.245	17.03
401.452	16.83
401.658	17.01
401.865	17.09
402.072	17.24
402.279	17.35
402.485	17.45
402.692	17.7
402.899	17.74
403.105	17.78
403.312	17.87
403.519	17.93
403.725	17.96
403.932	17.82
404.138	17.79
404.345	17.81
404.552	17.79
404.758	17.88
404.965	17.62
405.171	17.62
405.378	17.58
405.584	17.68
405.791	17.7
405.997	17.73
406.204	17.79
406.41	17.73
406.617	17.74
406.823	17.71
407.029	17.76
407.236	17.76
407.442	17.86
407.649	18.11
407.855	17.85
408.061	17.97
408.268	18.03
408.474	18.08
408.68	18.08
408.887	18.12
409.093	18.1
409.299	18.22
409.505	18.26
409.712	18.26
409.918	18.23
410.124	18.28
410.33	18.1
410.537	18.01
410.743	18.09
410.949	18.14
411.155	18.04
411.361	18.09
411.567	17.93
411.773	18.1
411.98	18.04
412.186	17.98
412.392	17.96
412.598	17.88
412.804	17.97
413.01	17.86
413.216	17.91
413.422	18.01
413.628	17.93
413.834	18.11
414.04	18
414.246	18.01
414.452	17.95
414.658	18.05
414.864	18.22
415.07	18.33
415.275	18.4
415.481	18.42
415.687	18.31
415.893	18.31
416.099	18.27
416.305	18.21
416.511	18.18
416.716	17.98
416.922	17.83
417.128	17.79
417.334	17.66
417.539	17.63
417.745	17.65
417.951	17.7
418.157	17.73
418.362	17.66
418.568	17.72
418.774	17.78
418.979	17.9
419.185	17.91
419.391	17.84
419.596	17.85
419.802	17.93
420.008	17.82
420.213	17.78
420.419	17.81
420.624	17.77
420.83	17.73
421.035	17.72
421.241	17.71
421.446	17.73
421.652	17.77
421.857	17.78
422.063	17.72
422.268	17.82
422.474	17.84
422.679	17.77
422.885	17.73
423.09	17.75
423.295	17.68
423.501	17.67
423.706	17.77
423.911	17.77
424.117	17.76
424.322	17.75
424.527	17.69
424.733	17.72
424.938	17.74
425.143	17.77
425.349	17.84
425.554	17.83
425.759	17.86
425.964	17.76
426.169	17.89
426.375	17.91
426.58	17.89
426.785	17.87
426.99	17.9
427.195	17.91
427.4	18.03
427.605	17.89
427.811	17.94
428.016	18.06
428.221	18.18
428.426	18.06
428.631	18.11
428.836	18.13
429.041	18.14
429.246	18.08
429.451	18.13
429.656	18.17
429.861	18.22
430.066	18.29
430.271	18.25
430.476	18.2
430.681	18.16
430.886	18.17
431.09	18.31
431.295	18.34
431.5	18.41
431.705	18.48
431.91	18.52
432.115	18.71
432.32	18.67
432.524	18.59
432.729	18.64
432.934	18.73
433.139	18.89
433.343	18.87
433.548	19.21
433.753	19.45
433.958	19.85
434.162	20.21
434.367	20.45
434.572	20.82
434.776	21.32
434.981	21.73
435.186	22.11
435.39	22.39
435.595	22.7
435.799	22.46
436.004	22.4
436.209	22.09
436.413	21.81
436.618	21.48
436.822	21.21
437.027	20.9
437.231	20.46
437.436	20.01
437.64	19.66
437.845	19.43
438.049	19.36
438.253	19.2
438.458	19.08
438.662	18.91
438.867	18.88
439.071	18.83
439.275	18.65
439.48	18.69
439.684	18.77
439.888	18.69
440.093	18.57
440.297	18.61
440.501	18.63
440.706	18.56
440.91	18.58
441.114	18.6
441.318	18.61
441.523	18.69
441.727	18.68
441.931	18.68
442.135	18.79
442.339	18.88
442.543	18.87
442.748	18.8
442.952	19
443.156	19.06
443.36	19.02
443.564	19.01
443.768	19.04
443.972	19.02
444.176	19.03
444.38	19.02
444.584	19
444.788	18.88
444.992	18.94
445.196	18.81
445.4	18.66
445.604	18.6
445.808	18.64
446.012	18.62
446.216	18.64
446.42	18.61
446.624	18.59
446.828	18.51
447.032	18.67
447.235	18.6
447.439	18.64
447.643	18.72
447.847	18.76
448.051	18.75
448.254	18.82
448.458	18.81
448.662	18.81
448.866	18.85
449.069	18.98
449.273	18.92
449.477	18.98
449.681	18.98
449.884	19.04
450.088	19.04
450.292	18.99
450.495	18.83
450.699	18.88
450.902	18.93
451.106	18.88
451.31	18.85
451.513	18.91
451.717	19
451.92	19
452.124	18.99
452.327	19.06
452.531	19.12
452.734	19.3
452.938	19.28
453.141	19.33
453.345	19.32
453.548	19.32
453.752	19.32
453.955	19.29
454.158	19.4
454.362	19.43
454.565	19.47
454.769	19.47
454.972	19.35
455.175	19.47
455.379	19.39
455.582	19.45
455.785	19.57
455.988	19.55
456.192	19.57
456.395	19.43
456.598	19.47
456.801	19.4
457.005	19.5
457.208	19.64
457.411	19.59
457.614	19.66
457.817	19.59
458.021	19.46
458.224	19.43
458.427	19.35
458.63	19.34
458.833	19.26
459.036	19.24
459.239	19.1
459.442	18.98
459.645	18.91
459.848	18.89
460.051	18.89
460.254	18.91
460.457	18.88
460.66	18.87
460.863	18.93
461.066	18.9
461.269	18.94
461.472	19.08
461.675	19.2
461.878	19.23
462.081	19.17
462.284	19.16
462.486	19.2
462.689	19.32
462.892	19.39
463.095	19.39
463.298	19.44
463.5	19.43
463.703	19.45
463.906	19.41
464.109	19.42
464.311	19.47
464.514	19.43
464.717	19.36
464.92	19.27
465.122	19.42
465.325	19.43
465.528	19.55
465.73	19.59
465.933	19.46
466.135	19.49
466.338	19.48
466.541	19.51
466.743	19.64
466.946	19.78
467.148	19.85
467.351	19.78
467.553	19.74
467.756	19.75
467.958	19.73
468.161	19.7
468.363	19.67
468.566	19.71
468.768	19.78
468.971	19.73
469.173	19.73
469.375	19.65
469.578	19.6
469.78	19.64
469.983	19.64
470.185	19.73
470.387	19.84
470.59	19.87
470.792	19.9
470.994	19.91
471.196	20
471.399	20.01
471.601	20.05
471.803	20.1
472.005	20.04
472.208	20
472.41	19.99
472.612	19.97
472.814	20.01
473.016	19.98
473.218	19.92
473.421	19.77
473.623	19.72
473.825	19.67
474.027	19.72
474.229	19.82
474.431	19.82
474.633	19.9
474.835	19.89
475.037	19.9
475.239	19.98
475.441	19.83
475.643	20.05
475.845	19.99
476.047	20.01
476.249	19.92
476.451	19.92
476.653	19.92
476.855	19.78
477.057	19.86
477.258	19.81
477.46	19.7
477.662	19.88
477.864	19.78
478.066	19.76
478.268	19.82
478.469	19.82
478.671	19.8
478.873	19.73
479.075	19.76
479.276	19.69
479.478	19.74
479.68	19.82
479.882	19.84
480.083	19.85
480.285	19.88
480.487	19.79
480.688	19.76
480.89	19.71
481.091	19.84
481.293	19.82
481.495	19.81
481.696	19.73
481.898	19.66
482.099	19.59
482.301	19.59
482.502	19.53
482.704	19.49
482.905	19.47
483.107	19.44
483.308	19.39
483.51	19.35
483.711	19.31
483.913	19.32
484.114	19.3
484.315	19.3
484.517	19.25
484.718	19.28
484.92	19.33
485.121	19.35
485.322	19.42
485.524	19.47
485.725	19.54
485.926	19.62
486.127	19.67
486.329	19.78
486.53	19.79
486.731	19.83
486.932	19.85
487.134	19.81
487.335	19.84
487.536	19.79
487.737	19.78
487.938	19.78
488.139	19.79
488.341	19.78
488.542	19.75
488.743	19.82
488.944	19.87
489.145	19.9
489.346	20.01
489.547	20.02
489.748	20.12
489.949	20.12
490.15	20.11
490.351	20.11
490.552	20.08
490.753	20.03
490.954	20
491.155	19.94
491.356	19.95
491.557	19.91
491.758	19.89
491.959	19.81
492.159	19.84
492.36	19.83
492.561	19.85
492.762	19.9
492.963	19.97
493.164	19.99
493.364	20.07
493.565	20.07
493.766	20.17
493.967	20.3
494.167	20.42
494.368	20.58
494.569	20.64
494.769	20.71
494.97	20.79
495.171	20.86
495.371	20.88
495.572	20.97
495.773	20.98
495.973	20.91
496.174	20.89
496.375	20.83
496.575	20.69
496.776	20.75
496.976	20.74
497.177	20.68
497.377	20.67
497.578	20.69
497.778	20.68
497.979	20.67
498.179	20.73
498.38	20.73
498.58	20.89
498.78	20.87
498.981	20.79
499.181	20.8
499.382	20.83
499.582	20.9
499.782	20.95
499.983	20.97
500.183	20.99
500.383	20.96
500.584	20.95
500.784	20.94
500.984	21.02
501.184	21.16
501.385	21.19
501.585	21.13
501.785	21.06
501.985	21.03
502.185	21.08
502.386	21.23
502.586	21.24
502.786	21.27
502.986	21.22
503.186	21.29
503.386	21.27
503.586	21.18
503.786	21.28
503.987	21.36
504.187	21.42
504.387	21.36
504.587	21.26
504.787	21.24
504.987	21.27
505.187	21.25
505.387	21.17
505.587	21.18
505.786	21.28
505.986	21.3
506.186	21.26
506.386	21.2
506.586	21.23
506.786	21.24
506.986	21.35
507.186	21.33
507.386	21.4
507.585	21.43
507.785	21.44
507.985	21.37
508.185	21.37
508.384	21.42
508.584	21.39
508.784	21.4
508.984	21.38
509.183	21.3
509.383	21.31
509.583	21.26
509.782	21.31
509.982	21.3
510.182	21.37
510.381	21.36
510.581	21.25
510.781	21.27
510.98	21.22
511.18	21.32
511.379	21.38
511.579	21.38
511.778	21.43
511.978	21.41
512.177	21.42
512.377	21.47
512.576	21.45
512.776	21.54
512.975	21.51
513.175	21.53
513.374	21.51
513.573	21.52
513.773	21.6
513.972	21.63
514.172	21.63
514.371	21.67
514.57	21.56
514.77	21.55
514.969	21.53
515.168	21.6
515.367	21.59
515.567	21.56
515.766	21.58
515.965	21.57
516.164	21.5
516.364	21.46
516.563	21.48
516.762	21.51
516.961	21.55
517.16	21.52
517.359	21.45
517.559	21.44
517.758	21.45
517.957	21.4
518.156	21.35
518.355	21.39
518.554	21.51
518.753	21.5
518.952	21.46
519.151	21.5
519.35	21.59
519.549	21.66
519.748	21.7
519.947	21.68
520.146	21.74
520.345	21.72
520.544	21.79
520.743	21.7
520.942	21.69
521.141	21.85
521.339	21.91
521.538	21.96
521.737	22.05
521.936	22.25
522.135	22.26
522.333	22.4
522.532	22.51
522.731	22.48
522.93	22.59
523.129	22.65
523.327	22.61
523.526	22.58
523.725	22.52
523.923	22.48
524.122	22.33
524.321	22.34
524.519	22.16
524.718	22.15
524.917	22.11
525.115	22.05
525.314	21.97
525.512	21.94
525.711	21.92
525.909	21.87
526.108	21.85
526.306	21.79
526.505	21.81
526.703	21.78
526.902	21.76
527.1	21.75
527.299	21.72
527.497	21.73
527.696	21.7
527.894	21.68
528.092	21.64
528.291	21.63
528.489	21.66
528.688	21.61
528.886	21.63
529.084	21.61
529.283	21.61
529.481	21.63
529.679	21.65
529.877	21.68
530.076	21.71
530.274	21.78
530.472	21.81
530.67	21.86
530.869	21.96
531.067	22.04
531.265	22.08
531.463	22.15
531.661	22.14
531.859	22.18
532.057	22.23
532.255	22.28
532.454	22.3
532.652	22.32
532.85	22.33
533.048	22.37
533.246	22.4
533.444	22.46
533.642	22.46
533.84	22.53
534.038	22.62
534.236	22.63
534.434	22.67
534.632	22.74
534.83	22.83
535.027	22.91
535.225	22.94
535.423	23.02
535.621	23.16
535.819	23.28
536.017	23.39
536.215	23.44
536.412	23.59
536.61	23.73
536.808	23.84
537.006	23.95
537.203	24.14
537.401	24.39
537.599	24.64
537.797	24.81
537.994	25.05
538.192	25.29
538.39	25.61
538.587	25.92
538.785	26.31
538.983	26.71
539.18	27.13
539.378	27.45
539.575	27.7
539.773	27.95
539.97	28.14
540.168	28.38
540.366	28.58
540.563	28.71
540.761	28.81
540.958	28.86
541.155	28.94
541.353	28.99
541.55	29.1
541.748	29.18
541.945	29.25
542.143	29.42
542.34	29.53
542.537	29.73
542.735	29.92
542.932	30.21
543.129	30.63
543.327	31.22
543.524	31.96
543.721	32.73
543.919	33.67
544.116	34.73
544.313	35.85
544.51	37
544.708	38.14
544.905	39.26
545.102	40.31
545.299	41.09
545.496	41.65
545.693	41.94
545.891	41.9
546.088	41.68
546.285	41.21
546.482	40.6
546.679	39.98
546.876	39.29
547.073	38.61
547.27	37.81
547.467	37.04
547.664	36.34
547.861	35.68
548.058	35.24
548.255	34.81
548.452	34.59
548.649	34.35
548.846	34.12
549.043	33.83
549.24	33.59
549.437	33.37
549.633	33.1
549.83	32.71
550.027	32.35
550.224	32.01
550.421	31.79
550.618	31.36
550.814	30.98
551.011	30.51
551.208	30.15
551.405	29.79
551.601	29.49
551.798	29.33
551.995	29.22
552.191	29.05
552.388	28.82
552.585	28.5
552.781	28.36
552.978	28.27
553.175	28.16
553.371	28.03
553.568	27.99
553.764	27.91
553.961	27.83
554.157	27.54
554.354	27.47
554.55	27.44
554.747	27.49
554.943	27.35
555.14	27.31
555.336	27.28
555.533	27.26
555.729	27.1
555.926	27.12
556.122	27.06
556.318	27.13
556.515	27.1
556.711	26.99
556.907	26.97
557.104	27
557.3	26.96
557.496	27.02
557.693	27.06
557.889	27.11
558.085	27.02
558.281	26.99
558.478	27.03
558.674	26.92
558.87	27
559.066	26.92
559.262	26.91
559.459	26.82
559.655	26.78
559.851	26.8
560.047	26.78
560.243	26.75
560.439	26.72
560.635	26.57
560.831	26.67
561.027	26.54
561.223	26.63
561.419	26.6
561.615	26.73
561.811	26.8
562.007	26.85
562.203	26.95
562.399	26.96
562.595	27.15
562.791	27.4
562.987	27.33
563.183	27.37
563.379	27.36
563.575	27.31
563.771	27.25
563.966	27.04
564.162	26.87
564.358	26.69
564.554	26.69
564.75	26.5
564.945	26.24
565.141	26.25
565.337	26.14
565.533	26
565.728	25.98
565.924	25.93
566.12	26.03
566.315	26.06
566.511	26.02
566.707	25.94
566.902	25.96
567.098	26.1
567.293	25.99
567.489	26.09
567.684	26.1
567.88	26.14
568.076	26.17
568.271	26.13
568.467	26.17
568.662	26.22
568.858	26.23
569.053	26.17
569.248	26.04
569.444	26.13
569.639	26.09
569.835	26.1
570.03	26.16
570.225	26.1
570.421	26.09
570.616	26.02
570.812	26.06
571.007	26.13
571.202	26.09
571.397	26.09
571.593	26.07
571.788	26.05
571.983	26.1
572.178	26.09
572.374	26.17
572.569	26.19
572.764	26.28
572.959	26.26
573.154	26.19
573.35	26.23
573.545	26.2
573.74	26.28
573.935	26.31
574.13	26.37
574.325	26.46
574.52	26.6
574.715	26.84
574.91	27.04
575.105	27.32
575.3	27.66
575.495	27.94
575.69	28.3
575.885	28.6
576.08	29.05
576.275	29.53
576.47	30.03
576.665	30.4
576.86	30.77
577.055	31.05
577.25	31.43
577.444	31.77
577.639	32.25
577.834	32.79
578.029	33.25
578.224	33.61
578.418	33.88
578.613	33.98
578.808	34.19
579.003	34.18
579.197	34.29
579.392	34.33
579.587	34.44
579.781	34.42
579.976	34.31
580.171	34.12
580.365	34
580.56	34
580.755	33.9
580.949	33.86
581.144	33.85
581.338	34.02
581.533	34.08
581.727	34.06
581.922	34.18
582.116	34.12
582.311	34.31
582.505	34.51
582.7	34.46
582.894	34.58
583.089	34.52
583.283	34.82
583.478	34.74
583.672	34.64
583.866	34.78
584.061	34.65
584.255	34.82
584.449	34.95
584.644	35.05
584.838	35.12
585.032	35.17
585.226	35.52
585.421	35.58
585.615	35.89
585.809	36.37
586.003	36.54
586.198	36.88
586.392	37.14
586.586	37.13
586.78	37.14
586.974	37.23
587.168	37.36
587.363	37.07
587.557	36.74
587.751	36.52
587.945	35.84
588.139	35.43
588.333	35.01
588.527	34.58
588.721	34.14
588.915	33.63
589.109	33.18
589.303	32.81
589.497	32.7
589.691	32.76
589.885	32.56
590.079	32.62
590.273	32.77
590.466	33.02
590.66	33.3
590.854	33.66
591.048	34.08
591.242	34.64
591.436	35.05
591.629	35.31
591.823	35.61
592.017	35.99
592.211	36.43
592.404	36.58
592.598	36.6
592.792	36.59
592.986	36.37
593.179	36.15
593.373	35.86
593.567	35.5
593.76	35.3
593.954	34.87
594.147	34.42
594.341	34.05
594.535	33.7
594.728	33.35
594.922	33
595.115	32.89
595.309	32.61
595.502	32.28
595.696	32.07
595.889	31.79
596.083	31.66
596.276	31.6
596.47	31.52
596.663	31.53
596.856	31.57
597.05	31.67
597.243	31.87
597.437	32.04
597.63	32.28
597.823	32.56
598.017	32.9
598.21	33.24
598.403	33.64
598.596	33.97
598.79	34.28
598.983	34.43
599.176	34.58
599.369	34.54
599.563	34.7
599.756	34.73
599.949	34.83
600.142	34.82
600.335	34.75
600.528	34.55
600.722	34.46
600.915	34.26
601.108	34.22
601.301	34.13
601.494	33.84
601.687	33.7
601.88	33.63
602.073	33.39
602.266	33.22
602.459	32.93
602.652	32.63
602.845	32.14
603.038	31.91
603.231	31.7
603.424	31.45
603.617	31.4
603.809	31.11
604.002	30.92
604.195	30.88
604.388	30.84
604.581	30.82
604.774	30.91
604.966	31.24
605.159	31.36
605.352	31.55
605.545	31.75
605.737	32.03
605.93	32.42
606.123	32.86
606.316	33.31
606.508	33.72
606.701	34.34
606.894	35.01
607.086	35.48
607.279	36.11
607.471	36.73
607.664	37.44
607.857	38.51
608.049	39.88
608.242	41.43
608.434	43.42
608.627	45.85
608.819	48.8
609.012	52.12
609.204	55.86
609.397	59.93
609.589	64.45
609.782	69.14
609.974	73.93
610.166	78.91
610.359	83.63
610.551	87.86
610.743	91.73
610.936	94.97
611.128	97.47
611.32	99.34
611.513	100.36
611.705	100.64
611.897	100.32
612.09	99.28
612.282	97.55
612.474	95.29
612.666	92.95
612.858	90.39
613.051	87.89
613.243	85.49
613.435	83.1
613.627	80.99
613.819	78.86
614.011	76.77
614.203	74.45
614.395	71.95
614.588	69.93
614.78	67.6
614.972	65.74
615.164	63.6
615.356	61.44
615.548	59.44
615.74	57.56
615.932	55.57
616.124	53.68
616.315	52.15
616.507	50.85
616.699	49.6
616.891	48.77
617.083	47.53
617.275	46.44
617.467	45.67
617.659	44.89
617.85	44.2
618.042	43.73
618.234	43.43
618.426	43.07
618.618	42.84
618.809	42.59
619.001	42.25
619.193	42.11
619.384	41.91
619.576	41.76
619.768	41.84
619.959	41.82
620.151	41.68
620.343	41.69
620.534	41.73
620.726	41.67
620.917	41.97
621.109	42.01
621.301	42.07
621.492	42.27
621.684	42.39
621.875	42.41
622.067	42.53
622.258	42.72
622.45	42.75
622.641	42.9
622.832	43.09
623.024	42.88
623.215	43.13
623.407	43.09
623.598	43.19
623.789	43.34
623.981	43.37
624.172	43.29
624.363	43.38
624.555	43.44
624.746	43.14
624.937	42.88
625.129	42.8
625.32	42.37
625.511	42.33
625.702	41.96
625.893	41.66
626.085	41.29
626.276	41.23
626.467	40.91
626.658	40.65
626.849	40.64
627.04	40.84
627.231	40.66
627.422	40.7
627.614	40.79
627.805	41
627.996	41.22
628.187	41.69
628.378	41.95
628.569	42.52
628.76	43.11
628.951	44.06
629.142	44.54
629.332	45.37
629.523	46.03
629.714	46.61
629.905	47.36
630.096	48
630.287	48.54
630.478	48.83
630.669	48.85
630.859	48.87
631.05	48.26
631.241	47.79
631.432	47.22
631.623	46.59
631.813	45.77
632.004	45
632.195	44.02
632.385	42.82
632.576	42.06
632.767	41.36
632.957	40.71
633.148	40.03
633.339	39.4
633.529	38.92
633.72	38.47
633.91	38.22
634.101	37.68
634.292	37.28
634.482	37.18
634.673	36.94
634.863	36.73
635.054	36.52
635.244	36.37
635.435	36.37
635.625	36.2
635.815	36.3
636.006	36.09
636.196	36.11
636.387	36.22
636.577	36.46
636.767	36.63
636.958	36.74
637.148	36.98
637.338	37.21
637.529	37.24
637.719	37.4
637.909	37.53
638.099	37.66
638.29	37.55
638.48	37.72
638.67	37.49
638.86	37.55
639.05	37.45
639.241	37.44
639.431	37.5
639.621	37.35
639.811	37.38
640.001	37.43
640.191	37.49
640.381	37.75
640.571	37.73
640.761	37.87
640.951	37.79
641.141	37.78
641.331	37.71
641.521	37.64
641.711	37.86
641.901	38.04
642.091	37.97
642.281	37.97
642.471	38.03
642.661	37.92
642.851	37.97
643.041	37.93
643.231	38.16
643.42	38.25
643.61	38.3
643.8	38.33
643.99	38.21
644.18	38.38
644.369	38.37
644.559	38.2
644.749	38.2
644.939	38.22
645.128	38.16
645.318	37.97
645.508	37.85
645.697	37.76
645.887	37.61
646.076	37.54
646.266	37.48
646.456	37.62
646.645	37.74
646.835	37.98
647.024	37.92
647.214	37.97
647.403	38.07
647.593	38.43
647.782	38.51
647.972	38.93
648.161	38.99
648.351	39.1
648.54	39.14
648.73	39.35
648.919	39.4
649.108	39.75
649.298	40.16
649.487	40.55
649.677	40.63
649.866	40.86
650.055	40.94
650.244	41.13
650.434	41.14
650.623	41.19
650.812	41.27
651.002	41.33
651.191	41.29
651.38	41.03
651.569	40.93
651.758	40.79
651.947	40.64
652.137	40.65
652.326	40.43
652.515	40.3
652.704	40.26
652.893	40.14
653.082	40.05
653.271	40.06
653.46	39.96
653.649	39.76
653.838	39.78
654.027	39.86
654.216	39.6
654.405	39.66
654.594	39.67
654.783	39.59
654.972	39.6
655.161	39.36
655.35	39.21
655.539	39.23
655.728	39.43
655.916	39.39
656.105	39.37
656.294	39.36
656.483	39.45
656.672	39.4
656.86	39.46
657.049	39.24
657.238	39.16
657.427	38.85
657.615	38.85
657.804	38.51
657.993	37.94
658.181	37.71
658.37	37.56
658.559	37.31
658.747	37.08
658.936	36.77
659.125	36.74
659.313	36.8
659.502	36.8
659.69	36.66
659.879	36.79
660.067	37.07
660.256	37.3
660.444	37.52
660.633	37.91
660.821	38.4
661.01	38.81
661.198	39.08
661.387	39.31
661.575	39.58
661.763	40.14
661.952	40.08
662.14	40.57
662.328	40.99
662.517	41.03
662.705	41.04
662.893	40.88
663.082	40.82
663.27	40.86
663.458	41.04
663.646	41.28
663.834	41.14
664.023	41.57
664.211	41.54
664.399	41.02
664.587	41.01
664.775	41.1
664.963	41.04
665.152	41.36
665.34	41.36
665.528	41.02
665.716	41.01
665.904	40.95
666.092	40.64
666.28	40.31
666.468	40.43
666.656	40.47
666.844	40.31
667.032	40.37
667.22	40.17
667.408	40.28
667.596	40.3
667.784	40.12
667.971	40.09
668.159	40.16
668.347	40.34
668.535	40.44
668.723	40.36
668.911	40.19
669.098	40.12
669.286	40.14
669.474	40.1
669.662	40.43
669.849	40.49
670.037	40.43
670.225	40.62
670.413	40.45
670.6	40.41
670.788	40.58
670.976	40.72
671.163	40.68
671.351	40.71
671.538	40.66
671.726	40.47
671.913	40.69
672.101	40.86
672.289	40.66
672.476	40.81
672.664	40.93
672.851	40.92
673.039	41.17
673.226	41.43
673.413	41.34
673.601	41.68
673.788	41.84
673.976	41.52
674.163	41.53
674.35	41.56
674.538	41.62
674.725	41.4
674.912	41.38
675.1	41.48
675.287	41.45
675.474	41.4
675.662	41.23
675.849	41.2
676.036	41.36
676.223	41.29
676.411	41.43
676.598	41.25
676.785	41.33
676.972	41.18
677.159	40.84
677.346	40.66
677.533	40.8
677.721	40.68
677.908	40.5
678.095	40.25
678.282	40.03
678.469	39.81
678.656	39.87
678.843	39.6
679.03	39.5
679.217	39.31
679.404	39.33
679.591	39.13
679.778	39.13
679.964	39.06
680.151	38.96
680.338	39.14
680.525	39.25
680.712	39.33
680.899	39.55
681.086	39.63
681.272	39.92
681.459	40.15
681.646	40.2
681.833	40.15
682.02	40.36
682.206	40.48
682.393	40.46
682.58	40.59
682.766	40.62
682.953	40.85
683.14	40.99
683.326	41.29
683.513	41.37
683.7	41.63
683.886	41.84
684.073	41.8
684.259	42.06
684.446	42.37
684.632	42.35
684.819	42.39
685.005	42.43
685.192	42.73
685.378	42.38
685.565	42.49
685.751	42.47
685.938	42.56
686.124	42.65
686.31	42.99
686.497	42.99
686.683	43.19
686.87	43.25
687.056	43.21
687.242	43.03
687.429	43.06
687.615	43.04
687.801	43.07
687.987	43
688.174	42.78
688.36	42.64
688.546	42.64
688.732	42.4
688.918	42.18
689.105	42.27
689.291	42.24
689.477	42.15
689.663	42.18
689.849	42.14
690.035	42
690.221	42.46
690.407	42.51
690.593	42.61
690.779	42.82
690.965	43.24
691.151	43.17
691.337	43.51
691.523	43.84
691.709	44.02
691.895	44.45
692.081	44.83
692.267	44.77
692.453	44.66
692.639	44.45
692.825	44.44
693.011	44.26
693.196	44.52
693.382	44.27
693.568	44.21
693.754	43.69
693.94	43.21
694.125	43.14
694.311	43.13
694.497	43.2
694.682	43.01
694.868	42.58
695.054	42.4
695.239	42.09
695.425	42.07
695.611	42.24
695.796	42.52
695.982	42.43
696.168	42.11
696.353	41.73
696.539	41.63
696.724	41.5
696.91	41.5
697.095	41.42
697.281	40.97
697.466	40.53
697.652	39.9
697.837	39.19
698.023	38.71
698.208	38.47
698.393	38.31
698.579	37.84
698.764	37.54
698.949	37.37
699.135	37.39
699.32	37.48
699.505	37.69
699.691	37.77
699.876	38.09
700.061	38.41
700.246	38.65
700.432	38.72
700.617	38.89
700.802	39.31
700.987	39.67
701.172	39.9
701.358	40.21
701.543	40.26
701.728	40.62
701.913	41.42
702.098	41.76
702.283	42.06
702.468	42.81
702.653	43.56
702.838	44.07
703.023	44.49
703.208	44.73
703.393	45.19
703.578	45.88
703.763	46.6
703.948	46.87
704.133	47.91
704.318	48.8
704.503	49.99
704.688	50.92
704.873	51.68
705.057	52.77
705.242	53.38
705.427	54.13
705.612	54.96
705.797	55.69
705.981	56.48
706.166	56.93
706.351	57.92
706.536	58.02
706.72	58.34
706.905	59.02
707.09	59.31
707.274	59.91
707.459	60.15
707.644	60.43
707.828	60.9
708.013	60.96
708.197	60.66
708.382	59.98
708.567	59.79
708.751	59.47
708.936	58.78
709.12	58.2
709.305	57.56
709.489	57.31
709.673	56.53
709.858	55.4
710.042	55
710.227	55.17
710.411	55.02
710.596	54.73
710.78	54.47
710.964	54.68
711.149	54.68
711.333	54.81
711.517	54.75
711.702	54.96
711.886	55.12
712.07	54.83
712.254	54.14
712.438	53.7
712.623	53.29
712.807	53
712.991	52.35
713.175	51.38
713.359	50.74
713.544	50.09
713.728	48.91
713.912	48.11
714.096	47.02
714.28	46.35
714.464	45.6
714.648	44.82
714.832	44.06
715.016	43.48
715.2	43.45
715.384	42.75
715.568	42.28
715.752	41.61
715.936	41.18
716.12	41.01
716.304	41.18
716.488	40.95
716.671	40.73
716.855	40.42
717.039	40.03
717.223	39.88
717.407	39.81
717.59	39.78
717.774	40.26
717.958	40.33
718.142	40.3
718.325	39.93
718.509	40.33
718.693	40.43
718.877	40.87
719.06	41.13
719.244	41.01
719.428	41.18
719.611	41.15
719.795	41.55
719.978	41.65
720.162	42.24
720.345	42.46
720.529	42.61
720.713	42.89
720.896	43.14
721.08	43.35
721.263	43.83
721.446	44.08
721.63	43.99
721.813	44.43
721.997	44.77
722.18	44.58
722.364	44.87
722.547	44.77
722.73	44.51
722.914	44.59
723.097	44.79
723.28	44.86
723.464	44.22
723.647	44.35
723.83	43.59
724.013	43.69
724.197	43.98
724.38	43.77
724.563	43.72
724.746	44.21
724.929	43.93
725.112	43.32
725.296	43.27
725.479	43.69
725.662	43.66
725.845	43.69
726.028	43.58
726.211	43.12
726.394	42.97
726.577	42.38
726.76	42.22
726.943	42.3
727.126	42.22
727.309	41.97
727.492	41.92
727.675	41.69
727.858	41.56
728.041	41.43
728.224	41.34
728.407	41.07
728.589	41.54
728.772	41.83
728.955	41.81
729.138	42.34
729.321	42.17
729.503	42.33
729.686	42.21
729.869	42.49
730.052	42.31
730.234	42.69
730.417	42.97
730.6	42.79
730.782	42.37
730.965	42.27
731.148	41.96
731.33	41.82
731.513	41.7
731.695	41.83
731.878	42.23
732.061	42.3
732.243	42.49
732.426	42.53
732.608	42.48
732.791	42.84
732.973	43.2
733.156	43.36
733.338	43.86
733.52	43.77
733.703	44.36
733.885	44.06
734.068	44.59
734.25	44.38
734.432	44.58
734.615	45.11
734.797	45.09
734.979	45.37
735.162	45.53
735.344	45.53
735.526	45.84
735.708	45.88
735.891	46.46
736.073	46.24
736.255	45.99
736.437	46.06
736.619	45.87
736.802	45.95
736.984	45.82
737.166	46.02
737.348	46.28
737.53	46.74
737.712	46.52
737.894	46.02
738.076	46.03
738.258	46.31
738.44	46.3
738.622	46.46
738.804	46.61
738.986	46.42
739.168	46.47
739.35	46.46
739.532	46.74
739.714	47.2
739.896	47
740.078	47.32
740.259	47.86
740.441	48.17
740.623	48.57
740.805	48.62
740.987	48.86
741.168	49.02
741.35	49.39
741.532	49.27
741.714	49.4
741.895	50.02
742.077	50.06
742.259	50.16
742.44	50.03
742.622	50.11
742.804	50.43
742.985	50.46
743.167	50.68
743.348	50.2
743.53	50.33
743.711	50.44
743.893	50.77
744.075	50.7
744.256	50.19
744.438	50.83
744.619	50.28
744.8	50.05
744.982	50.66
745.163	50.67
745.345	51.09
745.526	51.1
745.707	50.66
745.889	50.66
746.07	51.64
746.252	51.13
746.433	50.56
746.614	50.99
746.795	51.48
746.977	51
747.158	50.85
747.339	51.25
747.52	50.66
747.702	50.59
747.883	50.22
748.064	49.48
748.245	50.49
748.426	51.2
748.607	51.32
748.788	51.29
748.97	50.97
749.151	50.86
749.332	50.48
749.513	51.44
749.694	50.94
749.875	51.47
750.056	51.64
750.237	51.57
750.418	51.06
750.599	50.85
750.78	50.87
750.96	51.34
751.141	51.57
751.322	51.56
751.503	51.25
751.684	52.26
751.865	51.81
752.046	51.7
752.226	51.65
752.407	51.95
752.588	51.78
752.769	51.68
752.949	50.81
753.13	51.01
753.311	50.48
753.492	50.17
753.672	50.48
753.853	50.74
754.034	50.35
754.214	50.69
754.395	50.15
754.575	49.87
754.756	49.53
754.937	50.73
755.117	50.74
755.298	50.56
755.478	50.18
755.659	49.35
755.839	49.3
756.02	50
756.2	49.96
756.381	50.18
756.561	50.79
756.741	50.8
756.922	50.23
757.102	49.66
757.283	49.8
757.463	48.97
757.643	48.39
757.823	47.71
758.004	46.3
758.184	45.31
758.364	44.53
758.545	43.55
758.725	42.9
758.905	42.09
759.085	41.24
759.265	40.42
759.446	40.15
759.626	40.55
759.806	40.04
759.986	40.04
760.166	39.85
760.346	40.09
760.526	40.67
760.706	40.6
760.886	40.88
761.066	41.86
761.246	41.87
761.426	41.98
761.606	41.17
761.786	41.11
761.966	40.3
762.146	40.12
762.326	39.3
762.506	38.37
762.686	37.87
762.866	37.41
763.046	36.43
763.225	36.41
763.405	36.61
763.585	36.69
763.765	37.01
763.945	37.41
764.124	37.48
764.304	38.07
764.484	38.68
764.664	39.16
764.843	39.41
765.023	39.85
765.203	40.59
765.382	41.18
765.562	41.55
765.741	41.49
765.921	42.45
766.101	42.72
766.28	43.1
766.46	43.26
766.639	43.94
766.819	44.83
766.998	45.61
767.178	46.07
767.357	46.24
767.537	46.84
767.716	47.59
767.896	47.16
768.075	47.96
768.254	47.92
768.434	48.59
768.613	49.46
768.792	49.94
768.972	50.54
769.151	50.93
769.33	51.63
769.51	52.35
769.689	53.33
769.868	54.29
770.047	55.27
770.226	55.82
770.406	55.52
770.585	55.41
770.764	55.67
770.943	55.72
771.122	55.52
771.301	55.32
771.48	54.52
771.66	54.29
771.839	54.5
772.018	54.19
772.197	54
772.376	54.3
772.555	53.91
772.734	53.36
772.913	52.99
773.092	53.01
773.271	53.67
773.449	55.63
773.628	55.55
773.807	55.78
773.986	55.2
774.165	55.14
774.344	55.92
774.523	55.24
774.701	55.91
774.88	56.58
775.059	57.53
775.238	57.12
775.417	55.35
775.595	55.96
775.774	56.33
775.953	56.18
776.131	56.33
776.31	55.3
776.489	56.39
776.667	55.88
776.846	55.03
777.025	54.2
777.203	54.62
777.382	55.16
777.56	54.62
777.739	54.22
777.917	53.82
778.096	54.05
778.274	55.13
778.453	54.73
778.631	55.29
778.81	55.04
778.988	55.45
779.166	55.21
779.345	55.57
779.523	55.57
779.702	55.06
779.88	56.32
780.058	55.56
780.237	55.03
780.415	54.71
780.593	53.87
780.771	54.91
780.95	54.7
781.128	54.67
781.306	54.77
781.484	54.22
781.662	54.09
781.841	54.38
782.019	54.68
782.197	55.37
782.375	56.14
782.553	55.95
782.731	55.68
782.909	54.5
783.087	54.34
783.265	54.06
783.443	54.68
783.621	54.82
783.799	53.71
783.977	53.85
784.155	53.18
784.333	52.8
784.511	53.19
784.689	53.14
784.867	53.51
785.045	54.07
785.223	53.48
785.4	52.39
785.578	52.29
785.756	52.79
785.934	53.19
786.112	52.72
786.289	51.04
786.467	50.39
786.645	50.6
786.823	50.99
787	50.25
787.178	50.22
787.356	51.03
787.533	50.82
787.711	49.81
787.889	49.17
788.066	48.67
788.244	50.3
788.421	50.66
788.599	49.2
788.776	48.74
788.954	49.29
789.131	49.37
789.309	48.74
789.486	48.7
789.664	49.29
789.841	49.6
790.019	50.72
790.196	49.58
790.373	49.59
790.551	50.62
790.728	51.62
790.906	51.43
791.083	51.16
791.26	51.94
791.437	51.9
791.615	51.62
791.792	51.01
791.969	50.72
792.146	50.94
792.324	51.08
792.501	51.69
792.678	51.62
792.855	51.1
793.032	51.9
793.209	51.68
793.387	52.08
793.564	52.15
793.741	53.27
793.918	52.93
794.095	54.35
794.272	53.28
794.449	52.9
794.626	52.95
794.803	52.97
794.98	51.66
795.157	50.77
795.334	50.93
795.511	51.05
795.688	49.61
795.864	48.72
796.041	47.46
796.218	47.96
796.395	47.46
796.572	47.15
796.749	45.97
796.925	46.68
797.102	48.16
797.279	48.51
797.456	48.48
797.632	49.35
797.809	49.54
797.986	50.31
798.162	49.93
798.339	49.68
798.516	49.24
798.692	51.49
798.869	51.92
799.046	51
799.222	51.02
799.399	51.68
799.575	52.36
799.752	53.66
799.928	52.92
800.105	54.09
800.281	54.6
800.458	54.67
800.634	53.7
800.811	53.52
800.987	53.64
801.163	52.57
801.34	52.8
801.516	52.69
801.692	51.53
801.869	52.63
802.045	52.84
802.221	52.02
802.398	51.49
802.574	52.18
802.75	52.65
802.926	53.02
803.103	54.27
803.279	53.07
803.455	52.55
803.631	54.04
803.807	53.93
803.983	53.56
804.16	53.29
804.336	53.6
804.512	53.43
804.688	52.6
804.864	51.3
805.04	49.88
805.216	49.86
805.392	49.82
805.568	48.53
805.744	47.62
805.92	47.29
806.096	49.51
806.272	51.22
806.448	49.93
806.623	49.83
806.799	50.86
806.975	51.85
807.151	52.92
807.327	53.51
807.503	53.64
807.678	53.78
807.854	53.44
808.03	53.56
808.206	52.39
808.381	52.79
808.557	54.17
808.733	54.97
808.908	54.25
809.084	54.04
809.26	53.71
809.435	53.37
809.611	52.87
809.787	53.76
809.962	51.76
810.138	51.7
810.313	51.36
810.489	49.84
810.664	48.98
810.84	49.09
811.015	49.2
811.191	48.82
811.366	49.23
811.542	49.5
811.717	48.75
811.892	51.16
812.068	50.91
812.243	50.88
812.419	52.27
812.594	51.47
812.769	50.62
812.944	50.21
813.12	50.48
813.295	50.96
813.47	50.27
813.645	49.49
813.821	45.94
813.996	46.18
814.171	46.67
814.346	45.91
814.521	46.03
814.697	47.09
814.872	46.26
815.047	46.52
815.222	45.17
815.397	45.73
815.572	47.64
815.747	50.18
815.922	50.48
816.097	50.16
816.272	49.55
816.447	49.98
816.622	50.44
816.797	51.93
816.972	51.32
817.147	52.03
817.322	51.76
817.496	50.91
817.671	49.87
817.846	48.6
818.021	48.58
818.196	48.3
818.371	47.36
818.545	46.53
818.72	45.92
818.895	44.69
819.069	44.44
819.244	43.8
819.419	42.52
819.594	41.92
819.768	41.41
819.943	39.72
820.117	38.61
820.292	37.74
820.467	36.03
820.641	34.43
820.816	33.03
820.99	31.75
821.165	30.8
821.339	30.04
821.514	29.33
821.688	28.85
821.863	28.59
822.037	28.18
822.212	27.69
822.386	27.49
822.56	27.27
822.735	27.23
822.909	27.19
823.084	27.48
823.258	27.37
823.432	27.32
823.606	27.45
823.781	27.35
823.955	27.62
824.129	27.92
824.303	27.97
824.478	28.58
824.652	29.1
824.826	29.28
825	28.97
825.174	30.05
825.348	30.61
825.523	30.91
825.697	31.54
825.871	31.71
826.045	31.65
826.219	32.29
826.393	32.02
826.567	31.91
826.741	32.32
826.915	32.88
827.089	32.42
827.263	32.51
827.437	32.29
827.611	32.5
827.784	32.56
827.958	32.95
828.132	32.63
828.306	32.69
828.48	32.78
828.654	32.75
828.827	31.99
829.001	32.2
829.175	32.82
829.349	33.56
829.522	33.09
829.696	34.23
829.87	34.77
830.044	35.69
830.217	36.47
830.391	37.71
830.565	37.79
830.738	40.64
830.912	41.1
831.085	41
831.259	42.48
831.432	44.07
831.606	43.64
831.779	43.28
831.953	42.89
832.126	42.2
832.3	41.27
832.473	41.5
832.647	40.5
832.82	40
832.994	37.8
833.167	36.11
833.34	35.36
833.514	34.43
833.687	34.16
833.86	33.91
834.034	33.17
834.207	33.27
834.38	33.04
834.553	31.8
834.727	31.78
834.9	32.57
835.073	32.75
835.246	33.53
835.419	33.95
835.593	34.4
835.766	34.32
835.939	35.51
836.112	35.2
836.285	35.79
836.458	36.87
836.631	36.71
836.804	38.63
836.977	39.78
837.15	39.39
837.323	41.18
837.496	42.04
837.669	43.36
837.842	44.01
838.015	46.88
838.188	47.48
838.361	49.15
838.533	49.6
838.706	47.58
838.879	48.14
839.052	50.24
839.225	50.33
839.398	48.86
839.57	50.5
839.743	51.18
839.916	49.11
840.088	48.84
840.261	48.49
840.434	50.46
840.607	51.01
840.779	50.44
840.952	48.41
841.124	47.48
841.297	48.6
841.47	49.59
841.642	49.71
841.815	51.52
841.987	52.83
842.16	53.97
842.332	53.67
842.505	54.23
842.677	52.99
842.85	54.63
843.022	54.61
843.194	58.2
843.367	58.54
843.539	58.41
843.712	58.72
843.884	61.14
844.056	60.81
844.229	61.03
844.401	60.96
844.573	63.66
844.745	62.83
844.918	65.03
845.09	61.76
845.262	58.33
845.434	59.43
845.606	59.1
845.779	56.66
845.951	57.28
846.123	57.54
846.295	61.26
846.467	63.44
846.639	65.17
846.811	64.01
846.983	64.65
847.155	64.57
847.327	61.94
847.499	66.91
847.671	69.16
847.843	72.84
848.015	75.87
848.187	76.52
848.359	72.85
848.531	70.92
848.703	73.05
848.875	73.8
849.047	77.49
849.218	76.74
849.39	73.53
849.562	70.64
849.734	72.64
849.905	69.1
850.077	67.28
850.249	67.68
850.421	70.89
850.592	68.3
850.764	66.47
850.936	65.98
851.107	68.29
851.279	70.18
851.451	74.55
851.622	72.55
851.794	74.42
851.965	78.7
852.137	77.91
852.308	76.38
852.48	79.94
852.651	80.15
852.823	78.82
852.994	79.98
853.166	75.47
853.337	74.11
853.509	71.57
853.68	71.18
853.851	69.3
854.023	68.88
854.194	70.36
854.365	71.47
854.537	73.95
854.708	79.75
854.879	77.56
855.05	83.44
855.222	80.3
855.393	81.31
855.564	79.33
855.735	75.24
855.906	76.86
856.078	75.28
856.249	74.1
856.42	71.7
856.591	66.69
856.762	66.11
856.933	62.09
857.104	67.41
857.275	65.78
857.446	66.59
857.617	70.75
857.788	70.33
857.959	69.99
858.13	68.47
858.301	68.66
858.472	69.55
858.643	73.22
858.814	75.2
858.985	70.98
859.155	73.39
859.326	73.56
859.497	71.68
859.668	75.27
859.839	75.84
860.009	71.96
860.18	73.89
860.351	76.62
860.522	72.61
860.692	67.87
860.863	69.74
861.034	69.99
861.204	69.02
861.375	66.99
861.546	66.36
861.716	64.23
861.887	65.03
862.057	63.39
862.228	58.4
862.398	58.95
862.569	61.15
862.739	60.31
862.91	56.34
863.08	54.68
863.251	53.17
863.421	52.83
863.592	53.7
863.762	58.31
863.932	57.85
864.103	58.19
864.273	58.9
864.443	57.12
864.614	55.62
864.784	57.75
864.954	60.46
865.125	61.47
865.295	58.65
865.465	56.95
865.635	49.31
865.805	47.87
865.976	47.67
866.146	44.02
866.316	42.5
866.486	47.42
866.656	50.04
866.826	54.18
866.996	60.82
867.166	62.83
867.336	64.62
867.506	72.98
867.676	76.16
867.846	77.89
868.016	84.86
868.186	95.22
868.356	91.21
868.526	91.1
868.696	88.74
868.866	84.38
869.036	88.8
869.206	85.56
869.376	81.08
869.545	83.4
869.715	86.84
869.885	83.86
870.055	77.21
870.224	80.29
870.394	85.68
870.564	83.14
870.734	81.28
870.903	78.18
871.073	75.12
871.243	79.64
871.412	77.58
871.582	74.86
871.751	76.61
871.921	75.55
872.091	71.22
872.26	64.27
872.43	63.06
872.599	61.43
872.769	66.88
872.938	73.28
873.108	70.44
873.277	70.73
873.446	70.56
873.616	67
873.785	70.33
873.955	69.74
874.124	70.69
874.293	71.95
874.463	72.46
874.632	66.92
874.801	65.79
874.971	68.47
875.14	68.43
875.309	66.03
875.478	66.68
875.647	65.21
875.817	66.18
875.986	66.85
876.155	72.55
876.324	74.65
876.493	74.59
876.662	72.51
876.831	68.99
877	70.02
877.17	74.24
877.339	77.67
877.508	73.06
877.677	75.64
877.846	75.16
878.015	69.42
878.184	65.63
878.352	62.77
878.521	64.79
878.69	62.73
878.859	59.61
879.028	58.18
879.197	54.85
879.366	54.4
879.534	49.05
879.703	45.94
879.872	44.84
880.041	44.96
880.21	43.33
880.378	41.66
880.547	40.03
880.716	38.23
880.884	36.36
881.053	33.35
881.222	32.24
881.39	31.4
881.559	30.67
881.727	29.26
881.896	28.85
882.065	28.23
882.233	26.65
882.402	25.85
882.57	25.63
882.739	25.57
882.907	25.84
883.076	25.93
883.244	25.63
883.412	25.21
883.581	25.55
883.749	25.5
883.918	26.06
884.086	27.85
884.254	28.55
884.423	29.28
884.591	30.11
884.759	31.29
884.927	32.38
885.096	33.22
885.264	36.04
885.432	38.24
885.6	38.25
885.769	38.37
885.937	37.54
886.105	38.58
886.273	40.58
886.441	40.29
886.609	40.3
886.777	40.48
886.945	43.57
887.113	44.51
887.281	42.44
887.449	43.88
887.617	45.21
887.785	47.6
887.953	51.61
888.121	50.37
888.289	51.74
888.457	51.44
888.625	54.84
888.793	54.9
888.961	54.17
889.129	60.07
889.296	67.39
889.464	69.74
889.632	71.1
889.8	69.7
889.967	72.51
890.135	72.59
