Data from 2938850__Reflection_02.txt Node
Date: Wed Mar 11 13:09:43 EDT 2015
User: robert
Spectrometer: USB4E03002
Autoset integration time: false
Trigger mode: 4
Integration Time (sec): 1.000000E-1
Scans to average: 10
Electric dark correction enabled: false
Nonlinearity correction enabled: false
Boxcar width: 5
Stray light correction enabled: false
XAxis mode: Wavelengths
Stop averaging: false
Number of Pixels in Spectrum: 3648
>>>>>Begin Spectral Data<<<<<
177.575	-214.81
177.794	0
178.014	-69.18
178.233	-455.88
178.452	-257.66
178.672	-96.65
178.891	-97.79
179.11	-74.51
179.33	-111.45
179.549	-148.13
179.768	-197.12
179.987	-196.35
180.207	-168.11
180.426	-173.54
180.645	-61.44
180.864	-25.63
181.084	-148.4
181.303	-1009.52
181.522	-494.69
181.741	-342.6
181.96	-521.28
182.179	-1770.69
182.398	-1141.18
182.618	1140.66
182.837	1686.15
183.056	2465.96
183.275	461.79
183.494	479.67
183.713	700.61
183.932	373.5
184.151	386.4
184.37	384.35
184.589	690.07
184.808	799.27
185.027	-2630.95
185.246	-1076.67
185.465	-326.94
185.684	-142.74
185.903	-162.4
186.122	-105.93
186.341	-97.49
186.56	-84.4
186.779	-76.09
186.998	-41.8
187.216	-26.68
187.435	-13.96
187.654	-13.41
187.873	-19.3
188.092	-41.68
188.311	-27.96
188.53	-14.25
188.748	-2.33
188.967	9.92
189.186	13.39
189.405	11.43
189.623	23.21
189.842	16.86
190.061	26.07
190.28	31.54
190.498	32.43
190.717	27.15
190.936	20.65
191.154	3.55
191.373	6.18
191.592	-16.18
191.81	-25.89
192.029	-52.33
192.248	-110.62
192.466	-150.48
192.685	-219.67
192.904	-207.29
193.122	-210.03
193.341	-569.93
193.559	-548.67
193.778	-1154.32
193.996	-573.13
194.215	-389.63
194.433	-237.54
194.652	-129.6
194.87	-150.46
195.089	-119.32
195.307	-120.66
195.526	-115.74
195.744	-51.6
195.963	-35.16
196.181	-21.31
196.399	-55.99
196.618	-67.86
196.836	-54.1
197.055	-30.07
197.273	-9.72
197.491	-45.57
197.71	-69.77
197.928	-34.21
198.146	-41.21
198.365	-59.93
198.583	-67.88
198.801	-56.16
199.019	-47.66
199.238	-65.61
199.456	-82.79
199.674	-118.08
199.892	-53.78
200.111	-31.48
200.329	-43.5
200.547	-60.75
200.765	-54.18
200.983	-75.08
201.202	-71.79
201.42	-61.39
201.638	-43.64
201.856	-68.53
202.074	-66.85
202.292	-91.8
202.51	-134.91
202.728	-201.21
202.946	-130.06
203.165	-126.23
203.383	-77.5
203.601	-90.59
203.819	-136.59
204.037	-172.66
204.255	-75.75
204.473	-122.83
204.691	-93.35
204.909	-103.86
205.127	-113.08
205.345	-175.45
205.562	-144.11
205.78	-163.28
205.998	-257.7
206.216	-243.66
206.434	-124.13
206.652	-117.49
206.87	-100.42
207.088	-77.42
207.306	-64.86
207.523	-55.48
207.741	-47.63
207.959	-48.96
208.177	-53.02
208.395	-42.81
208.612	-50.91
208.83	-70.13
209.048	-71.55
209.266	-16.5
209.483	-30.56
209.701	-66.81
209.919	-39.39
210.136	-43.93
210.354	7.68
210.572	13.07
210.79	-1.28
211.007	-6.15
211.225	-10.66
211.442	-17.21
211.66	-79.13
211.878	-94.52
212.095	-39.7
212.313	-50.15
212.53	-34.55
212.748	-29.72
212.966	-31.28
213.183	-37.21
213.401	-12.88
213.618	-22.51
213.836	-12.01
214.053	-8.22
214.271	-6.13
214.488	-14.08
214.705	-24.87
214.923	-39.26
215.14	-74.86
215.358	-68.54
215.575	-45.83
215.793	-64.63
216.01	-78.7
216.227	-86.26
216.445	-54.2
216.662	-45.66
216.879	-48.58
217.097	-31.33
217.314	-20.47
217.531	-16.41
217.749	-18.65
217.966	-21.77
218.183	-10.9
218.4	-8.76
218.618	-16.83
218.835	-27.5
219.052	-24.83
219.269	-27.39
219.487	-35.5
219.704	-37.01
219.921	-23.95
220.138	-19.99
220.355	-17.34
220.572	-20.48
220.79	-18.91
221.007	-11.57
221.224	-22.28
221.441	-19.86
221.658	-12.1
221.875	-9.33
222.092	-7.47
222.309	-12.24
222.526	-14.89
222.743	-17.59
222.96	-22.11
223.177	-17.63
223.394	-17.88
223.611	-13.27
223.828	-15.31
224.045	-16.85
224.262	-10.98
224.479	-10.8
224.696	-7.88
224.913	-2
225.13	0.96
225.347	-1.07
225.564	-1.75
225.781	-1.56
225.997	-0.61
226.214	2.19
226.431	4.58
226.648	1.59
226.865	1.1
227.082	1.38
227.298	0.48
227.515	1
227.732	2.49
227.949	2.33
228.165	1.81
228.382	1.8
228.599	2.35
228.816	2.28
229.032	2.88
229.249	3.03
229.466	2.87
229.682	2.86
229.899	2.68
230.116	2.37
230.332	2.49
230.549	2.63
230.765	2.04
230.982	1.08
231.199	0.24
231.415	-0.58
231.632	-1.43
231.848	-2.64
232.065	-2.11
232.281	-1.83
232.498	-2.12
232.714	-3.38
232.931	-3.28
233.147	-2.26
233.364	-1.34
233.58	-1.5
233.797	-1.13
234.013	-0.67
234.23	-0.05
234.446	-0.38
234.662	-0.56
234.879	0.12
235.095	1.43
235.312	1.57
235.528	0.86
235.744	-0.11
235.961	-0.84
236.177	-1.08
236.393	-0.15
236.61	-0.42
236.826	0.14
237.042	-1.14
237.258	-2.73
237.475	-3.04
237.691	-4.19
237.907	-1.84
238.123	-2.98
238.339	-1.64
238.556	-1.84
238.772	-2.18
238.988	-1.52
239.204	-2.59
239.42	-1.06
239.636	0.51
239.853	1.17
240.069	0.92
240.285	0.99
240.501	2.15
240.717	2.4
240.933	2.47
241.149	2.93
241.365	2.81
241.581	2.81
241.797	2.51
242.013	3
242.229	2.86
242.445	3.42
242.661	3.16
242.877	3.21
243.093	3.22
243.309	3.26
243.525	3.52
243.741	3.97
243.957	3.98
244.173	3.62
244.388	3.16
244.604	3.06
244.82	2.65
245.036	2.42
245.252	2.52
245.468	3.35
245.683	4.52
245.899	4.36
246.115	4.29
246.331	4.66
246.547	4.95
246.762	4.96
246.978	4.82
247.194	5.09
247.409	5.49
247.625	5.63
247.841	4.96
248.057	4.47
248.272	4.33
248.488	4.13
248.703	4.05
248.919	3.95
249.135	3.98
249.35	4.11
249.566	4.05
249.782	3.51
249.997	2.88
250.213	3.24
250.428	3.3
250.644	3.24
250.859	4.14
251.075	3.87
251.29	4.08
251.506	4.38
251.721	4.7
251.937	4.69
252.152	5
252.368	5.23
252.583	5.17
252.798	5.11
253.014	5.38
253.229	5.03
253.445	4.54
253.66	4.03
253.875	3.72
254.091	2.96
254.306	2.99
254.521	2.25
254.737	2.36
254.952	2.76
255.167	3.22
255.383	2.76
255.598	2.7
255.813	3.77
256.028	4.14
256.244	4.09
256.459	4.5
256.674	3.92
256.889	3.82
257.104	3.44
257.32	2.9
257.535	2.07
257.75	2.52
257.965	2.42
258.18	2.36
258.395	2.85
258.61	2.81
258.826	2.63
259.041	2.75
259.256	2.98
259.471	3.02
259.686	3.19
259.901	3.32
260.116	3.26
260.331	3.07
260.546	3.26
260.761	2.9
260.976	2.69
261.191	2.76
261.406	2.6
261.621	2.37
261.836	2.27
262.05	1.89
262.265	1.74
262.48	1.64
262.695	1.56
262.91	1.06
263.125	1.18
263.34	1.37
263.555	1.11
263.769	0.99
263.984	0.61
264.199	0.55
264.414	0.76
264.629	1.06
264.843	1.2
265.058	1.91
265.273	1.69
265.488	1.71
265.702	1.81
265.917	2.31
266.132	2.48
266.346	3.19
266.561	3.13
266.776	3.15
266.99	2.88
267.205	2.2
267.42	1.95
267.634	1.95
267.849	2.21
268.063	1.66
268.278	1.17
268.492	1.67
268.707	1.44
268.922	1.5
269.136	1.75
269.351	1.88
269.565	2.24
269.78	2.12
269.994	2.13
270.209	2.12
270.423	2.53
270.637	2.56
270.852	2.28
271.066	2.19
271.281	2.09
271.495	2.13
271.709	1.96
271.924	2.22
272.138	2.44
272.353	2.56
272.567	2.33
272.781	2.36
272.996	2.11
273.21	2.23
273.424	2.56
273.638	2.52
273.853	2.56
274.067	2.77
274.281	2.83
274.495	2.78
274.71	2.46
274.924	2.5
275.138	2.55
275.352	3.29
275.566	3.31
275.781	2.9
275.995	2.86
276.209	2.59
276.423	2.61
276.637	2.01
276.851	1.75
277.065	2.11
277.279	2.44
277.493	2.49
277.707	2.44
277.921	2.25
278.135	2.4
278.349	2.8
278.563	2.38
278.777	2.5
278.991	2.81
279.205	2.63
279.419	3.07
279.633	2.9
279.847	3.1
280.061	2.74
280.275	2.97
280.489	2.56
280.703	2.63
280.917	3.32
281.131	3.07
281.344	3.05
281.558	3.4
281.772	2.7
281.986	2.86
282.2	2.56
282.414	2.66
282.627	2.58
282.841	3.14
283.055	3.11
283.269	3.1
283.482	3.14
283.696	3.28
283.91	3.2
284.123	3.44
284.337	3.25
284.551	3.36
284.764	3.22
284.978	2.95
285.192	2.75
285.405	2.52
285.619	2.24
285.833	2.3
286.046	2.3
286.26	2.4
286.473	2.36
286.687	2.28
286.9	2.61
287.114	2.84
287.327	3.03
287.541	2.99
287.754	3.05
287.968	3
288.181	3.26
288.395	2.9
288.608	2.69
288.822	2.78
289.035	2.73
289.248	2.37
289.462	2.39
289.675	2.48
289.889	2.44
290.102	2.67
290.315	2.86
290.529	2.62
290.742	3.1
290.955	3.35
291.169	3.36
291.382	3.68
291.595	3.55
291.808	3.41
292.022	3.32
292.235	3.34
292.448	3.14
292.661	2.97
292.875	3.11
293.088	2.96
293.301	2.76
293.514	2.96
293.727	2.91
293.94	3.31
294.153	3.28
294.367	3.5
294.58	3.93
294.793	4.02
295.006	4.09
295.219	4.21
295.432	4.15
295.645	4.45
295.858	4.59
296.071	4.54
296.284	4.75
296.497	4.72
296.71	4.86
296.923	4.82
297.136	4.79
297.349	4.98
297.562	5.1
297.775	5.18
297.988	5.24
298.201	5.26
298.414	5.56
298.626	5.49
298.839	5.65
299.052	5.68
299.265	5.57
299.478	5.97
299.691	6.17
299.903	6.23
300.116	6.45
300.329	6.22
300.542	6.05
300.755	6.14
300.967	6.2
301.18	6.63
301.393	6.56
301.605	7.09
301.818	6.73
302.031	6.85
302.243	6.86
302.456	6.93
302.669	7.15
302.881	7.53
303.094	7.43
303.307	7.5
303.519	7.24
303.732	7.21
303.944	6.92
304.157	7.32
304.37	7.28
304.582	7.19
304.795	7.23
305.007	7.17
305.22	7.26
305.432	7.39
305.645	7.4
305.857	7.38
306.069	7.44
306.282	7.5
306.494	7.47
306.707	7.38
306.919	7.54
307.132	7.43
307.344	7.96
307.556	7.53
307.769	7.35
307.981	7.36
308.193	7.71
308.406	7.76
308.618	7.92
308.83	8.03
309.043	8.28
309.255	8.52
309.467	8.57
309.679	8.48
309.892	8.93
310.104	9.19
310.316	9.29
310.528	9.38
310.74	9.32
310.953	9.11
311.165	8.9
311.377	9.06
311.589	8.82
311.801	8.87
312.013	8.86
312.225	8.64
312.437	8.69
312.649	8.64
312.862	8.47
313.074	8.7
313.286	8.89
313.498	9.31
313.71	9.06
313.922	9.27
314.134	9.32
314.346	9.14
314.558	9.23
314.77	9
314.982	8.86
315.193	8.78
315.405	8.48
315.617	8.34
315.829	8.26
316.041	8.27
316.253	8.34
316.465	8.29
316.677	8.45
316.888	8.63
317.1	8.59
317.312	9.02
317.524	9.56
317.736	9.29
317.947	9.45
318.159	9.46
318.371	9.36
318.583	9.53
318.794	10.02
319.006	10.03
319.218	10.03
319.43	9.9
319.641	9.53
319.853	8.68
320.064	9.08
320.276	9.19
320.488	9.03
320.699	9.23
320.911	9.44
321.123	9.26
321.334	9.47
321.546	9.81
321.757	9.87
321.969	10
322.18	10.81
322.392	11.39
322.603	10.88
322.815	11.12
323.026	11.05
323.238	10.29
323.449	10.31
323.661	10.33
323.872	10.08
324.083	10.35
324.295	10.27
324.506	9.9
324.718	9.61
324.929	10.03
325.14	9.63
325.352	9.78
325.563	10.19
325.774	10.05
325.986	9.66
326.197	9.58
326.408	9.43
326.62	9.4
326.831	9.7
327.042	9.59
327.253	9.49
327.464	9.92
327.676	9.5
327.887	9.25
328.098	9.47
328.309	9.86
328.52	9.73
328.732	9.77
328.943	9.85
329.154	9.84
329.365	10.07
329.576	10.45
329.787	10.08
329.998	10.47
330.209	11.03
330.42	10.82
330.631	10.41
330.842	10.62
331.053	10.43
331.264	10.38
331.475	10.51
331.686	10.46
331.897	10.29
332.108	10.33
332.319	10.22
332.53	9.86
332.741	9.68
332.952	9.72
333.163	9.52
333.374	10.15
333.585	10.29
333.795	10.43
334.006	10.44
334.217	10.16
334.428	10.42
334.639	10.61
334.849	10.73
335.06	11.07
335.271	11.21
335.482	11.53
335.692	11.33
335.903	11.02
336.114	10.82
336.325	10.7
336.535	10.71
336.746	10.69
336.957	10.45
337.167	10.4
337.378	10.23
337.589	10.42
337.799	10.23
338.01	10.4
338.22	10.59
338.431	10.18
338.642	10.29
338.852	10.43
339.063	10.19
339.273	9.95
339.484	9.99
339.694	9.93
339.905	9.79
340.115	9.72
340.326	9.33
340.536	9.29
340.746	9.7
340.957	9.52
341.167	9.66
341.378	9.89
341.588	10.23
341.799	10.18
342.009	10.29
342.219	10.21
342.43	10.46
342.64	10.51
342.85	10.36
343.061	10.31
343.271	10.36
343.481	10.11
343.691	9.99
343.902	10.2
344.112	10
344.322	10.01
344.532	10.16
344.743	9.98
344.953	9.69
345.163	9.81
345.373	9.61
345.583	9.65
345.793	9.7
346.004	9.82
346.214	9.34
346.424	9.5
346.634	9.28
346.844	9.06
347.054	9.04
347.264	9.29
347.474	9.11
347.684	9.2
347.894	9.09
348.104	9.07
348.314	8.48
348.524	8.6
348.734	8.6
348.944	8.9
349.154	8.82
349.364	8.78
349.574	8.68
349.784	8.83
349.994	8.6
350.204	8.73
350.413	8.58
350.623	8.83
350.833	8.97
351.043	8.48
351.253	8.07
351.463	8.27
351.672	8.34
351.882	8.35
352.092	8.56
352.302	8.6
352.511	8.75
352.721	8.7
352.931	8.85
353.141	8.92
353.35	9.27
353.56	9.53
353.77	9.47
353.979	9.35
354.189	9.48
354.399	9.28
354.608	9.75
354.818	9.4
355.027	9.86
355.237	9.76
355.447	9.46
355.656	9.55
355.866	9.08
356.075	9.08
356.285	9.26
356.494	9.27
356.704	9.48
356.913	9.44
357.123	9.52
357.332	9.38
357.542	9.57
357.751	9.8
357.96	9.73
358.17	10.06
358.379	10.22
358.589	9.99
358.798	9.94
359.007	9.79
359.217	9.5
359.426	9.62
359.635	9.58
359.845	9.37
360.054	9.4
360.263	9.44
360.472	9.5
360.682	9.13
360.891	9.07
361.1	9.1
361.309	9.06
361.519	8.97
361.728	8.86
361.937	8.79
362.146	8.85
362.355	8.69
362.564	8.69
362.774	8.61
362.983	8.76
363.192	8.94
363.401	8.8
363.61	8.9
363.819	8.99
364.028	8.94
364.237	8.91
364.446	9.08
364.655	9.1
364.864	9.05
365.073	9.04
365.282	9.05
365.491	9.01
365.7	9.09
365.909	8.87
366.118	8.84
366.327	8.95
366.536	8.85
366.745	8.42
366.954	8.38
367.162	8.43
367.371	8.28
367.58	8.2
367.789	8.17
367.998	8.12
368.207	8.05
368.415	8.06
368.624	8.22
368.833	8.22
369.042	8.44
369.25	8.27
369.459	7.98
369.668	8.16
369.877	8.27
370.085	8.11
370.294	8.1
370.503	8.15
370.711	8.02
370.92	7.79
371.129	7.76
371.337	7.76
371.546	7.89
371.754	8.02
371.963	7.97
372.171	7.78
372.38	7.74
372.589	7.58
372.797	7.59
373.006	7.57
373.214	7.59
373.423	7.58
373.631	7.45
373.84	7.28
374.048	7.31
374.256	7.36
374.465	7.23
374.673	7.16
374.882	7.24
375.09	7.28
375.298	7.24
375.507	6.97
375.715	6.86
375.923	6.7
376.132	6.76
376.34	6.73
376.548	6.46
376.757	6.45
376.965	6.46
377.173	6.61
377.381	6.55
377.59	6.64
377.798	6.97
378.006	7.09
378.214	7.38
378.423	7.42
378.631	7.3
378.839	7.23
379.047	7.21
379.255	7.28
379.463	7.1
379.671	7.14
379.879	7.06
380.088	6.88
380.296	6.82
380.504	6.9
380.712	6.84
380.92	6.64
381.128	6.77
381.336	7.05
381.544	6.99
381.752	7.05
381.96	6.9
382.168	6.98
382.376	6.8
382.584	6.72
382.791	6.43
382.999	6.18
383.207	6.37
383.415	6.15
383.623	6.05
383.831	6.21
384.039	6.09
384.247	6.17
384.454	6.06
384.662	6.05
384.87	6.05
385.078	6.13
385.285	6.31
385.493	6.1
385.701	6.18
385.909	6.09
386.116	5.9
386.324	5.96
386.532	5.9
386.739	5.92
386.947	6.01
387.155	6.16
387.362	6.06
387.57	6.01
387.778	6.2
387.985	6.25
388.193	6.44
388.4	6.18
388.608	6.07
388.816	6.07
389.023	5.92
389.231	5.79
389.438	5.74
389.646	5.59
389.853	5.55
390.061	5.45
390.268	5.39
390.475	5.22
390.683	5.53
390.89	5.57
391.098	5.56
391.305	5.66
391.512	5.62
391.72	5.6
391.927	5.61
392.135	5.65
392.342	5.69
392.549	5.74
392.756	5.76
392.964	5.63
393.171	5.69
393.378	5.58
393.586	5.57
393.793	5.58
394	5.4
394.207	5.51
394.414	5.6
394.622	5.49
394.829	5.42
395.036	5.17
395.243	5.12
395.45	5.05
395.657	5.12
395.864	5.22
396.072	5.22
396.279	5.34
396.486	5.16
396.693	5.1
396.9	5.07
397.107	5.1
397.314	5.32
397.521	5.34
397.728	5.25
397.935	5.28
398.142	5.18
398.349	5.29
398.556	5.18
398.763	5.22
398.97	5.29
399.177	5.29
399.383	5.32
399.59	5.3
399.797	5.41
400.004	5.5
400.211	5.48
400.418	5.52
400.625	5.59
400.831	5.74
401.038	5.68
401.245	5.58
401.452	5.58
401.658	5.4
401.865	5.18
402.072	5.17
402.279	5.15
402.485	5.01
402.692	4.91
402.899	4.76
403.105	4.75
403.312	4.96
403.519	4.89
403.725	5.02
403.932	5.07
404.138	5.12
404.345	5.24
404.552	5.21
404.758	5.26
404.965	5.34
405.171	5.36
405.378	5.32
405.584	5.21
405.791	5.28
405.997	5.28
406.204	5.29
406.41	5.4
406.617	5.13
406.823	5.26
407.029	5.35
407.236	5.33
407.442	5.31
407.649	5.34
407.855	5.35
408.061	5.32
408.268	5.28
408.474	5.25
408.68	5.34
408.887	5.37
409.093	5.31
409.299	5.19
409.505	5.05
409.712	4.96
409.918	4.99
410.124	4.99
410.33	5.06
410.537	5.08
410.743	5.3
410.949	5.27
411.155	5.23
411.361	5.16
411.567	5.08
411.773	5.15
411.98	5.28
412.186	5.2
412.392	5.17
412.598	5.3
412.804	5.18
413.01	5
413.216	5.17
413.422	5.22
413.628	5.18
413.834	5.22
414.04	5.21
414.246	5.16
414.452	5.23
414.658	5.15
414.864	4.91
415.07	4.94
415.275	4.99
415.481	4.93
415.687	4.92
415.893	4.98
416.099	4.91
416.305	4.92
416.511	4.88
416.716	4.78
416.922	4.9
417.128	4.97
417.334	5.09
417.539	5.12
417.745	5.14
417.951	5.22
418.157	5.14
418.362	5.23
418.568	5.11
418.774	5.12
418.979	5.15
419.185	5.16
419.391	5.13
419.596	5.09
419.802	5.11
420.008	5.05
420.213	5.08
420.419	5.15
420.624	5.19
420.83	5.29
421.035	5.31
421.241	5.33
421.446	5.3
421.652	5.33
421.857	5.35
422.063	5.28
422.268	5.24
422.474	5.18
422.679	5.17
422.885	5.11
423.09	5.12
423.295	5.19
423.501	5.16
423.706	5.13
423.911	5.13
424.117	5.13
424.322	5.21
424.527	5.29
424.733	5.35
424.938	5.36
425.143	5.41
425.349	5.42
425.554	5.39
425.759	5.39
425.964	5.36
426.169	5.39
426.375	5.26
426.58	5.16
426.785	5.08
426.99	5.09
427.195	5.14
427.4	5.06
427.605	4.98
427.811	4.87
428.016	4.97
428.221	5.04
428.426	5.01
428.631	5.24
428.836	5.23
429.041	5.23
429.246	5.11
429.451	5.08
429.656	5.28
429.861	5.29
430.066	5.31
430.271	5.25
430.476	5.24
430.681	5.12
430.886	4.95
431.09	4.9
431.295	4.82
431.5	4.82
431.705	4.78
431.91	4.63
432.115	4.73
432.32	4.85
432.524	4.88
432.729	4.86
432.934	4.95
433.139	5.03
433.343	5.15
433.548	5.21
433.753	5.23
433.958	5.21
434.162	5.22
434.367	5.21
434.572	5.14
434.776	5.13
434.981	5.18
435.186	5.25
435.39	5.22
435.595	5.19
435.799	5.25
436.004	5.21
436.209	5.22
436.413	5.21
436.618	5.15
436.822	5.15
437.027	5.09
437.231	5.13
437.436	5.16
437.64	5.23
437.845	5.26
438.049	5.23
438.253	5.27
438.458	5.22
438.662	5.27
438.867	5.26
439.071	5.28
439.275	5.33
439.48	5.3
439.684	5.24
439.888	5.2
440.093	5.15
440.297	5.17
440.501	5.17
440.706	5.23
440.91	5.25
441.114	5.25
441.318	5.19
441.523	5.27
441.727	5.32
441.931	5.3
442.135	5.3
442.339	5.32
442.543	5.25
442.748	5.21
442.952	5.15
443.156	5.07
443.36	5.03
443.564	5.02
443.768	4.98
443.972	4.99
444.176	5.08
444.38	5.07
444.584	5.06
444.788	5.07
444.992	5.12
445.196	5.14
445.4	5.16
445.604	5.23
445.808	5.22
446.012	5.21
446.216	5.13
446.42	5.03
446.624	4.98
446.828	4.93
447.032	4.93
447.235	4.88
447.439	4.9
447.643	4.89
447.847	4.87
448.051	4.86
448.254	4.79
448.458	4.73
448.662	4.79
448.866	4.85
449.069	4.98
449.273	5.05
449.477	5.04
449.681	5.04
449.884	5.05
450.088	5.05
450.292	5.14
450.495	5.2
450.699	5.23
450.902	5.27
451.106	5.32
451.31	5.3
451.513	5.29
451.717	5.29
451.92	5.27
452.124	5.31
452.327	5.28
452.531	5.24
452.734	5.23
452.938	5.27
453.141	5.17
453.345	5.15
453.548	5.18
453.752	5.17
453.955	5.12
454.158	5.14
454.362	5.08
454.565	5.12
454.769	5.09
454.972	5.14
455.175	5.14
455.379	5.12
455.582	5.11
455.785	4.97
455.988	5.01
456.192	5.09
456.395	5.09
456.598	5.09
456.801	5.05
457.005	5.19
457.208	5.16
457.411	5.11
457.614	5.27
457.817	5.31
458.021	5.37
458.224	5.26
458.427	5.24
458.63	5.18
458.833	5.14
459.036	5.11
459.239	5.01
459.442	5.04
459.645	4.99
459.848	4.98
460.051	4.96
460.254	4.95
460.457	4.96
460.66	4.93
460.863	4.95
461.066	5.04
461.269	5.07
461.472	5.13
461.675	5.06
461.878	5.09
462.081	5.09
462.284	5.13
462.486	5.13
462.689	5.24
462.892	5.27
463.095	5.22
463.298	5.23
463.5	5.24
463.703	5.21
463.906	5.2
464.109	5.28
464.311	5.21
464.514	5.12
464.717	5.07
464.92	5.05
465.122	5
465.325	5.16
465.528	5.12
465.73	5.22
465.933	5.22
466.135	5.26
466.338	5.24
466.541	5.23
466.743	5.2
466.946	5.22
467.148	5.22
467.351	5.28
467.553	5.21
467.756	5.21
467.958	5.14
468.161	5.12
468.363	5.07
468.566	5.05
468.768	5.06
468.971	5.11
469.173	5.17
469.375	5.1
469.578	5.21
469.78	5.19
469.983	5.23
470.185	5.1
470.387	5.06
470.59	5.18
470.792	5.2
470.994	5.2
471.196	5.2
471.399	5.16
471.601	5.25
471.803	5.08
472.005	5.1
472.208	5.04
472.41	5.09
472.612	5.1
472.814	5.08
473.016	5.04
473.218	5
473.421	5.02
473.623	4.94
473.825	4.93
474.027	4.99
474.229	4.96
474.431	5.03
474.633	5.15
474.835	5.15
475.037	5.1
475.239	5.22
475.441	5.29
475.643	5.23
475.845	5.35
476.047	5.33
476.249	5.39
476.451	5.44
476.653	5.48
476.855	5.37
477.057	5.4
477.258	5.4
477.46	5.4
477.662	5.44
477.864	5.44
478.066	5.43
478.268	5.45
478.469	5.36
478.671	5.37
478.873	5.31
479.075	5.33
479.276	5.33
479.478	5.33
479.68	5.18
479.882	5.19
480.083	5.18
480.285	5.13
480.487	5.11
480.688	5.13
480.89	5.16
481.091	5.19
481.293	5.2
481.495	5.16
481.696	5.25
481.898	5.28
482.099	5.25
482.301	5.26
482.502	5.28
482.704	5.29
482.905	5.31
483.107	5.29
483.308	5.29
483.51	5.29
483.711	5.31
483.913	5.31
484.114	5.32
484.315	5.31
484.517	5.3
484.718	5.29
484.92	5.26
485.121	5.24
485.322	5.21
485.524	5.17
485.725	5.16
485.926	5.16
486.127	5.08
486.329	5.08
486.53	5.07
486.731	5.09
486.932	5.08
487.134	5.07
487.335	5.07
487.536	5.09
487.737	5.08
487.938	5.05
488.139	5.02
488.341	5.04
488.542	5.04
488.743	5.08
488.944	5.08
489.145	5.09
489.346	5.15
489.547	5.16
489.748	5.18
489.949	5.22
490.15	5.31
490.351	5.33
490.552	5.35
490.753	5.4
490.954	5.38
491.155	5.38
491.356	5.36
491.557	5.35
491.758	5.36
491.959	5.33
492.159	5.3
492.36	5.25
492.561	5.24
492.762	5.2
492.963	5.13
493.164	5.1
493.364	5.14
493.565	5.21
493.766	5.22
493.967	5.19
494.167	5.18
494.368	5.22
494.569	5.27
494.769	5.27
494.97	5.35
495.171	5.37
495.371	5.41
495.572	5.34
495.773	5.34
495.973	5.33
496.174	5.38
496.375	5.42
496.575	5.51
496.776	5.51
496.976	5.54
497.177	5.55
497.377	5.59
497.578	5.58
497.778	5.58
497.979	5.49
498.179	5.48
498.38	5.44
498.58	5.46
498.78	5.37
498.981	5.27
499.181	5.22
499.382	5.27
499.582	5.23
499.782	5.26
499.983	5.25
500.183	5.33
500.383	5.32
500.584	5.35
500.784	5.32
500.984	5.39
501.184	5.52
501.385	5.62
501.585	5.63
501.785	5.63
501.985	5.64
502.185	5.67
502.386	5.7
502.586	5.84
502.786	5.84
502.986	5.87
503.186	5.87
503.386	5.95
503.586	5.99
503.786	6.01
503.987	6.11
504.187	6.08
504.387	6.16
504.587	6.16
504.787	6.18
504.987	6.27
505.187	6.28
505.387	6.3
505.587	6.26
505.786	6.23
505.986	6.27
506.186	6.22
506.386	6.25
506.586	6.24
506.786	6.3
506.986	6.24
507.186	6.27
507.386	6.4
507.585	6.41
507.785	6.54
507.985	6.61
508.185	6.6
508.384	6.71
508.584	6.77
508.784	6.75
508.984	6.81
509.183	6.92
509.383	6.87
509.583	6.84
509.782	6.91
509.982	6.88
510.182	6.94
510.381	7
510.581	7.04
510.781	7.1
510.98	7.14
511.18	7.16
511.379	7.13
511.579	7.23
511.778	7.31
511.978	7.32
512.177	7.31
512.377	7.36
512.576	7.43
512.776	7.44
512.975	7.57
513.175	7.67
513.374	7.73
513.573	7.85
513.773	7.88
513.972	7.94
514.172	7.98
514.371	8.06
514.57	8.04
514.77	7.99
514.969	7.98
515.168	7.89
515.367	7.97
515.567	8.1
515.766	8.16
515.965	8.28
516.164	8.3
516.364	8.38
516.563	8.54
516.762	8.73
516.961	8.86
517.16	9
517.359	9.15
517.559	9.24
517.758	9.23
517.957	9.28
518.156	9.34
518.355	9.37
518.554	9.45
518.753	9.51
518.952	9.52
519.151	9.55
519.35	9.62
519.549	9.64
519.748	9.71
519.947	9.82
520.146	9.88
520.345	10
520.544	10.12
520.743	10.22
520.942	10.25
521.141	10.35
521.339	10.48
521.538	10.56
521.737	10.69
521.936	10.71
522.135	10.77
522.333	10.88
522.532	10.9
522.731	11.03
522.93	11.12
523.129	11.21
523.327	11.33
523.526	11.45
523.725	11.54
523.923	11.63
524.122	11.74
524.321	11.93
524.519	12.02
524.718	12.16
524.917	12.27
525.115	12.35
525.314	12.49
525.512	12.56
525.711	12.61
525.909	12.73
526.108	12.84
526.306	12.96
526.505	13.06
526.703	13.2
526.902	13.32
527.1	13.44
527.299	13.52
527.497	13.64
527.696	13.72
527.894	13.78
528.092	13.87
528.291	13.96
528.489	14.03
528.688	14.07
528.886	14.12
529.084	14.17
529.283	14.22
529.481	14.29
529.679	14.33
529.877	14.39
530.076	14.5
530.274	14.56
530.472	14.64
530.67	14.77
530.869	14.86
531.067	14.97
531.265	15.06
531.463	15.18
531.661	15.32
531.859	15.46
532.057	15.6
532.255	15.74
532.454	15.87
532.652	15.94
532.85	16
533.048	16.07
533.246	16.13
533.444	16.19
533.642	16.27
533.84	16.32
534.038	16.37
534.236	16.42
534.434	16.48
534.632	16.54
534.83	16.62
535.027	16.67
535.225	16.77
535.423	16.86
535.621	17.03
535.819	17.12
536.017	17.24
536.215	17.27
536.412	17.42
536.61	17.46
536.808	17.53
537.006	17.6
537.203	17.71
537.401	17.79
537.599	17.89
537.797	17.95
537.994	18.02
538.192	18.06
538.39	18.22
538.587	18.3
538.785	18.42
538.983	18.55
539.18	18.64
539.378	18.73
539.575	18.81
539.773	18.9
539.97	18.86
540.168	18.96
540.366	19
540.563	19.02
540.761	19.09
540.958	19.15
541.155	19.12
541.353	19.17
541.55	19.2
541.748	19.25
541.945	19.28
542.143	19.35
542.34	19.36
542.537	19.42
542.735	19.46
542.932	19.48
543.129	19.51
543.327	19.61
543.524	19.7
543.721	19.74
543.919	19.79
544.116	19.85
544.313	19.91
544.51	20.02
544.708	20.14
544.905	20.24
545.102	20.32
545.299	20.38
545.496	20.45
545.693	20.45
545.891	20.49
546.088	20.46
546.285	20.54
546.482	20.65
546.679	20.67
546.876	20.68
547.073	20.72
547.27	20.74
547.467	20.73
547.664	20.76
547.861	20.82
548.058	20.92
548.255	21.12
548.452	21.12
548.649	21.09
548.846	21
549.043	21
549.24	20.94
549.437	20.96
549.633	21.08
549.83	21.03
550.027	21.06
550.224	21.11
550.421	21.1
550.618	21.11
550.814	21.18
551.011	21.29
551.208	21.4
551.405	21.47
551.601	21.51
551.798	21.59
551.995	21.7
552.191	21.86
552.388	21.72
552.585	21.65
552.781	21.77
552.978	21.87
553.175	21.9
553.371	21.9
553.568	21.96
553.764	21.99
553.961	21.91
554.157	21.92
554.354	21.85
554.55	22.01
554.747	22.11
554.943	22.14
555.14	22.04
555.336	22.11
555.533	22.15
555.729	22.18
555.926	22.14
556.122	22.18
556.318	22.18
556.515	22.17
556.711	22.2
556.907	22.27
557.104	22.12
557.3	22.17
557.496	22.14
557.693	22.16
557.889	22.2
558.085	22.3
558.281	22.41
558.478	22.44
558.674	22.52
558.87	22.49
559.066	22.47
559.262	22.65
559.459	22.78
559.655	22.84
559.851	22.87
560.047	22.8
560.243	22.87
560.439	22.73
560.635	22.71
560.831	22.65
561.027	22.75
561.223	22.77
561.419	22.77
561.615	22.71
561.811	22.78
562.007	22.74
562.203	22.86
562.399	22.83
562.595	22.98
562.791	23.07
562.987	23.03
563.183	22.98
563.379	23.04
563.575	23.1
563.771	23.02
563.966	23.03
564.162	23.13
564.358	23.17
564.554	23.26
564.75	23.35
564.945	23.37
565.141	23.43
565.337	23.37
565.533	23.38
565.728	23.42
565.924	23.5
566.12	23.47
566.315	23.5
566.511	23.41
566.707	23.41
566.902	23.35
567.098	23.43
567.293	23.44
567.489	23.48
567.684	23.55
567.88	23.52
568.076	23.57
568.271	23.77
568.467	23.7
568.662	23.85
568.858	23.86
569.053	23.96
569.248	23.98
569.444	24.03
569.639	24.05
569.835	24
570.03	23.97
570.225	24.05
570.421	23.97
570.616	24.05
570.812	23.99
571.007	23.98
571.202	23.92
571.397	23.82
571.593	23.91
571.788	24.02
571.983	24.1
572.178	24.13
572.374	24.16
572.569	24.17
572.764	24.14
572.959	24.09
573.154	24.18
573.35	24.18
573.545	24.22
573.74	24.2
573.935	24.12
574.13	24.03
574.325	24.08
574.52	23.99
574.715	24.03
574.91	24.05
575.105	24.14
575.3	24.1
575.495	24.09
575.69	24.01
575.885	23.96
576.08	23.97
576.275	24.05
576.47	23.99
576.665	24.02
576.86	23.9
577.055	23.88
577.25	23.91
577.444	23.85
577.639	24.01
577.834	24.22
578.029	24.12
578.224	24.06
578.418	24.1
578.613	24.31
578.808	24.23
579.003	24.35
579.197	24.54
579.392	24.53
579.587	24.63
579.781	24.55
579.976	24.38
580.171	24.65
580.365	24.79
580.56	24.78
580.755	24.62
580.949	24.75
581.144	24.63
581.338	24.57
581.533	24.72
581.727	24.72
581.922	24.78
582.116	24.96
582.311	24.93
582.505	24.9
582.7	24.89
582.894	24.98
583.089	24.97
583.283	25.06
583.478	25.07
583.672	24.98
583.866	24.99
584.061	25.03
584.255	24.87
584.449	24.84
584.644	24.89
584.838	24.97
585.032	24.92
585.226	24.99
585.421	25.08
585.615	24.99
585.809	24.99
586.003	24.93
586.198	24.82
586.392	24.91
586.586	24.99
586.78	25.05
586.974	25.21
587.168	25.17
587.363	25.01
587.557	24.9
587.751	24.91
587.945	24.89
588.139	24.91
588.333	25.02
588.527	24.98
588.721	24.89
588.915	24.87
589.109	24.69
589.303	24.85
589.497	24.9
589.691	24.94
589.885	24.88
590.079	24.82
590.273	24.88
590.466	24.82
590.66	24.99
590.854	25.11
591.048	25.17
591.242	25.22
591.436	25.14
591.629	25.3
591.823	25.31
592.017	25.48
592.211	25.72
592.404	25.71
592.598	25.71
592.792	25.55
592.986	25.36
593.179	25.36
593.373	25.39
593.567	25.47
593.76	25.34
593.954	25.44
594.147	25.5
594.341	25.41
594.535	25.42
594.728	25.49
594.922	25.77
595.115	25.96
595.309	26.03
595.502	26.08
595.696	26.16
595.889	26.11
596.083	26.14
596.276	26.1
596.47	26.17
596.663	26.19
596.856	26.18
597.05	25.99
597.243	25.92
597.437	25.94
597.63	25.86
597.823	25.8
598.017	25.91
598.21	25.93
598.403	26
598.596	25.86
598.79	25.97
598.983	25.93
599.176	26.14
599.369	26.14
599.563	25.97
599.756	26.03
599.949	26.04
600.142	26.08
600.335	25.98
600.528	25.87
600.722	25.94
600.915	25.93
601.108	25.83
601.301	25.85
601.494	25.75
601.687	25.81
601.88	25.71
602.073	25.61
602.266	25.67
602.459	25.56
602.652	25.57
602.845	25.54
603.038	25.48
603.231	25.57
603.424	25.45
603.617	25.59
603.809	25.62
604.002	25.73
604.195	25.81
604.388	25.85
604.581	25.95
604.774	25.9
604.966	26.04
605.159	26.11
605.352	26.3
605.545	26.35
605.737	26.37
605.93	26.34
606.123	26.33
606.316	26.38
606.508	26.27
606.701	26.22
606.894	26.45
607.086	26.35
607.279	26.36
607.471	26.26
607.664	26.28
607.857	26.32
608.049	26.34
608.242	26.42
608.434	26.47
608.627	26.64
608.819	26.83
609.012	26.77
609.204	27.01
609.397	27.21
609.589	27.29
609.782	27.44
609.974	27.61
610.166	27.87
610.359	28.06
610.551	28.17
610.743	28.35
610.936	28.51
611.128	28.68
611.32	28.69
611.513	28.65
611.705	28.71
611.897	28.66
612.09	28.73
612.282	28.69
612.474	28.54
612.666	28.44
612.858	28.18
613.051	27.87
613.243	27.82
613.435	27.69
613.627	27.62
613.819	27.53
614.011	27.7
614.203	27.51
614.395	27.38
614.588	27.4
614.78	27.4
614.972	27.5
615.164	27.65
615.356	27.67
615.548	27.71
615.74	27.62
615.932	27.51
616.124	27.3
616.315	27.27
616.507	27.35
616.699	27.22
616.891	27.28
617.083	27.28
617.275	27.17
617.467	27.04
617.659	26.93
617.85	26.97
618.042	27
618.234	26.89
618.426	26.89
618.618	26.84
618.809	26.89
619.001	26.97
619.193	26.93
619.384	26.93
619.576	26.93
619.768	26.93
619.959	26.99
620.151	26.96
620.343	27.15
620.534	27.23
620.726	27.23
620.917	27.09
621.109	26.98
621.301	26.93
621.492	26.75
621.684	26.7
621.875	26.72
622.067	26.52
622.258	26.63
622.45	26.59
622.641	26.51
622.832	26.42
623.024	26.57
623.215	26.53
623.407	26.47
623.598	26.66
623.789	26.65
623.981	26.53
624.172	26.52
624.363	26.52
624.555	26.46
624.746	26.44
624.937	26.46
625.129	26.5
625.32	26.52
625.511	26.6
625.702	26.71
625.893	26.72
626.085	26.87
626.276	26.92
626.467	26.94
626.658	27.03
626.849	27.09
627.04	27.08
627.231	26.89
627.422	26.98
627.614	27.03
627.805	26.98
627.996	27.08
628.187	27.15
628.378	27.34
628.569	27.39
628.76	27.37
628.951	27.37
629.142	27.48
629.332	27.53
629.523	27.49
629.714	27.43
629.905	27.41
630.096	27.42
630.287	27.37
630.478	27.26
630.669	27.13
630.859	27.08
631.05	27.07
631.241	27.26
631.432	27.4
631.623	27.24
631.813	27.15
632.004	27.29
632.195	27.16
632.385	27.03
632.576	26.95
632.767	27.04
632.957	27.05
633.148	27.06
633.339	26.79
633.529	26.68
633.72	26.79
633.91	26.81
634.101	26.63
634.292	26.72
634.482	26.68
634.673	26.87
634.863	26.76
635.054	26.78
635.244	26.9
635.435	26.99
635.625	27.01
635.815	27.08
636.006	27.1
636.196	27.06
636.387	27.03
636.577	27.22
636.767	26.94
636.958	26.94
637.148	26.92
637.338	26.83
637.529	26.71
637.719	26.79
637.909	26.83
638.099	26.9
638.29	27.04
638.48	27.05
638.67	26.89
638.86	26.99
639.05	27.01
639.241	26.9
639.431	26.77
639.621	26.86
639.811	26.84
640.001	26.68
640.191	26.74
640.381	26.63
640.571	26.72
640.761	26.84
640.951	26.82
641.141	26.89
641.331	26.82
641.521	26.95
641.711	26.78
641.901	26.76
642.091	26.94
642.281	26.92
642.471	26.92
642.661	26.82
642.851	26.9
643.041	26.98
643.231	26.91
643.42	27.29
643.61	27.28
643.8	27.3
643.99	27.33
644.18	27.33
644.369	27.48
644.559	27.52
644.749	27.57
644.939	27.33
645.128	27.34
645.318	27.29
645.508	27.26
645.697	27.14
645.887	27.34
646.076	27.32
646.266	27.14
646.456	27
646.645	27.01
646.835	26.83
647.024	27.07
647.214	27.03
647.403	26.98
647.593	26.86
647.782	26.92
647.972	26.77
648.161	26.73
648.351	26.87
648.54	26.92
648.73	27.12
648.919	27.43
649.108	27.39
649.298	27.32
649.487	27.56
649.677	27.68
649.866	27.78
650.055	27.88
650.244	27.93
650.434	27.79
650.623	27.81
650.812	27.55
651.002	27.16
651.191	27.12
651.38	27.04
651.569	27
651.758	26.8
651.947	26.89
652.137	26.9
652.326	26.97
652.515	26.89
652.704	26.68
652.893	26.96
653.082	27.35
653.271	27.25
653.46	27.28
653.649	27.44
653.838	27.53
654.027	27.25
654.216	27.12
654.405	27.12
654.594	27.17
654.783	27.28
654.972	27.05
655.161	27.11
655.35	27.04
655.539	27.3
655.728	27.13
655.916	27.18
656.105	27.31
656.294	27.45
656.483	27.53
656.672	27.56
656.86	27.5
657.049	27.62
657.238	27.31
657.427	27.43
657.615	27.31
657.804	27.19
657.993	27.09
658.181	27.09
658.37	27.15
658.559	27.21
658.747	27.42
658.936	27.48
659.125	27.5
659.313	27.62
659.502	27.64
659.69	27.63
659.879	27.83
660.067	28
660.256	28.01
660.444	27.86
660.633	27.66
660.821	27.47
661.01	27.6
661.198	27.56
661.387	27.66
661.575	27.74
661.763	27.68
661.952	27.43
662.14	27.32
662.328	27.38
662.517	27.48
662.705	27.45
662.893	27.54
663.082	27.68
663.27	27.77
663.458	27.7
663.646	27.62
663.834	27.79
664.023	27.92
664.211	27.92
664.399	27.89
664.587	27.88
664.775	27.99
664.963	27.9
665.152	27.54
665.34	27.63
665.528	27.58
665.716	27.54
665.904	27.48
666.092	27.6
666.28	27.68
666.468	27.63
666.656	27.67
666.844	27.67
667.032	27.73
667.22	28.03
667.408	27.79
667.596	27.88
667.784	27.96
667.971	27.94
668.159	27.78
668.347	27.54
668.535	27.45
668.723	27.41
668.911	27.48
669.098	27.17
669.286	26.67
669.474	26.75
669.662	26.9
669.849	26.83
670.037	26.8
670.225	26.89
670.413	27.21
670.6	27.54
670.788	27.48
670.976	27.43
671.163	27.69
671.351	27.95
671.538	27.95
671.726	27.54
671.913	27.65
672.101	27.66
672.289	27.67
672.476	27.39
672.664	26.96
672.851	26.98
673.039	26.91
673.226	26.96
673.413	27.1
673.601	26.81
673.788	26.79
673.976	26.81
674.163	26.99
674.35	26.97
674.538	27.12
674.725	27.29
674.912	27.33
675.1	27.25
675.287	27.05
675.474	26.67
675.662	26.79
675.849	26.83
676.036	26.83
676.223	26.72
676.411	26.99
676.598	26.89
676.785	26.89
676.972	26.97
677.159	27.22
677.346	27.43
677.533	27.83
677.721	28.08
677.908	28.4
678.095	28.45
678.282	28.3
678.469	28.01
678.656	28.11
678.843	28.08
679.03	28.04
679.217	27.84
679.404	27.87
679.591	27.77
679.778	27.74
679.964	27.61
680.151	27.41
680.338	27.61
680.525	27.68
680.712	27.71
680.899	27.85
681.086	27.99
681.272	28.12
681.459	27.98
681.646	28
681.833	28.03
682.02	27.72
682.206	27.82
682.393	27.8
682.58	27.83
682.766	27.78
682.953	27.81
683.14	27.62
683.326	27.55
683.513	27.78
683.7	27.9
683.886	27.72
684.073	28
684.259	28.18
684.446	28.04
684.632	27.86
684.819	27.7
685.005	27.74
685.192	27.73
685.378	27.89
685.565	27.91
685.751	27.74
685.938	27.66
686.124	27.67
686.31	27.53
686.497	27.61
686.683	27.87
686.87	28.21
687.056	28.13
687.242	28.24
687.429	27.79
687.615	27.77
687.801	27.93
687.987	28.36
688.174	28.52
688.36	28.59
688.546	28.37
688.732	28.24
688.918	27.74
689.105	27.64
689.291	27.74
689.477	27.93
689.663	27.96
689.849	27.91
690.035	27.59
690.221	27.22
690.407	27.21
690.593	27.38
690.779	27.25
690.965	27.5
691.151	27.44
691.337	27.43
691.523	27.68
691.709	27.72
691.895	27.64
692.081	27.76
692.267	28.16
692.453	28.46
692.639	28.36
692.825	28.53
693.011	28.61
693.196	28.56
693.382	28.26
693.568	28.39
693.754	28.38
693.94	28.3
694.125	28.01
694.311	28.1
694.497	27.87
694.682	28
694.868	28.01
695.054	27.94
695.239	27.97
695.425	28.23
695.611	28.12
695.796	28.32
695.982	28.85
696.168	29.02
696.353	29.01
696.539	29.11
696.724	29.3
696.91	29.35
697.095	29.16
697.281	29.25
697.466	29.11
697.652	28.95
697.837	28.67
698.023	28.21
698.208	28.24
698.393	28.11
698.579	27.91
698.764	27.86
698.949	27.88
699.135	27.99
699.32	28.13
699.505	28.11
699.691	28.27
699.876	28.43
700.061	28.55
700.246	28.54
700.432	28.39
700.617	28.4
700.802	28.34
700.987	28.44
701.172	28.54
701.358	28.21
701.543	28.32
701.728	28.26
701.913	28.31
702.098	28.57
702.283	28.68
702.468	28.96
702.653	29.14
702.838	29.02
703.023	28.45
703.208	28.45
703.393	28.55
703.578	28.61
703.763	28.52
703.948	28.39
704.133	28.42
704.318	28.44
704.503	28.28
704.688	28.08
704.873	28.24
705.057	28.8
705.242	28.9
705.427	28.96
705.612	28.98
705.797	29.04
705.981	29.16
706.166	28.84
706.351	28.75
706.536	28.91
706.72	29.09
706.905	29.19
707.09	28.97
707.274	28.98
707.459	29.13
707.644	29.12
707.828	29.21
708.013	29.18
708.197	29.48
708.382	29.64
708.567	29.87
708.751	30.22
708.936	30.16
709.12	30.34
709.305	30.03
709.489	30.25
709.673	30.29
709.858	30.08
710.042	29.94
710.227	29.65
710.411	29.28
710.596	29.31
710.78	29.22
710.964	29.05
711.149	28.86
711.333	29.13
711.517	29.08
711.702	29.24
711.886	29.37
712.07	29.38
712.254	29.28
712.438	29.32
712.623	29.14
712.807	28.83
712.991	29
713.175	29.23
713.359	29.14
713.544	29
713.728	28.71
713.912	28.64
714.096	28.89
714.28	28.99
714.464	29.33
714.648	29.17
714.832	29.19
715.016	29.12
715.2	29.16
715.384	29.11
715.568	28.99
715.752	29.12
715.936	29.01
716.12	28.75
716.304	28.67
716.488	28.55
716.671	28.38
716.855	28.4
717.039	28.43
717.223	28.13
717.407	28.02
717.59	28.01
717.774	27.54
717.958	27.79
718.142	27.47
718.325	27.81
718.509	27.76
718.693	27.64
718.877	27.2
719.06	27.22
719.244	27.23
719.428	27.39
719.611	27.41
719.795	27.57
719.978	27.69
720.162	28.13
720.345	28.12
720.529	28.09
720.713	28
720.896	28.49
721.08	28.58
721.263	29.2
721.446	29.13
721.63	29.13
721.813	29.29
721.997	29.3
722.18	28.86
722.364	28.63
722.547	28.67
722.73	29.2
722.914	29.13
723.097	28.83
723.28	28.31
723.464	28.85
723.647	29.01
723.83	29.02
724.013	28.84
724.197	29.24
724.38	29.34
724.563	29.12
724.746	29.38
724.929	29.81
725.112	29.81
725.296	30.12
725.479	29.71
725.662	29.65
725.845	29.26
726.028	29.42
726.211	29.24
726.394	29.27
726.577	29.5
726.76	29.63
726.943	29.39
727.126	29.17
727.309	28.46
727.492	28.6
727.675	28.29
727.858	28.71
728.041	28.3
728.224	28.53
728.407	28.55
728.589	28.41
728.772	27.87
728.955	27.9
729.138	27.89
729.321	28.48
729.503	28.03
729.686	28.02
729.869	28.26
730.052	28.65
730.234	28.48
730.417	28.09
730.6	28.06
730.782	28.13
730.965	27.99
731.148	28.25
731.33	28.22
731.513	28.34
731.695	28.45
731.878	27.84
732.061	27.79
732.243	27.83
732.426	28.13
732.608	28.38
732.791	28.49
732.973	28.39
733.156	28.72
733.338	28.76
733.52	28.7
733.703	28.69
733.885	28.97
734.068	28.86
734.25	28.74
734.432	28.86
734.615	29.05
734.797	28.64
734.979	28.71
735.162	28.15
735.344	27.9
735.526	28.28
735.708	27.94
735.891	28.15
736.073	28.29
736.255	28.22
736.437	28.43
736.619	28.3
736.802	29
736.984	29
737.166	29.37
737.348	29.46
737.53	29.48
737.712	30.01
737.894	30.2
738.076	29.96
738.258	30.22
738.44	30.25
738.622	29.83
738.804	29.67
738.986	29.69
739.168	29.79
739.35	29.65
739.532	29.61
739.714	29.76
739.896	29.96
740.078	30.09
740.259	29.93
740.441	29.38
740.623	29.61
740.805	29.74
740.987	29.64
741.168	29.94
741.35	29.97
741.532	29.96
741.714	29.84
741.895	29.66
742.077	29.98
742.259	30.3
742.44	30.05
742.622	29.83
742.804	29.76
742.985	29.62
743.167	29.43
743.348	29.49
743.53	29.55
743.711	29.52
743.893	29.3
744.075	28.92
744.256	28.89
744.438	29.36
744.619	29.28
744.8	28.84
744.982	29.06
745.163	29.02
745.345	29.34
745.526	29.16
745.707	29.32
745.889	29.37
746.07	29.05
746.252	28.63
746.433	28.91
746.614	28.99
746.795	29.36
746.977	29.37
747.158	28.95
747.339	28.92
747.52	28.69
747.702	28.3
747.883	28.14
748.064	28.03
748.245	28.14
748.426	27.96
748.607	28.47
748.788	27.84
748.97	28.11
749.151	28.4
749.332	28.68
749.513	28.89
749.694	29.13
749.875	29.23
750.056	29.73
750.237	29.94
750.418	30.17
750.599	29.35
750.78	30.18
750.96	29.98
751.141	29.87
751.322	29.65
751.503	29.62
751.684	29.84
751.865	29.87
752.046	29.92
752.226	29.68
752.407	29.36
752.588	29.85
752.769	29.64
752.949	29.56
753.13	29.06
753.311	28.87
753.492	29.1
753.672	29.01
753.853	29.45
754.034	29.89
754.214	29.79
754.395	29.81
754.575	29.98
754.756	30.15
754.937	30.25
755.117	31.29
755.298	31.3
755.478	31.6
755.659	31.41
755.839	30.94
756.02	30.64
756.2	30.82
756.381	31.14
756.561	31.12
756.741	31.3
756.922	31.73
757.102	30.68
757.283	30.33
757.463	29.99
757.643	30.61
757.823	31.06
758.004	30.36
758.184	30.04
758.364	29.62
758.545	29.38
758.725	28.95
758.905	27.96
759.085	28.47
759.265	28.8
759.446	28.53
759.626	28.1
759.806	27.89
759.986	28.07
760.166	28.61
760.346	28.68
760.526	28.96
760.706	28.88
760.886	29.07
761.066	28.94
761.246	28.58
761.426	29
761.606	28.44
761.786	28.42
761.966	28.48
762.146	28.23
762.326	27.89
762.506	27.66
762.686	27.75
762.866	28.09
763.046	28.47
763.225	29.19
763.405	28.94
763.585	29.05
763.765	29.02
763.945	29.27
764.124	29.22
764.304	29.56
764.484	29.55
764.664	29.76
764.843	29.57
765.023	29.17
765.203	28.65
765.382	28.51
765.562	28.69
765.741	28.91
765.921	28.8
766.101	28.85
766.28	29.29
766.46	30.13
766.639	30.1
766.819	30.79
766.998	30.59
767.178	31.19
767.357	31.69
767.537	31.55
767.716	31.25
767.896	31.19
768.075	31.53
768.254	31.16
768.434	30.11
768.613	30.29
768.792	29.36
768.972	29.84
769.151	29.12
769.33	28.48
769.51	28.77
769.689	28.82
769.868	28.84
770.047	29.12
770.226	28.83
770.406	29.46
770.585	28.84
770.764	29.29
770.943	29.59
771.122	29.75
771.301	30.12
771.48	29.91
771.66	30.33
771.839	30.09
772.018	29.93
772.197	29.83
772.376	29.9
772.555	30.05
772.734	30.08
772.913	29.35
773.092	29.22
773.271	29.88
773.449	29.95
773.628	29.57
773.807	30.18
773.986	29.59
774.165	29.41
774.344	29.8
774.523	29.02
774.701	28.74
774.88	29.8
775.059	30.04
775.238	29.43
775.417	29.64
775.595	29.68
775.774	29.14
775.953	28.8
776.131	30.1
776.31	29.05
776.489	30.24
776.667	30.37
776.846	29.97
777.025	30.03
777.203	30.31
777.382	29.89
777.56	29.53
777.739	30.82
777.917	31.29
778.096	30.65
778.274	30.09
778.453	30.14
778.631	30.78
778.81	30.51
778.988	30.18
779.166	30.45
779.345	31.45
779.523	31.72
779.702	30.81
779.88	30.57
780.058	30.54
780.237	31.7
780.415	31.7
780.593	31.49
780.771	31.83
780.95	32.8
781.128	32.81
781.306	32.87
781.484	32.28
781.662	31.74
781.841	32.37
782.019	31.44
782.197	31.13
782.375	30.13
782.553	29.13
782.731	28.55
782.909	27.4
783.087	26.58
783.265	26.02
783.443	26.94
783.621	27.57
783.799	27.51
783.977	28
784.155	27.38
784.333	28.28
784.511	29.6
784.689	30.07
784.867	30.6
785.045	30.51
785.223	30.64
785.4	30.15
785.578	30.66
785.756	31.24
785.934	31.97
786.112	33.26
786.289	32.34
786.467	32.14
786.645	32.23
786.823	32.1
787	32.59
787.178	32.64
787.356	32.11
787.533	31.45
787.711	30.65
787.889	30.33
788.066	29.95
788.244	29.8
788.421	29.72
788.599	30.06
788.776	30.34
788.954	29.62
789.131	29.63
789.309	29.32
789.486	29.79
789.664	30.29
789.841	30.61
790.019	30.03
790.196	30.53
790.373	30.8
790.551	30.6
790.728	29.83
790.906	29.56
791.083	29.55
791.26	30.69
791.437	30.63
791.615	30.47
791.792	29.84
791.969	29.95
792.146	29.91
792.324	28.46
792.501	28.61
792.678	29.14
792.855	29.71
793.032	29.36
793.209	28.18
793.387	27.7
793.564	26.57
793.741	26.89
793.918	26.53
794.095	27.14
794.272	28.9
794.449	28.55
794.626	27.72
794.803	27.68
794.98	26.88
795.157	26.88
795.334	27.46
795.511	28.59
795.688	28.76
795.864	28.78
796.041	28.77
796.218	27.78
796.395	27.9
796.572	28.72
796.749	29.41
796.925	29.88
797.102	30.82
797.279	29.72
797.456	29.45
797.632	29.05
797.809	29.68
797.986	29.38
798.162	29.99
798.339	30.36
798.516	30.08
798.692	29.14
798.869	29.55
799.046	29.51
799.222	30.15
799.399	29.81
799.575	29.75
799.752	30.4
799.928	30.85
800.105	31.07
800.281	30.58
800.458	30.37
800.634	30.69
800.811	30.34
800.987	30.31
801.163	30.54
801.34	30.76
801.516	30.82
801.692	30.09
801.869	28.84
802.045	27.66
802.221	28.78
802.398	28.87
802.574	29.22
802.75	29.59
802.926	30.48
803.103	29.88
803.279	29.92
803.455	30.24
803.631	29.48
803.807	30.61
803.983	31.48
804.16	29.99
804.336	29.7
804.512	31.18
804.688	31.36
804.864	29.77
805.04	29.56
805.216	28.07
805.392	30.24
805.568	30.89
805.744	29.51
805.92	30.19
806.096	29.43
806.272	29.27
806.448	27.25
806.623	27.13
806.799	28.22
806.975	29.2
807.151	29.27
807.327	26.56
807.503	25.78
807.678	28.3
807.854	26.69
808.03	27.57
808.206	27.99
808.381	29.08
808.557	29.19
808.733	28.03
808.908	28.84
809.084	29.13
809.26	29.31
809.435	30.45
809.611	27.69
809.787	28.6
809.962	27.98
810.138	28.26
810.313	27.81
810.489	26.75
810.664	26.97
810.84	25.28
811.015	26.53
811.191	28.06
811.366	27.62
811.542	29.25
811.717	28.09
811.892	28.54
812.068	28.67
812.243	27.46
812.419	27.96
812.594	28.9
812.769	28.99
812.944	28.6
813.12	26.51
813.295	26.55
813.47	25.87
813.645	27.01
813.821	27.87
813.996	28.19
814.171	28.24
814.346	28.24
814.521	27.9
814.697	27.55
814.872	26.27
815.047	26.77
815.222	27.36
815.397	26.82
815.572	25.01
815.747	23.87
815.922	24.41
816.097	24.98
816.272	24.86
816.447	25.32
816.622	26.04
816.797	26.28
816.972	27.6
817.147	27.23
817.322	27.09
817.496	27.95
817.671	27.7
817.846	26.29
818.021	26.18
818.196	25.64
818.371	25.24
818.545	24.85
818.72	26.01
818.895	24.82
819.069	24.44
819.244	25.85
819.419	25.7
819.594	26.46
819.768	26.78
819.943	26.88
820.117	27.54
820.292	27.35
820.467	27.63
820.641	28.03
820.816	28.01
820.99	28.82
821.165	28.78
821.339	29.08
821.514	29.14
821.688	29.22
821.863	29.13
822.037	29.04
822.212	29
822.386	29.01
822.56	29.1
822.735	29.21
822.909	28.77
823.084	28.8
823.258	28.63
823.432	28.4
823.606	28.4
823.781	28.37
823.955	28.58
824.129	28.68
824.303	28.77
824.478	28.84
824.652	28.79
824.826	28.99
825	28.96
825.174	28.97
825.348	29.27
825.523	28.99
825.697	29.15
825.871	28.84
826.045	28.38
826.219	27.79
826.393	27.26
826.567	27.57
826.741	28.05
826.915	28.07
827.089	28.42
827.263	28.13
827.437	28.27
827.611	28.51
827.784	28
827.958	28.58
828.132	29.02
828.306	29.09
828.48	29.2
828.654	28.78
828.827	28.53
829.001	28.49
829.175	28.65
829.349	28.7
829.522	28.78
829.696	29.75
829.87	29.47
830.044	29.17
830.217	29.57
830.391	29.13
830.565	29.41
830.738	30.61
830.912	31.22
831.085	30.85
831.259	30.58
831.432	29.8
831.606	30.01
831.779	29.13
831.953	29.32
832.126	27.91
832.3	27.17
832.473	27.24
832.647	26.68
832.82	26.39
832.994	26.83
833.167	27.44
833.34	27.43
833.514	27.62
833.687	28.04
833.86	27.98
834.034	28.36
834.207	28.61
834.38	28.54
834.553	28.34
834.727	28.42
834.9	28.32
835.073	28.49
835.246	28.49
835.419	28.06
835.593	27.99
835.766	27.93
835.939	27.84
836.112	27.72
836.285	27.98
836.458	28.51
836.631	27.98
836.804	28.05
836.977	28.32
837.15	28.9
837.323	29.93
837.496	30.3
837.669	29.9
837.842	29.75
838.015	29.68
838.188	29.26
838.361	27.98
838.533	28.28
838.706	29.66
838.879	27.13
839.052	27.4
839.225	26.6
839.398	26.11
839.57	27.37
839.743	29.12
839.916	29.43
840.088	31.45
840.261	32.38
840.434	34.19
840.607	33.11
840.779	34.22
840.952	33.86
841.124	33.02
841.297	33
841.47	34.24
841.642	32.97
841.815	32.4
841.987	29.87
842.16	29.3
842.332	27.87
842.505	27.69
842.677	28.71
842.85	28.63
843.022	28.85
843.194	27.57
843.367	24.23
843.539	25.05
843.712	25.49
843.884	23.22
844.056	22.51
844.229	21.23
844.401	20.21
844.573	20.19
844.745	19.08
844.918	19.09
845.09	19.12
845.262	20
845.434	18.72
845.606	18.07
845.779	23.15
845.951	22.31
846.123	25.49
846.295	24.57
846.467	22.87
846.639	24.64
846.811	21.8
846.983	24.82
847.155	24.84
847.327	22.72
847.499	24.34
847.671	21.79
847.843	25.57
848.015	22.27
848.187	24.61
848.359	27.24
848.531	23.85
848.703	28.17
848.875	23.38
849.047	23.79
849.218	24.42
849.39	25.74
849.562	25.17
849.734	26
849.905	24.86
850.077	24.01
850.249	21.97
850.421	21.44
850.592	19.97
850.764	19.89
850.936	18.26
851.107	19.02
851.279	18.6
851.451	20.4
851.622	17.91
851.794	17.46
851.965	21.05
852.137	20.68
852.308	20.92
852.48	18.48
852.651	22.41
852.823	24.25
852.994	24.98
853.166	26.42
853.337	24.66
853.509	25.79
853.68	30.78
853.851	28.29
854.023	28.08
854.194	31.66
854.365	34.13
854.537	38.51
854.708	37.16
854.879	39.36
855.05	33.61
855.222	35.72
855.393	37.4
855.564	33.55
855.735	31.62
855.906	31.84
856.078	32.15
856.249	28.21
856.42	22.46
856.591	27.61
856.762	25.99
856.933	26.96
857.104	25.93
857.275	24.25
857.446	24.38
857.617	24.38
857.788	23.57
857.959	22.6
858.13	28.29
858.301	29.58
858.472	26.45
858.643	25.7
858.814	27.98
858.985	28.96
859.155	29.18
859.326	29.77
859.497	30.45
859.668	29.33
859.839	28.02
860.009	26.03
860.18	25.04
860.351	26.03
860.522	27.04
860.692	25.56
860.863	20.71
861.034	18.21
861.204	16.11
861.375	16.51
861.546	17.91
861.716	20.11
861.887	23.13
862.057	28.01
862.228	24.47
862.398	19.86
862.569	19.27
862.739	21.94
862.91	21.48
863.08	19.61
863.251	17.19
863.421	16.16
863.592	15.3
863.762	13.49
863.932	7.41
864.103	8.88
864.273	10.77
864.443	12.29
864.614	9.17
864.784	8.51
864.954	11.84
865.125	17.07
865.295	14.89
865.465	15.65
865.635	12.13
865.805	11.65
865.976	14.4
866.146	17.6
866.316	17.83
866.486	18.99
866.656	16.17
866.826	16.93
866.996	13.89
867.166	20.74
867.336	14.14
867.506	17.09
867.676	18.7
867.846	15.66
868.016	19.21
868.186	19.25
868.356	21.22
868.526	23.48
868.696	24.86
868.866	29.08
869.036	24.71
869.206	30.65
869.376	29.06
869.545	27.42
869.715	29.88
869.885	26.37
870.055	28.92
870.224	26.79
870.394	25.8
870.564	24.38
870.734	17.33
870.903	21.91
871.073	21.8
871.243	19.57
871.412	18.14
871.582	15.74
871.751	15.08
871.921	10.56
872.091	12.57
872.26	10.83
872.43	16.72
872.599	18.48
872.769	14.59
872.938	14.66
873.108	18.59
873.277	18.47
873.446	18.5
873.616	20.58
873.785	21.99
873.955	20.61
874.124	26.22
874.293	23.1
874.463	27.69
874.632	26.34
874.801	27.41
874.971	25.96
875.14	29.27
875.309	28.88
875.478	29.43
875.647	26.79
875.817	27.99
875.986	23.94
876.155	20.1
876.324	14.8
876.493	22.28
876.662	20.66
876.831	21.41
877	23.58
877.17	24.45
877.339	23.04
877.508	25.58
877.677	25.12
877.846	26.41
878.015	27.51
878.184	29.28
878.352	24.67
878.521	20.71
878.69	18.56
878.859	17.82
879.028	19.19
879.197	18.32
879.366	18.31
879.534	18.32
879.703	20.74
879.872	22.47
880.041	21.07
880.21	22.04
880.378	24.14
880.547	25.48
880.716	26.38
880.884	27.47
881.053	27.24
881.222	28.77
881.39	28.61
881.559	28.57
881.727	28.77
881.896	29.07
882.065	29.4
882.233	29.38
882.402	29.07
882.57	28.74
882.739	28.19
882.907	28.26
883.076	27.19
883.244	27.13
883.412	26.23
883.581	26.15
883.749	26.08
883.918	25.67
884.086	25.17
884.254	25.61
884.423	25.07
884.591	25.41
884.759	25.19
884.927	25.04
885.096	24.72
885.264	25.57
885.432	25.42
885.6	22.99
885.769	22.71
885.937	22.92
886.105	20.16
886.273	21.29
886.441	18.84
886.609	19.2
886.777	20.32
886.945	20.87
887.113	20.83
887.281	18.77
887.449	23.22
887.617	24.19
887.785	23.82
887.953	27.36
888.121	23.48
888.289	22.38
888.457	20.31
888.625	18.38
888.793	18.11
888.961	16.4
889.129	18.24
889.296	15.43
889.464	11.54
889.632	11.83
889.8	5.73
889.967	6.99
890.135	10.85
