Data from 2938774__Reflection_02.txt Node
Date: Fri Mar 13 14:20:11 EDT 2015
User: robert
Spectrometer: USB4E03002
Autoset integration time: false
Trigger mode: 4
Integration Time (sec): 1.000000E-1
Scans to average: 10
Electric dark correction enabled: false
Nonlinearity correction enabled: false
Boxcar width: 5
Stray light correction enabled: false
XAxis mode: Wavelengths
Stop averaging: false
Number of Pixels in Spectrum: 3648
>>>>>Begin Spectral Data<<<<<
177.575	-261.11
177.794	-598.63
178.014	-1881.48
178.233	1004.48
178.452	2043.24
178.672	487.5
178.891	489.02
179.11	3034.78
179.33	-928.36
179.549	-578.57
179.768	-2403.33
179.987	1198.51
180.207	3203.7
180.426	1350.77
180.645	-2360
180.864	-1238.71
181.084	-278.74
181.303	-344.39
181.522	-1555.32
181.741	4673.33
181.96	245.71
182.179	252.25
182.398	190.02
182.618	182.9
182.837	288.93
183.056	243.1
183.275	212.24
183.494	148.94
183.713	158.67
183.932	146.44
184.151	140.92
184.37	140.23
184.589	178.09
184.808	247.78
185.027	111.58
185.246	104.37
185.465	43.6
185.684	40.92
185.903	48.54
186.122	72.5
186.341	84.71
186.56	99.5
186.779	121.28
186.998	109.49
187.216	166.75
187.435	469.49
187.654	210.41
187.873	173.94
188.092	174.79
188.311	331.21
188.53	307.69
188.748	793.75
188.967	-1470.83
189.186	368.12
189.405	374.1
189.623	221.38
189.842	117.63
190.061	148.08
190.28	210.75
190.498	138.23
190.717	127.46
190.936	131.67
191.154	124.79
191.373	129.38
191.592	131.87
191.81	99.21
192.029	80.93
192.248	83.58
192.466	80.97
192.685	76.05
192.904	117.42
193.122	82.69
193.341	45.52
193.559	-31.87
193.778	7.53
193.996	-22.39
194.215	-128
194.433	10.28
194.652	108.11
194.87	171.28
195.089	3080
195.307	323.08
195.526	-93.46
195.744	627.66
195.963	280.33
196.181	271.07
196.399	176.8
196.618	213.47
196.836	277.93
197.055	418.18
197.273	591.21
197.491	1626.47
197.71	1120.37
197.928	366.48
198.146	554.24
198.365	794.67
198.583	763.64
198.801	-197.38
199.019	-103.45
199.238	-69.82
199.456	-100.24
199.674	-145.03
199.892	-157.72
200.111	-116.12
200.329	-84.04
200.547	-73.05
200.765	-175.36
200.983	-142.8
201.202	-318.69
201.42	-758.33
201.638	1660.87
201.856	255.67
202.074	651.22
202.292	226.32
202.51	273.64
202.728	226.81
202.946	371.81
203.165	973.02
203.383	53700
203.601	428.17
203.819	608.91
204.037	359.36
204.255	347
204.473	191.44
204.691	445.3
204.909	222.61
205.127	289.12
205.345	171.89
205.562	125.08
205.78	116.49
205.998	118.66
206.216	98.36
206.434	91.03
206.652	117.88
206.87	156.35
207.088	104.33
207.306	106.83
207.523	116.43
207.741	131
207.959	143.05
208.177	135.42
208.395	140.05
208.612	205.66
208.83	184.41
209.048	217.7
209.266	830
209.483	-288.24
209.701	-936
209.919	490.63
210.136	4720
210.354	-286.11
210.572	28.42
210.79	141.12
211.007	50.94
211.225	389.83
211.442	101.14
211.66	97.46
211.878	103.6
212.095	102.91
212.313	87.41
212.53	76.31
212.748	84.58
212.966	75.65
213.183	87.11
213.401	93
213.618	43.53
213.836	30.32
214.053	22.39
214.271	23.74
214.488	27.51
214.705	14.97
214.923	21.33
215.14	31.07
215.358	28.54
215.575	41.87
215.793	47.18
216.01	42.47
216.227	39.48
216.445	52.59
216.662	48.68
216.879	57.71
217.097	64.09
217.314	58.39
217.531	65.69
217.749	73.74
217.966	69.76
218.183	46.03
218.4	46.27
218.618	53.24
218.835	30.56
219.052	36.7
219.269	27.76
219.487	26.28
219.704	38.82
219.921	12.4
220.138	10.71
220.355	10.82
220.572	8.87
220.79	9.38
221.007	8.66
221.224	14.1
221.441	10.21
221.658	16.72
221.875	13.83
222.092	13.27
222.309	31.58
222.526	34.65
222.743	29.39
222.96	31.59
223.177	36.76
223.394	33.24
223.611	28.76
223.828	30.75
224.045	32.3
224.262	35.84
224.479	33.36
224.696	27.63
224.913	23.61
225.13	22.51
225.347	27.47
225.564	23.35
225.781	26.35
225.997	22.38
226.214	22.63
226.431	17.9
226.648	13.6
226.865	12.09
227.082	10.5
227.298	9.72
227.515	10.03
227.732	7.62
227.949	6.76
228.165	6.04
228.382	6.44
228.599	5.08
228.816	5.11
229.032	4.82
229.249	5.36
229.466	5.61
229.682	5.91
229.899	5.61
230.116	5.15
230.332	5.95
230.549	5.3
230.765	5.72
230.982	5.87
231.199	4.78
231.415	6.37
231.632	6.05
231.848	7.32
232.065	6.24
232.281	6.07
232.498	6.99
232.714	7.81
232.931	9.09
233.147	10.17
233.364	12.53
233.58	12.71
233.797	12.09
234.013	10.62
234.23	8.41
234.446	9.65
234.662	9.88
234.879	8.67
235.095	6.73
235.312	7.7
235.528	5.2
235.744	2.43
235.961	6.28
236.177	5.81
236.393	6.59
236.61	7.02
236.826	5.72
237.042	6.55
237.258	7.22
237.475	8.98
237.691	7.49
237.907	7.73
238.123	9.81
238.339	7.98
238.556	7.06
238.772	7.65
238.988	6.73
239.204	7.11
239.42	7.29
239.636	7.24
239.853	6.46
240.069	7.48
240.285	8.33
240.501	8.35
240.717	7.96
240.933	7.77
241.149	7.11
241.365	7.19
241.581	7.12
241.797	7.18
242.013	7.62
242.229	7.64
242.445	6.99
242.661	7.11
242.877	6.1
243.093	6.28
243.309	6.02
243.525	6.53
243.741	6.3
243.957	6.53
244.173	5.31
244.388	4.83
244.604	4.37
244.82	4.72
245.036	3.92
245.252	4.09
245.468	3.81
245.683	4.59
245.899	3.77
246.115	3.8
246.331	3.75
246.547	4.25
246.762	4.1
246.978	4.11
247.194	3.86
247.409	4.12
247.625	4.43
247.841	4.19
248.057	3.88
248.272	4.08
248.488	4.44
248.703	4.7
248.919	4.56
249.135	4.68
249.35	5.45
249.566	5.93
249.782	5.7
249.997	6.11
250.213	7.08
250.428	7.72
250.644	7.51
250.859	6.71
251.075	6.41
251.29	6.41
251.506	7.09
251.721	6.4
251.937	6.03
252.152	6.29
252.368	6.15
252.583	6.09
252.798	5.89
253.014	6.04
253.229	6.41
253.445	6.33
253.66	6.49
253.875	6.73
254.091	5.78
254.306	5.95
254.521	6.01
254.737	6.27
254.952	5.66
255.167	5.04
255.383	4.98
255.598	4.68
255.813	4.91
256.028	4.62
256.244	3.87
256.459	4.04
256.674	2.92
256.889	2.76
257.104	1.38
257.32	1.32
257.535	2.14
257.75	2.3
257.965	2.51
258.18	2.24
258.395	2.39
258.61	2.71
258.826	3.01
259.041	3.51
259.256	3.69
259.471	3.8
259.686	3.78
259.901	3.49
260.116	3.44
260.331	3.71
260.546	3.92
260.761	4
260.976	3.74
261.191	3.88
261.406	3.93
261.621	3.58
261.836	3.58
262.05	3.2
262.265	3.1
262.48	2.98
262.695	2.09
262.91	1.63
263.125	1.51
263.34	1.62
263.555	1.4
263.769	1.43
263.984	0.88
264.199	0.79
264.414	1.3
264.629	1.87
264.843	2.53
265.058	3.71
265.273	3.75
265.488	4.18
265.702	4.37
265.917	4.14
266.132	3.96
266.346	4.8
266.561	5.3
266.776	5.19
266.99	5.23
267.205	4.78
267.42	4.17
267.634	4.12
267.849	4
268.063	3.98
268.278	3.81
268.492	3.56
268.707	3.38
268.922	2.87
269.136	3.65
269.351	3.42
269.565	3.77
269.78	4.11
269.994	4.26
270.209	3.84
270.423	3.99
270.637	3.94
270.852	4.06
271.066	4.29
271.281	4.29
271.495	3.89
271.709	3.84
271.924	3.9
272.138	3.73
272.353	3.54
272.567	3.78
272.781	3.51
272.996	3.67
273.21	3.95
273.424	4.03
273.638	3.83
273.853	3.49
274.067	3.41
274.281	3.46
274.495	3.47
274.71	3.51
274.924	3.67
275.138	3.9
275.352	3.75
275.566	3.49
275.781	2.88
275.995	3.39
276.209	3.75
276.423	3.64
276.637	3.26
276.851	3.61
277.065	3.87
277.279	3.51
277.493	3.4
277.707	3.88
277.921	4.01
278.135	4.48
278.349	4.37
278.563	4.45
278.777	4.87
278.991	5.37
279.205	5.09
279.419	4.66
279.633	4.46
279.847	4.25
280.061	3.91
280.275	3.48
280.489	3.29
280.703	3.43
280.917	3.25
281.131	3.11
281.344	2.76
281.558	2.34
281.772	2.41
281.986	2.74
282.2	2.87
282.414	2.99
282.627	3.29
282.841	3.26
283.055	3.16
283.269	2.97
283.482	2.94
283.696	3.1
283.91	3.26
284.123	3.36
284.337	3.67
284.551	3.61
284.764	3.71
284.978	3.55
285.192	3.33
285.405	3.26
285.619	3.48
285.833	3.43
286.046	3.08
286.26	3.12
286.473	3.15
286.687	2.43
286.9	2.2
287.114	1.8
287.327	1.73
287.541	1.93
287.754	1.64
287.968	1.72
288.181	1.63
288.395	1.78
288.608	2.17
288.822	2.05
289.035	2.26
289.248	2.37
289.462	2.75
289.675	2.85
289.889	2.87
290.102	3.19
290.315	3.19
290.529	3.47
290.742	3.63
290.955	3.12
291.169	3.49
291.382	3.75
291.595	4.07
291.808	4.01
292.022	4.12
292.235	3.92
292.448	4.14
292.661	4.09
292.875	3.5
293.088	3.83
293.301	3.8
293.514	3.85
293.727	4.28
293.94	4.05
294.153	4.12
294.367	3.88
294.58	4.12
294.793	3.82
295.006	3.83
295.219	3.9
295.432	3.39
295.645	3.7
295.858	3.23
296.071	2.96
296.284	2.75
296.497	2.81
296.71	2.94
296.923	3.24
297.136	3.11
297.349	3.07
297.562	3.34
297.775	3.48
297.988	3.69
298.201	3.92
298.414	3.94
298.626	4.17
298.839	4.06
299.052	4.01
299.265	3.51
299.478	3.8
299.691	4.02
299.903	3.99
300.116	4.18
300.329	3.93
300.542	4.02
300.755	3.72
300.967	3.75
301.18	3.51
301.393	3.62
301.605	3.6
301.818	3.56
302.031	3.47
302.243	3.26
302.456	3.12
302.669	3
302.881	2.72
303.094	3.12
303.307	3.13
303.519	3.11
303.732	3.21
303.944	3.47
304.157	3.35
304.37	3.53
304.582	3.81
304.795	4.09
305.007	4.47
305.22	4.69
305.432	4.5
305.645	4.79
305.857	5.29
306.069	5.58
306.282	5.6
306.494	5.56
306.707	5.26
306.919	4.98
307.132	4.92
307.344	4.72
307.556	5.24
307.769	5.31
307.981	5.29
308.193	5.02
308.406	4.74
308.618	4.49
308.83	4.77
309.043	4.67
309.255	5.01
309.467	5.18
309.679	5.03
309.892	4.41
310.104	4.68
310.316	4.38
310.528	4.29
310.74	4.66
310.953	5.01
311.165	5.04
311.377	5.11
311.589	5.2
311.801	4.89
312.013	5.17
312.225	5.32
312.437	5.12
312.649	5.5
312.862	5.77
313.074	5.42
313.286	5.49
313.498	5.25
313.71	5.85
313.922	5.88
314.134	6.07
314.346	5.87
314.558	6.56
314.77	6.58
314.982	6.41
315.193	6.69
315.405	6.7
315.617	6.72
315.829	6.99
316.041	6.64
316.253	6.46
316.465	6.75
316.677	7.03
316.888	6.48
317.1	6.27
317.312	6.31
317.524	6.47
317.736	6.59
317.947	6.58
318.159	7.18
318.371	7.29
318.583	7.26
318.794	7.31
319.006	7.16
319.218	7.27
319.43	7.18
319.641	7.47
319.853	7.39
320.064	7.65
320.276	7.74
320.488	7.2
320.699	7.33
320.911	8.01
321.123	7.58
321.334	7.2
321.546	7.45
321.757	7.78
321.969	7.23
322.18	7.51
322.392	7.53
322.603	7.68
322.815	7.99
323.026	8.37
323.238	7.98
323.449	8.22
323.661	8.5
323.872	8.29
324.083	8.27
324.295	9.12
324.506	8.89
324.718	8.96
324.929	8.98
325.14	8.62
325.352	8.4
325.563	8.57
325.774	8.59
325.986	9.08
326.197	9.44
326.408	10.02
326.62	9.94
326.831	10.25
327.042	10.47
327.253	10.88
327.464	11.54
327.676	11.62
327.887	11.87
328.098	12.25
328.309	12.39
328.52	12.96
328.732	13.21
328.943	13.48
329.154	13.44
329.365	13.4
329.576	13
329.787	12.94
329.998	13.2
330.209	13.24
330.42	13.76
330.631	14.13
330.842	14.07
331.053	14.4
331.264	14.04
331.475	14.45
331.686	14.98
331.897	15.51
332.108	15.78
332.319	16.24
332.53	16.28
332.741	16.45
332.952	16.35
333.163	15.83
333.374	15.26
333.585	15.74
333.795	15.65
334.006	15.33
334.217	15.26
334.428	15.41
334.639	15.36
334.849	15.24
335.06	14.76
335.271	15.26
335.482	15.76
335.692	16.01
335.903	15.9
336.114	16.25
336.325	16.54
336.535	16.77
336.746	16.7
336.957	16.53
337.167	16.77
337.378	17.13
337.589	16.76
337.799	16.58
338.01	16.91
338.22	16.78
338.431	16.26
338.642	16.23
338.852	16.05
339.063	15.99
339.273	16.15
339.484	16.25
339.694	15.83
339.905	15.85
340.115	16.11
340.326	16.03
340.536	16.31
340.746	16.55
340.957	16.82
341.167	17.01
341.378	17.03
341.588	16.86
341.799	16.8
342.009	16.98
342.219	16.96
342.43	16.69
342.64	16.5
342.85	16.56
343.061	16.72
343.271	16.29
343.481	16.19
343.691	16.14
343.902	16.32
344.112	16.46
344.322	16.26
344.532	16.28
344.743	16.72
344.953	16.92
345.163	16.75
345.373	16.58
345.583	16.52
345.793	16.43
346.004	16.42
346.214	16.15
346.424	16.18
346.634	16.55
346.844	16.39
347.054	16.06
347.264	15.98
347.474	16
347.684	16
347.894	16.36
348.104	16.44
348.314	16.48
348.524	16.52
348.734	16.26
348.944	16.18
349.154	16.44
349.364	16.56
349.574	16.39
349.784	16.62
349.994	16.81
350.204	16.35
350.413	16.67
350.623	16.85
350.833	16.74
351.043	16.83
351.253	16.72
351.463	16.57
351.672	16.33
351.882	16.54
352.092	16.4
352.302	16.52
352.511	16.75
352.721	16.1
352.931	16.08
353.141	15.66
353.35	15.75
353.56	15.82
353.77	15.67
353.979	15.54
354.189	15.21
354.399	14.96
354.608	14.75
354.818	14.57
355.027	14.85
355.237	14.83
355.447	15.23
355.656	15.05
355.866	14.98
356.075	15.04
356.285	15.26
356.494	15.32
356.704	15.38
356.913	15.34
357.123	15.56
357.332	15.37
357.542	15.31
357.751	15.31
357.96	15.15
358.17	14.96
358.379	14.95
358.589	14.9
358.798	15.05
359.007	14.97
359.217	14.96
359.426	14.96
359.635	15.1
359.845	14.97
360.054	14.93
360.263	15.07
360.472	15.03
360.682	14.93
360.891	14.74
361.1	14.64
361.309	14.65
361.519	14.53
361.728	14.48
361.937	14.38
362.146	14.34
362.355	14.2
362.564	14.09
362.774	14.26
362.983	14.16
363.192	14.13
363.401	14.08
363.61	14.03
363.819	14.03
364.028	13.81
364.237	13.91
364.446	13.8
364.655	13.93
364.864	13.97
365.073	13.74
365.282	13.78
365.491	13.81
365.7	14.06
365.909	14.29
366.118	14.41
366.327	14.43
366.536	14.36
366.745	14.42
366.954	14.16
367.162	14.22
367.371	14.37
367.58	14.49
367.789	14.54
367.998	14.01
368.207	13.63
368.415	13.45
368.624	13.56
368.833	13.59
369.042	13.64
369.25	13.9
369.459	13.87
369.668	13.51
369.877	13.31
370.085	13.47
370.294	13.81
370.503	14.21
370.711	14.28
370.92	14.25
371.129	14.08
371.337	14.1
371.546	14.02
371.754	14.18
371.963	14.46
372.171	14.69
372.38	14.65
372.589	14.56
372.797	14.37
373.006	14.42
373.214	14.15
373.423	14.17
373.631	14.24
373.84	14.37
374.048	14.12
374.256	14.03
374.465	13.97
374.673	13.89
374.882	13.77
375.09	13.96
375.298	14.17
375.507	14.37
375.715	14.12
375.923	13.88
376.132	13.93
376.34	13.8
376.548	14.01
376.757	14.1
376.965	13.94
377.173	13.99
377.381	13.84
377.59	13.59
377.798	13.52
378.006	13.7
378.214	13.78
378.423	13.66
378.631	13.75
378.839	13.43
379.047	13.39
379.255	13.51
379.463	13.45
379.671	13.38
379.879	13.4
380.088	13.38
380.296	13.21
380.504	13.02
380.712	13.05
380.92	13.22
381.128	13.28
381.336	12.95
381.544	12.86
381.752	12.69
381.96	12.65
382.168	12.75
382.376	12.86
382.584	13.15
382.791	12.99
382.999	12.8
383.207	12.63
383.415	12.62
383.623	12.59
383.831	12.54
384.039	12.82
384.247	12.72
384.454	12.53
384.662	12.58
384.87	12.25
385.078	12.5
385.285	12.47
385.493	12.34
385.701	12.45
385.909	12.67
386.116	12.78
386.324	12.61
386.532	12.59
386.739	12.69
386.947	12.61
387.155	12.71
387.362	12.74
387.57	12.65
387.778	12.83
387.985	12.82
388.193	12.78
388.4	12.85
388.608	12.91
388.816	12.97
389.023	12.82
389.231	12.75
389.438	12.77
389.646	12.76
389.853	12.98
390.061	13.12
390.268	12.97
390.475	12.89
390.683	12.71
390.89	12.52
391.098	12.4
391.305	12.4
391.512	12.3
391.72	12.29
391.927	12.25
392.135	12.11
392.342	11.84
392.549	11.93
392.756	11.82
392.964	11.83
393.171	11.9
393.378	11.86
393.586	11.98
393.793	12.07
394	12.23
394.207	12.3
394.414	12.36
394.622	12.35
394.829	12.15
395.036	12.15
395.243	12.03
395.45	12.02
395.657	12.13
395.864	11.99
396.072	11.91
396.279	11.85
396.486	11.66
396.693	11.74
396.9	11.81
397.107	11.89
397.314	11.99
397.521	12.13
397.728	12.16
397.935	12.3
398.142	12.3
398.349	12.49
398.556	12.28
398.763	12.26
398.97	12.1
399.177	12.01
399.383	11.99
399.59	11.88
399.797	11.92
400.004	11.82
400.211	11.7
400.418	11.54
400.625	11.4
400.831	11.38
401.038	11.51
401.245	11.6
401.452	11.66
401.658	11.71
401.865	11.82
402.072	11.79
402.279	11.73
402.485	11.75
402.692	11.94
402.899	11.87
403.105	11.86
403.312	11.83
403.519	11.78
403.725	11.83
403.932	11.86
404.138	11.95
404.345	12.07
404.552	12.1
404.758	12.09
404.965	11.83
405.171	12.09
405.378	12.16
405.584	12.07
405.791	12.15
405.997	11.98
406.204	12.06
406.41	11.97
406.617	11.95
406.823	12.09
407.029	12.14
407.236	12.28
407.442	12.06
407.649	12.09
407.855	12.17
408.061	12.1
408.268	12.22
408.474	12.08
408.68	12.05
408.887	12.09
409.093	12.16
409.299	12.2
409.505	12.16
409.712	12.12
409.918	12.11
410.124	12.25
410.33	12.52
410.537	12.5
410.743	12.54
410.949	12.59
411.155	12.53
411.361	12.39
411.567	12.38
411.773	12.61
411.98	12.65
412.186	12.64
412.392	12.52
412.598	12.37
412.804	12.42
413.01	12.36
413.216	12.32
413.422	12.14
413.628	12.26
413.834	12.25
414.04	12.14
414.246	12.08
414.452	12.19
414.658	12.24
414.864	12.03
415.07	12.2
415.275	12.35
415.481	12.41
415.687	12.43
415.893	12.29
416.099	12.15
416.305	12.15
416.511	12.26
416.716	12.23
416.922	12.28
417.128	12.35
417.334	12.15
417.539	11.98
417.745	11.94
417.951	11.96
418.157	11.95
418.362	12.01
418.568	12
418.774	12.04
418.979	12.09
419.185	12.12
419.391	12.11
419.596	12.19
419.802	12.29
420.008	12.28
420.213	12.35
420.419	12.39
420.624	12.36
420.83	12.43
421.035	12.36
421.241	12.29
421.446	12.15
421.652	12.21
421.857	12.2
422.063	12.24
422.268	12.34
422.474	12.32
422.679	12.35
422.885	12.45
423.09	12.35
423.295	12.42
423.501	12.49
423.706	12.59
423.911	12.49
424.117	12.56
424.322	12.53
424.527	12.4
424.733	12.46
424.938	12.4
425.143	12.4
425.349	12.48
425.554	12.43
425.759	12.37
425.964	12.39
426.169	12.48
426.375	12.43
426.58	12.46
426.785	12.57
426.99	12.47
427.195	12.53
427.4	12.45
427.605	12.47
427.811	12.47
428.016	12.48
428.221	12.49
428.426	12.49
428.631	12.51
428.836	12.53
429.041	12.46
429.246	12.46
429.451	12.54
429.656	12.63
429.861	12.73
430.066	12.81
430.271	12.87
430.476	12.82
430.681	12.88
430.886	12.84
431.09	12.76
431.295	13.05
431.5	13.16
431.705	13.24
431.91	13.17
432.115	13.08
432.32	13.13
432.524	13.17
432.729	13.22
432.934	13.22
433.139	13.23
433.343	13.34
433.548	13.15
433.753	13.18
433.958	13.11
434.162	13.21
434.367	13.22
434.572	13.13
434.776	13.16
434.981	13.19
435.186	13.22
435.39	13.22
435.595	13.16
435.799	13.21
436.004	13.2
436.209	13.2
436.413	13.28
436.618	13.28
436.822	13.34
437.027	13.27
437.231	13.25
437.436	13.22
437.64	13.21
437.845	13.34
438.049	13.4
438.253	13.37
438.458	13.36
438.662	13.2
438.867	13.27
439.071	13.25
439.275	13.33
439.48	13.32
439.684	13.39
439.888	13.42
440.093	13.41
440.297	13.35
440.501	13.34
440.706	13.39
440.91	13.51
441.114	13.49
441.318	13.56
441.523	13.59
441.727	13.63
441.931	13.57
442.135	13.56
442.339	13.58
442.543	13.58
442.748	13.65
442.952	13.61
443.156	13.53
443.36	13.65
443.564	13.61
443.768	13.59
443.972	13.53
444.176	13.6
444.38	13.66
444.584	13.62
444.788	13.66
444.992	13.65
445.196	13.61
445.4	13.74
445.604	13.64
445.808	13.6
446.012	13.48
446.216	13.56
446.42	13.51
446.624	13.42
446.828	13.45
447.032	13.4
447.235	13.33
447.439	13.31
447.643	13.19
447.847	13.17
448.051	13.15
448.254	13.25
448.458	13.16
448.662	13.2
448.866	13.28
449.069	13.22
449.273	13.23
449.477	13.34
449.681	13.45
449.884	13.53
450.088	13.55
450.292	13.68
450.495	13.67
450.699	13.68
450.902	13.62
451.106	13.53
451.31	13.69
451.513	13.72
451.717	13.65
451.92	13.56
452.124	13.48
452.327	13.48
452.531	13.47
452.734	13.46
452.938	13.43
453.141	13.47
453.345	13.63
453.548	13.56
453.752	13.59
453.955	13.6
454.158	13.66
454.362	13.73
454.565	13.74
454.769	13.64
454.972	13.66
455.175	13.71
455.379	13.69
455.582	13.7
455.785	13.6
455.988	13.5
456.192	13.6
456.395	13.6
456.598	13.59
456.801	13.65
457.005	13.77
457.208	13.73
457.411	13.77
457.614	13.78
457.817	13.64
458.021	13.57
458.224	13.66
458.427	13.63
458.63	13.54
458.833	13.49
459.036	13.39
459.239	13.39
459.442	13.43
459.645	13.4
459.848	13.39
460.051	13.44
460.254	13.51
460.457	13.5
460.66	13.43
460.863	13.53
461.066	13.61
461.269	13.68
461.472	13.59
461.675	13.6
461.878	13.62
462.081	13.61
462.284	13.71
462.486	13.74
462.689	13.75
462.892	13.8
463.095	13.77
463.298	13.8
463.5	13.77
463.703	13.79
463.906	13.82
464.109	13.87
464.311	13.85
464.514	13.75
464.717	13.72
464.92	13.74
465.122	13.73
465.325	13.78
465.528	13.71
465.73	13.71
465.933	13.78
466.135	13.78
466.338	13.75
466.541	13.82
466.743	13.81
466.946	13.83
467.148	13.83
467.351	13.85
467.553	13.94
467.756	14.03
467.958	14.05
468.161	14.04
468.363	14
468.566	13.99
468.768	13.94
468.971	13.83
469.173	13.94
469.375	13.99
469.578	14.14
469.78	14.07
469.983	13.94
470.185	13.89
470.387	13.91
470.59	13.99
470.792	14
470.994	14.05
471.196	14.14
471.399	14.12
471.601	14.06
471.803	13.92
472.005	13.94
472.208	13.92
472.41	13.93
472.612	14
472.814	13.93
473.016	14.01
473.218	13.97
473.421	13.88
473.623	13.8
473.825	13.75
474.027	13.8
474.229	13.8
474.431	13.84
474.633	13.95
474.835	13.93
475.037	14.04
475.239	14.09
475.441	14.2
475.643	14.3
475.845	14.25
476.047	14.28
476.249	14.3
476.451	14.27
476.653	14.31
476.855	14.27
477.057	14.26
477.258	14.23
477.46	14.17
477.662	14.17
477.864	14.2
478.066	14.21
478.268	14.16
478.469	14.15
478.671	14.06
478.873	14.04
479.075	13.97
479.276	13.91
479.478	13.87
479.68	13.9
479.882	13.84
480.083	13.77
480.285	13.82
480.487	13.86
480.688	13.83
480.89	14.02
481.091	14
481.293	14.03
481.495	14.07
481.696	14.06
481.898	13.98
482.099	13.88
482.301	13.95
482.502	13.95
482.704	13.95
482.905	13.9
483.107	13.82
483.308	13.78
483.51	13.75
483.711	13.73
483.913	13.71
484.114	13.71
484.315	13.73
484.517	13.68
484.718	13.64
484.92	13.62
485.121	13.59
485.322	13.62
485.524	13.67
485.725	13.68
485.926	13.67
486.127	13.66
486.329	13.64
486.53	13.65
486.731	13.67
486.932	13.67
487.134	13.66
487.335	13.73
487.536	13.74
487.737	13.7
487.938	13.71
488.139	13.77
488.341	13.77
488.542	13.79
488.743	13.79
488.944	13.84
489.145	13.9
489.346	13.91
489.547	13.92
489.748	13.88
489.949	13.91
490.15	13.92
490.351	13.86
490.552	13.88
490.753	13.92
490.954	13.92
491.155	13.9
491.356	13.87
491.557	13.89
491.758	13.87
491.959	13.9
492.159	13.9
492.36	13.9
492.561	13.97
492.762	14.01
492.963	14
493.164	14.07
493.364	14
493.565	13.98
493.766	13.95
493.967	13.96
494.167	13.95
494.368	14.01
494.569	14.06
494.769	14.02
494.97	14.04
495.171	14.12
495.371	14.08
495.572	14.2
495.773	14.27
495.973	14.3
496.174	14.3
496.375	14.33
496.575	14.32
496.776	14.3
496.976	14.3
497.177	14.27
497.377	14.27
497.578	14.33
497.778	14.41
497.979	14.36
498.179	14.41
498.38	14.45
498.58	14.41
498.78	14.42
498.981	14.44
499.181	14.45
499.382	14.52
499.582	14.45
499.782	14.45
499.983	14.33
500.183	14.4
500.383	14.33
500.584	14.34
500.784	14.37
500.984	14.42
501.184	14.46
501.385	14.42
501.585	14.41
501.785	14.52
501.985	14.58
502.185	14.67
502.386	14.81
502.586	14.91
502.786	14.96
502.986	15.06
503.186	15.03
503.386	15
503.586	15.07
503.786	15.08
503.987	15.06
504.187	15
504.387	15
504.587	14.85
504.787	14.97
504.987	14.88
505.187	14.95
505.387	14.99
505.587	15.1
505.786	15.15
505.986	15.15
506.186	15.19
506.386	15.23
506.586	15.28
506.786	15.36
506.986	15.42
507.186	15.55
507.386	15.49
507.585	15.47
507.785	15.34
507.985	15.4
508.185	15.5
508.384	15.58
508.584	15.61
508.784	15.6
508.984	15.65
509.183	15.48
509.383	15.6
509.583	15.69
509.782	15.71
509.982	15.93
510.182	15.99
510.381	16.04
510.581	16.01
510.781	15.94
510.98	15.95
511.18	15.99
511.379	16.08
511.579	16.04
511.778	16.06
511.978	16.14
512.177	16.13
512.377	16.14
512.576	16.2
512.776	16.3
512.975	16.47
513.175	16.63
513.374	16.53
513.573	16.58
513.773	16.64
513.972	16.69
514.172	16.74
514.371	16.76
514.57	16.76
514.77	16.7
514.969	16.69
515.168	16.74
515.367	16.79
515.567	17
515.766	17.01
515.965	17
516.164	17.05
516.364	17.09
516.563	17.14
516.762	17.17
516.961	17.23
517.16	17.25
517.359	17.27
517.559	17.32
517.758	17.34
517.957	17.38
518.156	17.4
518.355	17.37
518.554	17.41
518.753	17.47
518.952	17.54
519.151	17.6
519.35	17.65
519.549	17.65
519.748	17.66
519.947	17.72
520.146	17.84
520.345	17.88
520.544	17.94
520.743	18.01
520.942	18.08
521.141	18.12
521.339	18.18
521.538	18.28
521.737	18.45
521.936	18.47
522.135	18.58
522.333	18.61
522.532	18.62
522.731	18.62
522.93	18.67
523.129	18.67
523.327	18.75
523.526	18.8
523.725	18.8
523.923	18.79
524.122	18.83
524.321	18.84
524.519	18.87
524.718	18.93
524.917	19.01
525.115	19
525.314	19.1
525.512	19.03
525.711	19.1
525.909	19.14
526.108	19.16
526.306	19.17
526.505	19.21
526.703	19.22
526.902	19.31
527.1	19.33
527.299	19.37
527.497	19.4
527.696	19.44
527.894	19.39
528.092	19.39
528.291	19.41
528.489	19.42
528.688	19.42
528.886	19.46
529.084	19.46
529.283	19.51
529.481	19.54
529.679	19.55
529.877	19.59
530.076	19.64
530.274	19.71
530.472	19.78
530.67	19.86
530.869	19.92
531.067	19.93
531.265	20
531.463	20.02
531.661	20.08
531.859	20.14
532.057	20.23
532.255	20.3
532.454	20.33
532.652	20.36
532.85	20.38
533.048	20.44
533.246	20.5
533.444	20.5
533.642	20.51
533.84	20.53
534.038	20.52
534.236	20.51
534.434	20.55
534.632	20.59
534.83	20.6
535.027	20.7
535.225	20.68
535.423	20.79
535.621	20.79
535.819	20.87
536.017	20.88
536.215	20.95
536.412	21.01
536.61	21.03
536.808	21.08
537.006	21.12
537.203	21.12
537.401	21.14
537.599	21.13
537.797	21.23
537.994	21.28
538.192	21.42
538.39	21.47
538.587	21.49
538.785	21.61
538.983	21.72
539.18	21.84
539.378	21.93
539.575	22.09
539.773	22.18
539.97	22.23
540.168	22.31
540.366	22.26
540.563	22.26
540.761	22.28
540.958	22.32
541.155	22.28
541.353	22.25
541.55	22.29
541.748	22.31
541.945	22.27
542.143	22.32
542.34	22.33
542.537	22.39
542.735	22.45
542.932	22.44
543.129	22.5
543.327	22.59
543.524	22.75
543.721	22.83
543.919	22.94
544.116	23.17
544.313	23.38
544.51	23.57
544.708	23.79
544.905	23.97
545.102	24.27
545.299	24.39
545.496	24.58
545.693	24.64
545.891	24.6
546.088	24.59
546.285	24.46
546.482	24.4
546.679	24.29
546.876	24.14
547.073	24.1
547.27	23.9
547.467	23.75
547.664	23.61
547.861	23.48
548.058	23.55
548.255	23.47
548.452	23.46
548.649	23.36
548.846	23.32
549.043	23.35
549.24	23.28
549.437	23.36
549.633	23.41
549.83	23.51
550.027	23.58
550.224	23.52
550.421	23.48
550.618	23.53
550.814	23.52
551.011	23.52
551.208	23.52
551.405	23.44
551.601	23.34
551.798	23.31
551.995	23.1
552.191	23.02
552.388	22.94
552.585	23.03
552.781	22.96
552.978	23.01
553.175	22.98
553.371	22.94
553.568	22.95
553.764	23.07
553.961	23.02
554.157	23.07
554.354	23.1
554.55	23.18
554.747	23.21
554.943	23.18
555.14	23.12
555.336	23.15
555.533	23.19
555.729	23.17
555.926	23.05
556.122	23.12
556.318	23.2
556.515	23.09
556.711	22.89
556.907	22.7
557.104	22.88
557.3	23
557.496	22.93
557.693	22.84
557.889	22.85
558.085	22.8
558.281	22.63
558.478	22.58
558.674	22.7
558.87	22.82
559.066	22.97
559.262	22.84
559.459	22.76
559.655	22.77
559.851	22.84
560.047	22.97
560.243	23.08
560.439	23.22
560.635	23.21
560.831	23.2
561.027	23.23
561.223	23.15
561.419	23.16
561.615	23.25
561.811	23.31
562.007	23.13
562.203	23.17
562.399	23.16
562.595	23.25
562.791	23.33
562.987	23.4
563.183	23.44
563.379	23.53
563.575	23.54
563.771	23.49
563.966	23.37
564.162	23.56
564.358	23.39
564.554	23.29
564.75	23.24
564.945	23.16
565.141	23.16
565.337	23.1
565.533	23.14
565.728	23.09
565.924	23.19
566.12	23.34
566.315	23.34
566.511	23.5
566.707	23.55
566.902	23.62
567.098	23.61
567.293	23.53
567.489	23.59
567.684	23.52
567.88	23.61
568.076	23.47
568.271	23.39
568.467	23.34
568.662	23.18
568.858	23.24
569.053	23.18
569.248	23.24
569.444	23.4
569.639	23.35
569.835	23.35
570.03	23.28
570.225	23.2
570.421	23.28
570.616	23.18
570.812	23.19
571.007	23.2
571.202	23.15
571.397	23.06
571.593	22.97
571.788	23.11
571.983	23.08
572.178	23.17
572.374	23.37
572.569	23.28
572.764	23.45
572.959	23.53
573.154	23.46
573.35	23.54
573.545	23.58
573.74	23.63
573.935	23.58
574.13	23.61
574.325	23.59
574.52	23.54
574.715	23.71
574.91	23.68
575.105	23.76
575.3	23.86
575.495	23.86
575.69	23.98
575.885	24.05
576.08	24.17
576.275	24.23
576.47	24.33
576.665	24.36
576.86	24.29
577.055	24.26
577.25	24.38
577.444	24.54
577.639	24.57
577.834	24.52
578.029	24.52
578.224	24.56
578.418	24.54
578.613	24.61
578.808	24.57
579.003	24.59
579.197	24.7
579.392	24.53
579.587	24.5
579.781	24.59
579.976	24.64
580.171	24.63
580.365	24.53
580.56	24.73
580.755	24.68
580.949	24.72
581.144	24.89
581.338	25.03
581.533	25
581.727	25.04
581.922	25.01
582.116	25.11
582.311	25.2
582.505	25.3
582.7	25.23
582.894	25.23
583.089	25.2
583.283	25.03
583.478	25.02
583.672	25.11
583.866	25
584.061	25.14
584.255	25.13
584.449	25.12
584.644	25.09
584.838	25.3
585.032	25.39
585.226	25.5
585.421	25.66
585.615	25.71
585.809	25.76
586.003	25.93
586.198	25.81
586.392	25.9
586.586	26.04
586.78	26.09
586.974	26
587.168	25.92
587.363	25.95
587.557	25.98
587.751	25.7
587.945	25.76
588.139	25.78
588.333	25.84
588.527	25.83
588.721	25.63
588.915	25.48
589.109	25.3
589.303	25.32
589.497	25.34
589.691	25.25
589.885	25.4
590.079	25.31
590.273	25.11
590.466	25.13
590.66	25.2
590.854	25.24
591.048	25.39
591.242	25.58
591.436	25.62
591.629	25.69
591.823	25.68
592.017	25.68
592.211	25.76
592.404	25.9
592.598	25.8
592.792	25.65
592.986	25.68
593.179	25.69
593.373	25.67
593.567	25.67
593.76	25.61
593.954	25.68
594.147	25.77
594.341	25.6
594.535	25.6
594.728	25.68
594.922	25.76
595.115	25.73
595.309	25.61
595.502	25.42
595.696	25.34
595.889	25.3
596.083	25.27
596.276	25.17
596.47	25.27
596.663	25.24
596.856	25.08
597.05	24.99
597.243	24.99
597.437	25.07
597.63	25.19
597.823	25.29
598.017	25.27
598.21	25.32
598.403	25.44
598.596	25.52
598.79	25.63
598.983	25.94
599.176	26.01
599.369	26.15
599.563	26.15
599.756	26.17
599.949	26.16
600.142	26.24
600.335	26.3
600.528	26.37
600.722	26.21
600.915	26.11
601.108	25.99
601.301	26
601.494	25.93
601.687	25.89
601.88	25.76
602.073	25.87
602.266	25.78
602.459	25.67
602.652	25.54
602.845	25.67
603.038	25.62
603.231	25.48
603.424	25.42
603.617	25.43
603.809	25.38
604.002	25.46
604.195	25.37
604.388	25.41
604.581	25.34
604.774	25.29
604.966	25.15
605.159	25.2
605.352	25.33
605.545	25.41
605.737	25.41
605.93	25.54
606.123	25.52
606.316	25.47
606.508	25.49
606.701	25.68
606.894	25.97
607.086	26.21
607.279	26.4
607.471	26.6
607.664	26.74
607.857	27.05
608.049	27.29
608.242	27.68
608.434	28.17
608.627	28.9
608.819	29.54
609.012	30.24
609.204	31.08
609.397	31.91
609.589	32.71
609.782	33.91
609.974	34.83
610.166	36
610.359	37.18
610.551	38.21
610.743	39.08
610.936	39.95
611.128	40.56
611.32	40.9
611.513	41.24
611.705	41.47
611.897	41.18
612.09	41.02
612.282	40.58
612.474	40.01
612.666	39.49
612.858	38.84
613.051	38.17
613.243	37.38
613.435	36.83
613.627	36.29
613.819	35.61
614.011	35.2
614.203	34.75
614.395	34.27
614.588	33.64
614.78	33.05
614.972	32.49
615.164	31.86
615.356	31.59
615.548	31.22
615.74	30.83
615.932	30.79
616.124	30.38
616.315	29.96
616.507	29.64
616.699	29.57
616.891	29.35
617.083	29.09
617.275	29.1
617.467	28.93
617.659	28.85
617.85	28.68
618.042	28.44
618.234	28.42
618.426	28.64
618.618	28.65
618.809	28.68
619.001	28.71
619.193	28.74
619.384	28.58
619.576	28.39
619.768	28.36
619.959	28.24
620.151	28.11
620.343	28.29
620.534	28.08
620.726	27.99
620.917	27.74
621.109	27.84
621.301	27.95
621.492	27.99
621.684	28.15
621.875	28.13
622.067	28.23
622.258	28.43
622.45	28.39
622.641	28.32
622.832	28.52
623.024	28.75
623.215	28.64
623.407	28.49
623.598	28.36
623.789	28.32
623.981	28.36
624.172	28.33
624.363	28.28
624.555	28.22
624.746	28.34
624.937	28.22
625.129	28.12
625.32	28.06
625.511	28.02
625.702	28.25
625.893	28.24
626.085	28.06
626.276	28.03
626.467	27.89
626.658	27.86
626.849	27.75
627.04	27.72
627.231	27.87
627.422	27.98
627.614	27.97
627.805	27.94
627.996	28.05
628.187	28.23
628.378	28.42
628.569	28.68
628.76	28.77
628.951	28.92
629.142	29.13
629.332	29.27
629.523	29.44
629.714	29.67
629.905	29.74
630.096	29.77
630.287	29.7
630.478	29.71
630.669	29.62
630.859	29.69
631.05	29.49
631.241	29.49
631.432	29.24
631.623	29.06
631.813	29.05
632.004	28.87
632.195	28.75
632.385	28.81
632.576	28.45
632.767	28.46
632.957	28.18
633.148	28.1
633.339	27.78
633.529	27.72
633.72	27.69
633.91	27.64
634.101	27.47
634.292	27.36
634.482	27.3
634.673	27.43
634.863	27.31
635.054	27.3
635.244	27.45
635.435	27.42
635.625	27.25
635.815	27.18
636.006	26.87
636.196	26.99
636.387	26.97
636.577	26.85
636.767	26.61
636.958	26.55
637.148	26.63
637.338	26.7
637.529	26.77
637.719	27.02
637.909	27.07
638.099	27.39
638.29	27.55
638.48	27.73
638.67	27.89
638.86	28.09
639.05	28
639.241	27.96
639.431	27.92
639.621	27.86
639.811	27.7
640.001	27.78
640.191	27.59
640.381	27.62
640.571	27.54
640.761	27.43
640.951	27.29
641.141	27.5
641.331	27.62
641.521	27.46
641.711	27.73
641.901	27.7
642.091	27.61
642.281	27.81
642.471	27.44
642.661	27.39
642.851	27.41
643.041	27.62
643.231	27.65
643.42	27.56
643.61	27.45
643.8	27.36
643.99	27.48
644.18	27.34
644.369	27.26
644.559	27.38
644.749	27.45
644.939	27.38
645.128	27.53
645.318	27.54
645.508	27.47
645.697	27.69
645.887	27.6
646.076	27.59
646.266	27.65
646.456	27.64
646.645	27.91
646.835	27.95
647.024	27.9
647.214	27.81
647.403	27.7
647.593	27.69
647.782	27.57
647.972	27.8
648.161	28.03
648.351	28.13
648.54	28.18
648.73	28.05
648.919	28.14
649.108	28.34
649.298	28.49
649.487	28.76
649.677	28.92
649.866	28.89
650.055	28.7
650.244	28.53
650.434	28.61
650.623	28.54
650.812	28.45
651.002	28.24
651.191	28.48
651.38	28.24
651.569	28.14
651.758	28.06
651.947	28.23
652.137	28.22
652.326	28.29
652.515	28.16
652.704	28.33
652.893	28.68
653.082	28.75
653.271	28.48
653.46	28.5
653.649	28.45
653.838	28.59
654.027	28.67
654.216	28.4
654.405	28.19
654.594	28.27
654.783	28.21
654.972	27.91
655.161	28.04
655.35	27.92
655.539	28.19
655.728	28.03
655.916	28.02
656.105	27.75
656.294	28.1
656.483	28.29
656.672	28.13
656.86	27.95
657.049	28.02
657.238	27.81
657.427	27.73
657.615	27.44
657.804	27.59
657.993	27.53
658.181	27.64
658.37	27.5
658.559	27.45
658.747	27.52
658.936	27.52
659.125	27.57
659.313	27.71
659.502	27.71
659.69	27.79
659.879	27.66
660.067	27.64
660.256	27.69
660.444	27.71
660.633	27.71
660.821	27.82
661.01	28.03
661.198	27.93
661.387	27.96
661.575	28.04
661.763	28.11
661.952	28.28
662.14	28.45
662.328	28.56
662.517	28.66
662.705	28.51
662.893	28.37
663.082	28.15
663.27	28.06
663.458	28.32
663.646	28.48
663.834	28.47
664.023	28.48
664.211	28.45
664.399	28.34
664.587	28.16
664.775	28.39
664.963	28.39
665.152	28.23
665.34	28.32
665.528	27.93
665.716	27.95
665.904	28.16
666.092	27.86
666.28	27.76
666.468	27.85
666.656	28.15
666.844	28.16
667.032	28.43
667.22	28.66
667.408	28.66
667.596	28.51
667.784	28.35
667.971	28.22
668.159	28.33
668.347	28.08
668.535	28.01
668.723	27.93
668.911	28.01
669.098	27.94
669.286	27.8
669.474	28.02
669.662	28.53
669.849	28.71
670.037	28.72
670.225	28.99
670.413	29.2
670.6	29.44
670.788	29.33
670.976	29.36
671.163	29.51
671.351	29.8
671.538	29.62
671.726	29.52
671.913	29.58
672.101	29.69
672.289	29.7
672.476	29.64
672.664	29.38
672.851	29.56
673.039	29.48
673.226	29.4
673.413	29.3
673.601	29.45
673.788	29.01
673.976	28.92
674.163	28.88
674.35	28.95
674.538	29
674.725	29.22
674.912	29.09
675.1	28.95
675.287	28.97
675.474	29.11
675.662	29.18
675.849	29.43
676.036	29.55
676.223	29.37
676.411	29.15
676.598	29.06
676.785	28.83
676.972	29.01
677.159	29.18
677.346	29.17
677.533	29.01
677.721	28.8
677.908	28.64
678.095	28.37
678.282	28.32
678.469	28.05
678.656	28.07
678.843	28.4
679.03	28.27
679.217	28.02
679.404	27.9
679.591	27.95
679.778	27.97
679.964	28.05
680.151	28.11
680.338	28.21
680.525	28.3
680.712	28.37
680.899	28.27
681.086	28.25
681.272	28.29
681.459	28.33
681.646	28.48
681.833	28.49
682.02	28.45
682.206	28.35
682.393	28.32
682.58	28.42
682.766	28.43
682.953	28.32
683.14	28.48
683.326	28.97
683.513	29.21
683.7	29.16
683.886	29.16
684.073	29.54
684.259	29.71
684.446	30.01
684.632	30.31
684.819	30.55
685.005	30.64
685.192	30.66
685.378	30.49
685.565	30.48
685.751	30.6
685.938	30.66
686.124	30.71
686.31	30.68
686.497	30.8
686.683	30.56
686.87	30.55
687.056	30.66
687.242	30.64
687.429	30.59
687.615	30.37
687.801	30.08
687.987	30.29
688.174	30.1
688.36	30.14
688.546	29.73
688.732	30.14
688.918	30.13
689.105	30.12
689.291	30.1
689.477	30.05
689.663	30.03
689.849	30.14
690.035	30.25
690.221	30.29
690.407	30.33
690.593	30.43
690.779	30.16
690.965	29.97
691.151	29.67
691.337	29.84
691.523	29.9
691.709	30.21
691.895	30.32
692.081	29.88
692.267	29.74
692.453	29.72
692.639	29.65
692.825	29.72
693.011	29.91
693.196	30.43
693.382	30.14
693.568	30.01
693.754	29.97
693.94	30.12
694.125	30.57
694.311	30.61
694.497	30.68
694.682	30.72
694.868	30.47
695.054	30.3
695.239	30.16
695.425	30.34
695.611	30.85
695.796	30.3
695.982	30.15
696.168	30.02
696.353	30.06
696.539	29.65
696.724	29.87
696.91	29.93
697.095	29.86
697.281	29.65
697.466	29.65
697.652	29.18
697.837	29.47
698.023	29.39
698.208	29.17
698.393	28.96
698.579	29.16
698.764	29.13
698.949	28.97
699.135	28.89
699.32	28.79
699.505	28.65
699.691	28.69
699.876	28.69
700.061	28.88
700.246	28.91
700.432	29.04
700.617	29.1
700.802	29.04
700.987	29.5
701.172	29.07
701.358	29.32
701.543	29.6
701.728	29.84
701.913	29.74
702.098	29.5
702.283	29.85
702.468	29.69
702.653	30.12
702.838	30.26
703.023	30.23
703.208	31.12
703.393	31.37
703.578	31.39
703.763	31.42
703.948	31.74
704.133	32.17
704.318	32.33
704.503	32.94
704.688	32.97
704.873	33.12
705.057	33.04
705.242	33.59
705.427	33.78
705.612	33.83
705.797	34.09
705.981	34.41
706.166	34.56
706.351	34.54
706.536	34.95
706.72	35.17
706.905	35.43
707.09	35.7
707.274	35.46
707.459	35.2
707.644	35.25
707.828	35.46
708.013	35.11
708.197	35.24
708.382	35.42
708.567	35.08
708.751	34.72
708.936	34.39
709.12	34.61
709.305	34.71
709.489	34.86
709.673	34.86
709.858	34.57
710.042	34.69
710.227	34.49
710.411	34.31
710.596	34.08
710.78	34.23
710.964	34.42
711.149	34.16
711.333	33.99
711.517	33.82
711.702	34.05
711.886	34.01
712.07	34.06
712.254	33.9
712.438	33.97
712.623	33.91
712.807	33.48
712.991	33.27
713.175	33.34
713.359	33.38
713.544	33.38
713.728	32.9
713.912	32.6
714.096	32.32
714.28	31.99
714.464	31.75
714.648	31.6
714.832	31.59
715.016	31.16
715.2	30.69
715.384	30.37
715.568	30.24
715.752	30.19
715.936	30.51
716.12	30.06
716.304	29.84
716.488	29.73
716.671	29.84
716.855	30.04
717.039	30.17
717.223	30.43
717.407	30.37
717.59	30.29
717.774	30.37
717.958	29.95
718.142	30.22
718.325	30.72
718.509	30.58
718.693	30.61
718.877	30.33
719.06	30.97
719.244	30.95
719.428	31.15
719.611	31.31
719.795	31.43
719.978	30.99
720.162	31.21
720.345	30.95
720.529	31.24
720.713	31.57
720.896	31.95
721.08	31.33
721.263	31.65
721.446	31.74
721.63	31.8
721.813	31.88
721.997	32.55
722.18	32.32
722.364	33.11
722.547	32.85
722.73	32.23
722.914	32.35
723.097	32.44
723.28	31.71
723.464	31.15
723.647	31.46
723.83	30.84
724.013	31.06
724.197	31.22
724.38	30.68
724.563	31.08
724.746	31.25
724.929	30.51
725.112	30.48
725.296	30.7
725.479	30.72
725.662	29.99
725.845	30.57
726.028	30.44
726.211	30.65
726.394	30.6
726.577	30.54
726.76	30.38
726.943	31.09
727.126	30.6
727.309	30.96
727.492	31.37
727.675	31.53
727.858	31.09
728.041	31.17
728.224	31.19
728.407	30.99
728.589	31.17
728.772	31.97
728.955	31.43
729.138	31.45
729.321	31.02
729.503	31.18
729.686	31.1
729.869	31.55
730.052	31.5
730.234	31.54
730.417	31.39
730.6	31.04
730.782	30.2
730.965	30.38
731.148	31.04
731.33	31.08
731.513	30.59
731.695	30.95
731.878	30.44
732.061	30.55
732.243	30.81
732.426	30.93
732.608	31.09
732.791	31.43
732.973	31.28
733.156	31.23
733.338	31.23
733.52	31.44
733.703	31.02
733.885	31.3
734.068	30.86
734.25	30.63
734.432	30.99
734.615	31
734.797	31.15
734.979	31.75
735.162	31.66
735.344	31.94
735.526	32.11
735.708	32.35
735.891	32.41
736.073	32.56
736.255	32.43
736.437	32.46
736.619	32.15
736.802	31.83
736.984	31.35
737.166	31.92
737.348	31.7
737.53	31.85
737.712	31.52
737.894	31.57
738.076	31.77
738.258	31.58
738.44	31
738.622	31.33
738.804	31.16
738.986	31.15
739.168	31.12
739.35	30.89
739.532	30.84
739.714	31.32
739.896	31.53
740.078	31.69
740.259	31.45
740.441	32.01
740.623	32.04
740.805	32.04
740.987	32.18
741.168	31.59
741.35	32.3
741.532	32.57
741.714	32.85
741.895	32.77
742.077	33
742.259	33.67
742.44	33.63
742.622	33.36
742.804	33.92
742.985	33.99
743.167	34.71
743.348	34.25
743.53	33.88
743.711	33.85
743.893	34.02
744.075	33.45
744.256	33.89
744.438	33.45
744.619	33.82
744.8	33.84
744.982	33.05
745.163	33.03
745.345	33.4
745.526	33.81
745.707	33.73
745.889	33.08
746.07	33.28
746.252	33.25
746.433	33.44
746.614	33.5
746.795	33.34
746.977	33.92
747.158	33.55
747.339	33.47
747.52	33.37
747.702	33.55
747.883	34.34
748.064	34.53
748.245	34.13
748.426	33.91
748.607	33.66
748.788	33.88
748.97	34.08
749.151	33.86
749.332	33.91
749.513	34.59
749.694	34.61
749.875	34.46
750.056	33.64
750.237	33.63
750.418	34.14
750.599	34.1
750.78	33.77
750.96	33.75
751.141	33.61
751.322	33.12
751.503	32.89
751.684	32.49
751.865	33.21
752.046	33.89
752.226	34.19
752.407	33.96
752.588	34.17
752.769	34.17
752.949	34.57
753.13	34.82
753.311	34.8
753.492	34.11
753.672	33.78
753.853	32.76
754.034	32.74
754.214	32.7
754.395	32.98
754.575	32.71
754.756	32.88
754.937	32.35
755.117	32.16
755.298	32.7
755.478	32.85
755.659	33.02
755.839	33.44
756.02	33.79
756.2	33.46
756.381	32.77
756.561	32.38
756.741	32.85
756.922	32.87
757.102	32.72
757.283	32.76
757.463	32.6
757.643	33.08
757.823	33.05
758.004	32.47
758.184	32.64
758.364	32.3
758.545	33.08
758.725	32.21
758.905	31.96
759.085	31.4
759.265	31.03
759.446	30.74
759.626	30.17
759.806	29.81
759.986	30.33
760.166	30.32
760.346	30.91
760.526	30.76
760.706	30.68
760.886	30.69
761.066	31.25
761.246	31.18
761.426	30.88
761.606	30.84
761.786	29.63
761.966	29.07
762.146	28.57
762.326	28.57
762.506	28.4
762.686	28.8
762.866	29.1
763.046	28.85
763.225	28.87
763.405	28.94
763.585	28.97
763.765	29.59
763.945	29.62
764.124	30.11
764.304	30.07
764.484	30.46
764.664	30.46
764.843	30.81
765.023	30.97
765.203	31
765.382	31.47
765.562	31.47
765.741	31.8
765.921	32.09
766.101	31.87
766.28	31.97
766.46	31.31
766.639	31.7
766.819	31.65
766.998	31.45
767.178	31.85
767.357	31.93
767.537	32.19
767.716	32.71
767.896	32.8
768.075	32.52
768.254	32.66
768.434	33.09
768.613	32.6
768.792	31.83
768.972	32.35
769.151	32.19
769.33	32.67
769.51	33.28
769.689	33.46
769.868	33.72
770.047	33.22
770.226	33.53
770.406	33.13
770.585	32.97
770.764	33.25
770.943	33.2
771.122	32.82
771.301	32.89
771.48	32.37
771.66	31.46
771.839	30.92
772.018	32.66
772.197	32.48
772.376	33.12
772.555	34.14
772.734	34.47
772.913	34.47
773.092	35.75
773.271	34.53
773.449	34.93
773.628	35
773.807	35.96
773.986	35.22
774.165	35.06
774.344	35.15
774.523	34.42
774.701	34.35
774.88	34.21
775.059	33.14
775.238	33.88
775.417	33.53
775.595	33.64
775.774	33.14
775.953	33.22
776.131	33.23
776.31	33.38
776.489	33.45
776.667	33.5
776.846	34.53
777.025	35.08
777.203	35.47
777.382	35.85
777.56	36.14
777.739	36.19
777.917	36.08
778.096	36.38
778.274	35.95
778.453	35.84
778.631	36.35
778.81	35.03
778.988	36.01
779.166	35.02
779.345	34.78
779.523	34.35
779.702	34.35
779.88	34.16
780.058	33.98
780.237	34.2
780.415	34.19
780.593	33.55
780.771	34.41
780.95	33.18
781.128	33.88
781.306	33.87
781.484	34.62
781.662	34.62
781.841	35.64
782.019	35.23
782.197	35.34
782.375	35.2
782.553	34.94
782.731	34.47
782.909	34.4
783.087	34.67
783.265	34.8
783.443	34.83
783.621	34.23
783.799	34.19
783.977	34.96
784.155	34.08
784.333	35.06
784.511	35.17
784.689	35.67
784.867	35.01
785.045	34.94
785.223	33.85
785.4	32.64
785.578	34.5
785.756	33.34
785.934	33.35
786.112	32.84
786.289	33.01
786.467	33.41
786.645	33.15
786.823	33.23
787	32.41
787.178	33.46
787.356	34.54
787.533	32.64
787.711	33.24
787.889	32.81
788.066	33.19
788.244	32.22
788.421	31.28
788.599	32.69
788.776	33.06
788.954	34.5
789.131	33.72
789.309	33.76
789.486	33.73
789.664	33.92
789.841	34.56
790.019	34.94
790.196	35.2
790.373	36.61
790.551	35.69
790.728	36.2
790.906	35.69
791.083	35.65
791.26	35.13
791.437	35.49
791.615	34.93
791.792	33.78
791.969	34.9
792.146	35.24
792.324	34.98
792.501	34.71
792.678	34.74
792.855	34.35
793.032	35.11
793.209	34.44
793.387	35.54
793.564	35.05
793.741	35.89
793.918	34.58
794.095	35.37
794.272	35.45
794.449	34.68
794.626	34.96
794.803	34.95
794.98	33.81
795.157	34.47
795.334	34.28
795.511	34.63
795.688	34.95
795.864	35.49
796.041	35.11
796.218	34.79
796.395	35.09
796.572	34.8
796.749	33.97
796.925	34.67
797.102	34.82
797.279	33.94
797.456	34.2
797.632	33.33
797.809	32.63
797.986	31.61
798.162	30.86
798.339	31.25
798.516	30.55
798.692	31.37
798.869	31.61
799.046	31.24
799.222	31.22
799.399	31.76
799.575	31.85
799.752	32.21
799.928	33.48
800.105	33.3
800.281	33.45
800.458	33.83
800.634	34.29
800.811	33.96
800.987	35.08
801.163	35.38
801.34	35.29
801.516	34.78
801.692	34.18
801.869	33.9
802.045	33.46
802.221	33.01
802.398	32.65
802.574	31.56
802.75	32.79
802.926	31.28
803.103	31.9
803.279	32.47
803.455	33.6
803.631	34.21
803.807	33.01
803.983	36.35
804.16	36.61
804.336	37.1
804.512	37.67
804.688	37.3
804.864	38.68
805.04	38.03
805.216	36.14
805.392	36.78
805.568	37.6
805.744	37.69
805.92	35.23
806.096	34.92
806.272	35.98
806.448	36.14
806.623	35.49
806.799	35.17
806.975	36.26
807.151	36.87
807.327	36.37
807.503	36.24
807.678	36.1
807.854	35.84
808.03	36.27
808.206	36.23
808.381	36.12
808.557	36
808.733	35.21
808.908	34.36
809.084	33.67
809.26	33.16
809.435	31.98
809.611	32.97
809.787	35.85
809.962	35.23
810.138	33.64
810.313	33.87
810.489	34.61
810.664	33.9
810.84	34.48
811.015	36.8
811.191	38.93
811.366	38.94
811.542	38.95
811.717	36.01
811.892	36.67
812.068	37.59
812.243	36.92
812.419	36.97
812.594	38.05
812.769	36.73
812.944	34.9
813.12	33.55
813.295	35.28
813.47	34.44
813.645	35.92
813.821	35.09
813.996	34.99
814.171	35.52
814.346	34.88
814.521	34.56
814.697	34.54
814.872	36.23
815.047	35.48
815.222	34.45
815.397	33.65
815.572	32.97
815.747	34.06
815.922	33.21
816.097	32.57
816.272	33.42
816.447	34.17
816.622	36.46
816.797	34.26
816.972	34.89
817.147	35.39
817.322	35.71
817.496	36.55
817.671	36.06
817.846	36.26
818.021	36.12
818.196	35.14
818.371	34.85
818.545	33.33
818.72	34.84
818.895	33.46
819.069	32.37
819.244	33.5
819.419	32.54
819.594	32.3
819.768	31.53
819.943	32.55
820.117	31.74
820.292	31.07
820.467	31.11
820.641	30.32
820.816	30.09
820.99	29.79
821.165	29.03
821.339	28.68
821.514	28.56
821.688	28.66
821.863	28.09
822.037	28.08
822.212	27.88
822.386	27.86
822.56	27.51
822.735	27.54
822.909	27.49
823.084	27.57
823.258	27.55
823.432	27.6
823.606	27.6
823.781	27.59
823.955	27.63
824.129	27.75
824.303	27.7
824.478	27.96
824.652	28.06
824.826	28.34
825	27.88
825.174	28.01
825.348	28.47
825.523	28.08
825.697	28.14
825.871	28.1
826.045	28.39
826.219	28.45
826.393	28.38
826.567	28.16
826.741	28.09
826.915	28.68
827.089	28.7
827.263	27.69
827.437	27.64
827.611	27.91
827.784	28.06
827.958	27.47
828.132	26.94
828.306	27.5
828.48	27.59
828.654	27.67
828.827	27.37
829.001	27.21
829.175	27.13
829.349	27.54
829.522	27.33
829.696	26.96
829.87	27.87
830.044	28.22
830.217	27.2
830.391	26.62
830.565	27.17
830.738	27.23
830.912	27.35
831.085	28.03
831.259	29.83
831.432	28.3
831.606	30.25
831.779	29.42
831.953	29.27
832.126	29.33
832.3	30.54
832.473	29.55
832.647	28.67
832.82	29.02
832.994	28.37
833.167	27.01
833.34	28.46
833.514	27.89
833.687	28.35
833.86	28.36
834.034	28.82
834.207	28.58
834.38	28.98
834.553	29.7
834.727	29.62
834.9	29.68
835.073	29.63
835.246	29.66
835.419	29.67
835.593	29.27
835.766	29.51
835.939	29.22
836.112	29.46
836.285	28.76
836.458	28.87
836.631	28.67
836.804	30.47
836.977	31.87
837.15	32.19
837.323	31.91
837.496	32.93
837.669	33.15
837.842	33.41
838.015	32.44
838.188	33.01
838.361	33.01
838.533	32.99
838.706	33.31
838.879	32.2
839.052	30.9
839.225	30.38
839.398	30.39
839.57	30.98
839.743	30.47
839.916	31.75
840.088	30.82
840.261	30.77
840.434	30.47
840.607	28.99
840.779	28.86
840.952	29.34
841.124	29.83
841.297	29.48
841.47	27.85
841.642	27.76
841.815	26.43
841.987	27.89
842.16	27.78
842.332	27.46
842.505	29.7
842.677	30.78
842.85	30.71
843.022	31.84
843.194	31.89
843.367	32.05
843.539	32.27
843.712	34.47
843.884	37.11
844.056	38.04
844.229	39.62
844.401	36.25
844.573	35.1
844.745	35.98
844.918	36.19
845.09	36.51
845.262	37.63
845.434	39.11
845.606	38.77
845.779	34.85
845.951	35.73
846.123	35.48
846.295	35.36
846.467	33.27
846.639	33.36
846.811	33.37
846.983	34.24
847.155	35.5
847.327	34.12
847.499	32.01
847.671	36.53
847.843	37.51
848.015	37.64
848.187	40.73
848.359	42.3
848.531	43.05
848.703	41.65
848.875	42.68
849.047	40.88
849.218	43.23
849.39	43.94
849.562	40.14
849.734	37.22
849.905	36.98
850.077	39
850.249	39.75
850.421	41.09
850.592	44.46
850.764	42.65
850.936	44.62
851.107	43.45
851.279	47.18
851.451	50.56
851.622	52.79
851.794	50.66
851.965	44.87
852.137	45.16
852.308	41.28
852.48	44.69
852.651	46.54
852.823	48.09
852.994	47.07
853.166	43.64
853.337	39.26
853.509	41.79
853.68	44.43
853.851	47.61
854.023	50.98
854.194	53.65
854.365	47.56
854.537	46.11
854.708	42.66
854.879	42.71
855.05	43.47
855.222	49.92
855.393	46.59
855.564	47.12
855.735	42.27
855.906	40.77
856.078	39.38
856.249	41.06
856.42	38.14
856.591	40.78
856.762	39.18
856.933	36.88
857.104	33.27
857.275	34.53
857.446	34.72
857.617	38.72
857.788	39.58
857.959	40.94
858.13	39.43
858.301	44.46
858.472	43.15
858.643	46.83
858.814	50.6
858.985	48.87
859.155	43.87
859.326	44.58
859.497	42.09
859.668	42.49
859.839	42.76
860.009	43.84
860.18	40.54
860.351	39.17
860.522	36.24
860.692	34.48
860.863	34.88
861.034	36.35
861.204	35.07
861.375	36.84
861.546	32.7
861.716	28.72
861.887	28.52
862.057	31.02
862.228	32.49
862.398	33.53
862.569	39.89
862.739	44.14
862.91	44.97
863.08	45.76
863.251	50.16
863.421	53.93
863.592	53.5
863.762	50.59
863.932	45.85
864.103	45.63
864.273	41.31
864.443	37.06
864.614	36.79
864.784	34.37
864.954	32.87
865.125	30.01
865.295	30.04
865.465	28.77
865.635	31.32
865.805	31.79
865.976	36.51
866.146	41.98
866.316	40.53
866.486	37.34
866.656	44.94
866.826	43.69
866.996	41.4
867.166	39.41
867.336	41.64
867.506	42.74
867.676	42.61
867.846	37.87
868.016	37.8
868.186	36.91
868.356	34.45
868.526	32.25
868.696	34.05
868.866	32.52
869.036	32.24
869.206	34.63
869.376	35.28
869.545	34.48
869.715	39.05
869.885	42.94
870.055	46.97
870.224	49.96
870.394	43.16
870.564	47.1
870.734	50
870.903	54.17
871.073	51.11
871.243	49.7
871.412	52.83
871.582	50.46
871.751	44.86
871.921	43.96
872.091	43.59
872.26	48.74
872.43	46.5
872.599	45.51
872.769	39.68
872.938	40.8
873.108	41.02
873.277	39.89
873.446	37.47
873.616	34.14
873.785	31.84
873.955	28.97
874.124	28.9
874.293	27.22
874.463	23.74
874.632	28.35
874.801	27.41
874.971	27.55
875.14	24.36
875.309	26.42
875.478	30.55
875.647	34.57
875.817	37.16
875.986	41.89
876.155	39.35
876.324	40.65
876.493	42.49
876.662	40.82
876.831	40.05
877	38.23
877.17	36.17
877.339	37.43
877.508	34.71
877.677	39.55
877.846	34.63
878.015	35.57
878.184	36.9
878.352	30.88
878.521	31.78
878.69	30.55
878.859	32.12
879.028	36.1
879.197	36.05
879.366	34.29
879.534	30.14
879.703	28.79
879.872	28.21
880.041	29.75
880.21	30.03
880.378	30.87
880.547	31.26
880.716	30
880.884	28.72
881.053	26.27
881.222	26.34
881.39	26.65
881.559	26.82
881.727	27.06
881.896	25.82
882.065	25.52
882.233	25.67
882.402	25.37
882.57	25.26
882.739	24.94
882.907	25.98
883.076	26.14
883.244	25.93
883.412	25.8
883.581	25.71
883.749	25.45
883.918	25.63
884.086	24.03
884.254	24.48
884.423	25.95
884.591	26.02
884.759	24.27
884.927	24.51
885.096	24.54
885.264	25.7
885.432	26.06
885.6	28.15
885.769	28.42
885.937	30.21
886.105	31.46
886.273	29.89
886.441	31.26
886.609	35.1
886.777	37.04
886.945	40.66
887.113	40.82
887.281	41.14
887.449	41.45
887.617	40.76
887.785	39.49
887.953	38.09
888.121	37.8
888.289	37.45
888.457	40.07
888.625	37.32
888.793	34.63
888.961	31.75
889.129	31.84
889.296	28.74
889.464	29.79
889.632	33.66
889.8	32.16
889.967	34.61
890.135	34.83
