Data from 2938750__Reflection_01.txt Node
Date: Sat Mar 14 14:42:26 EDT 2015
User: robert
Spectrometer: USB4E03002
Autoset integration time: false
Trigger mode: 4
Integration Time (sec): 1.000000E-1
Scans to average: 10
Electric dark correction enabled: false
Nonlinearity correction enabled: false
Boxcar width: 5
Stray light correction enabled: false
XAxis mode: Wavelengths
Stop averaging: false
Number of Pixels in Spectrum: 3648
>>>>>Begin Spectral Data<<<<<
177.575	68.32
177.794	26.73
178.014	26.03
178.233	7.92
178.452	7.84
178.672	-2175
178.891	150.61
179.11	120.3
179.33	110.68
179.549	134.64
179.768	133
179.987	167.03
180.207	146.39
180.426	138.86
180.645	125.69
180.864	130.62
181.084	155.46
181.303	96.05
181.522	100.45
181.741	184.08
181.96	102.79
182.179	175
182.398	159.31
182.618	157.21
182.837	106.79
183.056	93.46
183.275	119.05
183.494	138.55
183.713	164.04
183.932	159.63
184.151	-48.77
184.37	50.91
184.589	51.39
184.808	38.72
185.027	8.14
185.246	37.45
185.465	67.07
185.684	55.42
185.903	13.32
186.122	33.04
186.341	35.46
186.56	57.4
186.779	94.4
186.998	124.54
187.216	1659.09
187.435	497.96
187.654	2040
187.873	1428.57
188.092	1012.96
188.311	361.35
188.53	1337.21
188.748	-1771.87
188.967	-2226.09
189.186	-400.9
189.405	822.22
189.623	66.41
189.842	65.85
190.061	-29.52
190.28	-10.74
190.498	-51.74
190.717	-48
190.936	5.74
191.154	27.87
191.373	64.3
191.592	4.15
191.81	-21.91
192.029	30.32
192.248	58.55
192.466	53.4
192.685	10.1
192.904	54.08
193.122	53.68
193.341	-462.5
193.559	269.32
193.778	140.49
193.996	87.53
194.215	52.51
194.433	59.23
194.652	67.45
194.87	64.03
195.089	12.76
195.307	9.38
195.526	40
195.744	107.58
195.963	118.82
196.181	55.36
196.399	53.46
196.618	18.24
196.836	2.55
197.055	6.81
197.273	8.56
197.491	-8.51
197.71	6.71
197.928	19.79
198.146	23.57
198.365	18.16
198.583	19.41
198.801	15.94
199.019	42.36
199.238	59.74
199.456	38.31
199.674	46.24
199.892	54.28
200.111	-11.17
200.329	41.37
200.547	12.83
200.765	21.6
200.983	48.95
201.202	54.65
201.42	56.12
201.638	66.6
201.856	65.23
202.074	68.77
202.292	40.41
202.51	13.5
202.728	-50.25
202.946	27.22
203.165	-50.98
203.383	-2.29
203.601	-8.7
203.819	-14.95
204.037	-26.07
204.255	-36.04
204.473	-0.16
204.691	1.88
204.909	31.51
205.127	42.59
205.345	30.19
205.562	27.11
205.78	11.15
205.998	26.68
206.216	23.13
206.434	22.26
206.652	54.29
206.87	34.57
207.088	21.6
207.306	55.99
207.523	14.15
207.741	38.97
207.959	25.78
208.177	-9.72
208.395	-79.53
208.612	-42.39
208.83	-59.18
209.048	-79.72
209.266	-103.05
209.483	-64.79
209.701	-101.2
209.919	-81.99
210.136	-120.57
210.354	-85.8
210.572	-193.13
210.79	-63.36
211.007	-43.98
211.225	-2.26
211.442	-14.59
211.66	19.08
211.878	27.75
212.095	27.63
212.313	42.89
212.53	63.43
212.748	42.15
212.966	24.56
213.183	-0.76
213.401	2.79
213.618	-10.76
213.836	-21.2
214.053	-57.2
214.271	-105.24
214.488	-85.06
214.705	-157.49
214.923	-259.64
215.14	-125.23
215.358	-55.74
215.575	-47.94
215.793	-52.88
216.01	9.77
216.227	15.07
216.445	74.2
216.662	63.6
216.879	61.12
217.097	60
217.314	46.92
217.531	54.51
217.749	77.11
217.966	88.58
218.183	83.33
218.4	80.21
218.618	72.36
218.835	69.96
219.052	80.8
219.269	81.37
219.487	74.37
219.704	69.64
219.921	58.27
220.138	48.71
220.355	42.96
220.572	40.43
220.79	30.06
221.007	31.9
221.224	21.91
221.441	18.61
221.658	11.41
221.875	14.26
222.092	19.2
222.309	2.31
222.526	-9.16
222.743	-2.82
222.96	-10.64
223.177	-6.52
223.394	-1.87
223.611	-7.84
223.828	-18.2
224.045	-13.74
224.262	-13.97
224.479	-21.45
224.696	-13.02
224.913	-18.34
225.13	-22.01
225.347	-13.17
225.564	-9.12
225.781	-13.18
225.997	-6.64
226.214	-4.18
226.431	0.05
226.648	2.18
226.865	5.84
227.082	4.14
227.298	7.14
227.515	7.69
227.732	6.51
227.949	5.45
228.165	4.9
228.382	4.22
228.599	3.94
228.816	3.48
229.032	3.91
229.249	3.52
229.466	5.12
229.682	4.44
229.899	3.26
230.116	2.6
230.332	3.37
230.549	2.87
230.765	1.37
230.982	1.97
231.199	1.68
231.415	1.04
231.632	-0.12
231.848	-1.28
232.065	0.28
232.281	1.35
232.498	4.15
232.714	3.76
232.931	5.19
233.147	7.55
233.364	5.02
233.58	4.31
233.797	3.82
234.013	5.14
234.23	4.72
234.446	2.09
234.662	3.94
234.879	2.91
235.095	2.55
235.312	2.43
235.528	2.52
235.744	4.93
235.961	4.69
236.177	5.43
236.393	5.72
236.61	6.15
236.826	6.92
237.042	5.83
237.258	3.8
237.475	3.35
237.691	5.46
237.907	6.24
238.123	4.88
238.339	7.13
238.556	6.44
238.772	6.56
238.988	5.95
239.204	5.69
239.42	4.6
239.636	6.53
239.853	6.67
240.069	5.67
240.285	3.4
240.501	4.62
240.717	4.49
240.933	3.86
241.149	3.34
241.365	3.17
241.581	3.23
241.797	3.31
242.013	3.6
242.229	2.99
242.445	2.29
242.661	2.93
242.877	2.39
243.093	2.07
243.309	1.67
243.525	1.45
243.741	1.28
243.957	1.05
244.173	0.63
244.388	0.18
244.604	0.74
244.82	1.01
245.036	1.43
245.252	1.71
245.468	1.78
245.683	2.42
245.899	2.86
246.115	3.34
246.331	3.51
246.547	3.74
246.762	3.32
246.978	3.26
247.194	3.1
247.409	3.05
247.625	2.86
247.841	2.65
248.057	2.38
248.272	2.52
248.488	2.65
248.703	2.71
248.919	2.48
249.135	2.63
249.35	2.9
249.566	3.67
249.782	3.92
249.997	4.03
250.213	4.41
250.428	5.23
250.644	4.69
250.859	3.68
251.075	3.44
251.29	3.31
251.506	3.62
251.721	3.52
251.937	2.36
252.152	1.28
252.368	1.36
252.583	0.89
252.798	0.82
253.014	0.44
253.229	0.98
253.445	1.07
253.66	1.19
253.875	0.61
254.091	-0.29
254.306	-0.22
254.521	0.67
254.737	1.05
254.952	1.65
255.167	1.44
255.383	2.62
255.598	1.21
255.813	0.29
256.028	0.14
256.244	1.16
256.459	1.7
256.674	2.52
256.889	3.19
257.104	2.35
257.32	2.24
257.535	1.4
257.75	0.45
257.965	1.32
258.18	1.69
258.395	1.69
258.61	1.27
258.826	1.56
259.041	1.58
259.256	1.1
259.471	1.32
259.686	1.26
259.901	1.8
260.116	1.68
260.331	1.97
260.546	1.98
260.761	2.18
260.976	2.35
261.191	2
261.406	1.86
261.621	1.94
261.836	1.63
262.05	2.12
262.265	1.91
262.48	2.88
262.695	2.16
262.91	2.73
263.125	2.67
263.34	2.97
263.555	3.54
263.769	4
263.984	4.2
264.199	5.3
264.414	4.65
264.629	4.39
264.843	4.23
265.058	4.03
265.273	3.05
265.488	1.93
265.702	1.71
265.917	1.63
266.132	1.68
266.346	1.71
266.561	1.78
266.776	2
266.99	2.7
267.205	2.57
267.42	2.36
267.634	2.54
267.849	2.97
268.063	3.11
268.278	2.69
268.492	2.38
268.707	2.59
268.922	2.48
269.136	2.31
269.351	1.64
269.565	0.97
269.78	1.29
269.994	1.32
270.209	1.27
270.423	1.19
270.637	2.08
270.852	1.87
271.066	1.87
271.281	1.87
271.495	2.18
271.709	2.44
271.924	2.74
272.138	2.81
272.353	2.89
272.567	3.64
272.781	3.48
272.996	2.93
273.21	2.74
273.424	2.78
273.638	2.31
273.853	1.94
274.067	1.88
274.281	1.98
274.495	1.9
274.71	1.55
274.924	1.18
275.138	0.79
275.352	1.02
275.566	1.83
275.781	1.65
275.995	2.07
276.209	2.13
276.423	2.27
276.637	2.62
276.851	2.12
277.065	2.79
277.279	2.22
277.493	2.96
277.707	3.45
277.921	3.17
278.135	3.32
278.349	3.43
278.563	3.67
278.777	3.02
278.991	2.83
279.205	3.46
279.419	3.07
279.633	3.08
279.847	2.37
280.061	1.85
280.275	1.78
280.489	1.14
280.703	0.82
280.917	0.47
281.131	0.8
281.344	0.9
281.558	0.95
281.772	1.02
281.986	0.97
282.2	0.89
282.414	0.91
282.627	0.92
282.841	0.99
283.055	1.03
283.269	1.47
283.482	1.75
283.696	1.45
283.91	1.64
284.123	1.75
284.337	1.76
284.551	2.08
284.764	1.73
284.978	1.43
285.192	1.86
285.405	2.23
285.619	2.01
285.833	1.74
286.046	1.71
286.26	1.44
286.473	1.14
286.687	1.46
286.9	1.72
287.114	1.89
287.327	2.29
287.541	2.07
287.754	1.69
287.968	1.57
288.181	1.77
288.395	1.72
288.608	1.9
288.822	2.5
289.035	2.32
289.248	2.03
289.462	2.3
289.675	2.21
289.889	2.36
290.102	2.62
290.315	2.96
290.529	2.65
290.742	2.93
290.955	2.6
291.169	2.3
291.382	2.69
291.595	2.74
291.808	2.94
292.022	2.86
292.235	3.07
292.448	2.92
292.661	2.45
292.875	2.37
293.088	2.28
293.301	2.9
293.514	3.03
293.727	2.78
293.94	2.63
294.153	2.14
294.367	1.95
294.58	1.51
294.793	1.76
295.006	2.44
295.219	2.49
295.432	2.51
295.645	2.41
295.858	2.15
296.071	2.04
296.284	2.06
296.497	2.03
296.71	2.31
296.923	2.43
297.136	2.17
297.349	1.75
297.562	1.93
297.775	1.89
297.988	1.62
298.201	1.63
298.414	1.46
298.626	1.45
298.839	1.6
299.052	1.3
299.265	1.39
299.478	1.41
299.691	1.45
299.903	1.56
300.116	1.5
300.329	1.67
300.542	1.81
300.755	2.32
300.967	2.31
301.18	2.41
301.393	2.35
301.605	2.64
301.818	2.81
302.031	2.98
302.243	2.63
302.456	2.6
302.669	2.62
302.881	2.43
303.094	2.04
303.307	2.04
303.519	1.77
303.732	2.41
303.944	2.06
304.157	2.26
304.37	2.04
304.582	1.91
304.795	2.18
305.007	2.35
305.22	2.22
305.432	2.28
305.645	2.47
305.857	2.23
306.069	1.48
306.282	1.85
306.494	1.7
306.707	1.87
306.919	2.31
307.132	2.27
307.344	2.35
307.556	2.59
307.769	2.61
307.981	2.57
308.193	3.37
308.406	3.42
308.618	2.87
308.83	3.04
309.043	2.97
309.255	2.98
309.467	2.8
309.679	2.89
309.892	3.23
310.104	3.18
310.316	3.34
310.528	3.16
310.74	3.23
310.953	3.39
311.165	3.05
311.377	3.1
311.589	3.29
311.801	3.25
312.013	3.03
312.225	2.81
312.437	2.92
312.649	2.95
312.862	2.64
313.074	2.81
313.286	2.94
313.498	3.09
313.71	3.35
313.922	3.21
314.134	3.44
314.346	3.48
314.558	3.3
314.77	3.39
314.982	3.46
315.193	3.53
315.405	3.76
315.617	3.71
315.829	4.02
316.041	3.86
316.253	3.59
316.465	3.65
316.677	3.58
316.888	3.64
317.1	3.56
317.312	3.12
317.524	3.32
317.736	3.24
317.947	3.35
318.159	3.45
318.371	3.37
318.583	3.68
318.794	3.52
319.006	4.16
319.218	4.21
319.43	3.75
319.641	4
319.853	3.65
320.064	3.62
320.276	3.54
320.488	3.2
320.699	3.22
320.911	3.18
321.123	3.3
321.334	2.97
321.546	3.27
321.757	3.85
321.969	3.42
322.18	4.18
322.392	4.2
322.603	4.42
322.815	4.58
323.026	4.45
323.238	4.47
323.449	4.41
323.661	4.2
323.872	4.21
324.083	4.15
324.295	4.71
324.506	4.75
324.718	4.5
324.929	4.5
325.14	4.77
325.352	5.41
325.563	5.45
325.774	5.75
325.986	5.95
326.197	6.34
326.408	6.74
326.62	6.82
326.831	6.95
327.042	7.61
327.253	7.65
327.464	7.5
327.676	7.68
327.887	8.01
328.098	8.32
328.309	8.62
328.52	8.63
328.732	8.84
328.943	8.56
329.154	8.62
329.365	8.37
329.576	8.6
329.787	8.93
329.998	9.09
330.209	9.63
330.42	9.37
330.631	8.98
330.842	9.43
331.053	9.64
331.264	10.61
331.475	10.7
331.686	11.38
331.897	11.24
332.108	11.39
332.319	11.54
332.53	11.53
332.741	11.56
332.952	11.99
333.163	11.74
333.374	11.79
333.585	11.52
333.795	11.53
334.006	11.37
334.217	11.73
334.428	11.76
334.639	11.32
334.849	10.95
335.06	11.22
335.271	11.22
335.482	11.26
335.692	10.94
335.903	10.76
336.114	10.99
336.325	10.8
336.535	10.77
336.746	10.91
336.957	11.4
337.167	11.85
337.378	12
337.589	12.19
337.799	12.17
338.01	12.08
338.22	12.36
338.431	12.56
338.642	12.5
338.852	12.35
339.063	12.13
339.273	12.01
339.484	11.41
339.694	11.53
339.905	11.47
340.115	11.5
340.326	11.88
340.536	11.82
340.746	11.64
340.957	11.73
341.167	11.85
341.378	12.18
341.588	12.03
341.799	12.07
342.009	11.77
342.219	11.71
342.43	11.69
342.64	11.57
342.85	11.72
343.061	11.75
343.271	11.44
343.481	11.47
343.691	11.31
343.902	11.3
344.112	11.5
344.322	11.47
344.532	11.71
344.743	11.55
344.953	11.53
345.163	11.56
345.373	11.16
345.583	11.42
345.793	11.33
346.004	11.21
346.214	11.48
346.424	11.42
346.634	11.49
346.844	11.25
347.054	11.35
347.264	11.25
347.474	10.52
347.684	11.03
347.894	11.14
348.104	11.08
348.314	11.27
348.524	11.16
348.734	11.19
348.944	11.16
349.154	11.02
349.364	11.12
349.574	11.23
349.784	11.52
349.994	11.2
350.204	11.22
350.413	11.4
350.623	11.14
350.833	10.81
351.043	10.73
351.253	10.8
351.463	10.8
351.672	10.98
351.882	10.91
352.092	10.93
352.302	11.16
352.511	10.89
352.721	10.52
352.931	10.57
353.141	10.73
353.35	10.83
353.56	10.75
353.77	10.84
353.979	10.55
354.189	10.43
354.399	10.51
354.608	10.38
354.818	10.51
355.027	10.82
355.237	10.86
355.447	10.87
355.656	11
355.866	10.62
356.075	10.54
356.285	10.59
356.494	10.64
356.704	10.53
356.913	10.52
357.123	10.52
357.332	10.49
357.542	10.59
357.751	10.49
357.96	10.07
358.17	10.16
358.379	10.16
358.589	10.25
358.798	10.39
359.007	10.39
359.217	10.41
359.426	10.33
359.635	10.39
359.845	10.08
360.054	10.22
360.263	10.44
360.472	10.76
360.682	10.71
360.891	10.61
361.1	10.57
361.309	10.62
361.519	10.53
361.728	10.58
361.937	10.64
362.146	10.53
362.355	10.38
362.564	10.49
362.774	10.44
362.983	10.4
363.192	10.31
363.401	10.34
363.61	10.27
363.819	10.3
364.028	10.48
364.237	10.18
364.446	10.69
364.655	10.5
364.864	10.33
365.073	10.29
365.282	10.36
365.491	10.46
365.7	10.39
365.909	10.35
366.118	10.51
366.327	10.22
366.536	10.24
366.745	9.94
366.954	10.03
367.162	9.95
367.371	9.91
367.58	10.08
367.789	9.83
367.998	9.8
368.207	9.96
368.415	9.92
368.624	10
368.833	10.26
369.042	10.25
369.25	10.19
369.459	10.22
369.668	10.37
369.877	10.07
370.085	10.23
370.294	10.11
370.503	10.01
370.711	9.52
370.92	9.28
371.129	9.01
371.337	9.06
371.546	9.05
371.754	8.69
371.963	8.44
372.171	8.42
372.38	8.2
372.589	8.32
372.797	8.35
373.006	8.62
373.214	8.79
373.423	8.98
373.631	8.76
373.84	9.01
374.048	9.35
374.256	9.58
374.465	9.7
374.673	9.96
374.882	10.02
375.09	10.1
375.298	10.17
375.507	10.28
375.715	10.09
375.923	10.19
376.132	10.09
376.34	9.95
376.548	9.74
376.757	9.79
376.965	9.64
377.173	9.49
377.381	9.42
377.59	9.21
377.798	9.21
378.006	9.33
378.214	9.56
378.423	9.57
378.631	9.56
378.839	9.57
379.047	9.56
379.255	9.45
379.463	9.6
379.671	9.47
379.879	9.68
380.088	9.59
380.296	9.7
380.504	9.43
380.712	9.53
380.92	9.4
381.128	9.57
381.336	9.44
381.544	9.64
381.752	9.56
381.96	9.56
382.168	9.36
382.376	9.32
382.584	9.03
382.791	9.11
382.999	9.1
383.207	9.41
383.415	9.2
383.623	9.27
383.831	9.62
384.039	9.62
384.247	9.83
384.454	9.97
384.662	10.13
384.87	10.34
385.078	10.31
385.285	10.11
385.493	10.12
385.701	10.08
385.909	10.04
386.116	9.63
386.324	9.63
386.532	9.47
386.739	9.43
386.947	9.5
387.155	9.46
387.362	9.45
387.57	9.54
387.778	9.41
387.985	9.62
388.193	9.59
388.4	9.64
388.608	9.59
388.816	9.66
389.023	9.67
389.231	9.46
389.438	9.47
389.646	9.66
389.853	9.57
390.061	9.8
390.268	9.77
390.475	9.89
390.683	9.91
390.89	10.08
391.098	10.19
391.305	10.12
391.512	10.23
391.72	10.18
391.927	9.91
392.135	9.96
392.342	9.9
392.549	9.78
392.756	9.83
392.964	9.93
393.171	9.79
393.378	9.64
393.586	9.94
393.793	9.94
394	9.74
394.207	9.75
394.414	9.96
394.622	9.86
394.829	9.94
395.036	9.72
395.243	9.57
395.45	9.56
395.657	9.69
395.864	9.67
396.072	9.34
396.279	9.58
396.486	9.55
396.693	9.34
396.9	9.31
397.107	9.34
397.314	9.44
397.521	9.47
397.728	9.52
397.935	9.31
398.142	9.02
398.349	9.34
398.556	9.48
398.763	9.56
398.97	9.39
399.177	9.41
399.383	9.32
399.59	9.23
399.797	9.38
400.004	9.29
400.211	9.31
400.418	9.56
400.625	9.36
400.831	9.25
401.038	9.34
401.245	9.54
401.452	9.68
401.658	9.78
401.865	9.71
402.072	9.63
402.279	9.73
402.485	9.89
402.692	9.79
402.899	9.91
403.105	9.95
403.312	9.89
403.519	9.92
403.725	9.89
403.932	9.89
404.138	9.93
404.345	9.86
404.552	9.99
404.758	10.01
404.965	10.04
405.171	10.05
405.378	9.99
405.584	10.08
405.791	9.9
405.997	9.95
406.204	9.81
406.41	10.08
406.617	10.02
406.823	9.95
407.029	9.85
407.236	9.81
407.442	9.66
407.649	9.63
407.855	9.6
408.061	9.89
408.268	9.8
408.474	10
408.68	9.94
408.887	10.03
409.093	9.98
409.299	10.05
409.505	10.01
409.712	10.3
409.918	10.4
410.124	10.43
410.33	10.36
410.537	10.39
410.743	10.21
410.949	10.12
411.155	10.12
411.361	10.08
411.567	9.93
411.773	9.89
411.98	9.71
412.186	9.46
412.392	9.61
412.598	9.66
412.804	9.66
413.01	9.76
413.216	9.9
413.422	9.94
413.628	9.88
413.834	10.1
414.04	10.03
414.246	9.9
414.452	10.01
414.658	9.83
414.864	9.75
415.07	9.77
415.275	9.8
415.481	9.7
415.687	9.75
415.893	9.78
416.099	9.59
416.305	9.67
416.511	9.82
416.716	9.9
416.922	9.82
417.128	9.78
417.334	9.84
417.539	9.79
417.745	9.81
417.951	9.81
418.157	9.82
418.362	9.98
418.568	10
418.774	9.94
418.979	9.9
419.185	9.94
419.391	10
419.596	9.92
419.802	10.02
420.008	9.89
420.213	9.85
420.419	9.8
420.624	9.75
420.83	9.75
421.035	9.86
421.241	9.86
421.446	9.89
421.652	9.86
421.857	9.95
422.063	9.85
422.268	10.03
422.474	10
422.679	10.01
422.885	9.93
423.09	9.88
423.295	9.83
423.501	9.81
423.706	9.83
423.911	9.83
424.117	9.67
424.322	9.75
424.527	9.67
424.733	9.71
424.938	9.8
425.143	9.91
425.349	9.9
425.554	9.89
425.759	9.99
425.964	9.95
426.169	9.97
426.375	10.12
426.58	10.14
426.785	10.07
426.99	10.01
427.195	9.89
427.4	9.87
427.605	9.84
427.811	9.88
428.016	9.69
428.221	9.68
428.426	9.75
428.631	9.57
428.836	9.56
429.041	9.61
429.246	9.75
429.451	9.81
429.656	9.92
429.861	10.04
430.066	9.97
430.271	10.07
430.476	10.05
430.681	9.97
430.886	10.14
431.09	10.21
431.295	10.16
431.5	10.12
431.705	10.01
431.91	10
432.115	9.95
432.32	10.07
432.524	10.06
432.729	9.98
432.934	9.97
433.139	9.8
433.343	9.76
433.548	9.86
433.753	9.85
433.958	9.91
434.162	9.82
434.367	9.94
434.572	9.86
434.776	9.96
434.981	9.95
435.186	9.95
435.39	10.11
435.595	10.16
435.799	10.08
436.004	10.15
436.209	10.11
436.413	10.19
436.618	10.01
436.822	10.01
437.027	9.96
437.231	9.98
437.436	10.07
437.64	10.07
437.845	9.92
438.049	9.97
438.253	9.92
438.458	9.94
438.662	9.81
438.867	9.77
439.071	9.71
439.275	9.73
439.48	9.79
439.684	9.73
439.888	9.73
440.093	9.9
440.297	9.87
440.501	9.93
440.706	9.97
440.91	9.99
441.114	10.08
441.318	10.09
441.523	10.08
441.727	10.08
441.931	10.11
442.135	10.21
442.339	10.15
442.543	10.13
442.748	10.14
442.952	10.15
443.156	10.11
443.36	10.09
443.564	10.14
443.768	10.14
443.972	10.09
444.176	10.13
444.38	10
444.584	9.98
444.788	9.99
444.992	9.97
445.196	9.89
445.4	9.94
445.604	9.95
445.808	9.91
446.012	9.91
446.216	9.92
446.42	9.86
446.624	9.84
446.828	9.79
447.032	9.77
447.235	9.79
447.439	9.87
447.643	9.88
447.847	9.9
448.051	9.99
448.254	9.98
448.458	10.05
448.662	10.03
448.866	10.12
449.069	10.17
449.273	10.27
449.477	10.2
449.681	10.2
449.884	10.18
450.088	10.06
450.292	10.01
450.495	10.12
450.699	10.06
450.902	10.13
451.106	10.06
451.31	10.03
451.513	9.95
451.717	9.95
451.92	9.81
452.124	9.88
452.327	9.95
452.531	9.91
452.734	9.81
452.938	9.78
453.141	9.78
453.345	9.8
453.548	9.83
453.752	9.9
453.955	9.86
454.158	10
454.362	10.06
454.565	10.1
454.769	10.1
454.972	10.05
455.175	10.23
455.379	10.25
455.582	10.33
455.785	10.27
455.988	10.25
456.192	10.21
456.395	10.19
456.598	10.08
456.801	10.04
457.005	10.03
457.208	9.99
457.411	9.86
457.614	9.89
457.817	9.81
458.021	9.87
458.224	9.9
458.427	9.97
458.63	9.95
458.833	9.95
459.036	9.93
459.239	9.98
459.442	10.04
459.645	10.03
459.848	10.03
460.051	10.06
460.254	10.08
460.457	10.07
460.66	10.13
460.863	10.16
461.066	10.17
461.269	10.29
461.472	10.24
461.675	10.25
461.878	10.35
462.081	10.37
462.284	10.31
462.486	10.38
462.689	10.45
462.892	10.41
463.095	10.51
463.298	10.61
463.5	10.52
463.703	10.63
463.906	10.69
464.109	10.75
464.311	10.72
464.514	10.7
464.717	10.67
464.92	10.56
465.122	10.53
465.325	10.53
465.528	10.45
465.73	10.46
465.933	10.32
466.135	10.36
466.338	10.24
466.541	10.26
466.743	10.29
466.946	10.18
467.148	10.23
467.351	10.27
467.553	10.2
467.756	10.19
467.958	10.17
468.161	10.21
468.363	10.19
468.566	10.26
468.768	10.22
468.971	10.21
469.173	10.25
469.375	10.24
469.578	10.15
469.78	10.09
469.983	10.18
470.185	10.14
470.387	10.19
470.59	10.13
470.792	10.06
470.994	10.1
471.196	10.12
471.399	10.06
471.601	10.04
471.803	10.13
472.005	10.29
472.208	10.25
472.41	10.33
472.612	10.37
472.814	10.4
473.016	10.33
473.218	10.27
473.421	10.18
473.623	10.15
473.825	10.16
474.027	10.1
474.229	9.98
474.431	9.84
474.633	9.9
474.835	9.93
475.037	9.86
475.239	9.91
475.441	9.92
475.643	9.99
475.845	10.09
476.047	10.05
476.249	10.1
476.451	10.09
476.653	10.17
476.855	10.18
477.057	10.04
477.258	10.08
477.46	10.15
477.662	10.25
477.864	10.26
478.066	10.2
478.268	10.3
478.469	10.29
478.671	10.31
478.873	10.35
479.075	10.3
479.276	10.39
479.478	10.43
479.68	10.35
479.882	10.21
480.083	10.27
480.285	10.28
480.487	10.28
480.688	10.33
480.89	10.33
481.091	10.27
481.293	10.24
481.495	10.25
481.696	10.28
481.898	10.27
482.099	10.3
482.301	10.24
482.502	10.22
482.704	10.18
482.905	10.09
483.107	10.08
483.308	10.12
483.51	10.13
483.711	10.1
483.913	10.09
484.114	10.08
484.315	10.06
484.517	10.07
484.718	10.1
484.92	10.11
485.121	10.17
485.322	10.21
485.524	10.22
485.725	10.24
485.926	10.24
486.127	10.24
486.329	10.25
486.53	10.27
486.731	10.28
486.932	10.27
487.134	10.26
487.335	10.24
487.536	10.2
487.737	10.16
487.938	10.15
488.139	10.2
488.341	10.2
488.542	10.22
488.743	10.25
488.944	10.25
489.145	10.25
489.346	10.29
489.547	10.31
489.748	10.32
489.949	10.34
490.15	10.37
490.351	10.33
490.552	10.32
490.753	10.27
490.954	10.26
491.155	10.23
491.356	10.23
491.557	10.18
491.758	10.17
491.959	10.14
492.159	10.18
492.36	10.12
492.561	10.13
492.762	10.13
492.963	10.16
493.164	10.19
493.364	10.25
493.565	10.28
493.766	10.33
493.967	10.4
494.167	10.49
494.368	10.48
494.569	10.56
494.769	10.54
494.97	10.54
495.171	10.51
495.371	10.47
495.572	10.5
495.773	10.41
495.973	10.45
496.174	10.4
496.375	10.39
496.575	10.42
496.776	10.47
496.976	10.48
497.177	10.52
497.377	10.5
497.578	10.52
497.778	10.5
497.979	10.61
498.179	10.54
498.38	10.53
498.58	10.5
498.78	10.41
498.981	10.28
499.181	10.28
499.382	10.33
499.582	10.36
499.782	10.27
499.983	10.25
500.183	10.18
500.383	10.26
500.584	10.25
500.784	10.27
500.984	10.35
501.184	10.42
501.385	10.52
501.585	10.43
501.785	10.44
501.985	10.52
502.185	10.51
502.386	10.51
502.586	10.46
502.786	10.55
502.986	10.54
503.186	10.53
503.386	10.56
503.586	10.42
503.786	10.52
503.987	10.57
504.187	10.61
504.387	10.67
504.587	10.69
504.787	10.7
504.987	10.77
505.187	10.81
505.387	10.83
505.587	10.79
505.786	10.83
505.986	10.81
506.186	10.78
506.386	10.78
506.586	10.77
506.786	10.69
506.986	10.7
507.186	10.61
507.386	10.65
507.585	10.62
507.785	10.7
507.985	10.76
508.185	10.81
508.384	10.85
508.584	10.84
508.784	10.82
508.984	10.89
509.183	10.88
509.383	10.97
509.583	10.98
509.782	10.94
509.982	10.87
510.182	10.82
510.381	10.81
510.581	10.86
510.781	10.84
510.98	10.84
511.18	10.87
511.379	10.87
511.579	10.84
511.778	10.88
511.978	10.92
512.177	10.99
512.377	11.07
512.576	11.02
512.776	11.04
512.975	11.07
513.175	11.08
513.374	11.02
513.573	11.02
513.773	11.05
513.972	11.01
514.172	11.13
514.371	11.02
514.57	11.01
514.77	11
514.969	11.03
515.168	11.03
515.367	11.05
515.567	11.11
515.766	11.11
515.965	11.07
516.164	11.06
516.364	10.99
516.563	11.11
516.762	11.13
516.961	11.23
517.16	11.15
517.359	11.11
517.559	11.18
517.758	11.16
517.957	11.07
518.156	11.05
518.355	11.01
518.554	10.97
518.753	10.95
518.952	10.94
519.151	10.83
519.35	10.81
519.549	10.87
519.748	10.84
519.947	10.84
520.146	10.97
520.345	10.99
520.544	11.04
520.743	11.07
520.942	11.07
521.141	11.02
521.339	11.05
521.538	11.05
521.737	11.02
521.936	11.01
522.135	11
522.333	11.02
522.532	10.93
522.731	10.94
522.93	10.92
523.129	10.89
523.327	10.95
523.526	10.96
523.725	10.99
523.923	11.04
524.122	11.04
524.321	11.14
524.519	11.11
524.718	11.22
524.917	11.23
525.115	11.28
525.314	11.29
525.512	11.3
525.711	11.31
525.909	11.33
526.108	11.28
526.306	11.27
526.505	11.24
526.703	11.26
526.902	11.26
527.1	11.24
527.299	11.23
527.497	11.24
527.696	11.17
527.894	11.17
528.092	11.17
528.291	11.16
528.489	11.15
528.688	11.12
528.886	11.11
529.084	11.08
529.283	11.07
529.481	11.08
529.679	11.08
529.877	11.16
530.076	11.17
530.274	11.16
530.472	11.15
530.67	11.15
530.869	11.17
531.067	11.17
531.265	11.19
531.463	11.26
531.661	11.26
531.859	11.28
532.057	11.21
532.255	11.21
532.454	11.23
532.652	11.28
532.85	11.35
533.048	11.38
533.246	11.41
533.444	11.43
533.642	11.45
533.84	11.46
534.038	11.46
534.236	11.5
534.434	11.49
534.632	11.55
534.83	11.52
535.027	11.5
535.225	11.52
535.423	11.49
535.621	11.48
535.819	11.43
536.017	11.41
536.215	11.42
536.412	11.41
536.61	11.47
536.808	11.45
537.006	11.49
537.203	11.52
537.401	11.49
537.599	11.57
537.797	11.58
537.994	11.62
538.192	11.65
538.39	11.69
538.587	11.73
538.785	11.74
538.983	11.76
539.18	11.8
539.378	11.73
539.575	11.75
539.773	11.69
539.97	11.75
540.168	11.74
540.366	11.69
540.563	11.67
540.761	11.65
540.958	11.66
541.155	11.63
541.353	11.66
541.55	11.67
541.748	11.66
541.945	11.72
542.143	11.66
542.34	11.65
542.537	11.66
542.735	11.7
542.932	11.71
543.129	11.69
543.327	11.76
543.524	11.73
543.721	11.8
543.919	11.85
544.116	11.83
544.313	11.92
544.51	12.01
544.708	12.1
544.905	12.06
545.102	12.11
545.299	12.12
545.496	12.14
545.693	12.18
545.891	12.14
546.088	12.11
546.285	12.16
546.482	12.14
546.679	12.08
546.876	12.05
547.073	12.09
547.27	12.05
547.467	12.06
547.664	11.95
547.861	11.94
548.058	11.86
548.255	11.89
548.452	11.9
548.649	11.94
548.846	11.92
549.043	11.93
549.24	11.89
549.437	11.87
549.633	11.87
549.83	11.94
550.027	11.87
550.224	11.99
550.421	11.97
550.618	11.97
550.814	11.97
551.011	12.06
551.208	11.99
551.405	12.07
551.601	12.13
551.798	12.08
551.995	11.98
552.191	12.07
552.388	12.18
552.585	12.16
552.781	12.16
552.978	12.16
553.175	12.05
553.371	12.15
553.568	12.09
553.764	12.02
553.961	12.1
554.157	12.13
554.354	12.08
554.55	11.95
554.747	11.98
554.943	11.92
555.14	11.9
555.336	11.92
555.533	11.98
555.729	11.97
555.926	12.11
556.122	12.21
556.318	12.28
556.515	12.31
556.711	12.34
556.907	12.26
557.104	12.22
557.3	12.25
557.496	12.31
557.693	12.2
557.889	12.15
558.085	12.04
558.281	11.97
558.478	12.11
558.674	12.06
558.87	12.07
559.066	12.13
559.262	12.15
559.459	12.2
559.655	12.08
559.851	12.1
560.047	12.27
560.243	12.35
560.439	12.37
560.635	12.26
560.831	12.29
561.027	12.3
561.223	12.3
561.419	12.32
561.615	12.16
561.811	12.32
562.007	12.4
562.203	12.36
562.399	12.32
562.595	12.32
562.791	12.47
562.987	12.55
563.183	12.56
563.379	12.69
563.575	12.65
563.771	12.76
563.966	12.7
564.162	12.72
564.358	12.78
564.554	12.83
564.75	12.93
564.945	12.89
565.141	12.78
565.337	12.78
565.533	12.54
565.728	12.69
565.924	12.6
566.12	12.61
566.315	12.57
566.511	12.46
566.707	12.4
566.902	12.29
567.098	12.22
567.293	12.3
567.489	12.27
567.684	12.42
567.88	12.29
568.076	12.31
568.271	12.38
568.467	12.44
568.662	12.53
568.858	12.63
569.053	12.65
569.248	12.67
569.444	12.58
569.639	12.54
569.835	12.57
570.03	12.54
570.225	12.52
570.421	12.46
570.616	12.28
570.812	12.24
571.007	12.23
571.202	12.23
571.397	12.18
571.593	12.26
571.788	12.4
571.983	12.35
572.178	12.49
572.374	12.5
572.569	12.58
572.764	12.61
572.959	12.71
573.154	12.69
573.35	12.68
573.545	12.65
573.74	12.57
573.935	12.51
574.13	12.54
574.325	12.51
574.52	12.55
574.715	12.53
574.91	12.6
575.105	12.67
575.3	12.67
575.495	12.73
575.69	12.82
575.885	12.82
576.08	12.79
576.275	12.84
576.47	12.84
576.665	12.83
576.86	12.83
577.055	12.76
577.25	12.58
577.444	12.58
577.639	12.63
577.834	12.74
578.029	12.94
578.224	12.88
578.418	12.9
578.613	12.99
578.808	13.02
579.003	12.99
579.197	13.16
579.392	13.2
579.587	13.22
579.781	13.17
579.976	12.97
580.171	12.93
580.365	13.07
580.56	13.03
580.755	13.11
580.949	13.18
581.144	13.26
581.338	13.24
581.533	13.31
581.727	13.3
581.922	13.26
582.116	13.39
582.311	13.43
582.505	13.52
582.7	13.47
582.894	13.16
583.089	13.19
583.283	12.99
583.478	13.07
583.672	12.97
583.866	12.93
584.061	12.82
584.255	12.82
584.449	12.76
584.644	12.69
584.838	12.83
585.032	12.97
585.226	12.91
585.421	13.12
585.615	13.01
585.809	13.16
586.003	13.35
586.198	13.5
586.392	13.55
586.586	13.52
586.78	13.6
586.974	13.46
587.168	13.5
587.363	13.42
587.557	13.53
587.751	13.56
587.945	13.48
588.139	13.37
588.333	13.39
588.527	13.46
588.721	13.48
588.915	13.4
589.109	13.43
589.303	13.4
589.497	13.51
589.691	13.41
589.885	13.41
590.079	13.61
590.273	13.63
590.466	13.56
590.66	13.52
590.854	13.56
591.048	13.63
591.242	13.67
591.436	13.83
591.629	13.8
591.823	13.83
592.017	13.87
592.211	13.72
592.404	13.82
592.598	13.91
592.792	13.93
592.986	14
593.179	13.89
593.373	13.92
593.567	13.84
593.76	13.93
593.954	13.91
594.147	14.02
594.341	14.08
594.535	13.97
594.728	13.88
594.922	13.78
595.115	13.67
595.309	13.71
595.502	13.69
595.696	13.65
595.889	13.66
596.083	13.64
596.276	13.59
596.47	13.59
596.663	13.61
596.856	13.7
597.05	13.79
597.243	13.83
597.437	13.85
597.63	13.92
597.823	14.07
598.017	14.03
598.21	14.11
598.403	14.18
598.596	14.34
598.79	14.47
598.983	14.47
599.176	14.3
599.369	14.37
599.563	14.42
599.756	14.25
599.949	14.23
600.142	14.28
600.335	14.17
600.528	13.97
600.722	13.74
600.915	13.62
601.108	13.6
601.301	13.84
601.494	13.73
601.687	13.69
601.88	13.98
602.073	13.73
602.266	13.82
602.459	13.86
602.652	14.06
602.845	14.19
603.038	14.17
603.231	14.2
603.424	14.28
603.617	14.42
603.809	14.45
604.002	14.26
604.195	14.38
604.388	14.41
604.581	14.52
604.774	14.41
604.966	14.39
605.159	14.47
605.352	14.39
605.545	14.36
605.737	14.27
605.93	14.31
606.123	14.47
606.316	14.49
606.508	14.32
606.701	14.24
606.894	14.36
607.086	14.36
607.279	14.38
607.471	14.46
607.664	14.48
607.857	14.73
608.049	14.85
608.242	14.78
608.434	14.88
608.627	15.16
608.819	15.35
609.012	15.58
609.204	15.81
609.397	16.03
609.589	16.43
609.782	16.67
609.974	16.88
610.166	17.1
610.359	17.45
610.551	17.79
610.743	18.05
610.936	18.18
611.128	18.23
611.32	18.29
611.513	18.27
611.705	18.4
611.897	18.15
612.09	18.02
612.282	18.15
612.474	18.13
612.666	17.98
612.858	17.85
613.051	17.73
613.243	17.64
613.435	17.56
613.627	17.59
613.819	17.31
614.011	17.41
614.203	17.27
614.395	16.79
614.588	16.66
614.78	16.43
614.972	16.23
615.164	16.26
615.356	16.03
615.548	15.76
615.74	15.64
615.932	15.43
616.124	15.45
616.315	15.6
616.507	15.71
616.699	15.6
616.891	15.72
617.083	15.6
617.275	15.47
617.467	15.81
617.659	15.88
617.85	15.92
618.042	16.02
618.234	15.86
618.426	15.69
618.618	15.58
618.809	15.64
619.001	15.55
619.193	15.72
619.384	15.59
619.576	15.28
619.768	15.14
619.959	15.03
620.151	15.01
620.343	15.04
620.534	15.07
620.726	15.23
620.917	15.25
621.109	15.35
621.301	15.18
621.492	15.35
621.684	15.41
621.875	15.51
622.067	15.61
622.258	15.73
622.45	15.85
622.641	15.85
622.832	15.74
623.024	15.77
623.215	15.72
623.407	15.68
623.598	15.54
623.789	15.61
623.981	15.79
624.172	15.68
624.363	15.67
624.555	15.75
624.746	15.75
624.937	15.69
625.129	15.56
625.32	15.65
625.511	15.69
625.702	15.91
625.893	15.74
626.085	15.76
626.276	15.73
626.467	15.66
626.658	15.61
626.849	15.58
627.04	15.64
627.231	15.75
627.422	15.71
627.614	15.87
627.805	15.89
627.996	16.12
628.187	16.14
628.378	16.29
628.569	16.44
628.76	16.33
628.951	16.27
629.142	16.4
629.332	16.35
629.523	16.37
629.714	16.42
629.905	16.48
630.096	16.41
630.287	16.56
630.478	16.53
630.669	16.42
630.859	16.56
631.05	16.65
631.241	16.34
631.432	16.38
631.623	16.29
631.813	16.23
632.004	16.06
632.195	15.95
632.385	15.59
632.576	15.63
632.767	15.66
632.957	15.57
633.148	15.62
633.339	15.7
633.529	15.68
633.72	15.92
633.91	15.84
634.101	15.95
634.292	16.06
634.482	16.23
634.673	16.21
634.863	16.28
635.054	16.27
635.244	16.24
635.435	16.18
635.625	16.02
635.815	15.82
636.006	15.83
636.196	15.55
636.387	15.52
636.577	15.47
636.767	15.37
636.958	15.22
637.148	15.39
637.338	15.32
637.529	15.6
637.719	15.81
637.909	15.88
638.099	16.03
638.29	16.44
638.48	16.5
638.67	16.64
638.86	16.96
639.05	16.96
639.241	16.81
639.431	16.9
639.621	16.87
639.811	16.77
640.001	16.77
640.191	16.74
640.381	16.54
640.571	16.48
640.761	16.47
640.951	16.23
641.141	16.51
641.331	16.66
641.521	16.84
641.711	16.85
641.901	17.02
642.091	17.18
642.281	17.15
642.471	17.14
642.661	17.26
642.851	17.16
643.041	17.36
643.231	17.19
643.42	17.08
643.61	17.19
643.8	17.17
643.99	17.1
644.18	17.11
644.369	17.17
644.559	17.08
644.749	17.05
644.939	16.97
645.128	16.88
645.318	17.11
645.508	17.16
645.697	16.64
645.887	16.87
646.076	16.98
646.266	16.73
646.456	16.66
646.645	17
646.835	17.12
647.024	17.32
647.214	17.16
647.403	17.05
647.593	17.23
647.782	17.72
647.972	17.57
648.161	17.76
648.351	17.94
648.54	17.95
648.73	17.87
648.919	17.87
649.108	17.67
649.298	18.02
649.487	17.93
649.677	17.81
649.866	17.63
650.055	17.8
650.244	17.65
650.434	17.59
650.623	17.79
650.812	17.8
651.002	17.89
651.191	18.21
651.38	18.02
651.569	18.17
651.758	18.15
651.947	18.19
652.137	18.16
652.326	17.99
652.515	17.96
652.704	17.84
652.893	17.79
653.082	17.74
653.271	17.76
653.46	17.83
653.649	17.7
653.838	17.95
654.027	17.98
654.216	17.78
654.405	17.96
654.594	18
654.783	18.07
654.972	18.15
655.161	18.09
655.35	17.75
655.539	17.88
655.728	17.87
655.916	17.81
656.105	17.88
656.294	18.03
656.483	18.16
656.672	18.31
656.86	18.23
657.049	18.27
657.238	18.21
657.427	18.36
657.615	18.38
657.804	18.45
657.993	18.44
658.181	18.6
658.37	18.61
658.559	18.53
658.747	18.54
658.936	18.67
659.125	18.43
659.313	18.46
659.502	18.67
659.69	18.62
659.879	18.82
660.067	18.86
660.256	18.64
660.444	18.69
660.633	18.81
660.821	18.77
661.01	18.65
661.198	19.01
661.387	19.09
661.575	19.09
661.763	19.23
661.952	19.02
662.14	19.05
662.328	19.44
662.517	19.2
662.705	18.88
662.893	18.87
663.082	19.1
663.27	18.96
663.458	19
663.646	18.89
663.834	18.66
664.023	18.54
664.211	18.46
664.399	18.02
664.587	18.14
664.775	18.45
664.963	18.72
665.152	18.81
665.34	19.11
665.528	19.19
665.716	18.86
665.904	18.95
666.092	19.3
666.28	19.24
666.468	19.47
666.656	19.71
666.844	19.78
667.032	19.54
667.22	19.37
667.408	19
667.596	18.98
667.784	19.27
667.971	19.39
668.159	19.28
668.347	19.42
668.535	19.48
668.723	19.41
668.911	19.48
669.098	19.46
669.286	19.45
669.474	19.82
669.662	19.89
669.849	20.06
670.037	20.18
670.225	20.23
670.413	20.36
670.6	20.26
670.788	20.28
670.976	20.25
671.163	20.65
671.351	20.74
671.538	20.67
671.726	20.79
671.913	20.84
672.101	20.65
672.289	21
672.476	20.9
672.664	21.01
672.851	20.89
673.039	21.07
673.226	20.76
673.413	20.74
673.601	20.6
673.788	20.47
673.976	20.35
674.163	20.49
674.35	20.04
674.538	20.02
674.725	20.28
674.912	20.61
675.1	20.42
675.287	20.54
675.474	20.35
675.662	20.62
675.849	20.75
676.036	20.78
676.223	20.67
676.411	20.87
676.598	20.77
676.785	20.5
676.972	20.27
677.159	20.3
677.346	20.33
677.533	20.58
677.721	20.55
677.908	20.88
678.095	20.84
678.282	20.78
678.469	20.78
678.656	21.11
678.843	21.07
679.03	21.34
679.217	21.26
679.404	21.31
679.591	21.41
679.778	21.3
679.964	21.09
680.151	21.35
680.338	21.65
680.525	21.73
680.712	21.76
680.899	21.88
681.086	21.91
681.272	22.02
681.459	22.13
681.646	22.06
681.833	22.4
682.02	22.21
682.206	22.06
682.393	21.82
682.58	21.78
682.766	22.01
682.953	22.17
683.14	22.07
683.326	22.11
683.513	22.26
683.7	22.18
683.886	22
684.073	22.14
684.259	21.95
684.446	21.97
684.632	22.19
684.819	21.77
685.005	21.64
685.192	21.72
685.378	21.94
685.565	21.83
685.751	22.17
685.938	22.29
686.124	22.86
686.31	23.08
686.497	23.08
686.683	23.04
686.87	23.23
687.056	23.35
687.242	23.2
687.429	23.35
687.615	22.93
687.801	22.87
687.987	22.98
688.174	22.54
688.36	22.61
688.546	22.94
688.732	22.91
688.918	22.77
689.105	22.67
689.291	22.94
689.477	22.7
689.663	23.18
689.849	23.1
690.035	22.63
690.221	22.64
690.407	22.66
690.593	22.5
690.779	22.28
690.965	22.46
691.151	22.41
691.337	22.14
691.523	22.37
691.709	22.28
691.895	22.42
692.081	22.83
692.267	22.87
692.453	23.27
692.639	23.54
692.825	23.72
693.011	23.52
693.196	23.95
693.382	23.99
693.568	23.92
693.754	23.99
693.94	23.83
694.125	23.73
694.311	23.69
694.497	23.36
694.682	23.4
694.868	23.39
695.054	23.32
695.239	23.28
695.425	23.41
695.611	23.61
695.796	23.64
695.982	24.06
696.168	23.98
696.353	24.09
696.539	24.26
696.724	23.77
696.91	23.61
697.095	23.85
697.281	23.78
697.466	23.98
697.652	24.03
697.837	24.05
698.023	23.76
698.208	23.93
698.393	23.9
698.579	23.65
698.764	23.7
698.949	24.04
699.135	23.91
699.32	23.96
699.505	23.91
699.691	23.7
699.876	23.84
700.061	23.98
700.246	23.82
700.432	24.01
700.617	24.3
700.802	24.68
700.987	24.91
701.172	24.88
701.358	24.72
701.543	24.75
701.728	24.96
701.913	24.9
702.098	25.15
702.283	25.17
702.468	25.36
702.653	25.21
702.838	25.04
703.023	24.6
703.208	24.89
703.393	25.04
703.578	25.04
703.763	24.72
703.948	24.66
704.133	24.52
704.318	24.77
704.503	24.42
704.688	24.66
704.873	24.63
705.057	24.62
705.242	24.87
705.427	24.71
705.612	24.79
705.797	25.12
705.981	25.04
706.166	25.16
706.351	24.92
706.536	25.2
706.72	25.24
706.905	25.82
707.09	25.93
707.274	26.11
707.459	26.54
707.644	26.58
707.828	26.28
708.013	26.61
708.197	26.79
708.382	26.91
708.567	26.73
708.751	26.79
708.936	26.33
709.12	26.36
709.305	26.12
709.489	26.29
709.673	25.95
709.858	25.82
710.042	25.73
710.227	25.74
710.411	25.84
710.596	25.81
710.78	25.72
710.964	25.75
711.149	25.72
711.333	26.04
711.517	25.64
711.702	26.06
711.886	26.54
712.07	26.28
712.254	26.27
712.438	26.4
712.623	26.43
712.807	26.16
712.991	26.11
713.175	26.25
713.359	25.94
713.544	25.99
713.728	25.76
713.912	25.63
714.096	25.62
714.28	25.61
714.464	25.56
714.648	25.76
714.832	26.23
715.016	26.63
715.2	26.85
715.384	26.63
715.568	26.83
715.752	26.81
715.936	27
716.12	26.99
716.304	26.72
716.488	26.66
716.671	26.73
716.855	26.57
717.039	26.13
717.223	25.64
717.407	25.56
717.59	25.29
717.774	25.4
717.958	25.63
718.142	25.52
718.325	25.48
718.509	25.51
718.693	25.25
718.877	25.35
719.06	25.59
719.244	25.54
719.428	26.05
719.611	26.28
719.795	26.61
719.978	26.13
720.162	26.64
720.345	26.58
720.529	26.31
720.713	26.28
720.896	26.06
721.08	26.22
721.263	26.35
721.446	25.92
721.63	25.89
721.813	25.29
721.997	24.86
722.18	24.5
722.364	24.96
722.547	25.31
722.73	25.72
722.914	25.51
723.097	25.23
723.28	25.45
723.464	25.84
723.647	25.86
723.83	26.4
724.013	26.79
724.197	26.91
724.38	26.84
724.563	26.81
724.746	26.1
724.929	26.4
725.112	26.65
725.296	26.95
725.479	27.25
725.662	26.94
725.845	26.73
726.028	26.68
726.211	26.95
726.394	26.27
726.577	26.45
726.76	27.2
726.943	27.09
727.126	26.71
727.309	26.59
727.492	26.28
727.675	26.58
727.858	26.79
728.041	26.93
728.224	26.83
728.407	27.07
728.589	26.52
728.772	26.04
728.955	26.1
729.138	26.83
729.321	26.2
729.503	26.22
729.686	26.2
729.869	26.44
730.052	26.37
730.234	26.35
730.417	26.65
730.6	26.97
730.782	27.38
730.965	27.12
731.148	26.82
731.33	27.42
731.513	27.35
731.695	27.58
731.878	27.32
732.061	27.27
732.243	27.15
732.426	27.1
732.608	27.26
732.791	27.27
732.973	27.64
733.156	27.57
733.338	27.93
733.52	28.25
733.703	27.99
733.885	28.24
734.068	28.2
734.25	28.49
734.432	28.53
734.615	28.34
734.797	27.85
734.979	27.76
735.162	28.26
735.344	27.4
735.526	27.2
735.708	27.27
735.891	27
736.073	26.98
736.255	26.7
736.437	26.8
736.619	27.11
736.802	27.86
736.984	27.65
737.166	27.17
737.348	27.58
737.53	27.91
737.712	28.32
737.894	28.41
738.076	28.6
738.258	28.87
738.44	28.52
738.622	28.43
738.804	27.78
738.986	28.46
739.168	28.55
739.35	28.44
739.532	28.13
739.714	27.34
739.896	27.22
740.078	27.35
740.259	27.76
740.441	28.23
740.623	27.99
740.805	28.24
740.987	27.89
741.168	27.58
741.35	27.84
741.532	28.03
741.714	28.22
741.895	28.83
742.077	28.3
742.259	27.84
742.44	27.87
742.622	28.19
742.804	27.9
742.985	28.05
743.167	28.68
743.348	28.63
743.53	28.85
743.711	29.27
743.893	29.3
744.075	29.5
744.256	29.59
744.438	29.96
744.619	29.61
744.8	29.95
744.982	29.44
745.163	28.98
745.345	28.44
745.526	28.12
745.707	28.14
745.889	27.46
746.07	27.11
746.252	27.48
746.433	26.77
746.614	27.7
746.795	27.46
746.977	28.07
747.158	28.02
747.339	28.21
747.52	28.07
747.702	27.9
747.883	27.67
748.064	28.39
748.245	27.94
748.426	28.32
748.607	27.84
748.788	28
748.97	27.76
749.151	27.88
749.332	28.6
749.513	28.58
749.694	28.28
749.875	28.37
750.056	28.36
750.237	27.8
750.418	28.04
750.599	27.76
750.78	27.45
750.96	27.45
751.141	27.42
751.322	26.37
751.503	26.4
751.684	26.59
751.865	26.57
752.046	26.6
752.226	26.82
752.407	26.7
752.588	26.94
752.769	27.02
752.949	27.08
753.13	26.38
753.311	27.5
753.492	27.09
753.672	27.12
753.853	27.27
754.034	27.76
754.214	28.07
754.395	27.44
754.575	27.79
754.756	27.81
754.937	28.16
755.117	28.97
755.298	28.45
755.478	29.13
755.659	29.79
755.839	29.94
756.02	29.13
756.2	29.37
756.381	30.12
756.561	30.05
756.741	30.61
756.922	30.66
757.102	30.64
757.283	30.6
757.463	30.63
757.643	30.26
757.823	30.09
758.004	30.11
758.184	30.17
758.364	30.11
758.545	29.48
758.725	29.07
758.905	28.92
759.085	28.88
759.265	28.96
759.446	28.39
759.626	28.25
759.806	28.68
759.986	29.28
760.166	28.93
760.346	28.57
760.526	28.95
760.706	29.06
760.886	28.71
761.066	28.74
761.246	28.83
761.426	30.01
761.606	30.59
761.786	30.49
761.966	30.17
762.146	30.27
762.326	30.38
762.506	29.88
762.686	29.43
762.866	30.39
763.046	30.53
763.225	30.8
763.405	30.89
763.585	30.65
763.765	30.85
763.945	30.72
764.124	30.29
764.304	30.2
764.484	30.76
764.664	31.11
764.843	30.34
765.023	30.6
765.203	30.53
765.382	29.47
765.562	29.22
765.741	28.9
765.921	29.33
766.101	29.91
766.28	29.59
766.46	30.32
766.639	30.36
766.819	30.5
766.998	30.52
767.178	29.99
767.357	30.75
767.537	30.57
767.716	30.38
767.896	30.04
768.075	30.55
768.254	31.42
768.434	30.03
768.613	30.29
768.792	30.97
768.972	30.44
769.151	30.66
769.33	30.43
769.51	31.3
769.689	31.45
769.868	31.74
770.047	30.05
770.226	29.65
770.406	30.3
770.585	30.13
770.764	30
770.943	30.46
771.122	31.23
771.301	31.13
771.48	31.28
771.66	31.29
771.839	30.88
772.018	32.9
772.197	33.36
772.376	32.96
772.555	33.59
772.734	33.27
772.913	31.93
773.092	31.53
773.271	31.55
773.449	31.09
773.628	31.38
773.807	31.28
773.986	30.02
774.165	29.64
774.344	30.05
774.523	29.29
774.701	29.22
774.88	29.73
775.059	29.09
775.238	29.55
775.417	30.03
775.595	30.12
775.774	31.04
775.953	30.91
776.131	31.23
776.31	30.9
776.489	30.46
776.667	29.84
776.846	30.97
777.025	30.98
777.203	30.94
777.382	29.79
777.56	29.34
777.739	28.18
777.917	28.34
778.096	28.18
778.274	28.27
778.453	29
778.631	28.69
778.81	28.47
778.988	28.78
779.166	28.77
779.345	29.51
779.523	29.39
779.702	29.6
779.88	30.17
780.058	29.87
780.237	30.85
780.415	31.3
780.593	31.13
780.771	31.93
780.95	31.36
781.128	31.05
781.306	30.74
781.484	30.5
781.662	30.65
781.841	30.83
782.019	30.41
782.197	29.95
782.375	29.39
782.553	30.76
782.731	29.9
782.909	30.13
783.087	30.94
783.265	31.75
783.443	32.71
783.621	33.75
783.799	33.69
783.977	35.28
784.155	34.89
784.333	34.51
784.511	34.38
784.689	34.9
784.867	35.38
785.045	34.83
785.223	34.11
785.4	34.33
785.578	34.28
785.756	34.34
785.934	32.41
786.112	32.85
786.289	32.65
786.467	32.58
786.645	31.5
786.823	31.83
787	32.03
787.178	32.24
787.356	31.94
787.533	31.54
787.711	31.38
787.889	32.33
788.066	32.6
788.244	32.87
788.421	32.45
788.599	32.06
788.776	32.5
788.954	31.39
789.131	30.93
789.309	30.87
789.486	30.55
789.664	29.6
789.841	29.99
790.019	29.04
790.196	28.66
790.373	29.4
790.551	29.51
790.728	28.97
790.906	28.76
791.083	29.67
791.26	29.93
791.437	30.3
791.615	31.53
791.792	31
791.969	31.56
792.146	32.3
792.324	31.78
792.501	31.88
792.678	32.25
792.855	33.62
793.032	32.4
793.209	32.2
793.387	30.81
793.564	30.16
793.741	29.45
793.918	28.63
794.095	29.64
794.272	29.03
794.449	29.41
794.626	28.87
794.803	28.93
794.98	30.55
795.157	29.73
795.334	31.45
795.511	31.96
795.688	32.92
795.864	33.42
796.041	32.17
796.218	32.75
796.395	32.45
796.572	31.06
796.749	29.88
796.925	28.74
797.102	29.37
797.279	28.99
797.456	29.44
797.632	27.82
797.809	27.48
797.986	27.55
798.162	27.65
798.339	27.74
798.516	29.62
798.692	30.8
798.869	30.74
799.046	30.79
799.222	30.33
799.399	30.11
799.575	31.24
799.752	31.15
799.928	31.66
800.105	31.87
800.281	31.79
800.458	31.17
800.634	31.08
800.811	30.24
800.987	29.62
801.163	29.72
801.34	30.14
801.516	29.89
801.692	30.28
801.869	30.46
802.045	30.55
802.221	31.34
802.398	31.51
802.574	30.76
802.75	32.08
802.926	32.17
803.103	31.16
803.279	30.24
803.455	31.12
803.631	30.34
803.807	29.28
803.983	27.72
804.16	27.82
804.336	27.7
804.512	27.84
804.688	28.59
804.864	29.09
805.04	30
805.216	29.34
805.392	28.24
805.568	29.75
805.744	30.52
805.92	32.17
806.096	30.67
806.272	30.38
806.448	31.49
806.623	29.59
806.799	29.37
806.975	28.61
807.151	28.55
807.327	28.05
807.503	27.68
807.678	28.01
807.854	27.29
808.03	28.44
808.206	28.84
808.381	28.38
808.557	28.49
808.733	27.93
808.908	28.57
809.084	29.69
809.26	30.54
809.435	30.49
809.611	31.31
809.787	32.08
809.962	32.99
810.138	33.1
810.313	32.81
810.489	33.03
810.664	33.85
810.84	34.37
811.015	34.42
811.191	33.78
811.366	33.7
811.542	31.33
811.717	32.26
811.892	30.25
812.068	32.18
812.243	32.3
812.419	33.14
812.594	33.12
812.769	32.54
812.944	32.39
813.12	32.74
813.295	32.17
813.47	32.92
813.645	30.86
813.821	30.97
813.996	29.06
814.171	29.76
814.346	29.82
814.521	28.75
814.697	28.71
814.872	28.58
815.047	29.51
815.222	31.84
815.397	31.22
815.572	31.28
815.747	31.42
815.922	30.69
816.097	29.75
816.272	30.02
816.447	31.11
816.622	32.38
816.797	33.13
816.972	33.6
817.147	30.24
817.322	30.96
817.496	30.48
817.671	30.63
817.846	30.87
818.021	31.22
818.196	30.3
818.371	30.69
818.545	30.03
818.72	28.8
818.895	28.06
819.069	29.27
819.244	29.74
819.419	31.07
819.594	31.78
819.768	31.7
819.943	31.7
820.117	31.13
820.292	30.43
820.467	30.13
820.641	30.58
820.816	30.52
820.99	30.17
821.165	30.11
821.339	30.04
821.514	29.6
821.688	29.62
821.863	29.88
822.037	30.1
822.212	30.19
822.386	29.97
822.56	29.97
822.735	29.9
822.909	30.24
823.084	30.12
823.258	30.08
823.432	30.27
823.606	30.33
823.781	29.85
823.955	29.62
824.129	29.08
824.303	29.47
824.478	29.2
824.652	29.3
824.826	28.87
825	28.94
825.174	28.38
825.348	28.07
825.523	27.39
825.697	27.85
825.871	28.05
826.045	28.82
826.219	28.3
826.393	28.34
826.567	28.48
826.741	28.35
826.915	27.87
827.089	28.69
827.263	28.92
827.437	29.52
827.611	29.12
827.784	28.8
827.958	28.46
828.132	28.62
828.306	28.55
828.48	28.14
828.654	28.44
828.827	29.37
829.001	28.88
829.175	29.05
829.349	28.58
829.522	29.21
829.696	30.28
829.87	30.83
830.044	30.66
830.217	30.85
830.391	30.68
830.565	29.92
830.738	29.01
830.912	28.52
831.085	26.81
831.259	27.51
831.432	27.36
831.606	27.15
831.779	27.25
831.953	28.31
832.126	28.59
832.3	29.68
832.473	30.25
832.647	29.74
832.82	29.69
832.994	29.49
833.167	28.78
833.34	28.48
833.514	27.54
833.687	27.32
833.86	26.71
834.034	26.74
834.207	26.93
834.38	27.53
834.553	27.11
834.727	27.07
834.9	28.07
835.073	28.17
835.246	28.6
835.419	29.12
835.593	29.8
835.766	30
835.939	29.57
836.112	29.11
836.285	27.41
836.458	28.88
836.631	28.01
836.804	28.13
836.977	28.33
837.15	27.21
837.323	27.94
837.496	26.99
837.669	26.68
837.842	26.1
838.015	26.3
838.188	27.59
838.361	25.34
838.533	27.01
838.706	25.72
838.879	24.25
839.052	23.82
839.225	23.51
839.398	25.63
839.57	28.08
839.743	29.68
839.916	29.96
840.088	29.54
840.261	31.85
840.434	32.51
840.607	34.62
840.779	37.55
840.952	38.42
841.124	38.23
841.297	37.02
841.47	36.36
841.642	36.86
841.815	36.86
841.987	37.69
842.16	36.64
842.332	37.14
842.505	35.34
842.677	33.46
842.85	32.48
843.022	31.71
843.194	29.94
843.367	29.7
843.539	28.88
843.712	26.47
843.884	27.73
844.056	26.32
844.229	23.96
844.401	21.7
844.573	24.68
844.745	23.17
844.918	22.73
845.09	24.87
845.262	23.46
845.434	21.54
845.606	23.28
845.779	20.9
845.951	22.64
846.123	23.83
846.295	23.54
846.467	18.9
846.639	21.9
846.811	24.75
846.983	22.11
847.155	23.54
847.327	27.23
847.499	27.73
847.671	27.48
847.843	28.36
848.015	24.78
848.187	29.28
848.359	30.34
848.531	30.22
848.703	30.61
848.875	29.72
849.047	26.65
849.218	24.6
849.39	27.52
849.562	29.57
849.734	25.54
849.905	30.19
850.077	28.09
850.249	27.89
850.421	27.72
850.592	25.16
850.764	30.31
850.936	28.98
851.107	30.87
851.279	27.91
851.451	25.28
851.622	26.44
851.794	24.8
851.965	23.82
852.137	27.06
852.308	28.79
852.48	29.41
852.651	30.28
852.823	32.47
852.994	28.48
853.166	26.14
853.337	26.18
853.509	27.03
853.68	29.77
853.851	30.74
854.023	24.7
854.194	23.36
854.365	22.56
854.537	16.94
854.708	21.19
854.879	26.97
855.05	28.45
855.222	27.73
855.393	27.87
855.564	29.44
855.735	27.06
855.906	31.59
856.078	31.15
856.249	33.76
856.42	35
856.591	36.79
856.762	37.33
856.933	35.64
857.104	35.93
857.275	38.31
857.446	37.56
857.617	40.34
857.788	38.09
857.959	38.09
858.13	40.52
858.301	42.58
858.472	34.98
858.643	30.28
858.814	28.68
858.985	25.82
859.155	24.74
859.326	26.73
859.497	22.43
859.668	20.67
859.839	21.76
860.009	17.23
860.18	16.06
860.351	17.54
860.522	21.22
860.692	26.13
860.863	28.44
861.034	26.18
861.204	20.5
861.375	22.39
861.546	23.71
861.716	22.8
861.887	24.15
862.057	27.28
862.228	26.74
862.398	22.84
862.569	21
862.739	25.1
862.91	29.6
863.08	29.59
863.251	27.84
863.421	29.13
863.592	28.27
863.762	28.09
863.932	27.64
864.103	29.93
864.273	29.92
864.443	28.11
864.614	24.99
864.784	25.39
864.954	27.71
865.125	25.75
865.295	28.09
865.465	31.4
865.635	28.2
865.805	27.18
865.976	29.41
866.146	29.39
866.316	27.42
866.486	27.39
866.656	29.43
866.826	27.89
866.996	35.97
867.166	35.06
867.336	35.15
867.506	36.04
867.676	33.27
867.846	27.94
868.016	30.59
868.186	32.88
868.356	35.83
868.526	25.89
868.696	28.62
868.866	28.5
869.036	25.46
869.206	23.57
869.376	21.19
869.545	22.67
869.715	30.21
869.885	31.49
870.055	39.97
870.224	38.75
870.394	44.02
870.564	42.42
870.734	40.7
870.903	38.35
871.073	36.83
871.243	35.4
871.412	33.23
871.582	29.92
871.751	26.07
871.921	19.06
872.091	19.47
872.26	18.5
872.43	17.86
872.599	17.02
872.769	17.56
872.938	16.69
873.108	20.76
873.277	20.41
873.446	21.62
873.616	22.82
873.785	20.98
873.955	18.23
874.124	16.87
874.293	13.57
874.463	15.2
874.632	18.3
874.801	15.61
874.971	17.98
875.14	17.98
875.309	16.18
875.478	14.08
875.647	16.64
875.817	18.7
875.986	19.26
876.155	24.74
876.324	20.26
876.493	17.31
876.662	18.91
876.831	13.3
877	15.61
877.17	15.92
877.339	19.61
877.508	18.04
877.677	17.1
877.846	21.31
878.015	13.57
878.184	15.83
878.352	18.81
878.521	21.8
878.69	24.75
878.859	24.09
879.028	23.38
879.197	20.06
879.366	19.4
879.534	20.28
879.703	19.4
879.872	23.17
880.041	24.46
880.21	21.5
880.378	20.16
880.547	19.52
880.716	19.57
880.884	20.48
881.053	21.08
881.222	22.65
881.39	22.13
881.559	22.19
881.727	22.2
881.896	21.69
882.065	22.59
882.233	23.42
882.402	23.67
882.57	23.48
882.739	23.12
882.907	23.75
883.076	23.35
883.244	23.82
883.412	23.7
883.581	23.48
883.749	23.54
883.918	23.43
884.086	22.58
884.254	23.02
884.423	22.85
884.591	23.06
884.759	21.65
884.927	21
885.096	20.02
885.264	18.56
885.432	18.98
885.6	19.4
885.769	18.07
885.937	18.66
886.105	16.09
886.273	18.23
886.441	15.75
886.609	16.97
886.777	16.34
886.945	19.17
887.113	17.13
887.281	14.99
887.449	14.98
887.617	15.11
887.785	15.92
887.953	17.37
888.121	16.9
888.289	22.16
888.457	21.68
888.625	21.64
888.793	16.27
888.961	20.27
889.129	22.9
889.296	23.8
889.464	27
889.632	25.89
889.8	27.55
889.967	23.41
890.135	19.66
