Data from 2938771__Reflection_07.txt Node
Date: Fri Mar 13 15:14:44 EDT 2015
User: robert
Spectrometer: USB4E03002
Autoset integration time: false
Trigger mode: 4
Integration Time (sec): 1.000000E-1
Scans to average: 10
Electric dark correction enabled: false
Nonlinearity correction enabled: false
Boxcar width: 5
Stray light correction enabled: false
XAxis mode: Wavelengths
Stop averaging: false
Number of Pixels in Spectrum: 3648
>>>>>Begin Spectral Data<<<<<
177.575	-247.92
177.794	-647.95
178.014	-2511.11
178.233	1297.01
178.452	2567.57
178.672	592.05
178.891	562.2
179.11	3878.26
179.33	-1325.37
179.549	-543.65
179.768	-2213.33
179.987	894.03
180.207	2451.85
180.426	867.69
180.645	-1434.29
180.864	-824.19
181.084	-179.92
181.303	-342.52
181.522	-1342.55
181.741	3893.33
181.96	246.67
182.179	240.85
182.398	200
182.618	178.87
182.837	234.32
183.056	212.93
183.275	158.67
183.494	132.69
183.713	115.03
183.932	187
184.151	177.24
184.37	247.51
184.589	338.2
184.808	680
185.027	236.84
185.246	216.94
185.465	135.77
185.684	154.76
185.903	148.54
186.122	157.19
186.341	126.61
186.56	135.68
186.779	173.4
186.998	139.19
187.216	169.1
187.435	522.03
187.654	266.91
187.873	255.05
188.092	273.7
188.311	500
188.53	364.9
188.748	1234.37
188.967	-3208.33
189.186	729.71
189.405	735.25
189.623	392.75
189.842	272.71
190.061	275.48
190.28	375.24
190.498	250.09
190.717	217.06
190.936	240.56
191.154	211.55
191.373	231.08
191.592	207.13
191.81	151.83
192.029	158.81
192.248	168.83
192.466	170.5
192.685	156.02
192.904	189.75
193.122	186.1
193.341	217.56
193.559	370
193.778	177.42
193.996	226.87
194.215	2744
194.433	668.22
194.652	444.59
194.87	714.89
195.089	11880
195.307	2215.38
195.526	-548.6
195.744	1693.62
195.963	454.1
196.181	433.06
196.399	312.27
196.618	274.85
196.836	367.89
197.055	649.35
197.273	1000
197.491	2773.53
197.71	1798.15
197.928	502.79
198.146	692.37
198.365	790.67
198.583	672.73
198.801	-106.11
199.019	-135.86
199.238	-87.14
199.456	-70
199.674	-132.45
199.892	-134.96
200.111	-108.42
200.329	-109.64
200.547	-65.27
200.765	-271.56
200.983	-249.79
201.202	-622.43
201.42	-1383.33
201.638	2504.35
201.856	625.77
202.074	1360.98
202.292	368.42
202.51	421.71
202.728	267.66
202.946	540.27
203.165	1176.19
203.383	65500
203.601	521.83
203.819	513.86
204.037	282.89
204.255	310.14
204.473	173.35
204.691	385.08
204.909	194.97
205.127	229.29
205.345	154.44
205.562	149.5
205.78	113.2
205.998	118.9
206.216	131.2
206.434	148.47
206.652	148.78
206.87	178.4
207.088	146.45
207.306	203.64
207.523	184.11
207.741	172.67
207.959	177.48
208.177	199.43
208.395	217.59
208.612	292.45
208.83	218.28
209.048	272.02
209.266	1843.33
209.483	-1279.41
209.701	-1900
209.919	1042.19
210.136	15200
210.354	-1955.56
210.572	-377.6
210.79	833.64
211.007	352.45
211.225	1683.05
211.442	390.91
211.66	237.89
211.878	214.39
212.095	385.63
212.313	402.06
212.53	391.12
212.748	347.46
212.966	231.64
213.183	285.95
213.401	272
213.618	206.01
213.836	217.65
214.053	244.77
214.271	251.57
214.488	93.86
214.705	86.93
214.923	53.01
215.14	61.37
215.358	69.65
215.575	68.62
215.793	68.45
216.01	84.05
216.227	75.2
216.445	77.06
216.662	69.37
216.879	74.06
217.097	78.52
217.314	104.17
217.531	100.97
217.749	94.43
217.966	88.9
218.183	96.6
218.4	73.14
218.618	81.53
218.835	81.62
219.052	70.58
219.269	58.53
219.487	56.63
219.704	39.63
219.921	24.51
220.138	37.77
220.355	41.98
220.572	44.3
220.79	29.81
221.007	16.27
221.224	8.71
221.441	13.2
221.658	21.16
221.875	24.94
222.092	24.93
222.309	27.99
222.526	19.63
222.743	14.1
222.96	12.18
223.177	27.06
223.394	30.21
223.611	28.02
223.828	29.8
224.045	33.97
224.262	40.53
224.479	44.12
224.696	47.42
224.913	47.66
225.13	44.91
225.347	47.96
225.564	43.29
225.781	40.35
225.997	37.89
226.214	35
226.431	28.03
226.648	18.12
226.865	16.98
227.082	15
227.298	13.76
227.515	12.67
227.732	12.07
227.949	10.06
228.165	10.24
228.382	9.64
228.599	9.25
228.816	9.68
229.032	9.51
229.249	8.32
229.466	7.83
229.682	7.77
229.899	7.55
230.116	6.43
230.332	7.27
230.549	7.01
230.765	7.5
230.982	7.36
231.199	7.24
231.415	8.63
231.632	9.29
231.848	10.98
232.065	9.8
232.281	9.65
232.498	9.21
232.714	9.9
232.931	10.9
233.147	10.83
233.364	11.86
233.58	11.5
233.797	10.75
234.013	11.39
234.23	8.79
234.446	11.35
234.662	11.66
234.879	12.67
235.095	12.89
235.312	14.11
235.528	11.97
235.744	9.59
235.961	10.71
236.177	10.31
236.393	10.29
236.61	11.12
236.826	8.58
237.042	9.12
237.258	9.4
237.475	8.65
237.691	6.3
237.907	7.66
238.123	10.1
238.339	9.17
238.556	8.86
238.772	7.82
238.988	7.82
239.204	8.94
239.42	9.53
239.636	9.31
239.853	9.04
240.069	8.86
240.285	8.81
240.501	8.72
240.717	8.89
240.933	9.2
241.149	9.15
241.365	8.36
241.581	7.71
241.797	7.61
242.013	7.48
242.229	7.51
242.445	7.85
242.661	7.77
242.877	7.5
243.093	7.44
243.309	7.31
243.525	7.33
243.741	7.59
243.957	7.67
244.173	7.52
244.388	7.8
244.604	7.96
244.82	8.06
245.036	8.09
245.252	7.17
245.468	7.34
245.683	7.41
245.899	6.56
246.115	6.74
246.331	6.51
246.547	6.23
246.762	5.97
246.978	5.73
247.194	5.36
247.409	5.55
247.625	5.62
247.841	5.39
248.057	5.46
248.272	5.71
248.488	5.96
248.703	6.32
248.919	6.4
249.135	6.4
249.35	7.01
249.566	7.45
249.782	7.4
249.997	8.2
250.213	9.13
250.428	9.13
250.644	8.72
250.859	7.53
251.075	7.51
251.29	7.36
251.506	7.72
251.721	7.31
251.937	6.96
252.152	6.46
252.368	6.6
252.583	5.87
252.798	5.76
253.014	6.39
253.229	7.16
253.445	6.76
253.66	7.62
253.875	7.49
254.091	6.66
254.306	6.67
254.521	7.1
254.737	7
254.952	7.54
255.167	7.23
255.383	7.11
255.598	6.33
255.813	6.27
256.028	5.31
256.244	4.82
256.459	5.37
256.674	5.33
256.889	5.4
257.104	4.78
257.32	4.84
257.535	5.39
257.75	5.14
257.965	5.37
258.18	4.96
258.395	5.19
258.61	5.36
258.826	5.07
259.041	5.05
259.256	4.76
259.471	4.71
259.686	4.32
259.901	4.04
260.116	3.83
260.331	3.87
260.546	3.81
260.761	3.58
260.976	3.49
261.191	3.63
261.406	3.26
261.621	3.52
261.836	3.55
262.05	3.37
262.265	3.11
262.48	3.27
262.695	2.79
262.91	2.71
263.125	2.94
263.34	2.81
263.555	2.63
263.769	3.05
263.984	2.58
264.199	1.81
264.414	2.39
264.629	3.08
264.843	3.75
265.058	4.28
265.273	5.02
265.488	4.67
265.702	5.34
265.917	5.35
266.132	5.31
266.346	5.3
266.561	6.04
266.776	5.91
266.99	5.98
267.205	5.57
267.42	5.38
267.634	5.17
267.849	5.16
268.063	4.87
268.278	4.69
268.492	4.58
268.707	4.63
268.922	3.97
269.136	4.31
269.351	3.65
269.565	3.7
269.78	4.05
269.994	4.06
270.209	3.76
270.423	3.74
270.637	3.68
270.852	3.3
271.066	3.67
271.281	3.88
271.495	3.54
271.709	3.74
271.924	3.72
272.138	3.43
272.353	3.49
272.567	3.82
272.781	3.87
272.996	3.9
273.21	4.46
273.424	4.72
273.638	4.81
273.853	4.84
274.067	4.83
274.281	5.1
274.495	4.84
274.71	4.76
274.924	5.08
275.138	5.06
275.352	5.08
275.566	5.01
275.781	4.15
275.995	4.62
276.209	4.8
276.423	4.15
276.637	3.65
276.851	4.3
277.065	4.23
277.279	4.06
277.493	3.79
277.707	4.11
277.921	3.8
278.135	3.79
278.349	3.3
278.563	3.25
278.777	4.03
278.991	4.56
279.205	4.43
279.419	4.47
279.633	4.04
279.847	4
280.061	3.59
280.275	3.58
280.489	3.99
280.703	3.97
280.917	3.9
281.131	3.77
281.344	3.25
281.558	2.68
281.772	2.85
281.986	3.14
282.2	3.24
282.414	3.25
282.627	3.32
282.841	3.08
283.055	3.01
283.269	2.78
283.482	2.84
283.696	2.95
283.91	3.26
284.123	2.96
284.337	3.11
284.551	3.09
284.764	3.25
284.978	3.42
285.192	3.52
285.405	3.48
285.619	3.76
285.833	3.6
286.046	3.51
286.26	3.59
286.473	3.84
286.687	3.69
286.9	3.51
287.114	3.28
287.327	2.8
287.541	2.74
287.754	2.82
287.968	2.75
288.181	3.1
288.395	3.35
288.608	3.63
288.822	3.56
289.035	3.33
289.248	3.27
289.462	3.6
289.675	3.86
289.889	3.94
290.102	3.8
290.315	3.6
290.529	3.49
290.742	3.76
290.955	3.45
291.169	3.87
291.382	4.14
291.595	4.38
291.808	4.48
292.022	4.29
292.235	4.15
292.448	4.45
292.661	4.74
292.875	4.59
293.088	4.44
293.301	4.27
293.514	4.17
293.727	4.28
293.94	4.21
294.153	4.01
294.367	4.15
294.58	4.33
294.793	3.86
295.006	3.94
295.219	4.03
295.432	3.69
295.645	3.98
295.858	3.34
296.071	3.31
296.284	3.3
296.497	3.38
296.71	3.53
296.923	3.68
297.136	3.84
297.349	3.85
297.562	3.92
297.775	3.97
297.988	4.11
298.201	4.34
298.414	4.36
298.626	4.62
298.839	4.35
299.052	4.34
299.265	3.81
299.478	4.16
299.691	4.09
299.903	4.21
300.116	4.28
300.329	4.18
300.542	4.45
300.755	4.2
300.967	4.22
301.18	4.59
301.393	4.62
301.605	4.87
301.818	4.75
302.031	4.65
302.243	4.37
302.456	4.55
302.669	4.12
302.881	4.05
303.094	4.05
303.307	4.01
303.519	3.88
303.732	3.66
303.944	3.62
304.157	3.64
304.37	3.82
304.582	3.83
304.795	3.84
305.007	4.23
305.22	3.99
305.432	4.03
305.645	3.75
305.857	4.15
306.069	4.41
306.282	4.64
306.494	4.18
306.707	4.07
306.919	4.01
307.132	4.05
307.344	3.98
307.556	4.63
307.769	4.85
307.981	5.2
308.193	4.91
308.406	5.14
308.618	5.06
308.83	5.44
309.043	5.56
309.255	5.65
309.467	5.64
309.679	5.49
309.892	5.23
310.104	5.13
310.316	4.8
310.528	4.77
310.74	4.79
310.953	4.75
311.165	4.86
311.377	4.5
311.589	4.66
311.801	4.6
312.013	4.48
312.225	4.33
312.437	4.36
312.649	4.62
312.862	4.8
313.074	4.48
313.286	4.85
313.498	4.66
313.71	5.36
313.922	5.62
314.134	5.8
314.346	6.26
314.558	6.54
314.77	6.95
314.982	6.78
315.193	6.64
315.405	6.86
315.617	6.7
315.829	6.83
316.041	6.75
316.253	6.43
316.465	7
316.677	6.97
316.888	7
317.1	6.8
317.312	7.25
317.524	7.52
317.736	8.01
317.947	8.09
318.159	8.45
318.371	8.49
318.583	8.45
318.794	7.8
319.006	7.88
319.218	7.9
319.43	7.85
319.641	7.96
319.853	7.99
320.064	7.71
320.276	7.91
320.488	7.88
320.699	7.95
320.911	8.29
321.123	8.25
321.334	8.4
321.546	8.48
321.757	8.84
321.969	8.44
322.18	9.03
322.392	9.26
322.603	8.97
322.815	9.03
323.026	9.42
323.238	9.15
323.449	9.41
323.661	9.15
323.872	9.4
324.083	9.53
324.295	10.32
324.506	9.99
324.718	9.94
324.929	10.35
325.14	10.54
325.352	10.3
325.563	10.73
325.774	10.78
325.986	11.42
326.197	11.59
326.408	11.78
326.62	11.77
326.831	11.79
327.042	12.41
327.253	12.57
327.464	13.06
327.676	13.51
327.887	14.05
328.098	14.86
328.309	14.59
328.52	15.2
328.732	15.63
328.943	15.99
329.154	16.38
329.365	15.89
329.576	15.85
329.787	15.88
329.998	15.88
330.209	15.95
330.42	15.98
330.631	16.94
330.842	17.03
331.053	17.36
331.264	17.63
331.475	17.82
331.686	18.72
331.897	19.48
332.108	19.91
332.319	20.59
332.53	20.87
332.741	21.44
332.952	21.68
333.163	21.84
333.374	21.39
333.585	21.56
333.795	21.97
334.006	21.98
334.217	22.08
334.428	21.91
334.639	21.75
334.849	21.53
335.06	21.51
335.271	21.61
335.482	21.81
335.692	22.23
335.903	22.19
336.114	22.86
336.325	22.94
336.535	23.19
336.746	23.47
336.957	23.66
337.167	23.9
337.378	23.85
337.589	23.96
337.799	24.08
338.01	24.31
338.22	24.53
338.431	23.87
338.642	23.95
338.852	23.86
339.063	24.04
339.273	24.14
339.484	24.35
339.694	24.12
339.905	23.99
340.115	24.07
340.326	23.91
340.536	23.69
340.746	24.05
340.957	24.39
341.167	24.45
341.378	23.83
341.588	23.79
341.799	23.61
342.009	23.7
342.219	23.6
342.43	23.48
342.64	23.82
342.85	23.94
343.061	23.78
343.271	23.65
343.481	23.51
343.691	23.53
343.902	23.82
344.112	23.84
344.322	23.88
344.532	23.97
344.743	24.15
344.953	23.64
345.163	23.42
345.373	23.43
345.583	23.28
345.793	23.26
346.004	23.79
346.214	23.34
346.424	23.33
346.634	23.32
346.844	23.23
347.054	22.88
347.264	23.34
347.474	23.53
347.684	23.1
347.894	23.32
348.104	23.52
348.314	23.46
348.524	23.45
348.734	23.3
348.944	23.44
349.154	23.61
349.364	23.51
349.574	23.3
349.784	23.37
349.994	23.82
350.204	23.51
350.413	23.46
350.623	23.3
350.833	23.21
351.043	23.53
351.253	23.65
351.463	23.7
351.672	23.65
351.882	23.88
352.092	23.69
352.302	23.7
352.511	23.82
352.721	23.64
352.931	23.9
353.141	24
353.35	23.93
353.56	23.9
353.77	23.91
353.979	23.96
354.189	23.64
354.399	23.71
354.608	23.74
354.818	23.77
355.027	23.8
355.237	23.59
355.447	23.75
355.656	23.68
355.866	23.36
356.075	23.16
356.285	23.27
356.494	23.38
356.704	23.32
356.913	23.41
357.123	23.44
357.332	23.38
357.542	23.35
357.751	23.3
357.96	23.18
358.17	23.4
358.379	23.32
358.589	23.2
358.798	23.49
359.007	23.45
359.217	23.36
359.426	23.4
359.635	23.69
359.845	23.41
360.054	23.08
360.263	23.16
360.472	23.11
360.682	23.07
360.891	23.26
361.1	22.99
361.309	22.88
361.519	22.69
361.728	22.41
361.937	22.15
362.146	22.31
362.355	22.42
362.564	22.39
362.774	22.4
362.983	22.47
363.192	22.26
363.401	22.35
363.61	22.47
363.819	22.51
364.028	22.53
364.237	22.47
364.446	22.3
364.655	22.49
364.864	22.47
365.073	22.47
365.282	22.56
365.491	22.43
365.7	22.18
365.909	22.14
366.118	22.14
366.327	22.31
366.536	22.51
366.745	22.57
366.954	22.21
367.162	22.06
367.371	22.04
367.58	21.88
367.789	21.71
367.998	21.77
368.207	21.79
368.415	21.69
368.624	21.66
368.833	21.49
369.042	21.67
369.25	22.18
369.459	22.55
369.668	22.31
369.877	22.08
370.085	22.39
370.294	22.59
370.503	22.5
370.711	22.35
370.92	22.31
371.129	22.08
371.337	21.95
371.546	21.68
371.754	21.47
371.963	21.48
372.171	21.85
372.38	21.68
372.589	21.41
372.797	21.34
373.006	21.28
373.214	21.16
373.423	21.2
373.631	21.28
373.84	21.12
374.048	20.88
374.256	20.79
374.465	20.63
374.673	20.58
374.882	20.51
375.09	20.61
375.298	21.12
375.507	21.07
375.715	21.03
375.923	20.8
376.132	20.75
376.34	20.58
376.548	20.71
376.757	20.47
376.965	20.5
377.173	20.45
377.381	20.37
377.59	19.99
377.798	20.07
378.006	20.12
378.214	19.94
378.423	19.96
378.631	20.18
378.839	19.96
379.047	19.95
379.255	19.87
379.463	19.71
379.671	19.58
379.879	19.62
380.088	19.28
380.296	19.29
380.504	19.38
380.712	19.51
380.92	19.37
381.128	19.27
381.336	19.36
381.544	19.41
381.752	19.46
381.96	19.5
382.168	19.37
382.376	19.56
382.584	19.51
382.791	19.32
382.999	19.35
383.207	19.39
383.415	19.42
383.623	19.22
383.831	19.14
384.039	19.16
384.247	18.94
384.454	18.95
384.662	18.74
384.87	18.51
385.078	18.59
385.285	18.37
385.493	18.32
385.701	18.04
385.909	18.09
386.116	18.07
386.324	17.96
386.532	17.92
386.739	17.89
386.947	18.07
387.155	18.16
387.362	18.32
387.57	18.2
387.778	18.36
387.985	18.57
388.193	18.45
388.4	18.39
388.608	18.62
388.816	18.68
389.023	18.66
389.231	18.61
389.438	18.54
389.646	18.45
389.853	18.63
390.061	18.43
390.268	18.31
390.475	18.22
390.683	18.01
390.89	17.83
391.098	17.99
391.305	17.82
391.512	17.59
391.72	17.54
391.927	17.33
392.135	17.19
392.342	17.1
392.549	17.15
392.756	17.15
392.964	17.2
393.171	17.03
393.378	16.7
393.586	16.87
393.793	17.02
394	16.91
394.207	17.08
394.414	16.89
394.622	16.97
394.829	16.8
395.036	16.83
395.243	16.68
395.45	16.72
395.657	16.86
395.864	16.63
396.072	16.61
396.279	16.63
396.486	16.27
396.693	16.36
396.9	16.23
397.107	16.37
397.314	16.41
397.521	16.51
397.728	16.56
397.935	16.62
398.142	16.73
398.349	16.59
398.556	16.44
398.763	16.57
398.97	16.41
399.177	16.42
399.383	16.27
399.59	16.36
399.797	16.46
400.004	16.41
400.211	16.28
400.418	16.26
400.625	16.31
400.831	16.53
401.038	16.65
401.245	16.99
401.452	17.12
401.658	17.2
401.865	16.9
402.072	16.71
402.279	16.61
402.485	16.49
402.692	16.44
402.899	16.38
403.105	16.26
403.312	16.07
403.519	15.79
403.725	15.74
403.932	15.59
404.138	15.75
404.345	15.79
404.552	15.76
404.758	15.8
404.965	15.75
405.171	15.66
405.378	15.74
405.584	15.7
405.791	15.74
405.997	15.57
406.204	15.58
406.41	15.46
406.617	15.61
406.823	15.9
407.029	15.94
407.236	15.79
407.442	15.99
407.649	15.97
407.855	16.09
408.061	15.97
408.268	15.87
408.474	16.02
408.68	16.03
408.887	15.93
409.093	15.56
409.299	15.61
409.505	15.7
409.712	15.51
409.918	15.44
410.124	15.37
410.33	15.56
410.537	15.66
410.743	15.61
410.949	15.65
411.155	15.54
411.361	15.67
411.567	15.59
411.773	15.59
411.98	15.51
412.186	15.32
412.392	15.48
412.598	15.34
412.804	15.34
413.01	15.18
413.216	15.29
413.422	15.1
413.628	15.06
413.834	14.99
414.04	14.95
414.246	15.01
414.452	15.21
414.658	15.1
414.864	15.07
415.07	14.97
415.275	15.06
415.481	14.92
415.687	15.1
415.893	14.97
416.099	14.84
416.305	14.75
416.511	14.64
416.716	14.57
416.922	14.35
417.128	14.22
417.334	14.12
417.539	13.88
417.745	13.72
417.951	13.53
418.157	13.45
418.362	13.43
418.568	13.45
418.774	13.41
418.979	13.28
419.185	13.38
419.391	13.3
419.596	13.26
419.802	13.33
420.008	13.34
420.213	12.72
420.419	12.73
420.624	12.73
420.83	12.76
421.035	12.78
421.241	12.75
421.446	12.7
421.652	12.75
421.857	12.79
422.063	12.74
422.268	12.71
422.474	13.31
422.679	13.33
422.885	13.32
423.09	13.22
423.295	13.2
423.501	13.22
423.706	13.15
423.911	13.13
424.117	13.13
424.322	13.09
424.527	13.01
424.733	12.98
424.938	12.97
425.143	12.98
425.349	12.95
425.554	12.88
425.759	12.84
425.964	12.87
426.169	12.9
426.375	12.84
426.58	12.85
426.785	13.05
426.99	13.09
427.195	13.2
427.4	13.17
427.605	13.18
427.811	13.23
428.016	13.24
428.221	13.22
428.426	13.15
428.631	13.22
428.836	13.28
429.041	13.13
429.246	13.06
429.451	13.01
429.656	12.95
429.861	13
430.066	13.02
430.271	13.12
430.476	13.16
430.681	13.25
430.886	13.19
431.09	13.23
431.295	13.39
431.5	13.52
431.705	13.5
431.91	13.5
432.115	13.48
432.32	13.56
432.524	13.56
432.729	13.65
432.934	13.71
433.139	13.64
433.343	13.59
433.548	13.51
433.753	13.5
433.958	13.46
434.162	13.58
434.367	13.66
434.572	13.6
434.776	13.56
434.981	13.49
435.186	13.52
435.39	13.63
435.595	13.7
435.799	13.7
436.004	13.73
436.209	13.89
436.413	13.96
436.618	13.92
436.822	13.95
437.027	13.9
437.231	13.82
437.436	13.74
437.64	13.7
437.845	13.71
438.049	13.71
438.253	13.58
438.458	13.44
438.662	13.27
438.867	13.37
439.071	13.35
439.275	13.49
439.48	13.58
439.684	13.61
439.888	13.64
440.093	13.53
440.297	13.53
440.501	13.6
440.706	13.59
440.91	13.65
441.114	13.58
441.318	13.68
441.523	13.61
441.727	13.61
441.931	13.55
442.135	13.58
442.339	13.76
442.543	13.74
442.748	13.7
442.952	13.65
443.156	13.65
443.36	13.7
443.564	13.62
443.768	13.66
443.972	13.61
444.176	13.59
444.38	13.55
444.584	13.48
444.788	13.57
444.992	13.53
445.196	13.5
445.4	13.52
445.604	13.44
445.808	13.38
446.012	13.29
446.216	13.36
446.42	13.36
446.624	13.23
446.828	13.22
447.032	13.16
447.235	13.14
447.439	13.14
447.643	13.13
447.847	13.1
448.051	13.13
448.254	13.1
448.458	12.97
448.662	12.99
448.866	13.14
449.069	13.17
449.273	13.18
449.477	13.35
449.681	13.4
449.884	13.38
450.088	13.5
450.292	13.53
450.495	13.68
450.699	13.73
450.902	13.74
451.106	13.58
451.31	13.61
451.513	13.58
451.717	13.38
451.92	13.36
452.124	13.33
452.327	13.26
452.531	13.24
452.734	13.21
452.938	13.29
453.141	13.24
453.345	13.37
453.548	13.27
453.752	13.27
453.955	13.36
454.158	13.4
454.362	13.53
454.565	13.55
454.769	13.52
454.972	13.51
455.175	13.55
455.379	13.64
455.582	13.75
455.785	13.85
455.988	13.83
456.192	13.85
456.395	13.78
456.598	13.72
456.801	13.62
457.005	13.71
457.208	13.66
457.411	13.56
457.614	13.46
457.817	13.18
458.021	13.07
458.224	13.08
458.427	13
458.63	13
458.833	12.94
459.036	12.9
459.239	12.85
459.442	12.83
459.645	12.82
459.848	12.81
460.051	12.91
460.254	12.88
460.457	12.94
460.66	12.93
460.863	13
461.066	13
461.269	13.15
461.472	13.22
461.675	13.34
461.878	13.42
462.081	13.53
462.284	13.66
462.486	13.86
462.689	13.89
462.892	13.94
463.095	13.98
463.298	14.04
463.5	14.04
463.703	13.99
463.906	13.95
464.109	13.91
464.311	13.85
464.514	13.83
464.717	13.8
464.92	13.83
465.122	13.93
465.325	13.96
465.528	13.96
465.73	13.95
465.933	14
466.135	13.96
466.338	13.99
466.541	14.08
466.743	14.04
466.946	14.13
467.148	14.13
467.351	14.13
467.553	14.1
467.756	14.15
467.958	14.26
468.161	14.31
468.363	14.41
468.566	14.42
468.768	14.43
468.971	14.47
469.173	14.5
469.375	14.56
469.578	14.59
469.78	14.7
469.983	14.72
470.185	14.73
470.387	14.8
470.59	14.85
470.792	14.93
470.994	14.91
471.196	14.97
471.399	15.05
471.601	14.99
471.803	15.09
472.005	15.08
472.208	15.13
472.41	15.08
472.612	15.03
472.814	14.96
473.016	14.97
473.218	14.96
473.421	14.84
473.623	14.77
473.825	14.74
474.027	14.79
474.229	14.8
474.431	14.77
474.633	14.83
474.835	14.85
475.037	14.93
475.239	14.94
475.441	14.98
475.643	15.07
475.845	14.95
476.047	15.02
476.249	14.98
476.451	14.98
476.653	15.02
476.855	14.97
477.057	15.01
477.258	15.02
477.46	15.03
477.662	15.09
477.864	15.02
478.066	14.99
478.268	14.95
478.469	14.95
478.671	14.89
478.873	14.88
479.075	14.79
479.276	14.73
479.478	14.71
479.68	14.63
479.882	14.52
480.083	14.57
480.285	14.56
480.487	14.59
480.688	14.47
480.89	14.45
481.091	14.28
481.293	14.23
481.495	14.09
481.696	13.89
481.898	13.8
482.099	13.64
482.301	13.5
482.502	13.39
482.704	13.28
482.905	13.2
483.107	13.09
483.308	13.04
483.51	13.02
483.711	12.98
483.913	12.98
484.114	12.97
484.315	12.97
484.517	13.02
484.718	13.05
484.92	13.06
485.121	13.09
485.322	13.14
485.524	13.2
485.725	13.18
485.926	13.21
486.127	13.25
486.329	13.23
486.53	13.23
486.731	13.19
486.932	13.14
487.134	13.16
487.335	13.18
487.536	13.19
487.737	13.15
487.938	13.2
488.139	13.28
488.341	13.33
488.542	13.36
488.743	13.41
488.944	13.48
489.145	13.59
489.346	13.61
489.547	13.67
489.748	13.72
489.949	13.79
490.15	13.8
490.351	13.73
490.552	13.71
490.753	13.76
490.954	13.73
491.155	13.71
491.356	13.7
491.557	13.72
491.758	13.71
491.959	13.73
492.159	13.81
492.36	13.89
492.561	14.01
492.762	14.1
492.963	14.2
493.164	14.32
493.364	14.39
493.565	14.49
493.766	14.62
493.967	14.78
494.167	14.85
494.368	14.95
494.569	15.07
494.769	15.14
494.97	15.18
495.171	15.25
495.371	15.29
495.572	15.49
495.773	15.62
495.973	15.64
496.174	15.63
496.375	15.7
496.575	15.66
496.776	15.65
496.976	15.67
497.177	15.68
497.377	15.74
497.578	15.87
497.778	15.88
497.979	15.84
498.179	15.89
498.38	15.98
498.58	16.09
498.78	16.23
498.981	16.4
499.181	16.48
499.382	16.61
499.582	16.65
499.782	16.79
499.983	16.89
500.183	17.1
500.383	17.15
500.584	17.26
500.784	17.33
500.984	17.48
501.184	17.57
501.385	17.65
501.585	17.75
501.785	17.86
501.985	17.87
502.185	17.96
502.386	18.05
502.586	18.23
502.786	18.19
502.986	18.32
503.186	18.36
503.386	18.36
503.586	18.44
503.786	18.47
503.987	18.63
504.187	18.73
504.387	18.78
504.587	18.86
504.787	18.98
504.987	19.26
505.187	19.38
505.387	19.52
505.587	19.64
505.786	19.77
505.986	19.86
506.186	19.86
506.386	20
506.586	20.13
506.786	20.2
506.986	20.31
507.186	20.29
507.386	20.26
507.585	20.32
507.785	20.36
507.985	20.43
508.185	20.55
508.384	20.63
508.584	20.66
508.784	20.69
508.984	20.82
509.183	20.76
509.383	20.93
509.583	21.16
509.782	21.16
509.982	21.36
510.182	21.52
510.381	21.63
510.581	21.68
510.781	21.75
510.98	21.92
511.18	22.06
511.379	22.24
511.579	22.35
511.778	22.43
511.978	22.57
512.177	22.71
512.377	22.83
512.576	23.02
512.776	23.26
512.975	23.51
513.175	23.73
513.374	23.75
513.573	23.89
513.773	24.07
513.972	24.14
514.172	24.34
514.371	24.51
514.57	24.63
514.77	24.69
514.969	24.85
515.168	24.99
515.367	25.08
515.567	25.3
515.766	25.35
515.965	25.39
516.164	25.49
516.364	25.64
516.563	25.61
516.762	25.64
516.961	25.69
517.16	25.64
517.359	25.63
517.559	25.66
517.758	25.68
517.957	25.79
518.156	25.84
518.355	25.91
518.554	25.95
518.753	26.06
518.952	26.19
519.151	26.33
519.35	26.49
519.549	26.61
519.748	26.76
519.947	26.98
520.146	27.2
520.345	27.41
520.544	27.65
520.743	27.85
520.942	28.13
521.141	28.34
521.339	28.56
521.538	28.82
521.737	29.09
521.936	29.22
522.135	29.36
522.333	29.53
522.532	29.66
522.731	29.8
522.93	29.82
523.129	29.8
523.327	29.88
523.526	29.86
523.725	29.86
523.923	29.88
524.122	29.97
524.321	29.92
524.519	29.8
524.718	29.84
524.917	29.77
525.115	29.75
525.314	29.77
525.512	29.75
525.711	29.78
525.909	29.77
526.108	29.77
526.306	29.61
526.505	29.59
526.703	29.55
526.902	29.49
527.1	29.36
527.299	29.34
527.497	29.28
527.696	29.23
527.894	29.16
528.092	29.12
528.291	29.12
528.489	29.17
528.688	29.21
528.886	29.26
529.084	29.32
529.283	29.46
529.481	29.59
529.679	29.75
529.877	29.91
530.076	30.14
530.274	30.38
530.472	30.58
530.67	30.79
530.869	31.02
531.067	31.27
531.265	31.44
531.463	31.51
531.661	31.54
531.859	31.53
532.057	31.54
532.255	31.59
532.454	31.5
532.652	31.46
532.85	31.41
533.048	31.39
533.246	31.36
533.444	31.36
533.642	31.51
533.84	31.64
534.038	31.8
534.236	31.9
534.434	31.99
534.632	32.12
534.83	32.24
535.027	32.4
535.225	32.53
535.423	32.76
535.621	32.86
535.819	33
536.017	32.99
536.215	32.99
536.412	33.07
536.61	33.14
536.808	33.3
537.006	33.47
537.203	33.62
537.401	33.79
537.599	33.95
537.797	34.19
537.994	34.36
538.192	34.67
538.39	34.96
538.587	35.26
538.785	35.49
538.983	35.69
539.18	35.77
539.378	35.85
539.575	35.8
539.773	35.74
539.97	35.67
540.168	35.59
540.366	35.53
540.563	35.44
540.761	35.35
540.958	35.31
541.155	35.29
541.353	35.28
541.55	35.36
541.748	35.44
541.945	35.51
542.143	35.65
542.34	35.78
542.537	35.99
542.735	36.19
542.932	36.4
543.129	36.68
543.327	37.02
543.524	37.49
543.721	37.99
543.919	38.58
544.116	39.21
544.313	39.77
544.51	40.35
544.708	40.92
544.905	41.56
545.102	42.18
545.299	42.59
545.496	42.89
545.693	42.99
545.891	42.95
546.088	42.76
546.285	42.48
546.482	42.27
546.679	41.97
546.876	41.65
547.073	41.34
547.27	41.04
547.467	40.86
547.664	40.58
547.861	40.49
548.058	40.44
548.255	40.51
548.452	40.58
548.649	40.55
548.846	40.74
549.043	40.83
549.24	40.82
549.437	40.82
549.633	40.79
549.83	40.82
550.027	40.82
550.224	40.84
550.421	40.68
550.618	40.49
550.814	40.53
551.011	40.36
551.208	40.14
551.405	39.88
551.601	39.73
551.798	39.57
551.995	39.4
552.191	39.14
552.388	38.88
552.585	38.78
552.781	38.74
552.978	38.59
553.175	38.43
553.371	38.44
553.568	38.44
553.764	38.46
553.961	38.38
554.157	38.48
554.354	38.59
554.55	38.57
554.747	38.6
554.943	38.66
555.14	38.76
555.336	38.86
555.533	38.97
555.729	39.14
555.926	39.11
556.122	39.13
556.318	39.08
556.515	39.14
556.711	39.13
556.907	39.02
557.104	39.04
557.3	39.02
557.496	38.97
557.693	38.91
557.889	38.89
558.085	38.86
558.281	38.78
558.478	38.89
558.674	38.85
558.87	38.95
559.066	39.08
559.262	39.06
559.459	38.98
559.655	39
559.851	38.93
560.047	38.98
560.243	38.94
560.439	38.99
560.635	38.84
560.831	38.82
561.027	38.8
561.223	38.77
561.419	38.76
561.615	38.89
561.811	38.91
562.007	38.93
562.203	38.92
562.399	39.05
562.595	39.14
562.791	39.25
562.987	39.26
563.183	39.32
563.379	39.36
563.575	39.25
563.771	39.03
563.966	38.89
564.162	38.79
564.358	38.58
564.554	38.2
564.75	38.14
564.945	37.99
565.141	37.83
565.337	37.65
565.533	37.46
565.728	37.39
565.924	37.47
566.12	37.5
566.315	37.53
566.511	37.57
566.707	37.71
566.902	37.7
567.098	37.62
567.293	37.63
567.489	37.75
567.684	37.8
567.88	37.96
568.076	37.96
568.271	38.06
568.467	38.06
568.662	38.19
568.858	38.21
569.053	38.15
569.248	38.23
569.444	38.23
569.639	38.16
569.835	38.24
570.03	38.1
570.225	38.03
570.421	37.84
570.616	37.7
570.812	37.53
571.007	37.55
571.202	37.39
571.397	37.25
571.593	37.22
571.788	37.21
571.983	37.12
572.178	37.18
572.374	37.27
572.569	37.34
572.764	37.4
572.959	37.42
573.154	37.36
573.35	37.55
573.545	37.69
573.74	37.76
573.935	37.7
574.13	37.67
574.325	37.64
574.52	37.63
574.715	37.76
574.91	37.88
575.105	37.99
575.3	38.19
575.495	38.34
575.69	38.55
575.885	38.79
576.08	39.09
576.275	39.45
576.47	39.78
576.665	40.11
576.86	40.29
577.055	40.52
577.25	40.8
577.444	41.15
577.639	41.4
577.834	41.66
578.029	41.85
578.224	42.05
578.418	42.27
578.613	42.34
578.808	42.41
579.003	42.55
579.197	42.62
579.392	42.73
579.587	42.75
579.781	42.86
579.976	42.83
580.171	42.8
580.365	42.74
580.56	42.76
580.755	42.84
580.949	42.79
581.144	42.93
581.338	43.04
581.533	43.09
581.727	43.13
581.922	43.11
582.116	43.08
582.311	43.11
582.505	43.26
582.7	43.32
582.894	43.33
583.089	43.43
583.283	43.33
583.478	43.39
583.672	43.29
583.866	43.18
584.061	43.19
584.255	43.36
584.449	43.49
584.644	43.58
584.838	43.63
585.032	43.76
585.226	43.87
585.421	44.09
585.615	44.14
585.809	44.41
586.003	44.64
586.198	44.83
586.392	44.79
586.586	44.85
586.78	44.82
586.974	44.72
587.168	44.45
587.363	44.17
587.557	43.77
587.751	43.56
587.945	43.33
588.139	42.97
588.333	42.67
588.527	42.41
588.721	42.02
588.915	41.8
589.109	41.53
589.303	41.44
589.497	41.37
589.691	41.38
589.885	41.32
590.079	41.26
590.273	41.37
590.466	41.53
590.66	41.83
590.854	42.11
591.048	42.31
591.242	42.56
591.436	42.88
591.629	43.09
591.823	43.33
592.017	43.52
592.211	43.77
592.404	43.86
592.598	43.7
592.792	43.66
592.986	43.59
593.179	43.59
593.373	43.58
593.567	43.36
593.76	43.26
593.954	43.13
594.147	43.1
594.341	42.71
594.535	42.56
594.728	42.36
594.922	42.08
595.115	41.91
595.309	41.68
595.502	41.32
595.696	41.09
595.889	40.94
596.083	40.81
596.276	40.53
596.47	40.55
596.663	40.39
596.856	40.32
597.05	40.38
597.243	40.43
597.437	40.53
597.63	40.83
597.823	41.26
598.017	41.51
598.21	41.68
598.403	42.13
598.596	42.32
598.79	42.8
598.983	43.42
599.176	43.58
599.369	43.65
599.563	43.66
599.756	43.79
599.949	43.72
600.142	43.66
600.335	43.67
600.528	43.59
600.722	43.64
600.915	43.37
601.108	43.07
601.301	43.02
601.494	42.86
601.687	42.72
601.88	42.57
602.073	42.43
602.266	42.33
602.459	42.06
602.652	41.79
602.845	41.6
603.038	41.48
603.231	41.31
603.424	41.15
603.617	41.19
603.809	41.19
604.002	41
604.195	40.89
604.388	40.77
604.581	40.92
604.774	40.91
604.966	40.9
605.159	41.02
605.352	41.07
605.545	41.24
605.737	41.41
605.93	41.67
606.123	42.07
606.316	42.42
606.508	42.89
606.701	43.1
606.894	43.55
607.086	43.99
607.279	44.36
607.471	44.93
607.664	45.46
607.857	45.99
608.049	46.58
608.242	47.2
608.434	48.22
608.627	49.49
608.819	51.08
609.012	52.92
609.204	55.07
609.397	57.26
609.589	59.61
609.782	62.33
609.974	64.83
610.166	67.56
610.359	70.47
610.551	72.89
610.743	75.03
610.936	76.96
611.128	78.24
611.32	79.2
611.513	79.91
611.705	80.29
611.897	79.83
612.09	79.36
612.282	78.69
612.474	77.34
612.666	76.1
612.858	74.84
613.051	73.48
613.243	72.28
613.435	71.01
613.627	69.59
613.819	68.38
614.011	67.24
614.203	66.15
614.395	64.94
614.588	63.75
614.78	62.65
614.972	61.42
615.164	60.3
615.356	59.33
615.548	58.26
615.74	57.19
615.932	56.12
616.124	55.19
616.315	54.31
616.507	53.56
616.699	52.88
616.891	52.28
617.083	51.83
617.275	51.38
617.467	50.81
617.659	50.55
617.85	50.3
618.042	50.04
618.234	49.99
618.426	50.15
618.618	49.92
618.809	49.94
619.001	50.02
619.193	49.98
619.384	49.83
619.576	49.66
619.768	49.61
619.959	49.73
620.151	49.62
620.343	49.67
620.534	49.44
620.726	49.37
620.917	49.26
621.109	49.4
621.301	49.52
621.492	49.67
621.684	49.85
621.875	49.87
622.067	49.8
622.258	50.08
622.45	50.15
622.641	50.06
622.832	50.44
623.024	50.48
623.215	50.25
623.407	50.07
623.598	49.95
623.789	50.07
623.981	50.09
624.172	50.13
624.363	50.06
624.555	49.71
624.746	49.75
624.937	49.41
625.129	49.28
625.32	49.03
625.511	48.8
625.702	48.67
625.893	48.42
626.085	48.04
626.276	47.85
626.467	47.62
626.658	47.58
626.849	47.47
627.04	47.28
627.231	47.25
627.422	47.23
627.614	47.32
627.805	47.39
627.996	47.47
628.187	47.89
628.378	48.09
628.569	48.49
628.76	48.86
628.951	49.28
629.142	49.76
629.332	50.22
629.523	50.71
629.714	51.22
629.905	51.66
630.096	51.95
630.287	52.11
630.478	52.29
630.669	52.32
630.859	52.31
631.05	52.09
631.241	51.87
631.432	51.5
631.623	51.1
631.813	50.62
632.004	49.98
632.195	49.51
632.385	49.06
632.576	48.65
632.767	48.18
632.957	47.54
633.148	47.2
633.339	46.86
633.529	46.66
633.72	46.5
633.91	46.18
634.101	46.09
634.292	45.93
634.482	45.84
634.673	45.73
634.863	45.74
635.054	45.93
635.244	45.92
635.435	45.99
635.625	45.96
635.815	46.18
636.006	46.37
636.196	46.39
636.387	46.66
636.577	46.47
636.767	46.45
636.958	46.34
637.148	46.41
637.338	46.58
637.529	46.72
637.719	46.82
637.909	46.5
638.099	46.5
638.29	46.8
638.48	46.68
638.67	47.1
638.86	47.31
639.05	47.45
639.241	47.36
639.431	47.23
639.621	47.18
639.811	47.04
640.001	47.35
640.191	47.37
640.381	47.36
640.571	47.51
640.761	47.23
640.951	46.96
641.141	47.01
641.331	47.21
641.521	47.25
641.711	47.41
641.901	47.62
642.091	47.61
642.281	47.55
642.471	47.34
642.661	47.15
642.851	47.39
643.041	47.65
643.231	47.57
643.42	47.4
643.61	47.32
643.8	47.33
643.99	47.21
644.18	47.18
644.369	47.28
644.559	47.34
644.749	47.43
644.939	47.34
645.128	47.3
645.318	47.19
645.508	47.3
645.697	47.48
645.887	47.12
646.076	47.23
646.266	46.98
646.456	46.77
646.645	46.74
646.835	46.66
647.024	46.43
647.214	46.18
647.403	46.24
647.593	46.32
647.782	46.35
647.972	46.67
648.161	46.7
648.351	46.89
648.54	47.26
648.73	47.32
648.919	47.54
649.108	47.74
649.298	48.19
649.487	48.44
649.677	48.4
649.866	48.31
650.055	48.25
650.244	48.25
650.434	48.39
650.623	48.23
650.812	48.09
651.002	47.77
651.191	47.87
651.38	47.56
651.569	47.35
651.758	47.23
651.947	47.31
652.137	47.35
652.326	47.52
652.515	47.14
652.704	47.39
652.893	47.65
653.082	47.85
653.271	47.63
653.46	47.62
653.649	47.61
653.838	47.8
654.027	47.72
654.216	47.49
654.405	47.2
654.594	47.27
654.783	46.85
654.972	46.56
655.161	46.47
655.35	46.47
655.539	46.56
655.728	46.34
655.916	46.36
656.105	46
656.294	45.92
656.483	46
656.672	45.98
656.86	45.9
657.049	45.72
657.238	45.48
657.427	45.29
657.615	44.91
657.804	45.09
657.993	44.4
658.181	44.34
658.37	44.19
658.559	43.93
658.747	43.83
658.936	43.76
659.125	43.7
659.313	43.8
659.502	43.78
659.69	43.99
659.879	44.07
660.067	44.61
660.256	44.78
660.444	44.95
660.633	45.28
660.821	45.37
661.01	45.77
661.198	46.09
661.387	46.34
661.575	46.72
661.763	47.04
661.952	47.27
662.14	47.22
662.328	47.43
662.517	47.65
662.705	47.53
662.893	47.84
663.082	47.68
663.27	47.96
663.458	48.04
663.646	48.15
663.834	48.15
664.023	47.97
664.211	48.13
664.399	48.15
664.587	48.27
664.775	48.52
664.963	48.41
665.152	48.82
665.34	48.81
665.528	48.65
665.716	48.62
665.904	48.69
666.092	48.44
666.28	48.42
666.468	48.52
666.656	48.54
666.844	48.41
667.032	48.44
667.22	48.33
667.408	48.19
667.596	48.14
667.784	47.96
667.971	47.69
668.159	47.7
668.347	47.57
668.535	47.61
668.723	47.52
668.911	47.5
669.098	47.65
669.286	47.16
669.474	47.18
669.662	47.36
669.849	47.52
670.037	47.74
670.225	47.99
670.413	48.01
670.6	48.25
670.788	48.41
670.976	48.5
671.163	48.54
671.351	48.93
671.538	48.73
671.726	48.74
671.913	48.75
672.101	48.88
672.289	48.75
672.476	48.78
672.664	48.5
672.851	48.4
673.039	48.32
673.226	48.19
673.413	48.16
673.601	48.48
673.788	48.38
673.976	48.47
674.163	48.41
674.35	48.54
674.538	48.69
674.725	48.91
674.912	48.86
675.1	49.01
675.287	49.03
675.474	49.11
675.662	49.23
675.849	49.13
676.036	49.28
676.223	49.15
676.411	49.22
676.598	49.21
676.785	49.12
676.972	49.12
677.159	48.87
677.346	48.72
677.533	48.62
677.721	48.5
677.908	48.33
678.095	47.71
678.282	47.7
678.469	47.17
678.656	46.86
678.843	46.7
679.03	46.47
679.217	46.5
679.404	46.39
679.591	46.21
679.778	46.06
679.964	45.92
680.151	46.15
680.338	45.85
680.525	45.93
680.712	45.92
680.899	45.91
681.086	46
681.272	45.74
681.459	46.13
681.646	46.09
681.833	46.18
682.02	46.46
682.206	46.52
682.393	46.77
682.58	46.99
682.766	46.87
682.953	47.1
683.14	47.32
683.326	47.63
683.513	47.54
683.7	47.93
683.886	48.02
684.073	48.34
684.259	48.13
684.446	48.27
684.632	48.51
684.819	48.65
685.005	48.44
685.192	48.44
685.378	48.71
685.565	48.89
685.751	48.9
685.938	48.75
686.124	48.84
686.31	48.97
686.497	48.87
686.683	48.69
686.87	48.97
687.056	48.9
687.242	48.7
687.429	48.63
687.615	48.28
687.801	48.33
687.987	48.58
688.174	48.04
688.36	47.97
688.546	48.03
688.732	48.07
688.918	48.25
689.105	48.49
689.291	48.52
689.477	48.32
689.663	48.43
689.849	48.09
690.035	47.91
690.221	48.36
690.407	48.44
690.593	48.7
690.779	48.9
690.965	48.73
691.151	48.87
691.337	49.26
691.523	49.3
691.709	49.73
691.895	50.2
692.081	50.18
692.267	49.89
692.453	50.23
692.639	50.18
692.825	50.17
693.011	50
693.196	49.75
693.382	49.56
693.568	49.57
693.754	49.11
693.94	49.05
694.125	49.01
694.311	48.89
694.497	48.99
694.682	48.72
694.868	48.68
695.054	48.9
695.239	49.2
695.425	49.46
695.611	49.67
695.796	49.45
695.982	49.22
696.168	49.05
696.353	49.17
696.539	48.5
696.724	48.26
696.91	47.43
697.095	47.13
697.281	46.43
697.466	45.95
697.652	45.51
697.837	45.45
698.023	44.97
698.208	44.57
698.393	44.18
698.579	44.01
698.764	43.9
698.949	44.12
699.135	43.93
699.32	44.11
699.505	44.13
699.691	44.23
699.876	44.14
700.061	44.6
700.246	44.91
700.432	45.24
700.617	45.67
700.802	45.91
700.987	46.54
701.172	46.96
701.358	47.43
701.543	47.92
701.728	48.23
701.913	48.9
702.098	49.03
702.283	49.83
702.468	50.39
702.653	50.88
702.838	51.6
703.023	52.03
703.208	52.7
703.393	52.96
703.578	53.08
703.763	53.6
703.948	54.15
704.133	54.73
704.318	54.96
704.503	55.26
704.688	55.77
704.873	56.14
705.057	56.37
705.242	56.71
705.427	57.3
705.612	57.73
705.797	58.07
705.981	58.39
706.166	58.86
706.351	59.16
706.536	59.62
706.72	59.76
706.905	60.19
707.09	60.2
707.274	60.16
707.459	60.39
707.644	60.52
707.828	60.8
708.013	60.56
708.197	60.46
708.382	60.61
708.567	60.49
708.751	60.05
708.936	59.7
709.12	59.56
709.305	59.28
709.489	58.9
709.673	58.72
709.858	58.43
710.042	58.42
710.227	58.48
710.411	58.23
710.596	57.99
710.78	58.33
710.964	58.04
711.149	57.88
711.333	58.19
711.517	57.87
711.702	57.67
711.886	57.31
712.07	56.85
712.254	56.5
712.438	56.13
712.623	55.72
712.807	55.31
712.991	55.09
713.175	54.78
713.359	53.83
713.544	53.61
713.728	53.24
713.912	52.84
714.096	52.46
714.28	51.95
714.464	51.72
714.648	51.31
714.832	50.63
715.016	49.89
715.2	49.24
715.384	49.24
715.568	48.92
715.752	48.28
715.936	48.16
716.12	47.72
716.304	47.29
716.488	47.16
716.671	47.31
716.855	47.52
717.039	47.32
717.223	47.77
717.407	47.91
717.59	47.85
717.774	48.4
717.958	48.4
718.142	48.37
718.325	48.66
718.509	48.27
718.693	48.04
718.877	47.62
719.06	48.31
719.244	48.39
719.428	48.48
719.611	48.96
719.795	48.84
719.978	48.61
720.162	49.37
720.345	49.94
720.529	50.39
720.713	51.11
720.896	51.93
721.08	52.11
721.263	51.92
721.446	51.85
721.63	51.44
721.813	51.52
721.997	51.98
722.18	51.53
722.364	51.29
722.547	51.19
722.73	50.27
722.914	50.29
723.097	49.99
723.28	49.82
723.464	49.34
723.647	49.39
723.83	49.33
724.013	49.6
724.197	49.65
724.38	49.48
724.563	49.92
724.746	50.23
724.929	49.52
725.112	49.93
725.296	50.14
725.479	50.16
725.662	49.63
725.845	49.75
726.028	49.15
726.211	49.15
726.394	48.63
726.577	48.28
726.76	48.15
726.943	48.51
727.126	47.91
727.309	48.09
727.492	48.13
727.675	48.42
727.858	48.13
728.041	48.26
728.224	48.25
728.407	48.4
728.589	48.41
728.772	48.85
728.955	48.64
729.138	48.66
729.321	48.41
729.503	48.87
729.686	48.98
729.869	49.21
730.052	49.14
730.234	49.17
730.417	49.37
730.6	49.18
730.782	48.41
730.965	48.33
731.148	48.01
731.33	48.17
731.513	47.99
731.695	48.22
731.878	47.89
732.061	48.29
732.243	48.94
732.426	49.11
732.608	49.17
732.791	49.81
732.973	50.02
733.156	50.56
733.338	50.54
733.52	50.8
733.703	50.61
733.885	51.18
734.068	50.84
734.25	50.46
734.432	50.56
734.615	50.83
734.797	50.88
734.979	51.01
735.162	50.82
735.344	50.7
735.526	50.77
735.708	51.35
735.891	51.38
736.073	51.98
736.255	52.13
736.437	52.25
736.619	52.38
736.802	52.7
736.984	52.42
737.166	52.75
737.348	53.17
737.53	52.59
737.712	52.6
737.894	52.39
738.076	52.4
738.258	52.07
738.44	51.65
738.622	51.87
738.804	51.87
738.986	52.32
739.168	52.92
739.35	52.57
739.532	53.26
739.714	52.86
739.896	53.36
740.078	53.2
740.259	53.8
740.441	54.67
740.623	54.44
740.805	54.07
740.987	54.05
741.168	54.11
741.35	54.58
741.532	54.66
741.714	55.54
741.895	54.93
742.077	55.56
742.259	55.9
742.44	55.35
742.622	55.76
742.804	56.1
742.985	56.59
743.167	56.19
743.348	56.05
743.53	55.81
743.711	55.06
743.893	56
744.075	55.43
744.256	55.41
744.438	55.67
744.619	55.96
744.8	56.6
744.982	56.03
745.163	56.3
745.345	56.55
745.526	56.93
745.707	57.86
745.889	57.61
746.07	57.86
746.252	57.32
746.433	57.76
746.614	57.49
746.795	57.43
746.977	57.82
747.158	57.21
747.339	57.54
747.52	57.9
747.702	57.56
747.883	57.82
748.064	57.62
748.245	57.92
748.426	57.78
748.607	57.91
748.788	57.51
748.97	57.54
749.151	58.12
749.332	58.35
749.513	57.99
749.694	57.52
749.875	57.13
750.056	56.87
750.237	57.35
750.418	57.31
750.599	56.72
750.78	56.68
750.96	56.55
751.141	56.65
751.322	56.08
751.503	55.61
751.684	55.29
751.865	55.81
752.046	56.03
752.226	55.8
752.407	55.33
752.588	56.19
752.769	56.49
752.949	56.23
753.13	56.42
753.311	56.54
753.492	56.96
753.672	57.34
753.853	57.58
754.034	58.37
754.214	58.71
754.395	58.96
754.575	58.33
754.756	57.78
754.937	58.06
755.117	58.18
755.298	58.38
755.478	58.41
755.659	58.48
755.839	58.12
756.02	57.91
756.2	57.58
756.381	57.03
756.561	56.38
756.741	56.59
756.922	55.9
757.102	54.53
757.283	54.63
757.463	54.1
757.643	54.51
757.823	53.55
758.004	52.55
758.184	51.75
758.364	51.97
758.545	51.88
758.725	51.07
758.905	51.01
759.085	50.44
759.265	48.5
759.446	47.3
759.626	45.61
759.806	45.12
759.986	44.86
760.166	44.62
760.346	43.92
760.526	43.61
760.706	43.54
760.886	43.19
761.066	43.62
761.246	43.58
761.426	43.68
761.606	43.85
761.786	43.61
761.966	43.32
762.146	43.01
762.326	42.46
762.506	42.35
762.686	42.02
762.866	42.24
763.046	42.01
763.225	41.95
763.405	41.58
763.585	41.57
763.765	42.05
763.945	42.21
764.124	42.45
764.304	43.06
764.484	43.34
764.664	43.88
764.843	44.16
765.023	44.57
765.203	45.25
765.382	46.69
765.562	47.67
765.741	47.61
765.921	48.08
766.101	48.82
766.28	48.68
766.46	49.04
766.639	49.79
766.819	50
766.998	50.54
767.178	50.99
767.357	51.09
767.537	50.84
767.716	51.95
767.896	52.64
768.075	52.82
768.254	53.77
768.434	54.15
768.613	53.95
768.792	54.78
768.972	55.81
769.151	56.3
769.33	56.95
769.51	57.8
769.689	58.56
769.868	58.89
770.047	58.16
770.226	58.24
770.406	58.35
770.585	58.81
770.764	58.79
770.943	58.61
771.122	58.39
771.301	59.03
771.48	59.37
771.66	59.3
771.839	58.9
772.018	60.33
772.197	60.46
772.376	61.16
772.555	61.31
772.734	61.5
772.913	61.26
773.092	62.63
773.271	61.76
773.449	61.46
773.628	60.86
773.807	61.8
773.986	61.54
774.165	62.6
774.344	62.37
774.523	62.51
774.701	62.04
774.88	62.27
775.059	61.37
775.238	61.48
775.417	61.38
775.595	61.91
775.774	61.64
775.953	61.57
776.131	61.05
776.31	62.57
776.489	62.87
776.667	63.23
776.846	63.8
777.025	64.28
777.203	64.72
777.382	65
777.56	64.89
777.739	65.07
777.917	64.63
778.096	63.68
778.274	62.13
778.453	61.77
778.631	61.8
778.81	60.63
778.988	61.19
779.166	60.2
779.345	60.15
779.523	59.31
779.702	59.29
779.88	59.4
780.058	59.71
780.237	60.11
780.415	60.15
780.593	59.65
780.771	60.03
780.95	59.35
781.128	59.8
781.306	59.87
781.484	60.42
781.662	59.71
781.841	59.61
782.019	59.99
782.197	59.79
782.375	60.44
782.553	60.5
782.731	60.93
782.909	60.48
783.087	61.5
783.265	61.65
783.443	61.29
783.621	61.32
783.799	61.97
783.977	62.6
784.155	61.99
784.333	62.18
784.511	62.71
784.689	62.05
784.867	62.14
785.045	60.54
785.223	60.78
785.4	61.01
785.578	61.72
785.756	61.2
785.934	60.19
786.112	59.91
786.289	59.15
786.467	58.63
786.645	58.87
786.823	58.84
787	59.25
787.178	58.57
787.356	58.45
787.533	57.18
787.711	57.34
787.889	56.91
788.066	56.58
788.244	55.54
788.421	54.69
788.599	54.67
788.776	53.57
788.954	54.32
789.131	54.06
789.309	53.4
789.486	53.21
789.664	53.03
789.841	54.05
790.019	54.44
790.196	54.67
790.373	56.05
790.551	55.64
790.728	56.95
790.906	56.45
791.083	56.38
791.26	56.52
791.437	56.53
791.615	56.61
791.792	55.01
791.969	55.39
792.146	56.64
792.324	56.31
792.501	57.22
792.678	57.03
792.855	57.41
793.032	57.59
793.209	58.61
793.387	59.48
793.564	59.23
793.741	60.96
793.918	61.21
794.095	60.46
794.272	61.2
794.449	60.11
794.626	60.03
794.803	59.43
794.98	58.6
795.157	58
795.334	57.02
795.511	56
795.688	55.11
795.864	55.31
796.041	54.8
796.218	53.51
796.395	53.29
796.572	52.72
796.749	52.95
796.925	53.13
797.102	52.45
797.279	52.39
797.456	53.8
797.632	53.79
797.809	52.83
797.986	53.49
798.162	53.85
798.339	53.45
798.516	53.99
798.692	53.94
798.869	55.13
799.046	55.51
799.222	55.31
799.399	54.16
799.575	54.25
799.752	54.94
799.928	54.87
800.105	54.42
800.281	55.03
800.458	55.03
800.634	55.23
800.811	53.14
800.987	54.75
801.163	55.13
801.34	56.35
801.516	55.66
801.692	55.92
801.869	55.47
802.045	55.84
802.221	56.39
802.398	57.04
802.574	56.96
802.75	59.38
802.926	58.23
803.103	59.08
803.279	58.92
803.455	59.84
803.631	58.76
803.807	59.45
803.983	60.99
804.16	60.61
804.336	60.35
804.512	59.59
804.688	58.13
804.864	58.19
805.04	58.78
805.216	58.45
805.392	59.18
805.568	60.05
805.744	59.54
805.92	57.43
806.096	58.23
806.272	57.68
806.448	57.1
806.623	56.9
806.799	55.95
806.975	54.57
807.151	54.72
807.327	53.74
807.503	53.15
807.678	53.8
807.854	54.72
808.03	53.5
808.206	53.58
808.381	54.67
808.557	53.71
808.733	53.76
808.908	54.29
809.084	53.77
809.26	54.16
809.435	55.04
809.611	54.99
809.787	56.63
809.962	57.15
810.138	57.22
810.313	57.29
810.489	60.13
810.664	59.9
810.84	60.38
811.015	60.94
811.191	61.63
811.366	61.22
811.542	60.68
811.717	59.51
811.892	60.23
812.068	60.05
812.243	58.82
812.419	58.51
812.594	58.42
812.769	57.39
812.944	56.93
813.12	56.4
813.295	55.27
813.47	54.14
813.645	53.49
813.821	52.16
813.996	52.13
814.171	52.41
814.346	50.17
814.521	49.39
814.697	49.39
814.872	50.04
815.047	49.22
815.222	49.78
815.397	50.91
815.572	49.74
815.747	49.21
815.922	49.29
816.097	49.61
816.272	50.07
816.447	51.81
816.622	53.3
816.797	53.06
816.972	53.46
817.147	53.38
817.322	52.65
817.496	51.38
817.671	53.14
817.846	52.28
818.021	51.45
818.196	52.18
818.371	52.18
818.545	50.64
818.72	50.25
818.895	50.55
819.069	50.06
819.244	49.79
819.419	50.66
819.594	47.94
819.768	47.38
819.943	47.21
820.117	45.07
820.292	43.84
820.467	42.52
820.641	41.41
820.816	39.53
820.99	38.51
821.165	37.59
821.339	36.69
821.514	36.18
821.688	35.8
821.863	35.07
822.037	34.73
822.212	34.34
822.386	34.41
822.56	33.92
822.735	33.91
822.909	33.88
823.084	33.98
823.258	34.09
823.432	34.4
823.606	34.69
823.781	35.2
823.955	35.31
824.129	35.83
824.303	35.89
824.478	36.4
824.652	36.9
824.826	37.18
825	37.18
825.174	37.58
825.348	38.21
825.523	37.93
825.697	37.54
825.871	38.42
826.045	38.23
826.219	38.2
826.393	38.1
826.567	37.84
826.741	37.98
826.915	38.27
827.089	38.28
827.263	37.76
827.437	37.53
827.611	37.73
827.784	37.38
827.958	36.89
828.132	37.06
828.306	37.41
828.48	37.34
828.654	37.49
828.827	37.4
829.001	37.85
829.175	38.14
829.349	39.07
829.522	39.31
829.696	40.29
829.87	41.56
830.044	42.56
830.217	43.31
830.391	44.68
830.565	45.54
830.738	46.85
830.912	46.95
831.085	46
831.259	46.16
831.432	45.13
831.606	45.3
831.779	45.2
831.953	44.59
832.126	43.67
832.3	43.23
832.473	42.46
832.647	41.23
832.82	40.65
832.994	41.41
833.167	40.99
833.34	41.16
833.514	40.01
833.687	39.2
833.86	38.43
834.034	38.36
834.207	37.96
834.38	38.1
834.553	37.81
834.727	37.4
834.9	37.3
835.073	36.68
835.246	36.97
835.419	38.06
835.593	38.06
835.766	38.54
835.939	38.88
836.112	39.44
836.285	39.66
836.458	41.74
836.631	42.97
836.804	43.57
836.977	45.57
837.15	47.95
837.323	47.27
837.496	51.43
837.669	53.98
837.842	54.68
838.015	55.22
838.188	57.09
838.361	55.92
838.533	56.81
838.706	58.25
838.879	58.04
839.052	56.35
839.225	56.94
839.398	55.23
839.57	53.83
839.743	54.4
839.916	54.25
840.088	52.6
840.261	53.45
840.434	53.91
840.607	53.55
840.779	53.35
840.952	54.32
841.124	54.56
841.297	53.73
841.47	51.33
841.642	51.7
841.815	52
841.987	55.04
842.16	54.68
842.332	52.34
842.505	55.46
842.677	56.67
842.85	57.47
843.022	58.05
843.194	58.54
843.367	62.72
843.539	63.29
843.712	67.45
843.884	66.8
844.056	69.01
844.229	74.27
844.401	69.49
844.573	68.73
844.745	68.4
844.918	72.26
845.09	74.84
845.262	74.15
845.434	70.54
845.606	66.48
845.779	65.04
845.951	68.28
846.123	66.55
846.295	69.4
846.467	70.74
846.639	69.72
846.811	67.73
846.983	66.09
847.155	68.21
847.327	70
847.499	70.65
847.671	72.39
847.843	68.57
848.015	67.31
848.187	66.69
848.359	64.13
848.531	65
848.703	61.57
848.875	63.46
849.047	62.81
849.218	67.31
849.39	68.06
849.562	65.86
849.734	62.4
849.905	64.75
850.077	67.68
850.249	70.28
850.421	71.12
850.592	75.93
850.764	76.36
850.936	77.89
851.107	77.55
851.279	77.92
851.451	82.53
851.622	85.14
851.794	82.5
851.965	76.33
852.137	73.36
852.308	73.66
852.48	74.54
852.651	72.61
852.823	74.24
852.994	75.24
853.166	75.13
853.337	70.2
853.509	73.86
853.68	73.29
853.851	76.68
854.023	82.9
854.194	81.04
854.365	79.92
854.537	78.84
854.708	77.07
854.879	74.33
855.05	79.46
855.222	78.7
855.393	78.57
855.564	81.7
855.735	79.73
855.906	78.87
856.078	80.34
856.249	80.34
856.42	77.17
856.591	75.94
856.762	75.38
856.933	68.7
857.104	73.13
857.275	72.45
857.446	71.87
857.617	72.46
857.788	71.81
857.959	71.44
858.13	74.15
858.301	78.63
858.472	77.05
858.643	77.45
858.814	80.79
858.985	76.99
859.155	75.02
859.326	78.19
859.497	77.66
859.668	77.2
859.839	75.42
860.009	68.26
860.18	66.91
860.351	66.98
860.522	65.03
860.692	64.24
860.863	64.91
861.034	63.57
861.204	61.46
861.375	62.76
861.546	62.46
861.716	62.31
861.887	66.42
862.057	68.98
862.228	72.47
862.398	75.4
862.569	80.99
862.739	82.98
862.91	84.52
863.08	83.16
863.251	82.76
863.421	84.18
863.592	81.98
863.762	80.31
863.932	76.65
864.103	74.58
864.273	72.45
864.443	69.37
864.614	66.62
864.784	65.34
864.954	66.29
865.125	65.55
865.295	67.5
865.465	70.49
865.635	67.28
865.805	67.62
865.976	66.41
866.146	67.95
866.316	68.19
866.486	68.59
866.656	70.58
866.826	68.39
866.996	68.76
867.166	68.41
867.336	71.78
867.506	73.56
867.676	75.8
867.846	72.85
868.016	71.73
868.186	68.07
868.356	63.59
868.526	64.79
868.696	65.72
868.866	64.29
869.036	58.06
869.206	54.34
869.376	54.67
869.545	52.92
869.715	55.21
869.885	55.44
870.055	57
870.224	61.59
870.394	59.47
870.564	63.26
870.734	65.69
870.903	70.04
871.073	71.28
871.243	76.63
871.412	81.01
871.582	83.04
871.751	82.46
871.921	85.51
872.091	85.1
872.26	81.22
872.43	79
872.599	74.49
872.769	73.59
872.938	71.05
873.108	68.25
873.277	63.48
873.446	64.49
873.616	63
873.785	58.99
873.955	59.22
874.124	57.79
874.293	54.2
874.463	60.05
874.632	60.54
874.801	62.85
874.971	63.38
875.14	62.59
875.309	59.23
875.478	60.38
875.647	63.3
875.817	63.81
875.986	68.32
876.155	68.48
876.324	66.63
876.493	66.52
876.662	66.15
876.831	64.03
877	63.69
877.17	65.25
877.339	64.3
877.508	62.17
877.677	63.4
877.846	62.29
878.015	63.62
878.184	58.55
878.352	57.08
878.521	52.04
878.69	50.66
878.859	50.95
879.028	51.52
879.197	49.45
879.366	49.11
879.534	44.79
879.703	44.38
879.872	43.63
880.041	43.14
880.21	42.13
880.378	42.28
880.547	40.84
880.716	39.68
880.884	38.26
881.053	36.17
881.222	34.88
881.39	35.74
881.559	35.03
881.727	34.19
881.896	33.88
882.065	32.66
882.233	32.76
882.402	32.82
882.57	32.43
882.739	32.23
882.907	33.29
883.076	33.71
883.244	33.04
883.412	33.62
883.581	33.9
883.749	34.12
883.918	35.66
884.086	34.88
884.254	35.16
884.423	35.97
884.591	36.36
884.759	35.73
884.927	35.44
885.096	34.75
885.264	34.27
885.432	35.14
885.6	35.34
885.769	33.96
885.937	34.38
886.105	35.41
886.273	36.11
886.441	36.86
886.609	40.77
886.777	44.65
886.945	49.48
887.113	52.81
887.281	53.41
887.449	54.75
887.617	55.18
887.785	58.96
887.953	58.02
888.121	58.96
888.289	59.7
888.457	61.43
888.625	59.22
888.793	59.46
888.961	58.36
889.129	59.66
889.296	64.17
889.464	67.12
889.632	66.76
889.8	73.24
889.967	72.79
890.135	74.2
