Data from 2938828__Reflection_01.txt Node
Date: Thu Mar 12 13:18:36 EDT 2015
User: robert
Spectrometer: USB4E03002
Autoset integration time: false
Trigger mode: 4
Integration Time (sec): 1.000000E-1
Scans to average: 10
Electric dark correction enabled: false
Nonlinearity correction enabled: false
Boxcar width: 5
Stray light correction enabled: false
XAxis mode: Wavelengths
Stop averaging: false
Number of Pixels in Spectrum: 3648
>>>>>Begin Spectral Data<<<<<
177.575	-875.74
177.794	-1990.67
178.014	-4151.16
178.233	-1688.7
178.452	-1483.22
178.672	-1564.56
178.891	-2028.69
179.11	-3085.37
179.33	4378.33
179.549	-2473.53
179.768	-2017.46
179.987	2380.51
180.207	1390.69
180.426	1695.81
180.645	1321.2
180.864	624.26
181.084	428.45
181.303	497.7
181.522	435.39
181.741	498.48
181.96	439.6
182.179	383.68
182.398	346.94
182.618	437.46
182.837	495.99
183.056	505.41
183.275	828.75
183.494	1831.43
183.713	1045.93
183.932	2867.47
184.151	-2239.6
184.37	-3009.72
184.589	-1362.35
184.808	-1359.06
185.027	-5687.8
185.246	2591.57
185.465	1836.21
185.684	1234.5
185.903	1026.87
186.122	976.82
186.341	587.74
186.56	346.01
186.779	441.17
186.998	399.27
187.216	408.48
187.435	491.05
187.654	498.14
187.873	439.43
188.092	418.31
188.311	406.02
188.53	373.52
188.748	430.21
188.967	551.17
189.186	434.2
189.405	429.46
189.623	511.44
189.842	383.66
190.061	416.72
190.28	405.53
190.498	342.11
190.717	355.99
190.936	465.26
191.154	529.4
191.373	590.1
191.592	476.85
191.81	489.03
192.029	424.19
192.248	699.4
192.466	937.69
192.685	1866.94
192.904	-5356.41
193.122	-13182.35
193.341	4855.56
193.559	2432.63
193.778	17884.62
193.996	-1903.36
194.215	-1072.17
194.433	-545.02
194.652	-637.64
194.87	-1039.91
195.089	-873.31
195.307	-715.28
195.526	-549.78
195.744	-548.55
195.963	-546.55
196.181	-659.9
196.399	-743.77
196.618	-1374.01
196.836	-1651.72
197.055	-1272.86
197.273	-703.55
197.491	-1147.32
197.71	-1703.92
197.928	-1419.08
198.146	-2302.88
198.365	-2234.82
198.583	-25933.33
198.801	6800
199.019	2710
199.238	1138.53
199.456	837.13
199.674	781.72
199.892	651.83
200.111	1022.34
200.329	440.82
200.547	394.68
200.765	387.34
200.983	432.03
201.202	428.12
201.42	691.5
201.638	1314.72
201.856	1553.1
202.074	904.35
202.292	961.86
202.51	646.23
202.728	1338.1
202.946	1380.38
203.165	1193.65
203.383	1205.82
203.601	890.33
203.819	479.44
204.037	444.82
204.255	412.67
204.473	352.16
204.691	385.28
204.909	383.36
205.127	400.18
205.345	713.2
205.562	770.29
205.78	1005.61
205.998	851.59
206.216	2026.61
206.434	1637.5
206.652	-1996.08
206.87	-1752.99
207.088	-1241.61
207.306	-1381.53
207.523	-2325
207.741	-5311.36
207.959	3846.88
208.177	1372.78
208.395	1159.05
208.612	858.25
208.83	929.12
209.048	523.42
209.266	545.7
209.483	482.98
209.701	374.91
209.919	320.23
210.136	287.2
210.354	272.75
210.572	313.37
210.79	434.52
211.007	368.47
211.225	376.57
211.442	316.43
211.66	317.93
211.878	298.2
212.095	241.47
212.313	272.54
212.53	272.15
212.748	248.99
212.966	267.67
213.183	236.96
213.401	264.36
213.618	241.28
213.836	287.98
214.053	331.35
214.271	419.62
214.488	705.81
214.705	628.46
214.923	597.1
215.14	796.97
215.358	437.13
215.575	482.49
215.793	389.42
216.01	409.16
216.227	359.36
216.445	300.81
216.662	258.18
216.879	266.11
217.097	263.37
217.314	247.66
217.531	269.9
217.749	311.4
217.966	245.74
218.183	235.55
218.4	212.24
218.618	202.62
218.835	191.87
219.052	201.58
219.269	190.43
219.487	187.73
219.704	174.7
219.921	161.16
220.138	152.95
220.355	154.22
220.572	164.06
220.79	145.38
221.007	138.2
221.224	148.51
221.441	133.42
221.658	124.48
221.875	118.8
222.092	110.74
222.309	99.95
222.526	100.87
222.743	104.43
222.96	95.48
223.177	100.04
223.394	98.6
223.611	87.69
223.828	92.48
224.045	89.89
224.262	81.21
224.479	80.24
224.696	81.17
224.913	76.89
225.13	66.84
225.347	62.33
225.564	58.07
225.781	53.67
225.997	56.05
226.214	51.07
226.431	46.76
226.648	44.69
226.865	40.04
227.082	35.34
227.298	28.97
227.515	27.31
227.732	24.72
227.949	22.5
228.165	21.03
228.382	18.67
228.599	17.24
228.816	16.27
229.032	15.89
229.249	15.43
229.466	15.31
229.682	16.1
229.899	16.27
230.116	16.89
230.332	17.88
230.549	18.24
230.765	19.42
230.982	20.8
231.199	21.2
231.415	22.05
231.632	22.35
231.848	23.2
232.065	24.28
232.281	25.72
232.498	25.1
232.714	25.28
232.931	24.51
233.147	24.79
233.364	23.14
233.58	24.06
233.797	25.06
234.013	25.71
234.23	23.52
234.446	23.18
234.662	21.46
234.879	22.16
235.095	22.38
235.312	22.56
235.528	23.27
235.744	24.16
235.961	23.93
236.177	24.09
236.393	24.81
236.61	28.73
236.826	28.34
237.042	29.09
237.258	30.03
237.475	30.35
237.691	31.66
237.907	28.84
238.123	28.17
238.339	28.18
238.556	27.04
238.772	27.63
238.988	25.77
239.204	26.63
239.42	24.57
239.636	23.24
239.853	21.47
240.069	20.47
240.285	20.12
240.501	18.87
240.717	18.27
240.933	17.01
241.149	15.7
241.365	14.32
241.581	13.04
241.797	13.19
242.013	12.62
242.229	12.4
242.445	12.24
242.661	11.86
242.877	12.53
243.093	12.32
243.309	12.43
243.525	11.84
243.741	12.9
243.957	13.62
244.173	13.77
244.388	14.12
244.604	14.28
244.82	13.87
245.036	13.79
245.252	12.44
245.468	11.6
245.683	11.27
245.899	11.11
246.115	10.06
246.331	9.55
246.547	8.73
246.762	8.54
246.978	8.26
247.194	8
247.409	7.72
247.625	7.82
247.841	7.66
248.057	7.52
248.272	7.89
248.488	8.36
248.703	8.47
248.919	9.22
249.135	9.29
249.35	9.69
249.566	10.44
249.782	11.49
249.997	11.72
250.213	12.3
250.428	12.76
250.644	12.46
250.859	12.48
251.075	12.37
251.29	12.21
251.506	12.65
251.721	12.96
251.937	12.84
252.152	12.8
252.368	12.53
252.583	13.14
252.798	13.59
253.014	13.78
253.229	13.78
253.445	14.16
253.66	14.17
253.875	14.65
254.091	15.66
254.306	15.98
254.521	15.75
254.737	16.75
254.952	16.56
255.167	16.32
255.383	16.61
255.598	16.06
255.813	16.66
256.028	16.43
256.244	15.8
256.459	13.95
256.674	13.58
256.889	13.21
257.104	13.19
257.32	12.87
257.535	11.95
257.75	11.33
257.965	11.06
258.18	10.13
258.395	9.39
258.61	8.49
258.826	8.08
259.041	7.83
259.256	7.5
259.471	6.74
259.686	6.25
259.901	6.12
260.116	5.8
260.331	5.86
260.546	5.82
260.761	5.76
260.976	6.08
261.191	6.06
261.406	6.22
261.621	6.43
261.836	6.99
262.05	7.42
262.265	7.91
262.48	8.42
262.695	9.06
262.91	9.54
263.125	10.35
263.34	10.53
263.555	11.39
263.769	11.34
263.984	11.4
264.199	11.08
264.414	12.1
264.629	12.64
264.843	12.5
265.058	11.41
265.273	11.35
265.488	11.72
265.702	11.45
265.917	10.54
266.132	10.76
266.346	10.67
266.561	10.39
266.776	9.56
266.99	9.32
267.205	9.37
267.42	9.6
267.634	9.34
267.849	8.86
268.063	8.5
268.278	9.1
268.492	8.46
268.707	8.15
268.922	8.48
269.136	8.24
269.351	7.79
269.565	7.78
269.78	7.68
269.994	7.72
270.209	7.76
270.423	7.71
270.637	7.48
270.852	7.62
271.066	7.81
271.281	8.02
271.495	7.83
271.709	7.85
271.924	7.85
272.138	7.43
272.353	7.42
272.567	7.13
272.781	7.33
272.996	7.16
273.21	7.29
273.424	7.44
273.638	6.93
273.853	7.69
274.067	7.63
274.281	7.89
274.495	8.7
274.71	8.91
274.924	9.28
275.138	9.41
275.352	9.31
275.566	9.65
275.781	9.55
275.995	9.37
276.209	9.42
276.423	9.69
276.637	9
276.851	8.26
277.065	7.7
277.279	7.63
277.493	7.03
277.707	7.19
277.921	6.52
278.135	6.08
278.349	6.64
278.563	6.67
278.777	6.63
278.991	7.16
279.205	7.76
279.419	8.08
279.633	8.2
279.847	8.59
280.061	8.71
280.275	8.97
280.489	8.76
280.703	8.19
280.917	7.73
281.131	7.43
281.344	7.51
281.558	7.03
281.772	6.86
281.986	6.59
282.2	6.5
282.414	6.49
282.627	6.4
282.841	6.89
283.055	7.42
283.269	7.45
283.482	7.62
283.696	7.26
283.91	7.18
284.123	7.12
284.337	7.04
284.551	7.03
284.764	6.83
284.978	6.45
285.192	5.91
285.405	5.62
285.619	5.37
285.833	5.07
286.046	5.01
286.26	5.19
286.473	5.36
286.687	5.5
286.9	5.41
287.114	5.62
287.327	5.82
287.541	6.33
287.754	6.4
287.968	6.64
288.181	7.11
288.395	7.53
288.608	7.65
288.822	7.54
289.035	7.55
289.248	7.65
289.462	7.2
289.675	7.25
289.889	7.23
290.102	7.3
290.315	7.37
290.529	7.1
290.742	6.77
290.955	6.69
291.169	6.91
291.382	6.91
291.595	7.04
291.808	7.23
292.022	7.31
292.235	7.53
292.448	7.6
292.661	7.69
292.875	7.76
293.088	8.09
293.301	8.34
293.514	8.18
293.727	8.14
293.94	7.73
294.153	7.92
294.367	7.67
294.58	7.36
294.793	7.34
295.006	7.2
295.219	7.19
295.432	7.17
295.645	6.93
295.858	6.39
296.071	6.5
296.284	6.5
296.497	6.3
296.71	6.35
296.923	6.42
297.136	6.48
297.349	6.52
297.562	6.44
297.775	6.49
297.988	6.47
298.201	6.9
298.414	6.8
298.626	6.96
298.839	6.92
299.052	7.39
299.265	7.31
299.478	7.43
299.691	7.39
299.903	7.87
300.116	7.88
300.329	8.24
300.542	8.21
300.755	8.41
300.967	8.58
301.18	8.91
301.393	8.49
301.605	8.98
301.818	9.11
302.031	9.22
302.243	9.11
302.456	9.15
302.669	8.87
302.881	9.05
303.094	8.68
303.307	8.67
303.519	8.78
303.732	8.79
303.944	8.34
304.157	8.12
304.37	8.15
304.582	8.18
304.795	8.21
305.007	8.12
305.22	8.47
305.432	8.85
305.645	9.04
305.857	9.34
306.069	9.8
306.282	10.17
306.494	10.13
306.707	10.25
306.919	10.09
307.132	10.3
307.344	10.75
307.556	10.63
307.769	10.85
307.981	10.8
308.193	10.34
308.406	10.05
308.618	10
308.83	10.12
309.043	10.26
309.255	10.04
309.467	9.6
309.679	9.56
309.892	9.03
310.104	8.78
310.316	8.5
310.528	8.61
310.74	8.56
310.953	8.74
311.165	8.68
311.377	8.57
311.589	8.94
311.801	8.98
312.013	8.93
312.225	9.5
312.437	9.46
312.649	10.03
312.862	10.3
313.074	10.68
313.286	10.5
313.498	10.47
313.71	10.34
313.922	10.44
314.134	10.75
314.346	10.76
314.558	10.36
314.77	10.85
314.982	11.15
315.193	11.07
315.405	11.05
315.617	11.12
315.829	11.35
316.041	11.46
316.253	11.25
316.465	11.06
316.677	11.14
316.888	11.75
317.1	11.59
317.312	11.18
317.524	10.86
317.736	11.13
317.947	11.15
318.159	11.18
318.371	11.15
318.583	11.6
318.794	12.15
319.006	11.9
319.218	11.6
319.43	11.7
319.641	11.53
319.853	11.94
320.064	11.92
320.276	12.04
320.488	12.37
320.699	12.77
320.911	12.91
321.123	12.69
321.334	12.92
321.546	12.59
321.757	12.74
321.969	12.69
322.18	12.92
322.392	12.75
322.603	12.89
322.815	12.69
323.026	12.49
323.238	11.78
323.449	11.96
323.661	12.35
323.872	12.56
324.083	12.67
324.295	12.83
324.506	12.55
324.718	12.58
324.929	12.81
325.14	13.18
325.352	13.17
325.563	13.42
325.774	13.38
325.986	13.3
326.197	13.45
326.408	13.33
326.62	13.39
326.831	13.72
327.042	13.59
327.253	13.37
327.464	13.3
327.676	13.2
327.887	13.47
328.098	13.32
328.309	13.64
328.52	14.08
328.732	13.84
328.943	14.09
329.154	13.95
329.365	14.09
329.576	14.38
329.787	14.57
329.998	14.9
330.209	14.81
330.42	15.25
330.631	15.3
330.842	15.31
331.053	16.23
331.264	16.05
331.475	16.28
331.686	16.69
331.897	16.72
332.108	16.43
332.319	16.51
332.53	16.6
332.741	16.28
332.952	16.26
333.163	16.15
333.374	15.78
333.585	15.94
333.795	15.94
334.006	15.8
334.217	15.65
334.428	15.62
334.639	15.8
334.849	16.41
335.06	16.88
335.271	16.98
335.482	16.94
335.692	16.8
335.903	16.89
336.114	16.77
336.325	16.91
336.535	16.92
336.746	17.06
336.957	16.9
337.167	16.47
337.378	16.21
337.589	16.04
337.799	15.84
338.01	15.92
338.22	15.83
338.431	16
338.642	15.82
338.852	15.83
339.063	16.14
339.273	16.18
339.484	16.3
339.694	16.39
339.905	16.37
340.115	16.78
340.326	16.8
340.536	16.65
340.746	16.48
340.957	16.55
341.167	16.63
341.378	16.41
341.588	16.47
341.799	16.36
342.009	16.32
342.219	15.87
342.43	15.74
342.64	15.86
342.85	15.86
343.061	15.96
343.271	16.16
343.481	16.22
343.691	15.95
343.902	16.03
344.112	15.88
344.322	15.58
344.532	15.66
344.743	15.44
344.953	15.08
345.163	15.29
345.373	15.09
345.583	14.86
345.793	14.46
346.004	14.79
346.214	14.42
346.424	14.41
346.634	14.75
346.844	15.11
347.054	14.96
347.264	15.41
347.474	15.42
347.684	15.49
347.894	15.42
348.104	15.59
348.314	15.4
348.524	15.78
348.734	16.19
348.944	16.08
349.154	15.71
349.364	15.81
349.574	15.55
349.784	15.51
349.994	15.4
350.204	15.73
350.413	15.89
350.623	15.76
350.833	15.38
351.043	14.98
351.253	14.74
351.463	15.22
351.672	15.46
351.882	15.45
352.092	15.47
352.302	15.65
352.511	15.65
352.721	15.34
352.931	15.56
353.141	15.93
353.35	15.8
353.56	15.79
353.77	15.53
353.979	15.3
354.189	15.14
354.399	15.13
354.608	15.07
354.818	15.14
355.027	15.31
355.237	15.05
355.447	14.62
355.656	14.96
355.866	14.98
356.075	14.68
356.285	14.66
356.494	14.7
356.704	14.32
356.913	14.2
357.123	13.98
357.332	13.85
357.542	14.1
357.751	14.26
357.96	14.1
358.17	14.3
358.379	14.5
358.589	14.48
358.798	14.36
359.007	14.53
359.217	14.68
359.426	14.54
359.635	14.68
359.845	14.06
360.054	13.99
360.263	13.71
360.472	13.39
360.682	13.46
360.891	13.52
361.1	13.46
361.309	13.25
361.519	13.06
361.728	12.81
361.937	12.71
362.146	13.01
362.355	13.03
362.564	13.04
362.774	13.14
362.983	13.02
363.192	12.73
363.401	12.87
363.61	12.93
363.819	13.06
364.028	13.15
364.237	13.13
364.446	12.86
364.655	12.86
364.864	12.99
365.073	12.97
365.282	12.66
365.491	12.6
365.7	12.52
365.909	12.81
366.118	12.58
366.327	12.8
366.536	12.68
366.745	13.04
366.954	13.08
367.162	13.09
367.371	12.9
367.58	13.34
367.789	13.52
367.998	13.53
368.207	13.37
368.415	13.7
368.624	13.32
368.833	13.26
369.042	13.02
369.25	12.93
369.459	12.63
369.668	12.78
369.877	12.39
370.085	12.29
370.294	12.2
370.503	12.2
370.711	11.83
370.92	12.06
371.129	12.06
371.337	11.94
371.546	11.71
371.754	11.68
371.963	11.6
372.171	11.93
372.38	11.9
372.589	12.03
372.797	11.86
373.006	12.08
373.214	11.91
373.423	12.11
373.631	12.25
373.84	12.39
374.048	12.45
374.256	12.22
374.465	12.04
374.673	12.12
374.882	12.13
375.09	12.14
375.298	11.91
375.507	11.99
375.715	11.85
375.923	11.68
376.132	11.64
376.34	11.61
376.548	11.83
376.757	11.65
376.965	11.59
377.173	11.32
377.381	11.39
377.59	11.5
377.798	11.49
378.006	11.38
378.214	11.47
378.423	11.26
378.631	11.31
378.839	11.38
379.047	11.3
379.255	11.27
379.463	11.4
379.671	11.11
379.879	10.79
380.088	10.78
380.296	10.99
380.504	10.98
380.712	11.04
380.92	10.94
381.128	10.86
381.336	11.08
381.544	11.05
381.752	11.02
381.96	11.15
382.168	11.34
382.376	11.35
382.584	11.18
382.791	11.24
382.999	11.27
383.207	11.02
383.415	10.66
383.623	10.43
383.831	10.53
384.039	10.12
384.247	9.99
384.454	9.81
384.662	9.59
384.87	9.48
385.078	9.35
385.285	9.14
385.493	9.46
385.701	9.44
385.909	9.47
386.116	9.34
386.324	9.71
386.532	9.78
386.739	9.73
386.947	9.75
387.155	9.72
387.362	9.63
387.57	9.99
387.778	9.88
387.985	10.05
388.193	9.94
388.4	9.82
388.608	9.91
388.816	9.86
389.023	9.96
389.231	10.05
389.438	10.24
389.646	10.4
389.853	10
390.061	9.83
390.268	9.89
390.475	10.13
390.683	10.18
390.89	9.8
391.098	9.79
391.305	9.76
391.512	9.69
391.72	9.43
391.927	9.27
392.135	9.34
392.342	9.34
392.549	9.36
392.756	9.08
392.964	8.88
393.171	8.82
393.378	8.73
393.586	8.59
393.793	8.56
394	8.31
394.207	8.42
394.414	8.4
394.622	8.41
394.829	8.43
395.036	8.36
395.243	8.63
395.45	8.94
395.657	8.98
395.864	9.05
396.072	8.9
396.279	9.02
396.486	8.93
396.693	8.93
396.9	9.04
397.107	8.79
397.314	8.97
397.521	8.85
397.728	8.5
397.935	8.41
398.142	8.47
398.349	8.65
398.556	8.61
398.763	8.61
398.97	8.66
399.177	8.59
399.383	8.48
399.59	8.47
399.797	8.52
400.004	8.94
400.211	9.1
400.418	9.02
400.625	8.96
400.831	9.32
401.038	9.22
401.245	9.15
401.452	9.12
401.658	9.41
401.865	9.36
402.072	9.16
402.279	8.96
402.485	8.8
402.692	8.73
402.899	8.61
403.105	8.52
403.312	8.51
403.519	8.43
403.725	8.31
403.932	8.16
404.138	8.04
404.345	8.01
404.552	8.09
404.758	8.19
404.965	8.26
405.171	8.24
405.378	8.16
405.584	8.21
405.791	8.19
405.997	8.22
406.204	8.18
406.41	8.26
406.617	8.28
406.823	7.98
407.029	7.98
407.236	7.91
407.442	8.05
407.649	8.07
407.855	7.7
408.061	7.65
408.268	7.6
408.474	7.61
408.68	7.48
408.887	7.47
409.093	7.62
409.299	7.47
409.505	7.4
409.712	7.33
409.918	7.44
410.124	7.82
410.33	7.82
410.537	7.88
410.743	7.98
410.949	7.95
411.155	8.07
411.361	8
411.567	8.11
411.773	8.23
411.98	8.3
412.186	8.26
412.392	8.16
412.598	8.32
412.804	8.42
413.01	8.4
413.216	8.57
413.422	8.51
413.628	8.6
413.834	8.53
414.04	8.46
414.246	8.31
414.452	8.19
414.658	8.19
414.864	8.24
415.07	8.15
415.275	8.16
415.481	8.13
415.687	8.19
415.893	8.17
416.099	8.11
416.305	8.22
416.511	8.29
416.716	8.15
416.922	8.13
417.128	8.03
417.334	8.07
417.539	8.06
417.745	8.03
417.951	7.87
418.157	7.71
418.362	7.69
418.568	7.63
418.774	7.45
418.979	7.49
419.185	7.43
419.391	7.36
419.596	7.34
419.802	7.27
420.008	7.22
420.213	7.86
420.419	7.94
420.624	8
420.83	7.9
421.035	7.95
421.241	7.92
421.446	7.93
421.652	7.97
421.857	7.79
422.063	7.78
422.268	7.8
422.474	7.2
422.679	7.19
422.885	7.14
423.09	7.18
423.295	7.21
423.501	7.18
423.706	7.1
423.911	7.07
424.117	7.23
424.322	7.24
424.527	7.29
424.733	7.35
424.938	7.29
425.143	7.26
425.349	7.22
425.554	7.18
425.759	7.37
425.964	7.45
426.169	7.43
426.375	7.43
426.58	7.43
426.785	7.38
426.99	7.32
427.195	7.38
427.4	7.26
427.605	7.4
427.811	7.45
428.016	7.41
428.221	7.39
428.426	7.48
428.631	7.39
428.836	7.35
429.041	7.38
429.246	7.43
429.451	7.44
429.656	7.67
429.861	7.65
430.066	7.62
430.271	7.46
430.476	7.52
430.681	7.36
430.886	7.51
431.09	7.64
431.295	7.61
431.5	7.7
431.705	7.59
431.91	7.62
432.115	7.55
432.32	7.61
432.524	7.59
432.729	7.59
432.934	7.76
433.139	7.81
433.343	7.81
433.548	7.73
433.753	7.69
433.958	7.82
434.162	7.8
434.367	7.93
434.572	7.98
434.776	8.05
434.981	7.96
435.186	7.84
435.39	7.84
435.595	7.87
435.799	8.02
436.004	8.01
436.209	8.02
436.413	7.97
436.618	7.88
436.822	7.84
437.027	7.83
437.231	7.98
437.436	8.07
437.64	7.96
437.845	7.94
438.049	7.98
438.253	8.06
438.458	8.1
438.662	8.1
438.867	8.12
439.071	8.03
439.275	8.03
439.48	7.97
439.684	7.97
439.888	7.96
440.093	7.83
440.297	7.78
440.501	7.72
440.706	7.66
440.91	7.65
441.114	7.62
441.318	7.69
441.523	7.7
441.727	7.78
441.931	7.82
442.135	7.85
442.339	7.96
442.543	8.06
442.748	8.08
442.952	8.1
443.156	8.05
443.36	8.11
443.564	8.18
443.768	8.19
443.972	8.11
444.176	8.12
444.38	8.09
444.584	8.03
444.788	7.9
444.992	7.85
445.196	7.81
445.4	7.75
445.604	7.64
445.808	7.57
446.012	7.57
446.216	7.55
446.42	7.47
446.624	7.47
446.828	7.47
447.032	7.48
447.235	7.47
447.439	7.46
447.643	7.58
447.847	7.63
448.051	7.69
448.254	7.74
448.458	7.76
448.662	7.75
448.866	7.79
449.069	7.78
449.273	7.87
449.477	7.92
449.681	7.96
449.884	7.99
450.088	8.08
450.292	8.03
450.495	7.92
450.699	7.95
450.902	8.01
451.106	7.98
451.31	8.08
451.513	7.99
451.717	8
451.92	8.02
452.124	7.95
452.327	7.87
452.531	7.98
452.734	8
452.938	7.96
453.141	8.01
453.345	8.03
453.548	7.99
453.752	8.07
453.955	8.03
454.158	7.99
454.362	8.11
454.565	8.22
454.769	8.11
454.972	8.15
455.175	8.21
455.379	8.27
455.582	8.33
455.785	8.22
455.988	8.22
456.192	8.26
456.395	8.3
456.598	8.19
456.801	8.11
457.005	8.14
457.208	8.08
457.411	7.97
457.614	7.95
457.817	7.93
458.021	7.96
458.224	7.94
458.427	7.88
458.63	7.87
458.833	7.81
459.036	7.76
459.239	7.73
459.442	7.74
459.645	7.78
459.848	7.65
460.051	7.63
460.254	7.62
460.457	7.54
460.66	7.6
460.863	7.5
461.066	7.6
461.269	7.64
461.472	7.71
461.675	7.67
461.878	7.78
462.081	7.81
462.284	7.89
462.486	7.89
462.689	7.93
462.892	7.92
463.095	7.96
463.298	7.94
463.5	7.94
463.703	7.9
463.906	7.98
464.109	7.87
464.311	8.07
464.514	8.04
464.717	8.11
464.92	8.24
465.122	8.16
465.325	8.29
465.528	8.22
465.73	8.29
465.933	8.32
466.135	8.33
466.338	8.32
466.541	8.33
466.743	8.28
466.946	8.2
467.148	8.06
467.351	8.13
467.553	8.05
467.756	8.09
467.958	8.13
468.161	8.03
468.363	8.05
468.566	8.04
468.768	7.96
468.971	7.96
469.173	7.98
469.375	8.06
469.578	8.13
469.78	8.19
469.983	8.24
470.185	8.2
470.387	8.32
470.59	8.3
470.792	8.32
470.994	8.42
471.196	8.36
471.399	8.34
471.601	8.33
471.803	8.26
472.005	8.26
472.208	8.3
472.41	8.26
472.612	8.26
472.814	8.26
473.016	8.3
473.218	8.21
473.421	8.26
473.623	8.32
473.825	8.34
474.027	8.45
474.229	8.42
474.431	8.36
474.633	8.32
474.835	8.31
475.037	8.28
475.239	8.29
475.441	8.21
475.643	8.29
475.845	8.25
476.047	8.21
476.249	8.06
476.451	8.15
476.653	8.2
476.855	8.14
477.057	8.18
477.258	8.15
477.46	8.1
477.662	8.16
477.864	8.12
478.066	8.09
478.268	8.06
478.469	8.07
478.671	8.05
478.873	7.97
479.075	7.98
479.276	7.87
479.478	7.96
479.68	7.9
479.882	7.86
480.083	7.85
480.285	7.84
480.487	7.86
480.688	7.82
480.89	7.76
481.091	7.7
481.293	7.73
481.495	7.72
481.696	7.6
481.898	7.51
482.099	7.45
482.301	7.3
482.502	7.32
482.704	7.25
482.905	7.21
483.107	7.17
483.308	7.15
483.51	7.13
483.711	7.08
483.913	7.06
484.114	7.09
484.315	7.07
484.517	7.1
484.718	7.08
484.92	7.13
485.121	7.15
485.322	7.16
485.524	7.19
485.725	7.19
485.926	7.23
486.127	7.25
486.329	7.22
486.53	7.23
486.731	7.25
486.932	7.24
487.134	7.22
487.335	7.24
487.536	7.24
487.737	7.22
487.938	7.22
488.139	7.23
488.341	7.21
488.542	7.26
488.743	7.24
488.944	7.28
489.145	7.29
489.346	7.27
489.547	7.25
489.748	7.29
489.949	7.34
490.15	7.32
490.351	7.32
490.552	7.36
490.753	7.35
490.954	7.4
491.155	7.38
491.356	7.39
491.557	7.4
491.758	7.44
491.959	7.42
492.159	7.42
492.36	7.46
492.561	7.44
492.762	7.44
492.963	7.47
493.164	7.53
493.364	7.59
493.565	7.64
493.766	7.7
493.967	7.71
494.167	7.81
494.368	7.8
494.569	7.83
494.769	7.97
494.97	8.02
495.171	7.93
495.371	7.98
495.572	7.97
495.773	7.94
495.973	7.96
496.174	7.95
496.375	7.91
496.575	7.99
496.776	7.99
496.976	7.98
497.177	8.04
497.377	8.21
497.578	8.12
497.778	8.16
497.979	8.24
498.179	8.24
498.38	8.29
498.58	8.3
498.78	8.33
498.981	8.4
499.181	8.45
499.382	8.42
499.582	8.44
499.782	8.53
499.983	8.55
500.183	8.51
500.383	8.54
500.584	8.52
500.784	8.55
500.984	8.49
501.184	8.42
501.385	8.48
501.585	8.57
501.785	8.53
501.985	8.56
502.185	8.61
502.386	8.65
502.586	8.73
502.786	8.8
502.986	8.83
503.186	8.89
503.386	9.06
503.586	9.01
503.786	9.04
503.987	9.16
504.187	9.13
504.387	9.16
504.587	9.19
504.787	9.17
504.987	9.21
505.187	9.17
505.387	9.21
505.587	9.08
505.786	9.05
505.986	9.12
506.186	9.02
506.386	9.01
506.586	9.12
506.786	9.17
506.986	9.22
507.186	9.22
507.386	9.36
507.585	9.41
507.785	9.48
507.985	9.58
508.185	9.57
508.384	9.69
508.584	9.77
508.784	9.8
508.984	9.85
509.183	9.9
509.383	9.87
509.583	9.88
509.782	9.88
509.982	9.94
510.182	10
510.381	10.05
510.581	10.07
510.781	10.13
510.98	10.07
511.18	10.1
511.379	10.13
511.579	10.34
511.778	10.41
511.978	10.45
512.177	10.51
512.377	10.52
512.576	10.55
512.776	10.56
512.975	10.59
513.175	10.65
513.374	10.77
513.573	10.82
513.773	10.73
513.972	10.78
514.172	10.93
514.371	11.08
514.57	11.22
514.77	11.32
514.969	11.51
515.168	11.6
515.367	11.57
515.567	11.67
515.766	11.72
515.965	11.94
516.164	12.01
516.364	11.99
516.563	12
516.762	11.94
516.961	11.95
517.16	11.92
517.359	11.98
517.559	12.1
517.758	11.99
517.957	12.03
518.156	11.99
518.355	12.06
518.554	12.13
518.753	12.18
518.952	12.33
519.151	12.41
519.35	12.49
519.549	12.56
519.748	12.63
519.947	12.82
520.146	12.98
520.345	13.02
520.544	13.03
520.743	13.19
520.942	13.19
521.141	13.24
521.339	13.28
521.538	13.36
521.737	13.37
521.936	13.46
522.135	13.5
522.333	13.57
522.532	13.69
522.731	13.77
522.93	13.83
523.129	13.99
523.327	14.07
523.526	14.23
523.725	14.3
523.923	14.35
524.122	14.42
524.321	14.48
524.519	14.53
524.718	14.59
524.917	14.71
525.115	14.67
525.314	14.74
525.512	14.73
525.711	14.79
525.909	14.85
526.108	14.94
526.306	14.99
526.505	15.02
526.703	15.05
526.902	15.07
527.1	15.05
527.299	15.09
527.497	15.1
527.696	15.09
527.894	15.07
528.092	15.08
528.291	15.13
528.489	15.13
528.688	15.17
528.886	15.2
529.084	15.28
529.283	15.32
529.481	15.38
529.679	15.43
529.877	15.5
530.076	15.59
530.274	15.63
530.472	15.64
530.67	15.77
530.869	15.8
531.067	15.91
531.265	15.95
531.463	16.06
531.661	16.18
531.859	16.21
532.057	16.33
532.255	16.45
532.454	16.53
532.652	16.6
532.85	16.63
533.048	16.65
533.246	16.65
533.444	16.66
533.642	16.69
533.84	16.69
534.038	16.75
534.236	16.78
534.434	16.75
534.632	16.77
534.83	16.78
535.027	16.84
535.225	16.97
535.423	17.06
535.621	17.09
535.819	17.09
536.017	17.11
536.215	17.18
536.412	17.21
536.61	17.31
536.808	17.4
537.006	17.49
537.203	17.57
537.401	17.57
537.599	17.57
537.797	17.72
537.994	17.88
538.192	18.04
538.39	18.05
538.587	18.14
538.785	18.19
538.983	18.24
539.18	18.34
539.378	18.36
539.575	18.38
539.773	18.39
539.97	18.35
540.168	18.33
540.366	18.32
540.563	18.34
540.761	18.32
540.958	18.32
541.155	18.29
541.353	18.27
541.55	18.29
541.748	18.29
541.945	18.31
542.143	18.33
542.34	18.34
542.537	18.38
542.735	18.44
542.932	18.48
543.129	18.48
543.327	18.59
543.524	18.65
543.721	18.65
543.919	18.8
544.116	18.87
544.313	18.93
544.51	19.06
544.708	19.07
544.905	19.13
545.102	19.23
545.299	19.35
545.496	19.39
545.693	19.39
545.891	19.47
546.088	19.42
546.285	19.47
546.482	19.53
546.679	19.5
546.876	19.58
547.073	19.55
547.27	19.59
547.467	19.55
547.664	19.55
547.861	19.59
548.058	19.64
548.255	19.73
548.452	19.71
548.649	19.69
548.846	19.73
549.043	19.68
549.24	19.8
549.437	19.76
549.633	19.8
549.83	19.76
550.027	19.73
550.224	19.65
550.421	19.66
550.618	19.7
550.814	19.83
551.011	19.93
551.208	19.98
551.405	19.95
551.601	19.95
551.798	19.99
551.995	19.96
552.191	19.96
552.388	19.97
552.585	19.89
552.781	19.88
552.978	19.88
553.175	19.81
553.371	19.78
553.568	19.83
553.764	19.93
553.961	19.88
554.157	20
554.354	20.09
554.55	20.25
554.747	20.25
554.943	20.27
555.14	20.27
555.336	20.26
555.533	20.34
555.729	20.29
555.926	20.22
556.122	20.4
556.318	20.44
556.515	20.57
556.711	20.41
556.907	20.61
557.104	20.67
557.3	20.57
557.496	20.64
557.693	20.63
557.889	20.82
558.085	20.9
558.281	20.71
558.478	20.56
558.674	20.4
558.87	20.43
559.066	20.49
559.262	20.52
559.459	20.65
559.655	20.73
559.851	20.8
560.047	20.69
560.243	20.74
560.439	20.87
560.635	21.03
560.831	21.1
561.027	21.17
561.223	21.01
561.419	21.04
561.615	21.01
561.811	21.1
562.007	21.02
562.203	20.96
562.399	20.9
562.595	20.96
562.791	20.89
562.987	20.97
563.183	21.02
563.379	21.1
563.575	21.02
563.771	21.06
563.966	20.94
564.162	21.02
564.358	21.02
564.554	20.89
564.75	20.82
564.945	20.83
565.141	20.79
565.337	20.82
565.533	20.84
565.728	20.84
565.924	20.71
566.12	20.63
566.315	20.64
566.511	20.63
566.707	20.79
566.902	20.83
567.098	20.88
567.293	20.87
567.489	20.71
567.684	20.57
567.88	20.7
568.076	20.89
568.271	21.09
568.467	20.97
568.662	20.95
568.858	20.88
569.053	20.81
569.248	20.74
569.444	20.64
569.639	20.75
569.835	20.85
570.03	20.75
570.225	20.67
570.421	20.57
570.616	20.74
570.812	20.76
571.007	20.71
571.202	20.77
571.397	20.9
571.593	20.97
571.788	20.95
571.983	21.06
572.178	21.02
572.374	21.09
572.569	21.12
572.764	21.07
572.959	21.18
573.154	21.27
573.35	21.26
573.545	21.28
573.74	21.34
573.935	21.35
574.13	21.22
574.325	21.34
574.52	21.35
574.715	21.29
574.91	21.26
575.105	21.19
575.3	21.13
575.495	21.21
575.69	21.09
575.885	21.13
576.08	21.11
576.275	21.2
576.47	21.14
576.665	21.08
576.86	21.11
577.055	21.14
577.25	21.16
577.444	21.35
577.639	21.32
577.834	21.34
578.029	21.32
578.224	21.45
578.418	21.5
578.613	21.63
578.808	21.69
579.003	21.71
579.197	21.77
579.392	21.91
579.587	21.8
579.781	21.87
579.976	21.91
580.171	21.9
580.365	21.95
580.56	21.9
580.755	22.02
580.949	22.01
581.144	22.07
581.338	22.14
581.533	22.16
581.727	22.21
581.922	22.1
582.116	22.15
582.311	22.18
582.505	22.22
582.7	22.31
582.894	22.24
583.089	22.31
583.283	22.36
583.478	22.34
583.672	22.27
583.866	22.21
584.061	22.17
584.255	22.24
584.449	22.31
584.644	22.31
584.838	22.24
585.032	22.16
585.226	22.16
585.421	22.12
585.615	22.02
585.809	21.96
586.003	22.13
586.198	22.3
586.392	22.39
586.586	22.33
586.78	22.3
586.974	22.4
587.168	22.55
587.363	22.52
587.557	22.54
587.751	22.69
587.945	22.85
588.139	22.75
588.333	22.64
588.527	22.52
588.721	22.54
588.915	22.5
589.109	22.62
589.303	22.56
589.497	22.53
589.691	22.44
589.885	22.34
590.079	22.23
590.273	22.3
590.466	22.42
590.66	22.5
590.854	22.73
591.048	22.88
591.242	22.78
591.436	22.85
591.629	22.98
591.823	23.19
592.017	23.34
592.211	23.57
592.404	23.46
592.598	23.48
592.792	23.34
592.986	23.15
593.179	23.13
593.373	23.12
593.567	22.98
593.76	22.89
593.954	22.78
594.147	22.81
594.341	22.65
594.535	22.78
594.728	22.74
594.922	22.81
595.115	22.8
595.309	22.69
595.502	22.68
595.696	22.77
595.889	22.82
596.083	22.82
596.276	22.68
596.47	22.67
596.663	22.58
596.856	22.66
597.05	22.71
597.243	22.83
597.437	22.93
597.63	22.95
597.823	23
598.017	23.03
598.21	23.16
598.403	23.22
598.596	23.16
598.79	23.28
598.983	23.35
599.176	23.44
599.369	23.49
599.563	23.43
599.756	23.58
599.949	23.61
600.142	23.49
600.335	23.38
600.528	23.5
600.722	23.74
600.915	23.79
601.108	23.64
601.301	23.59
601.494	23.52
601.687	23.55
601.88	23.46
602.073	23.32
602.266	23.25
602.459	23.26
602.652	23.04
602.845	23.09
603.038	22.97
603.231	23.02
603.424	22.88
603.617	22.72
603.809	22.68
604.002	22.69
604.195	22.75
604.388	22.81
604.581	22.81
604.774	22.93
604.966	22.83
605.159	22.87
605.352	22.89
605.545	23.04
605.737	23.17
605.93	23.21
606.123	23.34
606.316	23.44
606.508	23.41
606.701	23.58
606.894	23.69
607.086	23.73
607.279	23.81
607.471	23.84
607.664	23.86
607.857	23.91
608.049	24.04
608.242	24.1
608.434	24.19
608.627	24.58
608.819	24.73
609.012	24.91
609.204	25.28
609.397	25.72
609.589	26.17
609.782	26.41
609.974	26.92
610.166	27.4
610.359	27.79
610.551	28.16
610.743	28.38
610.936	28.67
611.128	28.96
611.32	29.14
611.513	29.09
611.705	29.11
611.897	29.27
612.09	29.16
612.282	29
612.474	28.9
612.666	28.91
612.858	28.98
613.051	28.76
613.243	28.58
613.435	28.44
613.627	28.24
613.819	27.86
614.011	27.71
614.203	27.5
614.395	27.3
614.588	27.07
614.78	26.68
614.972	26.42
615.164	26.4
615.356	26.22
615.548	25.88
615.74	25.87
615.932	25.78
616.124	25.63
616.315	25.58
616.507	25.58
616.699	25.46
616.891	25.46
617.083	25.29
617.275	25.15
617.467	25.2
617.659	25.21
617.85	25.34
618.042	25.52
618.234	25.44
618.426	25.46
618.618	25.39
618.809	25.29
619.001	25.26
619.193	25.26
619.384	25.28
619.576	25.22
619.768	25.23
619.959	24.88
620.151	24.85
620.343	24.79
620.534	24.69
620.726	24.63
620.917	24.82
621.109	24.8
621.301	24.84
621.492	24.83
621.684	24.88
621.875	25
622.067	24.95
622.258	24.91
622.45	25.18
622.641	25.27
622.832	25.35
623.024	25.41
623.215	25.63
623.407	25.55
623.598	25.64
623.789	25.71
623.981	25.46
624.172	25.74
624.363	25.65
624.555	25.4
624.746	25.35
624.937	25.39
625.129	25.32
625.32	25.17
625.511	25.1
625.702	24.96
625.893	24.93
626.085	24.96
626.276	24.88
626.467	24.96
626.658	25.06
626.849	25.03
627.04	24.84
627.231	24.77
627.422	24.74
627.614	24.88
627.805	24.98
627.996	24.93
628.187	25.08
628.378	25.11
628.569	25.07
628.76	25.12
628.951	25.12
629.142	25.27
629.332	25.38
629.523	25.58
629.714	25.46
629.905	25.68
630.096	25.82
630.287	25.7
630.478	25.72
630.669	25.87
630.859	25.92
631.05	26.08
631.241	26.09
631.432	26.14
631.623	26.1
631.813	26.22
632.004	25.86
632.195	25.67
632.385	25.7
632.576	25.64
632.767	25.51
632.957	25.56
633.148	25.51
633.339	25.37
633.529	25.21
633.72	24.99
633.91	24.98
634.101	24.99
634.292	25.02
634.482	25.01
634.673	25.11
634.863	25.19
635.054	25.1
635.244	25.05
635.435	25.29
635.625	25.33
635.815	25.36
636.006	25.29
636.196	25.52
636.387	25.47
636.577	25.59
636.767	25.45
636.958	25.41
637.148	25.4
637.338	25.43
637.529	25.3
637.719	25.32
637.909	25.51
638.099	25.42
638.29	25.31
638.48	25.47
638.67	25.38
638.86	25.59
639.05	25.67
639.241	25.75
639.431	25.65
639.621	25.58
639.811	25.74
640.001	25.38
640.191	25.49
640.381	25.57
640.571	25.37
640.761	25.35
640.951	25.29
641.141	25.03
641.331	25
641.521	25.27
641.711	25.35
641.901	25.12
642.091	25.54
642.281	25.65
642.471	25.52
642.661	25.68
642.851	25.72
643.041	25.61
643.231	25.65
643.42	25.75
643.61	25.46
643.8	25.46
643.99	25.56
644.18	25.49
644.369	25.46
644.559	25.6
644.749	25.59
644.939	25.64
645.128	25.64
645.318	25.79
645.508	25.69
645.697	25.81
645.887	26.02
646.076	26.17
646.266	26.05
646.456	26.22
646.645	26.22
646.835	26.21
647.024	26.1
647.214	26.09
647.403	26.14
647.593	26.19
647.782	26.18
647.972	25.84
648.161	25.81
648.351	25.89
648.54	25.83
648.73	25.9
648.919	25.91
649.108	25.97
649.298	25.9
649.487	25.9
649.677	26.07
649.866	26.3
650.055	26.6
650.244	26.67
650.434	26.64
650.623	26.58
650.812	26.5
651.002	26.43
651.191	26.57
651.38	26.62
651.569	26.57
651.758	26.29
651.947	26.2
652.137	26.24
652.326	26.18
652.515	26.25
652.704	26.28
652.893	26.24
653.082	26.53
653.271	26.42
653.46	26.43
653.649	26.48
653.838	26.65
654.027	26.45
654.216	26.11
654.405	26.18
654.594	26.3
654.783	26.28
654.972	26.5
655.161	26.54
655.35	26.53
655.539	26.67
655.728	26.58
655.916	26.69
656.105	26.9
656.294	27.1
656.483	26.74
656.672	26.62
656.86	26.45
657.049	26.2
657.238	25.9
657.427	26.16
657.615	26.15
657.804	26.37
657.993	26.27
658.181	26.37
658.37	26.34
658.559	26.53
658.747	26.5
658.936	26.53
659.125	26.13
659.313	26.22
659.502	26.2
659.69	26.11
659.879	26.02
660.067	26.01
660.256	25.74
660.444	25.74
660.633	25.7
660.821	25.86
661.01	26.02
661.198	26.45
661.387	26.54
661.575	26.45
661.763	26.68
661.952	26.78
662.14	26.9
662.328	27.04
662.517	27.13
662.705	27.22
662.893	27.06
663.082	27.29
663.27	27.55
663.458	27.68
663.646	27.71
663.834	27.65
664.023	27.67
664.211	27.64
664.399	27.7
664.587	27.62
664.775	27.6
664.963	27.65
665.152	27.66
665.34	27.73
665.528	27.46
665.716	27.48
665.904	27.33
666.092	27.53
666.28	27.35
666.468	27.48
666.656	27.77
666.844	27.63
667.032	27.67
667.22	27.43
667.408	27.26
667.596	27.51
667.784	27.51
667.971	27.68
668.159	27.34
668.347	27.54
668.535	27.64
668.723	27.5
668.911	27.84
669.098	27.72
669.286	27.77
669.474	27.82
669.662	27.76
669.849	28
670.037	27.79
670.225	27.89
670.413	27.61
670.6	27.51
670.788	27.6
670.976	27.57
671.163	27.82
671.351	27.93
671.538	27.85
671.726	27.96
671.913	27.64
672.101	27.87
672.289	27.81
672.476	27.98
672.664	28.27
672.851	28.07
673.039	27.79
673.226	27.63
673.413	27.52
673.601	27.75
673.788	27.82
673.976	28.01
674.163	28.01
674.35	28.33
674.538	28.43
674.725	28.34
674.912	28.5
675.1	28.67
675.287	28.84
675.474	28.56
675.662	28.18
675.849	28.12
676.036	28.3
676.223	28.12
676.411	27.78
676.598	27.68
676.785	27.5
676.972	27.59
677.159	27.6
677.346	27.54
677.533	27.7
677.721	27.75
677.908	27.7
678.095	27.46
678.282	27.34
678.469	27.31
678.656	27.29
678.843	27.27
679.03	27.04
679.217	27.03
679.404	26.95
679.591	26.98
679.778	27.18
679.964	27.32
680.151	27.45
680.338	27.61
680.525	27.89
680.712	28.03
680.899	27.77
681.086	27.88
681.272	27.86
681.459	28.06
681.646	28.12
681.833	28.13
682.02	27.88
682.206	27.64
682.393	27.91
682.58	27.89
682.766	27.84
682.953	28.42
683.14	28.53
683.326	28.57
683.513	28.61
683.7	28.61
683.886	28.42
684.073	28.8
684.259	29.07
684.446	29.11
684.632	29.07
684.819	29.19
685.005	28.95
685.192	29.15
685.378	29.53
685.565	29.22
685.751	29.38
685.938	29.53
686.124	29.23
686.31	29.24
686.497	29.36
686.683	29.31
686.87	29.47
687.056	29.18
687.242	29.01
687.429	28.98
687.615	29.14
687.801	29.29
687.987	29.26
688.174	29.21
688.36	29.14
688.546	28.56
688.732	28.43
688.918	28.26
689.105	28.19
689.291	28.18
689.477	28.31
689.663	28.35
689.849	28.35
690.035	28.22
690.221	28.4
690.407	28.37
690.593	28.57
690.779	28.92
690.965	28.63
691.151	29.04
691.337	29.09
691.523	28.94
691.709	29.08
691.895	29.12
692.081	29.22
692.267	29.06
692.453	29.53
692.639	29.54
692.825	29.68
693.011	30.49
693.196	30.32
693.382	30.34
693.568	30.62
693.754	30.86
693.94	30.88
694.125	31.3
694.311	31.71
694.497	31.32
694.682	31.54
694.868	31.44
695.054	31
695.239	31.39
695.425	31.48
695.611	31.09
695.796	30.71
695.982	30.44
696.168	30.38
696.353	30.27
696.539	30.09
696.724	29.87
696.91	29.2
697.095	28.95
697.281	28.49
697.466	28.17
697.652	28.24
697.837	28.29
698.023	28.31
698.208	27.84
698.393	27.58
698.579	27.56
698.764	27.5
698.949	27.68
699.135	27.98
699.32	28.02
699.505	28.04
699.691	27.96
699.876	27.94
700.061	27.79
700.246	27.97
700.432	28.06
700.617	28.13
700.802	28.25
700.987	28.56
701.172	28.49
701.358	28.92
701.543	29.3
701.728	29.35
701.913	29.82
702.098	30.29
702.283	30.88
702.468	31.27
702.653	31.58
702.838	31.95
703.023	32.06
703.208	31.83
703.393	31.42
703.578	31.62
703.763	32.08
703.948	31.67
704.133	31.75
704.318	31.48
704.503	31.56
704.688	31.42
704.873	31.35
705.057	31.48
705.242	32.01
705.427	32.71
705.612	32.84
705.797	32.74
705.981	32.95
706.166	32.95
706.351	33.1
706.536	33.41
706.72	33.93
706.905	34.18
707.09	34.39
707.274	34.56
707.459	34.39
707.644	34.79
707.828	34.99
708.013	34.88
708.197	34.84
708.382	34.75
708.567	34.37
708.751	34.08
708.936	33.82
709.12	33.5
709.305	33.33
709.489	33.54
709.673	32.84
709.858	32.68
710.042	32.8
710.227	32.6
710.411	32.71
710.596	32.78
710.78	32.78
710.964	32.88
711.149	33.01
711.333	32.78
711.517	32.29
711.702	32.42
711.886	32.21
712.07	32.1
712.254	32.48
712.438	32.5
712.623	32.42
712.807	32.26
712.991	32.16
713.175	32.1
713.359	32.02
713.544	31.98
713.728	31.53
713.912	31.47
714.096	31.12
714.28	30.83
714.464	30.71
714.648	30.42
714.832	30.5
715.016	30.36
715.2	30.1
715.384	30.19
715.568	30.37
715.752	30.43
715.936	30.28
716.12	30.11
716.304	30.16
716.488	30.17
716.671	30.44
716.855	30.41
717.039	30.77
717.223	30.72
717.407	30.94
717.59	30.86
717.774	30.96
717.958	30.94
718.142	31.39
718.325	31.44
718.509	31.63
718.693	31.52
718.877	31.43
719.06	31.41
719.244	31.4
719.428	31.11
719.611	31.25
719.795	31.38
719.978	31.71
720.162	31.98
720.345	31.95
720.529	31.99
720.713	31.98
720.896	31.83
721.08	31.8
721.263	31.98
721.446	32.22
721.63	32.4
721.813	32.43
721.997	31.93
722.18	31.77
722.364	31.46
722.547	31.15
722.73	31.49
722.914	31.99
723.097	31.89
723.28	31.82
723.464	31.84
723.647	31.73
723.83	31.93
724.013	32.62
724.197	32.79
724.38	33.26
724.563	33.05
724.746	32.83
724.929	32.85
725.112	32.65
725.296	32.66
725.479	32.54
725.662	32.49
725.845	31.96
726.028	31.81
726.211	31.58
726.394	31.87
726.577	31.74
726.76	31.88
726.943	31.95
727.126	32.11
727.309	32
727.492	32.14
727.675	32.02
727.858	32.07
728.041	32.34
728.224	32.46
728.407	31.81
728.589	32.31
728.772	32.02
728.955	31.59
729.138	31.56
729.321	31.51
729.503	31.73
729.686	31.96
729.869	32.32
730.052	32.01
730.234	31.8
730.417	32.27
730.6	31.88
730.782	32.16
730.965	32.6
731.148	32.98
731.33	33.41
731.513	33.26
731.695	33.11
731.878	33.22
732.061	33.04
732.243	33.69
732.426	33.64
732.608	34.18
732.791	34.33
732.973	33.97
733.156	33.69
733.338	33.33
733.52	33.34
733.703	33.27
733.885	33.18
734.068	33.43
734.25	33.17
734.432	33.22
734.615	32.62
734.797	32.38
734.979	33.17
735.162	32.86
735.344	33.46
735.526	33.64
735.708	33.75
735.891	34.06
736.073	33.57
736.255	33.81
736.437	33.51
736.619	34.19
736.802	34.47
736.984	34.13
737.166	34.6
737.348	34.54
737.53	34.22
737.712	34.21
737.894	33.76
738.076	34.22
738.258	34.16
738.44	34.19
738.622	34.48
738.804	34.47
738.986	33.96
739.168	33.91
739.35	33.91
739.532	34
739.714	34.36
739.896	34.35
740.078	34.69
740.259	33.93
740.441	34.53
740.623	34.35
740.805	34.01
740.987	34.48
741.168	34.51
741.35	35.22
741.532	35.76
741.714	35.72
741.895	36.01
742.077	36.03
742.259	36.58
742.44	36.65
742.622	36.77
742.804	37.22
742.985	37.98
743.167	37.88
743.348	37.24
743.53	37.07
743.711	37.08
743.893	37.22
744.075	37.16
744.256	37.09
744.438	36.82
744.619	36.16
744.8	36.07
744.982	35.25
745.163	35.44
745.345	35.49
745.526	35.4
745.707	35.82
745.889	35.95
746.07	36.12
746.252	36.19
746.433	36.39
746.614	36.09
746.795	36.03
746.977	36.32
747.158	36.3
747.339	36.96
747.52	36.65
747.702	35.81
747.883	35.71
748.064	35.24
748.245	34.84
748.426	34.91
748.607	35.44
748.788	35.35
748.97	35.13
749.151	35.5
749.332	35.22
749.513	35.8
749.694	36.46
749.875	36.79
750.056	37.33
750.237	37.84
750.418	37.95
750.599	38.18
750.78	38.61
750.96	38.7
751.141	38.37
751.322	38.24
751.503	38.03
751.684	38.28
751.865	38.73
752.046	38.92
752.226	38.75
752.407	38.29
752.588	37.79
752.769	37.73
752.949	37.46
753.13	37.63
753.311	37.34
753.492	37.58
753.672	37.16
753.853	36.76
754.034	36.17
754.214	36.9
754.395	37.24
754.575	37.92
754.756	38.08
754.937	38.72
755.117	38.37
755.298	38.74
755.478	38.51
755.659	38.59
755.839	38.07
756.02	38.62
756.2	38.1
756.381	37.59
756.561	37.58
756.741	37.04
756.922	36.9
757.102	37.2
757.283	37.03
757.463	37.51
757.643	37.88
757.823	37.9
758.004	37.53
758.184	37.53
758.364	38.64
758.545	38.59
758.725	38.12
758.905	37.63
759.085	37.47
759.265	36.81
759.446	36.63
759.626	36.37
759.806	35.92
759.986	35.58
760.166	35.42
760.346	34.06
760.526	34.8
760.706	35.14
760.886	35.39
761.066	35.32
761.246	35.24
761.426	34.27
761.606	33.37
761.786	33.81
761.966	33.91
762.146	33.77
762.326	34.24
762.506	33.19
762.686	33.27
762.866	32.48
763.046	32.17
763.225	32.44
763.405	32.13
763.585	32
763.765	31.64
763.945	31.31
764.124	31.26
764.304	30.97
764.484	30.76
764.664	30.68
764.843	30.85
765.023	31.36
765.203	31.32
765.382	31.83
765.562	32.51
765.741	33.08
765.921	33.92
766.101	34.2
766.28	34.7
766.46	35.89
766.639	36.39
766.819	37.15
766.998	37.31
767.178	37.67
767.357	38.18
767.537	38.33
767.716	38.34
767.896	39.17
768.075	39.04
768.254	38.87
768.434	38.68
768.613	38.56
768.792	39.17
768.972	39.29
769.151	39.97
769.33	39.57
769.51	39.98
769.689	40.58
769.868	39.83
770.047	40.8
770.226	41.02
770.406	40.71
770.585	41.27
770.764	40.4
770.943	39.75
771.122	39.48
771.301	40.2
771.48	40.04
771.66	40.1
771.839	40.25
772.018	39.33
772.197	40.1
772.376	40.32
772.555	40.31
772.734	40.74
772.913	40.62
773.092	40.6
773.271	40.71
773.449	40.74
773.628	40.86
773.807	40.29
773.986	41.35
774.165	39.75
774.344	40.32
774.523	39.62
774.701	40.28
774.88	41.29
775.059	41.39
775.238	41.62
775.417	42.19
775.595	41.72
775.774	42.13
775.953	41.45
776.131	42.33
776.31	41.61
776.489	42.04
776.667	41.78
776.846	40.88
777.025	40.52
777.203	39.83
777.382	39.41
777.56	38.68
777.739	38.49
777.917	39.64
778.096	40.45
778.274	41.36
778.453	41.29
778.631	40.55
778.81	41.02
778.988	41.04
779.166	40.83
779.345	40.82
779.523	40.59
779.702	41.11
779.88	40.75
780.058	41.04
780.237	40.34
780.415	41.75
780.593	41.93
780.771	43.31
780.95	43.32
781.128	43.33
781.306	43.16
781.484	44.08
781.662	43.45
781.841	43.61
782.019	43.24
782.197	44.03
782.375	43.36
782.553	43.33
782.731	42.54
782.909	42.4
783.087	42.89
783.265	44.09
783.443	43.66
783.621	45.12
783.799	44.68
783.977	44.46
784.155	43.64
784.333	42.95
784.511	43.36
784.689	42.7
784.867	43.21
785.045	43.47
785.223	42.78
785.4	43.91
785.578	42.49
785.756	43.04
785.934	42.87
786.112	43.87
786.289	43.73
786.467	44.11
786.645	43.81
786.823	43.27
787	44.19
787.178	43.54
787.356	42.78
787.533	42.76
787.711	41.92
787.889	41.55
788.066	40.82
788.244	40.77
788.421	40.68
788.599	41.73
788.776	42.39
788.954	41.17
789.131	41.45
789.309	41.27
789.486	40.39
789.664	41.09
789.841	41.1
790.019	41.68
790.196	41.72
790.373	41.35
790.551	40.48
790.728	40.48
790.906	41.31
791.083	40.66
791.26	40.82
791.437	42.42
791.615	41.2
791.792	41.95
791.969	41.16
792.146	41.68
792.324	42.09
792.501	42.73
792.678	42.71
792.855	41.88
793.032	43.44
793.209	44.89
793.387	43.99
793.564	45.34
793.741	45.14
793.918	45.51
794.095	45.16
794.272	44.43
794.449	43.75
794.626	43.54
794.803	43.48
794.98	41.63
795.157	40.22
795.334	42.07
795.511	41.09
795.688	41.43
795.864	40.93
796.041	40.71
796.218	41.24
796.395	41.7
796.572	41.98
796.749	42.11
796.925	43.23
797.102	44.79
797.279	43.11
797.456	44.23
797.632	43.63
797.809	43.4
797.986	43.33
798.162	42.87
798.339	43.07
798.516	42.58
798.692	43.11
798.869	43.05
799.046	42.59
799.222	43.23
799.399	42.29
799.575	42.22
799.752	42.97
799.928	43.14
800.105	44.89
800.281	44.23
800.458	44.26
800.634	44.49
800.811	44.29
800.987	44.5
801.163	44.7
801.34	45.1
801.516	46.05
801.692	45.54
801.869	46.4
802.045	44.48
802.221	45.44
802.398	46.13
802.574	45.62
802.75	45.53
802.926	43.78
803.103	44.34
803.279	42.61
803.455	43.12
803.631	43.66
803.807	44.34
803.983	45.78
804.16	45.7
804.336	45.85
804.512	45
804.688	45.86
804.864	48.17
805.04	47.66
805.216	48.79
805.392	47.05
805.568	46.79
805.744	44.13
805.92	44.86
806.096	44.74
806.272	45.43
806.448	45.38
806.623	45.32
806.799	44.52
806.975	44.77
807.151	45.71
807.327	46.41
807.503	46.98
807.678	48.14
807.854	47.78
808.03	46.43
808.206	45.46
808.381	46.79
808.557	47.64
808.733	47.31
808.908	47.15
809.084	46.8
809.26	45.44
809.435	45.5
809.611	45.78
809.787	44.09
809.962	46.02
810.138	46.11
810.313	46.01
810.489	45.91
810.664	45.78
810.84	47.36
811.015	49.33
811.191	51.82
811.366	52.87
811.542	53.48
811.717	53.8
811.892	54.39
812.068	55.14
812.243	54.95
812.419	54.65
812.594	54.07
812.769	52.39
812.944	49.85
813.12	50.11
813.295	49.19
813.47	49.22
813.645	50.99
813.821	49.75
813.996	48.58
814.171	49.29
814.346	49.07
814.521	50.38
814.697	51.06
814.872	52.61
815.047	51.95
815.222	52.51
815.397	51.77
815.572	51.03
815.747	51.09
815.922	51.66
816.097	51.39
816.272	50.67
816.447	49.21
816.622	48.25
816.797	48.31
816.972	47.17
817.147	46.83
817.322	46.54
817.496	45.07
817.671	44.78
817.846	44.59
818.021	42.85
818.196	42.29
818.371	42.7
818.545	42.27
818.72	41.58
818.895	40.45
819.069	39.52
819.244	38.86
819.419	39.16
819.594	38.88
819.768	37.47
819.943	37.52
820.117	37.44
820.292	36.34
820.467	35.05
820.641	33.45
820.816	33.14
820.99	31.86
821.165	31.15
821.339	29.91
821.514	29.13
821.688	28.59
821.863	28.05
822.037	27.55
822.212	27.37
822.386	27.37
822.56	27.25
822.735	27.07
822.909	27.01
823.084	26.97
823.258	27.29
823.432	27.33
823.606	27.34
823.781	27.4
823.955	27.62
824.129	27.62
824.303	28.12
824.478	28.29
824.652	28.44
824.826	28.99
825	29.09
825.174	29.39
825.348	29.98
825.523	30.64
825.697	31.15
825.871	31
826.045	31.6
826.219	31.06
826.393	31.28
826.567	31.53
826.741	31.55
826.915	32.1
827.089	31.48
827.263	30.77
827.437	30.52
827.611	30.55
827.784	31.14
827.958	31.14
828.132	31.51
828.306	31.89
828.48	32.32
828.654	31.83
828.827	31.84
829.001	32.65
829.175	33.46
829.349	35.17
829.522	35.92
829.696	36.01
829.87	36.8
830.044	37.95
830.217	37.99
830.391	38.38
830.565	40.28
830.738	41.04
830.912	41.24
831.085	42.02
831.259	41.5
831.432	42.42
831.606	43.07
831.779	42.14
831.953	40.63
832.126	40.72
832.3	40.32
832.473	38.93
832.647	38.23
832.82	36.83
832.994	35.83
833.167	35.03
833.34	34.56
833.514	34.05
833.687	33.03
833.86	33.04
834.034	32.58
834.207	32.66
834.38	33.33
834.553	33.88
834.727	35.1
834.9	36.25
835.073	36.29
835.246	36.56
835.419	37.2
835.593	39.04
835.766	39.58
835.939	41.73
836.112	42.47
836.285	43.41
836.458	43.08
836.631	43.43
836.804	44.26
836.977	44.53
837.15	44.43
837.323	44.88
837.496	45.91
837.669	47.4
837.842	46.97
838.015	47.8
838.188	48.04
838.361	50
838.533	50.18
838.706	50.29
838.879	52.92
839.052	54.8
839.225	54.8
839.398	52.68
839.57	52.14
839.743	51.08
839.916	50.58
840.088	51.22
840.261	51.49
840.434	51.55
840.607	51.37
840.779	50.53
840.952	50.41
841.124	50.94
841.297	51.52
841.47	52.15
841.642	52.54
841.815	53.9
841.987	54.87
842.16	55.85
842.332	58.3
842.505	59.93
842.677	63.07
842.85	63.19
843.022	65.1
843.194	67.78
843.367	68.71
843.539	72.62
843.712	72.56
843.884	71.73
844.056	74.02
844.229	73.31
844.401	72.99
844.573	73.16
844.745	74.27
844.918	72.27
845.09	73.34
845.262	73.58
845.434	72.12
845.606	70.45
845.779	72.67
845.951	71.31
846.123	70.47
846.295	68.71
846.467	68.08
846.639	69.89
846.811	73.12
846.983	69.74
847.155	70.01
847.327	69.45
847.499	72.18
847.671	70.28
847.843	69.06
848.015	69.85
848.187	72.05
848.359	73.21
848.531	71.37
848.703	70.51
848.875	74.74
849.047	74.7
849.218	74.72
849.39	77.42
849.562	81.37
849.734	79.52
849.905	79.52
850.077	80.41
850.249	82.6
850.421	82.33
850.592	80.11
850.764	79.61
850.936	84.3
851.107	86.44
851.279	81.96
851.451	80.86
851.622	81.36
851.794	88.14
851.965	84.61
852.137	81
852.308	84.78
852.48	89.49
852.651	92.78
852.823	84.48
852.994	83
853.166	86.9
853.337	84.65
853.509	82.37
853.68	78.88
853.851	79.58
854.023	80.96
854.194	78.45
854.365	75.64
854.537	74.49
854.708	80.36
854.879	83.39
855.05	82.98
855.222	84.8
855.393	89.87
855.564	89.41
855.735	89.5
855.906	86.46
856.078	88.68
856.249	93.28
856.42	90.32
856.591	85.82
856.762	84.89
856.933	83.75
857.104	85.15
857.275	78.81
857.446	82.99
857.617	91.16
857.788	91.39
857.959	88.56
858.13	87.76
858.301	92.99
858.472	94.63
858.643	94.46
858.814	98.96
858.985	98.21
859.155	103.95
859.326	99.04
859.497	96.97
859.668	93.28
859.839	91.75
860.009	88.14
860.18	84.27
860.351	87.55
860.522	85.11
860.692	78.39
860.863	81.01
861.034	86.49
861.204	90.84
861.375	88.11
861.546	92.91
861.716	96.26
861.887	103.6
862.057	105.14
862.228	98.4
862.398	93.4
862.569	94.83
862.739	91.97
862.91	89.62
863.08	88.47
863.251	88.6
863.421	88.76
863.592	89.44
863.762	84.03
863.932	82.98
864.103	87.17
864.273	88.87
864.443	86.79
864.614	86.14
864.784	89.66
864.954	88.77
865.125	87.89
865.295	92.94
865.465	90.15
865.635	90.05
865.805	94.34
865.976	91.75
866.146	93.52
866.316	97.53
866.486	97.56
866.656	98.31
866.826	97.28
866.996	96.66
867.166	95.04
867.336	96.16
867.506	97.05
867.676	89.97
867.846	96.37
868.016	96.19
868.186	97.77
868.356	99.79
868.526	93.26
868.696	93.5
868.866	94.69
869.036	95.76
869.206	101.77
869.376	105.61
869.545	110.45
869.715	108.79
869.885	112.04
870.055	107.75
870.224	104.56
870.394	105.72
870.564	109.7
870.734	104.5
870.903	99.76
871.073	96.2
871.243	90.24
871.412	89.16
871.582	89.26
871.751	90.22
871.921	88.15
872.091	89.99
872.26	86.18
872.43	78.31
872.599	80.37
872.769	77.08
872.938	73.2
873.108	77.55
873.277	76.64
873.446	75.08
873.616	72.61
873.785	74.79
873.955	73.22
874.124	78.13
874.293	82.58
874.463	84.49
874.632	89.44
874.801	94.01
874.971	87.51
875.14	89.66
875.309	88.13
875.478	90.18
875.647	91.2
875.817	93.19
875.986	93.3
876.155	92.48
876.324	87.57
876.493	89.5
876.662	86.7
876.831	88.89
877	92.24
877.17	93.22
877.339	92.91
877.508	94.42
877.677	91.61
877.846	91.27
878.015	89.43
878.184	91.37
878.352	88.93
878.521	85.93
878.69	85.35
878.859	79.6
879.028	77.93
879.197	74.38
879.366	70.35
879.534	68.01
879.703	60.6
879.872	56.36
880.041	51.94
880.21	48.98
880.378	46.5
880.547	43.92
880.716	40.45
880.884	38.63
881.053	35.57
881.222	33.59
881.39	32.4
881.559	32.77
881.727	32.29
881.896	31.39
882.065	31.61
882.233	31.39
882.402	31.03
882.57	31.13
882.739	30.79
882.907	31.77
883.076	32.35
883.244	32.14
883.412	31.99
883.581	32.37
883.749	33.36
883.918	33.76
884.086	35.49
884.254	36.86
884.423	38.62
884.591	39.73
884.759	39.75
884.927	41.4
885.096	44.96
885.264	47.41
885.432	50.84
885.6	52.75
885.769	53.31
885.937	54.48
886.105	56.5
886.273	57.49
886.441	58.45
886.609	62.67
886.777	64.3
886.945	61.93
887.113	64.34
887.281	63.16
887.449	68.13
887.617	70.38
887.785	71.07
887.953	71.71
888.121	74.34
888.289	79.78
888.457	83.06
888.625	84.39
888.793	92.69
888.961	92.73
889.129	93.15
889.296	91.73
889.464	94.71
889.632	95.26
889.8	98.74
889.967	100.79
890.135	98.61
