Data from 2938762__Reflection_03.txt Node
Date: Fri Mar 13 16:53:12 EDT 2015
User: robert
Spectrometer: USB4E03002
Autoset integration time: false
Trigger mode: 4
Integration Time (sec): 1.000000E-1
Scans to average: 10
Electric dark correction enabled: false
Nonlinearity correction enabled: false
Boxcar width: 5
Stray light correction enabled: false
XAxis mode: Wavelengths
Stop averaging: false
Number of Pixels in Spectrum: 3648
>>>>>Begin Spectral Data<<<<<
177.575	-1306.25
177.794	-5823.08
178.014	-996.15
178.233	-483.77
178.452	-377.98
178.672	-306.12
178.891	-147.04
179.11	-95.95
179.33	-129.31
179.549	-256.44
179.768	-214.63
179.987	-291.22
180.207	-231.27
180.426	-242.12
180.645	-1044.44
180.864	-4604.76
181.084	1206.74
181.303	1266.67
181.522	511.95
181.741	782.19
181.96	1265.96
182.179	578.76
182.398	483.06
182.618	436.86
182.837	298.17
183.056	355.71
183.275	336.11
183.494	232.14
183.713	216.89
183.932	149.04
184.151	142.25
184.37	125.41
184.589	107.19
184.808	122.8
185.027	117.46
185.246	122.02
185.465	115.41
185.684	145.64
185.903	211.39
186.122	242.34
186.341	486.7
186.56	1842.55
186.779	778.38
186.998	-386.84
187.216	-1184.85
187.435	643.65
187.654	-4813.33
187.873	-473.33
188.092	13316.67
188.311	851.96
188.53	306.67
188.748	311.11
188.967	331.07
189.186	316.77
189.405	235.44
189.623	303.06
189.842	367.82
190.061	618.95
190.28	409.67
190.498	548.15
190.717	474.38
190.936	638.38
191.154	556.33
191.373	512.83
191.592	515.91
191.81	467.23
192.029	688
192.248	1015.38
192.466	359.15
192.685	322.51
192.904	370.5
193.122	349.85
193.341	531.78
193.559	1010.31
193.778	1308.57
193.996	3207.41
194.215	-2631.71
194.433	3741.38
194.652	-1374.65
194.87	-481.52
195.089	-5078.95
195.307	2010.71
195.526	-6058.82
195.744	1041.58
195.963	500
196.181	396.91
196.399	383.53
196.618	330.53
196.836	333.43
197.055	303.45
197.273	273.98
197.491	328.64
197.71	259.06
197.928	230.59
198.146	239.66
198.365	239.27
198.583	242.17
198.801	192.68
199.019	214.06
199.238	231.36
199.456	207.03
199.674	214.38
199.892	231.15
200.111	249.24
200.329	262.52
200.547	294.16
200.765	370.81
200.983	399.39
201.202	444.25
201.42	404.5
201.638	329.42
201.856	461.36
202.074	324.94
202.292	377.36
202.51	292.26
202.728	349.73
202.946	243.75
203.165	236.47
203.383	235.93
203.601	217.99
203.819	282.71
204.037	289.45
204.255	315.53
204.473	396.35
204.691	272.42
204.909	214.83
205.127	195.45
205.345	265.2
205.562	277.31
205.78	261.52
205.998	318.1
206.216	417.65
206.434	324.22
206.652	288.34
206.87	493.36
207.088	431.84
207.306	1909.52
207.523	1116.52
207.741	934.09
207.959	743.46
208.177	1033.88
208.395	420.29
208.612	223.6
208.83	256
209.048	267.66
209.266	243.09
209.483	257.88
209.701	215.99
209.919	224.83
210.136	199.13
210.354	229.56
210.572	223.49
210.79	237.33
211.007	252.35
211.225	240.22
211.442	290.38
211.66	248.99
211.878	196.08
212.095	114.79
212.313	102.02
212.53	105.22
212.748	93.25
212.966	94.48
213.183	114.42
213.401	132.15
213.618	99.29
213.836	75.69
214.053	71.31
214.271	91.1
214.488	273.8
214.705	337.2
214.923	335.37
215.14	380.82
215.358	366.23
215.575	238.28
215.793	173.29
216.01	191.61
216.227	212.68
216.445	204.85
216.662	158.25
216.879	139.12
217.097	119.72
217.314	98.34
217.531	94.95
217.749	89.55
217.966	88.12
218.183	104.91
218.4	111.3
218.618	103.53
218.835	89.29
219.052	107.99
219.269	107.03
219.487	105.02
219.704	115.48
219.921	114.41
220.138	119.93
220.355	119.5
220.572	99.44
220.79	101.4
221.007	101.99
221.224	98.35
221.441	84.72
221.658	77.2
221.875	78.66
222.092	72.32
222.309	78.86
222.526	77.87
222.743	74.41
222.96	70.89
223.177	64.69
223.394	61.31
223.611	59.39
223.828	60.86
224.045	69.54
224.262	61.43
224.479	60.2
224.696	51.92
224.913	50.13
225.13	46.33
225.347	42.94
225.564	40.72
225.781	36.38
225.997	35.77
226.214	29.72
226.431	24.81
226.648	23.84
226.865	23.01
227.082	21.86
227.298	17.16
227.515	14.6
227.732	12.75
227.949	11.39
228.165	10.61
228.382	9.01
228.599	8.57
228.816	7.81
229.032	7.94
229.249	6.8
229.466	6.37
229.682	7.58
229.899	8.06
230.116	8.08
230.332	8.26
230.549	8.96
230.765	9.65
230.982	9.76
231.199	10.74
231.415	11.41
231.632	12.5
231.848	13.47
232.065	13.59
232.281	14.76
232.498	14.69
232.714	14.17
232.931	14.06
233.147	14.6
233.364	15.25
233.58	14.45
233.797	12.7
234.013	13.12
234.23	10.78
234.446	10.17
234.662	8.85
234.879	8.8
235.095	9.66
235.312	10.22
235.528	8.63
235.744	8.27
235.961	9.11
236.177	9.47
236.393	9.28
236.61	10.35
236.826	11.81
237.042	13.67
237.258	13.46
237.475	15.78
237.691	15.45
237.907	16.12
238.123	16.26
238.339	15.32
238.556	16.73
238.772	15.44
238.988	16.13
239.204	14.25
239.42	12.91
239.636	13.32
239.853	9.86
240.069	8.81
240.285	8.88
240.501	8.38
240.717	8.23
240.933	8.22
241.149	7.82
241.365	6.34
241.581	5.46
241.797	4.74
242.013	4.89
242.229	4.89
242.445	4.76
242.661	4.75
242.877	5.05
243.093	4.57
243.309	3.38
243.525	3.72
243.741	5.37
243.957	6.52
244.173	7.91
244.388	8.32
244.604	8.46
244.82	8.79
245.036	8.44
245.252	7.85
245.468	7.78
245.683	7.9
245.899	7.41
246.115	6.43
246.331	5.92
246.547	5.35
246.762	4.63
246.978	4.94
247.194	4.65
247.409	4.63
247.625	4.36
247.841	4.61
248.057	4.69
248.272	4.49
248.488	4.34
248.703	4.37
248.919	4.66
249.135	4.82
249.35	4.98
249.566	5.7
249.782	5.4
249.997	5.87
250.213	6.24
250.428	6.52
250.644	7.93
250.859	8.27
251.075	7.92
251.29	7.58
251.506	8.16
251.721	7.24
251.937	6.78
252.152	7.3
252.368	7.28
252.583	7.03
252.798	6.95
253.014	6.36
253.229	6.72
253.445	7.15
253.66	8.03
253.875	7.64
254.091	7.76
254.306	8.68
254.521	9.48
254.737	9.92
254.952	9.37
255.167	9.5
255.383	9.35
255.598	8.49
255.813	7.67
256.028	7.1
256.244	6.6
256.459	6.67
256.674	5.4
256.889	4.87
257.104	5.33
257.32	5.24
257.535	4.71
257.75	4.32
257.965	4.25
258.18	4.66
258.395	4.49
258.61	4.53
258.826	4.66
259.041	4.24
259.256	4.13
259.471	3.95
259.686	4.02
259.901	3.88
260.116	4.07
260.331	3.93
260.546	3.74
260.761	3.65
260.976	3.6
261.191	3.52
261.406	4.36
261.621	4.56
261.836	4.5
262.05	4.62
262.265	5.38
262.48	5.19
262.695	5.68
262.91	6.55
263.125	6.54
263.34	7.37
263.555	7.41
263.769	7.32
263.984	6.82
264.199	6.56
264.414	7.14
264.629	6.76
264.843	7.06
265.058	6.95
265.273	6.42
265.488	6.21
265.702	5.71
265.917	5.77
266.132	5.66
266.346	5.98
266.561	5.77
266.776	5.33
266.99	5.47
267.205	5.26
267.42	5.1
267.634	5.43
267.849	5.46
268.063	5.25
268.278	5.03
268.492	4.72
268.707	4.67
268.922	5.38
269.136	5.49
269.351	5.23
269.565	4.88
269.78	5.3
269.994	4.96
270.209	4.86
270.423	5.27
270.637	5.43
270.852	5.26
271.066	4.95
271.281	4.45
271.495	4.18
271.709	4.05
271.924	3.91
272.138	3.68
272.353	3.31
272.567	3.46
272.781	3.36
272.996	3.04
273.21	3.37
273.424	3.25
273.638	3.29
273.853	3.12
274.067	3.38
274.281	4.04
274.495	4.06
274.71	4.14
274.924	3.5
275.138	3.66
275.352	4.22
275.566	3.62
275.781	3.8
275.995	3.83
276.209	4.43
276.423	4.46
276.637	4.24
276.851	4.15
277.065	4.1
277.279	4.26
277.493	3.62
277.707	3.74
277.921	3.81
278.135	4.3
278.349	4.16
278.563	4.27
278.777	4.49
278.991	4.79
279.205	4.94
279.419	4.8
279.633	5.6
279.847	5.91
280.061	5.48
280.275	5.24
280.489	4.85
280.703	5.2
280.917	4.92
281.131	4.5
281.344	3.9
281.558	3.5
281.772	3.9
281.986	3.55
282.2	3.47
282.414	3.44
282.627	3.72
282.841	3.83
283.055	3.71
283.269	3.55
283.482	3.32
283.696	3.6
283.91	3.75
284.123	3.55
284.337	3.56
284.551	3.5
284.764	3.55
284.978	3.55
285.192	3.22
285.405	3.13
285.619	3.06
285.833	3.16
286.046	3.16
286.26	3.03
286.473	3.08
286.687	3.17
286.9	3.27
287.114	3.21
287.327	3.16
287.541	3.24
287.754	3.42
287.968	3.67
288.181	3.87
288.395	3.53
288.608	3.77
288.822	3.87
289.035	3.6
289.248	3.4
289.462	3.62
289.675	3.36
289.889	3.44
290.102	3
290.315	2.78
290.529	2.7
290.742	3.01
290.955	2.89
291.169	2.79
291.382	2.89
291.595	2.82
291.808	2.96
292.022	3.25
292.235	3.42
292.448	3.64
292.661	3.67
292.875	3.91
293.088	3.94
293.301	3.73
293.514	3.86
293.727	3.64
293.94	3.72
294.153	3.5
294.367	3.32
294.58	3.2
294.793	3.14
295.006	3.09
295.219	2.55
295.432	2.38
295.645	2.67
295.858	2.55
296.071	2.56
296.284	2.54
296.497	2.81
296.71	2.97
296.923	3.12
297.136	3.39
297.349	3.62
297.562	3.79
297.775	3.71
297.988	3.69
298.201	3.77
298.414	4.06
298.626	4.3
298.839	4.09
299.052	3.93
299.265	3.9
299.478	3.92
299.691	3.81
299.903	3.97
300.116	4.15
300.329	4.37
300.542	4.1
300.755	3.9
300.967	3.56
301.18	3.62
301.393	4.04
301.605	3.86
301.818	3.34
302.031	3.29
302.243	3.17
302.456	3.33
302.669	3.02
302.881	3.23
303.094	3.16
303.307	3.44
303.519	3.19
303.732	3
303.944	3.34
304.157	3.84
304.37	3.87
304.582	4.09
304.795	4.08
305.007	4.4
305.22	4.64
305.432	4.57
305.645	4.76
305.857	5.07
306.069	5.24
306.282	5.02
306.494	5.04
306.707	5.26
306.919	5.06
307.132	4.86
307.344	4.86
307.556	4.59
307.769	5.17
307.981	4.89
308.193	4.4
308.406	4.19
308.618	4.32
308.83	3.95
309.043	3.56
309.255	3.66
309.467	3.39
309.679	3.16
309.892	3.15
310.104	2.8
310.316	3.06
310.528	3.09
310.74	3.21
310.953	3.23
311.165	3.49
311.377	3.69
311.589	3.67
311.801	4.02
312.013	4.21
312.225	4.71
312.437	5.07
312.649	4.86
312.862	5.2
313.074	5.25
313.286	5.22
313.498	5.13
313.71	5.35
313.922	5.28
314.134	5.01
314.346	5.05
314.558	4.85
314.77	4.77
314.982	4.79
315.193	4.56
315.405	4.24
315.617	4.04
315.829	4
316.041	3.87
316.253	3.69
316.465	4.22
316.677	4.22
316.888	4.2
317.1	4.24
317.312	4.52
317.524	4.59
317.736	4.77
317.947	5.17
318.159	5.6
318.371	5.51
318.583	5.88
318.794	6.05
319.006	6.4
319.218	6.27
319.43	6.04
319.641	5.84
319.853	6.31
320.064	6.88
320.276	7.57
320.488	7.16
320.699	7.18
320.911	7.37
321.123	7.46
321.334	7.38
321.546	7.56
321.757	8.18
321.969	8.51
322.18	8.4
322.392	8.12
322.603	7.65
322.815	8.16
323.026	8.14
323.238	8.06
323.449	8.16
323.661	8.44
323.872	8.46
324.083	8.32
324.295	8.48
324.506	8.68
324.718	8.67
324.929	8.47
325.14	8.58
325.352	8.96
325.563	9.26
325.774	9.61
325.986	9.47
326.197	9.88
326.408	9.94
326.62	10.16
326.831	10.43
327.042	11.25
327.253	11.6
327.464	11.63
327.676	12.07
327.887	12.36
328.098	12.6
328.309	13.08
328.52	13.5
328.732	14.04
328.943	14.69
329.154	14.81
329.365	14.81
329.576	15.67
329.787	16.55
329.998	16.96
330.209	17.24
330.42	17.43
330.631	17.77
330.842	17.8
331.053	18.18
331.264	18.15
331.475	18.38
331.686	18.59
331.897	18.79
332.108	18.43
332.319	18.34
332.53	18.49
332.741	18.61
332.952	18.75
333.163	18.91
333.374	19
333.585	19.23
333.795	19.75
334.006	19.97
334.217	20.1
334.428	20.82
334.639	21.29
334.849	21.6
335.06	21.9
335.271	22.05
335.482	22.39
335.692	22.68
335.903	22.78
336.114	22.85
336.325	23.14
336.535	23.13
336.746	23.1
336.957	22.94
337.167	23.17
337.378	23.34
337.589	23.54
337.799	23.44
338.01	23.5
338.22	23.62
338.431	23.45
338.642	23.49
338.852	23.73
339.063	23.89
339.273	23.98
339.484	23.94
339.694	23.99
339.905	23.97
340.115	24.27
340.326	24.05
340.536	24.05
340.746	24.48
340.957	24.55
341.167	24.51
341.378	24.44
341.588	24.54
341.799	24.78
342.009	24.5
342.219	24.65
342.43	24.35
342.64	24.58
342.85	24.73
343.061	24.61
343.271	24.35
343.481	24.46
343.691	24.47
343.902	24.35
344.112	24.11
344.322	24.24
344.532	24.07
344.743	24.15
344.953	24.01
345.163	23.9
345.373	23.88
345.583	24.07
345.793	23.86
346.004	23.73
346.214	23.95
346.424	23.99
346.634	23.85
346.844	24.03
347.054	23.99
347.264	24.01
347.474	23.96
347.684	23.89
347.894	23.63
348.104	23.78
348.314	23.99
348.524	23.72
348.734	23.6
348.944	23.73
349.154	23.43
349.364	23.5
349.574	23.43
349.784	23.39
349.994	23.48
350.204	23.54
350.413	23.24
350.623	23.04
350.833	23.32
351.043	23.64
351.253	23.5
351.463	23.49
351.672	23.46
351.882	23.25
352.092	23.06
352.302	22.96
352.511	23
352.721	23.09
352.931	22.89
353.141	22.81
353.35	22.62
353.56	22.65
353.77	22.63
353.979	22.47
354.189	22.77
354.399	23.08
354.608	23.05
354.818	22.98
355.027	23.06
355.237	23.32
355.447	23.34
355.656	22.95
355.866	22.99
356.075	22.9
356.285	23
356.494	22.86
356.704	22.65
356.913	22.52
357.123	22.62
357.332	22.39
357.542	22.16
357.751	22.08
357.96	22.45
358.17	22.55
358.379	22.64
358.589	22.61
358.798	22.5
359.007	22.45
359.217	22.48
359.426	22.19
359.635	22.26
359.845	22.23
360.054	22.22
360.263	21.94
360.472	21.68
360.682	21.48
360.891	21.47
361.1	21.59
361.309	21.76
361.519	21.57
361.728	21.68
361.937	21.62
362.146	21.52
362.355	21.41
362.564	21.49
362.774	21.64
362.983	21.66
363.192	21.56
363.401	21.37
363.61	21.15
363.819	21.28
364.028	21.21
364.237	21.15
364.446	21.27
364.655	21.23
364.864	21.28
365.073	21.12
365.282	21.28
365.491	21.5
365.7	21.65
365.909	21.83
366.118	21.85
366.327	21.93
366.536	22.03
366.745	21.97
366.954	21.97
367.162	22.01
367.371	21.97
367.58	22.17
367.789	21.99
367.998	22.06
368.207	21.98
368.415	22.03
368.624	22
368.833	21.9
369.042	21.92
369.25	22.14
369.459	21.94
369.668	21.95
369.877	21.56
370.085	21.46
370.294	21.37
370.503	21.39
370.711	21.38
370.92	21.21
371.129	21.42
371.337	21.46
371.546	21.33
371.754	21.33
371.963	21.46
372.171	21.45
372.38	21.54
372.589	21.57
372.797	21.41
373.006	21.31
373.214	21.43
373.423	21.44
373.631	21.42
373.84	21.34
374.048	21.46
374.256	21.47
374.465	21.52
374.673	21.61
374.882	21.59
375.09	21.83
375.298	21.86
375.507	21.89
375.715	21.59
375.923	21.61
376.132	21.52
376.34	21.41
376.548	21.38
376.757	21.36
376.965	21.37
377.173	21.11
377.381	21
377.59	21
377.798	21.26
378.006	21.28
378.214	21.35
378.423	21.47
378.631	21.31
378.839	21.32
379.047	21.28
379.255	21.2
379.463	21.26
379.671	21.15
379.879	21.15
380.088	20.78
380.296	20.92
380.504	20.82
380.712	21.06
380.92	21.12
381.128	21.01
381.336	20.98
381.544	21.04
381.752	21.21
381.96	21.45
382.168	21.5
382.376	21.45
382.584	21.55
382.791	21.57
382.999	21.31
383.207	21.59
383.415	21.56
383.623	21.77
383.831	21.51
384.039	21.65
384.247	21.44
384.454	21.35
384.662	21.44
384.87	21.23
385.078	21.13
385.285	21.11
385.493	20.97
385.701	20.89
385.909	20.75
386.116	20.95
386.324	20.78
386.532	20.63
386.739	20.71
386.947	20.71
387.155	20.51
387.362	20.57
387.57	20.47
387.778	20.38
387.985	20.58
388.193	20.63
388.4	20.61
388.608	20.56
388.816	20.63
389.023	20.54
389.231	20.66
389.438	20.72
389.646	20.54
389.853	20.52
390.061	20.49
390.268	20.46
390.475	20.4
390.683	20.29
390.89	20.34
391.098	20.4
391.305	20.41
391.512	20.35
391.72	20.58
391.927	20.68
392.135	20.66
392.342	20.65
392.549	20.49
392.756	20.41
392.964	20.41
393.171	20.35
393.378	20.33
393.586	20.4
393.793	20.37
394	20.38
394.207	20.51
394.414	20.65
394.622	20.59
394.829	20.78
395.036	20.86
395.243	20.95
395.45	20.95
395.657	20.96
395.864	20.95
396.072	20.92
396.279	20.76
396.486	20.61
396.693	20.46
396.9	20.63
397.107	20.55
397.314	20.65
397.521	20.45
397.728	20.65
397.935	20.53
398.142	20.55
398.349	20.72
398.556	20.56
398.763	20.75
398.97	20.86
399.177	20.92
399.383	20.99
399.59	20.97
399.797	21.17
400.004	21.1
400.211	21.13
400.418	21.16
400.625	20.91
400.831	21.21
401.038	21.05
401.245	21.18
401.452	21.08
401.658	21
401.865	21.11
402.072	21.09
402.279	21.12
402.485	21.14
402.692	21.27
402.899	21.54
403.105	21.54
403.312	21.54
403.519	21.48
403.725	21.45
403.932	21.47
404.138	21.34
404.345	21.2
404.552	21.2
404.758	21.28
404.965	21.02
405.171	20.79
405.378	20.65
405.584	20.72
405.791	20.48
405.997	20.54
406.204	20.55
406.41	20.51
406.617	20.68
406.823	20.56
407.029	20.63
407.236	20.75
407.442	20.85
407.649	21.15
407.855	21.17
408.061	21.5
408.268	21.52
408.474	21.32
408.68	21.46
408.887	21.6
409.093	21.64
409.299	21.59
409.505	21.56
409.712	21.52
409.918	21.41
410.124	21.44
410.33	21.42
410.537	21.17
410.743	21.46
410.949	21.29
411.155	21.19
411.361	21.15
411.567	21.09
411.773	21.14
411.98	21.18
412.186	21.15
412.392	21.21
412.598	20.92
412.804	21.27
413.01	21.2
413.216	21.4
413.422	21.32
413.628	21.45
413.834	21.52
414.04	21.42
414.246	21.43
414.452	21.34
414.658	21.18
414.864	21.3
415.07	21.22
415.275	21.32
415.481	21.44
415.687	21.4
415.893	21.41
416.099	21.45
416.305	21.39
416.511	21.43
416.716	21.39
416.922	21.42
417.128	21.41
417.334	21.38
417.539	21.25
417.745	21.11
417.951	21.12
418.157	21.02
418.362	21
418.568	21.11
418.774	21.13
418.979	21.15
419.185	21.16
419.391	21.08
419.596	20.98
419.802	20.92
420.008	20.88
420.213	21.44
420.419	21.48
420.624	21.44
420.83	21.37
421.035	21.35
421.241	21.29
421.446	21.26
421.652	21.36
421.857	21.43
422.063	21.56
422.268	21.61
422.474	21.08
422.679	21.01
422.885	20.99
423.09	20.99
423.295	20.93
423.501	20.97
423.706	21.09
423.911	21.06
424.117	21.03
424.322	20.98
424.527	21.01
424.733	21.02
424.938	21.12
425.143	21.12
425.349	21.16
425.554	21.19
425.759	21.25
425.964	21.17
426.169	21.28
426.375	21.34
426.58	21.4
426.785	21.45
426.99	21.58
427.195	21.57
427.4	21.66
427.605	21.58
427.811	21.52
428.016	21.59
428.221	21.6
428.426	21.65
428.631	21.59
428.836	21.6
429.041	21.58
429.246	21.55
429.451	21.51
429.656	21.44
429.861	21.57
430.066	21.74
430.271	21.73
430.476	21.72
430.681	21.54
430.886	21.59
431.09	21.63
431.295	21.59
431.5	21.54
431.705	21.6
431.91	21.68
432.115	21.74
432.32	21.7
432.524	21.61
432.729	21.6
432.934	21.67
433.139	21.7
433.343	21.57
433.548	21.67
433.753	21.73
433.958	21.77
434.162	21.78
434.367	21.83
434.572	21.75
434.776	21.91
434.981	22
435.186	22.09
435.39	22.24
435.595	22.36
435.799	22.24
436.004	22.17
436.209	22.16
436.413	22.14
436.618	22.06
436.822	22.16
437.027	22.22
437.231	22.16
437.436	22.16
437.64	22.03
437.845	22.05
438.049	22.06
438.253	22.14
438.458	22.23
438.662	22.21
438.867	22.17
439.071	22.13
439.275	22
439.48	22.02
439.684	21.96
439.888	21.91
440.093	21.88
440.297	21.86
440.501	21.87
440.706	21.75
440.91	21.77
441.114	21.84
441.318	21.84
441.523	21.83
441.727	21.79
441.931	21.85
442.135	21.97
442.339	22
442.543	22.05
442.748	22.04
442.952	22.18
443.156	22.25
443.36	22.3
443.564	22.36
443.768	22.42
443.972	22.49
444.176	22.5
444.38	22.4
444.584	22.37
444.788	22.29
444.992	22.3
445.196	22.27
445.4	22.21
445.604	22.09
445.808	22.08
446.012	22.09
446.216	22.04
446.42	22.03
446.624	22.08
446.828	22.09
447.032	22.17
447.235	22.2
447.439	22.11
447.643	22.15
447.847	22.19
448.051	22.28
448.254	22.35
448.458	22.46
448.662	22.48
448.866	22.47
449.069	22.54
449.273	22.55
449.477	22.5
449.681	22.68
449.884	22.72
450.088	22.72
450.292	22.7
450.495	22.58
450.699	22.54
450.902	22.6
451.106	22.64
451.31	22.63
451.513	22.69
451.717	22.77
451.92	22.72
452.124	22.61
452.327	22.65
452.531	22.67
452.734	22.7
452.938	22.69
453.141	22.62
453.345	22.61
453.548	22.61
453.752	22.54
453.955	22.49
454.158	22.47
454.362	22.48
454.565	22.5
454.769	22.46
454.972	22.58
455.175	22.58
455.379	22.65
455.582	22.74
455.785	22.82
455.988	22.87
456.192	22.9
456.395	22.83
456.598	22.9
456.801	22.9
457.005	22.89
457.208	22.88
457.411	22.84
457.614	22.78
457.817	22.68
458.021	22.55
458.224	22.52
458.427	22.45
458.63	22.49
458.833	22.48
459.036	22.46
459.239	22.5
459.442	22.37
459.645	22.4
459.848	22.34
460.051	22.28
460.254	22.24
460.457	22.2
460.66	22.23
460.863	22.26
461.066	22.24
461.269	22.2
461.472	22.21
461.675	22.29
461.878	22.24
462.081	22.34
462.284	22.47
462.486	22.48
462.689	22.62
462.892	22.62
463.095	22.58
463.298	22.63
463.5	22.73
463.703	22.72
463.906	22.69
464.109	22.78
464.311	22.72
464.514	22.59
464.717	22.7
464.92	22.52
465.122	22.64
465.325	22.74
465.528	22.77
465.73	22.69
465.933	22.59
466.135	22.65
466.338	22.53
466.541	22.62
466.743	22.67
466.946	22.71
467.148	22.82
467.351	22.77
467.553	22.61
467.756	22.62
467.958	22.62
468.161	22.67
468.363	22.77
468.566	22.74
468.768	22.65
468.971	22.8
469.173	22.82
469.375	22.8
469.578	22.8
469.78	22.86
469.983	22.8
470.185	22.91
470.387	22.96
470.59	22.86
470.792	23.03
470.994	23.08
471.196	23
471.399	22.9
471.601	22.97
471.803	22.98
472.005	22.98
472.208	23.06
472.41	23.02
472.612	22.91
472.814	22.9
473.016	22.89
473.218	22.81
473.421	22.85
473.623	22.91
473.825	22.76
474.027	22.71
474.229	22.68
474.431	22.66
474.633	22.66
474.835	22.71
475.037	22.78
475.239	22.81
475.441	22.84
475.643	22.75
475.845	22.79
476.047	22.9
476.249	22.92
476.451	22.96
476.653	22.93
476.855	22.93
477.057	22.95
477.258	22.9
477.46	22.82
477.662	22.88
477.864	22.94
478.066	22.88
478.268	22.89
478.469	22.85
478.671	22.88
478.873	22.86
479.075	22.88
479.276	22.81
479.478	22.78
479.68	22.84
479.882	22.74
480.083	22.69
480.285	22.69
480.487	22.7
480.688	22.74
480.89	22.75
481.091	22.76
481.293	22.73
481.495	22.76
481.696	22.77
481.898	22.7
482.099	22.68
482.301	22.66
482.502	22.59
482.704	22.51
482.905	22.44
483.107	22.37
483.308	22.37
483.51	22.36
483.711	22.31
483.913	22.28
484.114	22.23
484.315	22.2
484.517	22.19
484.718	22.2
484.92	22.22
485.121	22.2
485.322	22.25
485.524	22.26
485.725	22.28
485.926	22.29
486.127	22.34
486.329	22.39
486.53	22.44
486.731	22.43
486.932	22.43
487.134	22.4
487.335	22.42
487.536	22.4
487.737	22.39
487.938	22.37
488.139	22.42
488.341	22.4
488.542	22.45
488.743	22.5
488.944	22.51
489.145	22.58
489.346	22.65
489.547	22.7
489.748	22.72
489.949	22.71
490.15	22.7
490.351	22.68
490.552	22.68
490.753	22.68
490.954	22.65
491.155	22.7
491.356	22.69
491.557	22.64
491.758	22.66
491.959	22.65
492.159	22.68
492.36	22.71
492.561	22.79
492.762	22.82
492.963	22.89
493.164	22.89
493.364	22.85
493.565	22.88
493.766	22.99
493.967	23.02
494.167	23.06
494.368	23.12
494.569	23.14
494.769	23.11
494.97	23.16
495.171	23.09
495.371	23.2
495.572	23.29
495.773	23.24
495.973	23.3
496.174	23.31
496.375	23.32
496.575	23.32
496.776	23.37
496.976	23.41
497.177	23.41
497.377	23.49
497.578	23.49
497.778	23.56
497.979	23.55
498.179	23.54
498.38	23.54
498.58	23.62
498.78	23.63
498.981	23.6
499.181	23.55
499.382	23.59
499.582	23.6
499.782	23.6
499.983	23.48
500.183	23.57
500.383	23.55
500.584	23.61
500.784	23.59
500.984	23.63
501.184	23.69
501.385	23.66
501.585	23.64
501.785	23.64
501.985	23.64
502.185	23.75
502.386	23.85
502.586	23.85
502.786	23.89
502.986	23.93
503.186	24.05
503.386	24.08
503.586	24.13
503.786	24.11
503.987	24.04
504.187	24.18
504.387	24.18
504.587	24.11
504.787	24.18
504.987	24.24
505.187	24.17
505.387	24.1
505.587	24.08
505.786	24.14
505.986	24.21
506.186	24.34
506.386	24.2
506.586	24.26
506.786	24.31
506.986	24.31
507.186	24.25
507.386	24.3
507.585	24.29
507.785	24.25
507.985	24.29
508.185	24.3
508.384	24.22
508.584	24.2
508.784	24.2
508.984	24.19
509.183	24.09
509.383	24.06
509.583	24.04
509.782	24.1
509.982	24.14
510.182	24.09
510.381	24.06
510.581	24.1
510.781	24.08
510.98	24.01
511.18	24.07
511.379	24.1
511.579	24.11
511.778	24.16
511.978	24.13
512.177	24.16
512.377	24.21
512.576	24.23
512.776	24.17
512.975	24.3
513.175	24.33
513.374	24.32
513.573	24.43
513.773	24.48
513.972	24.49
514.172	24.45
514.371	24.52
514.57	24.54
514.77	24.56
514.969	24.62
515.168	24.59
515.367	24.65
515.567	24.62
515.766	24.63
515.965	24.66
516.164	24.58
516.364	24.59
516.563	24.54
516.762	24.5
516.961	24.46
517.16	24.49
517.359	24.47
517.559	24.44
517.758	24.46
517.957	24.44
518.156	24.41
518.355	24.5
518.554	24.53
518.753	24.54
518.952	24.56
519.151	24.66
519.35	24.69
519.549	24.78
519.748	24.81
519.947	24.82
520.146	24.85
520.345	24.79
520.544	24.84
520.743	24.92
520.942	24.94
521.141	24.98
521.339	24.98
521.538	24.97
521.737	24.94
521.936	25.03
522.135	25
522.333	25.07
522.532	25.2
522.731	25.19
522.93	25.17
523.129	25.2
523.327	25.24
523.526	25.21
523.725	25.2
523.923	25.08
524.122	25.07
524.321	25.1
524.519	25.05
524.718	25.04
524.917	25.04
525.115	25.03
525.314	25.03
525.512	25.08
525.711	25.12
525.909	25.14
526.108	25.2
526.306	25.12
526.505	25.18
526.703	25.2
526.902	25.18
527.1	25.18
527.299	25.18
527.497	25.12
527.696	25.06
527.894	24.99
528.092	24.99
528.291	24.97
528.489	25
528.688	24.94
528.886	24.92
529.084	24.92
529.283	24.9
529.481	24.89
529.679	24.9
529.877	24.88
530.076	24.88
530.274	24.9
530.472	24.98
530.67	25.06
530.869	25.15
531.067	25.2
531.265	25.24
531.463	25.26
531.661	25.31
531.859	25.37
532.057	25.43
532.255	25.46
532.454	25.46
532.652	25.44
532.85	25.47
533.048	25.47
533.246	25.53
533.444	25.53
533.642	25.57
533.84	25.59
534.038	25.63
534.236	25.64
534.434	25.78
534.632	25.82
534.83	25.87
535.027	25.87
535.225	25.87
535.423	25.83
535.621	25.9
535.819	25.92
536.017	26.01
536.215	26.01
536.412	26.1
536.61	26.09
536.808	26.13
537.006	26.11
537.203	26.17
537.401	26.29
537.599	26.4
537.797	26.53
537.994	26.59
538.192	26.63
538.39	26.69
538.587	26.75
538.785	26.81
538.983	26.9
539.18	27.05
539.378	27.04
539.575	27.13
539.773	27.17
539.97	27.1
540.168	27.16
540.366	27.12
540.563	27.13
540.761	27.14
540.958	27.15
541.155	27.15
541.353	27.13
541.55	27.14
541.748	27.1
541.945	27.09
542.143	27.13
542.34	27.16
542.537	27.25
542.735	27.32
542.932	27.41
543.129	27.51
543.327	27.59
543.524	27.8
543.721	27.95
543.919	28.12
544.116	28.36
544.313	28.64
544.51	28.88
544.708	29.12
544.905	29.33
545.102	29.48
545.299	29.64
545.496	29.86
545.693	29.92
545.891	29.99
546.088	30.02
546.285	29.95
546.482	29.86
546.679	29.77
546.876	29.65
547.073	29.58
547.27	29.45
547.467	29.37
547.664	29.29
547.861	29.21
548.058	29.16
548.255	29.07
548.452	29.16
548.649	29.13
548.846	29.09
549.043	29.04
549.24	29.14
549.437	29.26
549.633	29.24
549.83	29.13
550.027	29.02
550.224	29.03
550.421	29.07
550.618	28.9
550.814	28.81
551.011	28.81
551.208	28.74
551.405	28.68
551.601	28.61
551.798	28.55
551.995	28.6
552.191	28.52
552.388	28.39
552.585	28.27
552.781	28.33
552.978	28.34
553.175	28.35
553.371	28.41
553.568	28.37
553.764	28.35
553.961	28.39
554.157	28.29
554.354	28.3
554.55	28.32
554.747	28.43
554.943	28.36
555.14	28.41
555.336	28.45
555.533	28.41
555.729	28.28
555.926	28.36
556.122	28.37
556.318	28.43
556.515	28.57
556.711	28.54
556.907	28.6
557.104	28.61
557.3	28.61
557.496	28.51
557.693	28.61
557.889	28.72
558.085	28.75
558.281	28.77
558.478	28.79
558.674	28.76
558.87	28.86
559.066	28.78
559.262	28.75
559.459	28.68
559.655	28.77
559.851	28.72
560.047	28.65
560.243	28.59
560.439	28.54
560.635	28.45
560.831	28.47
561.027	28.43
561.223	28.48
561.419	28.5
561.615	28.6
561.811	28.68
562.007	28.76
562.203	28.91
562.399	28.88
562.595	29.03
562.791	29.16
562.987	29.2
563.183	29.2
563.379	29.29
563.575	29.34
563.771	29.32
563.966	29.2
564.162	29.2
564.358	29.11
564.554	29.09
564.75	29.02
564.945	28.8
565.141	28.75
565.337	28.78
565.533	28.74
565.728	28.64
565.924	28.58
566.12	28.58
566.315	28.57
566.511	28.62
566.707	28.63
566.902	28.52
567.098	28.63
567.293	28.63
567.489	28.68
567.684	28.71
567.88	28.81
568.076	28.86
568.271	28.9
568.467	28.89
568.662	28.88
568.858	28.96
569.053	29.05
569.248	28.98
569.444	29.05
569.639	29.07
569.835	29
570.03	28.98
570.225	28.97
570.421	28.96
570.616	29.03
570.812	29.02
571.007	29.04
571.202	29.14
571.397	29.18
571.593	29.14
571.788	28.96
571.983	29.03
572.178	29.05
572.374	29.03
572.569	29.04
572.764	28.9
572.959	28.94
573.154	28.91
573.35	28.84
573.545	28.85
573.74	28.85
573.935	29
574.13	28.88
574.325	28.91
574.52	28.99
574.715	29.07
574.91	29.12
575.105	29.19
575.3	29.17
575.495	29.19
575.69	29.32
575.885	29.3
576.08	29.33
576.275	29.52
576.47	29.66
576.665	29.64
576.86	29.83
577.055	29.99
577.25	30.03
577.444	30.15
577.639	30.29
577.834	30.47
578.029	30.66
578.224	30.84
578.418	31.04
578.613	31.08
578.808	31.18
579.003	31.03
579.197	31.14
579.392	31.22
579.587	31.37
579.781	31.35
579.976	31.18
580.171	31.31
580.365	31.15
580.56	31.04
580.755	31.04
580.949	31.06
581.144	31.21
581.338	31.21
581.533	31.15
581.727	31.01
581.922	31.09
582.116	31.26
582.311	31.24
582.505	31.39
582.7	31.3
582.894	31.37
583.089	31.39
583.283	31.42
583.478	31.5
583.672	31.61
583.866	31.77
584.061	31.84
584.255	31.73
584.449	31.76
584.644	31.81
584.838	31.91
585.032	31.9
585.226	32.03
585.421	31.98
585.615	31.96
585.809	32
586.003	32.12
586.198	32.1
586.392	32.14
586.586	32.24
586.78	32.21
586.974	32.26
587.168	32.37
587.363	32.36
587.557	32.32
587.751	32.29
587.945	32.13
588.139	32.11
588.333	32.02
588.527	32.09
588.721	32.04
588.915	31.98
589.109	31.92
589.303	31.91
589.497	31.77
589.691	31.79
589.885	31.89
590.079	32
590.273	32
590.466	32.11
590.66	32.06
590.854	32.03
591.048	32.18
591.242	32.31
591.436	32.25
591.629	32.48
591.823	32.58
592.017	32.57
592.211	32.67
592.404	32.59
592.598	32.61
592.792	32.72
592.986	32.66
593.179	32.67
593.373	32.54
593.567	32.51
593.76	32.41
593.954	32.39
594.147	32.16
594.341	31.94
594.535	31.95
594.728	31.96
594.922	31.82
595.115	31.74
595.309	31.62
595.502	31.6
595.696	31.59
595.889	31.55
596.083	31.47
596.276	31.59
596.47	31.56
596.663	31.51
596.856	31.42
597.05	31.59
597.243	31.81
597.437	31.79
597.63	31.78
597.823	31.73
598.017	31.82
598.21	31.97
598.403	31.98
598.596	32.17
598.79	32.31
598.983	32.41
599.176	32.36
599.369	32.34
599.563	32.51
599.756	32.72
599.949	32.94
600.142	33
600.335	32.88
600.528	32.94
600.722	33.04
600.915	32.85
601.108	32.8
601.301	32.73
601.494	32.62
601.687	32.53
601.88	32.48
602.073	32.49
602.266	32.49
602.459	32.54
602.652	32.48
602.845	32.31
603.038	32.32
603.231	32.29
603.424	32.18
603.617	32.17
603.809	32.06
604.002	31.93
604.195	31.89
604.388	31.77
604.581	31.82
604.774	31.76
604.966	31.82
605.159	31.93
605.352	32.06
605.545	32.21
605.737	32.18
605.93	32.33
606.123	32.5
606.316	32.66
606.508	32.84
606.701	32.86
606.894	33.08
607.086	33.29
607.279	33.38
607.471	33.44
607.664	33.64
607.857	34.08
608.049	34.42
608.242	34.8
608.434	35.25
608.627	35.89
608.819	36.59
609.012	37.38
609.204	38.26
609.397	39.18
609.589	40.41
609.782	41.52
609.974	42.63
610.166	43.92
610.359	45.01
610.551	45.98
610.743	46.9
610.936	47.76
611.128	48.48
611.32	48.95
611.513	49.31
611.705	49.27
611.897	49.25
612.09	49.02
612.282	48.58
612.474	48.11
612.666	47.65
612.858	47.08
613.051	46.63
613.243	45.98
613.435	45.45
613.627	45.01
613.819	44.64
614.011	44.26
614.203	43.71
614.395	43.41
614.588	43.08
614.78	42.68
614.972	42.33
615.164	41.69
615.356	41.27
615.548	40.76
615.74	40.48
615.932	40.04
616.124	39.49
616.315	39.17
616.507	38.72
616.699	38.38
616.891	37.94
617.083	37.55
617.275	37.3
617.467	37.11
617.659	36.96
617.85	36.62
618.042	36.46
618.234	36.5
618.426	36.39
618.618	36.45
618.809	36.61
619.001	36.68
619.193	36.7
619.384	36.77
619.576	36.86
619.768	36.95
619.959	37.04
620.151	37.03
620.343	37.11
620.534	37.03
620.726	36.96
620.917	36.82
621.109	36.82
621.301	36.9
621.492	36.78
621.684	36.85
621.875	36.75
622.067	36.71
622.258	36.81
622.45	36.71
622.641	36.8
622.832	36.86
623.024	36.85
623.215	36.98
623.407	36.96
623.598	37.12
623.789	37.03
623.981	37.04
624.172	37.02
624.363	37
624.555	36.95
624.746	36.88
624.937	36.71
625.129	36.62
625.32	36.36
625.511	36.38
625.702	36.23
625.893	36.07
626.085	35.96
626.276	35.96
626.467	35.69
626.658	35.67
626.849	35.7
627.04	35.83
627.231	35.79
627.422	35.93
627.614	35.97
627.805	36.18
627.996	36.28
628.187	36.49
628.378	36.58
628.569	37.02
628.76	37.11
628.951	37.59
629.142	37.68
629.332	38.04
629.523	38.11
629.714	38.35
629.905	38.44
630.096	38.8
630.287	39.08
630.478	39.26
630.669	39.27
630.859	39.5
631.05	39.16
631.241	39.09
631.432	39
631.623	38.98
631.813	38.8
632.004	38.71
632.195	38.42
632.385	37.98
632.576	37.74
632.767	37.69
632.957	37.42
633.148	37.36
633.339	37.23
633.529	36.81
633.72	36.8
633.91	36.59
634.101	36.45
634.292	36.42
634.482	36.43
634.673	36.43
634.863	36.28
635.054	36.29
635.244	36.32
635.435	36.31
635.625	36.6
635.815	36.49
636.006	36.44
636.196	36.34
636.387	36.43
636.577	36.65
636.767	36.71
636.958	36.69
637.148	36.87
637.338	36.76
637.529	36.68
637.719	36.55
637.909	36.73
638.099	36.81
638.29	36.93
638.48	36.88
638.67	36.74
638.86	36.88
639.05	37.1
639.241	37.16
639.431	37.4
639.621	37.52
639.811	37.83
640.001	37.96
640.191	38.28
640.381	38.48
640.571	38.55
640.761	38.63
640.951	38.56
641.141	38.4
641.331	38.07
641.521	38.08
641.711	38.35
641.901	38.1
642.091	37.85
642.281	37.72
642.471	37.69
642.661	37.68
642.851	37.64
643.041	37.53
643.231	37.69
643.42	37.82
643.61	37.73
643.8	37.58
643.99	37.74
644.18	37.84
644.369	37.8
644.559	37.83
644.749	37.94
644.939	38.02
645.128	38.2
645.318	37.98
645.508	37.93
645.697	37.95
645.887	37.93
646.076	37.9
646.266	37.88
646.456	38.1
646.645	38.1
646.835	38.1
647.024	38.07
647.214	37.97
647.403	38.09
647.593	38.35
647.782	38.32
647.972	38.42
648.161	38.44
648.351	38.62
648.54	38.46
648.73	38.5
648.919	38.48
649.108	38.58
649.298	38.77
649.487	38.83
649.677	38.93
649.866	39.1
650.055	39.32
650.244	39.5
650.434	39.49
650.623	39.65
650.812	39.74
651.002	39.79
651.191	39.82
651.38	39.68
651.569	39.76
651.758	39.6
651.947	39.35
652.137	39.3
652.326	39.18
652.515	39.19
652.704	39.25
652.893	39.08
653.082	38.96
653.271	39.1
653.46	39.07
653.649	39.04
653.838	39.18
654.027	39.38
654.216	39.35
654.405	39.37
654.594	39.26
654.783	38.82
654.972	38.9
655.161	38.96
655.35	38.8
655.539	38.94
655.728	39
655.916	39.14
656.105	39.31
656.294	39.33
656.483	39.44
656.672	39.74
656.86	39.96
657.049	39.84
657.238	39.81
657.427	39.77
657.615	39.78
657.804	39.78
657.993	39.5
658.181	39.28
658.37	39.27
658.559	39.08
658.747	38.92
658.936	38.84
659.125	38.85
659.313	38.84
659.502	38.84
659.69	38.81
659.879	38.78
660.067	38.96
660.256	39.04
660.444	38.86
660.633	39.15
660.821	39.02
661.01	39.05
661.198	39.07
661.387	39.12
661.575	39.08
661.763	39.24
661.952	39.22
662.14	39.32
662.328	39.6
662.517	39.86
662.705	39.79
662.893	40.05
663.082	40.4
663.27	40.81
663.458	41.13
663.646	41.54
663.834	41.58
664.023	41.82
664.211	41.89
664.399	41.76
664.587	41.75
664.775	41.82
664.963	41.86
665.152	41.96
665.34	41.77
665.528	41.5
665.716	41.39
665.904	41.46
666.092	41.33
666.28	41.06
666.468	41
666.656	41.19
666.844	41.07
667.032	41.24
667.22	40.96
667.408	40.95
667.596	40.88
667.784	40.86
667.971	40.73
668.159	40.76
668.347	40.99
668.535	41.06
668.723	41.01
668.911	41.09
669.098	40.83
669.286	40.83
669.474	40.64
669.662	40.89
669.849	40.98
670.037	41.03
670.225	41.1
670.413	40.82
670.6	40.9
670.788	40.78
670.976	40.67
671.163	40.67
671.351	40.88
671.538	41.09
671.726	41.22
671.913	41.04
672.101	41.28
672.289	41.17
672.476	41.28
672.664	41.38
672.851	41.49
673.039	41.82
673.226	42.11
673.413	41.97
673.601	41.92
673.788	41.72
673.976	41.64
674.163	41.43
674.35	41.65
674.538	41.83
674.725	41.31
674.912	41.47
675.1	41.42
675.287	41.38
675.474	41.29
675.662	41.38
675.849	41.53
676.036	41.76
676.223	41.56
676.411	41.81
676.598	41.73
676.785	42.21
676.972	41.96
677.159	41.92
677.346	41.79
677.533	42.01
677.721	42.05
677.908	41.67
678.095	41.41
678.282	41.31
678.469	40.95
678.656	41.17
678.843	41.08
679.03	40.93
679.217	40.83
679.404	40.82
679.591	40.7
679.778	40.72
679.964	40.79
680.151	41.07
680.338	41.21
680.525	41.14
680.712	41.16
680.899	41.08
681.086	41.19
681.272	41.06
681.459	41.19
681.646	41.28
681.833	41.05
682.02	41.21
682.206	40.93
682.393	41.09
682.58	41.13
682.766	41.03
682.953	41.06
683.14	41.22
683.326	41.51
683.513	41.52
683.7	41.58
683.886	41.69
684.073	41.75
684.259	42.12
684.446	42.16
684.632	42.43
684.819	42.53
685.005	42.78
685.192	43.15
685.378	43.13
685.565	43.12
685.751	42.96
685.938	43.08
686.124	43.22
686.31	43.03
686.497	43
686.683	42.82
686.87	42.71
687.056	42.65
687.242	42.34
687.429	42.22
687.615	42.16
687.801	42.28
687.987	42.26
688.174	41.97
688.36	42.16
688.546	42.06
688.732	42.22
688.918	42.17
689.105	42.34
689.291	42.27
689.477	42.36
689.663	42.55
689.849	42.85
690.035	43.06
690.221	43.21
690.407	43.22
690.593	43.11
690.779	43.04
690.965	43.16
691.151	42.95
691.337	42.98
691.523	43.07
691.709	42.98
691.895	42.95
692.081	42.69
692.267	42.83
692.453	42.87
692.639	42.96
692.825	42.85
693.011	42.82
693.196	42.93
693.382	42.85
693.568	42.84
693.754	42.84
693.94	42.85
694.125	42.91
694.311	42.94
694.497	42.99
694.682	43.04
694.868	43.15
695.054	43.27
695.239	42.96
695.425	43.38
695.611	43.21
695.796	43.36
695.982	42.98
696.168	42.92
696.353	42.72
696.539	42.53
696.724	42.69
696.91	42.64
697.095	42.47
697.281	42.71
697.466	42.45
697.652	42.26
697.837	42.05
698.023	41.87
698.208	41.82
698.393	41.73
698.579	41.63
698.764	41.26
698.949	41.08
699.135	41.08
699.32	40.82
699.505	40.86
699.691	41.2
699.876	41.28
700.061	41.44
700.246	41.39
700.432	41.37
700.617	41.57
700.802	41.81
700.987	42.2
701.172	41.72
701.358	41.97
701.543	41.97
701.728	41.79
701.913	41.96
702.098	42.27
702.283	42.76
702.468	43.08
702.653	42.82
702.838	43.32
703.023	43.48
703.208	44.51
703.393	44.65
703.578	44.61
703.763	45.11
703.948	44.9
704.133	44.99
704.318	44.98
704.503	45.61
704.688	46.24
704.873	46.55
705.057	46.66
705.242	46.76
705.427	47.23
705.612	47.54
705.797	47.33
705.981	47.79
706.166	48.19
706.351	48.72
706.536	48.46
706.72	48.56
706.905	48.93
707.09	49.09
707.274	49.21
707.459	49.06
707.644	49.37
707.828	49.69
708.013	49.83
708.197	49.33
708.382	48.94
708.567	48.88
708.751	48.97
708.936	48.39
709.12	48.15
709.305	47.95
709.489	47.98
709.673	47.77
709.858	47.53
710.042	47.73
710.227	48.14
710.411	48.25
710.596	48.21
710.78	48.04
710.964	48.15
711.149	48.04
711.333	48.14
711.517	47.86
711.702	48.07
711.886	48.34
712.07	48.19
712.254	47.88
712.438	47.62
712.623	47.66
712.807	47.57
712.991	47.36
713.175	47.39
713.359	47.1
713.544	47.14
713.728	46.73
713.912	46.04
714.096	45.45
714.28	45.47
714.464	45.16
714.648	45
714.832	44.75
715.016	44.45
715.2	44.28
715.384	44.07
715.568	43.95
715.752	43.73
715.936	43.92
716.12	43.42
716.304	43.18
716.488	43.22
716.671	43.07
716.855	42.95
717.039	42.95
717.223	42.84
717.407	43.02
717.59	43.06
717.774	43.45
717.958	43.28
718.142	43.58
718.325	43.42
718.509	43.42
718.693	43.06
718.877	43.25
719.06	43.27
719.244	43.13
719.428	43.11
719.611	42.52
719.795	42.5
719.978	42.74
720.162	43.13
720.345	43.37
720.529	44
720.713	44.14
720.896	44.35
721.08	44.52
721.263	44.98
721.446	44.99
721.63	45.61
721.813	45.29
721.997	45.22
722.18	45.26
722.364	45.55
722.547	45.37
722.73	45.81
722.914	45.32
723.097	44.94
723.28	44.66
723.464	44.42
723.647	44.24
723.83	44.48
724.013	44.7
724.197	44.71
724.38	44.23
724.563	44.11
724.746	43.84
724.929	44.28
725.112	44.41
725.296	44.83
725.479	45.03
725.662	45.04
725.845	44.67
726.028	44.27
726.211	44.19
726.394	44.48
726.577	44.15
726.76	44.54
726.943	44.52
727.126	44.35
727.309	43.98
727.492	43.84
727.675	44.04
727.858	44.3
728.041	44.4
728.224	44.66
728.407	44.22
728.589	44.46
728.772	44.72
728.955	44.77
729.138	45.41
729.321	45.61
729.503	46
729.686	45.94
729.869	45.94
730.052	46.15
730.234	45.94
730.417	46.16
730.6	46.22
730.782	45.74
730.965	45.4
731.148	45.14
731.33	44.84
731.513	44.33
731.695	44.21
731.878	44.36
732.061	44.25
732.243	44.6
732.426	44.81
732.608	44.8
732.791	44.78
732.973	44.91
733.156	44.7
733.338	45.19
733.52	45.59
733.703	45.43
733.885	45.31
734.068	45.51
734.25	44.97
734.432	45.03
734.615	45.47
734.797	45.8
734.979	46.34
735.162	46.96
735.344	46.43
735.526	46.31
735.708	46.72
735.891	47.16
736.073	46.54
736.255	46.47
736.437	46.58
736.619	45.7
736.802	45.53
736.984	45.28
737.166	44.93
737.348	45.08
737.53	45.54
737.712	45.93
737.894	45.41
738.076	45.61
738.258	46.07
738.44	45.82
738.622	46.23
738.804	46
738.986	45.94
739.168	46.01
739.35	46.27
739.532	46.06
739.714	45.94
739.896	45.95
740.078	46.74
740.259	46.8
740.441	47.08
740.623	47.39
740.805	47.89
740.987	47.96
741.168	47.8
741.35	48.18
741.532	48.33
741.714	48.17
741.895	48.57
742.077	48.48
742.259	48.41
742.44	48
742.622	48.11
742.804	48.11
742.985	48.1
743.167	48.65
743.348	48.59
743.53	49.15
743.711	49.53
743.893	49.66
744.075	49.49
744.256	49.33
744.438	50.03
744.619	49.7
744.8	49.82
744.982	50.1
745.163	50.15
745.345	50.31
745.526	49.59
745.707	49.36
745.889	49.01
746.07	49.28
746.252	49.72
746.433	49.52
746.614	49.74
746.795	49.41
746.977	49.63
747.158	49.67
747.339	49.53
747.52	50.06
747.702	50.01
747.883	50.37
748.064	50.1
748.245	49.98
748.426	50.47
748.607	50.31
748.788	50.49
748.97	50.24
749.151	49.68
749.332	49.89
749.513	49.83
749.694	49.48
749.875	49.83
750.056	49.53
750.237	49.96
750.418	49.5
750.599	49.69
750.78	49.45
750.96	49.5
751.141	50.55
751.322	49.99
751.503	49.54
751.684	50.39
751.865	49.93
752.046	50.22
752.226	49.23
752.407	49.19
752.588	49.21
752.769	49.63
752.949	49.04
753.13	48.71
753.311	48.85
753.492	48.64
753.672	48.31
753.853	48.29
754.034	48.43
754.214	49.08
754.395	49.38
754.575	49.05
754.756	49.04
754.937	50.15
755.117	49.6
755.298	49.39
755.478	49.82
755.659	49.41
755.839	48.94
756.02	48.92
756.2	49.24
756.381	48.91
756.561	49.35
756.741	49.46
756.922	48.59
757.102	48.76
757.283	48.89
757.463	48.33
757.643	48.06
757.823	48.15
758.004	47.52
758.184	46.83
758.364	46.94
758.545	45.94
758.725	45.45
758.905	44.83
759.085	44.98
759.265	44.55
759.446	44.07
759.626	44.84
759.806	44.22
759.986	44.65
760.166	44.14
760.346	43.74
760.526	44.03
760.706	43.9
760.886	43.75
761.066	43.93
761.246	43.99
761.426	44.19
761.606	43.21
761.786	43.67
761.966	42.67
762.146	42.97
762.326	42.47
762.506	42.48
762.686	42.44
762.866	42.75
763.046	41.89
763.225	41.43
763.405	41.54
763.585	41.23
763.765	40.88
763.945	40.98
764.124	40.73
764.304	41.08
764.484	41.16
764.664	41.37
764.843	41.72
765.023	42.18
765.203	42.62
765.382	43.03
765.562	44.26
765.741	44.09
765.921	45.29
766.101	45.88
766.28	46.18
766.46	46.31
766.639	46.3
766.819	45.92
766.998	45.95
767.178	46.31
767.357	46.52
767.537	46.01
767.716	47.55
767.896	47.2
768.075	47.39
768.254	47.56
768.434	48.42
768.613	49.01
768.792	49.31
768.972	49.6
769.151	50.22
769.33	50.3
769.51	51.56
769.689	51.48
769.868	52.15
770.047	53
770.226	53.65
770.406	52.97
770.585	53.55
770.764	54.35
770.943	54.08
771.122	54.18
771.301	54.34
771.48	53.41
771.66	53.5
771.839	53.03
772.018	52.12
772.197	51.47
772.376	52.36
772.555	51.63
772.734	50.93
772.913	50.7
773.092	50.38
773.271	49.62
773.449	49.96
773.628	49.76
773.807	49.64
773.986	50.28
774.165	50.29
774.344	50.89
774.523	50.08
774.701	50.79
774.88	51.83
775.059	52.44
775.238	52.78
775.417	52.26
775.595	52.62
775.774	53.35
775.953	52.79
776.131	53.57
776.31	52.18
776.489	52.56
776.667	52.26
776.846	52.26
777.025	50.82
777.203	50.66
777.382	50.63
777.56	50.44
777.739	49.6
777.917	50.21
778.096	50.27
778.274	50.31
778.453	51.4
778.631	52.15
778.81	51.88
778.988	53.01
779.166	53.58
779.345	53.76
779.523	54.36
779.702	55.03
779.88	54.6
780.058	52.99
780.237	53.66
780.415	53.13
780.593	52.3
780.771	52.53
780.95	52.66
781.128	52.68
781.306	52.58
781.484	52.37
781.662	51.23
781.841	51.49
782.019	52.06
782.197	51.82
782.375	51.28
782.553	50.19
782.731	50.27
782.909	49.34
783.087	49.27
783.265	49.85
783.443	48.77
783.621	49.36
783.799	49.86
783.977	49.8
784.155	49.83
784.333	50.09
784.511	51.44
784.689	50.27
784.867	50.51
785.045	50.78
785.223	50.53
785.4	50.62
785.578	52.08
785.756	50.64
785.934	50.23
786.112	49.89
786.289	49.55
786.467	49.05
786.645	49.93
786.823	50.94
787	50.55
787.178	50.66
787.356	50.57
787.533	49.42
787.711	49.59
787.889	50.8
788.066	50.9
788.244	51.1
788.421	51.14
788.599	50.46
788.776	49.86
788.954	49.71
789.131	48.89
789.309	49.39
789.486	48.75
789.664	49.05
789.841	48.21
790.019	47.48
790.196	46.93
790.373	45.93
790.551	46.88
790.728	47.63
790.906	48.08
791.083	47.7
791.26	48.17
791.437	48.44
791.615	48.42
791.792	48.85
791.969	49.77
792.146	50.48
792.324	51.53
792.501	51.33
792.678	50.87
792.855	50.67
793.032	51.34
793.209	50.85
793.387	51.3
793.564	52.34
793.741	52.87
793.918	52.84
794.095	53.63
794.272	53.64
794.449	53.72
794.626	52.47
794.803	51.59
794.98	52.1
795.157	51.4
795.334	51.88
795.511	50.83
795.688	49.16
795.864	48.65
796.041	47.54
796.218	48.31
796.395	47.24
796.572	47.73
796.749	48.57
796.925	48.36
797.102	48.77
797.279	48.68
797.456	48.69
797.632	49.82
797.809	50.45
797.986	51.31
798.162	49.85
798.339	50.52
798.516	50.62
798.692	50.66
798.869	51.4
799.046	51.59
799.222	51.13
799.399	50.85
799.575	50.77
799.752	50.62
799.928	49.29
800.105	49.73
800.281	50.24
800.458	50.12
800.634	49.98
800.811	49.43
800.987	49.55
801.163	48.85
801.34	49.32
801.516	50.23
801.692	49.47
801.869	50.41
802.045	50.89
802.221	49.16
802.398	49.13
802.574	49.3
802.75	48.13
802.926	47.43
803.103	49.76
803.279	50.03
803.455	48.88
803.631	50.27
803.807	49.72
803.983	50.47
804.16	52.93
804.336	52.27
804.512	52.48
804.688	53.25
804.864	52.71
805.04	51.47
805.216	51
805.392	49.91
805.568	49.15
805.744	49.28
805.92	47.58
806.096	45.33
806.272	47.42
806.448	46.46
806.623	47.9
806.799	48.21
806.975	49.21
807.151	49.44
807.327	50.19
807.503	49
807.678	50.31
807.854	51.52
808.03	52.96
808.206	52.39
808.381	52.19
808.557	51.67
808.733	53.12
808.908	51.35
809.084	51.75
809.26	51.45
809.435	51.65
809.611	51.07
809.787	49.93
809.962	50.18
810.138	50.01
810.313	48.96
810.489	48.74
810.664	48.73
810.84	48.7
811.015	47.98
811.191	49.43
811.366	50.61
811.542	50.33
811.717	51.25
811.892	50.98
812.068	50.08
812.243	51.64
812.419	51.1
812.594	50.21
812.769	49.06
812.944	48.04
813.12	46.09
813.295	45.99
813.47	44.43
813.645	43.54
813.821	43.36
813.996	43.53
814.171	43.78
814.346	44.58
814.521	44.54
814.697	44.43
814.872	46.03
815.047	47.84
815.222	46.94
815.397	47.86
815.572	49.3
815.747	50.2
815.922	49.98
816.097	49.82
816.272	49.94
816.447	49.64
816.622	52.39
816.797	52.91
816.972	51.9
817.147	51.3
817.322	51.71
817.496	51.12
817.671	50.47
817.846	50.7
818.021	49.8
818.196	47.73
818.371	48.07
818.545	46.87
818.72	45.86
818.895	44.68
819.069	44.17
819.244	43.59
819.419	42.12
819.594	40.76
819.768	41.12
819.943	40.64
820.117	40.68
820.292	39.56
820.467	38.49
820.641	37.82
820.816	37.33
820.99	36.8
821.165	35.83
821.339	35.39
821.514	35.15
821.688	34.42
821.863	34.15
822.037	33.73
822.212	33.72
822.386	33.6
822.56	33.38
822.735	33.31
822.909	33.5
823.084	33.76
823.258	33.57
823.432	33.58
823.606	33.66
823.781	33.86
823.955	34.32
824.129	34.15
824.303	34.22
824.478	34.75
824.652	34.95
824.826	34.96
825	35.15
825.174	35.79
825.348	36.31
825.523	36.65
825.697	36.58
825.871	36.09
826.045	36.18
826.219	36.43
826.393	36.06
826.567	36.51
826.741	36.87
826.915	36.64
827.089	36.86
827.263	36.74
827.437	36.76
827.611	36.81
827.784	37.08
827.958	37.04
828.132	37.03
828.306	37.35
828.48	37.02
828.654	36.76
828.827	36.35
829.001	36.26
829.175	36.25
829.349	36.68
829.522	36.72
829.696	37.68
829.87	38.3
830.044	38.59
830.217	38.3
830.391	38.83
830.565	39.83
830.738	41.77
830.912	42.5
831.085	43.36
831.259	43.83
831.432	45.2
831.606	44.35
831.779	44.52
831.953	43.87
832.126	44.56
832.3	43.47
832.473	42.52
832.647	41.75
832.82	40.67
832.994	39.98
833.167	39.42
833.34	38.82
833.514	38.75
833.687	38.44
833.86	38.67
834.034	38.4
834.207	38.98
834.38	38.65
834.553	38.38
834.727	39.24
834.9	38.53
835.073	37.93
835.246	38.46
835.419	38.71
835.593	39.21
835.766	39.68
835.939	40.01
836.112	39.91
836.285	41.15
836.458	42.04
836.631	41.56
836.804	42.74
836.977	44.58
837.15	44.48
837.323	45.88
837.496	46.7
837.669	46.92
837.842	46.34
838.015	47.62
838.188	47.06
838.361	47.25
838.533	46.67
838.706	47.42
838.879	46.36
839.052	47.79
839.225	48.41
839.398	49.91
839.57	51.36
839.743	50.9
839.916	50.66
840.088	51.61
840.261	50.25
840.434	52.4
840.607	53.2
840.779	53.31
840.952	51.49
841.124	49.53
841.297	48.93
841.47	48
841.642	50.01
841.815	48.92
841.987	47.68
842.16	49.86
842.332	48.85
842.505	47.55
842.677	46.59
842.85	46.93
843.022	48.2
843.194	48.89
843.367	49.43
843.539	45.64
843.712	48.81
843.884	50.56
844.056	51.42
844.229	50.89
844.401	52.35
844.573	54.64
844.745	56.98
844.918	57.57
845.09	55.84
845.262	56.53
845.434	61.77
845.606	58.68
845.779	58.42
845.951	57.7
846.123	60.04
846.295	60.32
846.467	61.41
846.639	60.25
846.811	58.62
846.983	61.16
847.155	61.31
847.327	59.88
847.499	65.64
847.671	66.81
847.843	68.74
848.015	71.13
848.187	73.46
848.359	77.06
848.531	78.77
848.703	82.52
848.875	76.77
849.047	74.87
849.218	73.3
849.39	70.8
849.562	70.77
849.734	70.15
849.905	67.64
850.077	67.44
850.249	66.78
850.421	63.18
850.592	63.17
850.764	65.48
850.936	65.6
851.107	67.91
851.279	67.68
851.451	72.21
851.622	70.34
851.794	70.62
851.965	70.89
852.137	67.23
852.308	69.88
852.48	68.4
852.651	71.25
852.823	71.24
852.994	73.5
853.166	71.96
853.337	68.93
853.509	70.62
853.68	70.26
853.851	69.07
854.023	68.68
854.194	68.84
854.365	69.48
854.537	70.5
854.708	73.64
854.879	69.42
855.05	73.72
855.222	71.54
855.393	71.27
855.564	70.76
855.735	69.75
855.906	70.23
856.078	68.84
856.249	69.47
856.42	63.58
856.591	61.87
856.762	65.08
856.933	60.85
857.104	59.64
857.275	58.27
857.446	56.65
857.617	57.57
857.788	58.47
857.959	60.6
858.13	59.24
858.301	64.17
858.472	65.07
858.643	59.85
858.814	62.77
858.985	63.57
859.155	61.83
859.326	62.86
859.497	64.13
859.668	63.56
859.839	63.08
860.009	62.77
860.18	63.19
860.351	63.93
860.522	67.12
860.692	64.88
860.863	65.8
861.034	73.46
861.204	75.32
861.375	73.73
861.546	70.12
861.716	70.18
861.887	70.12
862.057	67.19
862.228	65.42
862.398	65.04
862.569	66.05
862.739	65.78
862.91	62.58
863.08	59.82
863.251	62.15
863.421	64.45
863.592	65.6
863.762	68.41
863.932	72.63
864.103	71.28
864.273	69.68
864.443	70.72
864.614	69.22
864.784	65.01
864.954	67.39
865.125	67.02
865.295	65.88
865.465	63.09
865.635	58.58
865.805	57.89
865.976	58.77
866.146	61.69
866.316	61.66
866.486	66.19
866.656	72.84
866.826	75.75
866.996	73.83
867.166	79.03
867.336	80.45
867.506	82.83
867.676	81.89
867.846	85.11
868.016	86.33
868.186	87.91
868.356	84.74
868.526	82.72
868.696	81.91
868.866	88.03
869.036	84.36
869.206	85.15
869.376	83.86
869.545	83.01
869.715	81.66
869.885	81.28
870.055	79.53
870.224	79.12
870.394	80.39
870.564	76.34
870.734	69.36
870.903	71.97
871.073	72.6
871.243	70.54
871.412	67.02
871.582	67.29
871.751	65.42
871.921	63.7
872.091	59.42
872.26	59.24
872.43	60.25
872.599	59.69
872.769	62.22
872.938	63.92
873.108	64.84
873.277	66.45
873.446	66.79
873.616	66.34
873.785	67.39
873.955	66.38
874.124	62.86
874.293	64.57
874.463	64.84
874.632	62.37
874.801	56.44
874.971	57.53
875.14	60.04
875.309	57.64
875.478	56.33
875.647	55.03
875.817	59.91
875.986	64.37
876.155	65.69
876.324	67.59
876.493	63.12
876.662	66.42
876.831	68.64
877	67.72
877.17	67.69
877.339	73.09
877.508	71.98
877.677	68.19
877.846	65.19
878.015	64.31
878.184	64.25
878.352	66.09
878.521	67.79
878.69	67.01
878.859	63.66
879.028	63.27
879.197	58.95
879.366	58.72
879.534	58.41
879.703	56.55
879.872	55.32
880.041	50.41
880.21	45.91
880.378	43.05
880.547	40.91
880.716	40.13
880.884	38.57
881.053	37.9
881.222	36.05
881.39	35.19
881.559	34.1
881.727	32.54
881.896	32.62
882.065	32.83
882.233	32.59
882.402	31.37
882.57	31.01
882.739	31.03
882.907	30.57
883.076	31.26
883.244	31.33
883.412	31.89
883.581	32.21
883.749	31.8
883.918	31.53
884.086	31.73
884.254	32.62
884.423	33.07
884.591	33.42
884.759	33.8
884.927	33.72
885.096	33.8
885.264	35.21
885.432	36.09
885.6	37.81
885.769	38.99
885.937	39.98
886.105	42.48
886.273	44.04
886.441	44.9
886.609	47.27
886.777	48.44
886.945	50.94
887.113	52.27
887.281	53.69
887.449	56.56
887.617	57.7
887.785	60.86
887.953	61.23
888.121	60.65
888.289	61.72
888.457	61.8
888.625	64.26
888.793	65.02
888.961	61.45
889.129	64.25
889.296	65.07
889.464	67.56
889.632	64.96
889.8	64.83
889.967	67.53
890.135	67.57
