Data from 2938719__Reflection_01.txt Node
Date: Tue Mar 17 18:35:45 EDT 2015
User: robert
Spectrometer: USB4E03002
Autoset integration time: false
Trigger mode: 4
Integration Time (sec): 1.000000E-1
Scans to average: 10
Electric dark correction enabled: false
Nonlinearity correction enabled: false
Boxcar width: 5
Stray light correction enabled: false
XAxis mode: Wavelengths
Stop averaging: false
Number of Pixels in Spectrum: 3648
>>>>>Begin Spectral Data<<<<<
177.575	-425.49
177.794	-2200
178.014	1536.36
178.233	-56
178.452	361.9
178.672	1080
178.891	50.34
179.11	90
179.33	99.26
179.549	125.94
179.768	119.4
179.987	246.15
180.207	90.63
180.426	75.58
180.645	-12.5
180.864	19.81
181.084	36.4
181.303	134.78
181.522	383.61
181.741	-363.49
181.96	-84
182.179	-181.82
182.398	-182.68
182.618	7075
182.837	-409.09
183.056	-202.53
183.275	-202.11
183.494	222.41
183.713	-674.07
183.932	-60
184.151	70.69
184.37	46.7
184.589	100.91
184.808	31.16
185.027	32.26
185.246	-141.18
185.465	66.04
185.684	44.81
185.903	9.61
186.122	-158.04
186.341	485.71
186.56	-242.06
186.779	-50.5
186.998	6.62
187.216	6.82
187.435	32.86
187.654	14.01
187.873	2.39
188.092	-9.15
188.311	56.63
188.53	62.88
188.748	69.76
188.967	109.41
189.186	102.24
189.405	164.05
189.623	209.9
189.842	255.24
190.061	244.36
190.28	339.53
190.498	375
190.717	1422.86
190.936	-1528.95
191.154	690
191.373	296.24
191.592	205.41
191.81	127.92
192.029	109.65
192.248	93.97
192.466	141.88
192.685	115.9
192.904	111.62
193.122	106.02
193.341	80.47
193.559	73.63
193.778	49.24
193.996	31.79
194.215	8.29
194.433	27.2
194.652	28.7
194.87	20.11
195.089	15.34
195.307	-4.93
195.526	9.09
195.744	13.36
195.963	0.62
196.181	2.13
196.399	24.36
196.618	41.17
196.836	38.62
197.055	28.18
197.273	11.11
197.491	21.53
197.71	1.72
197.928	4.44
198.146	-44.59
198.365	-63.84
198.583	-40.62
198.801	-17.38
199.019	-21.34
199.238	-30.43
199.456	-6.47
199.674	23.51
199.892	23.98
200.111	44.33
200.329	32.87
200.547	50.58
200.765	51.37
200.983	49.19
201.202	39.08
201.42	36.54
201.638	55.02
201.856	78.13
202.074	61.86
202.292	23.87
202.51	-13.68
202.728	13.38
202.946	-142.65
203.165	218.84
203.383	58.82
203.601	2175
203.819	-91.11
204.037	32.34
204.255	247.83
204.473	-1077.78
204.691	196.88
204.909	65.56
205.127	53.36
205.345	34.45
205.562	46.68
205.78	21.79
205.998	3.31
206.216	19.76
206.434	24.3
206.652	41.61
206.87	20.92
207.088	4.87
207.306	20.41
207.523	29.2
207.741	47.93
207.959	56.35
208.177	79.83
208.395	57.19
208.612	36.74
208.83	25.77
209.048	27.63
209.266	21.39
209.483	15.55
209.701	7.65
209.919	-11.31
210.136	-11.53
210.354	-75.56
210.572	-91.8
210.79	-265.45
211.007	-519.57
211.225	-75.89
211.442	-20.71
211.66	-21.73
211.878	-25.58
212.095	-7.51
212.313	-0.14
212.53	-2.75
212.748	11.51
212.966	8.9
213.183	31.63
213.401	37.9
213.618	35
213.836	41.18
214.053	64.84
214.271	58.4
214.488	32.94
214.705	-3.98
214.923	-5.49
215.14	-26.15
215.358	-20.77
215.575	-39.39
215.793	-16.37
216.01	-23.5
216.227	-15.28
216.445	-19.68
216.662	-5.75
216.879	12.99
217.097	31.27
217.314	24.55
217.531	24.96
217.749	34.2
217.966	28.18
218.183	22.81
218.4	25.56
218.618	21.99
218.835	9.59
219.052	-2.89
219.269	2.48
219.487	-21.31
219.704	-3.57
219.921	-3.74
220.138	-13.99
220.355	-11.15
220.572	-10.05
220.79	-7.23
221.007	-8.59
221.224	3.2
221.441	10.79
221.658	-1.74
221.875	-0.71
222.092	-5.85
222.309	-9.55
222.526	0.7
222.743	0.58
222.96	7.38
223.177	8.93
223.394	9.99
223.611	6.52
223.828	7.3
224.045	15.08
224.262	17.47
224.479	16.81
224.696	19.02
224.913	13.62
225.13	14.18
225.347	13.12
225.564	14.95
225.781	13.66
225.997	14.74
226.214	13.6
226.431	8.32
226.648	8.71
226.865	10.22
227.082	7.7
227.298	7.56
227.515	6.04
227.732	5.72
227.949	4.79
228.165	4.1
228.382	4.75
228.599	4.23
228.816	5.27
229.032	5.46
229.249	5.38
229.466	5.96
229.682	6.91
229.899	7.35
230.116	6.41
230.332	6.72
230.549	7.18
230.765	7.02
230.982	7.53
231.199	7.79
231.415	8.03
231.632	7.62
231.848	7.62
232.065	5.43
232.281	5.53
232.498	5.31
232.714	3.23
232.931	2.07
233.147	1.02
233.364	0.54
233.58	-0.21
233.797	-1.28
234.013	-3.28
234.23	-1.24
234.446	-2.71
234.662	-3.29
234.879	-0.57
235.095	1
235.312	3.03
235.528	2.74
235.744	2.84
235.961	3.56
236.177	3.26
236.393	5.42
236.61	4.44
236.826	7.24
237.042	8.55
237.258	7.86
237.475	8.63
237.691	8.76
237.907	8.08
238.123	8.36
238.339	7.65
238.556	6.72
238.772	5.24
238.988	4.39
239.204	3.29
239.42	2.99
239.636	1.89
239.853	1.54
240.069	0.73
240.285	2.8
240.501	3.08
240.717	3.52
240.933	4.48
241.149	5.72
241.365	5.79
241.581	6.42
241.797	6.18
242.013	7.11
242.229	6.78
242.445	7.17
242.661	6.82
242.877	7.19
243.093	7.12
243.309	6.7
243.525	6.25
243.741	6.89
243.957	6.47
244.173	6.38
244.388	5.89
244.604	5.39
244.82	5.33
245.036	5.86
245.252	5.71
245.468	5.51
245.683	6.01
245.899	5.97
246.115	5.34
246.331	5.6
246.547	6.03
246.762	6.37
246.978	6.73
247.194	6.71
247.409	6.51
247.625	6.38
247.841	6.36
248.057	6.39
248.272	6.56
248.488	6.72
248.703	6.46
248.919	6.33
249.135	5.69
249.35	5.66
249.566	5.25
249.782	5.6
249.997	5.47
250.213	5.43
250.428	5.6
250.644	5.69
250.859	5.57
251.075	6.56
251.29	6.16
251.506	5.91
251.721	5.55
251.937	5.24
252.152	5.2
252.368	5.56
252.583	5.46
252.798	4.63
253.014	4.25
253.229	4.47
253.445	3.6
253.66	3.57
253.875	3.84
254.091	3.64
254.306	4.5
254.521	2.99
254.737	2.67
254.952	2.45
255.167	2.7
255.383	3.66
255.598	4.44
255.813	4.43
256.028	4.91
256.244	5.13
256.459	4.75
256.674	4.58
256.889	5.18
257.104	4.87
257.32	4.73
257.535	4.09
257.75	3.75
257.965	3.14
258.18	3.24
258.395	3.16
258.61	3.64
258.826	4.04
259.041	3.91
259.256	3.98
259.471	4.04
259.686	4.33
259.901	4.71
260.116	4.63
260.331	4.94
260.546	5.05
260.761	5.22
260.976	5.02
261.191	4.61
261.406	4.94
261.621	5.04
261.836	4.9
262.05	4.8
262.265	4.61
262.48	4.23
262.695	3.6
262.91	3.84
263.125	3.46
263.34	3.49
263.555	4.47
263.769	3.35
263.984	3.34
264.199	3.65
264.414	3.62
264.629	3.9
264.843	3.83
265.058	4.02
265.273	3.55
265.488	3.81
265.702	3.67
265.917	3.67
266.132	4.13
266.346	3.92
266.561	3.63
266.776	3.9
266.99	3.82
267.205	4
267.42	3.76
267.634	3.88
267.849	3.23
268.063	3.37
268.278	2.82
268.492	3.17
268.707	3.02
268.922	3.18
269.136	2.33
269.351	2.17
269.565	2.7
269.78	2.71
269.994	2.37
270.209	3.09
270.423	3
270.637	3.35
270.852	3.16
271.066	3.25
271.281	3.07
271.495	3.54
271.709	3.58
271.924	3.2
272.138	3.34
272.353	3.39
272.567	3.52
272.781	3.67
272.996	3.52
273.21	3.27
273.424	3.39
273.638	3.34
273.853	3.71
274.067	3.91
274.281	4.17
274.495	4.24
274.71	4.35
274.924	4.02
275.138	4.01
275.352	4.29
275.566	4.66
275.781	4.34
275.995	4.38
276.209	3.84
276.423	3.48
276.637	3.46
276.851	3.36
277.065	3.25
277.279	3.42
277.493	3.36
277.707	3.3
277.921	3.06
278.135	2.73
278.349	2.98
278.563	2.86
278.777	2.92
278.991	2.62
279.205	2.47
279.419	2.52
279.633	2.39
279.847	2.3
280.061	2.18
280.275	1.96
280.489	2.51
280.703	2.32
280.917	2.47
281.131	2.79
281.344	2.76
281.558	2.95
281.772	3.23
281.986	3.45
282.2	3.25
282.414	2.98
282.627	3.61
282.841	3.61
283.055	3.65
283.269	3.77
283.482	3.81
283.696	3.99
283.91	3.63
284.123	2.98
284.337	2.71
284.551	2.8
284.764	3.03
284.978	2.69
285.192	2.82
285.405	2.85
285.619	3.08
285.833	2.89
286.046	3.12
286.26	3.09
286.473	3.44
286.687	3.65
286.9	3.84
287.114	4.1
287.327	4.16
287.541	3.85
287.754	3.99
287.968	3.76
288.181	3.86
288.395	3.51
288.608	3.98
288.822	4.09
289.035	3.89
289.248	3.83
289.462	3.64
289.675	3.47
289.889	3.84
290.102	3.96
290.315	4.12
290.529	4.34
290.742	4.48
290.955	4.39
291.169	4.28
291.382	4.32
291.595	4.3
291.808	4.23
292.022	4.61
292.235	4.58
292.448	4.45
292.661	4.19
292.875	3.51
293.088	3.39
293.301	3.3
293.514	3.43
293.727	3.68
293.94	3.79
294.153	3.85
294.367	3.79
294.58	3.85
294.793	4.06
295.006	4.18
295.219	4.79
295.432	4.87
295.645	4.85
295.858	4.92
296.071	4.97
296.284	5.18
296.497	5.1
296.71	5.05
296.923	4.96
297.136	4.69
297.349	4.72
297.562	4.32
297.775	4.33
297.988	4.42
298.201	4.4
298.414	4.33
298.626	4.22
298.839	4.3
299.052	4.35
299.265	4.47
299.478	4.71
299.691	4.84
299.903	4.92
300.116	5.14
300.329	4.74
300.542	4.67
300.755	4.43
300.967	4.28
301.18	4.25
301.393	3.87
301.605	4.01
301.818	3.95
302.031	3.97
302.243	4.03
302.456	3.25
302.669	3.42
302.881	3.7
303.094	4.11
303.307	4.02
303.519	4.36
303.732	4.84
303.944	4.35
304.157	4.18
304.37	3.8
304.582	3.72
304.795	4.08
305.007	4.49
305.22	4.12
305.432	4.11
305.645	4.49
305.857	4.24
306.069	3.81
306.282	3.87
306.494	4.02
306.707	4.21
306.919	4.24
307.132	4.45
307.344	4.09
307.556	4.23
307.769	3.73
307.981	3.45
308.193	3.46
308.406	3.95
308.618	4.19
308.83	4.43
309.043	4.56
309.255	4.94
309.467	5.31
309.679	5.71
309.892	5.68
310.104	6.08
310.316	6.11
310.528	6.48
310.74	6.68
310.953	6.49
311.165	6.43
311.377	6.42
311.589	6.27
311.801	5.99
312.013	6.09
312.225	6.26
312.437	6.08
312.649	6.29
312.862	5.98
313.074	5.73
313.286	5.99
313.498	5.82
313.71	5.7
313.922	5.81
314.134	5.79
314.346	5.58
314.558	5.75
314.77	6.06
314.982	5.52
315.193	5.7
315.405	5.25
315.617	4.95
315.829	5.3
316.041	5.82
316.253	5.97
316.465	6.37
316.677	6.21
316.888	5.6
317.1	5.53
317.312	5.97
317.524	6.21
317.736	6.76
317.947	7.25
318.159	7.63
318.371	7.36
318.583	7.13
318.794	6.74
319.006	7.02
319.218	7.75
319.43	7.93
319.641	8.13
319.853	8.16
320.064	8.29
320.276	8.25
320.488	7.98
320.699	7.83
320.911	8.05
321.123	8.57
321.334	8.72
321.546	8.74
321.757	8.46
321.969	8.77
322.18	8.67
322.392	8.65
322.603	8.81
322.815	8.94
323.026	9.43
323.238	9.44
323.449	9.39
323.661	9.34
323.872	9.14
324.083	9.16
324.295	8.93
324.506	8.82
324.718	9.04
324.929	8.91
325.14	9.16
325.352	8.94
325.563	8.99
325.774	8.96
325.986	9.12
326.197	9.38
326.408	9.36
326.62	9.75
326.831	10.18
327.042	10.11
327.253	10.41
327.464	10.14
327.676	10.35
327.887	10.62
328.098	10.83
328.309	10.62
328.52	10.54
328.732	10.62
328.943	10.36
329.154	10.31
329.365	10.73
329.576	10.85
329.787	11.03
329.998	11.12
330.209	11.28
330.42	11.34
330.631	11.91
330.842	12.15
331.053	12.67
331.264	12.59
331.475	12.49
331.686	12.46
331.897	12.25
332.108	12.48
332.319	12.59
332.53	12.28
332.741	12.26
332.952	11.77
333.163	11.86
333.374	11.76
333.585	11.75
333.795	11.71
334.006	11.81
334.217	11.67
334.428	11.86
334.639	11.76
334.849	11.93
335.06	12.02
335.271	12.12
335.482	11.97
335.692	12
335.903	12.19
336.114	12.41
336.325	12.44
336.535	12.68
336.746	12.43
336.957	12.62
337.167	12.58
337.378	12.36
337.589	13
337.799	13.39
338.01	13.35
338.22	13.69
338.431	13.45
338.642	13.18
338.852	13.39
339.063	13.17
339.273	13.03
339.484	13.42
339.694	13.66
339.905	13.34
340.115	12.79
340.326	12.9
340.536	12.4
340.746	12.26
340.957	12.25
341.167	12.25
341.378	12.5
341.588	12.4
341.799	12.43
342.009	12.31
342.219	12.12
342.43	12.37
342.64	12.06
342.85	12.21
343.061	12.37
343.271	12.41
343.481	12.23
343.691	12.21
343.902	12.06
344.112	11.8
344.322	11.8
344.532	11.92
344.743	11.59
344.953	11.8
345.163	11.77
345.373	12.01
345.583	11.91
345.793	12.22
346.004	12.22
346.214	12.57
346.424	12.35
346.634	12.42
346.844	12.16
347.054	12.27
347.264	11.92
347.474	11.94
347.684	11.95
347.894	11.89
348.104	11.37
348.314	11.23
348.524	10.95
348.734	10.97
348.944	11
349.154	11.11
349.364	11.41
349.574	11.56
349.784	11.37
349.994	11.21
350.204	11.51
350.413	11.63
350.623	11.86
350.833	11.88
351.043	11.98
351.253	11.52
351.463	11.52
351.672	11.39
351.882	11.65
352.092	11.76
352.302	11.83
352.511	11.4
352.721	11.41
352.931	11.34
353.141	11.33
353.35	11.17
353.56	11.55
353.77	11.5
353.979	11.45
354.189	11.51
354.399	11.49
354.608	11.35
354.818	11.55
355.027	11.6
355.237	11.59
355.447	11.73
355.656	11.9
355.866	11.82
356.075	11.91
356.285	11.93
356.494	11.45
356.704	11.57
356.913	11.64
357.123	11.47
357.332	11.26
357.542	11.45
357.751	11.45
357.96	11.38
358.17	11.28
358.379	10.89
358.589	10.81
358.798	10.87
359.007	10.83
359.217	10.6
359.426	10.75
359.635	10.8
359.845	10.44
360.054	10.56
360.263	10.74
360.472	10.83
360.682	11.11
360.891	11.23
361.1	11.31
361.309	11.33
361.519	11.36
361.728	11.35
361.937	11.33
362.146	11.55
362.355	11.3
362.564	11.26
362.774	11.26
362.983	11.27
363.192	11.21
363.401	11.36
363.61	11.42
363.819	11.53
364.028	11.53
364.237	11.78
364.446	11.61
364.655	11.79
364.864	11.67
365.073	11.53
365.282	11.63
365.491	11.58
365.7	11.5
365.909	11.32
366.118	11.2
366.327	11.15
366.536	11.1
366.745	11.14
366.954	11.05
367.162	11.07
367.371	11.2
367.58	11.08
367.789	10.92
367.998	10.7
368.207	10.7
368.415	10.76
368.624	10.85
368.833	10.76
369.042	10.68
369.25	10.8
369.459	10.72
369.668	10.64
369.877	10.6
370.085	10.79
370.294	10.97
370.503	11.07
370.711	10.92
370.92	10.67
371.129	10.23
371.337	10.04
371.546	9.83
371.754	9.72
371.963	9.66
372.171	9.61
372.38	9.49
372.589	9.47
372.797	9.5
373.006	9.88
373.214	9.98
373.423	10.34
373.631	10.65
373.84	10.75
374.048	10.88
374.256	11.01
374.465	10.92
374.673	10.99
374.882	10.97
375.09	10.72
375.298	10.47
375.507	10.61
375.715	10.57
375.923	10.37
376.132	10.28
376.34	10.32
376.548	10.26
376.757	10.32
376.965	10.37
377.173	10.37
377.381	10.45
377.59	10.41
377.798	10.42
378.006	10.4
378.214	10.29
378.423	10.25
378.631	10.22
378.839	10.18
379.047	9.98
379.255	9.93
379.463	9.78
379.671	9.64
379.879	9.62
380.088	9.48
380.296	9.34
380.504	9.22
380.712	9.49
380.92	9.33
381.128	9.24
381.336	9.38
381.544	9.3
381.752	9.28
381.96	9.21
382.168	9.16
382.376	9.18
382.584	9.38
382.791	9.7
382.999	9.41
383.207	9.38
383.415	9.31
383.623	9.24
383.831	9.24
384.039	9.32
384.247	9.43
384.454	9.28
384.662	9.19
384.87	8.97
385.078	8.67
385.285	8.65
385.493	8.59
385.701	8.67
385.909	8.72
386.116	8.53
386.324	8.61
386.532	8.58
386.739	8.71
386.947	8.75
387.155	9.01
387.362	9.43
387.57	9.46
387.778	9.63
387.985	9.57
388.193	9.46
388.4	9.56
388.608	9.48
388.816	9.55
389.023	9.5
389.231	9.41
389.438	9.27
389.646	8.89
389.853	8.87
390.061	8.77
390.268	8.85
390.475	8.86
390.683	8.94
390.89	8.91
391.098	8.68
391.305	8.6
391.512	8.73
391.72	8.45
391.927	8.6
392.135	8.62
392.342	8.58
392.549	8.61
392.756	8.8
392.964	8.75
393.171	8.68
393.378	8.92
393.586	8.94
393.793	8.76
394	8.93
394.207	8.8
394.414	8.68
394.622	8.58
394.829	8.56
395.036	8.22
395.243	8.12
395.45	8.27
395.657	8.19
395.864	8.25
396.072	8.34
396.279	8.34
396.486	8.25
396.693	8.36
396.9	8.39
397.107	8.27
397.314	8.48
397.521	8.67
397.728	8.39
397.935	8.25
398.142	8.23
398.349	8.19
398.556	8.3
398.763	8.28
398.97	8.14
399.177	8.3
399.383	8.15
399.59	7.97
399.797	7.85
400.004	7.89
400.211	7.91
400.418	7.95
400.625	8.06
400.831	7.87
401.038	7.85
401.245	8.02
401.452	7.85
401.658	8.06
401.865	8.16
402.072	8.17
402.279	8.26
402.485	8.3
402.692	8.19
402.899	8.04
403.105	8.11
403.312	8.06
403.519	7.9
403.725	7.91
403.932	7.85
404.138	7.81
404.345	7.7
404.552	7.73
404.758	7.68
404.965	7.72
405.171	7.69
405.378	7.65
405.584	7.69
405.791	7.7
405.997	7.76
406.204	7.75
406.41	7.7
406.617	7.82
406.823	7.69
407.029	7.7
407.236	7.54
407.442	7.49
407.649	7.54
407.855	7.58
408.061	7.61
408.268	7.64
408.474	7.62
408.68	7.67
408.887	7.8
409.093	7.81
409.299	7.77
409.505	7.75
409.712	7.8
409.918	7.65
410.124	7.72
410.33	7.75
410.537	7.66
410.743	7.71
410.949	7.73
411.155	7.76
411.361	7.76
411.567	7.91
411.773	8.08
411.98	8.1
412.186	8.07
412.392	7.92
412.598	7.94
412.804	8
413.01	7.93
413.216	7.73
413.422	7.55
413.628	7.68
413.834	7.63
414.04	7.65
414.246	7.72
414.452	7.89
414.658	8.01
414.864	7.9
415.07	7.97
415.275	8.08
415.481	8.37
415.687	8.4
415.893	8.37
416.099	8.38
416.305	8.32
416.511	8.36
416.716	8.38
416.922	8.29
417.128	8.27
417.334	8.23
417.539	8.12
417.745	8.04
417.951	8.06
418.157	8.05
418.362	7.98
418.568	7.96
418.774	7.91
418.979	7.79
419.185	7.72
419.391	7.7
419.596	7.6
419.802	7.59
420.008	7.51
420.213	7.47
420.419	7.43
420.624	7.44
420.83	7.41
421.035	7.42
421.241	7.46
421.446	7.52
421.652	7.58
421.857	7.63
422.063	7.65
422.268	7.66
422.474	7.67
422.679	7.63
422.885	7.61
423.09	7.55
423.295	7.52
423.501	7.47
423.706	7.48
423.911	7.46
424.117	7.48
424.322	7.43
424.527	7.4
424.733	7.36
424.938	7.39
425.143	7.44
425.349	7.57
425.554	7.53
425.759	7.6
425.964	7.59
426.169	7.58
426.375	7.55
426.58	7.66
426.785	7.76
426.99	7.75
427.195	7.65
427.4	7.63
427.605	7.63
427.811	7.65
428.016	7.52
428.221	7.48
428.426	7.49
428.631	7.49
428.836	7.48
429.041	7.35
429.246	7.4
429.451	7.54
429.656	7.59
429.861	7.45
430.066	7.35
430.271	7.52
430.476	7.54
430.681	7.5
430.886	7.54
431.09	7.54
431.295	7.52
431.5	7.4
431.705	7.44
431.91	7.33
432.115	7.31
432.32	7.43
432.524	7.37
432.729	7.29
432.934	7.31
433.139	7.33
433.343	7.29
433.548	7.43
433.753	7.48
433.958	7.45
434.162	7.5
434.367	7.56
434.572	7.59
434.776	7.59
434.981	7.64
435.186	7.62
435.39	7.52
435.595	7.51
435.799	7.43
436.004	7.4
436.209	7.37
436.413	7.33
436.618	7.33
436.822	7.23
437.027	7.29
437.231	7.37
437.436	7.35
437.64	7.39
437.845	7.38
438.049	7.39
438.253	7.4
438.458	7.43
438.662	7.45
438.867	7.48
439.071	7.49
439.275	7.48
439.48	7.43
439.684	7.52
439.888	7.56
440.093	7.6
440.297	7.65
440.501	7.64
440.706	7.68
440.91	7.68
441.114	7.66
441.318	7.72
441.523	7.7
441.727	7.75
441.931	7.68
442.135	7.63
442.339	7.61
442.543	7.64
442.748	7.66
442.952	7.58
443.156	7.54
443.36	7.6
443.564	7.57
443.768	7.55
443.972	7.53
444.176	7.6
444.38	7.6
444.584	7.66
444.788	7.59
444.992	7.64
445.196	7.69
445.4	7.74
445.604	7.64
445.808	7.64
446.012	7.63
446.216	7.61
446.42	7.6
446.624	7.65
446.828	7.63
447.032	7.59
447.235	7.55
447.439	7.53
447.643	7.44
447.847	7.49
448.051	7.47
448.254	7.48
448.458	7.51
448.662	7.46
448.866	7.43
449.069	7.45
449.273	7.42
449.477	7.45
449.681	7.49
449.884	7.55
450.088	7.52
450.292	7.54
450.495	7.46
450.699	7.44
450.902	7.36
451.106	7.33
451.31	7.25
451.513	7.34
451.717	7.39
451.92	7.3
452.124	7.28
452.327	7.32
452.531	7.27
452.734	7.42
452.938	7.4
453.141	7.51
453.345	7.42
453.548	7.33
453.752	7.32
453.955	7.23
454.158	7.28
454.362	7.24
454.565	7.2
454.769	7.21
454.972	7.04
455.175	7.06
455.379	6.96
455.582	7.02
455.785	7.14
455.988	7.15
456.192	7.13
456.395	7.01
456.598	7.13
456.801	7.09
457.005	7.13
457.208	7.18
457.411	7.15
457.614	7.24
457.817	7.3
458.021	7.27
458.224	7.27
458.427	7.3
458.63	7.31
458.833	7.24
459.036	7.29
459.239	7.26
459.442	7.29
459.645	7.29
459.848	7.26
460.051	7.24
460.254	7.24
460.457	7.24
460.66	7.3
460.863	7.33
461.066	7.3
461.269	7.37
461.472	7.39
461.675	7.34
461.878	7.36
462.081	7.28
462.284	7.22
462.486	7.24
462.689	7.18
462.892	7.12
463.095	7.1
463.298	7.2
463.5	7.1
463.703	7.07
463.906	7.07
464.109	7.1
464.311	7.12
464.514	7.17
464.717	7.21
464.92	7.22
465.122	7.23
465.325	7.33
465.528	7.37
465.73	7.44
465.933	7.48
466.135	7.41
466.338	7.31
466.541	7.46
466.743	7.45
466.946	7.36
467.148	7.35
467.351	7.24
467.553	7.12
467.756	7.03
467.958	7.05
468.161	7
468.363	7.09
468.566	7.19
468.768	7.01
468.971	7.05
469.173	7.11
469.375	7.13
469.578	7.27
469.78	7.3
469.983	7.32
470.185	7.25
470.387	7.17
470.59	7.26
470.792	7.29
470.994	7.39
471.196	7.43
471.399	7.34
471.601	7.35
471.803	7.33
472.005	7.3
472.208	7.28
472.41	7.2
472.612	7.29
472.814	7.29
473.016	7.28
473.218	7.27
473.421	7.2
473.623	7.33
473.825	7.28
474.027	7.22
474.229	7.31
474.431	7.34
474.633	7.37
474.835	7.33
475.037	7.31
475.239	7.3
475.441	7.33
475.643	7.35
475.845	7.29
476.047	7.29
476.249	7.37
476.451	7.35
476.653	7.32
476.855	7.37
477.057	7.46
477.258	7.44
477.46	7.39
477.662	7.36
477.864	7.38
478.066	7.29
478.268	7.37
478.469	7.32
478.671	7.29
478.873	7.31
479.075	7.31
479.276	7.25
479.478	7.24
479.68	7.25
479.882	7.3
480.083	7.31
480.285	7.4
480.487	7.3
480.688	7.36
480.89	7.35
481.091	7.35
481.293	7.38
481.495	7.38
481.696	7.34
481.898	7.35
482.099	7.29
482.301	7.27
482.502	7.25
482.704	7.25
482.905	7.27
483.107	7.26
483.308	7.24
483.51	7.24
483.711	7.25
483.913	7.28
484.114	7.29
484.315	7.31
484.517	7.3
484.718	7.31
484.92	7.34
485.121	7.32
485.322	7.35
485.524	7.34
485.725	7.35
485.926	7.35
486.127	7.3
486.329	7.29
486.53	7.3
486.731	7.28
486.932	7.26
487.134	7.24
487.335	7.25
487.536	7.25
487.737	7.28
487.938	7.26
488.139	7.29
488.341	7.35
488.542	7.37
488.743	7.37
488.944	7.39
489.145	7.39
489.346	7.42
489.547	7.4
489.748	7.39
489.949	7.34
490.15	7.32
490.351	7.3
490.552	7.27
490.753	7.21
490.954	7.25
491.155	7.26
491.356	7.32
491.557	7.3
491.758	7.35
491.959	7.38
492.159	7.44
492.36	7.44
492.561	7.44
492.762	7.44
492.963	7.53
493.164	7.52
493.364	7.56
493.565	7.52
493.766	7.59
493.967	7.61
494.167	7.61
494.368	7.61
494.569	7.58
494.769	7.59
494.97	7.54
495.171	7.52
495.371	7.54
495.572	7.54
495.773	7.58
495.973	7.56
496.174	7.5
496.375	7.5
496.575	7.48
496.776	7.55
496.976	7.51
497.177	7.56
497.377	7.52
497.578	7.47
497.778	7.54
497.979	7.46
498.179	7.45
498.38	7.51
498.58	7.51
498.78	7.57
498.981	7.62
499.181	7.67
499.382	7.68
499.582	7.76
499.782	7.78
499.983	7.66
500.183	7.85
500.383	7.9
500.584	7.88
500.784	7.91
500.984	7.88
501.184	7.83
501.385	7.77
501.585	7.77
501.785	7.76
501.985	7.73
502.185	7.81
502.386	7.73
502.586	7.75
502.786	7.75
502.986	7.72
503.186	7.73
503.386	7.74
503.586	7.86
503.786	7.94
503.987	8.01
504.187	8.11
504.387	8.11
504.587	8.16
504.787	8.18
504.987	8.16
505.187	8.18
505.387	8.31
505.587	8.37
505.786	8.38
505.986	8.44
506.186	8.35
506.386	8.29
506.586	8.31
506.786	8.36
506.986	8.36
507.186	8.49
507.386	8.53
507.585	8.4
507.785	8.41
507.985	8.42
508.185	8.41
508.384	8.52
508.584	8.58
508.784	8.6
508.984	8.57
509.183	8.5
509.383	8.43
509.583	8.46
509.782	8.56
509.982	8.6
510.182	8.63
510.381	8.67
510.581	8.67
510.781	8.72
510.98	8.78
511.18	8.78
511.379	8.9
511.579	9.01
511.778	9.07
511.978	9.08
512.177	9.11
512.377	9.13
512.576	9.15
512.776	9.22
512.975	9.26
513.175	9.27
513.374	9.32
513.573	9.35
513.773	9.33
513.972	9.34
514.172	9.44
514.371	9.45
514.57	9.57
514.77	9.57
514.969	9.59
515.168	9.65
515.367	9.7
515.567	9.75
515.766	9.82
515.965	9.88
516.164	9.95
516.364	9.97
516.563	10.1
516.762	10.11
516.961	10.27
517.16	10.27
517.359	10.25
517.559	10.28
517.758	10.32
517.957	10.33
518.156	10.33
518.355	10.35
518.554	10.42
518.753	10.45
518.952	10.49
519.151	10.52
519.35	10.62
519.549	10.7
519.748	10.81
519.947	10.92
520.146	11.06
520.345	11.22
520.544	11.31
520.743	11.29
520.942	11.34
521.141	11.42
521.339	11.43
521.538	11.47
521.737	11.56
521.936	11.62
522.135	11.71
522.333	11.75
522.532	11.81
522.731	11.86
522.93	12.06
523.129	12.15
523.327	12.24
523.526	12.31
523.725	12.47
523.923	12.52
524.122	12.6
524.321	12.6
524.519	12.72
524.718	12.75
524.917	12.82
525.115	12.82
525.314	12.87
525.512	12.89
525.711	12.97
525.909	12.99
526.108	13.1
526.306	13.2
526.505	13.31
526.703	13.34
526.902	13.44
527.1	13.53
527.299	13.64
527.497	13.76
527.696	13.9
527.894	13.98
528.092	14.08
528.291	14.15
528.489	14.21
528.688	14.33
528.886	14.44
529.084	14.57
529.283	14.71
529.481	14.83
529.679	14.97
529.877	15.04
530.076	15.18
530.274	15.29
530.472	15.49
530.67	15.63
530.869	15.71
531.067	15.83
531.265	15.92
531.463	15.97
531.661	16.06
531.859	16.12
532.057	16.2
532.255	16.28
532.454	16.38
532.652	16.43
532.85	16.51
533.048	16.62
533.246	16.7
533.444	16.79
533.642	16.9
533.84	16.97
534.038	17.09
534.236	17.26
534.434	17.4
534.632	17.53
534.83	17.59
535.027	17.75
535.225	17.89
535.423	17.99
535.621	18.15
535.819	18.24
536.017	18.32
536.215	18.38
536.412	18.46
536.61	18.46
536.808	18.52
537.006	18.69
537.203	18.7
537.401	18.75
537.599	18.86
537.797	18.95
537.994	19.12
538.192	19.18
538.39	19.31
538.587	19.4
538.785	19.54
538.983	19.68
539.18	19.59
539.378	19.73
539.575	19.8
539.773	19.89
539.97	19.87
540.168	19.92
540.366	20.09
540.563	20.2
540.761	20.28
540.958	20.32
541.155	20.37
541.353	20.56
541.55	20.64
541.748	20.73
541.945	20.84
542.143	21.01
542.34	21.1
542.537	21.17
542.735	21.22
542.932	21.36
543.129	21.54
543.327	21.64
543.524	21.75
543.721	21.9
543.919	21.98
544.116	22.06
544.313	22.09
544.51	22.2
544.708	22.36
544.905	22.49
545.102	22.59
545.299	22.61
545.496	22.77
545.693	22.84
545.891	22.84
546.088	22.95
546.285	23.02
546.482	23.08
546.679	23.12
546.876	23.08
547.073	23.14
547.27	23.16
547.467	23.25
547.664	23.32
547.861	23.37
548.058	23.48
548.255	23.55
548.452	23.49
548.649	23.67
548.846	23.73
549.043	23.84
549.24	23.89
549.437	23.94
549.633	24.03
549.83	23.97
550.027	24.03
550.224	24.17
550.421	24.25
550.618	24.35
550.814	24.4
551.011	24.46
551.208	24.53
551.405	24.6
551.601	24.75
551.798	24.78
551.995	24.92
552.191	25.08
552.388	25.08
552.585	25.12
552.781	25.25
552.978	25.32
553.175	25.42
553.371	25.5
553.568	25.54
553.764	25.52
553.961	25.61
554.157	25.58
554.354	25.58
554.55	25.73
554.747	25.91
554.943	25.94
555.14	26.02
555.336	26.04
555.533	25.98
555.729	26.05
555.926	26.08
556.122	26.1
556.318	26.2
556.515	26.3
556.711	26.19
556.907	26.19
557.104	26.29
557.3	26.32
557.496	26.35
557.693	26.49
557.889	26.67
558.085	26.71
558.281	26.87
558.478	26.95
558.674	26.99
558.87	27.13
559.066	27.25
559.262	27.35
559.459	27.35
559.655	27.5
559.851	27.66
560.047	27.75
560.243	27.81
560.439	27.74
560.635	27.73
560.831	27.77
561.027	27.87
561.223	27.95
561.419	27.92
561.615	28.04
561.811	28.1
562.007	28.08
562.203	28
562.399	28.05
562.595	28.21
562.791	28.44
562.987	28.58
563.183	28.55
563.379	28.6
563.575	28.76
563.771	28.8
563.966	28.89
564.162	29.09
564.358	29.25
564.554	29.33
564.75	29.42
564.945	29.4
565.141	29.41
565.337	29.46
565.533	29.53
565.728	29.45
565.924	29.45
566.12	29.35
566.315	29.35
566.511	29.35
566.707	29.36
566.902	29.33
567.098	29.35
567.293	29.38
567.489	29.47
567.684	29.45
567.88	29.65
568.076	29.77
568.271	29.92
568.467	29.97
568.662	29.98
568.858	30.17
569.053	30.2
569.248	30.27
569.444	30.32
569.639	30.45
569.835	30.48
570.03	30.5
570.225	30.49
570.421	30.56
570.616	30.63
570.812	30.77
571.007	30.73
571.202	30.74
571.397	30.79
571.593	30.76
571.788	30.8
571.983	30.77
572.178	30.82
572.374	30.94
572.569	30.96
572.764	30.9
572.959	30.95
573.154	30.97
573.35	31.13
573.545	31.2
573.74	31.38
573.935	31.34
574.13	31.51
574.325	31.57
574.52	31.56
574.715	31.72
574.91	31.81
575.105	31.77
575.3	31.86
575.495	31.72
575.69	31.79
575.885	31.67
576.08	31.74
576.275	31.76
576.47	31.83
576.665	31.95
576.86	31.96
577.055	32.12
577.25	32.32
577.444	32.22
577.639	32.45
577.834	32.47
578.029	32.64
578.224	32.68
578.418	32.75
578.613	32.73
578.808	32.76
579.003	32.72
579.197	32.58
579.392	32.39
579.587	32.54
579.781	32.57
579.976	32.69
580.171	32.67
580.365	32.67
580.56	32.71
580.755	32.7
580.949	32.88
581.144	32.87
581.338	33.03
581.533	33.14
581.727	33.17
581.922	33.24
582.116	33.02
582.311	32.97
582.505	33.08
582.7	33.19
582.894	33.28
583.089	33.02
583.283	33.23
583.478	33.17
583.672	33.24
583.866	33.29
584.061	33.15
584.255	33.31
584.449	33.29
584.644	33.37
584.838	33.29
585.032	33.26
585.226	33.34
585.421	33.22
585.615	33.29
585.809	33.36
586.003	33.44
586.198	33.55
586.392	33.56
586.586	33.84
586.78	33.77
586.974	33.91
587.168	33.98
587.363	33.96
587.557	34.03
587.751	34
587.945	34.02
588.139	33.99
588.333	34.03
588.527	34.11
588.721	33.97
588.915	34.04
589.109	34.08
589.303	34.12
589.497	34.26
589.691	34.23
589.885	34.34
590.079	34.46
590.273	34.5
590.466	34.47
590.66	34.56
590.854	34.59
591.048	34.67
591.242	34.54
591.436	34.48
591.629	34.48
591.823	34.58
592.017	34.5
592.211	34.51
592.404	34.59
592.598	34.6
592.792	34.72
592.986	34.78
593.179	34.56
593.373	34.73
593.567	34.89
593.76	34.88
593.954	34.91
594.147	35.03
594.341	34.95
594.535	34.89
594.728	35.04
594.922	34.89
595.115	34.95
595.309	35.23
595.502	35.1
595.696	35.09
595.889	35.19
596.083	35.21
596.276	35.23
596.47	35.3
596.663	35.36
596.856	35.28
597.05	35.31
597.243	35.3
597.437	35.24
597.63	35.38
597.823	35.32
598.017	35.23
598.21	35.22
598.403	35.25
598.596	35.2
598.79	35.27
598.983	35.37
599.176	35.37
599.369	35.37
599.563	35.35
599.756	35.3
599.949	35.51
600.142	35.49
600.335	35.5
600.528	35.44
600.722	35.58
600.915	35.43
601.108	35.43
601.301	35.51
601.494	35.64
601.687	35.71
601.88	35.73
602.073	35.6
602.266	35.76
602.459	35.91
602.652	35.86
602.845	35.86
603.038	35.99
603.231	35.92
603.424	35.92
603.617	35.87
603.809	35.93
604.002	35.86
604.195	35.89
604.388	35.91
604.581	35.75
604.774	35.79
604.966	35.71
605.159	35.65
605.352	35.67
605.545	35.76
605.737	35.82
605.93	35.78
606.123	35.83
606.316	35.76
606.508	35.74
606.701	35.86
606.894	35.98
607.086	36.05
607.279	36.28
607.471	36.42
607.664	36.28
607.857	36.4
608.049	36.46
608.242	36.61
608.434	36.92
608.627	37.08
608.819	37.21
609.012	37.42
609.204	37.68
609.397	37.8
609.589	38.02
609.782	38.29
609.974	38.51
610.166	38.85
610.359	39.08
610.551	39.13
610.743	39.3
610.936	39.38
611.128	39.64
611.32	39.73
611.513	39.8
611.705	39.92
611.897	40.16
612.09	40.06
612.282	39.87
612.474	39.85
612.666	39.81
612.858	39.83
613.051	39.84
613.243	39.5
613.435	39.34
613.627	39.29
613.819	39.05
614.011	38.78
614.203	38.76
614.395	38.7
614.588	38.63
614.78	38.73
614.972	38.57
615.164	38.47
615.356	38.4
615.548	38.34
615.74	38.21
615.932	38.16
616.124	37.98
616.315	37.8
616.507	37.58
616.699	37.41
616.891	37.1
617.083	36.98
617.275	37
617.467	36.92
617.659	36.73
617.85	36.61
618.042	36.47
618.234	36.58
618.426	36.78
618.618	36.86
618.809	36.98
619.001	37.14
619.193	37.21
619.384	37.09
619.576	37.08
619.768	37.32
619.959	37.38
620.151	37.44
620.343	37.37
620.534	37.25
620.726	37.23
620.917	37.16
621.109	37.15
621.301	37.11
621.492	37.26
621.684	37.14
621.875	37.01
622.067	37.13
622.258	36.98
622.45	37.04
622.641	36.98
622.832	37.19
623.024	37.14
623.215	37.19
623.407	37.27
623.598	37.21
623.789	37.33
623.981	37.3
624.172	37.37
624.363	37.53
624.555	37.42
624.746	37.57
624.937	37.44
625.129	37.62
625.32	37.56
625.511	37.49
625.702	37.55
625.893	37.64
626.085	37.64
626.276	37.39
626.467	37.39
626.658	37.47
626.849	37.39
627.04	37.26
627.231	37.05
627.422	37.1
627.614	37.25
627.805	37.24
627.996	37.12
628.187	37.3
628.378	37.47
628.569	37.52
628.76	37.47
628.951	37.51
629.142	37.71
629.332	37.79
629.523	37.76
629.714	37.59
629.905	37.45
630.096	37.62
630.287	37.59
630.478	37.69
630.669	37.76
630.859	37.95
631.05	37.87
631.241	37.95
631.432	37.98
631.623	37.87
631.813	37.85
632.004	37.92
632.195	37.91
632.385	37.85
632.576	37.69
632.767	37.57
632.957	37.44
633.148	37.37
633.339	37.23
633.529	37.13
633.72	37.16
633.91	37.2
634.101	37.15
634.292	37.11
634.482	37.09
634.673	36.99
634.863	37.2
635.054	37.21
635.244	37.24
635.435	37.29
635.625	37.41
635.815	37.38
636.006	37.36
636.196	37.46
636.387	37.45
636.577	37.44
636.767	37.6
636.958	37.53
637.148	37.64
637.338	37.77
637.529	37.74
637.719	37.62
637.909	37.84
638.099	37.89
638.29	37.96
638.48	37.98
638.67	37.89
638.86	37.88
639.05	37.86
639.241	37.82
639.431	37.82
639.621	37.72
639.811	37.86
640.001	37.67
640.191	37.66
640.381	37.49
640.571	37.44
640.761	37.48
640.951	37.41
641.141	37.41
641.331	37.35
641.521	37.24
641.711	37.36
641.901	37.53
642.091	37.85
642.281	37.68
642.471	37.82
642.661	37.81
642.851	37.81
643.041	37.84
643.231	37.7
643.42	37.59
643.61	37.51
643.8	37.51
643.99	37.34
644.18	37.19
644.369	37.51
644.559	37.5
644.749	37.61
644.939	37.61
645.128	37.58
645.318	37.75
645.508	38.03
645.697	38.05
645.887	37.97
646.076	38.02
646.266	37.91
646.456	37.78
646.645	37.75
646.835	37.58
647.024	37.55
647.214	37.41
647.403	37.25
647.593	37.14
647.782	37.32
647.972	37.21
648.161	37.19
648.351	37.36
648.54	37.5
648.73	37.4
648.919	37.47
649.108	37.51
649.298	37.75
649.487	37.9
649.677	37.8
649.866	37.68
650.055	37.95
650.244	37.68
650.434	37.5
650.623	37.31
650.812	37.47
651.002	37.62
651.191	37.46
651.38	37.43
651.569	37.55
651.758	37.68
651.947	37.87
652.137	37.95
652.326	38.19
652.515	38.12
652.704	38.04
652.893	37.93
653.082	37.94
653.271	38.02
653.46	38.04
653.649	37.88
653.838	37.78
654.027	37.71
654.216	37.74
654.405	37.74
654.594	37.9
654.783	37.98
654.972	38.03
655.161	37.79
655.35	37.87
655.539	37.83
655.728	37.95
655.916	37.95
656.105	37.89
656.294	37.98
656.483	38.04
656.672	37.91
656.86	37.97
657.049	38.22
657.238	38.39
657.427	38.48
657.615	38.43
657.804	38.22
657.993	38.27
658.181	38.29
658.37	38.2
658.559	38.2
658.747	38.35
658.936	38.38
659.125	38.15
659.313	38.02
659.502	38.06
659.69	37.99
659.879	38.1
660.067	38.16
660.256	38.02
660.444	38.07
660.633	38.1
660.821	38.07
661.01	37.87
661.198	37.83
661.387	37.98
661.575	37.85
661.763	38.03
661.952	37.97
662.14	37.76
662.328	37.78
662.517	37.65
662.705	37.58
662.893	37.45
663.082	37.58
663.27	37.86
663.458	37.99
663.646	37.91
663.834	37.84
664.023	37.85
664.211	37.88
664.399	37.81
664.587	37.71
664.775	37.77
664.963	37.72
665.152	37.74
665.34	37.5
665.528	37.34
665.716	37.55
665.904	37.57
666.092	37.58
666.28	37.7
666.468	37.78
666.656	37.82
666.844	37.71
667.032	37.65
667.22	37.79
667.408	37.81
667.596	37.82
667.784	37.85
667.971	37.82
668.159	37.78
668.347	37.71
668.535	37.83
668.723	37.78
668.911	37.49
669.098	37.65
669.286	37.71
669.474	37.69
669.662	37.67
669.849	37.66
670.037	37.72
670.225	37.76
670.413	37.78
670.6	37.72
670.788	37.71
670.976	38.06
671.163	38.02
671.351	37.82
671.538	38
671.726	38.03
671.913	37.96
672.101	37.84
672.289	38.04
672.476	37.97
672.664	38.1
672.851	37.93
673.039	37.86
673.226	37.8
673.413	37.73
673.601	37.71
673.788	37.79
673.976	37.7
674.163	37.89
674.35	37.72
674.538	37.81
674.725	37.71
674.912	37.87
675.1	37.88
675.287	37.99
675.474	38.24
675.662	38.21
675.849	38.12
676.036	38.12
676.223	37.98
676.411	38.11
676.598	38.07
676.785	38.14
676.972	38.08
677.159	38.14
677.346	38.61
677.533	38.56
677.721	38.44
677.908	38.33
678.095	38.22
678.282	38.31
678.469	37.97
678.656	38.1
678.843	38.07
679.03	38.2
679.217	38.21
679.404	37.84
679.591	37.79
679.778	37.92
679.964	37.96
680.151	38.05
680.338	38.29
680.525	38.26
680.712	38.05
680.899	38.22
681.086	38.15
681.272	37.77
681.459	37.58
681.646	37.42
681.833	37.46
682.02	37.4
682.206	37.4
682.393	37.16
682.58	37.33
682.766	37.55
682.953	37.26
683.14	37.35
683.326	37.67
683.513	37.97
683.7	37.88
683.886	37.76
684.073	37.87
684.259	37.97
684.446	38.07
684.632	38.04
684.819	37.93
685.005	38.03
685.192	38.25
685.378	38.15
685.565	37.96
685.751	38.12
685.938	37.91
686.124	37.66
686.31	37.44
686.497	37.08
686.683	37.35
686.87	37.4
687.056	37.38
687.242	37.11
687.429	37.07
687.615	37.06
687.801	37.07
687.987	37.32
688.174	37.66
688.36	37.68
688.546	37.8
688.732	37.69
688.918	37.92
689.105	37.78
689.291	37.86
689.477	38.14
689.663	38.25
689.849	38.26
690.035	38.12
690.221	38.37
690.407	38.54
690.593	38.62
690.779	38.66
690.965	38.59
691.151	38.9
691.337	38.48
691.523	38.02
691.709	37.97
691.895	38.01
692.081	38.01
692.267	37.57
692.453	37.53
692.639	37.44
692.825	37.14
693.011	37.1
693.196	36.84
693.382	37.04
693.568	37.55
693.754	37.59
693.94	37.4
694.125	37.65
694.311	37.45
694.497	37.54
694.682	37.64
694.868	37.9
695.054	37.65
695.239	37.94
695.425	38.02
695.611	38.03
695.796	38.05
695.982	38.17
696.168	37.8
696.353	37.84
696.539	37.76
696.724	37.6
696.91	37.67
697.095	37.89
697.281	37.56
697.466	37.85
697.652	37.89
697.837	37.98
698.023	38.09
698.208	38.22
698.393	38.33
698.579	38.42
698.764	38.35
698.949	38.07
699.135	37.84
699.32	38.04
699.505	37.76
699.691	37.6
699.876	37.4
700.061	37.1
700.246	36.99
700.432	37.02
700.617	36.92
700.802	37.14
700.987	37.42
701.172	37.3
701.358	37.2
701.543	37.66
701.728	37.62
701.913	37.8
702.098	38.37
702.283	38.67
702.468	38.64
702.653	38.34
702.838	37.92
703.023	38.16
703.208	38.63
703.393	38.48
703.578	37.95
703.763	37.94
703.948	37.88
704.133	37.81
704.318	37.94
704.503	37.88
704.688	38.06
704.873	38.64
705.057	38.13
705.242	38.12
705.427	38.68
705.612	39.06
705.797	39.56
705.981	40.07
706.166	39.91
706.351	39.46
706.536	39.51
706.72	39.74
706.905	39.69
707.09	39.77
707.274	39.92
707.459	39.34
707.644	39.22
707.828	39.01
708.013	38.42
708.197	38.43
708.382	38.53
708.567	38.95
708.751	38.89
708.936	38.6
709.12	38.59
709.305	38.28
709.489	38.51
709.673	38.45
709.858	38.59
710.042	39.01
710.227	39.12
710.411	39.55
710.596	39.26
710.78	39.26
710.964	39.21
711.149	39.47
711.333	39.67
711.517	39.81
711.702	40.01
711.886	39.61
712.07	39.57
712.254	39.41
712.438	38.92
712.623	38.62
712.807	38.45
712.991	38.66
713.175	38.65
713.359	38.4
713.544	38.05
713.728	37.77
713.912	37.91
714.096	37.78
714.28	37.79
714.464	38.13
714.648	38.28
714.832	38.07
715.016	38.11
715.2	37.81
715.384	37.8
715.568	37.99
715.752	38.05
715.936	37.96
716.12	37.58
716.304	37.48
716.488	37.2
716.671	36.93
716.855	37.1
717.039	37.21
717.223	37.2
717.407	37.27
717.59	36.78
717.774	36.58
717.958	36.46
718.142	36.72
718.325	36.8
718.509	36.91
718.693	37.15
718.877	37.42
719.06	37.46
719.244	37.55
719.428	36.98
719.611	37.53
719.795	37.48
719.978	37.61
720.162	37.82
720.345	38.05
720.529	37.67
720.713	37.87
720.896	37.7
721.08	37.35
721.263	37.11
721.446	37.73
721.63	37.57
721.813	37.94
721.997	37.79
722.18	37.57
722.364	37.03
722.547	37.55
722.73	37.72
722.914	37.54
723.097	37.25
723.28	37.23
723.464	36.97
723.647	36.74
723.83	36.5
724.013	36.46
724.197	36.37
724.38	36.52
724.563	36.5
724.746	36.27
724.929	36.42
725.112	36.34
725.296	36.48
725.479	36.84
725.662	37.25
725.845	37.03
726.028	37.18
726.211	37.08
726.394	36.95
726.577	37.05
726.76	36.79
726.943	36.94
727.126	37.76
727.309	37.53
727.492	37.3
727.675	37.27
727.858	37.61
728.041	37.8
728.224	38.07
728.407	38.19
728.589	38.09
728.772	38.13
728.955	37.98
729.138	37.32
729.321	37.63
729.503	37.71
729.686	37.94
729.869	37.8
730.052	37.67
730.234	37.62
730.417	37.43
730.6	37.17
730.782	37.58
730.965	37.71
731.148	38.23
731.33	37.82
731.513	37.61
731.695	36.71
731.878	36.85
732.061	37.01
732.243	36.95
732.426	37.26
732.608	37.54
732.791	37.52
732.973	37.15
733.156	36.79
733.338	37.07
733.52	37.27
733.703	37.62
733.885	37.3
734.068	36.93
734.25	36.87
734.432	36.8
734.615	36.25
734.797	35.71
734.979	35.75
735.162	35.67
735.344	35.93
735.526	35.85
735.708	36.14
735.891	36.14
736.073	36.17
736.255	36.54
736.437	36.46
736.619	37.26
736.802	37.48
736.984	37.41
737.166	37.2
737.348	37.2
737.53	36.78
737.712	36.68
737.894	37.05
738.076	37.29
738.258	36.79
738.44	36.42
738.622	35.95
738.804	36.04
738.986	36.31
739.168	36.47
739.35	36.62
739.532	36.81
739.714	36.71
739.896	36.55
740.078	36.25
740.259	36.4
740.441	36.22
740.623	36.38
740.805	36.21
740.987	35.77
741.168	35.08
741.35	35.27
741.532	35.66
741.714	35.84
741.895	35.73
742.077	36.14
742.259	35.87
742.44	36.32
742.622	36.02
742.804	36.2
742.985	36.66
743.167	37.7
743.348	37.24
743.53	37.06
743.711	37.01
743.893	36.94
744.075	36.92
744.256	37.1
744.438	37.87
744.619	37.9
744.8	37.85
744.982	38.16
745.163	38.33
745.345	37.76
745.526	38.3
745.707	38.53
745.889	38.38
746.07	38.5
746.252	38.4
746.433	38.21
746.614	38.15
746.795	38.37
746.977	37.92
747.158	37.38
747.339	37.72
747.52	37.2
747.702	37.09
747.883	37.3
748.064	36.54
748.245	36.71
748.426	36.05
748.607	35.84
748.788	35.94
748.97	36.19
749.151	36.36
749.332	37
749.513	36.84
749.694	36.8
749.875	36.4
750.056	37
750.237	37.12
750.418	37.16
750.599	37.88
750.78	37.5
750.96	38.22
751.141	37.85
751.322	37.1
751.503	36.95
751.684	36.67
751.865	37.05
752.046	36.59
752.226	36.06
752.407	36.66
752.588	36.72
752.769	36.76
752.949	36.26
753.13	36.53
753.311	37.25
753.492	38.16
753.672	38.85
753.853	38.37
754.034	38.69
754.214	39.35
754.395	39.2
754.575	38.24
754.756	37.91
754.937	37.17
755.117	37.12
755.298	36.7
755.478	35.74
755.659	35.17
755.839	36.62
756.02	36.52
756.2	35.98
756.381	35.81
756.561	36.68
756.741	36.91
756.922	37.17
757.102	37.5
757.283	37.54
757.463	37.77
757.643	38.04
757.823	37.18
758.004	37.17
758.184	37.08
758.364	37.02
758.545	36.25
758.725	36.18
758.905	35.55
759.085	35.32
759.265	34.81
759.446	34.83
759.626	34.36
759.806	34.25
759.986	34.26
760.166	35.1
760.346	35.33
760.526	35.53
760.706	35.7
760.886	36.41
761.066	36.73
761.246	37.42
761.426	37.93
761.606	38.08
761.786	38.32
761.966	38.78
762.146	38.51
762.326	38.09
762.506	38.17
762.686	38.43
762.866	38.32
763.046	37.67
763.225	37.29
763.405	37.04
763.585	37.34
763.765	37.51
763.945	36.81
764.124	36.65
764.304	36.77
764.484	36.7
764.664	36.29
764.843	36.37
765.023	36.68
765.203	36.84
765.382	36.55
765.562	36.65
765.741	36.27
765.921	36.63
766.101	36.69
766.28	36.52
766.46	36.35
766.639	36.49
766.819	36.59
766.998	36.49
767.178	36.4
767.357	36.63
767.537	35.96
767.716	36
767.896	36.18
768.075	36
768.254	36.2
768.434	36.17
768.613	37.35
768.792	37.01
768.972	37.31
769.151	37.01
769.33	36.81
769.51	37
769.689	36.81
769.868	37.28
770.047	36.55
770.226	36.03
770.406	36.32
770.585	35.8
770.764	35.86
770.943	35.62
771.122	36.14
771.301	36.2
771.48	36.56
771.66	36.38
771.839	35.58
772.018	35.7
772.197	36.13
772.376	35.88
772.555	34.61
772.734	34.93
772.913	34.89
773.092	35.01
773.271	34.78
773.449	34.36
773.628	34.78
773.807	35.16
773.986	36.03
774.165	36.2
774.344	36.62
774.523	37.57
774.701	37.45
774.88	37.4
775.059	37.83
775.238	37.89
775.417	38.02
775.595	37.98
775.774	37.2
775.953	37.24
776.131	37.62
776.31	37.78
776.489	36.68
776.667	36.74
776.846	36.87
777.025	35.95
777.203	35.94
777.382	36.01
777.56	35.18
777.739	36.66
777.917	36.83
778.096	36.6
778.274	35.88
778.453	36.27
778.631	36.33
778.81	35.38
778.988	35.91
779.166	36.6
779.345	36.78
779.523	37.46
779.702	36.53
779.88	36.74
780.058	36.76
780.237	36.94
780.415	36.79
780.593	36.33
780.771	37.37
780.95	36.01
781.128	35.63
781.306	35.43
781.484	35.39
781.662	35.35
781.841	34.71
782.019	34.59
782.197	35.17
782.375	35.97
782.553	36.01
782.731	36.43
782.909	36.45
783.087	36.47
783.265	36.18
783.443	35.77
783.621	35.93
783.799	34.88
783.977	35.19
784.155	34.35
784.333	34.32
784.511	33.9
784.689	32.25
784.867	33.3
785.045	32.55
785.223	32.41
785.4	32.43
785.578	31.62
785.756	32.17
785.934	32.11
786.112	31.81
786.289	30.99
786.467	31.26
786.645	33.03
786.823	32.52
787	33.6
787.178	34.15
787.356	35.33
787.533	35.03
787.711	36.44
787.889	34.98
788.066	34.98
788.244	35.17
788.421	35.22
788.599	33.79
788.776	33.28
788.954	32.56
789.131	32.14
789.309	32.03
789.486	32.42
789.664	31.41
789.841	32.18
790.019	32.24
790.196	31.54
790.373	32.47
790.551	32.87
790.728	33.96
790.906	34.44
791.083	34.87
791.26	34.47
791.437	34.6
791.615	35.13
791.792	34.99
791.969	35.59
792.146	37.18
792.324	35.8
792.501	37.52
792.678	38.28
792.855	37.62
793.032	37.65
793.209	37.67
793.387	37.98
793.564	37.97
793.741	37.95
793.918	38.12
794.095	37.1
794.272	38.11
794.449	37.42
794.626	36.74
794.803	37.56
794.98	37.25
795.157	35.7
795.334	34.96
795.511	35.04
795.688	35.93
795.864	35.56
796.041	35.32
796.218	34.45
796.395	33.94
796.572	34.06
796.749	32.79
796.925	33.31
797.102	35.35
797.279	35.96
797.456	35.61
797.632	35.51
797.809	36.39
797.986	36.73
798.162	38.21
798.339	38.58
798.516	38.05
798.692	38.2
798.869	37.52
799.046	37.06
799.222	36.93
799.399	36.42
799.575	35.41
799.752	33.62
799.928	33.96
800.105	32.22
800.281	32.2
800.458	31.99
800.634	32.28
800.811	31.95
800.987	30.81
801.163	30.23
801.34	30.64
801.516	31.77
801.692	32.46
801.869	32.36
802.045	32.66
802.221	31.72
802.398	31.86
802.574	32.4
802.75	33.07
802.926	33.85
803.103	34.19
803.279	34.66
803.455	34.34
803.631	35.29
803.807	35.21
803.983	35.42
804.16	36.64
804.336	36.52
804.512	35.85
804.688	37.29
804.864	36.76
805.04	38.58
805.216	38.52
805.392	38.24
805.568	37.22
805.744	38
805.92	37.99
806.096	36.88
806.272	36.94
806.448	37.75
806.623	36.56
806.799	36.85
806.975	36.14
807.151	36.42
807.327	36.11
807.503	36.49
807.678	34.67
807.854	34.55
808.03	35.41
808.206	36.69
808.381	36.25
808.557	35.17
808.733	35.62
808.908	34.85
809.084	33.56
809.26	32.29
809.435	31.76
809.611	32.55
809.787	34.05
809.962	33.39
810.138	31.2
810.313	32.27
810.489	33.04
810.664	33.35
810.84	33.05
811.015	33.47
811.191	35.39
811.366	35.83
811.542	36.12
811.717	34.84
811.892	35.66
812.068	37.12
812.243	34.92
812.419	34.1
812.594	33.74
812.769	34.2
812.944	34.37
813.12	34.51
813.295	34.65
813.47	33.7
813.645	34.19
813.821	33.06
813.996	32.12
814.171	33.47
814.346	34.59
814.521	33.96
814.697	34.36
814.872	33.54
815.047	32.22
815.222	30.34
815.397	30.87
815.572	31.28
815.747	31.68
815.922	32.41
816.097	33.46
816.272	32.17
816.447	32.37
816.622	31.97
816.797	33.75
816.972	35.17
817.147	37.27
817.322	38.67
817.496	38.63
817.671	38.85
817.846	39.07
818.021	38.64
818.196	38.19
818.371	39.34
818.545	38.37
818.72	36.27
818.895	36.27
819.069	35.68
819.244	34.32
819.419	33.78
819.594	34.15
819.768	33.63
819.943	33.6
820.117	34.06
820.292	33.86
820.467	34.82
820.641	35.24
820.816	34.7
820.99	35.64
821.165	35.89
821.339	35.57
821.514	35.65
821.688	35.7
821.863	35.52
822.037	35.76
822.212	35.47
822.386	35.21
822.56	35.39
822.735	35.56
822.909	35.2
823.084	35.09
823.258	35.21
823.432	34.91
823.606	34.83
823.781	34.72
823.955	34.46
824.129	34.62
824.303	34.79
824.478	34.55
824.652	34.46
824.826	34.38
825	34.15
825.174	34.21
825.348	34.7
825.523	34.56
825.697	34.69
825.871	35.03
826.045	35.07
826.219	34.96
826.393	35.06
826.567	35.31
826.741	35.11
826.915	35.34
827.089	35.05
827.263	34.82
827.437	35.08
827.611	34.94
827.784	34.43
827.958	34.12
828.132	33.77
828.306	33.49
828.48	32.83
828.654	32.21
828.827	32.03
829.001	31.72
829.175	31.15
829.349	30.75
829.522	30.64
829.696	30.75
829.87	30.81
830.044	30.8
830.217	31.14
830.391	30.62
830.565	32.52
830.738	31.74
830.912	33.53
831.085	34.25
831.259	35.03
831.432	34.68
831.606	35.31
831.779	34.93
831.953	34.26
832.126	33.14
832.3	34.23
832.473	34.21
832.647	35.15
832.82	33.69
832.994	33.03
833.167	32.91
833.34	33.46
833.514	32.92
833.687	32.53
833.86	33.18
834.034	33.52
834.207	33.28
834.38	32.97
834.553	33.1
834.727	33.13
834.9	33.36
835.073	32.5
835.246	32.37
835.419	33.25
835.593	33.41
835.766	33.12
835.939	33.45
836.112	33.81
836.285	33.21
836.458	32.04
836.631	32.61
836.804	33.03
836.977	33.57
837.15	34.06
837.323	32.84
837.496	33.13
837.669	33.85
837.842	33.48
838.015	31.47
838.188	31.86
838.361	33.8
838.533	32.98
838.706	32.45
838.879	32.61
839.052	31.2
839.225	30.04
839.398	29.39
839.57	29.22
839.743	27.87
839.916	28.18
840.088	27.68
840.261	27.89
840.434	27.77
840.607	28.08
840.779	27.73
840.952	29.47
841.124	31.32
841.297	31.04
841.47	31.42
841.642	33.24
841.815	34.55
841.987	35.48
842.16	35.54
842.332	36.55
842.505	34.1
842.677	35.2
842.85	33.86
843.022	32.05
843.194	33.38
843.367	34.16
843.539	33.47
843.712	33.31
843.884	34
844.056	32.81
844.229	33.76
844.401	34.57
844.573	32.69
844.745	34.9
844.918	35.89
845.09	35.07
845.262	35.33
845.434	35.59
845.606	38.69
845.779	35.07
845.951	33.17
846.123	27.72
846.295	28.5
846.467	28.54
846.639	27.91
846.811	27.59
846.983	26.76
847.155	25.02
847.327	26.17
847.499	21.7
847.671	27.35
847.843	30.22
848.015	33.44
848.187	36.77
848.359	38.62
848.531	35.4
848.703	35.49
848.875	39.24
849.047	41.97
849.218	43.17
849.39	43.96
849.562	37.95
849.734	34.43
849.905	36.28
850.077	35.04
850.249	35.17
850.421	35.67
850.592	34.03
850.764	31.6
850.936	25.17
851.107	21.35
851.279	19.71
851.451	22.82
851.622	23.83
851.794	22.13
851.965	21.6
852.137	21.16
852.308	22.44
852.48	26.04
852.651	24.93
852.823	28.11
852.994	29.36
853.166	32.89
853.337	31.93
853.509	34.34
853.68	35.97
853.851	32.63
854.023	31.35
854.194	31.59
854.365	28.56
854.537	31.27
854.708	29.4
854.879	27.82
855.05	27
855.222	29.06
855.393	29.03
855.564	25.4
855.735	27.19
855.906	27.99
856.078	27.63
856.249	28.59
856.42	25.58
856.591	26.82
856.762	29.78
856.933	27.6
857.104	25.88
857.275	21.47
857.446	25.81
857.617	27.5
857.788	26.26
857.959	24.66
858.13	28.34
858.301	33.29
858.472	31.23
858.643	29.58
858.814	30.19
858.985	25.93
859.155	24.55
859.326	25.14
859.497	23.36
859.668	24.85
859.839	23.59
860.009	20.42
860.18	16.98
860.351	20.07
860.522	21.71
860.692	19.83
860.863	21.95
861.034	25.33
861.204	24.09
861.375	25.43
861.546	22.39
861.716	25.47
861.887	28.44
862.057	26.65
862.228	26.66
862.398	22.56
862.569	24.18
862.739	26.69
862.91	27.16
863.08	25.34
863.251	21.55
863.421	22.23
863.592	25.85
863.762	23.91
863.932	26.11
864.103	26.21
864.273	28.38
864.443	27.99
864.614	29.33
864.784	28.85
864.954	26.93
865.125	32.71
865.295	36.2
865.465	32.7
865.635	31.55
865.805	30.47
865.976	25.89
866.146	23.13
866.316	26.4
866.486	26.66
866.656	24.84
866.826	27.24
866.996	24.42
867.166	18.75
867.336	15.4
867.506	15.69
867.676	19.4
867.846	24.21
868.016	25.24
868.186	21.71
868.356	19.02
868.526	24.19
868.696	23.01
868.866	25.32
869.036	30.38
869.206	35.63
869.376	32.69
869.545	30.49
869.715	28.36
869.885	31.28
870.055	34.58
870.224	30.48
870.394	25.29
870.564	25.33
870.734	28.24
870.903	22.94
871.073	19.26
871.243	20.23
871.412	23.8
871.582	21.83
871.751	19.98
871.921	18.37
872.091	25.2
872.26	29.43
872.43	26.13
872.599	23.74
872.769	28.54
872.938	33.56
873.108	31.52
873.277	28.87
873.446	31
873.616	30.71
873.785	28.43
873.955	31.28
874.124	30.45
874.293	31.5
874.463	27.39
874.632	28.54
874.801	24.82
874.971	27.45
875.14	27.69
875.309	29.05
875.478	28.31
875.647	30.87
875.817	23.13
875.986	20.88
876.155	23.13
876.324	25.01
876.493	23.41
876.662	25.33
876.831	27.49
877	25.31
877.17	23.3
877.339	28.51
877.508	29.33
877.677	32.74
877.846	34.08
878.015	33.25
878.184	30.17
878.352	27.19
878.521	27.19
878.69	24.91
878.859	24.69
879.028	25.95
879.197	21.8
879.366	22.79
879.534	26.06
879.703	24.02
879.872	24.14
880.041	26.53
880.21	29.11
880.378	28.3
880.547	28.07
880.716	29.12
880.884	31.37
881.053	32.02
881.222	31.79
881.39	31.71
881.559	32.08
881.727	33.05
881.896	33.28
882.065	33.1
882.233	33.41
882.402	33.94
882.57	34.06
882.739	33.36
882.907	33.31
883.076	33.18
883.244	33.11
883.412	33
883.581	32.53
883.749	31.95
883.918	32
884.086	32.15
884.254	31.92
884.423	31.87
884.591	32.03
884.759	32.63
884.927	33.58
885.096	32.88
885.264	33.65
885.432	34.09
885.6	36.2
885.769	34.1
885.937	32.92
886.105	33.3
886.273	33.47
886.441	31.3
886.609	30.31
886.777	30.64
886.945	30.91
887.113	31.35
887.281	29.81
887.449	27.45
887.617	30.54
887.785	31.16
887.953	27.19
888.121	25.5
888.289	27.17
888.457	26.85
888.625	23.33
888.793	25.05
888.961	27.01
889.129	28.68
889.296	28.54
889.464	28.14
889.632	29.32
889.8	35.09
889.967	37.13
890.135	38.24
