Data from 2938754__Reflection_03.txt Node
Date: Sat Mar 14 14:22:19 EDT 2015
User: robert
Spectrometer: USB4E03002
Autoset integration time: false
Trigger mode: 4
Integration Time (sec): 1.000000E-1
Scans to average: 10
Electric dark correction enabled: false
Nonlinearity correction enabled: false
Boxcar width: 5
Stray light correction enabled: false
XAxis mode: Wavelengths
Stop averaging: false
Number of Pixels in Spectrum: 3648
>>>>>Begin Spectral Data<<<<<
177.575	118.36
177.794	142.28
178.014	110.77
178.233	123.87
178.452	143.04
178.672	183.69
178.891	349.38
179.11	450.82
179.33	839.71
179.549	254.65
179.768	271.62
179.987	240.35
180.207	395.6
180.426	3223.08
180.645	1777.55
180.864	1777.78
181.084	460.71
181.303	306.96
181.522	821.79
181.741	841.27
181.96	-304.96
182.179	-391.88
182.398	-297.3
182.618	-428.66
182.837	1261.9
183.056	472.77
183.275	745.28
183.494	1937.5
183.713	597.54
183.932	352.22
184.151	420.1
184.37	227.57
184.589	174.03
184.808	155.99
185.027	98.65
185.246	84.13
185.465	102.66
185.684	125.11
185.903	235.74
186.122	1940
186.341	-2094.44
186.56	-511.57
186.779	-448.28
186.998	-555.91
187.216	-5387.5
187.435	-1119.59
187.654	-7725
187.873	1703.85
188.092	-581.86
188.311	1165.22
188.53	554.05
188.748	751.9
188.967	865.49
189.186	1083.5
189.405	661.54
189.623	830.65
189.842	577.19
190.061	3417.39
190.28	-3894.12
190.498	303.17
190.717	676.4
190.936	-19100
191.154	289.55
191.373	205.5
191.592	191.3
191.81	150.13
192.029	138.27
192.248	121.23
192.466	135.36
192.685	134.81
192.904	108.88
193.122	109.2
193.341	105.74
193.559	107.14
193.778	113.83
193.996	121.06
194.215	146.01
194.433	171.94
194.652	182.98
194.87	176.02
195.089	180.38
195.307	158.59
195.526	139.8
195.744	151.52
195.963	156.59
196.181	152.58
196.399	163.27
196.618	183.39
196.836	169.72
197.055	168.24
197.273	206.27
197.491	270.81
197.71	670.78
197.928	533.47
198.146	358.65
198.365	412.18
198.583	666.67
198.801	915.22
199.019	648.77
199.238	4243.48
199.456	1188.42
199.674	1433.8
199.892	529.17
200.111	950.86
200.329	-746.15
200.547	-1324.19
200.765	-396.96
200.983	-941.94
201.202	-700.94
201.42	-787.96
201.638	-10012.5
201.856	2571.43
202.074	404.37
202.292	505.79
202.51	613.98
202.728	331.3
202.946	231.88
203.165	128.27
203.383	138.72
203.601	118.18
203.819	66.21
204.037	82.8
204.255	123.66
204.473	141.8
204.691	138.19
204.909	132.09
205.127	169.75
205.345	285.15
205.562	210.15
205.78	196.21
205.998	406.25
206.216	726.89
206.434	1000
206.652	957.53
206.87	3480
207.088	607.84
207.306	271.09
207.523	196.63
207.741	206.56
207.959	196.25
208.177	254.01
208.395	248.4
208.612	209.3
208.83	234.11
209.048	246.18
209.266	261.34
209.483	212.89
209.701	175.53
209.919	216.59
210.136	151.16
210.354	138.96
210.572	120.38
210.79	101.73
211.007	100.81
211.225	86.72
211.442	102.74
211.66	110.57
211.878	123.14
212.095	228.72
212.313	209.88
212.53	310.57
212.748	402.33
212.966	614.12
213.183	661.27
213.401	1242.11
213.618	371.43
213.836	258.44
214.053	213.6
214.271	247.89
214.488	76.6
214.705	92.78
214.923	79.23
215.14	80.45
215.358	76.91
215.575	78.3
215.793	66.2
216.01	62.98
216.227	59.49
216.445	66.48
216.662	42.32
216.879	54.72
217.097	58.5
217.314	64.99
217.531	56.24
217.749	53.75
217.966	36.14
218.183	51.88
218.4	54.17
218.618	75.23
218.835	68.12
219.052	86.99
219.269	87.18
219.487	81.68
219.704	71.35
219.921	73.42
220.138	66.41
220.355	56.02
220.572	43.72
220.79	46.09
221.007	43.91
221.224	47.24
221.441	28.6
221.658	13.39
221.875	14.08
222.092	16.85
222.309	23.12
222.526	16.3
222.743	25.55
222.96	28.05
223.177	35.52
223.394	29.94
223.611	31.14
223.828	43.38
224.045	50.74
224.262	46.66
224.479	37.62
224.696	28.7
224.913	35.72
225.13	35.93
225.347	37.23
225.564	31.96
225.781	28.46
225.997	26.19
226.214	23.29
226.431	16.35
226.648	13.86
226.865	12.66
227.082	16.05
227.298	12.73
227.515	11.42
227.732	8.73
227.949	10.88
228.165	10.2
228.382	10.69
228.599	8.77
228.816	9.58
229.032	8.22
229.249	8.59
229.466	7.65
229.682	7.24
229.899	5.52
230.116	6.25
230.332	4.39
230.549	4.5
230.765	0.9
230.982	1.51
231.199	1.46
231.415	1.65
231.632	3.26
231.848	2.22
232.065	2.87
232.281	4.57
232.498	4.58
232.714	6.07
232.931	6.87
233.147	9.33
233.364	7.85
233.58	8.35
233.797	11.35
234.013	8.25
234.23	8.27
234.446	8.12
234.662	7.22
234.879	7.52
235.095	7.28
235.312	7.38
235.528	9.23
235.744	10.72
235.961	9.75
236.177	7.64
236.393	9.58
236.61	10.21
236.826	11.1
237.042	11.28
237.258	11.11
237.475	11.17
237.691	10.51
237.907	8.64
238.123	9.25
238.339	7.26
238.556	6.31
238.772	4.16
238.988	3.95
239.204	3.19
239.42	4.93
239.636	2.22
239.853	3.48
240.069	3.64
240.285	3.91
240.501	2.72
240.717	2.91
240.933	3.25
241.149	3.18
241.365	3.09
241.581	2.66
241.797	2.16
242.013	2.6
242.229	1.28
242.445	1.43
242.661	1.36
242.877	1.57
243.093	2.01
243.309	2.44
243.525	3.71
243.741	4.23
243.957	4.96
244.173	4.79
244.388	5.24
244.604	6.52
244.82	5.71
245.036	6.49
245.252	6.82
245.468	6.58
245.683	5.84
245.899	5.38
246.115	4.7
246.331	4.94
246.547	5.15
246.762	5.26
246.978	4.81
247.194	5.36
247.409	5.04
247.625	5
247.841	5.25
248.057	5.38
248.272	5.02
248.488	5.68
248.703	5.24
248.919	5.17
249.135	5.06
249.35	5.24
249.566	4.68
249.782	4.81
249.997	4.68
250.213	4.48
250.428	4.89
250.644	4.76
250.859	3.33
251.075	3.62
251.29	3.26
251.506	4.1
251.721	4.6
251.937	4.71
252.152	4.42
252.368	4.53
252.583	4.25
252.798	3.92
253.014	3.8
253.229	4.28
253.445	4.05
253.66	4.13
253.875	2.61
254.091	2.36
254.306	2.74
254.521	3.27
254.737	3.53
254.952	3
255.167	3.4
255.383	3.88
255.598	3.75
255.813	3.95
256.028	5.34
256.244	6.81
256.459	6.91
256.674	6.3
256.889	5.7
257.104	4.31
257.32	5.53
257.535	5.26
257.75	4.86
257.965	4.76
258.18	4.44
258.395	4.25
258.61	3.99
258.826	4.02
259.041	4.01
259.256	4.07
259.471	4.36
259.686	4.06
259.901	3.94
260.116	4.35
260.331	4.62
260.546	4.53
260.761	4.35
260.976	4.2
261.191	3.91
261.406	4.12
261.621	4.2
261.836	4.2
262.05	3.96
262.265	4.29
262.48	3.49
262.695	2.91
262.91	3.7
263.125	3.9
263.34	3.96
263.555	3.66
263.769	3.2
263.984	3.06
264.199	2.83
264.414	3.09
264.629	3.03
264.843	4.06
265.058	4.42
265.273	3.84
265.488	3.7
265.702	3.97
265.917	4.23
266.132	4.48
266.346	4.17
266.561	4.27
266.776	4.26
266.99	4.29
267.205	3.78
267.42	3.55
267.634	3.7
267.849	3.57
268.063	3.71
268.278	3.96
268.492	4.18
268.707	4.38
268.922	4.37
269.136	4.14
269.351	4.09
269.565	4.28
269.78	4.35
269.994	4.37
270.209	4.13
270.423	3.9
270.637	3.99
270.852	3.6
271.066	3.58
271.281	3.49
271.495	3.3
271.709	2.91
271.924	2.58
272.138	2.42
272.353	2.36
272.567	2.72
272.781	2.63
272.996	2.4
273.21	2.81
273.424	2.61
273.638	2.9
273.853	2.77
274.067	3.33
274.281	3.7
274.495	3.52
274.71	3.42
274.924	2.97
275.138	3.12
275.352	2.91
275.566	1.95
275.781	2.58
275.995	2.48
276.209	3.54
276.423	3.44
276.637	3.12
276.851	3.21
277.065	3.94
277.279	3.98
277.493	3.97
277.707	5.03
277.921	5.47
278.135	5.06
278.349	4.78
278.563	4.2
278.777	3.88
278.991	3.85
279.205	4.27
279.419	3.88
279.633	4.16
279.847	4.11
280.061	3.35
280.275	3.86
280.489	3.58
280.703	3.87
280.917	3.42
281.131	3.34
281.344	3.82
281.558	3.11
281.772	3.43
281.986	3.29
282.2	3.34
282.414	3.07
282.627	2.66
282.841	2.59
283.055	2.42
283.269	2.77
283.482	2.95
283.696	2.72
283.91	3.05
284.123	2.49
284.337	2.79
284.551	2.74
284.764	2.81
284.978	2.8
285.192	3.26
285.405	3.57
285.619	3.37
285.833	3.42
286.046	3.08
286.26	3.13
286.473	3.53
286.687	3.45
286.9	3.28
287.114	3.4
287.327	3.7
287.541	3.52
287.754	3.39
287.968	3.41
288.181	3.32
288.395	3.54
288.608	3.41
288.822	2.57
289.035	2.2
289.248	2.22
289.462	2.32
289.675	1.75
289.889	1.97
290.102	1.69
290.315	1.78
290.529	1.48
290.742	1.78
290.955	1.99
291.169	2.61
291.382	2.95
291.595	2.81
291.808	2.96
292.022	3.55
292.235	3.75
292.448	4.3
292.661	4.38
292.875	4.57
293.088	4.33
293.301	4.32
293.514	3.97
293.727	3.78
293.94	4.05
294.153	4.15
294.367	3.81
294.58	3.37
294.793	3.38
295.006	3.31
295.219	3.31
295.432	3.17
295.645	3.22
295.858	3.32
296.071	3.11
296.284	3.32
296.497	3.22
296.71	3.28
296.923	3.34
297.136	3.01
297.349	3.24
297.562	3.36
297.775	3.46
297.988	3.59
298.201	3.61
298.414	3.52
298.626	3.14
298.839	3.07
299.052	3.04
299.265	3.09
299.478	3.31
299.691	3.24
299.903	3
300.116	3
300.329	2.79
300.542	2.69
300.755	2.9
300.967	3.32
301.18	3.14
301.393	2.96
301.605	2.82
301.818	2.71
302.031	2.76
302.243	3.09
302.456	3.07
302.669	2.81
302.881	3.2
303.094	3.2
303.307	2.69
303.519	2.42
303.732	2.52
303.944	2.33
304.157	2.51
304.37	2.37
304.582	2.43
304.795	2.29
305.007	2.68
305.22	2.51
305.432	2.39
305.645	3.08
305.857	3.33
306.069	3.53
306.282	3.46
306.494	3.33
306.707	3.62
306.919	3.26
307.132	3.25
307.344	3.29
307.556	3.01
307.769	3.16
307.981	3.07
308.193	2.76
308.406	2.66
308.618	3.02
308.83	3.01
309.043	2.91
309.255	2.94
309.467	3.42
309.679	3.32
309.892	3.28
310.104	3.25
310.316	3.31
310.528	3.62
310.74	3.61
310.953	3.55
311.165	3.56
311.377	3.3
311.589	3.39
311.801	3.2
312.013	3.38
312.225	3.45
312.437	3.54
312.649	3.52
312.862	3.86
313.074	3.97
313.286	4.49
313.498	4.78
313.71	5.02
313.922	5.32
314.134	5.3
314.346	5.49
314.558	5.48
314.77	6.19
314.982	6.19
315.193	5.83
315.405	6.33
315.617	5.74
315.829	5.23
316.041	4.89
316.253	5.08
316.465	5.26
316.677	4.75
316.888	5.15
317.1	4.39
317.312	4.34
317.524	4.54
317.736	4.47
317.947	4.32
318.159	4.56
318.371	5.16
318.583	4.68
318.794	4.93
319.006	5.08
319.218	5.03
319.43	5.15
319.641	4.96
319.853	4.83
320.064	4.68
320.276	5.29
320.488	5.61
320.699	5.71
320.911	5.5
321.123	5.4
321.334	5.91
321.546	5.99
321.757	6.39
321.969	6.89
322.18	6.74
322.392	6.76
322.603	6.24
322.815	6.02
323.026	6.06
323.238	6.82
323.449	6.57
323.661	6.57
323.872	6.41
324.083	6.24
324.295	6.41
324.506	6.7
324.718	6.63
324.929	7.1
325.14	7.22
325.352	7.12
325.563	7.06
325.774	7.23
325.986	7.1
326.197	7.86
326.408	8.11
326.62	8.43
326.831	8.66
327.042	8.65
327.253	8.82
327.464	9.12
327.676	9.3
327.887	9.37
328.098	9.46
328.309	9.93
328.52	9.41
328.732	9.56
328.943	8.95
329.154	9.14
329.365	9.94
329.576	9.83
329.787	10.43
329.998	10.68
330.209	10.68
330.42	11.15
330.631	11.1
330.842	11.67
331.053	12.25
331.264	12.4
331.475	12.34
331.686	12.11
331.897	12.22
332.108	11.84
332.319	11.94
332.53	12.16
332.741	11.94
332.952	12.1
333.163	12.04
333.374	12.08
333.585	12.16
333.795	12.27
334.006	12.28
334.217	12.25
334.428	12.75
334.639	12.96
334.849	13.14
335.06	13.23
335.271	13.28
335.482	13.36
335.692	13.03
335.903	13.53
336.114	13.45
336.325	13.43
336.535	13.58
336.746	13.32
336.957	12.98
337.167	13.31
337.378	13.32
337.589	13.24
337.799	13.57
338.01	13.7
338.22	13.45
338.431	13.28
338.642	13.38
338.852	13.67
339.063	13.53
339.273	13.63
339.484	13.96
339.694	14.34
339.905	14.51
340.115	13.83
340.326	13.52
340.536	13.45
340.746	13.72
340.957	13.45
341.167	12.87
341.378	12.87
341.588	12.97
341.799	12.51
342.009	12.28
342.219	12.06
342.43	12.11
342.64	12.31
342.85	12.32
343.061	12.44
343.271	12.5
343.481	12.96
343.691	12.8
343.902	12.87
344.112	12.7
344.322	12.87
344.532	12.93
344.743	13.11
344.953	13.1
345.163	13.43
345.373	13.28
345.583	13.35
345.793	13.4
346.004	13.71
346.214	13.7
346.424	13.46
346.634	13.42
346.844	13.52
347.054	13.3
347.264	13.32
347.474	13.15
347.684	13.34
347.894	13.43
348.104	13.48
348.314	13.28
348.524	13.08
348.734	13.1
348.944	13.11
349.154	12.82
349.364	13.01
349.574	12.71
349.784	12.45
349.994	12.39
350.204	12.4
350.413	12.11
350.623	12.08
350.833	12.15
351.043	12.38
351.253	12.39
351.463	12.35
351.672	12.14
351.882	12.15
352.092	12.46
352.302	12.56
352.511	12.51
352.721	12.34
352.931	12.12
353.141	12.26
353.35	12.23
353.56	11.91
353.77	11.8
353.979	11.82
354.189	12.01
354.399	11.92
354.608	11.89
354.818	11.94
355.027	12.24
355.237	12.52
355.447	12.58
355.656	12.46
355.866	12.38
356.075	12.47
356.285	12.31
356.494	12.34
356.704	12.31
356.913	11.96
357.123	11.84
357.332	11.83
357.542	11.79
357.751	11.57
357.96	11.51
358.17	11.64
358.379	11.68
358.589	11.82
358.798	11.73
359.007	11.78
359.217	12.05
359.426	12.18
359.635	12.2
359.845	12.22
360.054	12.17
360.263	12.3
360.472	12.17
360.682	12.27
360.891	12.15
361.1	12.41
361.309	12.39
361.519	12.27
361.728	12.04
361.937	12.01
362.146	12.1
362.355	12.19
362.564	12.04
362.774	12.19
362.983	11.96
363.192	12.24
363.401	12.12
363.61	12.08
363.819	12.19
364.028	12.35
364.237	12.13
364.446	12.11
364.655	12.2
364.864	12.3
365.073	12.43
365.282	12.49
365.491	12.4
365.7	12.34
365.909	12.55
366.118	12.42
366.327	12.36
366.536	12.42
366.745	12.29
366.954	12.15
367.162	12.16
367.371	12.34
367.58	12.4
367.789	12.27
367.998	12.44
368.207	12.13
368.415	12.22
368.624	12.3
368.833	12.58
369.042	12.42
369.25	12.61
369.459	12.58
369.668	12.06
369.877	12.08
370.085	12.32
370.294	12.25
370.503	12.28
370.711	12.21
370.92	12.06
371.129	11.99
371.337	12.14
371.546	11.91
371.754	11.83
371.963	11.85
372.171	11.86
372.38	11.79
372.589	11.44
372.797	11.26
373.006	11.16
373.214	11.46
373.423	11.37
373.631	11.29
373.84	11.3
374.048	10.93
374.256	11.16
374.465	11.47
374.673	11.42
374.882	11.49
375.09	11.78
375.298	11.79
375.507	11.62
375.715	11.52
375.923	11.38
376.132	11.52
376.34	11.98
376.548	12.01
376.757	11.69
376.965	11.73
377.173	11.89
377.381	11.59
377.59	11.74
377.798	11.74
378.006	11.78
378.214	11.81
378.423	11.61
378.631	11.51
378.839	11.17
379.047	11.15
379.255	11.04
379.463	11.13
379.671	11.52
379.879	11.34
380.088	11.4
380.296	11.33
380.504	11.36
380.712	11.57
380.92	11.63
381.128	11.79
381.336	11.8
381.544	11.98
381.752	11.96
381.96	11.58
382.168	11.65
382.376	11.77
382.584	11.72
382.791	12.06
382.999	12
383.207	11.74
383.415	11.7
383.623	11.59
383.831	11.29
384.039	11.14
384.247	11.1
384.454	10.82
384.662	10.63
384.87	10.76
385.078	10.33
385.285	10.23
385.493	10.55
385.701	10.64
385.909	10.69
386.116	10.72
386.324	10.8
386.532	10.99
386.739	11.43
386.947	11.52
387.155	11.47
387.362	11.63
387.57	11.56
387.778	11.49
387.985	11.34
388.193	11.49
388.4	11.84
388.608	11.89
388.816	11.92
389.023	11.93
389.231	11.81
389.438	11.71
389.646	11.65
389.853	11.88
390.061	11.7
390.268	11.88
390.475	12.02
390.683	11.73
390.89	11.72
391.098	11.54
391.305	11.56
391.512	11.57
391.72	11.67
391.927	11.85
392.135	11.9
392.342	11.99
392.549	12.09
392.756	12.11
392.964	12.32
393.171	12.13
393.378	12.33
393.586	12.28
393.793	12.36
394	12.42
394.207	12.31
394.414	12.16
394.622	12.08
394.829	11.92
395.036	11.69
395.243	11.49
395.45	11.6
395.657	11.43
395.864	11.18
396.072	11.06
396.279	11.08
396.486	11.18
396.693	11.07
396.9	11.24
397.107	11.37
397.314	11.34
397.521	11.45
397.728	11.59
397.935	11.63
398.142	11.64
398.349	11.76
398.556	11.57
398.763	11.35
398.97	11.45
399.177	11.42
399.383	11.49
399.59	11.35
399.797	11.15
400.004	11.09
400.211	11.15
400.418	11.25
400.625	11.11
400.831	11.2
401.038	11.39
401.245	11.32
401.452	11.18
401.658	11.11
401.865	10.98
402.072	11.16
402.279	11.11
402.485	11.24
402.692	11.16
402.899	11.3
403.105	11.34
403.312	11.32
403.519	11.48
403.725	11.65
403.932	11.55
404.138	11.94
404.345	11.81
404.552	11.78
404.758	11.72
404.965	11.74
405.171	11.68
405.378	11.67
405.584	11.44
405.791	11.34
405.997	11.29
406.204	11.3
406.41	11.16
406.617	11.32
406.823	11.32
407.029	11.21
407.236	11.21
407.442	11.13
407.649	11.08
407.855	11.21
408.061	11.2
408.268	11.17
408.474	11.18
408.68	11.29
408.887	11.28
409.093	11.28
409.299	11.27
409.505	11.35
409.712	11.2
409.918	11.25
410.124	11.25
410.33	11.52
410.537	11.47
410.743	11.39
410.949	11.27
411.155	11.17
411.361	11.15
411.567	11.04
411.773	11.05
411.98	11.15
412.186	11.1
412.392	11.09
412.598	10.87
412.804	11.04
413.01	11.13
413.216	11.2
413.422	11.33
413.628	11.34
413.834	11.55
414.04	11.32
414.246	11.33
414.452	11.38
414.658	11.45
414.864	11.28
415.07	11.12
415.275	11.21
415.481	11.24
415.687	11.21
415.893	11.22
416.099	11.1
416.305	11.08
416.511	11.15
416.716	11.09
416.922	10.98
417.128	11.12
417.334	11.11
417.539	11
417.745	10.84
417.951	10.83
418.157	10.76
418.362	10.78
418.568	10.86
418.774	10.85
418.979	10.87
419.185	10.94
419.391	10.94
419.596	10.96
419.802	10.96
420.008	11.06
420.213	11.12
420.419	11.16
420.624	11.17
420.83	11.16
421.035	11.14
421.241	11.17
421.446	11.18
421.652	11.21
421.857	11.24
422.063	11.23
422.268	11.21
422.474	11.11
422.679	11.09
422.885	11.13
423.09	11.15
423.295	11.18
423.501	11.17
423.706	11.15
423.911	11.01
424.117	10.98
424.322	10.94
424.527	10.82
424.733	10.81
424.938	10.8
425.143	10.81
425.349	10.75
425.554	10.75
425.759	10.71
425.964	10.73
426.169	10.86
426.375	10.79
426.58	10.84
426.785	10.94
426.99	11
427.195	11.04
427.4	10.93
427.605	11.01
427.811	11.08
428.016	11.1
428.221	11.09
428.426	11.07
428.631	11.2
428.836	11.26
429.041	11.16
429.246	11.2
429.451	11.18
429.656	11.34
429.861	11.41
430.066	11.3
430.271	11.36
430.476	11.21
430.681	11.11
430.886	11.08
431.09	10.98
431.295	11.08
431.5	10.99
431.705	10.93
431.91	10.87
432.115	10.77
432.32	10.73
432.524	10.75
432.729	11.03
432.934	11.17
433.139	11.3
433.343	11.35
433.548	11.43
433.753	11.4
433.958	11.54
434.162	11.63
434.367	11.69
434.572	11.88
434.776	11.96
434.981	11.87
435.186	11.85
435.39	11.71
435.595	11.74
435.799	11.73
436.004	11.92
436.209	11.82
436.413	11.74
436.618	11.76
436.822	11.54
437.027	11.44
437.231	11.33
437.436	11.25
437.64	11.34
437.845	11.33
438.049	11.27
438.253	11.16
438.458	11.09
438.662	10.98
438.867	10.95
439.071	11.06
439.275	11.13
439.48	11.23
439.684	11.25
439.888	11.12
440.093	11.07
440.297	11.05
440.501	11.07
440.706	11.21
440.91	11.28
441.114	11.29
441.318	11.21
441.523	11.13
441.727	11.09
441.931	11.08
442.135	11.19
442.339	11.32
442.543	11.3
442.748	11.3
442.952	11.19
443.156	11.21
443.36	11.09
443.564	11.14
443.768	11.12
443.972	11.16
444.176	11.17
444.38	11.09
444.584	11
444.788	11.12
444.992	11.12
445.196	11.14
445.4	11.21
445.604	11.29
445.808	11.33
446.012	11.35
446.216	11.27
446.42	11.26
446.624	11.33
446.828	11.25
447.032	11.24
447.235	11.23
447.439	11.26
447.643	11.14
447.847	11.22
448.051	11.19
448.254	11.18
448.458	11.27
448.662	11.31
448.866	11.27
449.069	11.33
449.273	11.32
449.477	11.35
449.681	11.31
449.884	11.44
450.088	11.21
450.292	11.35
450.495	11.39
450.699	11.35
450.902	11.31
451.106	11.35
451.31	11.42
451.513	11.45
451.717	11.37
451.92	11.42
452.124	11.42
452.327	11.59
452.531	11.46
452.734	11.38
452.938	11.37
453.141	11.4
453.345	11.34
453.548	11.35
453.752	11.27
453.955	11.42
454.158	11.37
454.362	11.29
454.565	11.27
454.769	11.26
454.972	11.31
455.175	11.33
455.379	11.33
455.582	11.42
455.785	11.37
455.988	11.34
456.192	11.16
456.395	11.2
456.598	11.23
456.801	11.25
457.005	11.25
457.208	11.22
457.411	11.16
457.614	11.08
457.817	10.97
458.021	10.94
458.224	11.02
458.427	11.12
458.63	11.22
458.833	11.19
459.036	11.12
459.239	11.17
459.442	11.17
459.645	11.18
459.848	11.25
460.051	11.25
460.254	11.33
460.457	11.39
460.66	11.42
460.863	11.33
461.066	11.37
461.269	11.36
461.472	11.33
461.675	11.35
461.878	11.34
462.081	11.43
462.284	11.55
462.486	11.47
462.689	11.43
462.892	11.42
463.095	11.5
463.298	11.58
463.5	11.67
463.703	11.67
463.906	11.58
464.109	11.58
464.311	11.46
464.514	11.48
464.717	11.53
464.92	11.42
465.122	11.44
465.325	11.46
465.528	11.53
465.73	11.6
465.933	11.55
466.135	11.75
466.338	11.79
466.541	11.83
466.743	11.83
466.946	11.81
467.148	11.87
467.351	11.79
467.553	11.66
467.756	11.51
467.958	11.49
468.161	11.57
468.363	11.4
468.566	11.41
468.768	11.32
468.971	11.33
469.173	11.2
469.375	11.12
469.578	11.13
469.78	11.21
469.983	11.21
470.185	11.25
470.387	11.31
470.59	11.4
470.792	11.38
470.994	11.36
471.196	11.3
471.399	11.39
471.601	11.5
471.803	11.52
472.005	11.53
472.208	11.62
472.41	11.54
472.612	11.44
472.814	11.49
473.016	11.62
473.218	11.71
473.421	11.73
473.623	11.87
473.825	11.98
474.027	12.1
474.229	12.06
474.431	11.91
474.633	11.98
474.835	12.05
475.037	12.02
475.239	11.87
475.441	11.88
475.643	11.82
475.845	11.68
476.047	11.62
476.249	11.6
476.451	11.63
476.653	11.75
476.855	11.63
477.057	11.63
477.258	11.55
477.46	11.57
477.662	11.55
477.864	11.58
478.066	11.57
478.268	11.5
478.469	11.43
478.671	11.44
478.873	11.4
479.075	11.34
479.276	11.23
479.478	11.31
479.68	11.33
479.882	11.34
480.083	11.37
480.285	11.44
480.487	11.49
480.688	11.49
480.89	11.5
481.091	11.55
481.293	11.6
481.495	11.59
481.696	11.54
481.898	11.49
482.099	11.44
482.301	11.45
482.502	11.47
482.704	11.42
482.905	11.42
483.107	11.42
483.308	11.39
483.51	11.4
483.711	11.43
483.913	11.42
484.114	11.43
484.315	11.45
484.517	11.44
484.718	11.42
484.92	11.45
485.121	11.44
485.322	11.41
485.524	11.38
485.725	11.39
485.926	11.38
486.127	11.43
486.329	11.46
486.53	11.44
486.731	11.42
486.932	11.42
487.134	11.42
487.335	11.42
487.536	11.41
487.737	11.44
487.938	11.42
488.139	11.43
488.341	11.42
488.542	11.39
488.743	11.42
488.944	11.43
489.145	11.46
489.346	11.44
489.547	11.45
489.748	11.53
489.949	11.53
490.15	11.55
490.351	11.57
490.552	11.6
490.753	11.58
490.954	11.62
491.155	11.59
491.356	11.6
491.557	11.61
491.758	11.62
491.959	11.52
492.159	11.59
492.36	11.63
492.561	11.6
492.762	11.56
492.963	11.66
493.164	11.61
493.364	11.65
493.565	11.65
493.766	11.71
493.967	11.72
494.167	11.86
494.368	11.87
494.569	11.86
494.769	11.86
494.97	11.96
495.171	11.96
495.371	11.93
495.572	11.95
495.773	11.96
495.973	11.96
496.174	11.94
496.375	11.97
496.575	11.94
496.776	12
496.976	12.06
497.177	12
497.377	11.96
497.578	11.98
497.778	12.01
497.979	11.98
498.179	11.89
498.38	11.91
498.58	11.87
498.78	11.97
498.981	11.94
499.181	11.87
499.382	11.91
499.582	11.91
499.782	11.88
499.983	11.93
500.183	11.94
500.383	12.06
500.584	12.08
500.784	12.03
500.984	11.98
501.184	11.98
501.385	12.08
501.585	12.1
501.785	12.1
501.985	12.22
502.185	12.28
502.386	12.39
502.586	12.48
502.786	12.46
502.986	12.55
503.186	12.57
503.386	12.52
503.586	12.52
503.786	12.45
503.987	12.51
504.187	12.5
504.387	12.47
504.587	12.49
504.787	12.39
504.987	12.41
505.187	12.39
505.387	12.44
505.587	12.51
505.786	12.58
505.986	12.72
506.186	12.74
506.386	12.8
506.586	12.82
506.786	12.79
506.986	12.85
507.186	12.84
507.386	12.88
507.585	12.87
507.785	12.91
507.985	12.8
508.185	12.82
508.384	12.81
508.584	12.78
508.784	12.8
508.984	12.86
509.183	12.92
509.383	13.03
509.583	13.08
509.782	13.09
509.982	13.14
510.182	13.29
510.381	13.31
510.581	13.36
510.781	13.55
510.98	13.55
511.18	13.57
511.379	13.51
511.579	13.49
511.778	13.52
511.978	13.56
512.177	13.61
512.377	13.58
512.576	13.65
512.776	13.73
512.975	13.61
513.175	13.76
513.374	13.74
513.573	13.81
513.773	13.85
513.972	13.84
514.172	13.8
514.371	13.82
514.57	13.9
514.77	13.94
514.969	13.84
515.168	13.91
515.367	13.81
515.567	13.86
515.766	13.96
515.965	14.04
516.164	14.16
516.364	14.2
516.563	14.22
516.762	14.27
516.961	14.25
517.16	14.33
517.359	14.41
517.559	14.51
517.758	14.57
517.957	14.54
518.156	14.54
518.355	14.56
518.554	14.58
518.753	14.69
518.952	14.66
519.151	14.71
519.35	14.78
519.549	14.84
519.748	14.86
519.947	14.92
520.146	14.98
520.345	15.06
520.544	15.03
520.743	15.2
520.942	15.2
521.141	15.34
521.339	15.38
521.538	15.48
521.737	15.52
521.936	15.48
522.135	15.51
522.333	15.64
522.532	15.68
522.731	15.75
522.93	15.79
523.129	15.85
523.327	15.86
523.526	15.9
523.725	15.86
523.923	15.83
524.122	15.97
524.321	16.03
524.519	16.01
524.718	16.06
524.917	16.18
525.115	16.15
525.314	16.12
525.512	16.19
525.711	16.2
525.909	16.27
526.108	16.33
526.306	16.38
526.505	16.41
526.703	16.46
526.902	16.5
527.1	16.48
527.299	16.55
527.497	16.61
527.696	16.64
527.894	16.71
528.092	16.75
528.291	16.78
528.489	16.8
528.688	16.85
528.886	16.88
529.084	16.93
529.283	17
529.481	17.04
529.679	17.09
529.877	17.14
530.076	17.21
530.274	17.24
530.472	17.28
530.67	17.35
530.869	17.41
531.067	17.45
531.265	17.52
531.463	17.56
531.661	17.64
531.859	17.61
532.057	17.67
532.255	17.69
532.454	17.78
532.652	17.86
532.85	17.9
533.048	17.92
533.246	18.01
533.444	18.04
533.642	18.07
533.84	18.05
534.038	18.2
534.236	18.28
534.434	18.32
534.632	18.4
534.83	18.49
535.027	18.53
535.225	18.65
535.423	18.7
535.621	18.76
535.819	18.84
536.017	18.95
536.215	18.95
536.412	18.97
536.61	19.05
536.808	19.03
537.006	19.04
537.203	19.1
537.401	19.11
537.599	19.15
537.797	19.2
537.994	19.27
538.192	19.36
538.39	19.49
538.587	19.6
538.785	19.71
538.983	19.89
539.18	20.11
539.378	20.23
539.575	20.34
539.773	20.43
539.97	20.53
540.168	20.63
540.366	20.75
540.563	20.8
540.761	20.86
540.958	20.87
541.155	20.91
541.353	20.92
541.55	20.94
541.748	20.98
541.945	21.04
542.143	21.06
542.34	21.11
542.537	21.14
542.735	21.19
542.932	21.24
543.129	21.33
543.327	21.44
543.524	21.55
543.721	21.72
543.919	21.95
544.116	22.12
544.313	22.39
544.51	22.65
544.708	22.9
544.905	23.15
545.102	23.4
545.299	23.63
545.496	23.8
545.693	23.85
545.891	23.88
546.088	23.9
546.285	23.94
546.482	23.92
546.679	23.8
546.876	23.67
547.073	23.52
547.27	23.35
547.467	23.18
547.664	23.12
547.861	23.15
548.058	23.1
548.255	23.03
548.452	22.98
548.649	22.91
548.846	22.87
549.043	22.85
549.24	22.87
549.437	23.01
549.633	23.01
549.83	23.02
550.027	22.79
550.224	22.83
550.421	22.84
550.618	22.74
550.814	22.65
551.011	22.66
551.208	22.64
551.405	22.56
551.601	22.44
551.798	22.4
551.995	22.36
552.191	22.5
552.388	22.45
552.585	22.4
552.781	22.46
552.978	22.47
553.175	22.57
553.371	22.57
553.568	22.71
553.764	22.75
553.961	22.8
554.157	22.76
554.354	22.77
554.55	22.85
554.747	22.93
554.943	22.92
555.14	22.92
555.336	22.87
555.533	22.88
555.729	22.87
555.926	23
556.122	23.06
556.318	23.22
556.515	23.16
556.711	23.24
556.907	23.11
557.104	23.17
557.3	23.2
557.496	23.1
557.693	23.1
557.889	23.13
558.085	22.98
558.281	23.04
558.478	23.02
558.674	23.09
558.87	23.03
559.066	23.17
559.262	23.11
559.459	23.21
559.655	23.24
559.851	23.26
560.047	23.2
560.243	23.32
560.439	23.22
560.635	23.24
560.831	23.36
561.027	23.46
561.223	23.37
561.419	23.38
561.615	23.41
561.811	23.5
562.007	23.63
562.203	23.68
562.399	23.64
562.595	23.75
562.791	23.58
562.987	23.52
563.183	23.58
563.379	23.82
563.575	23.79
563.771	23.77
563.966	23.73
564.162	23.66
564.358	23.83
564.554	23.81
564.75	23.7
564.945	23.82
565.141	23.73
565.337	23.68
565.533	23.53
565.728	23.57
565.924	23.65
566.12	23.73
566.315	23.81
566.511	23.73
566.707	23.81
566.902	23.84
567.098	23.86
567.293	23.82
567.489	23.8
567.684	23.95
567.88	23.98
568.076	24.02
568.271	24.02
568.467	24.02
568.662	24.05
568.858	24
569.053	24.19
569.248	24.22
569.444	24.43
569.639	24.48
569.835	24.47
570.03	24.52
570.225	24.51
570.421	24.54
570.616	24.55
570.812	24.44
571.007	24.45
571.202	24.42
571.397	24.48
571.593	24.47
571.788	24.51
571.983	24.51
572.178	24.52
572.374	24.43
572.569	24.36
572.764	24.27
572.959	24.35
573.154	24.3
573.35	24.32
573.545	24.36
573.74	24.32
573.935	24.25
574.13	24.22
574.325	24.3
574.52	24.42
574.715	24.66
574.91	24.84
575.105	24.86
575.3	25.09
575.495	25.17
575.69	25.18
575.885	25.33
576.08	25.52
576.275	25.61
576.47	25.6
576.665	25.66
576.86	25.72
577.055	25.79
577.25	25.91
577.444	25.96
577.639	25.97
577.834	25.98
578.029	26.02
578.224	26.05
578.418	26.09
578.613	26.22
578.808	26.34
579.003	26.43
579.197	26.4
579.392	26.32
579.587	26.23
579.781	26.32
579.976	26.34
580.171	26.43
580.365	26.42
580.56	26.45
580.755	26.44
580.949	26.45
581.144	26.16
581.338	26.27
581.533	26.47
581.727	26.54
581.922	26.51
582.116	26.57
582.311	26.51
582.505	26.54
582.7	26.56
582.894	26.53
583.089	26.59
583.283	26.83
583.478	26.81
583.672	26.74
583.866	26.8
584.061	27.01
584.255	27.07
584.449	27.2
584.644	27.31
584.838	27.38
585.032	27.56
585.226	27.67
585.421	27.67
585.615	27.76
585.809	27.97
586.003	28.05
586.198	27.94
586.392	27.96
586.586	27.97
586.78	27.92
586.974	27.95
587.168	27.95
587.363	27.82
587.557	27.76
587.751	27.57
587.945	27.3
588.139	27.37
588.333	27.4
588.527	27.21
588.721	27.14
588.915	27.15
589.109	26.98
589.303	26.91
589.497	26.88
589.691	26.8
589.885	26.98
590.079	27.06
590.273	26.97
590.466	26.94
590.66	27.11
590.854	27.1
591.048	27.13
591.242	27.33
591.436	27.39
591.629	27.53
591.823	27.72
592.017	27.7
592.211	27.83
592.404	27.92
592.598	27.99
592.792	27.94
592.986	27.99
593.179	27.88
593.373	27.89
593.567	27.82
593.76	27.75
593.954	27.71
594.147	27.76
594.341	27.78
594.535	27.71
594.728	27.66
594.922	27.77
595.115	27.68
595.309	27.74
595.502	27.63
595.696	27.73
595.889	27.69
596.083	27.7
596.276	27.48
596.47	27.29
596.663	27.22
596.856	27.29
597.05	27.29
597.243	27.43
597.437	27.34
597.63	27.41
597.823	27.48
598.017	27.58
598.21	27.53
598.403	27.71
598.596	27.93
598.79	28.06
598.983	28.01
599.176	28
599.369	27.93
599.563	27.98
599.756	27.97
599.949	27.84
600.142	27.76
600.335	27.83
600.528	27.8
600.722	27.94
600.915	27.8
601.108	27.68
601.301	27.67
601.494	27.74
601.687	27.73
601.88	27.63
602.073	27.56
602.266	27.56
602.459	27.44
602.652	27.46
602.845	27.35
603.038	27.35
603.231	27.37
603.424	27.35
603.617	27.27
603.809	27.4
604.002	27.38
604.195	27.39
604.388	27.33
604.581	27.37
604.774	27.38
604.966	27.13
605.159	27.25
605.352	27.25
605.545	27.27
605.737	27.37
605.93	27.44
606.123	27.66
606.316	27.79
606.508	27.95
606.701	28.11
606.894	28.22
607.086	28.63
607.279	28.82
607.471	29.14
607.664	29.31
607.857	29.52
608.049	29.81
608.242	30.23
608.434	30.67
608.627	31.34
608.819	32.03
609.012	32.92
609.204	33.94
609.397	34.96
609.589	36.09
609.782	37.5
609.974	38.76
610.166	40.02
610.359	41.25
610.551	42.47
610.743	43.48
610.936	44.41
611.128	45.22
611.32	45.54
611.513	45.74
611.705	45.71
611.897	45.38
612.09	45.15
612.282	44.78
612.474	44.26
612.666	43.89
612.858	43.12
613.051	42.53
613.243	41.88
613.435	41.43
613.627	41
613.819	40.42
614.011	40.04
614.203	39.42
614.395	38.67
614.588	38.08
614.78	37.31
614.972	36.85
615.164	36.31
615.356	35.79
615.548	35.34
615.74	34.5
615.932	34.01
616.124	33.52
616.315	33.16
616.507	32.85
616.699	32.42
616.891	32.17
617.083	32.01
617.275	31.65
617.467	31.2
617.659	30.81
617.85	30.76
618.042	30.84
618.234	30.65
618.426	30.49
618.618	30.48
618.809	30.46
619.001	30.37
619.193	30.21
619.384	30.23
619.576	30.35
619.768	30.54
619.959	30.63
620.151	30.7
620.343	30.65
620.534	30.73
620.726	30.63
620.917	30.67
621.109	30.59
621.301	30.65
621.492	30.6
621.684	30.6
621.875	30.64
622.067	30.99
622.258	30.91
622.45	31.01
622.641	31.02
622.832	31.15
623.024	31.26
623.215	31.42
623.407	31.34
623.598	31.67
623.789	31.59
623.981	31.45
624.172	31.27
624.363	31.22
624.555	31.18
624.746	31.22
624.937	31.2
625.129	31.15
625.32	31.1
625.511	31.21
625.702	30.95
625.893	31.07
626.085	30.99
626.276	31.02
626.467	30.98
626.658	31.02
626.849	31.11
627.04	31.22
627.231	31.23
627.422	31.14
627.614	31.15
627.805	31.06
627.996	30.94
628.187	30.95
628.378	30.89
628.569	31.17
628.76	31.2
628.951	31.07
629.142	30.92
629.332	31
629.523	31.31
629.714	31.43
629.905	31.74
630.096	32.04
630.287	32.18
630.478	32.4
630.669	32.27
630.859	32.53
631.05	32.56
631.241	32.59
631.432	32.3
631.623	32.01
631.813	31.63
632.004	31.41
632.195	31.05
632.385	30.85
632.576	30.63
632.767	30.61
632.957	30.33
633.148	30.11
633.339	29.81
633.529	29.83
633.72	29.79
633.91	29.74
634.101	29.76
634.292	29.7
634.482	29.68
634.673	29.43
634.863	29.22
635.054	29.09
635.244	29.06
635.435	29.29
635.625	29.16
635.815	29.14
636.006	29.31
636.196	29.18
636.387	29.19
636.577	29.22
636.767	29.25
636.958	29.29
637.148	29.09
637.338	29.09
637.529	28.93
637.719	29.2
637.909	28.99
638.099	28.88
638.29	28.89
638.48	29.04
638.67	28.9
638.86	28.81
639.05	28.69
639.241	28.8
639.431	28.94
639.621	28.93
639.811	28.71
640.001	28.99
640.191	29.06
640.381	29.18
640.571	29.17
640.761	29.29
640.951	29.5
641.141	29.62
641.331	29.74
641.521	29.59
641.711	29.6
641.901	29.6
642.091	29.59
642.281	29.54
642.471	29.38
642.661	29.55
642.851	29.63
643.041	29.47
643.231	29.5
643.42	29.43
643.61	29.65
643.8	29.93
643.99	30.09
644.18	30.11
644.369	30.17
644.559	30.12
644.749	29.68
644.939	29.66
645.128	29.81
645.318	29.79
645.508	30.24
645.697	30.21
645.887	30.07
646.076	29.77
646.266	29.81
646.456	29.74
646.645	29.84
646.835	29.86
647.024	29.74
647.214	29.56
647.403	29.48
647.593	29.29
647.782	29.17
647.972	29.03
648.161	29.2
648.351	29.14
648.54	29.21
648.73	29.36
648.919	29.6
649.108	29.96
649.298	30.14
649.487	30.44
649.677	30.27
649.866	30.32
650.055	30.68
650.244	30.76
650.434	30.9
650.623	30.76
650.812	30.74
651.002	30.71
651.191	30.65
651.38	30.64
651.569	30.61
651.758	30.57
651.947	30.3
652.137	30.18
652.326	30.23
652.515	30.12
652.704	30.6
652.893	30.41
653.082	30.31
653.271	30.05
653.46	29.95
653.649	29.96
653.838	30.11
654.027	30.49
654.216	30.44
654.405	30.49
654.594	30.37
654.783	30.07
654.972	30.19
655.161	30.49
655.35	30.64
655.539	30.55
655.728	30.49
655.916	30.16
656.105	30.08
656.294	30.24
656.483	29.97
656.672	30.27
656.86	30.11
657.049	30.09
657.238	29.91
657.427	29.85
657.615	30.01
657.804	29.87
657.993	30.04
658.181	29.93
658.37	29.85
658.559	30
658.747	29.73
658.936	29.75
659.125	29.69
659.313	29.65
659.502	29.84
659.69	29.83
659.879	29.79
660.067	29.7
660.256	29.78
660.444	29.7
660.633	29.56
660.821	29.49
661.01	29.47
661.198	29.54
661.387	29.61
661.575	29.45
661.763	29.48
661.952	29.6
662.14	29.81
662.328	29.78
662.517	29.85
662.705	30.1
662.893	30.36
663.082	30.59
663.27	30.62
663.458	30.66
663.646	30.67
663.834	30.6
664.023	30.53
664.211	30.08
664.399	30.34
664.587	30.32
664.775	30.55
664.963	30.43
665.152	30.44
665.34	30.44
665.528	30.49
665.716	30.23
665.904	30.47
666.092	30.57
666.28	31.13
666.468	30.93
666.656	30.78
666.844	30.38
667.032	30.46
667.22	30.44
667.408	30.43
667.596	30.3
667.784	30.5
667.971	30.39
668.159	30.52
668.347	30.3
668.535	30.23
668.723	30.35
668.911	30.34
669.098	30.45
669.286	30.51
669.474	30.24
669.662	30.5
669.849	30.56
670.037	30.61
670.225	30.34
670.413	30.33
670.6	30.25
670.788	29.99
670.976	30.1
671.163	29.89
671.351	29.73
671.538	29.99
671.726	29.96
671.913	30.02
672.101	29.93
672.289	30.27
672.476	30.18
672.664	30.45
672.851	30.78
673.039	30.82
673.226	30.79
673.413	30.74
673.601	30.77
673.788	30.67
673.976	30.85
674.163	31.08
674.35	30.9
674.538	31.06
674.725	30.92
674.912	30.98
675.1	30.8
675.287	30.96
675.474	31.23
675.662	31.37
675.849	31.2
676.036	31.16
676.223	30.77
676.411	31.01
676.598	31.05
676.785	31.08
676.972	30.97
677.159	30.92
677.346	30.79
677.533	30.56
677.721	30.25
677.908	30.14
678.095	30.08
678.282	30.39
678.469	30.05
678.656	30.25
678.843	30.32
679.03	30.4
679.217	30.62
679.404	30.73
679.591	30.96
679.778	31.19
679.964	31.33
680.151	31.19
680.338	31.22
680.525	31.25
680.712	31.22
680.899	31.13
681.086	30.99
681.272	30.79
681.459	30.67
681.646	30.26
681.833	30.15
682.02	30.21
682.206	30.07
682.393	30.36
682.58	30.5
682.766	30.15
682.953	30.29
683.14	30.4
683.326	30.43
683.513	30.54
683.7	30.74
683.886	30.91
684.073	30.65
684.259	30.89
684.446	30.51
684.632	30.64
684.819	30.99
685.005	30.83
685.192	30.91
685.378	31.14
685.565	31.08
685.751	31.16
685.938	31.13
686.124	31.45
686.31	31.72
686.497	31.61
686.683	31.55
686.87	31.11
687.056	31.23
687.242	31
687.429	30.89
687.615	30.95
687.801	30.9
687.987	30.93
688.174	30.83
688.36	30.48
688.546	30.63
688.732	30.74
688.918	31.06
689.105	30.93
689.291	31.26
689.477	31.12
689.663	31.02
689.849	31.2
690.035	31.2
690.221	31.46
690.407	31.5
690.593	31.44
690.779	31.38
690.965	31.35
691.151	31.56
691.337	31.48
691.523	31.76
691.709	32.18
691.895	32.16
692.081	32.19
692.267	31.95
692.453	31.87
692.639	32.07
692.825	32.06
693.011	32.17
693.196	32.26
693.382	32.2
693.568	32.45
693.754	32.51
693.94	31.99
694.125	31.9
694.311	31.83
694.497	32.12
694.682	31.97
694.868	31.82
695.054	31.69
695.239	31.69
695.425	31.68
695.611	31.44
695.796	31
695.982	31.14
696.168	31
696.353	30.84
696.539	30.59
696.724	30.6
696.91	30.64
697.095	30.7
697.281	30.54
697.466	30.53
697.652	30.43
697.837	30.63
698.023	30.81
698.208	30.83
698.393	31.1
698.579	31.03
698.764	30.8
698.949	30.58
699.135	30.39
699.32	30.38
699.505	30.13
699.691	30.19
699.876	29.98
700.061	30.24
700.246	30.41
700.432	30.38
700.617	30.8
700.802	30.92
700.987	31.28
701.172	31.56
701.358	31.76
701.543	32.03
701.728	32.01
701.913	32.18
702.098	31.71
702.283	32
702.468	31.65
702.653	31.44
702.838	31.67
703.023	32.08
703.208	32.2
703.393	32.38
703.578	32.73
703.763	32.98
703.948	33.2
704.133	33.29
704.318	33.38
704.503	33.93
704.688	34.09
704.873	34.55
705.057	34.44
705.242	34.86
705.427	34.91
705.612	34.92
705.797	35.38
705.981	35.61
706.166	36.9
706.351	37.24
706.536	37.73
706.72	38.02
706.905	38.09
707.09	38.29
707.274	38.26
707.459	38.67
707.644	38.99
707.828	38.97
708.013	38.99
708.197	38.16
708.382	37.9
708.567	37.34
708.751	36.93
708.936	36.74
709.12	36.77
709.305	36.9
709.489	36.83
709.673	36.7
709.858	36.23
710.042	36.21
710.227	36.38
710.411	36.53
710.596	36.71
710.78	36.88
710.964	36.65
711.149	36.36
711.333	36.13
711.517	36.03
711.702	35.71
711.886	35.8
712.07	35.81
712.254	35.61
712.438	35.12
712.623	34.75
712.807	34.33
712.991	34.37
713.175	34.03
713.359	33.41
713.544	32.93
713.728	32.4
713.912	32.14
714.096	31.77
714.28	31.55
714.464	31.39
714.648	31.14
714.832	31.16
715.016	30.66
715.2	30.59
715.384	30.84
715.568	30.54
715.752	30.86
715.936	31.04
716.12	30.92
716.304	30.65
716.488	30.31
716.671	30.73
716.855	30.85
717.039	31.29
717.223	31.26
717.407	31.27
717.59	31.22
717.774	31.3
717.958	31.01
718.142	31
718.325	31.05
718.509	31.16
718.693	30.69
718.877	30.55
719.06	30.32
719.244	30.22
719.428	30.23
719.611	31.23
719.795	31.29
719.978	31.44
720.162	32.01
720.345	32.3
720.529	32.43
720.713	32.63
720.896	32.79
721.08	32.78
721.263	32.61
721.446	32.31
721.63	31.42
721.813	31.39
721.997	31.16
722.18	30.63
722.364	30.51
722.547	30.83
722.73	31.05
722.914	30.59
723.097	30.63
723.28	31.02
723.464	31.72
723.647	32.21
723.83	32.22
724.013	32.23
724.197	32.23
724.38	32.65
724.563	32.59
724.746	32.62
724.929	32.97
725.112	33.05
725.296	33.16
725.479	32.72
725.662	32.73
725.845	32.48
726.028	32.71
726.211	32.6
726.394	31.93
726.577	31.9
726.76	31.8
726.943	32.14
727.126	32.26
727.309	32.08
727.492	32.07
727.675	31.51
727.858	32.15
728.041	31.88
728.224	31.99
728.407	32.48
728.589	32.34
728.772	32.42
728.955	32.55
729.138	32.47
729.321	32.52
729.503	32.53
729.686	32.99
729.869	32.35
730.052	32.67
730.234	32.77
730.417	32.49
730.6	32.72
730.782	32.82
730.965	32.54
731.148	32.35
731.33	32.58
731.513	32.43
731.695	32.48
731.878	32.76
732.061	32.51
732.243	33.06
732.426	33.1
732.608	32.32
732.791	32.05
732.973	31.85
733.156	31.97
733.338	31.84
733.52	32.28
733.703	32.11
733.885	32.3
734.068	32.55
734.25	31.8
734.432	32.11
734.615	32.85
734.797	33.02
734.979	33.44
735.162	33.04
735.344	32.98
735.526	33.01
735.708	33.13
735.891	33.53
736.073	33.51
736.255	33.38
736.437	32.93
736.619	32.84
736.802	32.84
736.984	32.87
737.166	33.34
737.348	33.41
737.53	33.25
737.712	33.06
737.894	32.19
738.076	31.75
738.258	32.26
738.44	32.75
738.622	32.75
738.804	33.51
738.986	33.35
739.168	33.76
739.35	33.57
739.532	33.34
739.714	33.66
739.896	33.82
740.078	34.88
740.259	34.93
740.441	34.85
740.623	35.23
740.805	34.6
740.987	34.35
741.168	34.83
741.35	35.85
741.532	36.36
741.714	35.88
741.895	36.47
742.077	35.99
742.259	36.41
742.44	36.55
742.622	36.07
742.804	36.29
742.985	36.12
743.167	35.47
743.348	34.29
743.53	33.52
743.711	34.13
743.893	34.11
744.075	33.55
744.256	33.59
744.438	33.09
744.619	33.33
744.8	32.48
744.982	33.1
745.163	32.82
745.345	33.15
745.526	33.87
745.707	33.67
745.889	33.42
746.07	33.78
746.252	33.02
746.433	33.5
746.614	33.93
746.795	34.08
746.977	33.71
747.158	33.82
747.339	33.62
747.52	33.34
747.702	33.64
747.883	33.56
748.064	33.72
748.245	34.05
748.426	33.91
748.607	33.23
748.788	34
748.97	33.8
749.151	32.78
749.332	33.52
749.513	34.03
749.694	33.86
749.875	33.68
750.056	34.14
750.237	34.18
750.418	34.47
750.599	34.51
750.78	34.29
750.96	34.69
751.141	35.52
751.322	35.32
751.503	34.84
751.684	34.52
751.865	35.03
752.046	34.73
752.226	34.92
752.407	34.62
752.588	35.38
752.769	35.4
752.949	35.47
753.13	36.16
753.311	36.45
753.492	36.18
753.672	36.69
753.853	36.34
754.034	36.2
754.214	36.31
754.395	36.07
754.575	35.29
754.756	35.69
754.937	35.84
755.117	34.84
755.298	34.64
755.478	35.24
755.659	34.71
755.839	35.25
756.02	35.51
756.2	34.82
756.381	35.58
756.561	35.86
756.741	35.32
756.922	34.93
757.102	35.3
757.283	35.36
757.463	34.91
757.643	35.1
757.823	34.18
758.004	32.86
758.184	33.36
758.364	33.05
758.545	32.62
758.725	32.29
758.905	32.49
759.085	32.02
759.265	31.33
759.446	31.12
759.626	30.71
759.806	30.58
759.986	31.45
760.166	30.91
760.346	29.9
760.526	30.2
760.706	30.06
760.886	29.4
761.066	30.39
761.246	30.87
761.426	30.94
761.606	30.62
761.786	30.09
761.966	29.65
762.146	29.51
762.326	29.81
762.506	29.45
762.686	29.58
762.866	29.46
763.046	28.72
763.225	28.42
763.405	28.44
763.585	28.72
763.765	29.31
763.945	29.1
764.124	28.73
764.304	29.04
764.484	29.08
764.664	29.01
764.843	29.67
765.023	30.03
765.203	30.23
765.382	30.26
765.562	30.28
765.741	29.87
765.921	30.92
766.101	31.65
766.28	31.92
766.46	32.04
766.639	32.3
766.819	31.83
766.998	31.91
767.178	31.57
767.357	31.91
767.537	32.49
767.716	32.9
767.896	32.35
768.075	32.44
768.254	32.31
768.434	33.66
768.613	33.65
768.792	33.98
768.972	34.52
769.151	34.91
769.33	34.94
769.51	34.51
769.689	34.92
769.868	34.89
770.047	35.58
770.226	35.78
770.406	35.32
770.585	35.76
770.764	36.41
770.943	36.01
771.122	36.06
771.301	36.37
771.48	37.17
771.66	37.5
771.839	38.1
772.018	37.43
772.197	37.51
772.376	37.31
772.555	36.88
772.734	36.95
772.913	37.29
773.092	37.25
773.271	36.26
773.449	35.64
773.628	35.42
773.807	35.23
773.986	35.27
774.165	35.1
774.344	35.04
774.523	36.03
774.701	35.2
774.88	36.09
775.059	36.98
775.238	37.66
775.417	37.03
775.595	37.3
775.774	37.59
775.953	37.66
776.131	37.52
776.31	38
776.489	37.12
776.667	37.84
776.846	36.9
777.025	36.08
777.203	35.22
777.382	36.47
777.56	35.6
777.739	35.63
777.917	34.71
778.096	34.95
778.274	33.81
778.453	34.49
778.631	34.5
778.81	34.75
778.988	34.62
779.166	35.8
779.345	35.07
779.523	35.61
779.702	34.78
779.88	35.6
780.058	35.28
780.237	36.1
780.415	36.63
780.593	36.36
780.771	35.45
780.95	35.92
781.128	36.24
781.306	35.94
781.484	36.47
781.662	37.76
781.841	38.97
782.019	38.46
782.197	37.39
782.375	35.58
782.553	36.56
782.731	36.82
782.909	36.34
783.087	36.16
783.265	37.85
783.443	37.36
783.621	36.83
783.799	36.56
783.977	36.85
784.155	37.34
784.333	38.33
784.511	37.5
784.689	36.87
784.867	37.57
785.045	37.36
785.223	36.08
785.4	35.35
785.578	35.76
785.756	36.04
785.934	37.62
786.112	37.36
786.289	36.71
786.467	35.95
786.645	38.09
786.823	37.42
787	36.93
787.178	36.64
787.356	36.5
787.533	35.29
787.711	34.91
787.889	33.38
788.066	33.96
788.244	34.31
788.421	34.12
788.599	32.85
788.776	32.75
788.954	32.5
789.131	32.77
789.309	33.65
789.486	34.17
789.664	33.69
789.841	34.12
790.019	33.55
790.196	34.07
790.373	34.65
790.551	35.15
790.728	35.75
790.906	35.85
791.083	35.19
791.26	35.85
791.437	35.28
791.615	34.06
791.792	33.42
791.969	33.46
792.146	33.29
792.324	33.42
792.501	31.75
792.678	31.46
792.855	32.15
793.032	32.97
793.209	32.85
793.387	34.2
793.564	35.22
793.741	35.98
793.918	36.63
794.095	36.54
794.272	38.1
794.449	39.74
794.626	39.86
794.803	40.14
794.98	39.79
795.157	38.58
795.334	37.36
795.511	38.07
795.688	37.6
795.864	37.27
796.041	36.88
796.218	35.21
796.395	34.63
796.572	34.32
796.749	33.63
796.925	34.4
797.102	34.21
797.279	35.48
797.456	34
797.632	34.05
797.809	34.58
797.986	34.9
798.162	34.36
798.339	34.22
798.516	34.04
798.692	33.86
798.869	33.26
799.046	33.95
799.222	33.11
799.399	34.37
799.575	34.26
799.752	33.91
799.928	32.5
800.105	32.92
800.281	33.49
800.458	34.56
800.634	34.88
800.811	34.11
800.987	32.4
801.163	32.02
801.34	32.18
801.516	31.58
801.692	31.59
801.869	32.32
802.045	33.5
802.221	32.88
802.398	31.97
802.574	32.41
802.75	34.39
802.926	36.45
803.103	36.97
803.279	36.34
803.455	37.34
803.631	37.52
803.807	38.37
803.983	36.54
804.16	35.72
804.336	36.11
804.512	35.75
804.688	34.05
804.864	33.1
805.04	33.26
805.216	33.42
805.392	32.66
805.568	32.18
805.744	31.24
805.92	32.96
806.096	34.32
806.272	33.07
806.448	32.52
806.623	34.47
806.799	35.33
806.975	34.77
807.151	34.34
807.327	34.47
807.503	35.93
807.678	35.47
807.854	35.07
808.03	35.18
808.206	34.82
808.381	35.12
808.557	34.51
808.733	34.23
808.908	34.29
809.084	34.62
809.26	35.37
809.435	34.82
809.611	35.56
809.787	35.65
809.962	35.64
810.138	37.68
810.313	36.73
810.489	36.42
810.664	36.49
810.84	36.31
811.015	35.55
811.191	37.13
811.366	35.54
811.542	37.89
811.717	37.24
811.892	38.16
812.068	38.17
812.243	38.44
812.419	36.75
812.594	35.57
812.769	35.81
812.944	36.48
813.12	34.38
813.295	36.58
813.47	35.66
813.645	35.95
813.821	34.23
813.996	34.23
814.171	33.67
814.346	34.63
814.521	36.61
814.697	36.45
814.872	37.21
815.047	36.97
815.222	36.23
815.397	35.36
815.572	36.12
815.747	35.84
815.922	34.57
816.097	35.51
816.272	35.75
816.447	35.85
816.622	35.65
816.797	34.45
816.972	34.28
817.147	32.71
817.322	31.5
817.496	31.21
817.671	32.11
817.846	32.62
818.021	32.72
818.196	30.54
818.371	28.77
818.545	29.52
818.72	30.61
818.895	31.91
819.069	33.44
819.244	32.59
819.419	30.04
819.594	29.98
819.768	28.85
819.943	27.74
820.117	29.12
820.292	28.99
820.467	28.02
820.641	27.4
820.816	25.93
820.99	25.07
821.165	25.43
821.339	25.7
821.514	25.13
821.688	25.22
821.863	25.23
822.037	25.09
822.212	24.97
822.386	24.69
822.56	24.2
822.735	24.36
822.909	24.52
823.084	24.23
823.258	24.28
823.432	24.29
823.606	24
823.781	23.74
823.955	23.34
824.129	23.18
824.303	23.18
824.478	23.55
824.652	23.38
824.826	23.19
825	23.41
825.174	23.26
825.348	23.15
825.523	23.6
825.697	23.85
825.871	24.66
826.045	25.13
826.219	25.52
826.393	25.11
826.567	25.29
826.741	25.48
826.915	25.04
827.089	24.55
827.263	24.45
827.437	24.52
827.611	24.68
827.784	24.72
827.958	24.65
828.132	24.57
828.306	24.7
828.48	24.85
828.654	24.47
828.827	24.89
829.001	25.38
829.175	25.71
829.349	25.62
829.522	25.94
829.696	26.14
829.87	26.43
830.044	26.64
830.217	26.95
830.391	26.13
830.565	25.72
830.738	27.1
830.912	27.51
831.085	27.4
831.259	27.52
831.432	26.99
831.606	25.68
831.779	25.73
831.953	25.46
832.126	26.69
832.3	26.69
832.473	27.31
832.647	26.36
832.82	25.63
832.994	25.4
833.167	25.47
833.34	26.09
833.514	25.97
833.687	25.85
833.86	26.15
834.034	25.83
834.207	26.18
834.38	26.16
834.553	26.48
834.727	26.57
834.9	27.3
835.073	27.3
835.246	26.75
835.419	27.21
835.593	26.77
835.766	26.99
835.939	27.01
836.112	27.02
836.285	26.85
836.458	27.38
836.631	28.58
836.804	28.09
836.977	28.56
837.15	29.69
837.323	31.47
837.496	32.31
837.669	33.89
837.842	33.76
838.015	35.9
838.188	36.22
838.361	34.72
838.533	33.7
838.706	34.73
838.879	35.7
839.052	36.45
839.225	32.86
839.398	32.8
839.57	32.33
839.743	32.52
839.916	32.81
840.088	32.8
840.261	33.93
840.434	35.01
840.607	35.82
840.779	34.34
840.952	34.31
841.124	35.37
841.297	36.59
841.47	34.55
841.642	35.45
841.815	35.62
841.987	37.22
842.16	37.27
842.332	37.74
842.505	37.61
842.677	38.58
842.85	37.9
843.022	41.13
843.194	42.95
843.367	46.73
843.539	45.65
843.712	46.96
843.884	47.23
844.056	50.73
844.229	50.93
844.401	50.8
844.573	51.54
844.745	53.83
844.918	48.63
845.09	45.83
845.262	44.19
845.434	45.8
845.606	42.51
845.779	40.45
845.951	36.17
846.123	35.95
846.295	37.22
846.467	39.19
846.639	36
846.811	41.84
846.983	44.35
847.155	44.15
847.327	46.11
847.499	48.66
847.671	51.3
847.843	49.58
848.015	50.6
848.187	49.34
848.359	48.59
848.531	50.32
848.703	50.83
848.875	50.23
849.047	47.38
849.218	43.14
849.39	46.47
849.562	47.7
849.734	49.09
849.905	49.54
850.077	49.64
850.249	50.15
850.421	50.62
850.592	52.13
850.764	49.59
850.936	54.12
851.107	56.27
851.279	52.9
851.451	53.24
851.622	55.05
851.794	56.98
851.965	61.03
852.137	58.39
852.308	56.25
852.48	53.32
852.651	52.71
852.823	51.7
852.994	50.7
853.166	51.12
853.337	48.29
853.509	45.81
853.68	42.96
853.851	34.87
854.023	34.25
854.194	33.79
854.365	32.75
854.537	35.25
854.708	33.5
854.879	38.42
855.05	36.06
855.222	37.94
855.393	39.6
855.564	40.07
855.735	40.66
855.906	44.47
856.078	49.19
856.249	50.7
856.42	52.26
856.591	55.12
856.762	45.98
856.933	49.43
857.104	47.38
857.275	49.66
857.446	50.07
857.617	51.05
857.788	51.11
857.959	48.26
858.13	46.97
858.301	47.03
858.472	45.72
858.643	49.48
858.814	48.23
858.985	53.37
859.155	55.46
859.326	52.58
859.497	51.28
859.668	47.25
859.839	43.48
860.009	43.43
860.18	42.58
860.351	36.7
860.522	39
860.692	35.39
860.863	33.15
861.034	29.1
861.204	32.83
861.375	35.19
861.546	38.53
861.716	39.94
861.887	39.92
862.057	39.14
862.228	44.7
862.398	45.34
862.569	45.15
862.739	41.7
862.91	36.22
863.08	35.41
863.251	37.19
863.421	36.87
863.592	40.91
863.762	41.58
863.932	39.72
864.103	43.11
864.273	45.47
864.443	46.46
864.614	43.83
864.784	48.45
864.954	45.18
865.125	47.76
865.295	46.32
865.465	41.76
865.635	41.4
865.805	44.96
865.976	43.42
866.146	40.57
866.316	43.69
866.486	50.62
866.656	51.6
866.826	57.93
866.996	50.29
867.166	53.85
867.336	60.43
867.506	58.64
867.676	53.49
867.846	54.87
868.016	53.14
868.186	52.2
868.356	55.69
868.526	54.51
868.696	53.03
868.866	58.95
869.036	55.49
869.206	50.18
869.376	50.32
869.545	49.27
869.715	51.04
869.885	50.26
870.055	48.95
870.224	50.05
870.394	46.64
870.564	42.59
870.734	39.7
870.903	38.56
871.073	38.03
871.243	37.42
871.412	45.45
871.582	39.12
871.751	43.79
871.921	44.22
872.091	33.45
872.26	35.99
872.43	42.13
872.599	43.52
872.769	46.57
872.938	49.07
873.108	52.42
873.277	49.87
873.446	51.55
873.616	50.93
873.785	49.78
873.955	56.2
874.124	61.9
874.293	60.07
874.463	55.14
874.632	56.57
874.801	58
874.971	60.28
875.14	60.94
875.309	58.11
875.478	55.36
875.647	57.93
875.817	56.23
875.986	53.37
876.155	52.6
876.324	54.8
876.493	52.85
876.662	51.05
876.831	46.1
877	40.2
877.17	45.13
877.339	43.02
877.508	42.42
877.677	41.19
877.846	41.63
878.015	39.2
878.184	34.73
878.352	36.01
878.521	39.74
878.69	42.72
878.859	45.53
879.028	37.22
879.197	35.45
879.366	32.25
879.534	33.92
879.703	29.56
879.872	29.32
880.041	29.68
880.21	26.11
880.378	23.24
880.547	23.7
880.716	23.84
880.884	24.34
881.053	24.72
881.222	24.32
881.39	22.62
881.559	22.44
881.727	22.55
881.896	22.28
882.065	22.41
882.233	22.02
882.402	21.49
882.57	21.52
882.739	20.72
882.907	20.48
883.076	21.28
883.244	21.95
883.412	22.18
883.581	21.91
883.749	21.72
883.918	21.61
884.086	22
884.254	22.07
884.423	22.12
884.591	23.64
884.759	24.93
884.927	23.78
885.096	23.44
885.264	25.04
885.432	24.47
885.6	26.97
885.769	28.36
885.937	29.93
886.105	30.16
886.273	32.01
886.441	33.36
886.609	33.59
886.777	35.17
886.945	35.79
887.113	34.76
887.281	36.85
887.449	37.07
887.617	36.06
887.785	36.54
887.953	39.25
888.121	38.88
888.289	39.56
888.457	41.15
888.625	42.92
888.793	43.24
888.961	43.78
889.129	45.14
889.296	42.45
889.464	47.01
889.632	48.25
889.8	45.71
889.967	44.24
890.135	41.33
