Data from 2938779__Reflection_03.txt Node
Date: Fri Mar 13 13:13:55 EDT 2015
User: robert
Spectrometer: USB4E03002
Autoset integration time: false
Trigger mode: 4
Integration Time (sec): 1.000000E-1
Scans to average: 10
Electric dark correction enabled: false
Nonlinearity correction enabled: false
Boxcar width: 5
Stray light correction enabled: false
XAxis mode: Wavelengths
Stop averaging: false
Number of Pixels in Spectrum: 3648
>>>>>Begin Spectral Data<<<<<
177.575	-123.61
177.794	-324.66
178.014	-974.07
178.233	577.61
178.452	872.97
178.672	156.82
178.891	73.78
179.11	204.35
179.33	43.28
179.549	64.29
179.768	56.67
179.987	-28.36
180.207	-185.19
180.426	-27.69
180.645	728.57
180.864	309.68
181.084	113.78
181.303	57.48
181.522	114.89
181.741	-106.67
181.96	51.75
182.179	9.02
182.398	33.55
182.618	24.95
182.837	-18.45
183.056	66.95
183.275	54.08
183.494	71.18
183.713	57.8
183.932	8.67
184.151	-7.42
184.37	-86.21
184.589	-121.91
184.808	-314.44
185.027	-42.81
185.246	-21.04
185.465	-79.63
185.684	-108.07
185.903	-115.5
186.122	-44.44
186.341	-22.48
186.56	-21.27
186.779	-65.16
186.998	-33.54
187.216	-33.25
187.435	-320.34
187.654	-120.07
187.873	-59.84
188.092	-83.84
188.311	-171.1
188.53	-118.27
188.748	-345.31
188.967	1437.5
189.186	-151.45
189.405	-79.86
189.623	-20.65
189.842	22.46
190.061	44.47
190.28	77.52
190.498	96.8
190.717	74.76
190.936	68.02
191.154	45.21
191.373	41.69
191.592	55.54
191.81	34.16
192.029	31.59
192.248	35.09
192.466	35.25
192.685	44.88
192.904	40.16
193.122	18.22
193.341	-2.87
193.559	-35
193.778	54.84
193.996	27.86
194.215	248
194.433	13.08
194.652	-28.38
194.87	-120.21
195.089	-6080
195.307	-1330.77
195.526	310.28
195.744	-527.66
195.963	-69.4
196.181	-107.02
196.399	-68.8
196.618	-100.3
196.836	-98.66
197.055	-261.04
197.273	-346.15
197.491	-911.76
197.71	-488.89
197.928	-50.84
198.146	-171.19
198.365	-340
198.583	-427.27
198.801	148.47
199.019	119.31
199.238	90.55
199.456	98.54
199.674	145.7
199.892	216.26
200.111	210.99
200.329	206.93
200.547	168.56
200.765	124.17
200.983	67.49
201.202	169.16
201.42	362.5
201.638	-365.22
201.856	-152.58
202.074	-470.73
202.292	-13.68
202.51	-103.88
202.728	-6.81
202.946	-108.05
203.165	-606.35
203.383	-42800
203.601	-188.73
203.819	-301.98
204.037	-252.94
204.255	-161.29
204.473	-54.77
204.691	-149.72
204.909	-39.7
205.127	-145.19
205.345	-104.14
205.562	-155.52
205.78	-74.02
205.998	-98.33
206.216	-63.5
206.434	-60.31
206.652	-13.37
206.87	-38.08
207.088	-10.92
207.306	-59.45
207.523	-36.61
207.741	-23.5
207.959	-16.39
208.177	-32.77
208.395	-58.1
208.612	-67.61
208.83	-37.9
209.048	-113.99
209.266	-1256.67
209.483	1738.24
209.701	1496
209.919	-473.44
210.136	-3680
210.354	425
210.572	156.83
210.79	-181.31
211.007	-36.6
211.225	-220.34
211.442	-45.45
211.66	-5.66
211.878	35.07
212.095	33.98
212.313	-10.53
212.53	-39.86
212.748	-65.52
212.966	-18.29
213.183	-30.08
213.401	-53.33
213.618	-49.67
213.836	-68.6
214.053	-102.45
214.271	-119.5
214.488	-89.85
214.705	-79.19
214.923	-69.59
215.14	-47.82
215.358	-68.05
215.575	-63.68
215.793	-50.6
216.01	-34.9
216.227	-20.14
216.445	-7.65
216.662	-13.82
216.879	-19.45
217.097	-19.33
217.314	-24.25
217.531	-14.72
217.749	5.78
217.966	18.35
218.183	-2.9
218.4	-10.93
218.618	-2.52
218.835	2.93
219.052	15.64
219.269	18.39
219.487	27.56
219.704	30.69
219.921	7.77
220.138	4.47
220.355	1.89
220.572	5.41
220.79	6.53
221.007	-11.12
221.224	-18.88
221.441	-17.29
221.658	-5.78
221.875	-14.93
222.092	-13.96
222.309	-7.74
222.526	-21.92
222.743	-20.78
222.96	-13.11
223.177	-9.99
223.394	-11.55
223.611	-13.67
223.828	-6.31
224.045	-19.26
224.262	-7.8
224.479	-7.59
224.696	-5.03
224.913	3.33
225.13	5.12
225.347	9.52
225.564	6.25
225.781	11.66
225.997	12.04
226.214	12.35
226.431	16.06
226.648	12.49
226.865	11.48
227.082	9.31
227.298	7.36
227.515	4.95
227.732	3.03
227.949	3.58
228.165	3.9
228.382	4.9
228.599	3.48
228.816	4.03
229.032	3.69
229.249	4.27
229.466	4.65
229.682	5.18
229.899	5.08
230.116	4.81
230.332	4.59
230.549	4.01
230.765	3.31
230.982	4.3
231.199	3.91
231.415	5.15
231.632	5.12
231.848	5.27
232.065	4.08
232.281	5.22
232.498	5.36
232.714	5.3
232.931	5.97
233.147	6.19
233.364	4.8
233.58	3.66
233.797	1.98
234.013	1.7
234.23	0.66
234.446	1.25
234.662	0.84
234.879	0.99
235.095	1.81
235.312	2.54
235.528	1.38
235.744	0.69
235.961	2.39
236.177	3.64
236.393	3.68
236.61	3.73
236.826	3.94
237.042	4.3
237.258	4.26
237.475	2.48
237.691	1.04
237.907	0.58
238.123	1.84
238.339	0.51
238.556	0.6
238.772	1.22
238.988	2.12
239.204	2.64
239.42	3.69
239.636	3.53
239.853	4.8
240.069	5.83
240.285	7.02
240.501	7.06
240.717	7.94
240.933	8.02
241.149	7.74
241.365	6.88
241.581	6.75
241.797	6.61
242.013	7.74
242.229	7.86
242.445	7.51
242.661	7.47
242.877	7.17
243.093	6.76
243.309	6.44
243.525	6.29
243.741	6.48
243.957	6.9
244.173	6.39
244.388	5.23
244.604	4.12
244.82	4
245.036	3.85
245.252	3.7
245.468	3.97
245.683	4.84
245.899	4.55
246.115	4.99
246.331	4.56
246.547	4.99
246.762	5
246.978	5.53
247.194	5.69
247.409	5.7
247.625	5.8
247.841	5.52
248.057	5.13
248.272	5.31
248.488	5.23
248.703	5.63
248.919	5.25
249.135	5.36
249.35	5.55
249.566	5.47
249.782	5.52
249.997	5.82
250.213	6.54
250.428	6.63
250.644	6.36
250.859	6.02
251.075	5.56
251.29	5.14
251.506	6.02
251.721	5.67
251.937	5.63
252.152	5.36
252.368	5.55
252.583	5.43
252.798	5.38
253.014	5.13
253.229	5.42
253.445	5.22
253.66	5.9
253.875	5.3
254.091	3.83
254.306	3.65
254.521	3.49
254.737	3.44
254.952	3.81
255.167	3.31
255.383	3.78
255.598	3.39
255.813	3.54
256.028	2.92
256.244	1.83
256.459	3.66
256.674	3.7
256.889	3.82
257.104	3.72
257.32	3.89
257.535	4.57
257.75	4.4
257.965	4.14
258.18	3.6
258.395	3.83
258.61	4.16
258.826	3.75
259.041	3.53
259.256	3.65
259.471	3.39
259.686	3.07
259.901	3.09
260.116	3.08
260.331	3.38
260.546	3.37
260.761	3.38
260.976	3.19
261.191	3.11
261.406	3.2
261.621	3.06
261.836	3.03
262.05	2.48
262.265	2.04
262.48	1.9
262.695	1.49
262.91	1.39
263.125	1.3
263.34	1.33
263.555	1.5
263.769	1.33
263.984	0.53
264.199	0.5
264.414	0.89
264.629	1.21
264.843	1.65
265.058	1.65
265.273	2.4
265.488	2.52
265.702	3.18
265.917	3.28
266.132	3.7
266.346	4.11
266.561	4.18
266.776	4.32
266.99	4.07
267.205	3.91
267.42	4.02
267.634	3.73
267.849	3.61
268.063	3.78
268.278	3.88
268.492	3.25
268.707	3.21
268.922	3.33
269.136	3.8
269.351	3.47
269.565	3.7
269.78	3.84
269.994	3.84
270.209	3.46
270.423	2.94
270.637	2.81
270.852	2.96
271.066	3.41
271.281	3.15
271.495	2.62
271.709	2.79
271.924	2.58
272.138	2.58
272.353	2.83
272.567	3.24
272.781	3.08
272.996	2.98
273.21	3.36
273.424	3.29
273.638	3.41
273.853	3.8
274.067	4
274.281	4.28
274.495	3.95
274.71	4.02
274.924	4.26
275.138	4.05
275.352	4.21
275.566	3.67
275.781	3.23
275.995	3.32
276.209	3.39
276.423	2.92
276.637	2.59
276.851	3.04
277.065	3.21
277.279	2.8
277.493	3.09
277.707	3.17
277.921	3.14
278.135	3.49
278.349	3.11
278.563	3.33
278.777	4.21
278.991	4.59
279.205	4.48
279.419	3.68
279.633	3.62
279.847	3.97
280.061	3.63
280.275	3.71
280.489	3.58
280.703	3.69
280.917	2.86
281.131	2.21
281.344	2.06
281.558	1.53
281.772	1.73
281.986	1.89
282.2	1.7
282.414	1.87
282.627	2.08
282.841	1.86
283.055	2.08
283.269	2.08
283.482	2.27
283.696	2.18
283.91	2.45
284.123	2.5
284.337	2.66
284.551	2.76
284.764	2.64
284.978	2.43
285.192	2.88
285.405	2.88
285.619	3.09
285.833	3.14
286.046	3.01
286.26	3.13
286.473	3.16
286.687	3.08
286.9	3.15
287.114	3.13
287.327	3.16
287.541	2.97
287.754	2.8
287.968	3.02
288.181	2.95
288.395	3.25
288.608	3.41
288.822	3.38
289.035	3.07
289.248	2.75
289.462	2.98
289.675	3
289.889	3.09
290.102	3.16
290.315	3.24
290.529	3.42
290.742	3.5
290.955	3.38
291.169	3.7
291.382	3.81
291.595	4.11
291.808	4.27
292.022	4.21
292.235	3.85
292.448	3.87
292.661	3.91
292.875	3.78
293.088	4.1
293.301	3.9
293.514	3.81
293.727	4.47
293.94	4.47
294.153	4.2
294.367	4.24
294.58	4.49
294.793	4.14
295.006	4.03
295.219	4.13
295.432	3.4
295.645	3.87
295.858	3.84
296.071	3.59
296.284	3.55
296.497	3.67
296.71	4.04
296.923	4.22
297.136	4.58
297.349	4.62
297.562	4.69
297.775	5.13
297.988	5.05
298.201	5.01
298.414	5.07
298.626	4.93
298.839	4.81
299.052	4.71
299.265	4.37
299.478	4.52
299.691	4.47
299.903	4.6
300.116	4.4
300.329	4.19
300.542	4.51
300.755	4.33
300.967	4.7
301.18	4.95
301.393	4.88
301.605	5.31
301.818	5.39
302.031	5.57
302.243	5.08
302.456	5.34
302.669	5.39
302.881	4.99
303.094	4.96
303.307	4.8
303.519	4.65
303.732	4.62
303.944	4.09
304.157	3.97
304.37	4.1
304.582	4.21
304.795	4.21
305.007	4.58
305.22	4.71
305.432	5.01
305.645	4.9
305.857	5.1
306.069	5.62
306.282	6.03
306.494	5.87
306.707	5.26
306.919	5.24
307.132	5.16
307.344	5.13
307.556	5.44
307.769	5.34
307.981	5.98
308.193	5.87
308.406	5.57
308.618	5.64
308.83	5.49
309.043	5.84
309.255	5.98
309.467	6.18
309.679	5.93
309.892	5.54
310.104	5.64
310.316	4.98
310.528	5.07
310.74	5.15
310.953	5.12
311.165	5.46
311.377	5.35
311.589	5.58
311.801	5.41
312.013	5.51
312.225	5.74
312.437	5.65
312.649	5.98
312.862	6.03
313.074	5.54
313.286	5.73
313.498	5.38
313.71	5.77
313.922	5.52
314.134	5.66
314.346	5.41
314.558	5.5
314.77	5.74
314.982	5.78
315.193	5.8
315.405	6.29
315.617	6.28
315.829	6.66
316.041	6.55
316.253	6.34
316.465	6.63
316.677	6.7
316.888	6.71
317.1	6.36
317.312	6.55
317.524	6.33
317.736	6.58
317.947	6.11
318.159	6.06
318.371	6.09
318.583	6.12
318.794	5.7
319.006	6.05
319.218	5.72
319.43	5.32
319.641	5.11
319.853	5.68
320.064	5.44
320.276	5.79
320.488	5.58
320.699	5.45
320.911	5.67
321.123	5.73
321.334	5.24
321.546	5.54
321.757	5.9
321.969	5.89
322.18	5.81
322.392	6.13
322.603	6.25
322.815	6.36
323.026	6.42
323.238	6.35
323.449	6.11
323.661	6.1
323.872	6.11
324.083	6.09
324.295	6.09
324.506	5.56
324.718	4.89
324.929	4.74
325.14	4.79
325.352	4.74
325.563	4.95
325.774	4.75
325.986	5.02
326.197	4.96
326.408	5.33
326.62	5.28
326.831	5.27
327.042	5.51
327.253	5.37
327.464	5.44
327.676	5.59
327.887	5.77
328.098	6.15
328.309	5.93
328.52	6.17
328.732	6.06
328.943	6.36
329.154	6.57
329.365	6.71
329.576	6.64
329.787	6.64
329.998	6.12
330.209	5.5
330.42	5.45
330.631	5.92
330.842	5.59
331.053	5.55
331.264	5.13
331.475	4.88
331.686	5.11
331.897	5.28
332.108	5.44
332.319	6.06
332.53	6.47
332.741	6.71
332.952	6.26
333.163	5.94
333.374	5.52
333.585	5.9
333.795	5.95
334.006	5.63
334.217	5.91
334.428	5.69
334.639	5.58
334.849	5.12
335.06	4.71
335.271	4.87
335.482	5.46
335.692	5.94
335.903	5.93
336.114	6.2
336.325	6.27
336.535	5.89
336.746	5.94
336.957	5.58
337.167	5.97
337.378	6.16
337.589	6.27
337.799	5.93
338.01	5.76
338.22	5.73
338.431	5.68
338.642	5.41
338.852	5.64
339.063	5.62
339.273	6.06
339.484	6.02
339.694	5.86
339.905	5.78
340.115	5.88
340.326	5.94
340.536	5.83
340.746	5.73
340.957	6.11
341.167	6.04
341.378	5.84
341.588	5.4
341.799	5.54
342.009	5.69
342.219	5.58
342.43	5.48
342.64	5.44
342.85	5.29
343.061	5.29
343.271	5.03
343.481	4.74
343.691	4.71
343.902	4.87
344.112	4.75
344.322	4.66
344.532	4.96
344.743	5.46
344.953	5.68
345.163	5.74
345.373	5.74
345.583	5.78
345.793	6.05
346.004	6.09
346.214	6.24
346.424	6.19
346.634	6.28
346.844	5.97
347.054	5.36
347.264	5.24
347.474	5.3
347.684	5.36
347.894	5.52
348.104	5.68
348.314	5.66
348.524	5.7
348.734	5.64
348.944	5.79
349.154	6.35
349.364	6.46
349.574	6.2
349.784	6.48
349.994	6.54
350.204	6.69
350.413	6.61
350.623	6.97
350.833	6.62
351.043	6.56
351.253	6.32
351.463	6.18
351.672	6.19
351.882	6.79
352.092	6.57
352.302	6.53
352.511	6.42
352.721	6.3
352.931	6.17
353.141	6.46
353.35	6.52
353.56	6.8
353.77	6.33
353.979	6.24
354.189	6.01
354.399	6.1
354.608	5.83
354.818	5.88
355.027	5.96
355.237	6.04
355.447	5.97
355.656	5.97
355.866	5.76
356.075	5.88
356.285	5.79
356.494	5.76
356.704	5.69
356.913	6
357.123	5.71
357.332	5.8
357.542	5.72
357.751	5.89
357.96	5.74
358.17	5.75
358.379	5.64
358.589	5.88
358.798	5.95
359.007	5.96
359.217	5.99
359.426	6.35
359.635	6.29
359.845	6.28
360.054	6.06
360.263	6.27
360.472	6.3
360.682	6.39
360.891	6.24
361.1	6
361.309	6.06
361.519	5.93
361.728	5.83
361.937	5.78
362.146	5.64
362.355	5.55
362.564	5.49
362.774	5.52
362.983	5.53
363.192	5.52
363.401	5.47
363.61	5.33
363.819	5.26
364.028	5.04
364.237	5.03
364.446	5.05
364.655	5.09
364.864	5.19
365.073	4.8
365.282	4.87
365.491	4.9
365.7	4.92
365.909	5.06
366.118	5.27
366.327	5.37
366.536	5.3
366.745	5.24
366.954	4.97
367.162	4.92
367.371	5.2
367.58	5.08
367.789	5.06
367.998	4.95
368.207	4.74
368.415	4.56
368.624	4.55
368.833	4.55
369.042	4.58
369.25	5.01
369.459	4.8
369.668	4.51
369.877	4.41
370.085	4.37
370.294	4.7
370.503	4.98
370.711	5.01
370.92	4.86
371.129	4.8
371.337	4.69
371.546	4.59
371.754	4.76
371.963	5.12
372.171	5.5
372.38	5.58
372.589	5.43
372.797	4.82
373.006	4.53
373.214	4.41
373.423	4.31
373.631	4.56
373.84	4.61
374.048	4.47
374.256	4.34
374.465	4.16
374.673	4.06
374.882	3.95
375.09	4.13
375.298	4.71
375.507	4.67
375.715	4.68
375.923	4.51
376.132	4.64
376.34	4.39
376.548	4.29
376.757	4.25
376.965	4.26
377.173	4.11
377.381	4.18
377.59	3.84
377.798	4.15
378.006	4.16
378.214	4.04
378.423	3.7
378.631	3.86
378.839	3.8
379.047	3.59
379.255	3.62
379.463	3.71
379.671	3.49
379.879	3.5
380.088	3.37
380.296	3.3
380.504	3.21
380.712	3.2
380.92	3.1
381.128	3.23
381.336	3.1
381.544	2.95
381.752	2.79
381.96	3.13
382.168	3.13
382.376	3.03
382.584	3.18
382.791	3.2
382.999	3.34
383.207	3.34
383.415	3.25
383.623	3.18
383.831	3.19
384.039	3.31
384.247	3.03
384.454	2.99
384.662	2.89
384.87	2.69
385.078	2.74
385.285	2.44
385.493	2.41
385.701	2.4
385.909	2.61
386.116	2.66
386.324	2.62
386.532	2.72
386.739	2.6
386.947	2.66
387.155	2.75
387.362	2.8
387.57	2.98
387.778	3.26
387.985	3.28
388.193	3.41
388.4	3.27
388.608	3.49
388.816	3.38
389.023	3.5
389.231	3.5
389.438	3.38
389.646	3.28
389.853	3.16
390.061	3.04
390.268	2.93
390.475	2.42
390.683	2.33
390.89	1.91
391.098	1.86
391.305	1.85
391.512	1.78
391.72	1.91
391.927	1.97
392.135	1.94
392.342	1.81
392.549	1.86
392.756	1.98
392.964	2.05
393.171	2.08
393.378	2.01
393.586	1.88
393.793	2.09
394	2.03
394.207	2.11
394.414	1.92
394.622	1.91
394.829	1.77
395.036	1.79
395.243	1.73
395.45	1.92
395.657	2.08
395.864	2.18
396.072	1.94
396.279	2
396.486	1.64
396.693	1.98
396.9	2
397.107	2.11
397.314	2.17
397.521	2.34
397.728	2.41
397.935	2.54
398.142	2.57
398.349	2.5
398.556	2.21
398.763	2.15
398.97	1.92
399.177	1.92
399.383	2
399.59	2.11
399.797	1.89
400.004	1.72
400.211	1.47
400.418	1.28
400.625	1.41
400.831	1.57
401.038	2.05
401.245	2.26
401.452	2.37
401.658	2.14
401.865	2.11
402.072	2.32
402.279	2.24
402.485	2.18
402.692	2.29
402.899	2.31
403.105	2.29
403.312	1.97
403.519	1.8
403.725	1.8
403.932	1.91
404.138	1.97
404.345	1.94
404.552	2.08
404.758	2.23
404.965	2.11
405.171	2.22
405.378	2.17
405.584	2.23
405.791	2.31
405.997	2.08
406.204	2.05
406.41	2.02
406.617	2.07
406.823	2.19
407.029	2.14
407.236	2.19
407.442	2.08
407.649	2.11
407.855	2.06
408.061	1.95
408.268	1.97
408.474	2.08
408.68	1.93
408.887	1.9
409.093	1.84
409.299	1.9
409.505	1.81
409.712	1.66
409.918	1.68
410.124	1.89
410.33	2.25
410.537	2.37
410.743	2.3
410.949	2.21
411.155	2.17
411.361	2.14
411.567	2.08
411.773	2.1
411.98	2.15
412.186	2.12
412.392	1.92
412.598	1.67
412.804	1.68
413.01	1.45
413.216	1.59
413.422	1.54
413.628	1.43
413.834	1.5
414.04	1.54
414.246	1.68
414.452	1.8
414.658	2.05
414.864	2.04
415.07	1.92
415.275	2.03
415.481	2.03
415.687	2.08
415.893	2.08
416.099	1.95
416.305	1.95
416.511	1.78
416.716	1.74
416.922	1.58
417.128	1.52
417.334	1.56
417.539	1.54
417.745	1.54
417.951	1.51
418.157	1.5
418.362	1.52
418.568	1.49
418.774	1.56
418.979	1.65
419.185	1.76
419.391	1.77
419.596	1.78
419.802	1.8
420.008	1.8
420.213	1.81
420.419	1.83
420.624	1.83
420.83	1.92
421.035	1.89
421.241	1.78
421.446	1.74
421.652	1.78
421.857	1.75
422.063	1.81
422.268	1.87
422.474	1.88
422.679	1.9
422.885	1.92
423.09	1.88
423.295	1.86
423.501	1.91
423.706	1.87
423.911	1.9
424.117	1.96
424.322	1.93
424.527	1.79
424.733	1.79
424.938	1.81
425.143	1.81
425.349	1.78
425.554	1.79
425.759	1.74
425.964	1.77
426.169	1.68
426.375	1.56
426.58	1.6
426.785	1.66
426.99	1.66
427.195	1.68
427.4	1.75
427.605	1.85
427.811	1.93
428.016	1.92
428.221	1.87
428.426	1.88
428.631	1.97
428.836	1.89
429.041	1.88
429.246	1.76
429.451	1.65
429.656	1.55
429.861	1.49
430.066	1.39
430.271	1.44
430.476	1.43
430.681	1.47
430.886	1.35
431.09	1.4
431.295	1.52
431.5	1.62
431.705	1.58
431.91	1.57
432.115	1.57
432.32	1.66
432.524	1.64
432.729	1.73
432.934	1.76
433.139	1.84
433.343	1.79
433.548	1.76
433.753	1.83
433.958	1.89
434.162	1.96
434.367	1.96
434.572	1.87
434.776	1.82
434.981	1.72
435.186	1.72
435.39	1.74
435.595	1.76
435.799	1.72
436.004	1.57
436.209	1.61
436.413	1.72
436.618	1.68
436.822	1.63
437.027	1.68
437.231	1.67
437.436	1.64
437.64	1.59
437.845	1.67
438.049	1.7
438.253	1.71
438.458	1.67
438.662	1.53
438.867	1.6
439.071	1.66
439.275	1.66
439.48	1.61
439.684	1.66
439.888	1.61
440.093	1.53
440.297	1.45
440.501	1.48
440.706	1.5
440.91	1.54
441.114	1.55
441.318	1.53
441.523	1.53
441.727	1.61
441.931	1.48
442.135	1.54
442.339	1.58
442.543	1.65
442.748	1.67
442.952	1.68
443.156	1.72
443.36	1.74
443.564	1.75
443.768	1.86
443.972	1.74
444.176	1.84
444.38	1.75
444.584	1.84
444.788	1.88
444.992	1.86
445.196	1.78
445.4	1.84
445.604	1.83
445.808	1.88
446.012	1.77
446.216	1.88
446.42	1.86
446.624	1.88
446.828	1.8
447.032	1.68
447.235	1.64
447.439	1.65
447.643	1.5
447.847	1.44
448.051	1.34
448.254	1.34
448.458	1.27
448.662	1.26
448.866	1.29
449.069	1.32
449.273	1.35
449.477	1.35
449.681	1.34
449.884	1.36
450.088	1.46
450.292	1.57
450.495	1.58
450.699	1.55
450.902	1.59
451.106	1.47
451.31	1.48
451.513	1.6
451.717	1.62
451.92	1.65
452.124	1.68
452.327	1.62
452.531	1.62
452.734	1.62
452.938	1.65
453.141	1.63
453.345	1.76
453.548	1.66
453.752	1.5
453.955	1.47
454.158	1.43
454.362	1.43
454.565	1.38
454.769	1.29
454.972	1.32
455.175	1.42
455.379	1.51
455.582	1.59
455.785	1.63
455.988	1.61
456.192	1.7
456.395	1.72
456.598	1.71
456.801	1.71
457.005	1.79
457.208	1.72
457.411	1.69
457.614	1.53
457.817	1.38
458.021	1.32
458.224	1.42
458.427	1.43
458.63	1.43
458.833	1.43
459.036	1.38
459.239	1.42
459.442	1.41
459.645	1.42
459.848	1.4
460.051	1.49
460.254	1.51
460.457	1.49
460.66	1.39
460.863	1.41
461.066	1.37
461.269	1.42
461.472	1.41
461.675	1.4
461.878	1.37
462.081	1.49
462.284	1.52
462.486	1.61
462.689	1.68
462.892	1.78
463.095	1.75
463.298	1.84
463.5	1.9
463.703	1.86
463.906	1.99
464.109	1.96
464.311	1.94
464.514	1.86
464.717	1.72
464.92	1.75
465.122	1.72
465.325	1.79
465.528	1.66
465.73	1.56
465.933	1.57
466.135	1.41
466.338	1.45
466.541	1.51
466.743	1.5
466.946	1.6
467.148	1.61
467.351	1.55
467.553	1.58
467.756	1.69
467.958	1.71
468.161	1.76
468.363	1.82
468.566	1.69
468.768	1.52
468.971	1.49
469.173	1.45
469.375	1.52
469.578	1.64
469.78	1.6
469.983	1.57
470.185	1.59
470.387	1.58
470.59	1.57
470.792	1.61
470.994	1.64
471.196	1.62
471.399	1.69
471.601	1.55
471.803	1.51
472.005	1.53
472.208	1.51
472.41	1.54
472.612	1.58
472.814	1.54
473.016	1.55
473.218	1.6
473.421	1.54
473.623	1.5
473.825	1.41
474.027	1.46
474.229	1.45
474.431	1.42
474.633	1.44
474.835	1.32
475.037	1.42
475.239	1.54
475.441	1.59
475.643	1.74
475.845	1.77
476.047	1.81
476.249	1.82
476.451	1.78
476.653	1.91
476.855	1.85
477.057	1.88
477.258	1.96
477.46	1.82
477.662	1.82
477.864	1.75
478.066	1.66
478.268	1.68
478.469	1.68
478.671	1.65
478.873	1.65
479.075	1.64
479.276	1.64
479.478	1.54
479.68	1.61
479.882	1.61
480.083	1.64
480.285	1.69
480.487	1.75
480.688	1.68
480.89	1.75
481.091	1.64
481.293	1.68
481.495	1.63
481.696	1.61
481.898	1.63
482.099	1.62
482.301	1.59
482.502	1.6
482.704	1.57
482.905	1.6
483.107	1.58
483.308	1.6
483.51	1.55
483.711	1.55
483.913	1.56
484.114	1.55
484.315	1.52
484.517	1.54
484.718	1.51
484.92	1.5
485.121	1.47
485.322	1.49
485.524	1.48
485.725	1.49
485.926	1.52
486.127	1.53
486.329	1.52
486.53	1.55
486.731	1.59
486.932	1.59
487.134	1.59
487.335	1.61
487.536	1.59
487.737	1.58
487.938	1.61
488.139	1.62
488.341	1.62
488.542	1.64
488.743	1.62
488.944	1.6
489.145	1.65
489.346	1.63
489.547	1.63
489.748	1.68
489.949	1.67
490.15	1.65
490.351	1.59
490.552	1.59
490.753	1.59
490.954	1.61
491.155	1.62
491.356	1.59
491.557	1.64
491.758	1.62
491.959	1.6
492.159	1.64
492.36	1.67
492.561	1.75
492.762	1.76
492.963	1.77
493.164	1.79
493.364	1.77
493.565	1.77
493.766	1.72
493.967	1.73
494.167	1.69
494.368	1.69
494.569	1.69
494.769	1.66
494.97	1.65
495.171	1.65
495.371	1.64
495.572	1.68
495.773	1.72
495.973	1.77
496.174	1.74
496.375	1.8
496.575	1.83
496.776	1.84
496.976	1.85
497.177	1.84
497.377	1.87
497.578	1.87
497.778	1.9
497.979	1.91
498.179	1.91
498.38	1.99
498.58	2.04
498.78	1.96
498.981	1.95
499.181	1.89
499.382	1.91
499.582	1.88
499.782	1.92
499.983	1.89
500.183	1.92
500.383	1.87
500.584	1.86
500.784	1.81
500.984	1.93
501.184	1.97
501.385	2.01
501.585	2.01
501.785	2
501.985	1.99
502.185	2.06
502.386	2.16
502.586	2.22
502.786	2.16
502.986	2.19
503.186	2.11
503.386	2.09
503.586	2.15
503.786	2.19
503.987	2.28
504.187	2.23
504.387	2.26
504.587	2.22
504.787	2.23
504.987	2.34
505.187	2.39
505.387	2.45
505.587	2.54
505.786	2.55
505.986	2.55
506.186	2.56
506.386	2.65
506.586	2.67
506.786	2.66
506.986	2.78
507.186	2.8
507.386	2.79
507.585	2.76
507.785	2.67
507.985	2.66
508.185	2.71
508.384	2.77
508.584	2.73
508.784	2.7
508.984	2.68
509.183	2.67
509.383	2.77
509.583	2.88
509.782	2.93
509.982	3.07
510.182	3.15
510.381	3.22
510.581	3.21
510.781	3.24
510.98	3.23
511.18	3.3
511.379	3.35
511.579	3.29
511.778	3.35
511.978	3.42
512.177	3.46
512.377	3.51
512.576	3.54
512.776	3.57
512.975	3.67
513.175	3.83
513.374	3.74
513.573	3.73
513.773	3.86
513.972	3.85
514.172	3.93
514.371	4.04
514.57	4.01
514.77	4
514.969	4.11
515.168	4.24
515.367	4.28
515.567	4.58
515.766	4.69
515.965	4.66
516.164	4.7
516.364	4.75
516.563	4.69
516.762	4.82
516.961	4.96
517.16	5.01
517.359	5.04
517.559	5.11
517.758	5.19
517.957	5.29
518.156	5.45
518.355	5.5
518.554	5.61
518.753	5.72
518.952	5.79
519.151	5.89
519.35	5.98
519.549	6
519.748	6.11
519.947	6.07
520.146	6.2
520.345	6.2
520.544	6.32
520.743	6.41
520.942	6.57
521.141	6.73
521.339	6.77
521.538	6.88
521.737	7.14
521.936	7.25
522.135	7.39
522.333	7.51
522.532	7.6
522.731	7.74
522.93	7.85
523.129	7.97
523.327	8.06
523.526	8.12
523.725	8.2
523.923	8.29
524.122	8.39
524.321	8.55
524.519	8.6
524.718	8.74
524.917	8.88
525.115	8.99
525.314	9.06
525.512	9.17
525.711	9.36
525.909	9.52
526.108	9.58
526.306	9.66
526.505	9.81
526.703	9.93
526.902	10.06
527.1	10.13
527.299	10.31
527.497	10.45
527.696	10.49
527.894	10.53
528.092	10.56
528.291	10.67
528.489	10.75
528.688	10.78
528.886	10.85
529.084	10.89
529.283	10.95
529.481	10.94
529.679	10.97
529.877	11.05
530.076	11.13
530.274	11.23
530.472	11.29
530.67	11.42
530.869	11.57
531.067	11.71
531.265	11.88
531.463	12.01
531.661	12.19
531.859	12.31
532.057	12.45
532.255	12.66
532.454	12.79
532.652	12.95
532.85	13.05
533.048	13.11
533.246	13.16
533.444	13.25
533.642	13.37
533.84	13.41
534.038	13.53
534.236	13.63
534.434	13.64
534.632	13.7
534.83	13.8
535.027	13.86
535.225	13.97
535.423	14.16
535.621	14.28
535.819	14.39
536.017	14.5
536.215	14.56
536.412	14.66
536.61	14.8
536.808	14.93
537.006	14.98
537.203	15.07
537.401	15.14
537.599	15.21
537.797	15.23
537.994	15.32
538.192	15.52
538.39	15.68
538.587	15.76
538.785	15.93
538.983	16.06
539.18	16.24
539.378	16.43
539.575	16.6
539.773	16.71
539.97	16.9
540.168	17.02
540.366	17.1
540.563	17.18
540.761	17.32
540.958	17.36
541.155	17.43
541.353	17.53
541.55	17.61
541.748	17.7
541.945	17.77
542.143	17.82
542.34	17.85
542.537	17.9
542.735	17.97
542.932	17.98
543.129	18.06
543.327	18.11
543.524	18.21
543.721	18.29
543.919	18.44
544.116	18.66
544.313	18.84
544.51	19.06
544.708	19.29
544.905	19.48
545.102	19.67
545.299	19.8
545.496	20
545.693	20.05
545.891	20.1
546.088	20.07
546.285	20.02
546.482	20.04
546.679	19.94
546.876	19.86
547.073	19.82
547.27	19.82
547.467	19.83
547.664	19.84
547.861	19.87
548.058	19.9
548.255	19.96
548.452	20.01
548.649	20.03
548.846	20.14
549.043	20.21
549.24	20.2
549.437	20.27
549.633	20.34
549.83	20.39
550.027	20.43
550.224	20.47
550.421	20.51
550.618	20.44
550.814	20.54
551.011	20.54
551.208	20.64
551.405	20.68
551.601	20.66
551.798	20.6
551.995	20.58
552.191	20.54
552.388	20.59
552.585	20.6
552.781	20.8
552.978	20.74
553.175	20.77
553.371	20.7
553.568	20.73
553.764	20.84
553.961	20.94
554.157	20.94
554.354	20.98
554.55	20.99
554.747	21.09
554.943	21.02
555.14	20.97
555.336	21.03
555.533	21.09
555.729	21.2
555.926	21.19
556.122	21.39
556.318	21.56
556.515	21.53
556.711	21.56
556.907	21.49
557.104	21.5
557.3	21.71
557.496	21.69
557.693	21.72
557.889	21.83
558.085	21.85
558.281	21.68
558.478	21.77
558.674	21.85
558.87	21.89
559.066	22.03
559.262	22.06
559.459	22.03
559.655	22.1
559.851	22.18
560.047	22.1
560.243	22.07
560.439	21.95
560.635	21.88
560.831	21.98
561.027	22.07
561.223	22.04
561.419	21.97
561.615	22.03
561.811	22.08
562.007	22.04
562.203	22.18
562.399	22.3
562.595	22.47
562.791	22.47
562.987	22.47
563.183	22.51
563.379	22.6
563.575	22.79
563.771	22.7
563.966	22.67
564.162	22.83
564.358	22.66
564.554	22.68
564.75	22.75
564.945	22.7
565.141	22.58
565.337	22.57
565.533	22.5
565.728	22.47
565.924	22.65
566.12	22.78
566.315	22.72
566.511	22.88
566.707	22.88
566.902	22.91
567.098	23.04
567.293	23.11
567.489	23.09
567.684	23.08
567.88	23.16
568.076	23.08
568.271	23.15
568.467	23.15
568.662	23.18
568.858	23.21
569.053	23.2
569.248	23.2
569.444	23.36
569.639	23.46
569.835	23.59
570.03	23.6
570.225	23.56
570.421	23.48
570.616	23.49
570.812	23.47
571.007	23.55
571.202	23.57
571.397	23.5
571.593	23.45
571.788	23.46
571.983	23.45
572.178	23.45
572.374	23.61
572.569	23.52
572.764	23.61
572.959	23.61
573.154	23.58
573.35	23.65
573.545	23.71
573.74	23.8
573.935	23.76
574.13	23.77
574.325	23.75
574.52	23.79
574.715	23.92
574.91	23.97
575.105	24.01
575.3	24.09
575.495	24.04
575.69	24.16
575.885	24.21
576.08	24.32
576.275	24.36
576.47	24.42
576.665	24.49
576.86	24.52
577.055	24.48
577.25	24.63
577.444	24.68
577.639	24.78
577.834	24.91
578.029	24.98
578.224	25.03
578.418	25.17
578.613	25.32
578.808	25.11
579.003	25.11
579.197	25.11
579.392	25.11
579.587	25.12
579.781	25.21
579.976	25.1
580.171	24.99
580.365	24.96
580.56	24.94
580.755	24.87
580.949	25.02
581.144	25.19
581.338	25.37
581.533	25.32
581.727	25.44
581.922	25.4
582.116	25.34
582.311	25.45
582.505	25.58
582.7	25.58
582.894	25.57
583.089	25.66
583.283	25.62
583.478	25.62
583.672	25.66
583.866	25.53
584.061	25.73
584.255	25.77
584.449	25.84
584.644	25.86
584.838	26.04
585.032	26.25
585.226	26.33
585.421	26.38
585.615	26.35
585.809	26.39
586.003	26.53
586.198	26.38
586.392	26.44
586.586	26.48
586.78	26.51
586.974	26.41
587.168	26.31
587.363	26.24
587.557	26.3
587.751	26.33
587.945	26.41
588.139	26.33
588.333	26.49
588.527	26.48
588.721	26.34
588.915	26.27
589.109	26.23
589.303	26.28
589.497	26.21
589.691	26.12
589.885	26.04
590.079	26.01
590.273	26.1
590.466	25.96
590.66	26.11
590.854	26.16
591.048	26.38
591.242	26.55
591.436	26.69
591.629	26.91
591.823	27.01
592.017	27.16
592.211	27.13
592.404	27.12
592.598	27.12
592.792	27.09
592.986	27.19
593.179	27.08
593.373	27.07
593.567	27.02
593.76	26.94
593.954	27.01
594.147	27.03
594.341	27.04
594.535	27.02
594.728	27.07
594.922	27.02
595.115	26.88
595.309	26.81
595.502	26.67
595.696	26.5
595.889	26.4
596.083	26.21
596.276	25.99
596.47	26.01
596.663	25.97
596.856	25.87
597.05	25.85
597.243	26.02
597.437	26.11
597.63	26.19
597.823	26.3
598.017	26.38
598.21	26.62
598.403	26.73
598.596	26.73
598.79	26.76
598.983	26.97
599.176	26.97
599.369	26.88
599.563	26.8
599.756	26.78
599.949	26.81
600.142	26.79
600.335	26.75
600.528	26.89
600.722	27.07
600.915	27.15
601.108	26.98
601.301	27.04
601.494	26.89
601.687	27.03
601.88	27.09
602.073	27.04
602.266	27.13
602.459	27.09
602.652	26.96
602.845	26.88
603.038	26.83
603.231	26.95
603.424	26.97
603.617	27.04
603.809	26.97
604.002	27.03
604.195	27.02
604.388	26.98
604.581	26.89
604.774	27.02
604.966	26.9
605.159	26.94
605.352	26.9
605.545	26.87
605.737	27.03
605.93	27.03
606.123	26.88
606.316	26.96
606.508	27.11
606.701	27.3
606.894	27.43
607.086	27.6
607.279	27.72
607.471	27.91
607.664	28.18
607.857	28.34
608.049	28.61
608.242	29.08
608.434	29.35
608.627	29.73
608.819	30.32
609.012	30.92
609.204	31.75
609.397	32.59
609.589	33.5
609.782	34.48
609.974	35.38
610.166	36.38
610.359	37.38
610.551	38.27
610.743	39.08
610.936	39.89
611.128	40.42
611.32	40.8
611.513	41.01
611.705	41.07
611.897	40.92
612.09	40.76
612.282	40.41
612.474	39.78
612.666	39.33
612.858	38.94
613.051	38.1
613.243	37.53
613.435	36.84
613.627	36.26
613.819	35.71
614.011	35.18
614.203	34.53
614.395	34.2
614.588	33.8
614.78	33.56
614.972	32.92
615.164	32.64
615.356	32.36
615.548	31.99
615.74	31.86
615.932	31.7
616.124	31.46
616.315	31.26
616.507	30.88
616.699	30.66
616.891	30.31
617.083	30.14
617.275	29.9
617.467	29.83
617.659	29.96
617.85	29.66
618.042	29.47
618.234	29.42
618.426	29.65
618.618	29.64
618.809	29.72
619.001	29.92
619.193	29.94
619.384	30.03
619.576	29.83
619.768	29.81
619.959	29.73
620.151	29.37
620.343	29.43
620.534	29.28
620.726	29.19
620.917	28.97
621.109	28.98
621.301	29.05
621.492	29.02
621.684	29.13
621.875	29.01
622.067	29.08
622.258	29.52
622.45	29.59
622.641	29.54
622.832	29.77
623.024	30.05
623.215	29.93
623.407	29.75
623.598	29.84
623.789	29.98
623.981	30.09
624.172	30.11
624.363	30.04
624.555	29.87
624.746	30.01
624.937	29.79
625.129	29.72
625.32	29.65
625.511	29.78
625.702	29.76
625.893	29.71
626.085	29.7
626.276	29.82
626.467	29.95
626.658	29.91
626.849	29.85
627.04	29.94
627.231	30.05
627.422	30.09
627.614	30.09
627.805	30.12
627.996	30.16
628.187	30.35
628.378	30.47
628.569	30.37
628.76	30.52
628.951	30.72
629.142	30.91
629.332	31.03
629.523	31.05
629.714	31.28
629.905	31.4
630.096	31.45
630.287	31.46
630.478	31.32
630.669	31.44
630.859	31.32
631.05	31.04
631.241	30.99
631.432	30.7
631.623	30.83
631.813	30.75
632.004	30.51
632.195	30.34
632.385	30.21
632.576	30.17
632.767	29.96
632.957	29.95
633.148	29.91
633.339	29.71
633.529	29.7
633.72	29.63
633.91	29.46
634.101	29.48
634.292	29.38
634.482	29.26
634.673	29.28
634.863	29.41
635.054	29.59
635.244	29.73
635.435	29.78
635.625	29.8
635.815	29.73
636.006	29.76
636.196	29.84
636.387	29.85
636.577	29.78
636.767	29.69
636.958	29.59
637.148	29.44
637.338	29.39
637.529	29.34
637.719	29.37
637.909	29.43
638.099	29.44
638.29	29.53
638.48	29.51
638.67	29.61
638.86	29.66
639.05	29.67
639.241	29.7
639.431	29.9
639.621	30
639.811	29.84
640.001	29.84
640.191	29.88
640.381	29.76
640.571	29.94
640.761	29.72
640.951	29.51
641.141	29.62
641.331	29.66
641.521	29.34
641.711	29.25
641.901	29.36
642.091	29.36
642.281	29.14
642.471	29.22
642.661	29.05
642.851	29.23
643.041	29.46
643.231	29.27
643.42	29.23
643.61	29.21
643.8	29.36
643.99	29.41
644.18	29.41
644.369	29.77
644.559	29.59
644.749	29.71
644.939	29.56
645.128	29.56
645.318	29.71
645.508	29.79
645.697	29.93
645.887	29.92
646.076	30.08
646.266	29.8
646.456	29.31
646.645	29.41
646.835	29.5
647.024	29.69
647.214	29.71
647.403	29.59
647.593	29.55
647.782	29.62
647.972	29.64
648.161	29.6
648.351	29.66
648.54	30.04
648.73	30.06
648.919	29.95
649.108	29.91
649.298	29.95
649.487	30.2
649.677	30.26
649.866	30.18
650.055	30.22
650.244	30.23
650.434	30.59
650.623	30.49
650.812	30.58
651.002	30.59
651.191	30.85
651.38	30.73
651.569	30.63
651.758	30.46
651.947	30.5
652.137	30.22
652.326	30.11
652.515	30
652.704	30.18
652.893	30.42
653.082	30.61
653.271	30.48
653.46	30.52
653.649	30.48
653.838	30.79
654.027	30.69
654.216	30.59
654.405	30.59
654.594	30.5
654.783	30.48
654.972	30.1
655.161	30.04
655.35	30.01
655.539	30
655.728	29.74
655.916	29.51
656.105	29.36
656.294	29.52
656.483	29.65
656.672	29.56
656.86	29.25
657.049	29.34
657.238	29.22
657.427	29.23
657.615	29.12
657.804	29.43
657.993	29.16
658.181	29.25
658.37	29.43
658.559	29.17
658.747	29.38
658.936	29.48
659.125	29.22
659.313	29.3
659.502	29.3
659.69	29.47
659.879	29.48
660.067	29.82
660.256	29.89
660.444	29.69
660.633	29.97
660.821	29.87
661.01	30.01
661.198	30.29
661.387	30.4
661.575	30.51
661.763	30.59
661.952	30.47
662.14	30.49
662.328	30.54
662.517	30.64
662.705	30.76
662.893	30.88
663.082	30.57
663.27	30.46
663.458	30.25
663.646	30.44
663.834	30.46
664.023	30.43
664.211	30.69
664.399	30.81
664.587	30.66
664.775	30.58
664.963	30.47
665.152	30.5
665.34	30.69
665.528	30.79
665.716	30.68
665.904	30.66
666.092	30.7
666.28	30.33
666.468	30.26
666.656	30.54
666.844	30.53
667.032	30.51
667.22	31.05
667.408	31
667.596	30.91
667.784	30.77
667.971	30.66
668.159	30.72
668.347	30.72
668.535	30.88
668.723	30.74
668.911	30.77
669.098	30.84
669.286	30.15
669.474	30.37
669.662	30.34
669.849	30.49
670.037	30.47
670.225	30.51
670.413	30.59
670.6	30.92
670.788	31.1
670.976	30.93
671.163	31.1
671.351	31.47
671.538	31.4
671.726	31.48
671.913	31.37
672.101	31.47
672.289	31.32
672.476	31.28
672.664	31.13
672.851	30.87
673.039	31.02
673.226	30.94
673.413	31
673.601	30.77
673.788	30.66
673.976	30.68
674.163	30.81
674.35	31.27
674.538	31.56
674.725	31.42
674.912	31.62
675.1	31.6
675.287	31.53
675.474	31.57
675.662	31.82
675.849	32.06
676.036	32.14
676.223	32.12
676.411	31.91
676.598	31.66
676.785	31.6
676.972	31.4
677.159	31.41
677.346	31.75
677.533	31.67
677.721	31.8
677.908	31.65
678.095	31.5
678.282	31.58
678.469	31.18
678.656	31.12
678.843	31.26
679.03	31.34
679.217	31.16
679.404	30.97
679.591	30.79
679.778	30.69
679.964	30.66
680.151	30.58
680.338	30.36
680.525	30.5
680.712	30.44
680.899	30.49
681.086	30.54
681.272	30.72
681.459	30.82
681.646	31.05
681.833	31.12
682.02	31.12
682.206	31.1
682.393	31.22
682.58	31.33
682.766	31.18
682.953	31.09
683.14	31.2
683.326	31.42
683.513	31.35
683.7	31.54
683.886	31.44
684.073	31.57
684.259	32.01
684.446	31.86
684.632	32.13
684.819	32.48
685.005	32.32
685.192	32.18
685.378	31.93
685.565	32.04
685.751	31.99
685.938	31.86
686.124	31.9
686.31	31.7
686.497	32.02
686.683	32.02
686.87	32.07
687.056	32.15
687.242	31.89
687.429	32.03
687.615	31.33
687.801	31.36
687.987	31.61
688.174	31.56
688.36	31.65
688.546	31.55
688.732	31.41
688.918	31.42
689.105	31.55
689.291	31.87
689.477	31.83
689.663	32.46
689.849	32.22
690.035	32.12
690.221	32.36
690.407	32.08
690.593	31.93
690.779	32.06
690.965	31.88
691.151	31.55
691.337	31.59
691.523	31.63
691.709	31.85
691.895	32.07
692.081	32.12
692.267	31.87
692.453	32.08
692.639	31.98
692.825	32.04
693.011	32.07
693.196	32.5
693.382	32.47
693.568	32.4
693.754	32.16
693.94	32.38
694.125	32.53
694.311	32.3
694.497	32.17
694.682	32.37
694.868	32.2
695.054	32.45
695.239	32.19
695.425	32.11
695.611	32.04
695.796	31.68
695.982	31.28
696.168	31.08
696.353	31.16
696.539	31.01
696.724	31.11
696.91	30.96
697.095	30.51
697.281	30.48
697.466	30.51
697.652	30.29
697.837	30.54
698.023	30.49
698.208	30.29
698.393	30.25
698.579	30.48
698.764	30.52
698.949	30.48
699.135	30.62
699.32	30.76
699.505	30.77
699.691	31.06
699.876	30.9
700.061	31.09
700.246	31.27
700.432	31.57
700.617	31.41
700.802	31.26
700.987	31.56
701.172	31.92
701.358	31.66
701.543	31.71
701.728	31.69
701.913	32.14
702.098	32.38
702.283	32.66
702.468	32.25
702.653	32.43
702.838	32.71
703.023	32.74
703.208	32.72
703.393	32.99
703.578	33.18
703.763	33.35
703.948	33.41
704.133	33.58
704.318	33.66
704.503	34.34
704.688	34.97
704.873	35.26
705.057	35.7
705.242	35.75
705.427	36.02
705.612	36.21
705.797	36.59
705.981	36.64
706.166	36.59
706.351	36.72
706.536	36.92
706.72	36.71
706.905	36.66
707.09	36.53
707.274	36.54
707.459	36.69
707.644	36.8
707.828	36.7
708.013	36.81
708.197	36.83
708.382	37.05
708.567	36.94
708.751	36.91
708.936	36.9
709.12	36.74
709.305	36.76
709.489	36.85
709.673	36.95
709.858	36.63
710.042	36.48
710.227	36.31
710.411	36.19
710.596	35.75
710.78	35.64
710.964	35.63
711.149	35.81
711.333	35.85
711.517	35.2
711.702	34.8
711.886	35.02
712.07	34.81
712.254	34.76
712.438	34.59
712.623	34.65
712.807	34.61
712.991	34.3
713.175	33.9
713.359	33.74
713.544	33.62
713.728	33.63
713.912	33.52
714.096	33.53
714.28	33.34
714.464	33.35
714.648	33.28
714.832	33.36
715.016	33
715.2	32.87
715.384	32.99
715.568	33.3
715.752	33.08
715.936	32.72
716.12	32.36
716.304	32.35
716.488	32.17
716.671	32.31
716.855	32.07
717.039	32.3
717.223	32.38
717.407	32.18
717.59	32.21
717.774	32.03
717.958	32.41
718.142	32.16
718.325	32.24
718.509	32.22
718.693	31.8
718.877	31.74
719.06	32.11
719.244	32.03
719.428	32.24
719.611	32.4
719.795	32.9
719.978	32.2
720.162	32.92
720.345	32.87
720.529	32.47
720.713	32.72
720.896	32.81
721.08	32.39
721.263	32.16
721.446	31.74
721.63	31.83
721.813	31.64
721.997	32.11
722.18	31.85
722.364	32.19
722.547	32.12
722.73	32.01
722.914	31.97
723.097	32.17
723.28	32.31
723.464	32.32
723.647	31.97
723.83	31.65
724.013	31.8
724.197	31.95
724.38	31.28
724.563	31.77
724.746	31.92
724.929	32.18
725.112	32.44
725.296	32.7
725.479	32.61
725.662	32.34
725.845	32.99
726.028	32.93
726.211	33.08
726.394	33.3
726.577	33.07
726.76	32.75
726.943	32.76
727.126	32.3
727.309	32.22
727.492	32.31
727.675	32.32
727.858	31.72
728.041	31.8
728.224	31.68
728.407	31.7
728.589	32.55
728.772	32.99
728.955	33.22
729.138	32.99
729.321	32.69
729.503	32.96
729.686	32.98
729.869	33.34
730.052	32.88
730.234	32.81
730.417	32.84
730.6	31.78
730.782	31.31
730.965	30.77
731.148	31.26
731.33	31.34
731.513	30.89
731.695	31.32
731.878	30.99
732.061	31.64
732.243	32.13
732.426	32.08
732.608	32.39
732.791	33.03
732.973	33.67
733.156	33.25
733.338	33.35
733.52	33.75
733.703	33.58
733.885	33.72
734.068	33.58
734.25	33.39
734.432	33.47
734.615	33.47
734.797	33.52
734.979	33.07
735.162	33.33
735.344	33.55
735.526	32.94
735.708	33.26
735.891	33.22
736.073	33.2
736.255	33.27
736.437	33.43
736.619	33.36
736.802	33.18
736.984	33.36
737.166	33.56
737.348	34.02
737.53	34.36
737.712	33.91
737.894	34.4
738.076	34.23
738.258	34.35
738.44	34.11
738.622	34.77
738.804	34.89
738.986	34.58
739.168	34.56
739.35	33.59
739.532	33.84
739.714	33.79
739.896	33.71
740.078	33.66
740.259	33.36
740.441	33.94
740.623	33.49
740.805	33.32
740.987	33.5
741.168	33.1
741.35	33.68
741.532	33.93
741.714	34.74
741.895	34.93
742.077	35.36
742.259	35.62
742.44	35.16
742.622	35.86
742.804	35.76
742.985	35.85
743.167	35.89
743.348	35.62
743.53	35.44
743.711	35.22
743.893	35.1
744.075	34.85
744.256	34.33
744.438	34.14
744.619	33.32
744.8	33.4
744.982	32.69
745.163	33.47
745.345	33.64
745.526	34.13
745.707	33.88
745.889	34.05
746.07	34.07
746.252	34.14
746.433	34.23
746.614	35.15
746.795	35.6
746.977	36.86
747.158	36.33
747.339	36.52
747.52	36.5
747.702	36.31
747.883	35.88
748.064	36.14
748.245	36.44
748.426	36.7
748.607	35.72
748.788	34.87
748.97	34.68
749.151	34.99
749.332	34.98
749.513	34.76
749.694	34.67
749.875	34.91
750.056	34.5
750.237	34.75
750.418	35.21
750.599	35.2
750.78	36.03
750.96	35.25
751.141	34.77
751.322	34.79
751.503	34.8
751.684	34.89
751.865	36.06
752.046	36.16
752.226	35.69
752.407	35.24
752.588	35.77
752.769	35.24
752.949	35.17
753.13	35.24
753.311	35.65
753.492	35.73
753.672	35.56
753.853	34.16
754.034	34.26
754.214	34.35
754.395	34.45
754.575	34.17
754.756	34.72
754.937	35.12
755.117	35.7
755.298	36
755.478	36.02
755.659	35.95
755.839	36.13
756.02	36.68
756.2	36.94
756.381	36.58
756.561	35.81
756.741	35.53
756.922	35.58
757.102	35.26
757.283	34.9
757.463	34.53
757.643	35.41
757.823	35.67
758.004	34.56
758.184	34.36
758.364	33.91
758.545	34.41
758.725	33.86
758.905	33.59
759.085	32.8
759.265	31.58
759.446	31.03
759.626	30.59
759.806	29.36
759.986	29.75
760.166	29.66
760.346	30.08
760.526	30.25
760.706	30.75
760.886	30.5
761.066	31.32
761.246	32.11
761.426	32.12
761.606	31.57
761.786	31.64
761.966	31.48
762.146	31.38
762.326	31.51
762.506	31.22
762.686	30.37
762.866	30.23
763.046	29.59
763.225	29.55
763.405	29.19
763.585	29.86
763.765	29.98
763.945	29.83
764.124	30.24
764.304	29.84
764.484	30.49
764.664	31.09
764.843	31.57
765.023	32.24
765.203	32.32
765.382	33.75
765.562	33.55
765.741	33.98
765.921	34.54
766.101	34.41
766.28	35.06
766.46	34.83
766.639	35.71
766.819	35.6
766.998	35.45
767.178	36.04
767.357	35.36
767.537	35.4
767.716	35.32
767.896	35.94
768.075	35.72
768.254	35.49
768.434	35.47
768.613	35
768.792	35.17
768.972	35.14
769.151	34.62
769.33	35.26
769.51	35.42
769.689	35.97
769.868	36.04
770.047	35.81
770.226	36.32
770.406	35.84
770.585	35.28
770.764	35.31
770.943	35.68
771.122	35.47
771.301	35.2
771.48	35.08
771.66	34.7
771.839	34.27
772.018	35.19
772.197	34.81
772.376	35.05
772.555	35.47
772.734	35.88
772.913	35.14
773.092	36.08
773.271	35
773.449	35.69
773.628	36.32
773.807	35.93
773.986	35.76
774.165	36.26
774.344	36.65
774.523	36.3
774.701	36.28
774.88	36.87
775.059	36.29
775.238	37.29
775.417	36
775.595	35.79
775.774	36.05
775.953	35.15
776.131	35.14
776.31	34.64
776.489	35.12
776.667	35.28
776.846	35.36
777.025	36.35
777.203	35.27
777.382	36.89
777.56	36.72
777.739	37.03
777.917	37.79
778.096	37.71
778.274	38.2
778.453	37.73
778.631	37.83
778.81	38.1
778.988	37.64
779.166	38.91
779.345	38.72
779.523	39.07
779.702	39.06
779.88	39.41
780.058	39.65
780.237	39.17
780.415	39.97
780.593	40.5
780.771	40.14
780.95	40.05
781.128	39.64
781.306	38.72
781.484	38.26
781.662	38.05
781.841	37.65
782.019	36.74
782.197	36.41
782.375	35.13
782.553	34.94
782.731	35.79
782.909	35.55
783.087	35.54
783.265	35.96
783.443	36.62
783.621	36.57
783.799	36.95
783.977	37.35
784.155	37.66
784.333	38.56
784.511	37.72
784.689	36.98
784.867	36.67
785.045	36.35
785.223	35.74
785.4	35.42
785.578	36.28
785.756	35.87
785.934	36.68
786.112	35.65
786.289	36.07
786.467	36.27
786.645	36.69
786.823	36.69
787	37.3
787.178	37.6
787.356	37.61
787.533	36.7
787.711	36.19
787.889	35.66
788.066	35.55
788.244	34.63
788.421	34.69
788.599	34.14
788.776	34.62
788.954	34.55
789.131	34.74
789.309	34.95
789.486	34.25
789.664	34.95
789.841	34.31
790.019	35.35
790.196	35.75
790.373	35.44
790.551	35.8
790.728	35.63
790.906	36.13
791.083	36.96
791.26	36.74
791.437	36.64
791.615	36.67
791.792	36.85
791.969	37.2
792.146	37.17
792.324	37.49
792.501	36.74
792.678	36.27
792.855	34.89
793.032	34.37
793.209	33.59
793.387	34.82
793.564	34.39
793.741	35.99
793.918	34.93
794.095	34.83
794.272	34.33
794.449	33.5
794.626	33.71
794.803	34.48
794.98	33.51
795.157	34.05
795.334	34.85
795.511	34.66
795.688	34.01
795.864	35.46
796.041	36.16
796.218	36.35
796.395	37.33
796.572	37.23
796.749	37.17
796.925	37.66
797.102	37.86
797.279	36.07
797.456	36.07
797.632	36.22
797.809	35.63
797.986	35.19
798.162	35.49
798.339	36.18
798.516	36.21
798.692	35.89
798.869	35.52
799.046	34.71
799.222	35.02
799.399	35.25
799.575	33.96
799.752	34.92
799.928	35.19
800.105	34.91
800.281	35.24
800.458	35.68
800.634	36.96
800.811	36.1
800.987	37.93
801.163	37.26
801.34	37.53
801.516	38.52
801.692	37.19
801.869	36.98
802.045	36.9
802.221	36.11
802.398	35.24
802.574	33.64
802.75	34.57
802.926	32.08
803.103	33.85
803.279	33.63
803.455	33.47
803.631	33.01
803.807	33.2
803.983	34.24
804.16	34.62
804.336	34.78
804.512	35.17
804.688	35.59
804.864	37.12
805.04	37.58
805.216	37.26
805.392	36.91
805.568	38.5
805.744	37.04
805.92	36.18
806.096	36.38
806.272	36.58
806.448	35.4
806.623	35.75
806.799	35.55
806.975	34.68
807.151	35.16
807.327	34.97
807.503	33.73
807.678	35.44
807.854	35.08
808.03	35.46
808.206	35.23
808.381	36.71
808.557	36.06
808.733	35.81
808.908	35.39
809.084	34.19
809.26	34.74
809.435	35.95
809.611	35.69
809.787	37.6
809.962	36.63
810.138	37.17
810.313	36.78
810.489	37.22
810.664	36
810.84	37.35
811.015	38.31
811.191	38.97
811.366	37.69
811.542	37.46
811.717	35.92
811.892	36.49
812.068	36.22
812.243	36.03
812.419	35.78
812.594	35.4
812.769	34.82
812.944	33.87
813.12	33.36
813.295	33.99
813.47	32.29
813.645	30.9
813.821	30.52
813.996	30.68
814.171	30.45
814.346	30.33
814.521	31.57
814.697	30.39
814.872	31.25
815.047	29.46
815.222	29.02
815.397	28.88
815.572	29.09
815.747	29.01
815.922	28.43
816.097	29.18
816.272	29.31
816.447	30.02
816.622	32.43
816.797	33.58
816.972	34.28
817.147	35.24
817.322	36.42
817.496	36.86
817.671	35.78
817.846	35.03
818.021	34.28
818.196	33.81
818.371	33.13
818.545	31.81
818.72	29.77
818.895	30.18
819.069	28.63
819.244	28.55
819.419	28.31
819.594	28.78
819.768	29.62
819.943	30.47
820.117	30.95
820.292	30.58
820.467	30.32
820.641	30.83
820.816	30.82
820.99	30.92
821.165	30.17
821.339	29.86
821.514	29.63
821.688	29.29
821.863	29.08
822.037	28.78
822.212	28.77
822.386	28.63
822.56	28.39
822.735	28.17
822.909	28.03
823.084	28.22
823.258	28.35
823.432	28.27
823.606	28.11
823.781	27.99
823.955	27.99
824.129	27.98
824.303	28.07
824.478	28.06
824.652	28.39
824.826	28.54
825	28.38
825.174	28.41
825.348	29.21
825.523	29.85
825.697	29.91
825.871	30.28
826.045	30.35
826.219	30.19
826.393	30.41
826.567	29.8
826.741	29.72
826.915	29.7
827.089	29.47
827.263	28.71
827.437	28.22
827.611	28.5
827.784	28.12
827.958	27.85
828.132	28.28
828.306	28.31
828.48	28.6
828.654	28.55
828.827	28.87
829.001	29.24
829.175	29.52
829.349	29.57
829.522	29.55
829.696	29.13
829.87	30.32
830.044	30.42
830.217	30.33
830.391	31.12
830.565	31.17
830.738	31.81
830.912	30.95
831.085	31.46
831.259	32.92
831.432	31.5
831.606	33.03
831.779	32.33
831.953	31.8
832.126	32.93
832.3	32.36
832.473	33.31
832.647	32.38
832.82	32.72
832.994	31.98
833.167	31.63
833.34	31.01
833.514	30.22
833.687	29.44
833.86	28.87
834.034	28.24
834.207	27.98
834.38	27.64
834.553	27.97
834.727	27.83
834.9	28.22
835.073	27.95
835.246	29.43
835.419	29.95
835.593	29.88
835.766	30.35
835.939	30.97
836.112	31.47
836.285	30.97
836.458	30.16
836.631	31.02
836.804	31.67
836.977	32.15
837.15	30.96
837.323	30.66
837.496	32.64
837.669	33.74
837.842	33.75
838.015	32.53
838.188	34.28
838.361	34.87
838.533	34.69
838.706	32.77
838.879	32.71
839.052	33.11
839.225	33.58
839.398	33.92
839.57	32.25
839.743	32.3
839.916	34.91
840.088	34.18
840.261	33.61
840.434	33.8
840.607	34.58
840.779	33.79
840.952	33.72
841.124	34.17
841.297	33.91
841.47	33.9
841.642	33.88
841.815	32.66
841.987	33.44
842.16	33.72
842.332	31.59
842.505	30.66
842.677	32.86
842.85	33.79
843.022	32.8
843.194	32.18
843.367	31.36
843.539	30.37
843.712	29.88
843.884	31.41
844.056	33.89
844.229	34.77
844.401	37.45
844.573	35.63
844.745	36.55
844.918	35.26
845.09	33.66
845.262	33.9
845.434	34.23
845.606	34.26
845.779	31.95
845.951	31.45
846.123	30.27
846.295	26.95
846.467	27.72
846.639	27.47
846.811	30.61
846.983	32.42
847.155	37.55
847.327	39.21
847.499	35.04
847.671	36.44
847.843	36.8
848.015	38.64
848.187	40.45
848.359	41.21
848.531	42.03
848.703	41.97
848.875	40.57
849.047	35.64
849.218	34.17
849.39	37.56
849.562	36.08
849.734	34.63
849.905	34.66
850.077	38.95
850.249	36.59
850.421	35.08
850.592	33.38
850.764	34.33
850.936	36.52
851.107	35.05
851.279	37.2
851.451	39.44
851.622	40.79
851.794	41.7
851.965	34.13
852.137	31.96
852.308	29.75
852.48	30.49
852.651	32.47
852.823	29.85
852.994	29.13
853.166	28.68
853.337	24.84
853.509	25.18
853.68	21.94
853.851	26.19
854.023	32.59
854.194	29.36
854.365	27.95
854.537	25.47
854.708	28
854.879	30.33
855.05	30.09
855.222	29.32
855.393	25.45
855.564	28.56
855.735	25.08
855.906	25.66
856.078	34.48
856.249	39.62
856.42	39.09
856.591	41.51
856.762	43.78
856.933	41.83
857.104	43.24
857.275	46.72
857.446	47.3
857.617	46.5
857.788	47.04
857.959	46.1
858.13	44.02
858.301	47.04
858.472	46.7
858.643	45.58
858.814	48.84
858.985	48.22
859.155	48.29
859.326	49.69
859.497	52.48
859.668	49.16
859.839	49.9
860.009	47.91
860.18	46.93
860.351	46.41
860.522	44.99
860.692	44.92
860.863	47.11
861.034	44.16
861.204	40.11
861.375	39.14
861.546	38.26
861.716	33.68
861.887	32.26
862.057	33.47
862.228	33.49
862.398	37.03
862.569	36.01
862.739	34.76
862.91	36.58
863.08	38
863.251	39.33
863.421	42.22
863.592	42.56
863.762	46.36
863.932	45.82
864.103	41.55
864.273	39.13
864.443	33.61
864.614	35.65
864.784	31.03
864.954	31.36
865.125	32.64
865.295	32.25
865.465	32.5
865.635	34.56
865.805	31.85
865.976	34.64
866.146	34.1
866.316	41.34
866.486	38.26
866.656	42.54
866.826	40.42
866.996	38.6
867.166	38.77
867.336	42.3
867.506	36.38
867.676	34.26
867.846	32.07
868.016	36.87
868.186	33.51
868.356	31.55
868.526	29.71
868.696	29.05
868.866	27.13
869.036	25.08
869.206	22.03
869.376	28.58
869.545	26.74
869.715	32.17
869.885	30.8
870.055	31.75
870.224	32.65
870.394	33.81
870.564	39.5
870.734	44.3
870.903	45.64
871.073	45.88
871.243	41.88
871.412	43.43
871.582	39.95
871.751	36.31
871.921	36.88
872.091	41.82
872.26	40.35
872.43	35.83
872.599	32.16
872.769	28.44
872.938	30.81
873.108	28.79
873.277	30.31
873.446	30.68
873.616	29.26
873.785	28.74
873.955	25.53
874.124	21.71
874.293	23.17
874.463	22.94
874.632	24.72
874.801	22.88
874.971	20.73
875.14	17.66
875.309	15.2
875.478	17.06
875.647	17.38
875.817	21.32
875.986	29.06
876.155	30.64
876.324	29.98
876.493	31.97
876.662	31.41
876.831	35.06
877	36.66
877.17	39.6
877.339	41.48
877.508	39.74
877.677	40.1
877.846	35.16
878.015	34.21
878.184	34.81
878.352	32.33
878.521	31.1
878.69	31.28
878.859	32.64
879.028	33.19
879.197	32.19
879.366	31.16
879.534	27.47
879.703	29.78
879.872	28.91
880.041	30.2
880.21	30.29
880.378	31.27
880.547	30.89
880.716	29.85
880.884	29.91
881.053	28.93
881.222	28.8
881.39	29.21
881.559	28.79
881.727	28.26
881.896	27.36
882.065	27.22
882.233	27.35
882.402	27.71
882.57	27.44
882.739	26.81
882.907	27.31
883.076	27.03
883.244	26.86
883.412	26.31
883.581	26.2
883.749	26.38
883.918	26.85
884.086	26.35
884.254	26.21
884.423	25.99
884.591	25.55
884.759	24.46
884.927	25.88
885.096	25.59
885.264	26.96
885.432	27.38
885.6	26.93
885.769	25.72
885.937	24.82
886.105	23.68
886.273	25
886.441	25.19
886.609	27.41
886.777	25.46
886.945	27.94
887.113	28.38
887.281	28.47
887.449	29.32
887.617	29.55
887.785	28.01
887.953	27.7
888.121	29.24
888.289	31.33
888.457	31.92
888.625	35.38
888.793	35.54
888.961	31.48
889.129	33.77
889.296	34.12
889.464	35.48
889.632	40.93
889.8	44.27
889.967	42.81
890.135	43.06
