Data from 2938718__Reflection_03.txt Node
Date: Tue Mar 17 18:42:41 EDT 2015
User: robert
Spectrometer: USB4E03002
Autoset integration time: false
Trigger mode: 4
Integration Time (sec): 1.000000E-1
Scans to average: 10
Electric dark correction enabled: false
Nonlinearity correction enabled: false
Boxcar width: 5
Stray light correction enabled: false
XAxis mode: Wavelengths
Stop averaging: false
Number of Pixels in Spectrum: 3648
>>>>>Begin Spectral Data<<<<<
177.575	381.03
177.794	-385.29
178.014	-136.13
178.233	-52.41
178.452	-124.53
178.672	-127.11
178.891	-93.06
179.11	-84.18
179.33	-67.95
179.549	-114.11
179.768	-142.95
179.987	-167.78
180.207	-299.15
180.426	-1480.25
180.645	-1898.44
180.864	-1007.29
181.084	-2414.71
181.303	635.94
181.522	341.52
181.741	185.88
181.96	201.87
182.179	183.67
182.398	226.7
182.618	117.23
182.837	187.64
183.056	76.67
183.275	118.24
183.494	98.15
183.713	104.1
183.932	196.97
184.151	366.67
184.37	470.91
184.589	296.83
184.808	265.94
185.027	1238.1
185.246	375.45
185.465	391.94
185.684	910.59
185.903	306.27
186.122	544.77
186.341	4880
186.56	17000
186.779	886.32
186.998	6315.38
187.216	-1413.04
187.435	-1321.57
187.654	-288.83
187.873	-1120.75
188.092	-2211.54
188.311	-209.36
188.53	-194.67
188.748	-7187.5
188.967	594.07
189.186	391.22
189.405	444.13
189.623	829.41
189.842	594.49
190.061	360.71
190.28	-2615.79
190.498	-4775
190.717	-734.78
190.936	226.53
191.154	177.7
191.373	277.42
191.592	13200
191.81	206.54
192.029	1.06
192.248	55.47
192.466	95.54
192.685	585.71
192.904	-197.67
193.122	-44
193.341	-77.27
193.559	39.05
193.778	53.06
193.996	-1.13
194.215	16.61
194.433	-133.53
194.652	-412.79
194.87	-232.31
195.089	-210.86
195.307	-915.79
195.526	408.05
195.744	408.54
195.963	357.28
196.181	514.01
196.399	-3629.41
196.618	-298.48
196.836	-224.38
197.055	-168.02
197.273	-6742.86
197.491	485.29
197.71	208.04
197.928	323.68
198.146	420
198.365	343.33
198.583	203.26
198.801	173.62
199.019	160.56
199.238	128.99
199.456	156.74
199.674	130.28
199.892	190.6
200.111	-265.63
200.329	62.63
200.547	20
200.765	-61.04
200.983	-117.73
201.202	-491.67
201.42	406.35
201.638	-335.94
201.856	225.66
202.074	156.51
202.292	158.14
202.51	175.57
202.728	182.64
202.946	130.58
203.165	82.56
203.383	104.71
203.601	124.85
203.819	107.78
204.037	114.24
204.255	138.64
204.473	151.62
204.691	152.83
204.909	146.05
205.127	131.47
205.345	145.22
205.562	171.14
205.78	150
205.998	132.09
206.216	130.45
206.434	144.49
206.652	145.48
206.87	157.69
207.088	178.71
207.306	209.05
207.523	514.94
207.741	326.29
207.959	241.74
208.177	487.36
208.395	-617.39
208.612	-144.3
208.83	-253.77
209.048	-21.07
209.266	-325.45
209.483	-539.13
209.701	-404.35
209.919	-554.55
210.136	25.44
210.354	-26.7
210.572	75.63
210.79	-48.15
211.007	162.5
211.225	254.95
211.442	1950
211.66	302.67
211.878	-700
212.095	485.95
212.313	2989.47
212.53	3000
212.748	229.51
212.966	494.17
213.183	372.11
213.401	218.22
213.618	224.85
213.836	148.36
214.053	207.02
214.271	243.34
214.488	22.16
214.705	53.18
214.923	68.15
215.14	82.81
215.358	74.42
215.575	116.31
215.793	107.17
216.01	51.98
216.227	54.23
216.445	64.5
216.662	61.45
216.879	57.78
217.097	33.71
217.314	44.12
217.531	32.62
217.749	31.67
217.966	28.77
218.183	27.67
218.4	31.41
218.618	43.42
218.835	32.88
219.052	29.89
219.269	33.43
219.487	39.16
219.704	38.45
219.921	41.75
220.138	39.77
220.355	37.92
220.572	48.74
220.79	48.83
221.007	42.78
221.224	42.19
221.441	39.15
221.658	34.13
221.875	33.5
222.092	24.42
222.309	24.04
222.526	19.11
222.743	21.92
222.96	15.9
223.177	19.88
223.394	21.6
223.611	27.86
223.828	28.45
224.045	27.26
224.262	18.31
224.479	22.79
224.696	25.32
224.913	26.65
225.13	22.12
225.347	19.58
225.564	17.51
225.781	16.03
225.997	13.13
226.214	11.92
226.431	13.65
226.648	14.15
226.865	12.02
227.082	7.38
227.298	7.32
227.515	7.65
227.732	7.33
227.949	7.43
228.165	6.68
228.382	5.67
228.599	5.54
228.816	4.7
229.032	5.5
229.249	5.27
229.466	5.37
229.682	5
229.899	5.78
230.116	5.16
230.332	4.93
230.549	5.61
230.765	7.24
230.982	7.61
231.199	8.04
231.415	8.41
231.632	8.68
231.848	10.14
232.065	10.26
232.281	8.48
232.498	8.92
232.714	10.33
232.931	10.48
233.147	10.27
233.364	9.22
233.58	10.75
233.797	10.39
234.013	9.61
234.23	8.14
234.446	9.68
234.662	9.69
234.879	10.05
235.095	9.06
235.312	9.02
235.528	8.36
235.744	9.28
235.961	8.46
236.177	8
236.393	8.3
236.61	9.26
236.826	8.17
237.042	7.14
237.258	7.14
237.475	7.09
237.691	6.61
237.907	5.37
238.123	5.67
238.339	5.33
238.556	5.4
238.772	4.08
238.988	4.25
239.204	3.25
239.42	5.08
239.636	4.26
239.853	3.62
240.069	3.5
240.285	4.51
240.501	3.77
240.717	4.16
240.933	3.61
241.149	4.21
241.365	3.77
241.581	4.48
241.797	4.51
242.013	5.25
242.229	5.27
242.445	4.88
242.661	4.71
242.877	4.76
243.093	4.5
243.309	4.4
243.525	4.28
243.741	4.43
243.957	4.55
244.173	4.09
244.388	4.15
244.604	4.31
244.82	5.2
245.036	5.3
245.252	5.49
245.468	5.06
245.683	4.9
245.899	5.22
246.115	4.97
246.331	4.67
246.547	4.46
246.762	3.91
246.978	3.8
247.194	3.36
247.409	3.22
247.625	3.1
247.841	3.02
248.057	3.13
248.272	2.75
248.488	3
248.703	3
248.919	2.93
249.135	3.01
249.35	3.37
249.566	3.49
249.782	3.76
249.997	4.03
250.213	4.18
250.428	4.95
250.644	5.33
250.859	4.61
251.075	4.02
251.29	4.84
251.506	4.96
251.721	4.92
251.937	4.94
252.152	4.69
252.368	4.44
252.583	4.19
252.798	3.06
253.014	3.33
253.229	3.66
253.445	4.3
253.66	3.97
253.875	4.33
254.091	4.39
254.306	4.52
254.521	3.65
254.737	3.65
254.952	3.87
255.167	4.45
255.383	4.07
255.598	3.85
255.813	2.86
256.028	3.14
256.244	2.39
256.459	1.17
256.674	0.7
256.889	1.2
257.104	1.46
257.32	1.91
257.535	2.5
257.75	2.72
257.965	2.77
258.18	3.04
258.395	2.12
258.61	2.64
258.826	2.93
259.041	3.11
259.256	3.11
259.471	2.92
259.686	2.83
259.901	2.67
260.116	2.43
260.331	2.26
260.546	2.42
260.761	2.78
260.976	2.5
261.191	2.18
261.406	2.31
261.621	2.36
261.836	2.61
262.05	2.71
262.265	2.61
262.48	2.67
262.695	2.81
262.91	2.42
263.125	2.15
263.34	2.18
263.555	2.77
263.769	2.3
263.984	1.94
264.199	1.2
264.414	0.7
264.629	1.07
264.843	1.38
265.058	2.23
265.273	2.06
265.488	1.97
265.702	1.83
265.917	1.93
266.132	2.13
266.346	2.4
266.561	2.95
266.776	3.22
266.99	2.69
267.205	2.73
267.42	1.99
267.634	1.93
267.849	2.23
268.063	2.47
268.278	2.6
268.492	2.7
268.707	2.87
268.922	2.97
269.136	3.04
269.351	3.17
269.565	3.24
269.78	3.38
269.994	3.8
270.209	3.55
270.423	3.87
270.637	3.66
270.852	3.46
271.066	3.12
271.281	2.76
271.495	2.44
271.709	2.71
271.924	2.62
272.138	2.85
272.353	2.72
272.567	2.82
272.781	2.57
272.996	2.98
273.21	3.12
273.424	3.25
273.638	3.31
273.853	3.53
274.067	3.59
274.281	3.68
274.495	3.91
274.71	4.08
274.924	4.03
275.138	3.82
275.352	3.33
275.566	3.07
275.781	3.42
275.995	3.32
276.209	3.57
276.423	3.45
276.637	3.35
276.851	2.61
277.065	2.6
277.279	2.49
277.493	2.8
277.707	2.84
277.921	3.04
278.135	2.81
278.349	2.59
278.563	2.4
278.777	2.33
278.991	2.13
279.205	2.43
279.419	2.56
279.633	2.91
279.847	2.34
280.061	2.16
280.275	1.72
280.489	1.53
280.703	2.07
280.917	1.82
281.131	1.75
281.344	1.96
281.558	1.67
281.772	1.76
281.986	1.69
282.2	1.81
282.414	2.07
282.627	2.49
282.841	2.48
283.055	2.04
283.269	2.13
283.482	1.99
283.696	1.9
283.91	2.02
284.123	1.49
284.337	1.21
284.551	1.36
284.764	1.19
284.978	0.93
285.192	0.99
285.405	1.04
285.619	1.32
285.833	1.09
286.046	1.33
286.26	1.39
286.473	1.5
286.687	1.71
286.9	1.59
287.114	1.63
287.327	1.86
287.541	1.61
287.754	1.7
287.968	1.65
288.181	1.93
288.395	1.61
288.608	1.72
288.822	1.96
289.035	2.11
289.248	2.46
289.462	2.45
289.675	2.3
289.889	2.85
290.102	2.81
290.315	2.71
290.529	2.9
290.742	3.09
290.955	3
291.169	2.86
291.382	2.84
291.595	2.68
291.808	2.46
292.022	2.49
292.235	1.97
292.448	2.27
292.661	2.38
292.875	2.2
293.088	1.93
293.301	2.07
293.514	2.31
293.727	2.17
293.94	2.35
294.153	2.72
294.367	2.67
294.58	2.88
294.793	2.57
295.006	2.53
295.219	2.84
295.432	2.9
295.645	2.93
295.858	3.05
296.071	3.08
296.284	2.82
296.497	2.68
296.71	2.57
296.923	2.65
297.136	2.7
297.349	2.75
297.562	2.5
297.775	2.72
297.988	2.69
298.201	2.42
298.414	2.29
298.626	2.55
298.839	2.65
299.052	3.02
299.265	2.85
299.478	2.96
299.691	3.03
299.903	2.95
300.116	2.58
300.329	2.6
300.542	2.72
300.755	2.66
300.967	2.67
301.18	2.77
301.393	2.43
301.605	2.81
301.818	2.78
302.031	2.78
302.243	3.23
302.456	3.56
302.669	3.86
302.881	3.96
303.094	4.2
303.307	3.94
303.519	3.85
303.732	3.91
303.944	3.83
304.157	4.03
304.37	4.22
304.582	4.3
304.795	4.24
305.007	4.04
305.22	3.94
305.432	3.95
305.645	4.41
305.857	4.57
306.069	4.62
306.282	4.63
306.494	4.57
306.707	4.53
306.919	4.21
307.132	4.35
307.344	4.08
307.556	3.97
307.769	3.97
307.981	3.65
308.193	3.71
308.406	3.71
308.618	3.99
308.83	4.02
309.043	3.85
309.255	3.83
309.467	3.52
309.679	3.56
309.892	3.72
310.104	3.71
310.316	3.64
310.528	3.58
310.74	3.96
310.953	3.6
311.165	3.54
311.377	3.48
311.589	3.91
311.801	4.46
312.013	4.85
312.225	5.01
312.437	4.9
312.649	4.84
312.862	4.72
313.074	4.36
313.286	4.75
313.498	4.61
313.71	4.49
313.922	4.05
314.134	3.47
314.346	3.18
314.558	2.82
314.77	3.16
314.982	3.47
315.193	3.53
315.405	3.41
315.617	3.17
315.829	3.7
316.041	4.03
316.253	3.86
316.465	4.24
316.677	4.19
316.888	4.54
317.1	4.46
317.312	4.45
317.524	4.26
317.736	4.44
317.947	4.36
318.159	3.95
318.371	3.77
318.583	4.21
318.794	3.85
319.006	3.91
319.218	3.83
319.43	4.1
319.641	3.95
319.853	4.48
320.064	4.37
320.276	4.51
320.488	4.46
320.699	4.64
320.911	4.76
321.123	5.21
321.334	5.51
321.546	5.62
321.757	5.69
321.969	6.03
322.18	5.58
322.392	5.96
322.603	6.18
322.815	6.36
323.026	6.33
323.238	6.05
323.449	5.98
323.661	5.75
323.872	5.86
324.083	5.78
324.295	5.72
324.506	6.05
324.718	5.91
324.929	5.57
325.14	5.47
325.352	5.61
325.563	5.65
325.774	5.55
325.986	5.36
326.197	5.05
326.408	4.98
326.62	5.12
326.831	5.06
327.042	5.39
327.253	5.14
327.464	5.45
327.676	5.53
327.887	5.77
328.098	5.68
328.309	5.92
328.52	6.14
328.732	6.22
328.943	5.85
329.154	6.06
329.365	5.7
329.576	6.93
329.787	7.15
329.998	7.28
330.209	7.02
330.42	7.67
330.631	7.65
330.842	7.77
331.053	7.54
331.264	8.05
331.475	7.8
331.686	7.66
331.897	6.96
332.108	6.63
332.319	6.39
332.53	6.61
332.741	6.25
332.952	6.32
333.163	6.29
333.374	6.55
333.585	6.14
333.795	6.14
334.006	5.98
334.217	6.06
334.428	5.86
334.639	6.05
334.849	5.85
335.06	5.79
335.271	5.55
335.482	5.45
335.692	5.2
335.903	5.22
336.114	5.13
336.325	5.47
336.535	5.56
336.746	5.76
336.957	5.64
337.167	5.72
337.378	5.87
337.589	6.1
337.799	5.98
338.01	6.32
338.22	6.45
338.431	6.73
338.642	6.99
338.852	6.81
339.063	6.9
339.273	6.88
339.484	6.93
339.694	6.68
339.905	7.02
340.115	7.12
340.326	6.85
340.536	7.13
340.746	7.02
340.957	6.55
341.167	6.7
341.378	6.69
341.588	6.89
341.799	6.75
342.009	6.86
342.219	6.48
342.43	6.57
342.64	6.82
342.85	6.76
343.061	6.7
343.271	7.04
343.481	7.08
343.691	7.06
343.902	6.83
344.112	6.84
344.322	6.89
344.532	6.83
344.743	6.85
344.953	6.58
345.163	6.46
345.373	6.46
345.583	6.33
345.793	6.05
346.004	5.98
346.214	6.15
346.424	6.17
346.634	6.41
346.844	6.42
347.054	6.19
347.264	6.28
347.474	6.3
347.684	6.59
347.894	6.74
348.104	6.73
348.314	6.68
348.524	6.4
348.734	6.71
348.944	6.2
349.154	6.25
349.364	6.34
349.574	6.31
349.784	6.47
349.994	6.15
350.204	5.97
350.413	6.09
350.623	6.44
350.833	6.69
351.043	6.37
351.253	6.53
351.463	6.75
351.672	6.63
351.882	6.65
352.092	6.65
352.302	6.64
352.511	6.82
352.721	6.74
352.931	6.43
353.141	6.08
353.35	6.24
353.56	6.1
353.77	6
353.979	6.27
354.189	6.4
354.399	6.06
354.608	6.09
354.818	6.2
355.027	6.08
355.237	6.13
355.447	6.19
355.656	6.06
355.866	6.1
356.075	5.84
356.285	5.65
356.494	5.67
356.704	5.83
356.913	5.77
357.123	5.66
357.332	6.04
357.542	6.17
357.751	6.22
357.96	6.28
358.17	6.23
358.379	6.45
358.589	6.59
358.798	6.54
359.007	6.41
359.217	6.6
359.426	6.76
359.635	6.68
359.845	6.44
360.054	6.37
360.263	6.45
360.472	6.58
360.682	6.66
360.891	6.59
361.1	6.63
361.309	6.78
361.519	6.67
361.728	6.56
361.937	6.48
362.146	6.62
362.355	6.78
362.564	6.6
362.774	6.57
362.983	6.37
363.192	6.31
363.401	6.36
363.61	6.32
363.819	6.36
364.028	6.17
364.237	6.2
364.446	6.15
364.655	5.96
364.864	6.05
365.073	6.09
365.282	6.08
365.491	6.12
365.7	5.98
365.909	5.86
366.118	5.82
366.327	5.92
366.536	5.87
366.745	5.58
366.954	5.65
367.162	5.68
367.371	5.44
367.58	5.73
367.789	5.43
367.998	5.49
368.207	5.52
368.415	5.53
368.624	5.43
368.833	5.39
369.042	5.58
369.25	5.48
369.459	5.39
369.668	5.55
369.877	5.69
370.085	5.93
370.294	5.75
370.503	5.82
370.711	5.89
370.92	5.93
371.129	5.91
371.337	5.86
371.546	5.87
371.754	5.87
371.963	5.83
372.171	5.74
372.38	5.7
372.589	5.77
372.797	5.66
373.006	5.44
373.214	5.56
373.423	5.43
373.631	5.61
373.84	5.6
374.048	5.54
374.256	5.41
374.465	5.06
374.673	5.15
374.882	5.3
375.09	5.15
375.298	5.08
375.507	4.83
375.715	4.9
375.923	4.77
376.132	4.55
376.34	4.69
376.548	4.74
376.757	4.65
376.965	4.43
377.173	4.36
377.381	4.34
377.59	4.39
377.798	4.57
378.006	4.47
378.214	4.45
378.423	4.51
378.631	4.45
378.839	4.59
379.047	4.79
379.255	4.89
379.463	4.76
379.671	4.71
379.879	4.78
380.088	4.54
380.296	4.71
380.504	4.49
380.712	4.59
380.92	4.71
381.128	4.56
381.336	4.42
381.544	4.39
381.752	4.33
381.96	4.43
382.168	4.21
382.376	4.29
382.584	4.13
382.791	4.24
382.999	4.18
383.207	3.83
383.415	3.77
383.623	3.96
383.831	3.92
384.039	3.8
384.247	3.76
384.454	3.88
384.662	3.82
384.87	3.88
385.078	3.89
385.285	4.06
385.493	4.07
385.701	3.94
385.909	3.9
386.116	3.99
386.324	4.17
386.532	4.25
386.739	4.27
386.947	4.27
387.155	4.09
387.362	4.23
387.57	3.78
387.778	3.79
387.985	3.84
388.193	3.57
388.4	3.44
388.608	3.31
388.816	3.26
389.023	3.07
389.231	2.99
389.438	3.13
389.646	2.88
389.853	3.23
390.061	3.21
390.268	3.38
390.475	3.37
390.683	3.42
390.89	3.32
391.098	3.27
391.305	3.5
391.512	3.38
391.72	3.27
391.927	3.39
392.135	3.28
392.342	3.27
392.549	3.21
392.756	3.29
392.964	3.26
393.171	3.29
393.378	3.17
393.586	3.04
393.793	3.21
394	3.34
394.207	3.31
394.414	3.39
394.622	3.43
394.829	3.3
395.036	3.35
395.243	3.34
395.45	3.34
395.657	3.4
395.864	3.52
396.072	3.71
396.279	3.61
396.486	3.46
396.693	3.48
396.9	3.48
397.107	3.59
397.314	3.7
397.521	3.69
397.728	3.65
397.935	3.72
398.142	3.55
398.349	3.32
398.556	3.32
398.763	3.24
398.97	3.1
399.177	3.1
399.383	2.86
399.59	2.69
399.797	2.68
400.004	2.79
400.211	2.61
400.418	2.54
400.625	2.58
400.831	2.4
401.038	2.36
401.245	2.23
401.452	2.36
401.658	2.54
401.865	2.42
402.072	2.4
402.279	2.38
402.485	2.38
402.692	2.33
402.899	2.3
403.105	2.47
403.312	2.55
403.519	2.54
403.725	2.53
403.932	2.57
404.138	2.51
404.345	2.55
404.552	2.51
404.758	2.6
404.965	2.83
405.171	2.79
405.378	2.71
405.584	2.7
405.791	2.82
405.997	2.71
406.204	2.61
406.41	2.77
406.617	2.71
406.823	2.7
407.029	2.7
407.236	2.51
407.442	2.46
407.649	2.57
407.855	2.63
408.061	2.47
408.268	2.27
408.474	2.19
408.68	2.12
408.887	2.16
409.093	2.11
409.299	2.03
409.505	2.13
409.712	2.13
409.918	2.11
410.124	2.03
410.33	2.13
410.537	2.18
410.743	2.17
410.949	2.16
411.155	2.24
411.361	2.19
411.567	2.26
411.773	2.2
411.98	2.14
412.186	1.98
412.392	1.9
412.598	2.03
412.804	2.08
413.01	2.08
413.216	2.07
413.422	2.1
413.628	2.25
413.834	2.15
414.04	2.13
414.246	2.15
414.452	2.18
414.658	2.31
414.864	2.33
415.07	2.29
415.275	2.42
415.481	2.46
415.687	2.32
415.893	2.17
416.099	2.29
416.305	2.33
416.511	2.31
416.716	2.3
416.922	2.21
417.128	2.09
417.334	2.24
417.539	2.22
417.745	2.17
417.951	2.18
418.157	2.3
418.362	2.21
418.568	2.2
418.774	2.18
418.979	2.16
419.185	2.24
419.391	2.3
419.596	2.27
419.802	2.24
420.008	2.19
420.213	2.18
420.419	2.12
420.624	2.15
420.83	2.11
421.035	2.17
421.241	2.24
421.446	2.27
421.652	2.2
421.857	2.1
422.063	2.07
422.268	2.08
422.474	2.07
422.679	2.07
422.885	2.09
423.09	2.12
423.295	2.09
423.501	2
423.706	1.96
423.911	1.94
424.117	1.94
424.322	1.93
424.527	1.91
424.733	1.91
424.938	1.88
425.143	1.79
425.349	1.78
425.554	1.77
425.759	1.82
425.964	1.8
426.169	1.92
426.375	1.98
426.58	2.02
426.785	2.14
426.99	2.23
427.195	2.2
427.4	2.29
427.605	2.31
427.811	2.39
428.016	2.35
428.221	2.39
428.426	2.32
428.631	2.3
428.836	2.19
429.041	1.94
429.246	1.85
429.451	1.93
429.656	1.88
429.861	1.92
430.066	1.83
430.271	1.85
430.476	1.81
430.681	1.85
430.886	1.85
431.09	1.9
431.295	2.01
431.5	2.02
431.705	1.92
431.91	1.9
432.115	1.8
432.32	1.81
432.524	1.85
432.729	1.77
432.934	1.74
433.139	1.76
433.343	1.76
433.548	1.84
433.753	1.89
433.958	1.96
434.162	2.02
434.367	2.01
434.572	2.02
434.776	1.99
434.981	2.06
435.186	2.08
435.39	2.16
435.595	2.22
435.799	2.18
436.004	2.12
436.209	2.12
436.413	2.14
436.618	2.18
436.822	2.21
437.027	2.15
437.231	2.13
437.436	2.07
437.64	2.05
437.845	1.97
438.049	1.99
438.253	2
438.458	2.06
438.662	2.05
438.867	2.02
439.071	2.03
439.275	2.07
439.48	2.05
439.684	2.1
439.888	2.02
440.093	1.99
440.297	1.99
440.501	1.93
440.706	1.89
440.91	1.89
441.114	1.88
441.318	1.85
441.523	1.88
441.727	1.88
441.931	1.76
442.135	1.72
442.339	1.82
442.543	1.79
442.748	1.78
442.952	1.76
443.156	1.77
443.36	1.8
443.564	1.84
443.768	1.79
443.972	1.73
444.176	1.76
444.38	1.76
444.584	1.75
444.788	1.74
444.992	1.83
445.196	1.81
445.4	1.72
445.604	1.69
445.808	1.7
446.012	1.68
446.216	1.74
446.42	1.76
446.624	1.79
446.828	1.79
447.032	1.78
447.235	1.67
447.439	1.7
447.643	1.73
447.847	1.8
448.051	1.72
448.254	1.77
448.458	1.72
448.662	1.76
448.866	1.72
449.069	1.68
449.273	1.65
449.477	1.78
449.681	1.76
449.884	1.74
450.088	1.71
450.292	1.74
450.495	1.72
450.699	1.78
450.902	1.82
451.106	1.84
451.31	1.95
451.513	1.9
451.717	1.8
451.92	1.81
452.124	1.86
452.327	1.84
452.531	1.88
452.734	1.96
452.938	1.93
453.141	1.89
453.345	1.93
453.548	1.82
453.752	1.94
453.955	2.01
454.158	1.99
454.362	1.93
454.565	1.97
454.769	1.93
454.972	1.85
455.175	1.98
455.379	1.83
455.582	1.83
455.785	1.72
455.988	1.74
456.192	1.65
456.395	1.58
456.598	1.61
456.801	1.5
457.005	1.56
457.208	1.59
457.411	1.48
457.614	1.62
457.817	1.5
458.021	1.55
458.224	1.57
458.427	1.62
458.63	1.71
458.833	1.69
459.036	1.72
459.239	1.73
459.442	1.67
459.645	1.64
459.848	1.68
460.051	1.74
460.254	1.79
460.457	1.74
460.66	1.72
460.863	1.7
461.066	1.67
461.269	1.69
461.472	1.62
461.675	1.64
461.878	1.72
462.081	1.6
462.284	1.57
462.486	1.55
462.689	1.56
462.892	1.64
463.095	1.67
463.298	1.73
463.5	1.64
463.703	1.73
463.906	1.73
464.109	1.73
464.311	1.78
464.514	1.8
464.717	1.83
464.92	1.88
465.122	1.9
465.325	1.91
465.528	1.86
465.73	1.98
465.933	1.91
466.135	1.93
466.338	1.96
466.541	2
466.743	2.13
466.946	2.09
467.148	2.09
467.351	2.05
467.553	1.97
467.756	2.09
467.958	1.93
468.161	1.94
468.363	1.96
468.566	1.93
468.768	1.89
468.971	1.85
469.173	1.95
469.375	1.89
469.578	1.87
469.78	1.87
469.983	1.86
470.185	1.92
470.387	1.92
470.59	1.94
470.792	1.92
470.994	1.97
471.196	1.97
471.399	1.84
471.601	1.8
471.803	1.86
472.005	1.88
472.208	1.86
472.41	1.83
472.612	1.84
472.814	1.73
473.016	1.68
473.218	1.65
473.421	1.64
473.623	1.72
473.825	1.79
474.027	1.72
474.229	1.74
474.431	1.75
474.633	1.75
474.835	1.79
475.037	1.84
475.239	1.75
475.441	1.77
475.643	1.75
475.845	1.71
476.047	1.76
476.249	1.74
476.451	1.78
476.653	1.77
476.855	1.81
477.057	1.8
477.258	1.81
477.46	1.9
477.662	1.87
477.864	1.87
478.066	1.83
478.268	1.77
478.469	1.88
478.671	1.79
478.873	1.81
479.075	1.78
479.276	1.88
479.478	1.93
479.68	1.94
479.882	1.98
480.083	1.89
480.285	1.92
480.487	1.9
480.688	1.79
480.89	1.77
481.091	1.74
481.293	1.76
481.495	1.62
481.696	1.53
481.898	1.54
482.099	1.51
482.301	1.52
482.502	1.54
482.704	1.57
482.905	1.59
483.107	1.61
483.308	1.61
483.51	1.59
483.711	1.62
483.913	1.69
484.114	1.68
484.315	1.7
484.517	1.7
484.718	1.71
484.92	1.7
485.121	1.72
485.322	1.73
485.524	1.75
485.725	1.79
485.926	1.81
486.127	1.74
486.329	1.76
486.53	1.75
486.731	1.75
486.932	1.74
487.134	1.75
487.335	1.76
487.536	1.77
487.737	1.78
487.938	1.75
488.139	1.73
488.341	1.75
488.542	1.76
488.743	1.75
488.944	1.77
489.145	1.77
489.346	1.78
489.547	1.74
489.748	1.71
489.949	1.67
490.15	1.71
490.351	1.76
490.552	1.76
490.753	1.74
490.954	1.73
491.155	1.72
491.356	1.74
491.557	1.73
491.758	1.74
491.959	1.76
492.159	1.77
492.36	1.81
492.561	1.79
492.762	1.78
492.963	1.81
493.164	1.85
493.364	1.95
493.565	1.94
493.766	1.94
493.967	1.96
494.167	1.96
494.368	1.99
494.569	1.92
494.769	1.9
494.97	1.91
495.171	1.89
495.371	1.89
495.572	1.86
495.773	1.87
495.973	1.91
496.174	1.9
496.375	1.93
496.575	1.94
496.776	2.01
496.976	2.06
497.177	2.09
497.377	2.08
497.578	2.08
497.778	2.06
497.979	1.98
498.179	1.97
498.38	2.01
498.58	1.99
498.78	1.99
498.981	1.99
499.181	1.98
499.382	1.94
499.582	1.95
499.782	1.96
499.983	2.01
500.183	2.16
500.383	2.24
500.584	2.19
500.784	2.23
500.984	2.28
501.184	2.24
501.385	2.24
501.585	2.32
501.785	2.38
501.985	2.45
502.185	2.47
502.386	2.36
502.586	2.29
502.786	2.37
502.986	2.32
503.186	2.33
503.386	2.37
503.586	2.37
503.786	2.35
503.987	2.33
504.187	2.33
504.387	2.31
504.587	2.48
504.787	2.56
504.987	2.63
505.187	2.74
505.387	2.75
505.587	2.8
505.786	2.84
505.986	2.88
506.186	3
506.386	2.96
506.586	2.97
506.786	2.87
506.986	2.89
507.186	2.94
507.386	2.9
507.585	2.9
507.785	2.85
507.985	2.87
508.185	2.86
508.384	2.81
508.584	2.86
508.784	2.9
508.984	2.95
509.183	2.95
509.383	2.86
509.583	2.93
509.782	2.94
509.982	3.05
510.182	3.1
510.381	3.2
510.581	3.27
510.781	3.33
510.98	3.35
511.18	3.46
511.379	3.53
511.579	3.57
511.778	3.59
511.978	3.7
512.177	3.69
512.377	3.72
512.576	3.75
512.776	3.74
512.975	3.77
513.175	3.82
513.374	3.83
513.573	3.97
513.773	4.06
513.972	4.09
514.172	4.08
514.371	4.18
514.57	4.25
514.77	4.28
514.969	4.4
515.168	4.4
515.367	4.44
515.567	4.41
515.766	4.36
515.965	4.44
516.164	4.54
516.364	4.6
516.563	4.65
516.762	4.75
516.961	4.81
517.16	4.8
517.359	4.95
517.559	5.06
517.758	5.18
517.957	5.24
518.156	5.31
518.355	5.33
518.554	5.47
518.753	5.53
518.952	5.53
519.151	5.65
519.35	5.78
519.549	5.78
519.748	5.8
519.947	5.93
520.146	6.04
520.345	6.16
520.544	6.3
520.743	6.25
520.942	6.34
521.141	6.42
521.339	6.49
521.538	6.53
521.737	6.65
521.936	6.77
522.135	6.73
522.333	6.68
522.532	6.69
522.731	6.71
522.93	6.85
523.129	6.85
523.327	6.96
523.526	6.97
523.725	7.07
523.923	7.14
524.122	7.22
524.321	7.34
524.519	7.49
524.718	7.53
524.917	7.64
525.115	7.74
525.314	7.86
525.512	7.9
525.711	8
525.909	8.06
526.108	8.18
526.306	8.29
526.505	8.4
526.703	8.5
526.902	8.63
527.1	8.74
527.299	8.8
527.497	8.87
527.696	8.98
527.894	9.04
528.092	9.13
528.291	9.18
528.489	9.26
528.688	9.32
528.886	9.38
529.084	9.39
529.283	9.42
529.481	9.49
529.679	9.55
529.877	9.6
530.076	9.65
530.274	9.76
530.472	9.85
530.67	9.9
530.869	9.97
531.067	10.07
531.265	10.21
531.463	10.33
531.661	10.45
531.859	10.56
532.057	10.65
532.255	10.78
532.454	10.79
532.652	10.84
532.85	10.92
533.048	10.97
533.246	11.05
533.444	11.09
533.642	11.19
533.84	11.24
534.038	11.29
534.236	11.4
534.434	11.48
534.632	11.58
534.83	11.68
535.027	11.79
535.225	11.87
535.423	11.91
535.621	12.05
535.819	12.09
536.017	12.19
536.215	12.28
536.412	12.3
536.61	12.35
536.808	12.41
537.006	12.45
537.203	12.46
537.401	12.6
537.599	12.66
537.797	12.65
537.994	12.78
538.192	12.8
538.39	12.92
538.587	13.07
538.785	13.12
538.983	13.28
539.18	13.39
539.378	13.54
539.575	13.61
539.773	13.76
539.97	13.86
540.168	13.94
540.366	14.05
540.563	14.06
540.761	14.09
540.958	14.21
541.155	14.23
541.353	14.3
541.55	14.35
541.748	14.4
541.945	14.45
542.143	14.57
542.34	14.57
542.537	14.64
542.735	14.77
542.932	14.88
543.129	14.9
543.327	15.02
543.524	15.17
543.721	15.26
543.919	15.4
544.116	15.57
544.313	15.67
544.51	15.92
544.708	16.06
544.905	16.22
545.102	16.36
545.299	16.6
545.496	16.74
545.693	16.81
545.891	16.94
546.088	16.96
546.285	16.96
546.482	17
546.679	16.98
546.876	16.96
547.073	16.86
547.27	16.84
547.467	16.73
547.664	16.69
547.861	16.77
548.058	16.72
548.255	16.7
548.452	16.72
548.649	16.79
548.846	16.78
549.043	16.84
549.24	16.84
549.437	16.78
549.633	16.78
549.83	16.74
550.027	16.61
550.224	16.61
550.421	16.73
550.618	16.76
550.814	16.54
551.011	16.51
551.208	16.53
551.405	16.71
551.601	16.79
551.798	16.88
551.995	16.96
552.191	17
552.388	17.01
552.585	16.98
552.781	17.01
552.978	17.12
553.175	17.15
553.371	17.24
553.568	17.22
553.764	17.26
553.961	17.32
554.157	17.38
554.354	17.4
554.55	17.42
554.747	17.5
554.943	17.5
555.14	17.51
555.336	17.54
555.533	17.39
555.729	17.35
555.926	17.24
556.122	17.23
556.318	17.31
556.515	17.35
556.711	17.46
556.907	17.48
557.104	17.51
557.3	17.56
557.496	17.68
557.693	17.73
557.889	17.87
558.085	17.97
558.281	18.04
558.478	17.92
558.674	17.91
558.87	17.92
559.066	17.91
559.262	17.99
559.459	18.03
559.655	18.07
559.851	18.19
560.047	18.22
560.243	18.28
560.439	18.17
560.635	18.25
560.831	18.31
561.027	18.33
561.223	18.42
561.419	18.37
561.615	18.44
561.811	18.34
562.007	18.36
562.203	18.42
562.399	18.52
562.595	18.67
562.791	18.74
562.987	18.67
563.183	18.68
563.379	18.64
563.575	18.61
563.771	18.56
563.966	18.69
564.162	18.7
564.358	18.77
564.554	18.69
564.75	18.72
564.945	18.85
565.141	18.87
565.337	18.94
565.533	19.02
565.728	19.11
565.924	19.19
566.12	19.16
566.315	19.07
566.511	18.98
566.707	18.93
566.902	18.93
567.098	18.93
567.293	18.91
567.489	18.96
567.684	18.91
567.88	18.87
568.076	18.9
568.271	19.02
568.467	19.19
568.662	19.32
568.858	19.41
569.053	19.38
569.248	19.33
569.444	19.44
569.639	19.31
569.835	19.33
570.03	19.44
570.225	19.44
570.421	19.47
570.616	19.42
570.812	19.42
571.007	19.49
571.202	19.54
571.397	19.63
571.593	19.67
571.788	19.81
571.983	19.83
572.178	19.84
572.374	19.84
572.569	19.8
572.764	19.83
572.959	19.74
573.154	19.72
573.35	19.85
573.545	19.76
573.74	19.79
573.935	19.78
574.13	19.85
574.325	19.93
574.52	19.93
574.715	20.06
574.91	20.03
575.105	20.18
575.3	20.28
575.495	20.26
575.69	20.36
575.885	20.45
576.08	20.5
576.275	20.56
576.47	20.63
576.665	20.71
576.86	20.76
577.055	20.87
577.25	20.83
577.444	20.93
577.639	21.04
577.834	21.09
578.029	21.13
578.224	21.12
578.418	21.16
578.613	21.22
578.808	21.26
579.003	21.24
579.197	21.28
579.392	21.33
579.587	21.24
579.781	21.22
579.976	21.32
580.171	21.24
580.365	21.4
580.56	21.48
580.755	21.46
580.949	21.53
581.144	21.56
581.338	21.74
581.533	21.75
581.727	21.86
581.922	21.94
582.116	21.83
582.311	21.95
582.505	21.89
582.7	21.83
582.894	21.81
583.089	21.72
583.283	21.74
583.478	21.75
583.672	21.84
583.866	21.7
584.061	21.68
584.255	21.8
584.449	21.76
584.644	21.71
584.838	21.74
585.032	21.86
585.226	22.04
585.421	21.99
585.615	22.01
585.809	22.1
586.003	22.23
586.198	22.22
586.392	22.21
586.586	22.31
586.78	22.42
586.974	22.37
587.168	22.3
587.363	22.29
587.557	22.31
587.751	22.21
587.945	22.14
588.139	22.14
588.333	21.96
588.527	21.93
588.721	21.91
588.915	21.93
589.109	21.89
589.303	21.86
589.497	21.77
589.691	21.68
589.885	21.83
590.079	21.81
590.273	21.87
590.466	21.99
590.66	22.07
590.854	22.2
591.048	21.97
591.242	22.11
591.436	22.05
591.629	22.15
591.823	22.29
592.017	22.21
592.211	22.28
592.404	22.26
592.598	22.39
592.792	22.39
592.986	22.31
593.179	22.45
593.373	22.62
593.567	22.75
593.76	22.67
593.954	22.6
594.147	22.53
594.341	22.49
594.535	22.39
594.728	22.33
594.922	22.23
595.115	22.14
595.309	22.18
595.502	21.97
595.696	21.91
595.889	21.92
596.083	22.08
596.276	22.04
596.47	22.01
596.663	22.04
596.856	22.05
597.05	22.11
597.243	22.14
597.437	22.21
597.63	22.32
597.823	22.29
598.017	22.37
598.21	22.25
598.403	22.34
598.596	22.47
598.79	22.64
598.983	22.59
599.176	22.55
599.369	22.64
599.563	22.63
599.756	22.64
599.949	22.77
600.142	22.73
600.335	22.79
600.528	22.81
600.722	22.74
600.915	22.77
601.108	22.82
601.301	22.91
601.494	22.95
601.687	23.01
601.88	22.81
602.073	22.67
602.266	22.6
602.459	22.65
602.652	22.67
602.845	22.7
603.038	22.69
603.231	22.69
603.424	22.63
603.617	22.52
603.809	22.44
604.002	22.46
604.195	22.6
604.388	22.71
604.581	22.6
604.774	22.64
604.966	22.59
605.159	22.45
605.352	22.46
605.545	22.5
605.737	22.6
605.93	22.68
606.123	22.89
606.316	22.89
606.508	22.99
606.701	23.21
606.894	23.16
607.086	23.23
607.279	23.39
607.471	23.58
607.664	23.78
607.857	23.8
608.049	23.88
608.242	24.1
608.434	24.37
608.627	24.7
608.819	25.14
609.012	25.87
609.204	26.66
609.397	27.51
609.589	28.19
609.782	28.85
609.974	29.72
610.166	30.63
610.359	31.51
610.551	32.38
610.743	33.1
610.936	33.63
611.128	33.96
611.32	34.12
611.513	34.08
611.705	34.12
611.897	34.08
612.09	33.95
612.282	33.75
612.474	33.34
612.666	32.75
612.858	32.32
613.051	32.11
613.243	31.64
613.435	31.28
613.627	31.16
613.819	30.93
614.011	30.61
614.203	30.34
614.395	29.97
614.588	29.54
614.78	29.63
614.972	29.25
615.164	28.76
615.356	28.38
615.548	28.1
615.74	27.61
615.932	27.2
616.124	26.95
616.315	26.69
616.507	26.4
616.699	26.18
616.891	25.6
617.083	25.42
617.275	25.28
617.467	25.12
617.659	25.01
617.85	24.98
618.042	24.96
618.234	24.94
618.426	24.73
618.618	24.62
618.809	24.66
619.001	24.86
619.193	24.85
619.384	24.85
619.576	24.91
619.768	25.08
619.959	25.04
620.151	24.98
620.343	24.89
620.534	24.93
620.726	25.08
620.917	25.16
621.109	24.98
621.301	25.07
621.492	24.91
621.684	25.02
621.875	24.88
622.067	24.84
622.258	24.75
622.45	24.82
622.641	24.89
622.832	24.93
623.024	24.77
623.215	24.82
623.407	24.68
623.598	24.86
623.789	24.67
623.981	24.55
624.172	24.53
624.363	24.74
624.555	24.76
624.746	24.71
624.937	24.6
625.129	24.72
625.32	24.54
625.511	24.63
625.702	24.62
625.893	24.74
626.085	24.91
626.276	24.97
626.467	24.87
626.658	24.79
626.849	24.78
627.04	24.84
627.231	24.81
627.422	24.88
627.614	24.79
627.805	24.86
627.996	24.86
628.187	24.76
628.378	24.78
628.569	24.96
628.76	25.09
628.951	25.27
629.142	25.51
629.332	25.49
629.523	25.68
629.714	25.92
629.905	25.99
630.096	26.25
630.287	26.33
630.478	26.49
630.669	26.57
630.859	26.66
631.05	26.57
631.241	26.15
631.432	26.15
631.623	26.1
631.813	25.8
632.004	25.51
632.195	25.33
632.385	25.23
632.576	24.98
632.767	24.58
632.957	24.46
633.148	24.22
633.339	24.25
633.529	24.15
633.72	23.94
633.91	23.94
634.101	24.12
634.292	23.99
634.482	23.98
634.673	23.88
634.863	23.78
635.054	23.59
635.244	23.65
635.435	23.67
635.625	23.76
635.815	23.84
636.006	23.88
636.196	23.52
636.387	23.46
636.577	23.48
636.767	23.69
636.958	24.02
637.148	23.94
637.338	24.09
637.529	23.99
637.719	23.82
637.909	23.76
638.099	23.73
638.29	23.96
638.48	24.12
638.67	24.04
638.86	24.01
639.05	23.75
639.241	23.83
639.431	23.63
639.621	23.66
639.811	23.81
640.001	23.79
640.191	23.73
640.381	23.77
640.571	23.81
640.761	23.82
640.951	23.77
641.141	23.8
641.331	23.78
641.521	23.8
641.711	23.86
641.901	23.8
642.091	23.71
642.281	23.74
642.471	23.62
642.661	23.54
642.851	23.6
643.041	23.49
643.231	23.66
643.42	23.61
643.61	23.73
643.8	23.75
643.99	23.67
644.18	23.84
644.369	23.91
644.559	23.87
644.749	23.85
644.939	23.75
645.128	23.76
645.318	23.69
645.508	23.8
645.697	23.72
645.887	23.72
646.076	23.84
646.266	24.01
646.456	24.11
646.645	24.26
646.835	24.34
647.024	24.21
647.214	24.46
647.403	24.4
647.593	24.56
647.782	24.73
647.972	24.74
648.161	24.77
648.351	24.88
648.54	24.8
648.73	24.87
648.919	24.8
649.108	25.14
649.298	24.96
649.487	25.15
649.677	25.16
649.866	25.08
650.055	25.12
650.244	25.24
650.434	25.03
650.623	25.23
650.812	25.22
651.002	25.4
651.191	25.23
651.38	25.26
651.569	25.15
651.758	25.14
651.947	25.11
652.137	25.08
652.326	24.91
652.515	24.99
652.704	24.82
652.893	24.89
653.082	24.85
653.271	25.16
653.46	25.34
653.649	25.38
653.838	25.4
654.027	25.26
654.216	25.22
654.405	25.2
654.594	25.22
654.783	25.29
654.972	25.38
655.161	25.34
655.35	25.18
655.539	24.9
655.728	24.88
655.916	24.96
656.105	25.17
656.294	25.12
656.483	25.02
656.672	25
656.86	25.02
657.049	24.82
657.238	24.8
657.427	24.49
657.615	24.48
657.804	24.41
657.993	24.16
658.181	24.11
658.37	24.07
658.559	24.23
658.747	24.35
658.936	24.25
659.125	24.26
659.313	24.16
659.502	24.4
659.69	24.45
659.879	24.56
660.067	24.66
660.256	24.88
660.444	24.95
660.633	24.87
660.821	24.71
661.01	24.85
661.198	25
661.387	24.86
661.575	24.87
661.763	25
661.952	25.01
662.14	25.34
662.328	25.29
662.517	25.59
662.705	25.6
662.893	25.8
663.082	25.73
663.27	25.63
663.458	25.9
663.646	25.85
663.834	25.78
664.023	25.71
664.211	25.48
664.399	25.29
664.587	25.13
664.775	25.31
664.963	25.2
665.152	25.32
665.34	25.22
665.528	25.41
665.716	25.44
665.904	25.5
666.092	25.66
666.28	25.59
666.468	25.6
666.656	25.42
666.844	25.61
667.032	25.67
667.22	25.39
667.408	25.26
667.596	25.3
667.784	25.29
667.971	25.16
668.159	24.97
668.347	25.09
668.535	25.2
668.723	25.35
668.911	25.09
669.098	24.83
669.286	24.89
669.474	25.11
669.662	24.87
669.849	25.12
670.037	25.1
670.225	25.07
670.413	25.14
670.6	25.26
670.788	25.35
670.976	25.6
671.163	25.62
671.351	25.71
671.538	25.57
671.726	25.4
671.913	25.2
672.101	25.28
672.289	25.41
672.476	24.98
672.664	24.76
672.851	24.77
673.039	24.53
673.226	24.66
673.413	24.7
673.601	24.7
673.788	24.95
673.976	24.83
674.163	24.84
674.35	24.86
674.538	25.01
674.725	25.02
674.912	24.91
675.1	24.95
675.287	24.9
675.474	24.95
675.662	25.03
675.849	25.1
676.036	24.95
676.223	24.77
676.411	24.9
676.598	25.19
676.785	25.23
676.972	25.33
677.159	25.34
677.346	25.43
677.533	25.48
677.721	25.6
677.908	25.63
678.095	26.02
678.282	26.31
678.469	26.42
678.656	26.24
678.843	26.25
679.03	26.08
679.217	25.91
679.404	25.96
679.591	26
679.778	25.87
679.964	25.69
680.151	25.59
680.338	25.51
680.525	25.18
680.712	25.07
680.899	25.1
681.086	25.26
681.272	25.24
681.459	25.28
681.646	25.11
681.833	25.06
682.02	25.22
682.206	24.96
682.393	25.06
682.58	25.07
682.766	25.18
682.953	25.22
683.14	25.04
683.326	25.25
683.513	25.21
683.7	25.11
683.886	25.35
684.073	25.11
684.259	25.37
684.446	25.28
684.632	25.53
684.819	25.63
685.005	25.64
685.192	25.69
685.378	25.87
685.565	25.96
685.751	26.41
685.938	26.53
686.124	26.83
686.31	27.03
686.497	26.97
686.683	26.9
686.87	27.03
687.056	26.86
687.242	26.79
687.429	26.62
687.615	26.64
687.801	26.36
687.987	26.22
688.174	25.94
688.36	25.59
688.546	25.73
688.732	25.71
688.918	25.67
689.105	25.95
689.291	25.97
689.477	26.09
689.663	25.8
689.849	26
690.035	26.11
690.221	26.62
690.407	27
690.593	26.94
690.779	26.95
690.965	26.89
691.151	26.73
691.337	26.95
691.523	26.73
691.709	27.25
691.895	27.31
692.081	27.11
692.267	26.75
692.453	26.6
692.639	26.74
692.825	26.84
693.011	26.73
693.196	26.58
693.382	26.43
693.568	26.36
693.754	25.85
693.94	25.53
694.125	25.46
694.311	25.54
694.497	25.59
694.682	25.25
694.868	25.46
695.054	25.81
695.239	26.12
695.425	26.04
695.611	26.42
695.796	26.67
695.982	26.77
696.168	26.71
696.353	26.9
696.539	26.57
696.724	26.43
696.91	26.24
697.095	26.05
697.281	25.74
697.466	25.92
697.652	25.69
697.837	25.69
698.023	25.75
698.208	25.74
698.393	25.46
698.579	25.53
698.764	25.72
698.949	25.59
699.135	25.51
699.32	25.66
699.505	25.46
699.691	25.6
699.876	25.32
700.061	25.4
700.246	25.67
700.432	25.92
700.617	25.95
700.802	25.96
700.987	26.21
701.172	25.82
701.358	25.66
701.543	25.77
701.728	25.66
701.913	25.79
702.098	25.7
702.283	25.57
702.468	25.43
702.653	25.49
702.838	25.91
703.023	25.59
703.208	26.32
703.393	26.51
703.578	26.66
703.763	26.87
703.948	27.35
704.133	27.59
704.318	27.81
704.503	27.94
704.688	27.93
704.873	27.42
705.057	28.2
705.242	28.37
705.427	28.55
705.612	28.73
705.797	28.97
705.981	29.25
706.166	29.57
706.351	29.84
706.536	30.11
706.72	30.37
706.905	30.64
707.09	30.36
707.274	30.26
707.459	30.38
707.644	30.42
707.828	30.64
708.013	30.55
708.197	30.37
708.382	29.86
708.567	29.55
708.751	29.58
708.936	29.49
709.12	29.58
709.305	29.45
709.489	29.41
709.673	29.35
709.858	29.18
710.042	29.22
710.227	29.18
710.411	29.59
710.596	29.96
710.78	30.18
710.964	30.42
711.149	30.48
711.333	30.77
711.517	30.71
711.702	30.87
711.886	30.68
712.07	30.37
712.254	30.19
712.438	29.85
712.623	29.66
712.807	29.32
712.991	29.48
713.175	29.04
713.359	29.07
713.544	28.73
713.728	28.5
713.912	28.45
714.096	28.2
714.28	27.99
714.464	27.58
714.648	27.2
714.832	26.93
715.016	26.44
715.2	26.64
715.384	26.24
715.568	26.44
715.752	26.39
715.936	26.51
716.12	26.6
716.304	26.41
716.488	26.7
716.671	26.68
716.855	26.78
717.039	26.77
717.223	26.62
717.407	26.45
717.59	26.4
717.774	26.22
717.958	25.57
718.142	25.37
718.325	25.31
718.509	24.95
718.693	25.2
718.877	25.69
719.06	25.57
719.244	25.56
719.428	25.73
719.611	25.79
719.795	25.98
719.978	26.38
720.162	26.58
720.345	27.4
720.529	27.73
720.713	27.69
720.896	27.4
721.08	27.38
721.263	27.35
721.446	27.33
721.63	26.95
721.813	26.53
721.997	26.5
722.18	26.59
722.364	25.79
722.547	25.68
722.73	25.46
722.914	25.23
723.097	25.69
723.28	25.64
723.464	25.8
723.647	26.25
723.83	26.6
724.013	26.17
724.197	25.79
724.38	25.78
724.563	25.73
724.746	26.05
724.929	26.29
725.112	25.93
725.296	25.93
725.479	25.67
725.662	25.67
725.845	25.74
726.028	25.91
726.211	26.17
726.394	26.36
726.577	26.47
726.76	26.55
726.943	26.21
727.126	26.34
727.309	26.42
727.492	26.52
727.675	26.1
727.858	26.01
728.041	26.4
728.224	26.2
728.407	26.17
728.589	25.94
728.772	25.67
728.955	25.73
729.138	25.86
729.321	25.72
729.503	25.73
729.686	25.71
729.869	25.79
730.052	25.87
730.234	26
730.417	25.7
730.6	25.7
730.782	25.68
730.965	25.33
731.148	25.32
731.33	25.54
731.513	25.5
731.695	25.55
731.878	25.67
732.061	25.28
732.243	25.35
732.426	26.02
732.608	26.17
732.791	26.36
732.973	26.45
733.156	26.36
733.338	26.37
733.52	26.32
733.703	26.42
733.885	26.3
734.068	26.91
734.25	26.94
734.432	26.88
734.615	26.9
734.797	26.8
734.979	27.22
735.162	26.97
735.344	26.81
735.526	26.94
735.708	26.71
735.891	26.45
736.073	26
736.255	26.27
736.437	25.68
736.619	26.09
736.802	25.91
736.984	25.98
737.166	25.92
737.348	26.31
737.53	26.23
737.712	26.29
737.894	26.56
738.076	26.61
738.258	26.43
738.44	27.09
738.622	26.93
738.804	27.14
738.986	26.87
739.168	27.33
739.35	27.01
739.532	27.27
739.714	28.04
739.896	27.77
740.078	28.02
740.259	27.85
740.441	27.68
740.623	27.38
740.805	27.3
740.987	27.58
741.168	27.6
741.35	27.53
741.532	28.32
741.714	28.08
741.895	28.43
742.077	28.57
742.259	28.91
742.44	28.7
742.622	28.82
742.804	28.83
742.985	28.66
743.167	28.42
743.348	28.69
743.53	28.1
743.711	27.91
743.893	28.16
744.075	27.9
744.256	27.66
744.438	27.76
744.619	28
744.8	28.06
744.982	28.61
745.163	28.84
745.345	28.95
745.526	28.43
745.707	28.83
745.889	28.57
746.07	28.71
746.252	28.52
746.433	28.59
746.614	28.57
746.795	28.63
746.977	28.36
747.158	28.78
747.339	28.65
747.52	28.92
747.702	28.6
747.883	28.64
748.064	28.23
748.245	28.22
748.426	27.78
748.607	28.63
748.788	28.45
748.97	28.03
749.151	27.88
749.332	27.95
749.513	28.14
749.694	27.82
749.875	27.77
750.056	28.18
750.237	28.47
750.418	28.27
750.599	27.91
750.78	27.86
750.96	27.93
751.141	27.5
751.322	27.41
751.503	27.03
751.684	27.74
751.865	27.83
752.046	27.21
752.226	26.94
752.407	27.5
752.588	26.95
752.769	27.66
752.949	27.66
753.13	28.14
753.311	28.19
753.492	28.37
753.672	27.39
753.853	26.97
754.034	27.15
754.214	27.75
754.395	27.7
754.575	27.87
754.756	26.64
754.937	27.46
755.117	26.83
755.298	26.72
755.478	27.32
755.659	27.54
755.839	28.3
756.02	28.22
756.2	27.81
756.381	28.3
756.561	28.58
756.741	29.42
756.922	28.84
757.102	28.92
757.283	29.06
757.463	28.18
757.643	28.87
757.823	28.27
758.004	28.37
758.184	28.69
758.364	28.59
758.545	27.78
758.725	27.23
758.905	27.26
759.085	27.37
759.265	27.2
759.446	27.54
759.626	27.56
759.806	27.7
759.986	27.57
760.166	26.79
760.346	26.48
760.526	26.1
760.706	26.3
760.886	26.35
761.066	26.5
761.246	25.87
761.426	25.89
761.606	25.71
761.786	25.69
761.966	25.8
762.146	26.02
762.326	25.73
762.506	26.19
762.686	26.35
762.866	26.13
763.046	25.65
763.225	25.85
763.405	26.06
763.585	25.68
763.765	25.55
763.945	25.63
764.124	25.99
764.304	25.93
764.484	26.07
764.664	25.67
764.843	25.4
765.023	25.53
765.203	25.51
765.382	24.95
765.562	24.65
765.741	24.76
765.921	24.72
766.101	24.25
766.28	24.21
766.46	24.18
766.639	24.98
766.819	25.24
766.998	25.48
767.178	25.63
767.357	26.14
767.537	26.79
767.716	26.02
767.896	25.74
768.075	26.39
768.254	26.82
768.434	27.13
768.613	26.38
768.792	27.01
768.972	26.78
769.151	27
769.33	27.29
769.51	26.99
769.689	27.73
769.868	28.35
770.047	27.64
770.226	28.01
770.406	27.3
770.585	27.76
770.764	27.39
770.943	27.52
771.122	27.94
771.301	27.79
771.48	27.94
771.66	28.71
771.839	27.87
772.018	28.38
772.197	27.75
772.376	28.75
772.555	28.97
772.734	28.76
772.913	28.32
773.092	27.18
773.271	26.2
773.449	26.74
773.628	26.73
773.807	27.36
773.986	26.67
774.165	27.01
774.344	25.53
774.523	25.67
774.701	25.98
774.88	26.64
775.059	27.69
775.238	27.67
775.417	27.15
775.595	26.83
775.774	26.63
775.953	27.87
776.131	28.13
776.31	29.26
776.489	29
776.667	29.32
776.846	29.16
777.025	28.37
777.203	28.94
777.382	28.92
777.56	28.56
777.739	28.93
777.917	27.15
778.096	27.14
778.274	27
778.453	27.55
778.631	27.2
778.81	28.03
778.988	28.39
779.166	28.24
779.345	28.62
779.523	29.04
779.702	28.03
779.88	29.13
780.058	29.42
780.237	29.5
780.415	29.47
780.593	29.77
780.771	28.64
780.95	28.93
781.128	29.49
781.306	29.9
781.484	29.48
781.662	29.76
781.841	29.42
782.019	28.89
782.197	29.21
782.375	28.67
782.553	27.9
782.731	28.88
782.909	28.29
783.087	27.57
783.265	26.64
783.443	27.28
783.621	26.96
783.799	26.75
783.977	25.79
784.155	24.95
784.333	24.02
784.511	23.62
784.689	23.24
784.867	23.22
785.045	22.43
785.223	23.21
785.4	23.25
785.578	24.51
785.756	24.49
785.934	25.42
786.112	25.2
786.289	26.93
786.467	28.3
786.645	28.23
786.823	28.62
787	29.61
787.178	29.54
787.356	28.87
787.533	28.21
787.711	27.8
787.889	28.13
788.066	27.8
788.244	27.21
788.421	26.95
788.599	26.5
788.776	25.66
788.954	25.72
789.131	24.48
789.309	24.54
789.486	25.12
789.664	25.39
789.841	25.05
790.019	25.05
790.196	24.88
790.373	24.67
790.551	24.37
790.728	26.02
790.906	26.18
791.083	27.58
791.26	27.03
791.437	26.42
791.615	26.76
791.792	26.74
791.969	28.19
792.146	27.48
792.324	27.3
792.501	27.97
792.678	27.34
792.855	26.92
793.032	26.02
793.209	26.86
793.387	25.96
793.564	26.56
793.741	27.17
793.918	27.21
794.095	28.09
794.272	28.79
794.449	28.97
794.626	29.01
794.803	28.69
794.98	29.39
795.157	28.65
795.334	29.45
795.511	28.47
795.688	27.62
795.864	26.75
796.041	27.13
796.218	26.85
796.395	27.38
796.572	27.59
796.749	28.06
796.925	27.16
797.102	28.12
797.279	28.97
797.456	29.51
797.632	30.23
797.809	30.16
797.986	28.97
798.162	27.98
798.339	27.43
798.516	27.1
798.692	27.41
798.869	28.28
799.046	28.03
799.222	27.41
799.399	27.05
799.575	26.88
799.752	27.03
799.928	28.68
800.105	30.22
800.281	30.01
800.458	30.43
800.634	29.43
800.811	28.19
800.987	28.35
801.163	28.23
801.34	29.21
801.516	29.26
801.692	29.45
801.869	28.34
802.045	28.27
802.221	28.1
802.398	28.6
802.574	28.59
802.75	29.58
802.926	28.87
803.103	29.2
803.279	28.62
803.455	29.6
803.631	29.24
803.807	29.33
803.983	28.91
804.16	29.64
804.336	27.12
804.512	26.85
804.688	27.26
804.864	27.58
805.04	27.83
805.216	27.48
805.392	25.63
805.568	24.24
805.744	24.81
805.92	24.17
806.096	23.77
806.272	24.65
806.448	25.09
806.623	25.04
806.799	24.73
806.975	23.16
807.151	23.58
807.327	24.64
807.503	26.65
807.678	25.4
807.854	25.27
808.03	25.86
808.206	28.24
808.381	28.3
808.557	29.26
808.733	29.88
808.908	30.53
809.084	30.01
809.26	29.39
809.435	29.97
809.611	29.77
809.787	31.56
809.962	30.58
810.138	29.7
810.313	29.77
810.489	28.97
810.664	29.69
810.84	30.15
811.015	30.53
811.191	30.23
811.366	29.21
811.542	30.45
811.717	29.17
811.892	29.91
812.068	28.38
812.243	28.13
812.419	27.76
812.594	25.65
812.769	25.52
812.944	26.12
813.12	26.3
813.295	26.31
813.47	26.42
813.645	25.91
813.821	25.38
813.996	27.11
814.171	28.67
814.346	27.96
814.521	28.32
814.697	27.71
814.872	28.2
815.047	28.56
815.222	29.5
815.397	28.98
815.572	30.12
815.747	30.96
815.922	30.28
816.097	29.72
816.272	29.99
816.447	29.66
816.622	29.79
816.797	29.66
816.972	29.26
817.147	27.82
817.322	27.38
817.496	26.7
817.671	25.25
817.846	24.69
818.021	24.05
818.196	24.07
818.371	25.58
818.545	25.89
818.72	25.27
818.895	25.59
819.069	25.62
819.244	25.33
819.419	26.13
819.594	25.68
819.768	25.93
819.943	25.53
820.117	25.01
820.292	24.93
820.467	24.05
820.641	24.08
820.816	23.51
820.99	23.55
821.165	23.65
821.339	23.34
821.514	23.96
821.688	23.87
821.863	24.09
822.037	24.31
822.212	24.25
822.386	24.32
822.56	24.08
822.735	24.21
822.909	24.31
823.084	24.46
823.258	24.54
823.432	24.25
823.606	24.19
823.781	24.12
823.955	23.98
824.129	23.88
824.303	24.32
824.478	24.28
824.652	24.53
824.826	24.32
825	24.35
825.174	24.08
825.348	24.08
825.523	24.26
825.697	24.39
825.871	24.1
826.045	24.15
826.219	23.43
826.393	23.81
826.567	23.52
826.741	23.73
826.915	23.62
827.089	23.33
827.263	23.88
827.437	23.73
827.611	24.05
827.784	24.16
827.958	23.81
828.132	24.17
828.306	24.21
828.48	24.28
828.654	24.42
828.827	24.16
829.001	24.53
829.175	24.11
829.349	24.29
829.522	23.79
829.696	24.63
829.87	25.36
830.044	25.73
830.217	26.18
830.391	25.69
830.565	26.08
830.738	26.29
830.912	26.35
831.085	26.55
831.259	27.16
831.432	28.27
831.606	28.4
831.779	26.32
831.953	25.46
832.126	24.7
832.3	25.4
832.473	25.81
832.647	25.92
832.82	26.36
832.994	26.17
833.167	25.07
833.34	23.8
833.514	23.45
833.687	24.18
833.86	24.1
834.034	23.87
834.207	23.39
834.38	22.98
834.553	23.2
834.727	22.79
834.9	23.09
835.073	23.63
835.246	24.24
835.419	24.43
835.593	24.9
835.766	24.86
835.939	25.99
836.112	27.2
836.285	26.47
836.458	25.92
836.631	26.13
836.804	25.45
836.977	26.35
837.15	25.19
837.323	24.45
837.496	23.45
837.669	24.51
837.842	22.44
838.015	20.23
838.188	21.91
838.361	22.39
838.533	22.41
838.706	23.61
838.879	23.56
839.052	25.3
839.225	26.43
839.398	25.89
839.57	26.16
839.743	28.18
839.916	28.08
840.088	27.53
840.261	28.25
840.434	29.49
840.607	27.49
840.779	25.26
840.952	24.81
841.124	24.04
841.297	25.03
841.47	22.36
841.642	20.16
841.815	22.64
841.987	23.76
842.16	23.54
842.332	23.7
842.505	25.89
842.677	29.3
842.85	28.73
843.022	30.25
843.194	30.66
843.367	33.01
843.539	37.65
843.712	35.44
843.884	33.92
844.056	34.28
844.229	34.25
844.401	35.03
844.573	31.41
844.745	32.7
844.918	32.03
845.09	31.23
845.262	33.78
845.434	30.63
845.606	31.28
845.779	34.8
845.951	34.14
846.123	32.78
846.295	33.01
846.467	34.59
846.639	33.54
846.811	34.3
846.983	35.81
847.155	33.14
847.327	33.95
847.499	36.67
847.671	33.66
847.843	34.7
848.015	35.45
848.187	33.38
848.359	34.59
848.531	35.11
848.703	36
848.875	38.63
849.047	38.09
849.218	39.75
849.39	37.49
849.562	38.98
849.734	39.83
849.905	38.78
850.077	39.18
850.249	36.5
850.421	36.85
850.592	34.39
850.764	35.13
850.936	36.06
851.107	32.01
851.279	30.22
851.451	30.73
851.622	31.23
851.794	32.11
851.965	32.15
852.137	34.6
852.308	37.17
852.48	39.43
852.651	37.51
852.823	39.88
852.994	39.76
853.166	42.66
853.337	38.95
853.509	37.64
853.68	34.96
853.851	32.48
854.023	30.29
854.194	27.78
854.365	26.32
854.537	25.06
854.708	26.06
854.879	29.18
855.05	30.89
855.222	31.48
855.393	33.92
855.564	35.45
855.735	37.83
855.906	38.01
856.078	36.84
856.249	39.21
856.42	39.57
856.591	37.76
856.762	34.77
856.933	31.04
857.104	35.26
857.275	31.58
857.446	29.06
857.617	32.45
857.788	32.87
857.959	30.65
858.13	26.62
858.301	25.2
858.472	21.17
858.643	22.75
858.814	25.17
858.985	21.52
859.155	26.8
859.326	29.77
859.497	26.07
859.668	26.06
859.839	29.25
860.009	30.97
860.18	29.16
860.351	26.36
860.522	29.34
860.692	27.65
860.863	29.26
861.034	26.71
861.204	29.58
861.375	27.28
861.546	28.3
861.716	28.77
861.887	30.5
862.057	34.69
862.228	39.54
862.398	38.6
862.569	41.39
862.739	37.43
862.91	38.61
863.08	36.33
863.251	40.23
863.421	42.04
863.592	41.4
863.762	38.94
863.932	40.87
864.103	40.1
864.273	35.14
864.443	29.86
864.614	30.19
864.784	23.89
864.954	26.06
865.125	26.99
865.295	24.32
865.465	26.84
865.635	28.84
865.805	24.7
865.976	24.75
866.146	25.31
866.316	27.25
866.486	28.56
866.656	31.32
866.826	31.39
866.996	29.57
867.166	30.81
867.336	31.16
867.506	27.97
867.676	30.74
867.846	32.41
868.016	34.86
868.186	35.62
868.356	34.42
868.526	35.06
868.696	34.26
868.866	34.89
869.036	34.59
869.206	32.8
869.376	38.37
869.545	38.27
869.715	35.78
869.885	40.53
870.055	41.11
870.224	45.21
870.394	45.22
870.564	46.55
870.734	44.52
870.903	45.14
871.073	48.78
871.243	46.34
871.412	44.82
871.582	45.7
871.751	43.09
871.921	44.91
872.091	41.61
872.26	43.41
872.43	42.1
872.599	43.85
872.769	46.65
872.938	43.9
873.108	41.8
873.277	40.98
873.446	43.22
873.616	43.17
873.785	40.73
873.955	42.72
874.124	40.52
874.293	38.96
874.463	39.17
874.632	35.56
874.801	37.55
874.971	40.61
875.14	40.74
875.309	37.38
875.478	35.98
875.647	34.72
875.817	29.48
875.986	30.89
876.155	34.95
876.324	33.9
876.493	34.86
876.662	31.98
876.831	28.22
877	29.81
877.17	29.64
877.339	31.14
877.508	31.96
877.677	36.28
877.846	32.88
878.015	32.63
878.184	31.1
878.352	28.44
878.521	29.8
878.69	29.47
878.859	30.02
879.028	29.81
879.197	24.98
879.366	23.31
879.534	22.4
879.703	24.58
879.872	24.16
880.041	23.63
880.21	24.41
880.378	24.67
880.547	24.47
880.716	24.2
880.884	24.24
881.053	25.64
881.222	26.43
881.39	26.12
881.559	25.57
881.727	24.69
881.896	24.26
882.065	24.06
882.233	23.52
882.402	23.53
882.57	23.46
882.739	23.25
882.907	22.91
883.076	22.85
883.244	22.75
883.412	22.7
883.581	22.81
883.749	22.94
883.918	23.01
884.086	23.15
884.254	24.28
884.423	24.19
884.591	24.65
884.759	25.31
884.927	25.25
885.096	25.42
885.264	25.4
885.432	27.95
885.6	29.58
885.769	30.48
885.937	30.98
886.105	27.44
886.273	28.24
886.441	27.46
886.609	28.1
886.777	26.61
886.945	25.65
887.113	25.86
887.281	21.37
887.449	20.45
887.617	19.72
887.785	22.41
887.953	24.08
888.121	24.18
888.289	23.56
888.457	22.5
888.625	24.13
888.793	26.72
888.961	26.46
889.129	24.31
889.296	26.04
889.464	25.64
889.632	20.91
889.8	22.75
889.967	20.13
890.135	23.69
