Data from 2938710__Reflection_03.txt Node
Date: Tue Mar 17 19:32:08 EDT 2015
User: robert
Spectrometer: USB4E03002
Autoset integration time: false
Trigger mode: 4
Integration Time (sec): 1.000000E-1
Scans to average: 10
Electric dark correction enabled: false
Nonlinearity correction enabled: false
Boxcar width: 5
Stray light correction enabled: false
XAxis mode: Wavelengths
Stop averaging: false
Number of Pixels in Spectrum: 3648
>>>>>Begin Spectral Data<<<<<
177.575	171.05
177.794	141.67
178.014	151.53
178.233	122.83
178.452	82.86
178.672	86.27
178.891	75.88
179.11	64.87
179.33	5.22
179.549	-0.82
179.768	-47.33
179.987	-39.05
180.207	947.83
180.426	-129.75
180.645	11.93
180.864	40.76
181.084	30.49
181.303	33.73
181.522	16.5
181.741	42.83
181.96	4.74
182.179	-35.53
182.398	-26.55
182.618	10.79
182.837	36.79
183.056	36.69
183.275	18.42
183.494	31.1
183.713	12.32
183.932	42.68
184.151	39.32
184.37	34.69
184.589	47.38
184.808	56.32
185.027	-9.35
185.246	-48.09
185.465	-175.5
185.684	-105.56
185.903	-28.57
186.122	-29.39
186.341	-83.64
186.56	-52.22
186.779	25.8
186.998	-24.53
187.216	5.08
187.435	39.29
187.654	64.77
187.873	121.51
188.092	135.65
188.311	606.58
188.53	263.07
188.748	176.3
188.967	97.33
189.186	47.23
189.405	65.06
189.623	33.99
189.842	34.65
190.061	31.3
190.28	-0.88
190.498	-112.87
190.717	-118.78
190.936	-239.89
191.154	-1430.3
191.373	679.66
191.592	-227.01
191.81	-980
192.029	-588.64
192.248	-11733.33
192.466	550
192.685	242.15
192.904	762.5
193.122	766.15
193.341	1171.43
193.559	-3483.33
193.778	-1396.3
193.996	507.55
194.215	237.04
194.433	202.55
194.652	125
194.87	-226
195.089	-12.15
195.307	48.1
195.526	90.32
195.744	-300
195.963	-88.17
196.181	-98.68
196.399	-61
196.618	-577.27
196.836	-171.72
197.055	-79.21
197.273	-21.51
197.491	-37.72
197.71	26.6
197.928	38.08
198.146	51.73
198.365	55.51
198.583	81.8
198.801	63.43
199.019	60.46
199.238	83.56
199.456	86.7
199.674	79.96
199.892	92.67
200.111	111.26
200.329	109.48
200.547	99.17
200.765	289.47
200.983	57.58
201.202	91.96
201.42	49.8
201.638	115.25
201.856	54.67
202.074	43.57
202.292	-2.7
202.51	63.4
202.728	101.71
202.946	129.68
203.165	-466.67
203.383	-5680
203.601	401.25
203.819	586.21
204.037	-756.76
204.255	1030.77
204.473	-764
204.691	-1160.87
204.909	-432.43
205.127	-226.51
205.345	-345.54
205.562	611.11
205.78	-128.24
205.998	0.3
206.216	20.36
206.434	-15.21
206.652	16.67
206.87	40.73
207.088	37.09
207.306	42.99
207.523	33.94
207.741	30.79
207.959	7.99
208.177	30.98
208.395	8.28
208.612	14.43
208.83	-2.86
209.048	-56.64
209.266	-159.51
209.483	-107.86
209.701	-113.77
209.919	-366.67
210.136	-533.98
210.354	-840.91
210.572	-242.94
210.79	4472.73
211.007	-421.5
211.225	-83.82
211.442	-38.11
211.66	-17.34
211.878	-1.04
212.095	-124.2
212.313	-93.85
212.53	-106.55
212.748	-115.07
212.966	-136.05
213.183	-108.52
213.401	-88.94
213.618	-110.5
213.836	-88.25
214.053	-146.65
214.271	-169.43
214.488	9.26
214.705	-1.95
214.923	3
215.14	-9.36
215.358	-1.66
215.575	-5.62
215.793	-22.73
216.01	-38.7
216.227	-58.11
216.445	-35.48
216.662	-7.04
216.879	-43.4
217.097	-20.04
217.314	-30.3
217.531	-36.83
217.749	-38.4
217.966	-15.38
218.183	-37.32
218.4	-30.65
218.618	-35.59
218.835	-46.85
219.052	-49.72
219.269	-74.8
219.487	-70.83
219.704	-56.46
219.921	-42.84
220.138	-53.41
220.355	-58.38
220.572	-34.49
220.79	-5.17
221.007	-8.38
221.224	0.07
221.441	-8.16
221.658	-5.11
221.875	-9.64
222.092	-9.11
222.309	-6.71
222.526	-2.95
222.743	-1.99
222.96	-3.31
223.177	-15.29
223.394	-5.43
223.611	-5.12
223.828	-0
224.045	-1.23
224.262	4.57
224.479	4.97
224.696	9.27
224.913	9.15
225.13	7.01
225.347	2.92
225.564	7.38
225.781	8.51
225.997	10.16
226.214	5.5
226.431	4.46
226.648	0.06
226.865	1.15
227.082	-1.05
227.298	-0.41
227.515	0
227.732	2.54
227.949	2.46
228.165	-0.25
228.382	-0.62
228.599	0.81
228.816	2.14
229.032	2.02
229.249	1.86
229.466	1.7
229.682	1.05
229.899	1.69
230.116	1.46
230.332	0.46
230.549	1.46
230.765	0.93
230.982	-0.72
231.199	-2.11
231.415	-1.68
231.632	-1.72
231.848	-1
232.065	-1.39
232.281	-2.43
232.498	-3.94
232.714	-1.89
232.931	-0.79
233.147	-1.01
233.364	1.12
233.58	-0.11
233.797	-1.36
234.013	-0.99
234.23	-0.93
234.446	-0.66
234.662	-1.35
234.879	-2.67
235.095	-3.56
235.312	-4.35
235.528	-1.8
235.744	-2.07
235.961	-1.91
236.177	-1.01
236.393	-1.8
236.61	-2.23
236.826	-2.71
237.042	-1.04
237.258	0.88
237.475	0.19
237.691	0.01
237.907	-0.92
238.123	-0.9
238.339	0.09
238.556	2.87
238.772	2.35
238.988	1.3
239.204	2.11
239.42	2.94
239.636	3.91
239.853	5.42
240.069	4.86
240.285	4.57
240.501	4.4
240.717	4.87
240.933	4.82
241.149	4.24
241.365	4.22
241.581	4.36
241.797	4.02
242.013	3.38
242.229	2.61
242.445	2.8
242.661	2.74
242.877	2.5
243.093	1.79
243.309	0.59
243.525	0.84
243.741	1.41
243.957	1.56
244.173	1.32
244.388	2.39
244.604	2.36
244.82	1.97
245.036	2
245.252	2.78
245.468	3.71
245.683	4.24
245.899	4.19
246.115	4.39
246.331	4.3
246.547	4.39
246.762	3.42
246.978	3.76
247.194	4.23
247.409	3.93
247.625	3.68
247.841	3.65
248.057	3.7
248.272	3.63
248.488	3.03
248.703	3.12
248.919	3.05
249.135	3.74
249.35	3.75
249.566	2.79
249.782	2.92
249.997	2.63
250.213	2.21
250.428	1.44
250.644	2.23
250.859	2.09
251.075	1.47
251.29	1.17
251.506	1.45
251.721	1.15
251.937	2.17
252.152	2.15
252.368	2.69
252.583	3.06
252.798	3.27
253.014	2.48
253.229	2.87
253.445	2.91
253.66	3.02
253.875	2.35
254.091	2.53
254.306	2.49
254.521	2.92
254.737	2.05
254.952	1.53
255.167	0.86
255.383	0.91
255.598	0.89
255.813	1.04
256.028	1.21
256.244	1.39
256.459	0.6
256.674	-0.12
256.889	-0.06
257.104	0.22
257.32	0.13
257.535	1.09
257.75	1.15
257.965	1.31
258.18	1.72
258.395	1.79
258.61	1.77
258.826	2.17
259.041	2.07
259.256	2.02
259.471	2.33
259.686	2.27
259.901	1.99
260.116	1.98
260.331	1.89
260.546	1.6
260.761	1.58
260.976	1.61
261.191	1.46
261.406	1.83
261.621	1.85
261.836	1.5
262.05	1.57
262.265	1.29
262.48	1.38
262.695	1.62
262.91	2
263.125	2.03
263.34	1.42
263.555	2.03
263.769	1.36
263.984	1.58
264.199	1.55
264.414	1.2
264.629	1.41
264.843	1.1
265.058	1.06
265.273	0.91
265.488	0.75
265.702	0.8
265.917	-0.03
266.132	0.36
266.346	-0.47
266.561	-0.26
266.776	-0.21
266.99	0.27
267.205	0.6
267.42	0.75
267.634	1.13
267.849	1.3
268.063	1.85
268.278	1.78
268.492	1.58
268.707	2.26
268.922	2.17
269.136	2.48
269.351	2.17
269.565	1.88
269.78	1.74
269.994	1.36
270.209	1.07
270.423	1.04
270.637	1.61
270.852	1.92
271.066	1.62
271.281	1.67
271.495	1.49
271.709	1.8
271.924	2.14
272.138	2.3
272.353	2.32
272.567	2.58
272.781	2.31
272.996	1.92
273.21	2.08
273.424	2.45
273.638	2.25
273.853	2.36
274.067	1.9
274.281	1.63
274.495	1.35
274.71	1.22
274.924	0.86
275.138	0.82
275.352	1.1
275.566	0.75
275.781	0.38
275.995	0.67
276.209	0.6
276.423	0.74
276.637	0.51
276.851	0.45
277.065	0.64
277.279	0.46
277.493	0.42
277.707	0.41
277.921	0.38
278.135	0.73
278.349	0.23
278.563	0.56
278.777	0.52
278.991	0.34
279.205	0.31
279.419	-0.38
279.633	-0.23
279.847	0.09
280.061	0.32
280.275	0.22
280.489	0.21
280.703	0.79
280.917	0.63
281.131	1.01
281.344	1.4
281.558	1.16
281.772	1.62
281.986	1.63
282.2	1.5
282.414	1.07
282.627	0.93
282.841	0.41
283.055	0.34
283.269	0.25
283.482	0.08
283.696	0.08
283.91	0.68
284.123	0.63
284.337	0.73
284.551	0.71
284.764	0.87
284.978	1.28
285.192	1.73
285.405	1.75
285.619	1.78
285.833	1.78
286.046	1.92
286.26	1.67
286.473	1.91
286.687	1.87
286.9	2.03
287.114	1.95
287.327	1.87
287.541	1.57
287.754	1.7
287.968	1.77
288.181	1.86
288.395	1.75
288.608	1.86
288.822	1.54
289.035	1.63
289.248	1.71
289.462	2.18
289.675	2.2
289.889	2.63
290.102	2.36
290.315	2.39
290.529	2.51
290.742	2.48
290.955	2.47
291.169	2.68
291.382	2.73
291.595	2.62
291.808	2.34
292.022	2.01
292.235	1.95
292.448	1.73
292.661	1.99
292.875	1.85
293.088	1.86
293.301	1.81
293.514	1.56
293.727	1.05
293.94	1.16
294.153	1.34
294.367	1.39
294.58	1.42
294.793	1.67
295.006	1.71
295.219	1.76
295.432	1.68
295.645	1.8
295.858	2.06
296.071	2.43
296.284	2.63
296.497	2.61
296.71	2.77
296.923	2.4
297.136	2.5
297.349	2.22
297.562	2.06
297.775	2.34
297.988	2.36
298.201	2.28
298.414	2.27
298.626	2.15
298.839	2.11
299.052	2.15
299.265	2.44
299.478	2.22
299.691	2.55
299.903	2.91
300.116	2.86
300.329	2.99
300.542	3.23
300.755	3.16
300.967	2.64
301.18	2.48
301.393	2.55
301.605	2.41
301.818	2.38
302.031	1.93
302.243	1.94
302.456	1.61
302.669	1.43
302.881	1.19
303.094	1.42
303.307	1.53
303.519	1.7
303.732	1.34
303.944	1.68
304.157	2.03
304.37	2.34
304.582	2.27
304.795	2.73
305.007	2.76
305.22	2.84
305.432	2.72
305.645	3.51
305.857	3.56
306.069	3.94
306.282	3.69
306.494	3.39
306.707	3.33
306.919	3.28
307.132	3.1
307.344	2.96
307.556	3
307.769	3.35
307.981	3.1
308.193	3.17
308.406	3.37
308.618	3.96
308.83	4.08
309.043	4.19
309.255	4.25
309.467	4.33
309.679	4.54
309.892	4.82
310.104	4.89
310.316	4.77
310.528	4.83
310.74	4.79
310.953	4.48
311.165	4.71
311.377	4.58
311.589	4.65
311.801	4.42
312.013	4.21
312.225	4.07
312.437	3.59
312.649	3.67
312.862	3.45
313.074	3.17
313.286	3.34
313.498	3.46
313.71	3.75
313.922	3.71
314.134	3.63
314.346	3.89
314.558	3.67
314.77	3.92
314.982	3.98
315.193	4.04
315.405	4.21
315.617	3.83
315.829	3.4
316.041	3.03
316.253	3.06
316.465	3.25
316.677	3.3
316.888	3.26
317.1	3.29
317.312	3.09
317.524	2.9
317.736	2.85
317.947	3.17
318.159	3.42
318.371	3.82
318.583	3.9
318.794	4.18
319.006	3.92
319.218	3.9
319.43	4.29
319.641	4.27
319.853	4.94
320.064	5.17
320.276	4.75
320.488	4.77
320.699	5.04
320.911	4.85
321.123	4.8
321.334	4.79
321.546	5.06
321.757	4.61
321.969	5.11
322.18	5.04
322.392	4.56
322.603	4.97
322.815	4.69
323.026	4.62
323.238	4.6
323.449	4.71
323.661	5.12
323.872	5.16
324.083	5.25
324.295	4.88
324.506	4.66
324.718	4.69
324.929	4.34
325.14	4.86
325.352	4.86
325.563	5.31
325.774	5.13
325.986	5
326.197	5.11
326.408	5.37
326.62	5.82
326.831	5.84
327.042	6.39
327.253	6.63
327.464	6.34
327.676	6.13
327.887	6.17
328.098	6.12
328.309	6.22
328.52	6.06
328.732	5.81
328.943	5.9
329.154	6.33
329.365	5.8
329.576	6.05
329.787	5.61
329.998	5.62
330.209	5.36
330.42	5.78
330.631	5.52
330.842	5.64
331.053	5.52
331.264	4.8
331.475	4.34
331.686	4.79
331.897	4.15
332.108	5
332.319	5.1
332.53	5
332.741	4.52
332.952	4.82
333.163	4.78
333.374	5.04
333.585	5.58
333.795	5.36
334.006	5.11
334.217	5.57
334.428	5.57
334.639	6
334.849	6.21
335.06	6.63
335.271	6.54
335.482	6.57
335.692	6.76
335.903	6.43
336.114	6.59
336.325	6.57
336.535	6.63
336.746	6.29
336.957	5.65
337.167	5.51
337.378	5.62
337.589	5.35
337.799	5.21
338.01	5.38
338.22	5.65
338.431	5.86
338.642	5.97
338.852	5.81
339.063	6.21
339.273	6.3
339.484	6.26
339.694	6.03
339.905	6.55
340.115	6.63
340.326	6.4
340.536	6.44
340.746	6.21
340.957	6.49
341.167	6.74
341.378	6.56
341.588	6.71
341.799	6.61
342.009	6.52
342.219	6.27
342.43	6.53
342.64	6.13
342.85	5.9
343.061	5.66
343.271	4.95
343.481	4.5
343.691	4.3
343.902	4.31
344.112	4.71
344.322	4.72
344.532	4.69
344.743	4.25
344.953	4.19
345.163	4.21
345.373	4.3
345.583	4.54
345.793	5
346.004	5.17
346.214	5.13
346.424	4.81
346.634	4.99
346.844	4.68
347.054	4.96
347.264	5.52
347.474	5.35
347.684	5.65
347.894	5.88
348.104	5.74
348.314	5.42
348.524	5.67
348.734	5.98
348.944	5.83
349.154	6.27
349.364	6.21
349.574	5.77
349.784	5.9
349.994	5.92
350.204	5.59
350.413	5.38
350.623	5.4
350.833	5.23
351.043	4.89
351.253	4.79
351.463	4.83
351.672	4.83
351.882	5.21
352.092	5.24
352.302	4.95
352.511	5.38
352.721	5.39
352.931	5.21
353.141	5.22
353.35	5.3
353.56	5.26
353.77	4.59
353.979	4.69
354.189	4.72
354.399	4.6
354.608	4.9
354.818	4.83
355.027	4.73
355.237	5.16
355.447	5.32
355.656	5.23
355.866	5.23
356.075	5.73
356.285	5.7
356.494	5.55
356.704	5.75
356.913	5.73
357.123	5.76
357.332	5.87
357.542	5.75
357.751	5.66
357.96	5.72
358.17	5.71
358.379	5.57
358.589	5.42
358.798	5.37
359.007	5.49
359.217	5.38
359.426	5.07
359.635	5.31
359.845	5.29
360.054	5.37
360.263	5.22
360.472	5.39
360.682	5.61
360.891	5.65
361.1	5.57
361.309	5.38
361.519	5.25
361.728	5.3
361.937	5.13
362.146	5.09
362.355	4.7
362.564	4.82
362.774	4.81
362.983	4.76
363.192	4.67
363.401	4.79
363.61	4.85
363.819	5
364.028	4.89
364.237	4.85
364.446	4.82
364.655	5.02
364.864	4.85
365.073	4.54
365.282	4.4
365.491	4.23
365.7	3.96
365.909	3.86
366.118	3.95
366.327	3.93
366.536	4.05
366.745	4.04
366.954	4.06
367.162	4.32
367.371	4.47
367.58	4.2
367.789	4.31
367.998	4.44
368.207	4.19
368.415	4.17
368.624	4.2
368.833	4.03
369.042	4.05
369.25	4.11
369.459	3.77
369.668	4.01
369.877	4.37
370.085	4.56
370.294	4.69
370.503	4.87
370.711	4.57
370.92	4.53
371.129	4.45
371.337	4.28
371.546	4.17
371.754	4.37
371.963	4.17
372.171	4.09
372.38	4.11
372.589	4.22
372.797	4.07
373.006	4
373.214	4.05
373.423	4.22
373.631	4.13
373.84	4.05
374.048	3.84
374.256	3.7
374.465	3.61
374.673	3.35
374.882	3.08
375.09	3.1
375.298	3.08
375.507	2.82
375.715	2.68
375.923	2.89
376.132	2.89
376.34	2.76
376.548	2.9
376.757	2.92
376.965	2.82
377.173	2.64
377.381	2.68
377.59	3.02
377.798	3.15
378.006	3.11
378.214	3.2
378.423	3.25
378.631	3.32
378.839	3.27
379.047	3.44
379.255	3.7
379.463	3.86
379.671	3.88
379.879	3.63
380.088	3.69
380.296	3.9
380.504	3.65
380.712	3.53
380.92	3.69
381.128	3.48
381.336	3.26
381.544	3.2
381.752	2.94
381.96	2.85
382.168	2.87
382.376	3.07
382.584	2.68
382.791	2.7
382.999	2.74
383.207	2.67
383.415	2.88
383.623	2.9
383.831	2.86
384.039	3.15
384.247	3.37
384.454	3.27
384.662	2.93
384.87	3.17
385.078	3.14
385.285	3.02
385.493	2.82
385.701	2.78
385.909	2.67
386.116	2.68
386.324	2.65
386.532	2.38
386.739	2.29
386.947	2.47
387.155	2.4
387.362	2.51
387.57	2.42
387.778	2.54
387.985	2.29
388.193	2.28
388.4	2.13
388.608	2.22
388.816	2.11
389.023	2.33
389.231	2.12
389.438	2.1
389.646	1.95
389.853	2.14
390.061	2.16
390.268	2.32
390.475	2.41
390.683	2.57
390.89	2.33
391.098	2.52
391.305	2.33
391.512	2.49
391.72	2.51
391.927	2.38
392.135	2.33
392.342	2.14
392.549	2.11
392.756	2.14
392.964	1.92
393.171	1.85
393.378	1.78
393.586	1.76
393.793	1.78
394	1.65
394.207	1.98
394.414	2.03
394.622	2.16
394.829	2.13
395.036	1.96
395.243	1.8
395.45	1.9
395.657	2
395.864	2.23
396.072	2.11
396.279	2.2
396.486	1.97
396.693	1.81
396.9	1.66
397.107	1.74
397.314	1.73
397.521	1.96
397.728	1.88
397.935	1.55
398.142	1.3
398.349	1.34
398.556	1.35
398.763	1.5
398.97	1.42
399.177	1.51
399.383	1.4
399.59	1.31
399.797	1.21
400.004	1.13
400.211	1.46
400.418	1.63
400.625	1.54
400.831	1.42
401.038	1.21
401.245	1.33
401.452	1.31
401.658	1.36
401.865	1.47
402.072	1.59
402.279	1.83
402.485	1.58
402.692	1.6
402.899	1.69
403.105	1.76
403.312	1.75
403.519	1.8
403.725	1.83
403.932	1.83
404.138	1.88
404.345	1.96
404.552	1.84
404.758	2.01
404.965	1.91
405.171	1.86
405.378	1.94
405.584	1.91
405.791	1.92
405.997	1.89
406.204	1.99
406.41	2
406.617	1.95
406.823	1.85
407.029	1.82
407.236	1.9
407.442	1.96
407.649	1.82
407.855	1.92
408.061	1.73
408.268	1.69
408.474	1.71
408.68	1.59
408.887	1.6
409.093	1.7
409.299	1.67
409.505	1.68
409.712	1.58
409.918	1.49
410.124	1.56
410.33	1.8
410.537	1.85
410.743	1.97
410.949	2.11
411.155	1.95
411.361	1.78
411.567	1.76
411.773	1.59
411.98	1.67
412.186	1.95
412.392	1.9
412.598	1.63
412.804	1.62
413.01	1.54
413.216	1.39
413.422	1.38
413.628	1.49
413.834	1.56
414.04	1.59
414.246	1.5
414.452	1.23
414.658	1.16
414.864	1.33
415.07	1.37
415.275	1.23
415.481	1.31
415.687	1.35
415.893	1.48
416.099	1.34
416.305	1.42
416.511	1.46
416.716	1.57
416.922	1.57
417.128	1.63
417.334	1.61
417.539	1.54
417.745	1.47
417.951	1.55
418.157	1.47
418.362	1.5
418.568	1.44
418.774	1.47
418.979	1.52
419.185	1.57
419.391	1.52
419.596	1.59
419.802	1.67
420.008	1.74
420.213	2.36
420.419	2.37
420.624	2.44
420.83	2.42
421.035	2.44
421.241	2.42
421.446	2.48
421.652	2.46
421.857	2.39
422.063	2.35
422.268	2.31
422.474	1.7
422.679	1.71
422.885	1.68
423.09	1.72
423.295	1.72
423.501	1.64
423.706	1.57
423.911	1.54
424.117	1.54
424.322	1.52
424.527	1.58
424.733	1.52
424.938	1.54
425.143	1.52
425.349	1.48
425.554	1.41
425.759	1.43
425.964	1.51
426.169	1.56
426.375	1.55
426.58	1.61
426.785	1.56
426.99	1.66
427.195	1.51
427.4	1.45
427.605	1.47
427.811	1.54
428.016	1.48
428.221	1.31
428.426	1.29
428.631	1.3
428.836	1.19
429.041	1.17
429.246	1.11
429.451	1.24
429.656	1.33
429.861	1.35
430.066	1.36
430.271	1.47
430.476	1.46
430.681	1.41
430.886	1.41
431.09	1.41
431.295	1.41
431.5	1.42
431.705	1.32
431.91	1.32
432.115	1.4
432.32	1.38
432.524	1.41
432.729	1.45
432.934	1.46
433.139	1.48
433.343	1.52
433.548	1.4
433.753	1.4
433.958	1.45
434.162	1.44
434.367	1.44
434.572	1.34
434.776	1.39
434.981	1.44
435.186	1.46
435.39	1.52
435.595	1.6
435.799	1.78
436.004	1.81
436.209	1.73
436.413	1.73
436.618	1.73
436.822	1.85
437.027	1.69
437.231	1.64
437.436	1.62
437.64	1.61
437.845	1.52
438.049	1.49
438.253	1.49
438.458	1.61
438.662	1.68
438.867	1.61
439.071	1.57
439.275	1.62
439.48	1.62
439.684	1.68
439.888	1.65
440.093	1.61
440.297	1.55
440.501	1.48
440.706	1.48
440.91	1.46
441.114	1.51
441.318	1.5
441.523	1.49
441.727	1.52
441.931	1.56
442.135	1.51
442.339	1.55
442.543	1.64
442.748	1.71
442.952	1.71
443.156	1.61
443.36	1.51
443.564	1.52
443.768	1.52
443.972	1.51
444.176	1.41
444.38	1.46
444.584	1.56
444.788	1.53
444.992	1.53
445.196	1.5
445.4	1.65
445.604	1.72
445.808	1.7
446.012	1.67
446.216	1.69
446.42	1.69
446.624	1.7
446.828	1.62
447.032	1.58
447.235	1.55
447.439	1.61
447.643	1.49
447.847	1.44
448.051	1.44
448.254	1.45
448.458	1.37
448.662	1.36
448.866	1.36
449.069	1.4
449.273	1.41
449.477	1.41
449.681	1.36
449.884	1.5
450.088	1.58
450.292	1.6
450.495	1.53
450.699	1.58
450.902	1.53
451.106	1.57
451.31	1.52
451.513	1.53
451.717	1.57
451.92	1.64
452.124	1.52
452.327	1.35
452.531	1.42
452.734	1.48
452.938	1.45
453.141	1.49
453.345	1.37
453.548	1.39
453.752	1.29
453.955	1.24
454.158	1.08
454.362	1.08
454.565	1.22
454.769	1.14
454.972	1.11
455.175	1.11
455.379	1.11
455.582	1.27
455.785	1.29
455.988	1.48
456.192	1.5
456.395	1.56
456.598	1.55
456.801	1.5
457.005	1.55
457.208	1.64
457.411	1.7
457.614	1.78
457.817	1.75
458.021	1.64
458.224	1.58
458.427	1.6
458.63	1.57
458.833	1.59
459.036	1.59
459.239	1.59
459.442	1.53
459.645	1.57
459.848	1.52
460.051	1.41
460.254	1.51
460.457	1.49
460.66	1.49
460.863	1.52
461.066	1.49
461.269	1.49
461.472	1.39
461.675	1.47
461.878	1.36
462.081	1.36
462.284	1.42
462.486	1.32
462.689	1.33
462.892	1.34
463.095	1.35
463.298	1.39
463.5	1.37
463.703	1.44
463.906	1.41
464.109	1.4
464.311	1.32
464.514	1.37
464.717	1.43
464.92	1.39
465.122	1.43
465.325	1.41
465.528	1.32
465.73	1.41
465.933	1.51
466.135	1.41
466.338	1.47
466.541	1.56
466.743	1.47
466.946	1.48
467.148	1.57
467.351	1.44
467.553	1.42
467.756	1.43
467.958	1.41
468.161	1.35
468.363	1.41
468.566	1.34
468.768	1.35
468.971	1.43
469.173	1.38
469.375	1.35
469.578	1.39
469.78	1.33
469.983	1.34
470.185	1.38
470.387	1.32
470.59	1.35
470.792	1.34
470.994	1.31
471.196	1.28
471.399	1.25
471.601	1.26
471.803	1.21
472.005	1.21
472.208	1.23
472.41	1.17
472.612	1.26
472.814	1.23
473.016	1.16
473.218	1.17
473.421	1.29
473.623	1.3
473.825	1.32
474.027	1.32
474.229	1.42
474.431	1.5
474.633	1.48
474.835	1.45
475.037	1.44
475.239	1.55
475.441	1.55
475.643	1.45
475.845	1.42
476.047	1.4
476.249	1.48
476.451	1.39
476.653	1.27
476.855	1.22
477.057	1.18
477.258	1.2
477.46	1.2
477.662	1.13
477.864	1.07
478.066	1.09
478.268	1.09
478.469	1.11
478.671	1.16
478.873	1.19
479.075	1.25
479.276	1.24
479.478	1.28
479.68	1.32
479.882	1.35
480.083	1.39
480.285	1.42
480.487	1.39
480.688	1.33
480.89	1.32
481.091	1.32
481.293	1.34
481.495	1.36
481.696	1.38
481.898	1.33
482.099	1.32
482.301	1.33
482.502	1.31
482.704	1.34
482.905	1.35
483.107	1.38
483.308	1.38
483.51	1.37
483.711	1.38
483.913	1.36
484.114	1.35
484.315	1.35
484.517	1.34
484.718	1.37
484.92	1.37
485.121	1.37
485.322	1.35
485.524	1.34
485.725	1.32
485.926	1.3
486.127	1.32
486.329	1.37
486.53	1.39
486.731	1.38
486.932	1.39
487.134	1.36
487.335	1.38
487.536	1.37
487.737	1.4
487.938	1.42
488.139	1.42
488.341	1.42
488.542	1.44
488.743	1.48
488.944	1.51
489.145	1.52
489.346	1.49
489.547	1.47
489.748	1.48
489.949	1.48
490.15	1.47
490.351	1.46
490.552	1.43
490.753	1.37
490.954	1.33
491.155	1.36
491.356	1.33
491.557	1.4
491.758	1.43
491.959	1.44
492.159	1.4
492.36	1.39
492.561	1.38
492.762	1.39
492.963	1.39
493.164	1.41
493.364	1.39
493.565	1.4
493.766	1.32
493.967	1.32
494.167	1.31
494.368	1.36
494.569	1.38
494.769	1.44
494.97	1.47
495.171	1.55
495.371	1.5
495.572	1.46
495.773	1.48
495.973	1.56
496.174	1.5
496.375	1.48
496.575	1.46
496.776	1.51
496.976	1.45
497.177	1.43
497.377	1.41
497.578	1.5
497.778	1.52
497.979	1.53
498.179	1.58
498.38	1.63
498.58	1.71
498.78	1.73
498.981	1.72
499.181	1.76
499.382	1.79
499.582	1.79
499.782	1.72
499.983	1.78
500.183	1.78
500.383	1.71
500.584	1.63
500.784	1.62
500.984	1.63
501.184	1.57
501.385	1.62
501.585	1.65
501.785	1.59
501.985	1.67
502.185	1.57
502.386	1.55
502.586	1.59
502.786	1.63
502.986	1.57
503.186	1.58
503.386	1.61
503.586	1.64
503.786	1.6
503.987	1.66
504.187	1.57
504.387	1.6
504.587	1.58
504.787	1.56
504.987	1.66
505.187	1.72
505.387	1.78
505.587	1.81
505.786	1.78
505.986	1.89
506.186	1.89
506.386	1.97
506.586	2.03
506.786	2.09
506.986	2.13
507.186	2.07
507.386	2.03
507.585	1.97
507.785	1.95
507.985	2
508.185	1.96
508.384	1.95
508.584	1.98
508.784	2.05
508.984	2.01
509.183	2.02
509.383	2.07
509.583	2.14
509.782	2.19
509.982	2.26
510.182	2.32
510.381	2.36
510.581	2.46
510.781	2.48
510.98	2.45
511.18	2.55
511.379	2.63
511.579	2.63
511.778	2.72
511.978	2.79
512.177	2.84
512.377	2.84
512.576	2.86
512.776	2.88
512.975	2.9
513.175	2.89
513.374	2.91
513.573	2.85
513.773	2.87
513.972	2.91
514.172	2.89
514.371	2.88
514.57	2.84
514.77	2.91
514.969	2.86
515.168	2.88
515.367	2.96
515.567	2.91
515.766	3.04
515.965	3
516.164	2.94
516.364	2.98
516.563	3.05
516.762	3.22
516.961	3.24
517.16	3.3
517.359	3.35
517.559	3.47
517.758	3.57
517.957	3.6
518.156	3.69
518.355	3.74
518.554	3.77
518.753	3.82
518.952	3.84
519.151	3.91
519.35	3.99
519.549	4.08
519.748	4.11
519.947	4.2
520.146	4.25
520.345	4.33
520.544	4.4
520.743	4.53
520.942	4.67
521.141	4.76
521.339	4.82
521.538	4.9
521.737	4.98
521.936	4.94
522.135	5.03
522.333	5.12
522.532	5.2
522.731	5.34
522.93	5.42
523.129	5.48
523.327	5.47
523.526	5.57
523.725	5.7
523.923	5.76
524.122	5.95
524.321	5.99
524.519	6.06
524.718	6.17
524.917	6.32
525.115	6.4
525.314	6.48
525.512	6.64
525.711	6.72
525.909	6.82
526.108	6.94
526.306	6.97
526.505	7.08
526.703	7.21
526.902	7.32
527.1	7.35
527.299	7.48
527.497	7.55
527.696	7.6
527.894	7.65
528.092	7.72
528.291	7.74
528.489	7.84
528.688	7.93
528.886	7.99
529.084	8.05
529.283	8.11
529.481	8.15
529.679	8.21
529.877	8.3
530.076	8.39
530.274	8.46
530.472	8.64
530.67	8.74
530.869	8.86
531.067	8.97
531.265	9.07
531.463	9.25
531.661	9.37
531.859	9.56
532.057	9.63
532.255	9.8
532.454	9.91
532.652	9.97
532.85	10.05
533.048	10.09
533.246	10.15
533.444	10.23
533.642	10.27
533.84	10.35
534.038	10.38
534.236	10.49
534.434	10.54
534.632	10.6
534.83	10.68
535.027	10.82
535.225	10.95
535.423	11.07
535.621	11.2
535.819	11.39
536.017	11.5
536.215	11.65
536.412	11.79
536.61	11.91
536.808	12.05
537.006	12.21
537.203	12.29
537.401	12.45
537.599	12.6
537.797	12.76
537.994	12.9
538.192	13.12
538.39	13.27
538.587	13.47
538.785	13.66
538.983	13.94
539.18	14.2
539.378	14.51
539.575	14.79
539.773	15.05
539.97	15.32
540.168	15.46
540.366	15.62
540.563	15.74
540.761	15.92
540.958	16.02
541.155	16.15
541.353	16.26
541.55	16.37
541.748	16.47
541.945	16.56
542.143	16.63
542.34	16.8
542.537	16.91
542.735	17.13
542.932	17.28
543.129	17.56
543.327	17.82
543.524	18.09
543.721	18.45
543.919	18.87
544.116	19.29
544.313	19.72
544.51	20.24
544.708	20.74
544.905	21.2
545.102	21.69
545.299	22.11
545.496	22.39
545.693	22.63
545.891	22.67
546.088	22.54
546.285	22.52
546.482	22.4
546.679	22.16
546.876	21.96
547.073	21.76
547.27	21.37
547.467	21.11
547.664	20.85
547.861	20.71
548.058	20.5
548.255	20.46
548.452	20.31
548.649	20.29
548.846	20.18
549.043	20.13
549.24	20.05
549.437	20.1
549.633	20.01
549.83	19.95
550.027	19.86
550.224	19.85
550.421	19.74
550.618	19.66
550.814	19.53
551.011	19.48
551.208	19.32
551.405	19.19
551.601	19.03
551.798	18.94
551.995	18.89
552.191	18.85
552.388	18.87
552.585	18.83
552.781	18.74
552.978	18.67
553.175	18.7
553.371	18.75
553.568	18.84
553.764	18.86
553.961	18.83
554.157	18.86
554.354	18.71
554.55	18.59
554.747	18.64
554.943	18.63
555.14	18.63
555.336	18.58
555.533	18.54
555.729	18.5
555.926	18.56
556.122	18.55
556.318	18.54
556.515	18.55
556.711	18.64
556.907	18.56
557.104	18.67
557.3	18.62
557.496	18.64
557.693	18.7
557.889	18.75
558.085	18.71
558.281	18.72
558.478	18.66
558.674	18.76
558.87	18.68
559.066	18.71
559.262	18.69
559.459	18.82
559.655	18.84
559.851	18.89
560.047	18.84
560.243	18.92
560.439	19
560.635	19.11
560.831	19.01
561.027	19.07
561.223	19.18
561.419	19.14
561.615	19.17
561.811	19.25
562.007	19.22
562.203	19.11
562.399	19.13
562.595	19.16
562.791	19.12
562.987	19.26
563.183	19.33
563.379	19.34
563.575	19.51
563.771	19.43
563.966	19.42
564.162	19.36
564.358	19.49
564.554	19.47
564.75	19.54
564.945	19.59
565.141	19.59
565.337	19.55
565.533	19.54
565.728	19.42
565.924	19.5
566.12	19.47
566.315	19.54
566.511	19.56
566.707	19.61
566.902	19.65
567.098	19.65
567.293	19.65
567.489	19.66
567.684	19.66
567.88	19.79
568.076	19.88
568.271	20
568.467	20.12
568.662	20.07
568.858	20.17
569.053	20.08
569.248	20.15
569.444	20.18
569.639	20.16
569.835	20.2
570.03	20.21
570.225	20.18
570.421	20.09
570.616	19.98
570.812	20.07
571.007	20.04
571.202	20.14
571.397	20.24
571.593	20.26
571.788	20.38
571.983	20.35
572.178	20.37
572.374	20.41
572.569	20.47
572.764	20.56
572.959	20.59
573.154	20.48
573.35	20.39
573.545	20.38
573.74	20.43
573.935	20.47
574.13	20.54
574.325	20.64
574.52	20.8
574.715	20.91
574.91	20.97
575.105	21.18
575.3	21.42
575.495	21.69
575.69	21.8
575.885	21.95
576.08	22.12
576.275	22.3
576.47	22.49
576.665	22.55
576.86	22.73
577.055	22.9
577.25	23
577.444	23.23
577.639	23.33
577.834	23.53
578.029	23.64
578.224	23.72
578.418	23.86
578.613	23.99
578.808	24.13
579.003	24.11
579.197	24.16
579.392	24.04
579.587	23.93
579.781	23.91
579.976	23.84
580.171	23.86
580.365	23.69
580.56	23.55
580.755	23.43
580.949	23.45
581.144	23.64
581.338	23.69
581.533	23.81
581.727	23.94
581.922	23.98
582.116	24.1
582.311	24.15
582.505	24.44
582.7	24.47
582.894	24.56
583.089	24.49
583.283	24.47
583.478	24.48
583.672	24.32
583.866	24.42
584.061	24.58
584.255	24.64
584.449	24.79
584.644	24.74
584.838	25.04
585.032	25.17
585.226	25.38
585.421	25.43
585.615	25.68
585.809	25.95
586.003	26.07
586.198	26.08
586.392	26.1
586.586	26.08
586.78	26.24
586.974	26.07
587.168	26.02
587.363	25.9
587.557	25.7
587.751	25.54
587.945	25.41
588.139	25.29
588.333	25.14
588.527	24.88
588.721	24.69
588.915	24.5
589.109	24.53
589.303	24.39
589.497	24.37
589.691	24.48
589.885	24.43
590.079	24.48
590.273	24.49
590.466	24.59
590.66	24.7
590.854	24.92
591.048	25.17
591.242	25.36
591.436	25.57
591.629	25.69
591.823	25.83
592.017	25.82
592.211	25.96
592.404	26.08
592.598	26.22
592.792	26.34
592.986	26.36
593.179	26.25
593.373	25.93
593.567	25.79
593.76	25.61
593.954	25.47
594.147	25.45
594.341	25.24
594.535	24.95
594.728	24.64
594.922	24.43
595.115	24.21
595.309	24.04
595.502	24.08
595.696	24
595.889	23.96
596.083	23.98
596.276	23.98
596.47	23.96
596.663	23.91
596.856	23.94
597.05	23.92
597.243	23.98
597.437	24.06
597.63	24.2
597.823	24.36
598.017	24.43
598.21	24.49
598.403	24.53
598.596	24.63
598.79	24.89
598.983	25.08
599.176	25.37
599.369	25.49
599.563	25.56
599.756	25.39
599.949	25.27
600.142	25.28
600.335	25.21
600.528	25.19
600.722	25.11
600.915	24.94
601.108	24.82
601.301	24.55
601.494	24.5
601.687	24.34
601.88	24.41
602.073	24.3
602.266	24.12
602.459	24.01
602.652	23.89
602.845	23.74
603.038	23.57
603.231	23.51
603.424	23.55
603.617	23.44
603.809	23.39
604.002	23.32
604.195	23.22
604.388	23.35
604.581	23.46
604.774	23.49
604.966	23.64
605.159	23.85
605.352	23.86
605.545	23.88
605.737	23.99
605.93	24.19
606.123	24.3
606.316	24.63
606.508	24.79
606.701	24.96
606.894	25.3
607.086	25.56
607.279	25.95
607.471	26.44
607.664	26.91
607.857	27.39
608.049	27.97
608.242	29.01
608.434	30.12
608.627	31.36
608.819	32.94
609.012	34.67
609.204	36.71
609.397	38.73
609.589	40.97
609.782	43.44
609.974	46.05
610.166	48.85
610.359	51.36
610.551	53.71
610.743	55.94
610.936	57.68
611.128	59.11
611.32	60.01
611.513	60.51
611.705	60.65
611.897	60.52
612.09	59.75
612.282	58.74
612.474	57.4
612.666	55.75
612.858	54.24
613.051	52.64
613.243	51.15
613.435	49.8
613.627	48.56
613.819	47.38
614.011	45.95
614.203	44.81
614.395	43.56
614.588	42.27
614.78	41.09
614.972	39.78
615.164	38.59
615.356	37.53
615.548	36.57
615.74	35.59
615.932	34.54
616.124	33.78
616.315	32.98
616.507	32.04
616.699	31.43
616.891	31.1
617.083	30.51
617.275	30.11
617.467	29.65
617.659	29.1
617.85	29.01
618.042	28.74
618.234	28.53
618.426	28.25
618.618	28.02
618.809	27.78
619.001	27.57
619.193	27.71
619.384	27.6
619.576	27.51
619.768	27.5
619.959	27.23
620.151	27.33
620.343	27.18
620.534	27.27
620.726	27.23
620.917	27.41
621.109	27.42
621.301	27.32
621.492	27.31
621.684	27.4
621.875	27.53
622.067	27.62
622.258	27.77
622.45	27.91
622.641	28.08
622.832	28.38
623.024	28.49
623.215	28.63
623.407	28.63
623.598	28.9
623.789	28.92
623.981	28.83
624.172	28.68
624.363	28.6
624.555	28.66
624.746	28.52
624.937	28.41
625.129	28.29
625.32	28.17
625.511	28.27
625.702	28.09
625.893	27.96
626.085	28
626.276	28.02
626.467	27.82
626.658	27.82
626.849	27.67
627.04	27.63
627.231	27.61
627.422	27.63
627.614	27.58
627.805	27.74
627.996	27.99
628.187	28.18
628.378	28.35
628.569	28.64
628.76	28.74
628.951	29.22
629.142	29.59
629.332	29.82
629.523	30.16
629.714	30.37
629.905	30.63
630.096	30.8
630.287	30.92
630.478	31.08
630.669	31.16
630.859	30.98
631.05	30.7
631.241	30.39
631.432	29.99
631.623	29.64
631.813	29.35
632.004	28.71
632.195	28.17
632.385	27.75
632.576	27.28
632.767	26.74
632.957	26.55
633.148	26.28
633.339	26.08
633.529	26
633.72	25.87
633.91	25.59
634.101	25.5
634.292	25.44
634.482	25.44
634.673	25.27
634.863	25.18
635.054	25.13
635.244	25.01
635.435	24.99
635.625	24.85
635.815	24.8
636.006	24.73
636.196	24.7
636.387	24.56
636.577	24.48
636.767	24.52
636.958	24.46
637.148	24.32
637.338	24.25
637.529	24.15
637.719	24.4
637.909	24.18
638.099	24.3
638.29	24.39
638.48	24.43
638.67	24.36
638.86	24.37
639.05	24.28
639.241	24.32
639.431	24.23
639.621	24.31
639.811	24.32
640.001	24.42
640.191	24.24
640.381	24.16
640.571	24.2
640.761	24.09
640.951	24.31
641.141	24.47
641.331	24.55
641.521	24.7
641.711	24.55
641.901	24.35
642.091	24.29
642.281	24.52
642.471	24.59
642.661	24.64
642.851	24.81
643.041	24.59
643.231	24.54
643.42	24.55
643.61	24.71
643.8	24.74
643.99	24.71
644.18	24.79
644.369	24.67
644.559	24.66
644.749	24.75
644.939	24.77
645.128	24.87
645.318	24.97
645.508	24.79
645.697	24.68
645.887	24.8
646.076	24.81
646.266	24.68
646.456	24.76
646.645	24.73
646.835	24.54
647.024	24.49
647.214	24.54
647.403	24.65
647.593	24.91
647.782	24.93
647.972	25.03
648.161	25.33
648.351	25.82
648.54	25.99
648.73	26.28
648.919	26.35
649.108	26.39
649.298	26.58
649.487	26.67
649.677	26.74
649.866	26.93
650.055	26.88
650.244	26.95
650.434	26.71
650.623	26.7
650.812	26.55
651.002	26.48
651.191	26.53
651.38	26.21
651.569	26.07
651.758	26
651.947	26.07
652.137	26.01
652.326	25.74
652.515	25.59
652.704	25.44
652.893	25.46
653.082	25.69
653.271	25.85
653.46	25.87
653.649	25.84
653.838	25.81
654.027	25.78
654.216	25.84
654.405	25.83
654.594	25.85
654.783	25.6
654.972	25.56
655.161	25.44
655.35	25.2
655.539	25.16
655.728	25.04
655.916	24.82
656.105	24.61
656.294	24.4
656.483	24.51
656.672	24.55
656.86	24.9
657.049	24.82
657.238	24.82
657.427	24.78
657.615	24.79
657.804	24.8
657.993	24.8
658.181	24.73
658.37	24.62
658.559	24.4
658.747	24.48
658.936	24.4
659.125	24.73
659.313	24.75
659.502	24.65
659.69	24.66
659.879	24.59
660.067	24.73
660.256	24.84
660.444	25.06
660.633	25.24
660.821	25.06
661.01	25.08
661.198	24.71
661.387	24.67
661.575	24.77
661.763	24.82
661.952	25.07
662.14	24.99
662.328	25.07
662.517	25.15
662.705	25.02
662.893	25.13
663.082	25.05
663.27	25.02
663.458	24.99
663.646	25.16
663.834	24.98
664.023	24.95
664.211	24.99
664.399	24.86
664.587	24.88
664.775	24.85
664.963	24.9
665.152	24.77
665.34	25.15
665.528	25.18
665.716	25.06
665.904	25.23
666.092	25.07
666.28	25.17
666.468	25.18
666.656	24.97
666.844	25.17
667.032	25.35
667.22	25.54
667.408	25.33
667.596	25.34
667.784	25.29
667.971	25.06
668.159	25.16
668.347	25.1
668.535	25.08
668.723	24.9
668.911	24.63
669.098	24.44
669.286	24.59
669.474	24.22
669.662	24.05
669.849	24.1
670.037	24.45
670.225	24.54
670.413	24.59
670.6	24.52
670.788	24.67
670.976	24.78
671.163	24.81
671.351	24.82
671.538	25.04
671.726	25.17
671.913	25.09
672.101	24.69
672.289	24.75
672.476	24.78
672.664	24.8
672.851	24.77
673.039	24.73
673.226	24.56
673.413	24.46
673.601	24.57
673.788	24.56
673.976	24.52
674.163	24.99
674.35	24.77
674.538	24.67
674.725	24.67
674.912	24.56
675.1	24.69
675.287	24.7
675.474	24.44
675.662	24.32
675.849	24.26
676.036	24.34
676.223	24.15
676.411	24.37
676.598	24.43
676.785	24.38
676.972	24.48
677.159	24.47
677.346	24.53
677.533	24.55
677.721	24.4
677.908	24.59
678.095	24.75
678.282	24.62
678.469	24.45
678.656	24.6
678.843	24.62
679.03	24.62
679.217	24.6
679.404	24.86
679.591	24.87
679.778	25.04
679.964	24.88
680.151	24.64
680.338	24.86
680.525	24.8
680.712	24.55
680.899	24.66
681.086	24.94
681.272	24.88
681.459	24.58
681.646	24.72
681.833	24.83
682.02	24.8
682.206	24.79
682.393	24.64
682.58	24.75
682.766	24.76
682.953	24.86
683.14	24.42
683.326	24.45
683.513	24.44
683.7	24.27
683.886	24.04
684.073	24.05
684.259	24
684.446	24.21
684.632	24.33
684.819	24.5
685.005	24.52
685.192	25.09
685.378	25.2
685.565	25.38
685.751	25.58
685.938	25.87
686.124	26.1
686.31	26.52
686.497	26.76
686.683	26.69
686.87	26.72
687.056	26.41
687.242	26.21
687.429	26.25
687.615	26.38
687.801	26.59
687.987	26.66
688.174	26.54
688.36	26.6
688.546	26.3
688.732	26.23
688.918	26.26
689.105	26.46
689.291	26.45
689.477	26.47
689.663	26.28
689.849	26
690.035	25.87
690.221	25.73
690.407	25.46
690.593	25.25
690.779	25.3
690.965	25.07
691.151	24.68
691.337	24.67
691.523	24.63
691.709	24.92
691.895	24.93
692.081	24.85
692.267	24.91
692.453	25.16
692.639	25.36
692.825	25.58
693.011	25.59
693.196	25.79
693.382	25.97
693.568	25.87
693.754	25.39
693.94	25.46
694.125	25.55
694.311	25.47
694.497	25.4
694.682	25.32
694.868	25.08
695.054	25.29
695.239	25.57
695.425	25.19
695.611	25.44
695.796	25.7
695.982	25.63
696.168	25.32
696.353	25.3
696.539	24.85
696.724	24.74
696.91	24.66
697.095	24.18
697.281	24.21
697.466	24.33
697.652	24.16
697.837	24.03
698.023	23.92
698.208	24.19
698.393	24.14
698.579	24.42
698.764	24.29
698.949	24.22
699.135	24.45
699.32	24.31
699.505	24.35
699.691	24.22
699.876	24.33
700.061	24.39
700.246	24.1
700.432	24.24
700.617	24.15
700.802	24.43
700.987	24.43
701.172	24.61
701.358	24.53
701.543	24.2
701.728	24.35
701.913	24.22
702.098	24.44
702.283	24.62
702.468	24.64
702.653	24.65
702.838	24.49
703.023	24.83
703.208	24.95
703.393	25.02
703.578	25.35
703.763	25.54
703.948	26.22
704.133	26.29
704.318	26.86
704.503	27.07
704.688	27.76
704.873	28.33
705.057	28.62
705.242	29.11
705.427	29.76
705.612	30.51
705.797	30.99
705.981	31.21
706.166	31.68
706.351	32.01
706.536	32.45
706.72	32.5
706.905	32.78
707.09	33.16
707.274	33.33
707.459	33.3
707.644	33.35
707.828	33.43
708.013	33.59
708.197	33.38
708.382	32.91
708.567	32.71
708.751	32.53
708.936	32.58
709.12	32.12
709.305	31.76
709.489	31.95
709.673	31.46
709.858	31.19
710.042	30.81
710.227	30.92
710.411	30.87
710.596	30.94
710.78	30.85
710.964	30.65
711.149	30.68
711.333	30.55
711.517	30.33
711.702	30.68
711.886	30.56
712.07	30.48
712.254	30.2
712.438	30.31
712.623	30.3
712.807	30.22
712.991	29.63
713.175	29.33
713.359	29.03
713.544	28.55
713.728	27.74
713.912	27.25
714.096	26.89
714.28	26.81
714.464	26.27
714.648	25.7
714.832	25.19
715.016	25.4
715.2	25.36
715.384	25.11
715.568	25.26
715.752	25.06
715.936	25.11
716.12	24.88
716.304	24.69
716.488	24.74
716.671	24.52
716.855	24.55
717.039	24.27
717.223	23.92
717.407	23.73
717.59	23.11
717.774	23.76
717.958	24.2
718.142	24.09
718.325	24.28
718.509	24.07
718.693	24.24
718.877	24.19
719.06	24.12
719.244	24.22
719.428	24.07
719.611	24.46
719.795	24.1
719.978	23.26
720.162	23.43
720.345	23.03
720.529	23.13
720.713	22.73
720.896	22.82
721.08	22.81
721.263	23.01
721.446	23.19
721.63	22.9
721.813	23.12
721.997	23.35
722.18	23.03
722.364	23.19
722.547	23.23
722.73	23.77
722.914	23.95
723.097	23.44
723.28	22.82
723.464	23.07
723.647	22.94
723.83	22.43
724.013	22.4
724.197	22.41
724.38	22.15
724.563	22.52
724.746	22.34
724.929	22.02
725.112	22.5
725.296	23.32
725.479	23.38
725.662	23.84
725.845	23.86
726.028	23.84
726.211	24.59
726.394	24.79
726.577	24.47
726.76	25.02
726.943	25.29
727.126	25.17
727.309	24.95
727.492	25.03
727.675	25.06
727.858	24.9
728.041	25.3
728.224	25.08
728.407	24.9
728.589	25.2
728.772	24.72
728.955	24.45
729.138	24.82
729.321	24.94
729.503	25
729.686	25.07
729.869	25.37
730.052	25.15
730.234	24.87
730.417	25.11
730.6	24.48
730.782	24.55
730.965	24.85
731.148	24.83
731.33	24.69
731.513	24.38
731.695	24.34
731.878	24.84
732.061	24.95
732.243	25.04
732.426	25.07
732.608	25.18
732.791	25.19
732.973	25.21
733.156	25.32
733.338	25.17
733.52	24.98
733.703	24.86
733.885	24.45
734.068	24.17
734.25	24.15
734.432	24.41
734.615	24.77
734.797	24.54
734.979	24.29
735.162	24.22
735.344	24.38
735.526	24.76
735.708	24.98
735.891	24.65
736.073	24.59
736.255	24.28
736.437	23.1
736.619	23.01
736.802	23.49
736.984	23.79
737.166	23.22
737.348	23.12
737.53	23.07
737.712	22.93
737.894	23.03
738.076	23.58
738.258	23.87
738.44	24.9
738.622	24.71
738.804	24.52
738.986	24.2
739.168	24.74
739.35	25.36
739.532	25.25
739.714	25.33
739.896	25.51
740.078	25.39
740.259	25.51
740.441	25.47
740.623	25.6
740.805	25.96
740.987	25.88
741.168	25.33
741.35	24.57
741.532	24.94
741.714	24.44
741.895	24.53
742.077	24.35
742.259	24.39
742.44	24.13
742.622	24.27
742.804	23.94
742.985	23.78
743.167	23.78
743.348	24.51
743.53	23.49
743.711	23.98
743.893	23.76
744.075	23.94
744.256	23.38
744.438	23.16
744.619	23.65
744.8	23.78
744.982	24.2
745.163	24.33
745.345	24.53
745.526	25.51
745.707	25.62
745.889	25.2
746.07	25.41
746.252	25.65
746.433	25.97
746.614	25.11
746.795	24.65
746.977	24.42
747.158	24.73
747.339	24.06
747.52	23.69
747.702	23.16
747.883	23.95
748.064	23.6
748.245	23.25
748.426	22.91
748.607	23.18
748.788	23.79
748.97	23.11
749.151	22.72
749.332	22.86
749.513	23.6
749.694	24.3
749.875	23.89
750.056	24.26
750.237	24.54
750.418	24.55
750.599	24.91
750.78	24.36
750.96	25.13
751.141	24.96
751.322	24.47
751.503	23.66
751.684	23.56
751.865	23.64
752.046	22.97
752.226	23.42
752.407	23.42
752.588	22.64
752.769	22.61
752.949	22.11
753.13	22.3
753.311	22.07
753.492	21.57
753.672	21.2
753.853	21.15
754.034	21.37
754.214	21.53
754.395	21.75
754.575	22.06
754.756	22.11
754.937	22.37
755.117	22.97
755.298	23.84
755.478	24.4
755.659	24.44
755.839	24.76
756.02	24.38
756.2	23.75
756.381	22.87
756.561	22.7
756.741	22.11
756.922	21.97
757.102	21.5
757.283	21.22
757.463	21.41
757.643	22.14
757.823	21.67
758.004	21.6
758.184	21.69
758.364	22.46
758.545	22.8
758.725	23.29
758.905	23.24
759.085	23.51
759.265	23.28
759.446	23.29
759.626	22.63
759.806	22.58
759.986	22.49
760.166	22.27
760.346	21.65
760.526	21.65
760.706	21.71
760.886	22.01
761.066	21.27
761.246	21.79
761.426	22.24
761.606	22.06
761.786	22.15
761.966	22.24
762.146	22.53
762.326	23.23
762.506	22.96
762.686	22.88
762.866	22.8
763.046	23.46
763.225	23.07
763.405	22.66
763.585	22.74
763.765	22.89
763.945	23.38
764.124	23.15
764.304	22.9
764.484	23.38
764.664	23.66
764.843	23.48
765.023	23.3
765.203	23.42
765.382	23.19
765.562	23.18
765.741	23.51
765.921	23.66
766.101	24.07
766.28	24.25
766.46	23.76
766.639	23.69
766.819	24.04
766.998	24.3
767.178	23.95
767.357	24.52
767.537	24.42
767.716	23.95
767.896	23.24
768.075	22.71
768.254	22.08
768.434	22.53
768.613	22.85
768.792	23.21
768.972	22.46
769.151	23.54
769.33	22.78
769.51	23.23
769.689	23.8
769.868	24.52
770.047	25.1
770.226	26.83
770.406	26.41
770.585	25.96
770.764	25.33
770.943	25.63
771.122	24.65
771.301	24.79
771.48	24.64
771.66	24
771.839	23.17
772.018	22.73
772.197	20.57
772.376	20.36
772.555	20.28
772.734	20.53
772.913	21.14
773.092	21.04
773.271	21.68
773.449	20.9
773.628	20.37
773.807	20.83
773.986	20.87
774.165	21.62
774.344	21.67
774.523	22.3
774.701	22.43
774.88	21.61
775.059	22.22
775.238	22.26
775.417	21.96
775.595	22.64
775.774	22.51
775.953	22.1
776.131	22.05
776.31	21.96
776.489	21.51
776.667	21.9
776.846	21.5
777.025	20.79
777.203	19.97
777.382	20.15
777.56	21
777.739	21.41
777.917	21.43
778.096	22.3
778.274	21.55
778.453	20.65
778.631	20.6
778.81	20.82
778.988	22.03
779.166	22.41
779.345	23.34
779.523	22.04
779.702	21.07
779.88	21.34
780.058	20.28
780.237	21.2
780.415	21.29
780.593	21
780.771	21.81
780.95	21.4
781.128	21.13
781.306	21.18
781.484	21.04
781.662	21.87
781.841	21.99
782.019	22.4
782.197	22.24
782.375	22.93
782.553	23.03
782.731	22.86
782.909	22.4
783.087	22.9
783.265	21.87
783.443	22.7
783.621	22.25
783.799	22.81
783.977	21.8
784.155	22.2
784.333	22.03
784.511	22.18
784.689	22.34
784.867	22.58
785.045	22.09
785.223	22.18
785.4	22.12
785.578	20.96
785.756	20.38
785.934	21.59
786.112	21.2
786.289	21.59
786.467	20.77
786.645	20.31
786.823	19.04
787	19.6
787.178	19.36
787.356	19.07
787.533	20.16
787.711	20.3
787.889	19.84
788.066	19.75
788.244	19.72
788.421	20.09
788.599	20.38
788.776	21.31
788.954	21.24
789.131	22.66
789.309	22.27
789.486	21.88
789.664	21.74
789.841	21.42
790.019	21.43
790.196	20.99
790.373	20.43
790.551	20.64
790.728	19.85
790.906	19.85
791.083	18.74
791.26	18.53
791.437	18.93
791.615	18.52
791.792	19.18
791.969	18.87
792.146	18.85
792.324	19.86
792.501	18.48
792.678	19.78
792.855	20.07
793.032	20.68
793.209	21.61
793.387	22.15
793.564	22.67
793.741	22.9
793.918	23.42
794.095	23.42
794.272	22.88
794.449	24.23
794.626	23.45
794.803	23.53
794.98	22.71
795.157	22.26
795.334	21.95
795.511	22.06
795.688	21.71
795.864	21.97
796.041	21.56
796.218	21.35
796.395	20.01
796.572	20.29
796.749	19
796.925	18.63
797.102	19.1
797.279	19.45
797.456	19.93
797.632	20.77
797.809	19.96
797.986	20.72
798.162	20.79
798.339	20.99
798.516	21.58
798.692	22.69
798.869	23.83
799.046	24.24
799.222	23.26
799.399	23.04
799.575	21.71
799.752	22.33
799.928	21.66
800.105	21.05
800.281	22.01
800.458	21.9
800.634	22.23
800.811	21.95
800.987	20.76
801.163	20.61
801.34	20.04
801.516	19.97
801.692	19.58
801.869	21.13
802.045	22.58
802.221	22.71
802.398	21.81
802.574	21.81
802.75	22.01
802.926	21.59
803.103	22.59
803.279	22.06
803.455	22.95
803.631	22.12
803.807	21.28
803.983	20.34
804.16	19.96
804.336	19.82
804.512	18.36
804.688	16.72
804.864	17.88
805.04	17.35
805.216	17.96
805.392	18.89
805.568	20.68
805.744	19.78
805.92	21.98
806.096	23.01
806.272	23.86
806.448	24.21
806.623	27.57
806.799	26.05
806.975	27.4
807.151	28.02
807.327	25.7
807.503	24.8
807.678	25.63
807.854	24.18
808.03	22.73
808.206	23.59
808.381	24.53
808.557	22.7
808.733	22.63
808.908	21.5
809.084	20.55
809.26	22.31
809.435	21.7
809.611	22.25
809.787	22.15
809.962	22.59
810.138	22.27
810.313	23.03
810.489	23.22
810.664	24.22
810.84	23.4
811.015	23.91
811.191	24.63
811.366	25.95
811.542	24.86
811.717	23.7
811.892	24.39
812.068	23.03
812.243	21.92
812.419	22.72
812.594	21.61
812.769	22.96
812.944	22.97
813.12	21.59
813.295	21.21
813.47	22.16
813.645	22.91
813.821	21.58
813.996	22.94
814.171	22.89
814.346	21.28
814.521	22.69
814.697	21.73
814.872	22.4
815.047	21.15
815.222	20.98
815.397	20.5
815.572	21.02
815.747	22.01
815.922	20.62
816.097	20.55
816.272	21.85
816.447	19.93
816.622	20.02
816.797	19.1
816.972	20.38
817.147	21.29
817.322	20.4
817.496	19.45
817.671	18.68
817.846	18.95
818.021	19.47
818.196	19.93
818.371	22.1
818.545	22.31
818.72	23.18
818.895	23.32
819.069	21.75
819.244	23
819.419	23.39
819.594	23.09
819.768	23.3
819.943	22.54
820.117	21.99
820.292	21.63
820.467	22.08
820.641	21.11
820.816	21.34
820.99	21.89
821.165	21.75
821.339	21.66
821.514	21.74
821.688	21.92
821.863	21.93
822.037	21.73
822.212	21.69
822.386	21.73
822.56	22.08
822.735	21.97
822.909	22.02
823.084	22.07
823.258	21.97
823.432	21.81
823.606	21.77
823.781	21.72
823.955	21.74
824.129	21.78
824.303	21.73
824.478	21.47
824.652	21.7
824.826	21.44
825	21.48
825.174	21.86
825.348	22.16
825.523	22.15
825.697	22.47
825.871	22.16
826.045	22.24
826.219	21.88
826.393	22.02
826.567	21.92
826.741	22.02
826.915	21.5
827.089	21.31
827.263	21.36
827.437	21.37
827.611	21
827.784	21.47
827.958	21.09
828.132	21.22
828.306	21.45
828.48	21.6
828.654	21.84
828.827	22.04
829.001	22.38
829.175	21.99
829.349	21.34
829.522	21.7
829.696	21.44
829.87	22.34
830.044	21.6
830.217	21.07
830.391	19.85
830.565	20.03
830.738	19.86
830.912	19.23
831.085	20.51
831.259	20.65
831.432	19.53
831.606	20.57
831.779	19.49
831.953	20.28
832.126	20.15
832.3	21.48
832.473	20.86
832.647	21.55
832.82	21.42
832.994	21.46
833.167	21.88
833.34	22.64
833.514	21.83
833.687	21.97
833.86	21.73
834.034	22.22
834.207	21.09
834.38	21.31
834.553	20.77
834.727	20.86
834.9	20.51
835.073	20.73
835.246	20.99
835.419	21.12
835.593	21.05
835.766	21.48
835.939	20.34
836.112	21.29
836.285	20.38
836.458	20.52
836.631	20.91
836.804	20.46
836.977	19.12
837.15	17.86
837.323	18.29
837.496	17.62
837.669	17.26
837.842	18.7
838.015	17.48
838.188	17.56
838.361	18.72
838.533	19.08
838.706	19.9
838.879	20.38
839.052	20.86
839.225	19.86
839.398	20.37
839.57	19.22
839.743	19.16
839.916	20.06
840.088	21
840.261	21.03
840.434	20.61
840.607	20.19
840.779	20.66
840.952	20.1
841.124	20.33
841.297	19.16
841.47	19.61
841.642	17.57
841.815	17.47
841.987	17.67
842.16	15.72
842.332	15.05
842.505	13.85
842.677	14.31
842.85	14.1
843.022	15.15
843.194	17.52
843.367	18.58
843.539	18.83
843.712	19.18
843.884	19.17
844.056	19.44
844.229	18
844.401	20.55
844.573	22.25
844.745	22.41
844.918	24.77
845.09	25.18
845.262	23.19
845.434	24.48
845.606	21.78
845.779	20.21
845.951	17.47
846.123	16.65
846.295	14.1
846.467	11.99
846.639	14.34
846.811	10.63
846.983	8.52
847.155	9.15
847.327	11.31
847.499	14.94
847.671	10.94
847.843	11.02
848.015	17.38
848.187	19.58
848.359	17.76
848.531	18.89
848.703	17.4
848.875	18.18
849.047	18.94
849.218	19.93
849.39	20.69
849.562	25.83
849.734	26.78
849.905	25
850.077	25.49
850.249	25.24
850.421	24.19
850.592	26.06
850.764	28.17
850.936	28.21
851.107	27.66
851.279	23.82
851.451	23.84
851.622	26.32
851.794	24.29
851.965	18.57
852.137	19.55
852.308	14.7
852.48	13.73
852.651	13.68
852.823	14.71
852.994	13.05
853.166	15.93
853.337	13.63
853.509	14.01
853.68	12.96
853.851	20.04
854.023	20.68
854.194	23.34
854.365	20.43
854.537	17.69
854.708	14.34
854.879	14.41
855.05	13.23
855.222	14.17
855.393	9.79
855.564	12.45
855.735	7.19
855.906	10.07
856.078	10.53
856.249	12.8
856.42	10.7
856.591	16.08
856.762	16.76
856.933	16.45
857.104	13.4
857.275	18.75
857.446	17.83
857.617	20.92
857.788	18.61
857.959	19.4
858.13	20.56
858.301	22.9
858.472	19.37
858.643	19.71
858.814	18.18
858.985	15.93
859.155	11.04
859.326	13.02
859.497	11.47
859.668	14.2
859.839	12.87
860.009	10.34
860.18	10.02
860.351	12.1
860.522	9.71
860.692	10.88
860.863	12.01
861.034	12.43
861.204	6
861.375	7.73
861.546	1.11
861.716	-1.61
861.887	0.66
862.057	6.01
862.228	3.37
862.398	7.56
862.569	4.78
862.739	7.51
862.91	7.07
863.08	7.76
863.251	2.5
863.421	6.33
863.592	11.32
863.762	7.25
863.932	1.51
864.103	2.24
864.273	-1.17
864.443	4.32
864.614	3.26
864.784	5.24
864.954	3.05
865.125	5.59
865.295	6.44
865.465	0.2
865.635	6.16
865.805	5.91
865.976	4.48
866.146	6.67
866.316	4.16
866.486	11.99
866.656	12.43
866.826	14.75
866.996	12.39
867.166	18.48
867.336	22.22
867.506	18.67
867.676	18.19
867.846	20.49
868.016	18.39
868.186	18.77
868.356	13.01
868.526	10.37
868.696	16.38
868.866	22.09
869.036	17.23
869.206	20.35
869.376	23.67
869.545	24.1
869.715	23.6
869.885	24.86
870.055	23.18
870.224	24.92
870.394	24.85
870.564	18.92
870.734	18.75
870.903	14.04
871.073	12.07
871.243	8.24
871.412	6.84
871.582	4.31
871.751	4.16
871.921	7.03
872.091	5.25
872.26	6.12
872.43	8.32
872.599	7.09
872.769	8.08
872.938	6.45
873.108	11.57
873.277	14.8
873.446	17.11
873.616	15.77
873.785	15.23
873.955	19.01
874.124	20.77
874.293	20.17
874.463	20.46
874.632	19.36
874.801	20.83
874.971	18.55
875.14	15.36
875.309	17.22
875.478	18.01
875.647	19.34
875.817	16.07
875.986	20.82
876.155	17.71
876.324	20.03
876.493	27.14
876.662	28.66
876.831	30.62
877	30.34
877.17	30.94
877.339	31.86
877.508	30.3
877.677	34.81
877.846	32.29
878.015	36.44
878.184	32.55
878.352	28.07
878.521	28.51
878.69	24.98
878.859	29.6
879.028	28.21
879.197	25.1
879.366	28.12
879.534	24.11
879.703	24.01
879.872	24.59
880.041	24.36
880.21	22.89
880.378	20.29
880.547	20.88
880.716	20
880.884	19.79
881.053	20.62
881.222	19.54
881.39	19.45
881.559	18.8
881.727	18.35
881.896	17.86
882.065	18.42
882.233	19.24
882.402	18.82
882.57	18.34
882.739	17.89
882.907	18.67
883.076	18.73
883.244	19.04
883.412	19.93
883.581	19.74
883.749	19.76
883.918	19.6
884.086	18.91
884.254	19.68
884.423	20.61
884.591	21.32
884.759	19.56
884.927	18.84
885.096	18.31
885.264	17.19
885.432	18.92
885.6	19.22
885.769	17.55
885.937	17.91
886.105	18.6
886.273	16.92
886.441	17.18
886.609	19.95
886.777	22.87
886.945	22.65
887.113	22.69
887.281	18.09
887.449	18.13
887.617	19.98
887.785	21.03
887.953	19.54
888.121	20.91
888.289	19.89
888.457	17.48
888.625	14.33
888.793	13.96
888.961	12.94
889.129	12.08
889.296	16.9
889.464	18.98
889.632	17.66
889.8	15.26
889.967	14.16
890.135	12.71
