Data from 2938802__Reflection_02.txt Node
Date: Thu Mar 12 22:37:36 EDT 2015
User: robert
Spectrometer: USB4E03002
Autoset integration time: false
Trigger mode: 4
Integration Time (sec): 1.000000E-1
Scans to average: 10
Electric dark correction enabled: false
Nonlinearity correction enabled: false
Boxcar width: 5
Stray light correction enabled: false
XAxis mode: Wavelengths
Stop averaging: false
Number of Pixels in Spectrum: 3648
>>>>>Begin Spectral Data<<<<<
177.575	314.95
177.794	644.44
178.014	201.28
178.233	208.67
178.452	111.97
178.672	106.05
178.891	106.46
179.11	86.84
179.33	113.33
179.549	77.86
179.768	71.53
179.987	50.53
180.207	75.88
180.426	83.17
180.645	88.14
180.864	96.71
181.084	117.78
181.303	101.76
181.522	100.74
181.741	90.03
181.96	97.05
182.179	104.18
182.398	110.12
182.618	95.58
182.837	98.59
183.056	105.85
183.275	109.68
183.494	97.48
183.713	96.97
183.932	96.38
184.151	90.63
184.37	91.22
184.589	84.04
184.808	88.87
185.027	97.09
185.246	87.96
185.465	72.12
185.684	75.37
185.903	76.54
186.122	90.7
186.341	93.2
186.56	89.02
186.779	89.41
186.998	99.44
187.216	102.53
187.435	93.67
187.654	101.55
187.873	108.07
188.092	96.92
188.311	117.96
188.53	100.09
188.748	97.95
188.967	104.93
189.186	97.21
189.405	83
189.623	70.24
189.842	76.24
190.061	77.25
190.28	88.62
190.498	88.98
190.717	73.46
190.936	77.04
191.154	73.29
191.373	71.6
191.592	69.23
191.81	70.33
192.029	67.61
192.248	62.65
192.466	52.77
192.685	37.32
192.904	43.78
193.122	41.75
193.341	35.44
193.559	43.46
193.778	50.86
193.996	44.17
194.215	48.95
194.433	72.69
194.652	82.07
194.87	86.46
195.089	117.58
195.307	122.11
195.526	108.62
195.744	119.01
195.963	108.77
196.181	120.22
196.399	131.78
196.618	127.33
196.836	103.27
197.055	91.54
197.273	83.07
197.491	68.48
197.71	59.55
197.928	68.4
198.146	66.38
198.365	62.52
198.583	54.34
198.801	50.92
199.019	50
199.238	55.01
199.456	64.95
199.674	82.53
199.892	88.23
200.111	85.95
200.329	81.85
200.547	101.22
200.765	107.91
200.983	101.28
201.202	103.47
201.42	96.35
201.638	98.54
201.856	97.9
202.074	86.19
202.292	92.05
202.51	78.57
202.728	84.32
202.946	71.28
203.165	66.76
203.383	67.24
203.601	73.99
203.819	71.5
204.037	70.06
204.255	71.99
204.473	72.87
204.691	64.61
204.909	67.37
205.127	66.11
205.345	51.79
205.562	48.51
205.78	52.33
205.998	49.84
206.216	46.7
206.434	50.25
206.652	46.5
206.87	48
207.088	47.64
207.306	48.95
207.523	50.85
207.741	63.04
207.959	77.58
208.177	73.97
208.395	63.54
208.612	70.42
208.83	72.02
209.048	80.02
209.266	78.21
209.483	91.32
209.701	90.33
209.919	86.01
210.136	88.7
210.354	82.29
210.572	85.25
210.79	92.74
211.007	93
211.225	81.01
211.442	67.6
211.66	69.13
211.878	63.36
212.095	65.21
212.313	59.63
212.53	56.14
212.748	51.87
212.966	48.33
213.183	36.5
213.401	41.21
213.618	47.02
213.836	54.5
214.053	54.3
214.271	51.8
214.488	51.28
214.705	57.7
214.923	58.74
215.14	67.85
215.358	69.25
215.575	83.31
215.793	74.41
216.01	72.02
216.227	68.45
216.445	75.26
216.662	88.94
216.879	90.78
217.097	92.46
217.314	84.64
217.531	82.3
217.749	89.35
217.966	86.5
218.183	86.18
218.4	85.84
218.618	87.66
218.835	77.01
219.052	65.49
219.269	57.14
219.487	59.29
219.704	61.46
219.921	62.28
220.138	54.15
220.355	50.81
220.572	54.45
220.79	55.23
221.007	52.45
221.224	52.7
221.441	55.41
221.658	53.93
221.875	48.69
222.092	45.68
222.309	39.61
222.526	41.18
222.743	41.31
222.96	35.66
223.177	32.79
223.394	33.85
223.611	35.33
223.828	33.42
224.045	32.59
224.262	34.74
224.479	33.46
224.696	35.76
224.913	31.74
225.13	29.1
225.347	29.35
225.564	26.52
225.781	27.23
225.997	24.22
226.214	19.01
226.431	16.32
226.648	13.88
226.865	12.57
227.082	11.24
227.298	10.08
227.515	10.5
227.732	9.33
227.949	8.88
228.165	7.33
228.382	7.03
228.599	7.44
228.816	7.42
229.032	7.39
229.249	7.08
229.466	6.47
229.682	6.57
229.899	6.57
230.116	5.71
230.332	5.52
230.549	5.89
230.765	5.96
230.982	7.33
231.199	7.72
231.415	8.04
231.632	8.79
231.848	9.39
232.065	10.03
232.281	10.42
232.498	11.53
232.714	11.77
232.931	12.4
233.147	13.45
233.364	12.34
233.58	12.59
233.797	12.25
234.013	11.59
234.23	11.16
234.446	12.15
234.662	10.46
234.879	11.54
235.095	11.99
235.312	10.24
235.528	10.03
235.744	10.93
235.961	10.77
236.177	10.82
236.393	11
236.61	11.87
236.826	11.14
237.042	12.3
237.258	11.2
237.475	11.27
237.691	12.42
237.907	11.44
238.123	10.07
238.339	9.98
238.556	10.54
238.772	11.08
238.988	11
239.204	10.9
239.42	10.88
239.636	10.75
239.853	11.27
240.069	9.98
240.285	10.03
240.501	9.64
240.717	8.65
240.933	7.78
241.149	6.3
241.365	5.64
241.581	6.25
241.797	5.61
242.013	5.86
242.229	5.51
242.445	6.04
242.661	5.81
242.877	5.49
243.093	6.22
243.309	6.6
243.525	6.83
243.741	6.82
243.957	6.56
244.173	6.66
244.388	6.7
244.604	6.11
244.82	6.08
245.036	6.06
245.252	6.1
245.468	5.07
245.683	4.74
245.899	5.32
246.115	5.28
246.331	4.96
246.547	5.23
246.762	4.72
246.978	4.72
247.194	4.54
247.409	4.47
247.625	4.73
247.841	4.81
248.057	4.67
248.272	4.41
248.488	4.33
248.703	4.11
248.919	3.5
249.135	4.01
249.35	4.34
249.566	4.4
249.782	4.44
249.997	4.06
250.213	4.55
250.428	5.37
250.644	5.58
250.859	5.88
251.075	5.65
251.29	6.28
251.506	5.77
251.721	5.66
251.937	5.36
252.152	5.29
252.368	5.05
252.583	4.22
252.798	3.75
253.014	3.59
253.229	3.45
253.445	3.91
253.66	4.18
253.875	3.91
254.091	3.22
254.306	3.76
254.521	3.52
254.737	3.87
254.952	4.19
255.167	4.73
255.383	4.73
255.598	4.94
255.813	5.04
256.028	4.92
256.244	5.63
256.459	6.6
256.674	7
256.889	7.4
257.104	7.09
257.32	7.29
257.535	6.43
257.75	6.49
257.965	6.43
258.18	5.73
258.395	5.55
258.61	4.85
258.826	4.26
259.041	3.94
259.256	3.43
259.471	3.36
259.686	3.29
259.901	3.58
260.116	3.39
260.331	3.23
260.546	3.35
260.761	3.18
260.976	3.38
261.191	3.38
261.406	3.44
261.621	3.81
261.836	4.08
262.05	4.31
262.265	4.04
262.48	4
262.695	3.93
262.91	4.14
263.125	4.59
263.34	5.07
263.555	5.61
263.769	5.03
263.984	5.04
264.199	4.82
264.414	4.91
264.629	5.29
264.843	5.85
265.058	6.13
265.273	5.77
265.488	5.56
265.702	5.15
265.917	5.13
266.132	5.81
266.346	5.38
266.561	5.45
266.776	5.53
266.99	4.87
267.205	4.77
267.42	4.42
267.634	4.52
267.849	4.25
268.063	4.15
268.278	4
268.492	3.61
268.707	3.88
268.922	4.2
269.136	3.61
269.351	4.17
269.565	3.97
269.78	4.01
269.994	3.96
270.209	3.99
270.423	3.95
270.637	4.08
270.852	3.92
271.066	4.24
271.281	3.8
271.495	4.13
271.709	4.11
271.924	3.96
272.138	3.81
272.353	3.49
272.567	3.58
272.781	3.66
272.996	3.74
273.21	3.93
273.424	3.75
273.638	4.11
273.853	3.68
274.067	3.54
274.281	4.04
274.495	4.15
274.71	4.2
274.924	4.19
275.138	3.79
275.352	3.44
275.566	3.5
275.781	3.28
275.995	3.06
276.209	3.44
276.423	3.48
276.637	3.17
276.851	3.41
277.065	3.97
277.279	4.16
277.493	4.52
277.707	4.54
277.921	4.77
278.135	4.71
278.349	4.52
278.563	4.8
278.777	4.97
278.991	4.93
279.205	4.76
279.419	4.51
279.633	4.48
279.847	4.78
280.061	5.04
280.275	4.67
280.489	4.78
280.703	4.6
280.917	4.15
281.131	3.85
281.344	3.76
281.558	3.54
281.772	3.33
281.986	2.76
282.2	2.43
282.414	2.43
282.627	2.43
282.841	2.58
283.055	2.73
283.269	2.77
283.482	2.99
283.696	3.14
283.91	3.39
284.123	3.66
284.337	4.06
284.551	3.95
284.764	4.06
284.978	3.88
285.192	3.53
285.405	3.57
285.619	3.55
285.833	3.48
286.046	3.47
286.26	3.45
286.473	3.38
286.687	3.52
286.9	3.56
287.114	3.15
287.327	3.43
287.541	3.54
287.754	3.79
287.968	4.02
288.181	3.66
288.395	3.56
288.608	3.77
288.822	3.9
289.035	3.61
289.248	3.79
289.462	3.94
289.675	3.49
289.889	3.24
290.102	2.76
290.315	2.71
290.529	3.09
290.742	3.23
290.955	3.14
291.169	3.05
291.382	3.42
291.595	3.57
291.808	3.83
292.022	3.94
292.235	4.27
292.448	4.47
292.661	4.25
292.875	4.23
293.088	4.31
293.301	4.48
293.514	4.54
293.727	4.07
293.94	4.01
294.153	3.85
294.367	4.2
294.58	4.32
294.793	4.69
295.006	5.03
295.219	5.08
295.432	4.85
295.645	4.7
295.858	4.56
296.071	4.79
296.284	4.64
296.497	4.58
296.71	4.53
296.923	4.55
297.136	4.16
297.349	3.89
297.562	3.95
297.775	4.01
297.988	4.04
298.201	4.32
298.414	4.21
298.626	4.03
298.839	4.15
299.052	4.18
299.265	4.24
299.478	4.57
299.691	4.73
299.903	4.63
300.116	4.72
300.329	4.98
300.542	4.75
300.755	4.96
300.967	5.47
301.18	5.41
301.393	5.45
301.605	5.14
301.818	5.26
302.031	5.17
302.243	5.4
302.456	5.69
302.669	5.66
302.881	5.95
303.094	5.5
303.307	5.28
303.519	5.14
303.732	4.99
303.944	5.33
304.157	5.15
304.37	5.25
304.582	5.07
304.795	5.02
305.007	5.13
305.22	4.84
305.432	5.24
305.645	5.38
305.857	5.47
306.069	5.8
306.282	5.87
306.494	5.8
306.707	5.87
306.919	5.77
307.132	5.55
307.344	5.31
307.556	5.14
307.769	5.33
307.981	5.16
308.193	5.34
308.406	4.8
308.618	4.51
308.83	4.57
309.043	4.75
309.255	4.79
309.467	4.99
309.679	5.11
309.892	5.21
310.104	5.15
310.316	5.14
310.528	5.16
310.74	5.38
310.953	5.5
311.165	5.87
311.377	5.82
311.589	6.01
311.801	5.85
312.013	5.67
312.225	5.69
312.437	5.95
312.649	6.04
312.862	6.04
313.074	6.06
313.286	6.51
313.498	6.11
313.71	6.08
313.922	6.13
314.134	6.02
314.346	6.14
314.558	6.45
314.77	6.05
314.982	5.96
315.193	5.99
315.405	6.14
315.617	5.71
315.829	5.78
316.041	5.95
316.253	5.45
316.465	5.81
316.677	5.87
316.888	5.98
317.1	5.71
317.312	5.9
317.524	5.75
317.736	5.97
317.947	5.91
318.159	6.21
318.371	6.05
318.583	6.59
318.794	6.52
319.006	7.07
319.218	7.13
319.43	7.41
319.641	7.47
319.853	7.62
320.064	7.51
320.276	7.6
320.488	7.46
320.699	7.68
320.911	7.51
321.123	7.44
321.334	7.05
321.546	7.15
321.757	7.22
321.969	7.57
322.18	7.62
322.392	7.77
322.603	8.41
322.815	8.77
323.026	8.47
323.238	8.61
323.449	8.71
323.661	8.8
323.872	8.85
324.083	8.88
324.295	9.04
324.506	9.07
324.718	9.52
324.929	9.73
325.14	9.82
325.352	10.35
325.563	10.85
325.774	11.34
325.986	11.42
326.197	11.65
326.408	12.46
326.62	12.85
326.831	13.64
327.042	13.88
327.253	14.02
327.464	14.26
327.676	14.6
327.887	14.87
328.098	15.01
328.309	15.49
328.52	15.6
328.732	15.55
328.943	15.61
329.154	15.78
329.365	16.15
329.576	16.61
329.787	17.21
329.998	17.97
330.209	18.33
330.42	18.91
330.631	19.42
330.842	19.73
331.053	20.4
331.264	21
331.475	21.35
331.686	21.56
331.897	21.41
332.108	21.59
332.319	21.64
332.53	22.03
332.741	22.15
332.952	22.4
333.163	22.87
333.374	23.01
333.585	22.99
333.795	22.88
334.006	23.06
334.217	23.62
334.428	23.62
334.639	23.66
334.849	23.87
335.06	24.14
335.271	24.04
335.482	24.25
335.692	24.34
335.903	24.57
336.114	25.19
336.325	25.42
336.535	25.71
336.746	26.02
336.957	26.01
337.167	25.89
337.378	26.07
337.589	26.18
337.799	26.38
338.01	26.45
338.22	26.58
338.431	26.29
338.642	26.42
338.852	26.29
339.063	26.08
339.273	26.55
339.484	26.4
339.694	26.02
339.905	26.19
340.115	25.86
340.326	25.92
340.536	25.78
340.746	25.7
340.957	25.55
341.167	25.41
341.378	25.68
341.588	25.31
341.799	25.09
342.009	25.23
342.219	25.14
342.43	25.49
342.64	25.46
342.85	25.55
343.061	25.75
343.271	25.72
343.481	25.78
343.691	25.66
343.902	25.76
344.112	26.25
344.322	26.71
344.532	26.63
344.743	26.83
344.953	26.72
345.163	26.46
345.373	26.68
345.583	26.68
345.793	26.42
346.004	26.15
346.214	26.19
346.424	26.05
346.634	25.52
346.844	25.79
347.054	25.36
347.264	25.57
347.474	25.72
347.684	25.17
347.894	25.34
348.104	25.47
348.314	25.81
348.524	25.7
348.734	25.8
348.944	26
349.154	25.56
349.364	25.74
349.574	25.33
349.784	25.19
349.994	25.61
350.204	25.4
350.413	25.55
350.623	25.55
350.833	25.39
351.043	25.42
351.253	25.42
351.463	25.64
351.672	25.31
351.882	25.35
352.092	25.5
352.302	25.22
352.511	25.29
352.721	25.12
352.931	25.04
353.141	24.82
353.35	24.31
353.56	24.16
353.77	24.12
353.979	24.45
354.189	24.49
354.399	24.61
354.608	24.45
354.818	24.32
355.027	24.35
355.237	24.15
355.447	24.45
355.656	24.89
355.866	24.94
356.075	25
356.285	24.8
356.494	24.82
356.704	24.76
356.913	24.83
357.123	24.91
357.332	24.79
357.542	24.96
357.751	24.97
357.96	24.78
358.17	24.69
358.379	24.42
358.589	24.4
358.798	24.57
359.007	24.56
359.217	24.66
359.426	24.46
359.635	24.45
359.845	24.27
360.054	24.26
360.263	24.28
360.472	24.31
360.682	24.37
360.891	24.29
361.1	24.17
361.309	24.16
361.519	24.06
361.728	23.97
361.937	23.96
362.146	24.03
362.355	24.02
362.564	24.12
362.774	24.07
362.983	24.11
363.192	24.1
363.401	23.85
363.61	23.74
363.819	23.85
364.028	23.9
364.237	23.85
364.446	23.79
364.655	23.73
364.864	23.6
365.073	23.66
365.282	23.62
365.491	23.72
365.7	23.98
365.909	24.04
366.118	23.93
366.327	23.98
366.536	24.05
366.745	24.14
366.954	23.94
367.162	23.84
367.371	23.65
367.58	23.66
367.789	23.55
367.998	23.46
368.207	23.32
368.415	23.23
368.624	23.35
368.833	23.39
369.042	23.36
369.25	23.5
369.459	23.91
369.668	24.15
369.877	24.12
370.085	24.03
370.294	24.13
370.503	24.21
370.711	23.99
370.92	23.76
371.129	23.72
371.337	23.65
371.546	23.68
371.754	23.32
371.963	23.09
372.171	22.98
372.38	23.05
372.589	23.07
372.797	22.91
373.006	23
373.214	23.14
373.423	22.96
373.631	23.06
373.84	22.9
374.048	22.91
374.256	23.04
374.465	23.37
374.673	23.21
374.882	23.13
375.09	23.37
375.298	23.57
375.507	23.56
375.715	23.72
375.923	23.58
376.132	23.58
376.34	23.52
376.548	23.45
376.757	23.28
376.965	23.32
377.173	23.39
377.381	23.11
377.59	22.84
377.798	22.76
378.006	22.7
378.214	22.66
378.423	22.6
378.631	22.66
378.839	22.37
379.047	22.22
379.255	22.31
379.463	22.22
379.671	22.44
379.879	22.58
380.088	22.72
380.296	22.7
380.504	22.58
380.712	22.53
380.92	22.3
381.128	22.61
381.336	22.75
381.544	22.66
381.752	22.72
381.96	22.41
382.168	22.34
382.376	22.06
382.584	22.03
382.791	22.09
382.999	21.97
383.207	21.95
383.415	21.99
383.623	21.82
383.831	21.84
384.039	21.75
384.247	21.84
384.454	22.01
384.662	21.89
384.87	21.99
385.078	22.01
385.285	22.13
385.493	22.4
385.701	22.22
385.909	22.07
386.116	22.07
386.324	22.27
386.532	22.37
386.739	22.3
386.947	22.45
387.155	22.24
387.362	22.32
387.57	22.42
387.778	22.17
387.985	22.18
388.193	22.42
388.4	22.37
388.608	22.14
388.816	22.05
389.023	22.17
389.231	22.32
389.438	22.54
389.646	22.31
389.853	22.2
390.061	22.32
390.268	22.4
390.475	22.16
390.683	22.13
390.89	22.09
391.098	22.05
391.305	21.96
391.512	21.94
391.72	21.97
391.927	21.96
392.135	22.16
392.342	22.04
392.549	21.87
392.756	21.98
392.964	22.06
393.171	22.18
393.378	22.21
393.586	22.12
393.793	21.87
394	21.78
394.207	21.95
394.414	21.83
394.622	21.81
394.829	22.04
395.036	22.12
395.243	22.18
395.45	22.26
395.657	22.14
395.864	21.98
396.072	22.31
396.279	22.23
396.486	22.1
396.693	22.03
396.9	22.02
397.107	21.88
397.314	21.75
397.521	21.53
397.728	21.21
397.935	21.47
398.142	21.58
398.349	21.34
398.556	21.29
398.763	21.52
398.97	21.53
399.177	21.51
399.383	21.48
399.59	21.56
399.797	21.73
400.004	21.74
400.211	21.5
400.418	21.43
400.625	21.58
400.831	21.58
401.038	21.38
401.245	21.19
401.452	21.29
401.658	21.27
401.865	21.22
402.072	21.09
402.279	21.2
402.485	21.23
402.692	21.13
402.899	21.09
403.105	21.27
403.312	21.11
403.519	21.22
403.725	21.3
403.932	21.32
404.138	21.41
404.345	21.43
404.552	21.41
404.758	21.38
404.965	21.54
405.171	21.46
405.378	21.26
405.584	21.37
405.791	21.4
405.997	21.28
406.204	21.4
406.41	21.33
406.617	21.4
406.823	21.47
407.029	21.53
407.236	21.63
407.442	21.63
407.649	21.78
407.855	21.74
408.061	21.83
408.268	21.65
408.474	21.65
408.68	21.71
408.887	21.47
409.093	21.3
409.299	21.33
409.505	21.11
409.712	21.08
409.918	20.99
410.124	21.06
410.33	21
410.537	21.06
410.743	20.91
410.949	20.81
411.155	20.92
411.361	20.92
411.567	20.81
411.773	20.83
411.98	20.92
412.186	20.97
412.392	20.9
412.598	20.83
412.804	20.75
413.01	20.72
413.216	20.7
413.422	20.62
413.628	20.86
413.834	20.99
414.04	21.15
414.246	21.08
414.452	20.93
414.658	21.02
414.864	20.99
415.07	21.29
415.275	21.38
415.481	21.42
415.687	21.47
415.893	21.35
416.099	21.38
416.305	21.32
416.511	21.26
416.716	21.35
416.922	21.39
417.128	21.48
417.334	21.39
417.539	21.45
417.745	21.39
417.951	21.41
418.157	21.38
418.362	21.38
418.568	21.33
418.774	21.42
418.979	21.41
419.185	21.28
419.391	21.27
419.596	21.26
419.802	21.12
420.008	21.13
420.213	20.54
420.419	20.56
420.624	20.59
420.83	20.59
421.035	20.56
421.241	20.55
421.446	20.67
421.652	20.56
421.857	20.48
422.063	20.51
422.268	20.53
422.474	21.09
422.679	21.06
422.885	20.92
423.09	20.92
423.295	20.93
423.501	21.01
423.706	20.95
423.911	21.07
424.117	21.16
424.322	21.15
424.527	21.08
424.733	20.99
424.938	20.98
425.143	20.98
425.349	20.96
425.554	20.94
425.759	20.84
425.964	20.84
426.169	20.9
426.375	20.85
426.58	20.83
426.785	20.83
426.99	20.93
427.195	20.95
427.4	21.07
427.605	21.06
427.811	21.08
428.016	21.09
428.221	21.03
428.426	20.9
428.631	20.98
428.836	21.05
429.041	21.28
429.246	21.32
429.451	21.37
429.656	21.26
429.861	21.28
430.066	21.37
430.271	21.41
430.476	21.42
430.681	21.44
430.886	21.31
431.09	21.34
431.295	21.22
431.5	21.24
431.705	21.16
431.91	21.14
432.115	21.12
432.32	21.03
432.524	21.08
432.729	21.21
432.934	21.19
433.139	21.27
433.343	21.16
433.548	21.19
433.753	21.04
433.958	21.06
434.162	21.12
434.367	21.1
434.572	21.11
434.776	20.94
434.981	20.84
435.186	20.95
435.39	20.96
435.595	21.01
435.799	20.93
436.004	20.96
436.209	20.99
436.413	20.94
436.618	21.02
436.822	20.97
437.027	21.05
437.231	21.05
437.436	21.03
437.64	21.09
437.845	21.11
438.049	21.17
438.253	21.24
438.458	21.18
438.662	21.35
438.867	21.36
439.071	21.43
439.275	21.44
439.48	21.41
439.684	21.31
439.888	21.29
440.093	21.28
440.297	21.31
440.501	21.24
440.706	21.31
440.91	21.19
441.114	21.15
441.318	21.13
441.523	21.14
441.727	21.17
441.931	21.22
442.135	21.19
442.339	21.23
442.543	21.09
442.748	21.12
442.952	21.15
443.156	21.21
443.36	21.21
443.564	21.28
443.768	21.37
443.972	21.44
444.176	21.45
444.38	21.41
444.584	21.39
444.788	21.43
444.992	21.47
445.196	21.45
445.4	21.43
445.604	21.47
445.808	21.38
446.012	21.32
446.216	21.31
446.42	21.21
446.624	21.18
446.828	21.23
447.032	21.27
447.235	21.23
447.439	21.26
447.643	21.23
447.847	21.2
448.051	21.15
448.254	21.13
448.458	21.06
448.662	21.07
448.866	21.08
449.069	20.93
449.273	20.86
449.477	20.93
449.681	20.74
449.884	20.83
450.088	20.76
450.292	20.97
450.495	20.98
450.699	20.99
450.902	21.14
451.106	21.19
451.31	21.23
451.513	21.38
451.717	21.21
451.92	21.48
452.124	21.42
452.327	21.42
452.531	21.32
452.734	21.34
452.938	21.4
453.141	21.28
453.345	21.27
453.548	21.27
453.752	21.19
453.955	21.42
454.158	21.23
454.362	21.15
454.565	21.2
454.769	21.13
454.972	21.13
455.175	21.09
455.379	21.24
455.582	21.34
455.785	21.4
455.988	21.43
456.192	21.31
456.395	21.48
456.598	21.59
456.801	21.69
457.005	21.7
457.208	21.68
457.411	21.7
457.614	21.56
457.817	21.33
458.021	21.31
458.224	21.36
458.427	21.29
458.63	21.27
458.833	21.17
459.036	21.13
459.239	21.13
459.442	21.14
459.645	21.04
459.848	21.07
460.051	21.19
460.254	21.19
460.457	21.16
460.66	21.15
460.863	21.11
461.066	21.17
461.269	21.09
461.472	21.08
461.675	21.05
461.878	21.06
462.081	21.05
462.284	21.05
462.486	21.06
462.689	21.06
462.892	21.06
463.095	21.03
463.298	21.02
463.5	21.15
463.703	21.2
463.906	21.3
464.109	21.51
464.311	21.61
464.514	21.59
464.717	21.6
464.92	21.54
465.122	21.61
465.325	21.6
465.528	21.64
465.73	21.64
465.933	21.71
466.135	21.6
466.338	21.42
466.541	21.43
466.743	21.43
466.946	21.38
467.148	21.48
467.351	21.48
467.553	21.44
467.756	21.35
467.958	21.27
468.161	21.23
468.363	21.29
468.566	21.4
468.768	21.32
468.971	21.28
469.173	21.32
469.375	21.33
469.578	21.42
469.78	21.42
469.983	21.53
470.185	21.51
470.387	21.49
470.59	21.45
470.792	21.48
470.994	21.44
471.196	21.54
471.399	21.5
471.601	21.41
471.803	21.24
472.005	21.27
472.208	21.3
472.41	21.33
472.612	21.34
472.814	21.39
473.016	21.29
473.218	21.26
473.421	21.16
473.623	21.31
473.825	21.31
474.027	21.36
474.229	21.35
474.431	21.33
474.633	21.38
474.835	21.46
475.037	21.41
475.239	21.5
475.441	21.57
475.643	21.71
475.845	21.57
476.047	21.57
476.249	21.63
476.451	21.65
476.653	21.66
476.855	21.72
477.057	21.65
477.258	21.64
477.46	21.6
477.662	21.59
477.864	21.47
478.066	21.49
478.268	21.57
478.469	21.62
478.671	21.65
478.873	21.66
479.075	21.57
479.276	21.64
479.478	21.68
479.68	21.68
479.882	21.71
480.083	21.77
480.285	21.75
480.487	21.71
480.688	21.59
480.89	21.63
481.091	21.58
481.293	21.58
481.495	21.5
481.696	21.49
481.898	21.45
482.099	21.43
482.301	21.38
482.502	21.47
482.704	21.44
482.905	21.44
483.107	21.41
483.308	21.43
483.51	21.42
483.711	21.41
483.913	21.4
484.114	21.4
484.315	21.39
484.517	21.41
484.718	21.37
484.92	21.37
485.121	21.39
485.322	21.41
485.524	21.39
485.725	21.39
485.926	21.4
486.127	21.38
486.329	21.44
486.53	21.42
486.731	21.44
486.932	21.45
487.134	21.49
487.335	21.53
487.536	21.5
487.737	21.53
487.938	21.49
488.139	21.53
488.341	21.57
488.542	21.55
488.743	21.57
488.944	21.57
489.145	21.51
489.346	21.5
489.547	21.46
489.748	21.48
489.949	21.53
490.15	21.59
490.351	21.63
490.552	21.57
490.753	21.54
490.954	21.55
491.155	21.58
491.356	21.63
491.557	21.61
491.758	21.67
491.959	21.67
492.159	21.63
492.36	21.59
492.561	21.61
492.762	21.66
492.963	21.75
493.164	21.78
493.364	21.77
493.565	21.86
493.766	21.88
493.967	21.79
494.167	21.87
494.368	21.88
494.569	21.96
494.769	21.9
494.97	21.89
495.171	21.85
495.371	21.91
495.572	22
495.773	21.93
495.973	21.97
496.174	22.05
496.375	22
496.575	21.99
496.776	22.06
496.976	22.07
497.177	22.13
497.377	22.12
497.578	22.1
497.778	22.04
497.979	22.06
498.179	22.13
498.38	22.12
498.58	22.18
498.78	22.21
498.981	22.15
499.181	22.17
499.382	22.07
499.582	22.11
499.782	22.1
499.983	22.12
500.183	22.09
500.383	22.04
500.584	22
500.784	22.01
500.984	21.93
501.184	22.05
501.385	22.12
501.585	22.3
501.785	22.32
501.985	22.31
502.185	22.28
502.386	22.34
502.586	22.41
502.786	22.52
502.986	22.57
503.186	22.7
503.386	22.56
503.586	22.56
503.786	22.55
503.987	22.57
504.187	22.66
504.387	22.75
504.587	22.79
504.787	22.72
504.987	22.71
505.187	22.69
505.387	22.78
505.587	22.95
505.786	22.99
505.986	22.95
506.186	22.99
506.386	22.94
506.586	22.9
506.786	22.91
506.986	22.97
507.186	23.04
507.386	23.06
507.585	22.99
507.785	23.07
507.985	23.05
508.185	23.11
508.384	23.15
508.584	23.28
508.784	23.31
508.984	23.3
509.183	23.27
509.383	23.28
509.583	23.34
509.782	23.38
509.982	23.3
510.182	23.39
510.381	23.42
510.581	23.48
510.781	23.43
510.98	23.47
511.18	23.56
511.379	23.66
511.579	23.67
511.778	23.7
511.978	23.73
512.177	23.73
512.377	23.68
512.576	23.69
512.776	23.64
512.975	23.67
513.175	23.65
513.374	23.59
513.573	23.63
513.773	23.71
513.972	23.77
514.172	23.82
514.371	23.87
514.57	23.96
514.77	24.04
514.969	24.08
515.168	24.18
515.367	24.24
515.567	24.28
515.766	24.27
515.965	24.29
516.164	24.36
516.364	24.29
516.563	24.4
516.762	24.44
516.961	24.49
517.16	24.57
517.359	24.61
517.559	24.78
517.758	24.87
517.957	25.01
518.156	25.04
518.355	24.97
518.554	25.08
518.753	25.05
518.952	25.07
519.151	25.08
519.35	25.04
519.549	25.04
519.748	24.96
519.947	24.97
520.146	24.9
520.345	24.94
520.544	25.02
520.743	25.11
520.942	25.25
521.141	25.32
521.339	25.44
521.538	25.53
521.737	25.59
521.936	25.63
522.135	25.66
522.333	25.74
522.532	25.76
522.731	25.77
522.93	25.74
523.129	25.7
523.327	25.67
523.526	25.75
523.725	25.85
523.923	25.97
524.122	26.08
524.321	26.15
524.519	26.16
524.718	26.2
524.917	26.27
525.115	26.37
525.314	26.4
525.512	26.5
525.711	26.46
525.909	26.49
526.108	26.49
526.306	26.54
526.505	26.63
526.703	26.71
526.902	26.76
527.1	26.82
527.299	26.81
527.497	26.91
527.696	26.94
527.894	26.93
528.092	26.93
528.291	26.96
528.489	26.93
528.688	26.96
528.886	26.95
529.084	26.96
529.283	26.94
529.481	26.94
529.679	26.92
529.877	26.94
530.076	27.02
530.274	27.06
530.472	27.05
530.67	27.13
530.869	27.15
531.067	27.2
531.265	27.29
531.463	27.42
531.661	27.52
531.859	27.59
532.057	27.67
532.255	27.68
532.454	27.78
532.652	27.87
532.85	27.91
533.048	27.89
533.246	27.96
533.444	27.91
533.642	27.87
533.84	27.88
534.038	27.93
534.236	27.91
534.434	27.93
534.632	27.96
534.83	27.93
535.027	27.97
535.225	28.07
535.423	28.08
535.621	28.23
535.819	28.32
536.017	28.4
536.215	28.43
536.412	28.45
536.61	28.53
536.808	28.54
537.006	28.59
537.203	28.58
537.401	28.57
537.599	28.65
537.797	28.64
537.994	28.64
538.192	28.68
538.39	28.75
538.587	28.82
538.785	28.87
538.983	28.87
539.18	28.99
539.378	29.08
539.575	29.2
539.773	29.25
539.97	29.34
540.168	29.39
540.366	29.46
540.563	29.47
540.761	29.51
540.958	29.54
541.155	29.6
541.353	29.58
541.55	29.61
541.748	29.6
541.945	29.63
542.143	29.63
542.34	29.61
542.537	29.6
542.735	29.6
542.932	29.6
543.129	29.63
543.327	29.62
543.524	29.66
543.721	29.68
543.919	29.76
544.116	29.75
544.313	29.79
544.51	29.83
544.708	29.83
544.905	29.83
545.102	29.87
545.299	29.83
545.496	29.94
545.693	29.99
545.891	30.03
546.088	30.01
546.285	30.03
546.482	30
546.679	30.13
546.876	30.16
547.073	30.19
547.27	30.25
547.467	30.36
547.664	30.31
547.861	30.33
548.058	30.37
548.255	30.39
548.452	30.44
548.649	30.48
548.846	30.47
549.043	30.61
549.24	30.61
549.437	30.62
549.633	30.61
549.83	30.65
550.027	30.61
550.224	30.58
550.421	30.56
550.618	30.56
550.814	30.66
551.011	30.6
551.208	30.44
551.405	30.52
551.601	30.52
551.798	30.57
551.995	30.65
552.191	30.73
552.388	30.72
552.585	30.79
552.781	30.85
552.978	30.83
553.175	30.84
553.371	30.87
553.568	30.84
553.764	30.81
553.961	30.69
554.157	30.69
554.354	30.66
554.55	30.71
554.747	30.71
554.943	30.72
555.14	30.66
555.336	30.79
555.533	30.83
555.729	30.97
555.926	31.02
556.122	31.11
556.318	31.01
556.515	31.08
556.711	31.14
556.907	31.19
557.104	31.28
557.3	31.43
557.496	31.38
557.693	31.4
557.889	31.38
558.085	31.37
558.281	31.39
558.478	31.53
558.674	31.57
558.87	31.58
559.066	31.46
559.262	31.43
559.459	31.36
559.655	31.42
559.851	31.39
560.047	31.44
560.243	31.37
560.439	31.26
560.635	31.21
560.831	31.16
561.027	31.18
561.223	31.26
561.419	31.12
561.615	31.23
561.811	31.25
562.007	31.36
562.203	31.27
562.399	31.41
562.595	31.5
562.791	31.57
562.987	31.58
563.183	31.51
563.379	31.54
563.575	31.68
563.771	31.57
563.966	31.52
564.162	31.55
564.358	31.6
564.554	31.62
564.75	31.57
564.945	31.48
565.141	31.53
565.337	31.58
565.533	31.62
565.728	31.65
565.924	31.75
566.12	31.84
566.315	31.78
566.511	31.8
566.707	31.78
566.902	31.86
567.098	32
567.293	31.94
567.489	31.93
567.684	31.99
567.88	31.96
568.076	31.89
568.271	31.9
568.467	31.8
568.662	31.74
568.858	31.79
569.053	31.9
569.248	31.8
569.444	31.95
569.639	31.94
569.835	31.93
570.03	31.84
570.225	31.84
570.421	31.79
570.616	31.96
570.812	32.1
571.007	32.19
571.202	32.15
571.397	32.3
571.593	32.22
571.788	32.17
571.983	32.05
572.178	32.16
572.374	32.3
572.569	32.26
572.764	32.34
572.959	32.27
573.154	32.18
573.35	32.16
573.545	32.08
573.74	32.14
573.935	32.22
574.13	32.26
574.325	32.31
574.52	32.24
574.715	32.32
574.91	32.28
575.105	32.25
575.3	32.34
575.495	32.38
575.69	32.33
575.885	32.4
576.08	32.39
576.275	32.54
576.47	32.6
576.665	32.67
576.86	32.78
577.055	32.82
577.25	32.86
577.444	32.83
577.639	32.89
577.834	32.97
578.029	32.93
578.224	33.02
578.418	32.93
578.613	32.75
578.808	32.53
579.003	32.34
579.197	32.21
579.392	32.39
579.587	32.34
579.781	32.35
579.976	32.32
580.171	32.24
580.365	32.25
580.56	32.29
580.755	32.41
580.949	32.59
581.144	32.81
581.338	32.98
581.533	32.87
581.727	32.86
581.922	32.8
582.116	32.85
582.311	32.84
582.505	32.9
582.7	32.93
582.894	32.95
583.089	32.9
583.283	32.81
583.478	32.76
583.672	32.85
583.866	32.9
584.061	32.92
584.255	33.08
584.449	33.15
584.644	33.21
584.838	33.18
585.032	33.19
585.226	33.34
585.421	33.32
585.615	33.15
585.809	33.22
586.003	33.3
586.198	33.45
586.392	33.52
586.586	33.49
586.78	33.4
586.974	33.39
587.168	33.35
587.363	33.27
587.557	33.33
587.751	33.47
587.945	33.34
588.139	33.55
588.333	33.44
588.527	33.34
588.721	33.29
588.915	33.34
589.109	33.33
589.303	33.48
589.497	33.49
589.691	33.54
589.885	33.67
590.079	33.81
590.273	33.75
590.466	33.75
590.66	33.73
590.854	33.91
591.048	33.94
591.242	33.98
591.436	33.91
591.629	33.92
591.823	34.02
592.017	33.83
592.211	33.73
592.404	33.57
592.598	33.62
592.792	33.6
592.986	33.57
593.179	33.58
593.373	33.65
593.567	33.75
593.76	33.8
593.954	33.63
594.147	33.75
594.341	33.74
594.535	33.77
594.728	33.86
594.922	34.02
595.115	34.02
595.309	34.05
595.502	34.14
595.696	34.11
595.889	34.12
596.083	34.25
596.276	34.41
596.47	34.47
596.663	34.57
596.856	34.5
597.05	34.4
597.243	34.39
597.437	34.31
597.63	34.27
597.823	34.28
598.017	34.31
598.21	34.31
598.403	34.15
598.596	34.19
598.79	34.15
598.983	34.13
599.176	34.21
599.369	34.32
599.563	34.39
599.756	34.34
599.949	34.3
600.142	34.25
600.335	34.28
600.528	34.25
600.722	34.24
600.915	34.3
601.108	34.33
601.301	34.4
601.494	34.47
601.687	34.58
601.88	34.6
602.073	34.68
602.266	34.78
602.459	34.81
602.652	35.14
602.845	35.14
603.038	35.17
603.231	35.22
603.424	35.1
603.617	35.05
603.809	35.1
604.002	35.11
604.195	34.99
604.388	34.93
604.581	35.03
604.774	34.83
604.966	34.71
605.159	34.58
605.352	34.57
605.545	34.56
605.737	34.49
605.93	34.43
606.123	34.45
606.316	34.55
606.508	34.63
606.701	34.56
606.894	34.64
607.086	34.99
607.279	35.12
607.471	35.13
607.664	35.42
607.857	35.57
608.049	35.64
608.242	35.62
608.434	35.73
608.627	35.81
608.819	35.75
609.012	35.81
609.204	35.67
609.397	35.65
609.589	35.76
609.782	35.74
609.974	35.8
610.166	35.93
610.359	36.05
610.551	36.02
610.743	36.06
610.936	36.11
611.128	36.16
611.32	36.36
611.513	36.4
611.705	36.36
611.897	36.32
612.09	36.37
612.282	36.16
612.474	36.09
612.666	36.17
612.858	36.08
613.051	36.16
613.243	35.99
613.435	35.82
613.627	35.83
613.819	35.87
614.011	35.73
614.203	35.6
614.395	35.71
614.588	35.78
614.78	35.76
614.972	35.63
615.164	35.53
615.356	35.57
615.548	35.58
615.74	35.69
615.932	35.67
616.124	35.66
616.315	35.79
616.507	35.6
616.699	35.71
616.891	35.57
617.083	35.67
617.275	35.72
617.467	35.62
617.659	35.61
617.85	35.54
618.042	35.37
618.234	35.52
618.426	35.55
618.618	35.81
618.809	35.71
619.001	35.73
619.193	35.83
619.384	35.76
619.576	35.93
619.768	35.98
619.959	36
620.151	36.33
620.343	36.36
620.534	36.11
620.726	36.17
620.917	36.07
621.109	36.23
621.301	36.29
621.492	36.32
621.684	36.11
621.875	35.95
622.067	36
622.258	35.59
622.45	35.56
622.641	35.6
622.832	35.54
623.024	35.73
623.215	35.67
623.407	35.45
623.598	35.52
623.789	35.63
623.981	35.83
624.172	35.92
624.363	36.15
624.555	36.25
624.746	36.41
624.937	36.5
625.129	36.49
625.32	36.49
625.511	36.52
625.702	36.74
625.893	36.8
626.085	36.67
626.276	36.62
626.467	36.65
626.658	36.59
626.849	36.5
627.04	36.42
627.231	36.35
627.422	36.4
627.614	36.51
627.805	36.22
627.996	36.27
628.187	36.25
628.378	36.19
628.569	36.19
628.76	36.07
628.951	36.01
629.142	35.97
629.332	36.05
629.523	35.84
629.714	35.71
629.905	35.81
630.096	35.9
630.287	36.07
630.478	36.13
630.669	36.32
630.859	36.5
631.05	36.52
631.241	36.52
631.432	36.47
631.623	36.68
631.813	36.7
632.004	36.81
632.195	36.69
632.385	36.68
632.576	36.67
632.767	36.62
632.957	36.55
633.148	36.67
633.339	36.65
633.529	36.71
633.72	36.73
633.91	36.82
634.101	36.69
634.292	36.48
634.482	36.55
634.673	36.54
634.863	36.43
635.054	36.46
635.244	36.37
635.435	36.34
635.625	36.25
635.815	36.03
636.006	35.98
636.196	35.85
636.387	36.13
636.577	36.08
636.767	36.15
636.958	36.04
637.148	36.04
637.338	36.11
637.529	36.07
637.719	36.07
637.909	36.36
638.099	36.31
638.29	36.47
638.48	36.43
638.67	36.27
638.86	36.36
639.05	36.58
639.241	36.58
639.431	36.58
639.621	36.77
639.811	36.74
640.001	36.56
640.191	36.63
640.381	36.56
640.571	36.51
640.761	36.64
640.951	36.51
641.141	36.34
641.331	36.27
641.521	36.26
641.711	36.25
641.901	36.26
642.091	36.31
642.281	36.37
642.471	36.48
642.661	36.43
642.851	36.67
643.041	36.87
643.231	37
643.42	37.1
643.61	36.99
643.8	37.1
643.99	37.05
644.18	37.06
644.369	37.04
644.559	37.06
644.749	37.16
644.939	36.99
645.128	36.77
645.318	36.75
645.508	36.64
645.697	36.65
645.887	36.4
646.076	36.39
646.266	36.46
646.456	36.61
646.645	36.6
646.835	36.56
647.024	36.45
647.214	36.46
647.403	36.36
647.593	36.43
647.782	36.44
647.972	36.59
648.161	36.87
648.351	36.93
648.54	36.79
648.73	36.68
648.919	36.86
649.108	36.89
649.298	36.92
649.487	37.05
649.677	37.13
649.866	37.23
650.055	37.33
650.244	37.05
650.434	36.93
650.623	37
650.812	37.03
651.002	36.77
651.191	36.82
651.38	36.9
651.569	36.78
651.758	36.74
651.947	36.79
652.137	36.58
652.326	36.77
652.515	36.92
652.704	36.89
652.893	37
653.082	36.99
653.271	37.21
653.46	37.02
653.649	37.04
653.838	37.02
654.027	37.21
654.216	37.42
654.405	37.25
654.594	37.19
654.783	37.16
654.972	37.1
655.161	37.3
655.35	37.18
655.539	37.16
655.728	37.2
655.916	37.13
656.105	36.84
656.294	36.87
656.483	36.86
656.672	36.84
656.86	37.02
657.049	37.11
657.238	37.05
657.427	36.99
657.615	37.24
657.804	37.28
657.993	37.42
658.181	37.46
658.37	37.39
658.559	37.66
658.747	37.7
658.936	37.64
659.125	37.34
659.313	37.41
659.502	37.45
659.69	37.23
659.879	37.15
660.067	36.98
660.256	37.18
660.444	37.25
660.633	37.19
660.821	37.11
661.01	36.89
661.198	37.1
661.387	37.05
661.575	37
661.763	37.14
661.952	37.42
662.14	37.64
662.328	37.49
662.517	37.4
662.705	37.5
662.893	37.46
663.082	37.84
663.27	37.68
663.458	37.67
663.646	37.8
663.834	37.81
664.023	37.59
664.211	37.52
664.399	37.39
664.587	37.2
664.775	36.94
664.963	37.14
665.152	37.18
665.34	37.29
665.528	37.38
665.716	37.48
665.904	37.44
666.092	37.48
666.28	37.59
666.468	37.69
666.656	37.98
666.844	38.15
667.032	38.04
667.22	37.85
667.408	38.11
667.596	38.01
667.784	37.68
667.971	37.67
668.159	37.77
668.347	37.81
668.535	37.92
668.723	37.61
668.911	37.38
669.098	37.45
669.286	37.64
669.474	37.41
669.662	37.37
669.849	37.45
670.037	37.45
670.225	37.47
670.413	37.55
670.6	37.64
670.788	37.93
670.976	38.16
671.163	37.95
671.351	37.79
671.538	37.8
671.726	37.99
671.913	37.98
672.101	38.08
672.289	37.88
672.476	37.49
672.664	37.3
672.851	37.28
673.039	37.04
673.226	37.21
673.413	37.17
673.601	37.49
673.788	37.69
673.976	37.76
674.163	37.52
674.35	37.74
674.538	37.97
674.725	37.89
674.912	37.65
675.1	37.67
675.287	37.52
675.474	37.36
675.662	37.26
675.849	36.98
676.036	37.08
676.223	37.39
676.411	37.07
676.598	36.99
676.785	37.23
676.972	37.47
677.159	37.63
677.346	37.89
677.533	38.15
677.721	38.11
677.908	38.24
678.095	38.33
678.282	38.25
678.469	38.57
678.656	38.81
678.843	38.72
679.03	38.6
679.217	38.63
679.404	38.47
679.591	38.4
679.778	38.24
679.964	37.98
680.151	37.75
680.338	37.73
680.525	37.63
680.712	37.63
680.899	37.59
681.086	37.59
681.272	37.42
681.459	37.61
681.646	37.68
681.833	37.88
682.02	37.97
682.206	38.08
682.393	38.12
682.58	38.11
682.766	37.79
682.953	37.86
683.14	38.07
683.326	38.25
683.513	38.17
683.7	38.11
683.886	38.06
684.073	38.17
684.259	37.95
684.446	38.32
684.632	38.07
684.819	38.12
685.005	38.12
685.192	38.1
685.378	37.93
685.565	37.94
685.751	37.77
685.938	37.91
686.124	37.99
686.31	38.31
686.497	38.08
686.683	38.27
686.87	38.54
687.056	38.28
687.242	37.85
687.429	37.96
687.615	37.87
687.801	38.03
687.987	37.57
688.174	37.77
688.36	37.63
688.546	37.57
688.732	37.59
688.918	37.41
689.105	37.66
689.291	37.78
689.477	37.72
689.663	37.58
689.849	37.25
690.035	37.5
690.221	37.24
690.407	37.41
690.593	37.37
690.779	37.5
690.965	37.43
691.151	37.46
691.337	37.73
691.523	38.03
691.709	38.46
691.895	38.61
692.081	38.65
692.267	38.52
692.453	38.53
692.639	38.64
692.825	38.3
693.011	38.36
693.196	38.23
693.382	37.98
693.568	37.75
693.754	37.58
693.94	37.8
694.125	37.81
694.311	38.11
694.497	38.2
694.682	37.89
694.868	38.28
695.054	38.55
695.239	38.58
695.425	38.65
695.611	38.66
695.796	38.53
695.982	38.71
696.168	38.76
696.353	38.54
696.539	38.12
696.724	38.22
696.91	38.14
697.095	37.69
697.281	37.62
697.466	37.58
697.652	37.57
697.837	37.71
698.023	37.5
698.208	37.57
698.393	37.41
698.579	37.72
698.764	37.77
698.949	37.63
699.135	37.63
699.32	37.5
699.505	37.49
699.691	37.53
699.876	37.38
700.061	37.48
700.246	37.32
700.432	37.43
700.617	37.11
700.802	37.12
700.987	37.17
701.172	37.53
701.358	37.81
701.543	37.67
701.728	37.71
701.913	37.82
702.098	37.53
702.283	37.39
702.468	37.33
702.653	37.39
702.838	37.59
703.023	37.43
703.208	37.07
703.393	36.86
703.578	37.34
703.763	36.93
703.948	36.75
704.133	37.23
704.318	37.64
704.503	37.83
704.688	37.54
704.873	37.41
705.057	37.98
705.242	38.44
705.427	38.73
705.612	38.41
705.797	38.71
705.981	39.11
706.166	38.96
706.351	38.79
706.536	39.27
706.72	39.47
706.905	39.24
707.09	38.8
707.274	38.82
707.459	38.58
707.644	38.74
707.828	38.92
708.013	38.92
708.197	38.92
708.382	39.16
708.567	39.13
708.751	39.18
708.936	39.01
709.12	39.02
709.305	38.58
709.489	39.05
709.673	38.8
709.858	38.72
710.042	38.59
710.227	38.65
710.411	38.46
710.596	37.98
710.78	37.97
710.964	38.45
711.149	38.5
711.333	38.7
711.517	38.53
711.702	38.31
711.886	38.28
712.07	38.28
712.254	37.89
712.438	38
712.623	37.84
712.807	37.76
712.991	37.29
713.175	36.9
713.359	36.82
713.544	36.27
713.728	36.78
713.912	36.85
714.096	36.34
714.28	36.33
714.464	36.13
714.648	36.16
714.832	36.23
715.016	36.83
715.2	37.12
715.384	36.78
715.568	37.12
715.752	37.07
715.936	36.84
716.12	37.35
716.304	37.78
716.488	37.68
716.671	37.61
716.855	37.78
717.039	37.2
717.223	37
717.407	37.24
717.59	37.58
717.774	37.4
717.958	37.4
718.142	37.33
718.325	36.97
718.509	37.07
718.693	37.36
718.877	37.04
719.06	37.23
719.244	37.05
719.428	36.79
719.611	36.48
719.795	36.83
719.978	36.82
720.162	36.9
720.345	37.26
720.529	37.38
720.713	37.21
720.896	37.44
721.08	37.25
721.263	37.92
721.446	38.37
721.63	38.41
721.813	38.6
721.997	38.85
722.18	38.47
722.364	38.08
722.547	38
722.73	38
722.914	37.68
723.097	37.62
723.28	37.65
723.464	37.66
723.647	37.75
723.83	37.26
724.013	37.38
724.197	37.96
724.38	37.89
724.563	37.56
724.746	37.32
724.929	37.78
725.112	38.42
725.296	38.07
725.479	38.14
725.662	38.2
725.845	38.47
726.028	38.45
726.211	38.37
726.394	38.71
726.577	39.19
726.76	39.49
726.943	39.37
727.126	38.94
727.309	39.25
727.492	39.2
727.675	38.94
727.858	38.82
728.041	38.45
728.224	38.14
728.407	37.85
728.589	37.82
728.772	37.86
728.955	37.69
729.138	37.78
729.321	37.99
729.503	37.87
729.686	38.04
729.869	37.7
730.052	37.99
730.234	37.88
730.417	37.93
730.6	37.71
730.782	37.58
730.965	37.77
731.148	37.53
731.33	37.31
731.513	37.38
731.695	37.53
731.878	37.63
732.061	37.29
732.243	37.6
732.426	37.74
732.608	37.92
732.791	37.97
732.973	37.79
733.156	37.82
733.338	37.55
733.52	37.55
733.703	36.89
733.885	36.74
734.068	37.13
734.25	36.73
734.432	36.72
734.615	36.81
734.797	36.66
734.979	36.74
735.162	37.05
735.344	37.13
735.526	37.38
735.708	37.94
735.891	38.21
736.073	37.76
736.255	37.83
736.437	37.14
736.619	37.01
736.802	37.39
736.984	37.37
737.166	37.05
737.348	36.93
737.53	36.56
737.712	36.23
737.894	36.25
738.076	36.67
738.258	36.85
738.44	37.11
738.622	36.61
738.804	36.44
738.986	36.52
739.168	36.81
739.35	36.37
739.532	36.56
739.714	36.8
739.896	36.46
740.078	35.85
740.259	35.8
740.441	36.25
740.623	36.44
740.805	36.25
740.987	36.21
741.168	35.81
741.35	36.54
741.532	36.22
741.714	35.86
741.895	36.05
742.077	36.32
742.259	36.13
742.44	36.1
742.622	36.22
742.804	36.42
742.985	36.43
743.167	36.35
743.348	36.18
743.53	36.23
743.711	36.55
743.893	36.37
744.075	36.54
744.256	36.69
744.438	36.23
744.619	36.8
744.8	37.11
744.982	37.03
745.163	37.28
745.345	37.22
745.526	37.42
745.707	36.53
745.889	36.85
746.07	36.9
746.252	37.09
746.433	37.42
746.614	36.76
746.795	35.74
746.977	36.2
747.158	36.51
747.339	36.56
747.52	36.56
747.702	37.63
747.883	37.92
748.064	37.94
748.245	37.69
748.426	37.06
748.607	37.4
748.788	37.78
748.97	36.74
749.151	35.99
749.332	35.87
749.513	36.09
749.694	35.73
749.875	35.91
750.056	35.55
750.237	36.41
750.418	36.9
750.599	36.5
750.78	36.63
750.96	37.29
751.141	38.07
751.322	38.56
751.503	38.48
751.684	38.47
751.865	38.14
752.046	38.45
752.226	37.43
752.407	37.93
752.588	38.59
752.769	38.7
752.949	37.96
753.13	37.51
753.311	37.31
753.492	37.35
753.672	37.37
753.853	37.36
754.034	37.22
754.214	38.36
754.395	38.16
754.575	37.38
754.756	37.69
754.937	38.18
755.117	38.38
755.298	38.11
755.478	37.77
755.659	37.71
755.839	37.34
756.02	37.59
756.2	36.46
756.381	36.24
756.561	35.8
756.741	35.52
756.922	36.34
757.102	36.14
757.283	36.55
757.463	36.21
757.643	36.59
757.823	36.57
758.004	36.36
758.184	36.74
758.364	37.76
758.545	38.77
758.725	38.88
758.905	38.38
759.085	38.48
759.265	37.85
759.446	38.72
759.626	38.54
759.806	38.67
759.986	38.79
760.166	38.18
760.346	37.28
760.526	37.04
760.706	37.04
760.886	36.92
761.066	37.13
761.246	37.47
761.426	37.15
761.606	36.6
761.786	36.91
761.966	36.84
762.146	37.03
762.326	37.3
762.506	37.37
762.686	37.25
762.866	37.66
763.046	37.31
763.225	37.41
763.405	37.06
763.585	37.4
763.765	36.94
763.945	36.96
764.124	36.86
764.304	36.37
764.484	36.04
764.664	36.05
764.843	35.78
765.023	35.85
765.203	35.63
765.382	36.22
765.562	36.32
765.741	36.47
765.921	36.68
766.101	37.12
766.28	37.34
766.46	37.42
766.639	37.76
766.819	37.51
766.998	37.4
767.178	37.92
767.357	37.6
767.537	37.18
767.716	37.46
767.896	36.94
768.075	36.99
768.254	36.94
768.434	37.1
768.613	36.48
768.792	36.71
768.972	37.04
769.151	36.83
769.33	36.9
769.51	36.89
769.689	36.66
769.868	36.52
770.047	36.18
770.226	36.62
770.406	36.19
770.585	36.62
770.764	36.91
770.943	37.08
771.122	36.24
771.301	36.23
771.48	36.43
771.66	36.4
771.839	36.94
772.018	36.85
772.197	36.42
772.376	36.66
772.555	35.98
772.734	35.26
772.913	34.84
773.092	35.13
773.271	34.51
773.449	34.54
773.628	34.91
773.807	34.34
773.986	34.45
774.165	34.12
774.344	34.31
774.523	35.09
774.701	35.05
774.88	35.01
775.059	35.45
775.238	35.01
775.417	34.72
775.595	34.81
775.774	35.34
775.953	34.78
776.131	35.18
776.31	35.36
776.489	34.75
776.667	35.58
776.846	35.82
777.025	35.38
777.203	35.74
777.382	36.72
777.56	36.05
777.739	35.6
777.917	36.52
778.096	36.25
778.274	36.64
778.453	37.21
778.631	36.36
778.81	35.98
778.988	35.95
779.166	36.7
779.345	36
779.523	35.84
779.702	36.68
779.88	36.41
780.058	36.53
780.237	35.57
780.415	34.85
780.593	35.33
780.771	36.95
780.95	38.9
781.128	39.25
781.306	39.94
781.484	40.06
781.662	39.09
781.841	39.07
782.019	38.69
782.197	38.72
782.375	38.51
782.553	37.58
782.731	36.11
782.909	34.48
783.087	33.92
783.265	33.01
783.443	33.02
783.621	33.94
783.799	34.72
783.977	36.32
784.155	35.92
784.333	36.84
784.511	37.88
784.689	37.96
784.867	38.65
785.045	38.6
785.223	38.86
785.4	40.13
785.578	39.78
785.756	39.4
785.934	39.09
786.112	39.88
786.289	39.57
786.467	39.71
786.645	39.92
786.823	38.32
787	37.4
787.178	37.06
787.356	36.54
787.533	36.87
787.711	36.74
787.889	36.2
788.066	35.8
788.244	36.43
788.421	35.72
788.599	35.63
788.776	36.42
788.954	36.75
789.131	37.04
789.309	36.78
789.486	36.46
789.664	35.85
789.841	35.92
790.019	35.82
790.196	35.36
790.373	35.97
790.551	36.03
790.728	35.37
790.906	36.09
791.083	37.67
791.26	37.58
791.437	37.44
791.615	38.11
791.792	38.79
791.969	39.54
792.146	39.12
792.324	39.28
792.501	38.51
792.678	39.23
792.855	38.31
793.032	36.71
793.209	37.44
793.387	37.48
793.564	37.32
793.741	35.95
793.918	36.34
794.095	36.57
794.272	36.56
794.449	36.9
794.626	36.62
794.803	37.04
794.98	36.92
795.157	36.85
795.334	36.29
795.511	36.06
795.688	36.58
795.864	35.78
796.041	36.26
796.218	36.01
796.395	35.2
796.572	34.86
796.749	35.2
796.925	35.62
797.102	34.91
797.279	35.68
797.456	35.41
797.632	34.96
797.809	35.56
797.986	34.87
798.162	34.18
798.339	35.37
798.516	35.71
798.692	36.03
798.869	35.76
799.046	36.17
799.222	35.01
799.399	36.5
799.575	37.06
799.752	37
799.928	36.79
800.105	37.77
800.281	37.24
800.458	37.39
800.634	36.57
800.811	36.71
800.987	36.4
801.163	37.37
801.34	35.08
801.516	35.27
801.692	34.97
801.869	35.19
802.045	34.46
802.221	34.66
802.398	34.84
802.574	35.33
802.75	34.85
802.926	34.5
803.103	34.55
803.279	34.81
803.455	33.88
803.631	34.21
803.807	35.22
803.983	35.52
804.16	35.07
804.336	35.67
804.512	36.28
804.688	36.73
804.864	37.84
805.04	38.31
805.216	39.13
805.392	40.08
805.568	39.45
805.744	39.17
805.92	38.25
806.096	39.61
806.272	38.02
806.448	37.38
806.623	36.88
806.799	36.28
806.975	35.51
807.151	35.8
807.327	35.17
807.503	36.04
807.678	34.9
807.854	35.87
808.03	36.15
808.206	38.07
808.381	38.16
808.557	39.48
808.733	39.89
808.908	40.54
809.084	40
809.26	40.21
809.435	38.78
809.611	39.94
809.787	39.09
809.962	39.02
810.138	36.81
810.313	36.52
810.489	34.77
810.664	33.62
810.84	32.99
811.015	32.71
811.191	32.83
811.366	35.32
811.542	34.59
811.717	36.13
811.892	35.12
812.068	34.84
812.243	35.82
812.419	35.97
812.594	37.32
812.769	37.63
812.944	37.76
813.12	37.43
813.295	35.41
813.47	36.29
813.645	34.01
813.821	33.71
813.996	34.81
814.171	34.11
814.346	34.26
814.521	34.34
814.697	34.46
814.872	35.17
815.047	34.64
815.222	36.57
815.397	35.95
815.572	37.85
815.747	37.79
815.922	38.22
816.097	38.25
816.272	40.16
816.447	38.79
816.622	39.06
816.797	38.83
816.972	39.74
817.147	38.64
817.322	37.8
817.496	37.88
817.671	38.21
817.846	37.59
818.021	36.71
818.196	34.12
818.371	34.77
818.545	34.5
818.72	33.94
818.895	34.22
819.069	34.18
819.244	34.72
819.419	35.13
819.594	35.09
819.768	35.44
819.943	35.64
820.117	36.38
820.292	35.4
820.467	34.55
820.641	34.53
820.816	33.69
820.99	33.15
821.165	32.64
821.339	31.94
821.514	31.62
821.688	31.32
821.863	31.11
822.037	30.99
822.212	31.1
822.386	30.97
822.56	30.83
822.735	30.76
822.909	30.8
823.084	30.87
823.258	30.8
823.432	30.93
823.606	30.9
823.781	30.7
823.955	30.29
824.129	29.93
824.303	30.01
824.478	30
824.652	30.25
824.826	29.65
825	29.85
825.174	29.91
825.348	29.78
825.523	29.85
825.697	29.99
825.871	30.59
826.045	31.17
826.219	31.36
826.393	31.79
826.567	31.95
826.741	32.36
826.915	32.18
827.089	32.35
827.263	32.13
827.437	32.21
827.611	32.68
827.784	33.16
827.958	33.6
828.132	33.4
828.306	33.16
828.48	32.72
828.654	32.97
828.827	32.88
829.001	33.6
829.175	34.32
829.349	33.79
829.522	33.58
829.696	33.48
829.87	33.05
830.044	33.59
830.217	33.59
830.391	34.09
830.565	34.08
830.738	35.12
830.912	33.62
831.085	33.29
831.259	34.71
831.432	34.57
831.606	33.83
831.779	32.72
831.953	33.52
832.126	33.77
832.3	33.22
832.473	32.93
832.647	32.28
832.82	32.13
832.994	31.73
833.167	32.59
833.34	32.9
833.514	33.16
833.687	33.66
833.86	33.42
834.034	33.08
834.207	33.57
834.38	33.36
834.553	32.41
834.727	32.19
834.9	32.38
835.073	32.17
835.246	31.92
835.419	31.58
835.593	31.61
835.766	31.05
835.939	31.66
836.112	30.44
836.285	29.77
836.458	30.53
836.631	30.32
836.804	31.11
836.977	29.1
837.15	29.83
837.323	30.29
837.496	31.2
837.669	31.87
837.842	31.39
838.015	33.36
838.188	35.34
838.361	36.24
838.533	37.91
838.706	35.96
838.879	37
839.052	35.96
839.225	35.95
839.398	36.09
839.57	34.92
839.743	35.56
839.916	35.57
840.088	35.39
840.261	36.11
840.434	35.48
840.607	37.5
840.779	37.79
840.952	37.09
841.124	36.82
841.297	35.63
841.47	36.34
841.642	35.47
841.815	34.61
841.987	34.6
842.16	33.43
842.332	35.86
842.505	34.68
842.677	33.94
842.85	33.3
843.022	33.47
843.194	32.97
843.367	34.42
843.539	35.25
843.712	35.91
843.884	36.64
844.056	35.69
844.229	33.79
844.401	36.74
844.573	38.49
844.745	41.07
844.918	41.48
845.09	43.29
845.262	42.56
845.434	42.71
845.606	42.74
845.779	43.69
845.951	49.41
846.123	44.59
846.295	42.29
846.467	41.92
846.639	41.27
846.811	39.37
846.983	36.85
847.155	34.71
847.327	36.22
847.499	36.47
847.671	34.07
847.843	30.21
848.015	34.56
848.187	31.94
848.359	31.23
848.531	37.14
848.703	38.52
848.875	43.06
849.047	41.81
849.218	38.65
849.39	40.41
849.562	42.34
849.734	45.29
849.905	48.2
850.077	50.71
850.249	52.85
850.421	46.07
850.592	45.09
850.764	44.52
850.936	48.84
851.107	49.98
851.279	49.66
851.451	48.4
851.622	47.52
851.794	44.27
851.965	45.7
852.137	45.23
852.308	45.63
852.48	47.06
852.651	47.14
852.823	43.37
852.994	43.78
853.166	42.99
853.337	41.69
853.509	43.49
853.68	44.83
853.851	45.51
854.023	41.94
854.194	43.69
854.365	41.29
854.537	40.91
854.708	41.69
854.879	40.65
855.05	39.22
855.222	42.2
855.393	37.89
855.564	39.58
855.735	36.55
855.906	38.36
856.078	37.15
856.249	40.84
856.42	38.76
856.591	41.71
856.762	42.75
856.933	42.82
857.104	41.51
857.275	39
857.446	37.31
857.617	37.77
857.788	36.37
857.959	36.65
858.13	35.67
858.301	36.67
858.472	34.15
858.643	33.75
858.814	33.89
858.985	35.75
859.155	42.59
859.326	44.02
859.497	45.97
859.668	49.04
859.839	50.29
860.009	48.18
860.18	48.81
860.351	51.35
860.522	52.88
860.692	52.27
860.863	49.55
861.034	45.92
861.204	47.26
861.375	47.72
861.546	47.09
861.716	47.92
861.887	47.3
862.057	45.95
862.228	45.18
862.398	44.68
862.569	47.5
862.739	50.31
862.91	51.6
863.08	49.91
863.251	46.85
863.421	42.8
863.592	41.05
863.762	45.24
863.932	43.07
864.103	43.56
864.273	41.63
864.443	40.66
864.614	40.88
864.784	41.2
864.954	39.55
865.125	40.44
865.295	44.43
865.465	45.27
865.635	45.41
865.805	49.67
865.976	51.95
866.146	49.36
866.316	49.84
866.486	44.64
866.656	41.51
866.826	41.98
866.996	42.58
867.166	42.14
867.336	41.07
867.506	40.07
867.676	39.58
867.846	39.58
868.016	42.83
868.186	41.58
868.356	45.6
868.526	49.96
868.696	49.75
868.866	46.68
869.036	46.69
869.206	46.7
869.376	48.35
869.545	45.61
869.715	43.2
869.885	42.33
870.055	44.21
870.224	43.85
870.394	36.87
870.564	40.31
870.734	43.58
870.903	43.16
871.073	42.6
871.243	41.35
871.412	41.43
871.582	44.8
871.751	47.48
871.921	47.32
872.091	48.95
872.26	52.34
872.43	50.99
872.599	48.9
872.769	46.43
872.938	44.7
873.108	46.29
873.277	48.59
873.446	42.31
873.616	41.48
873.785	43.47
873.955	44.21
874.124	41.53
874.293	43.04
874.463	42.21
874.632	44.2
874.801	47.91
874.971	43.94
875.14	42.36
875.309	43.83
875.478	41.58
875.647	38.46
875.817	37.01
875.986	39.43
876.155	35.87
876.324	36.94
876.493	38.27
876.662	36.09
876.831	38.91
877	38.48
877.17	41.61
877.339	45.71
877.508	46.77
877.677	45.86
877.846	46.9
878.015	48.62
878.184	46.9
878.352	46.3
878.521	46.91
878.69	47.45
878.859	47.35
879.028	46.17
879.197	41.93
879.366	41.64
879.534	41.61
879.703	42.45
879.872	40.64
880.041	40.61
880.21	38.86
880.378	36.92
880.547	34.4
880.716	32.44
880.884	32.32
881.053	32.43
881.222	32.77
881.39	31.31
881.559	30.72
881.727	30.21
881.896	30.23
882.065	29.33
882.233	28.89
882.402	29.12
882.57	29.44
882.739	28.51
882.907	28.38
883.076	27.32
883.244	27.38
883.412	26.86
883.581	26.74
883.749	26.64
883.918	27.9
884.086	28.47
884.254	28.19
884.423	29.31
884.591	29.68
884.759	29.67
884.927	30.11
885.096	31.25
885.264	31.19
885.432	30.95
885.6	30.95
885.769	29.69
885.937	29.19
886.105	30.21
886.273	29.51
886.441	29.93
886.609	30.56
886.777	31.61
886.945	30.65
887.113	31.3
887.281	33.81
887.449	33.87
887.617	34.28
887.785	36.35
887.953	38.15
888.121	37.15
888.289	38.42
888.457	38.12
888.625	39.64
888.793	40.97
888.961	41
889.129	40.86
889.296	41.04
889.464	42.25
889.632	42.22
889.8	40.68
889.967	41.03
890.135	39.84
