Data from 2938806__Reflection_03.txt Node
Date: Thu Mar 12 22:10:23 EDT 2015
User: robert
Spectrometer: USB4E03002
Autoset integration time: false
Trigger mode: 4
Integration Time (sec): 1.000000E-1
Scans to average: 10
Electric dark correction enabled: false
Nonlinearity correction enabled: false
Boxcar width: 5
Stray light correction enabled: false
XAxis mode: Wavelengths
Stop averaging: false
Number of Pixels in Spectrum: 3648
>>>>>Begin Spectral Data<<<<<
177.575	293.97
177.794	377.78
178.014	333.55
178.233	446.83
178.452	525.98
178.672	673.03
178.891	974.55
179.11	1655.88
179.33	1262.77
179.549	2489.58
179.768	33757.14
179.987	-4336.96
180.207	-3001.61
180.426	-543.67
180.645	-591.64
180.864	-843.21
181.084	-1858.26
181.303	-2047.12
181.522	-4109.8
181.741	-1535.88
181.96	-1983.93
182.179	6400
182.398	-11004.76
182.618	13882.35
182.837	2895.12
183.056	1647.41
183.275	3249.25
183.494	4246.94
183.713	3871.15
183.932	-2498.75
184.151	-1344.44
184.37	-1644.86
184.589	-836.97
184.808	-1921.59
185.027	-1040.13
185.246	-4851.43
185.465	-17120
185.684	86500
185.903	-5550
186.122	-1030
186.341	-974.55
186.56	-343.24
186.779	-451.1
186.998	-767.86
187.216	-851.09
187.435	-1433.79
187.654	-1337.16
187.873	-995.16
188.092	-598.27
188.311	-626.1
188.53	-1097.65
188.748	2485
188.967	657.32
189.186	581.44
189.405	1354.81
189.623	1191.45
189.842	3440.74
190.061	8890.48
190.28	-4362.79
190.498	1333.97
190.717	-3820.75
190.936	-1926.67
191.154	-742.59
191.373	-1173.1
191.592	-569.55
191.81	-697.28
192.029	-549.28
192.248	-591.5
192.466	-401.14
192.685	-507.16
192.904	-334.54
193.122	-533.72
193.341	-526.55
193.559	-499.69
193.778	-400.97
193.996	-507.32
194.215	-652.56
194.433	-772
194.652	-996.41
194.87	-3227.42
195.089	1438.19
195.307	3289.06
195.526	3129.23
195.744	1370.44
195.963	1434.15
196.181	1899.2
196.399	1008.37
196.618	860.45
196.836	826.39
197.055	1169.31
197.273	920.63
197.491	2919.18
197.71	873.14
197.928	1030.7
198.146	821.67
198.365	1975.25
198.583	2765.15
198.801	1038.8
199.019	1575
199.238	-36460
199.456	2018.68
199.674	5806.06
199.892	911.74
200.111	1144.32
200.329	827.98
200.547	905.19
200.765	695.91
200.983	486.65
201.202	806.1
201.42	809.65
201.638	576.19
201.856	591.96
202.074	658.78
202.292	1427.2
202.51	1088.96
202.728	826.27
202.946	1710.78
203.165	1221.94
203.383	1892.98
203.601	1003.86
203.819	2255.21
204.037	2026.21
204.255	2263.1
204.473	936.61
204.691	1018.57
204.909	1142.55
205.127	956.05
205.345	570.38
205.562	499.28
205.78	419.1
205.998	419.74
206.216	256.43
206.434	274.73
206.652	267.86
206.87	225.53
207.088	201.27
207.306	175.52
207.523	175.43
207.741	192.74
207.959	218.09
208.177	256.12
208.395	309.18
208.612	465.21
208.83	321.08
209.048	370.92
209.266	761.01
209.483	678.04
209.701	16827.27
209.919	2870.83
210.136	-5618.92
210.354	-2003.03
210.572	1320.96
210.79	1289.76
211.007	820.65
211.225	-3942.31
211.442	-4019.61
211.66	1314.49
211.878	2805.71
212.095	1561.54
212.313	2298.78
212.53	613.4
212.748	493.87
212.966	488.86
213.183	431.39
213.401	410.65
213.618	261.76
213.836	234.77
214.053	318.79
214.271	356.39
214.488	316.67
214.705	378.82
214.923	394.39
215.14	392.02
215.358	432.03
215.575	387.86
215.793	402.08
216.01	577.75
216.227	960.68
216.445	631.91
216.662	448.43
216.879	342.88
217.097	287.16
217.314	320.26
217.531	299.71
217.749	239.78
217.966	255.68
218.183	265.21
218.4	238.75
218.618	242.01
218.835	207.48
219.052	186.53
219.269	199.29
219.487	179.36
219.704	173.73
219.921	166.57
220.138	174.08
220.355	168.66
220.572	154.5
220.79	139.78
221.007	140.09
221.224	138.11
221.441	136.1
221.658	144.45
221.875	144.24
222.092	137.09
222.309	129.51
222.526	137.88
222.743	127.11
222.96	121.46
223.177	125.4
223.394	115.75
223.611	109.78
223.828	101.98
224.045	87.07
224.262	88.6
224.479	79
224.696	75.65
224.913	63.94
225.13	60.28
225.347	51.4
225.564	47.21
225.781	42.37
225.997	44.02
226.214	40.79
226.431	40.05
226.648	32.47
226.865	31.79
227.082	30.06
227.298	25.29
227.515	23.33
227.732	22.93
227.949	19.84
228.165	18.57
228.382	16.37
228.599	13.95
228.816	12.98
229.032	11.59
229.249	10.44
229.466	10.48
229.682	10.5
229.899	9.66
230.116	9.78
230.332	10.55
230.549	10.7
230.765	10.88
230.982	12.74
231.199	12.4
231.415	14.81
231.632	16.01
231.848	14.67
232.065	16.58
232.281	18.88
232.498	18.62
232.714	19.72
232.931	19.9
233.147	20.44
233.364	20.74
233.58	23.46
233.797	23.17
234.013	22.1
234.23	22.47
234.446	21.7
234.662	20.25
234.879	19.68
235.095	19.45
235.312	19.82
235.528	20.88
235.744	20.12
235.961	17
236.177	17.91
236.393	19.01
236.61	18.38
236.826	18.54
237.042	19.16
237.258	20.31
237.475	20.48
237.691	21.22
237.907	19.75
238.123	19.19
238.339	20.28
238.556	20.06
238.772	18.87
238.988	17.72
239.204	16.92
239.42	16.09
239.636	16.24
239.853	14.83
240.069	12.35
240.285	11.37
240.501	11.64
240.717	10.23
240.933	8.89
241.149	9.13
241.365	8.59
241.581	8.55
241.797	8.37
242.013	7.53
242.229	7.46
242.445	7.48
242.661	8.11
242.877	7.64
243.093	8.27
243.309	8.05
243.525	7.55
243.741	8.7
243.957	9.23
244.173	9.17
244.388	9.24
244.604	8.61
244.82	9.02
245.036	8.21
245.252	7.68
245.468	6.87
245.683	6.83
245.899	6.44
246.115	6.11
246.331	5.81
246.547	5.25
246.762	5.03
246.978	4.87
247.194	4.63
247.409	4.61
247.625	4.76
247.841	4.89
248.057	5.1
248.272	5.3
248.488	5.01
248.703	4.77
248.919	5.38
249.135	5.76
249.35	6.52
249.566	6.96
249.782	7.9
249.997	8.3
250.213	8.02
250.428	8.03
250.644	8.86
250.859	8.96
251.075	9.72
251.29	9.27
251.506	9.24
251.721	8.6
251.937	8.2
252.152	7.4
252.368	7.85
252.583	8.78
252.798	9.41
253.014	9.37
253.229	10.16
253.445	10.22
253.66	11.13
253.875	11.64
254.091	12.03
254.306	13.17
254.521	13.84
254.737	14.49
254.952	14.3
255.167	12.7
255.383	11.62
255.598	11.4
255.813	10.89
256.028	10.34
256.244	10.01
256.459	10.68
256.674	10.63
256.889	9.78
257.104	7.78
257.32	6.72
257.535	7.08
257.75	7.33
257.965	6.62
258.18	6.11
258.395	5.63
258.61	4.81
258.826	4.25
259.041	3.63
259.256	3.7
259.471	4.03
259.686	4.12
259.901	3.83
260.116	3.83
260.331	3.48
260.546	3.72
260.761	3.72
260.976	4.27
261.191	4.23
261.406	4.66
261.621	4.56
261.836	4.46
262.05	4.4
262.265	4.61
262.48	5.04
262.695	6.1
262.91	6.12
263.125	6.37
263.34	6.28
263.555	7.33
263.769	6.95
263.984	7.42
264.199	7.89
264.414	8.36
264.629	9.27
264.843	8.55
265.058	8.34
265.273	8.1
265.488	8.2
265.702	7.64
265.917	7.2
266.132	7.55
266.346	8.03
266.561	7.56
266.776	7.24
266.99	7.48
267.205	7.72
267.42	7.34
267.634	7.09
267.849	6.71
268.063	6.62
268.278	6.66
268.492	6.66
268.707	5.71
268.922	6.17
269.136	6.01
269.351	5.32
269.565	5.3
269.78	5.63
269.994	5.87
270.209	5.86
270.423	6.28
270.637	6.16
270.852	5.75
271.066	5.76
271.281	5.27
271.495	5.42
271.709	5.37
271.924	5.11
272.138	4.92
272.353	4.67
272.567	4.59
272.781	4.18
272.996	4.26
273.21	4.61
273.424	5.25
273.638	5.47
273.853	5.33
274.067	5.42
274.281	5.74
274.495	5.99
274.71	6.37
274.924	6.52
275.138	6.98
275.352	6.99
275.566	6.97
275.781	6.37
275.995	6.14
276.209	6.65
276.423	6.78
276.637	6.37
276.851	6.53
277.065	6.58
277.279	6.57
277.493	6.23
277.707	6.23
277.921	6.09
278.135	6.15
278.349	6.32
278.563	6.65
278.777	6.77
278.991	6.89
279.205	6.59
279.419	6.37
279.633	6.59
279.847	6.5
280.061	6.16
280.275	5.81
280.489	5.71
280.703	5.76
280.917	5.66
281.131	5.24
281.344	5.52
281.558	5.64
281.772	5.83
281.986	5.64
282.2	5.98
282.414	5.97
282.627	6.07
282.841	5.65
283.055	5.49
283.269	5.23
283.482	5.24
283.696	4.8
283.91	4.98
284.123	4.6
284.337	4.43
284.551	3.95
284.764	4.14
284.978	3.86
285.192	4.17
285.405	4.01
285.619	3.79
285.833	3.88
286.046	3.93
286.26	3.7
286.473	3.75
286.687	3.85
286.9	4.14
287.114	3.9
287.327	4.12
287.541	4.32
287.754	4.58
287.968	4.94
288.181	4.75
288.395	4.77
288.608	4.64
288.822	4.8
289.035	5.2
289.248	5.01
289.462	4.99
289.675	5.27
289.889	5.05
290.102	4.86
290.315	4.78
290.529	5.05
290.742	4.98
290.955	4.9
291.169	5.1
291.382	4.86
291.595	4.89
291.808	5.42
292.022	5.43
292.235	5.33
292.448	5.63
292.661	5.47
292.875	5.46
293.088	5.5
293.301	5.7
293.514	5.39
293.727	5.18
293.94	5.41
294.153	4.76
294.367	4.46
294.58	4.58
294.793	4.64
295.006	4.81
295.219	4.72
295.432	4.76
295.645	4.48
295.858	4.43
296.071	4.33
296.284	4.4
296.497	4.47
296.71	4.65
296.923	4.72
297.136	4.44
297.349	4.4
297.562	4.29
297.775	4.25
297.988	4.16
298.201	4.03
298.414	4.33
298.626	4.25
298.839	4.49
299.052	4.37
299.265	4.39
299.478	4.81
299.691	4.87
299.903	4.89
300.116	5.14
300.329	5.62
300.542	6.18
300.755	6.13
300.967	5.96
301.18	5.95
301.393	6.18
301.605	5.81
301.818	5.39
302.031	5.43
302.243	5.62
302.456	5.33
302.669	5.36
302.881	5.34
303.094	5.39
303.307	5.51
303.519	5.61
303.732	5.16
303.944	5.48
304.157	5.84
304.37	5.61
304.582	5.74
304.795	5.8
305.007	5.74
305.22	5.65
305.432	5.25
305.645	4.87
305.857	4.83
306.069	5.14
306.282	5.41
306.494	5.59
306.707	5.91
306.919	6.06
307.132	6.06
307.344	6.01
307.556	5.92
307.769	6
307.981	6.38
308.193	6.42
308.406	6.34
308.618	5.59
308.83	5.23
309.043	5.29
309.255	5.08
309.467	5.09
309.679	5.19
309.892	4.95
310.104	5.23
310.316	5.16
310.528	5.1
310.74	5.14
310.953	5.73
311.165	5.79
311.377	5.82
311.589	5.76
311.801	5.68
312.013	5.53
312.225	5.75
312.437	5.58
312.649	5.57
312.862	5.36
313.074	5.31
313.286	5.36
313.498	5.53
313.71	5.05
313.922	4.96
314.134	5.28
314.346	5.22
314.558	5.44
314.77	5.62
314.982	5.9
315.193	6.12
315.405	6.36
315.617	6.29
315.829	6.07
316.041	6.69
316.253	6.94
316.465	6.93
316.677	7.24
316.888	7.19
317.1	7.42
317.312	7.46
317.524	7.47
317.736	7.24
317.947	7.2
318.159	7.87
318.371	7.65
318.583	7.44
318.794	7.58
319.006	7.85
319.218	7.92
319.43	8.03
319.641	8
319.853	8.4
320.064	8.95
320.276	9.04
320.488	8.24
320.699	8.26
320.911	9.3
321.123	9.02
321.334	9.05
321.546	9.01
321.757	8.9
321.969	9.19
322.18	8.91
322.392	8.78
322.603	8.41
322.815	8.85
323.026	8.9
323.238	8.53
323.449	8.59
323.661	8.56
323.872	8.73
324.083	8.35
324.295	8.08
324.506	7.9
324.718	7.96
324.929	8.08
325.14	8.09
325.352	8.14
325.563	7.83
325.774	7.93
325.986	7.84
326.197	7.46
326.408	7.91
326.62	7.9
326.831	8.34
327.042	8.02
327.253	8.38
327.464	8.55
327.676	8.66
327.887	8.6
328.098	8.98
328.309	8.98
328.52	9.12
328.732	9
328.943	9.27
329.154	9.49
329.365	9.85
329.576	9.64
329.787	9.88
329.998	9.86
330.209	10.1
330.42	9.76
330.631	9.53
330.842	9.81
331.053	9.73
331.264	9.6
331.475	9.5
331.686	9.43
331.897	9.46
332.108	9.4
332.319	9.43
332.53	9.45
332.741	9.54
332.952	9.61
333.163	9.55
333.374	9.84
333.585	9.52
333.795	9.33
334.006	9.14
334.217	9.44
334.428	9.71
334.639	9.53
334.849	9.57
335.06	9.65
335.271	9.84
335.482	9.73
335.692	9.48
335.903	9.7
336.114	9.76
336.325	10.04
336.535	9.89
336.746	9.54
336.957	9.6
337.167	9.5
337.378	9.71
337.589	9.87
337.799	9.69
338.01	9.96
338.22	10.11
338.431	10.22
338.642	10.1
338.852	10.2
339.063	10.43
339.273	10.25
339.484	10.28
339.694	9.92
339.905	9.72
340.115	10.17
340.326	10.15
340.536	10.12
340.746	9.97
340.957	9.68
341.167	9.72
341.378	9.34
341.588	9.56
341.799	9.64
342.009	9.71
342.219	10.13
342.43	9.89
342.64	9.62
342.85	9.29
343.061	9.16
343.271	9.19
343.481	8.94
343.691	8.74
343.902	8.74
344.112	8.85
344.322	8.95
344.532	8.96
344.743	8.82
344.953	8.9
345.163	9.13
345.373	8.91
345.583	8.89
345.793	8.77
346.004	8.97
346.214	9.03
346.424	8.96
346.634	9.13
346.844	8.59
347.054	8.68
347.264	8.68
347.474	8.58
347.684	8.92
347.894	9.28
348.104	9.67
348.314	9.6
348.524	9.45
348.734	9.38
348.944	9.24
349.154	9.54
349.364	9.89
349.574	9.83
349.784	9.87
349.994	10.37
350.204	10.11
350.413	10
350.623	10.08
350.833	10.08
351.043	10.03
351.253	10.08
351.463	9.99
351.672	9.62
351.882	9.46
352.092	9.37
352.302	8.96
352.511	8.92
352.721	9.1
352.931	9.08
353.141	8.87
353.35	8.99
353.56	8.61
353.77	8.64
353.979	8.85
354.189	8.84
354.399	8.69
354.608	8.72
354.818	8.59
355.027	8.34
355.237	8.28
355.447	8.41
355.656	8.26
355.866	8.37
356.075	8.12
356.285	8.05
356.494	8.2
356.704	8.45
356.913	8.05
357.123	8.29
357.332	8.1
357.542	7.88
357.751	7.61
357.96	7.59
358.17	7.6
358.379	7.8
358.589	7.64
358.798	7.59
359.007	7.46
359.217	7.41
359.426	7.44
359.635	7.56
359.845	7.75
360.054	7.91
360.263	7.92
360.472	7.64
360.682	7.39
360.891	7.44
361.1	7.37
361.309	7.2
361.519	7.38
361.728	7.28
361.937	7.11
362.146	7.15
362.355	7.27
362.564	7.12
362.774	7.27
362.983	7.5
363.192	7.46
363.401	7.58
363.61	7.88
363.819	7.83
364.028	7.84
364.237	7.97
364.446	7.88
364.655	7.82
364.864	8.05
365.073	8.08
365.282	8.11
365.491	7.88
365.7	7.82
365.909	7.67
366.118	7.78
366.327	7.94
366.536	8.18
366.745	8.24
366.954	8.36
367.162	8.04
367.371	7.95
367.58	7.81
367.789	8.13
367.998	7.97
368.207	7.99
368.415	8
368.624	7.97
368.833	7.8
369.042	7.65
369.25	7.52
369.459	7.74
369.668	7.68
369.877	7.63
370.085	7.54
370.294	7.68
370.503	7.86
370.711	7.63
370.92	7.58
371.129	7.37
371.337	7.55
371.546	7.54
371.754	7.66
371.963	7.83
372.171	7.98
372.38	7.97
372.589	8.15
372.797	8.02
373.006	8.21
373.214	8.45
373.423	8.44
373.631	8.26
373.84	8.23
374.048	8.18
374.256	8.11
374.465	8.2
374.673	8.3
374.882	8.06
375.09	8.02
375.298	8
375.507	7.54
375.715	7.74
375.923	7.85
376.132	7.67
376.34	7.53
376.548	7.76
376.757	7.63
376.965	7.47
377.173	7.48
377.381	7.51
377.59	7.41
377.798	7.55
378.006	7.42
378.214	7.44
378.423	7.62
378.631	7.7
378.839	7.52
379.047	7.31
379.255	7.28
379.463	7.39
379.671	7.59
379.879	7.47
380.088	7.51
380.296	7.62
380.504	7.71
380.712	7.74
380.92	7.71
381.128	7.75
381.336	7.92
381.544	8.19
381.752	8.07
381.96	7.73
382.168	7.82
382.376	7.7
382.584	7.5
382.791	7.42
382.999	7.38
383.207	7.33
383.415	7.55
383.623	7.58
383.831	7.3
384.039	7.11
384.247	7.24
384.454	7.3
384.662	7.28
384.87	7.46
385.078	7.46
385.285	7.52
385.493	7.65
385.701	7.17
385.909	6.9
386.116	7.1
386.324	7.31
386.532	7.2
386.739	7.22
386.947	7.14
387.155	7.16
387.362	7.06
387.57	6.98
387.778	6.96
387.985	7.15
388.193	7.59
388.4	7.49
388.608	7.61
388.816	7.66
389.023	7.66
389.231	7.79
389.438	7.59
389.646	7.68
389.853	7.63
390.061	7.51
390.268	7.44
390.475	7.22
390.683	7.28
390.89	7.11
391.098	7.25
391.305	7.24
391.512	7.08
391.72	7.05
391.927	7.1
392.135	7.25
392.342	7.31
392.549	7.61
392.756	7.56
392.964	7.41
393.171	7.35
393.378	7.27
393.586	7.23
393.793	7.22
394	7.32
394.207	7.09
394.414	6.82
394.622	6.76
394.829	6.54
395.036	6.74
395.243	6.8
395.45	6.92
395.657	6.82
395.864	6.75
396.072	6.81
396.279	6.86
396.486	7.01
396.693	7.16
396.9	7.15
397.107	7.03
397.314	6.97
397.521	7.06
397.728	6.81
397.935	6.79
398.142	6.9
398.349	6.94
398.556	6.9
398.763	6.85
398.97	6.7
399.177	6.66
399.383	6.82
399.59	6.71
399.797	6.68
400.004	7.1
400.211	6.95
400.418	7.15
400.625	7.17
400.831	7.07
401.038	7.41
401.245	7.51
401.452	7.57
401.658	7.47
401.865	7.41
402.072	7.12
402.279	7.17
402.485	7.42
402.692	6.99
402.899	7.05
403.105	7.12
403.312	6.88
403.519	6.75
403.725	6.75
403.932	6.65
404.138	6.69
404.345	6.9
404.552	6.68
404.758	6.64
404.965	6.77
405.171	6.73
405.378	6.81
405.584	6.79
405.791	6.91
405.997	6.73
406.204	6.75
406.41	6.74
406.617	6.66
406.823	6.71
407.029	6.78
407.236	6.91
407.442	6.95
407.649	6.9
407.855	6.89
408.061	6.88
408.268	7.05
408.474	7.14
408.68	7.13
408.887	7.15
409.093	7.09
409.299	6.9
409.505	6.82
409.712	6.76
409.918	6.74
410.124	6.79
410.33	6.8
410.537	6.74
410.743	6.78
410.949	6.69
411.155	6.7
411.361	6.61
411.567	6.63
411.773	6.6
411.98	6.54
412.186	6.47
412.392	6.48
412.598	6.36
412.804	6.4
413.01	6.33
413.216	6.44
413.422	6.53
413.628	6.55
413.834	6.62
414.04	6.7
414.246	6.7
414.452	6.74
414.658	6.76
414.864	6.85
415.07	6.91
415.275	6.96
415.481	6.89
415.687	6.87
415.893	6.78
416.099	6.77
416.305	6.65
416.511	6.53
416.716	6.45
416.922	6.3
417.128	6.11
417.334	6.07
417.539	6
417.745	5.95
417.951	5.86
418.157	5.94
418.362	5.89
418.568	5.81
418.774	5.74
418.979	5.76
419.185	5.76
419.391	5.79
419.596	5.64
419.802	5.63
420.008	5.6
420.213	6.05
420.419	6
420.624	5.95
420.83	6.05
421.035	6.08
421.241	5.98
421.446	5.98
421.652	6.09
421.857	6.14
422.063	6.07
422.268	6.05
422.474	5.59
422.679	5.49
422.885	5.55
423.09	5.48
423.295	5.5
423.501	5.58
423.706	5.54
423.911	5.45
424.117	5.44
424.322	5.56
424.527	5.61
424.733	5.56
424.938	5.64
425.143	5.52
425.349	5.55
425.554	5.57
425.759	5.53
425.964	5.6
426.169	5.64
426.375	5.73
426.58	5.61
426.785	5.73
426.99	5.79
427.195	5.88
427.4	6.08
427.605	6.05
427.811	6.11
428.016	6.18
428.221	6.22
428.426	6.21
428.631	6.13
428.836	6.17
429.041	5.97
429.246	6.02
429.451	6.04
429.656	5.98
429.861	6.03
430.066	5.89
430.271	5.8
430.476	5.71
430.681	5.73
430.886	5.81
431.09	5.86
431.295	5.92
431.5	5.86
431.705	5.76
431.91	5.78
432.115	5.72
432.32	5.86
432.524	5.9
432.729	5.88
432.934	5.8
433.139	5.71
433.343	5.64
433.548	5.69
433.753	5.76
433.958	5.78
434.162	5.79
434.367	5.86
434.572	5.76
434.776	5.83
434.981	5.92
435.186	6.04
435.39	6.16
435.595	6.24
435.799	6.22
436.004	6.13
436.209	6.08
436.413	6.01
436.618	5.92
436.822	6.01
437.027	5.89
437.231	5.89
437.436	5.79
437.64	5.78
437.845	5.73
438.049	5.72
438.253	5.83
438.458	5.79
438.662	5.73
438.867	5.67
439.071	5.62
439.275	5.63
439.48	5.53
439.684	5.48
439.888	5.37
440.093	5.35
440.297	5.28
440.501	5.24
440.706	5.31
440.91	5.37
441.114	5.48
441.318	5.52
441.523	5.59
441.727	5.7
441.931	5.74
442.135	5.78
442.339	5.8
442.543	5.87
442.748	5.92
442.952	5.81
443.156	5.86
443.36	5.76
443.564	5.71
443.768	5.68
443.972	5.62
444.176	5.69
444.38	5.7
444.584	5.67
444.788	5.6
444.992	5.6
445.196	5.64
445.4	5.54
445.604	5.58
445.808	5.55
446.012	5.5
446.216	5.5
446.42	5.49
446.624	5.53
446.828	5.54
447.032	5.57
447.235	5.58
447.439	5.58
447.643	5.63
447.847	5.69
448.051	5.77
448.254	5.83
448.458	5.85
448.662	5.87
448.866	5.87
449.069	5.94
449.273	5.96
449.477	5.94
449.681	5.98
449.884	6
450.088	5.96
450.292	5.95
450.495	5.9
450.699	5.9
450.902	5.81
451.106	5.74
451.31	5.72
451.513	5.82
451.717	5.79
451.92	5.77
452.124	5.83
452.327	5.97
452.531	5.95
452.734	6.09
452.938	6.04
453.141	6.1
453.345	6.25
453.548	6.21
453.752	6.19
453.955	6.2
454.158	6.13
454.362	6.07
454.565	6.04
454.769	6.02
454.972	5.96
455.175	6.03
455.379	6.09
455.582	6.01
455.785	5.99
455.988	5.85
456.192	5.87
456.395	5.95
456.598	5.94
456.801	5.77
457.005	5.78
457.208	5.72
457.411	5.68
457.614	5.58
457.817	5.54
458.021	5.47
458.224	5.54
458.427	5.52
458.63	5.46
458.833	5.36
459.036	5.29
459.239	5.29
459.442	5.29
459.645	5.31
459.848	5.35
460.051	5.34
460.254	5.39
460.457	5.38
460.66	5.36
460.863	5.44
461.066	5.51
461.269	5.57
461.472	5.51
461.675	5.47
461.878	5.47
462.081	5.41
462.284	5.44
462.486	5.5
462.689	5.55
462.892	5.62
463.095	5.68
463.298	5.76
463.5	5.91
463.703	6.09
463.906	6.16
464.109	6.13
464.311	6.17
464.514	6.27
464.717	6.26
464.92	6.17
465.122	6.2
465.325	6.08
465.528	6.02
465.73	6
465.933	5.91
466.135	5.91
466.338	5.87
466.541	5.92
466.743	5.82
466.946	5.85
467.148	5.8
467.351	5.73
467.553	5.84
467.756	5.8
467.958	5.72
468.161	5.77
468.363	5.74
468.566	5.76
468.768	5.73
468.971	5.7
469.173	5.71
469.375	5.77
469.578	5.78
469.78	5.7
469.983	5.73
470.185	5.8
470.387	5.83
470.59	5.86
470.792	6.04
470.994	6.07
471.196	6.16
471.399	6.03
471.601	6.13
471.803	6.12
472.005	6.05
472.208	6.11
472.41	6.08
472.612	6.05
472.814	6.14
473.016	5.97
473.218	5.92
473.421	5.83
473.623	6.05
473.825	5.98
474.027	6.08
474.229	6.12
474.431	6.14
474.633	6.1
474.835	6.1
475.037	5.98
475.239	6.03
475.441	6.08
475.643	6.15
475.845	5.97
476.047	5.96
476.249	5.91
476.451	5.94
476.653	5.84
476.855	5.85
477.057	5.79
477.258	5.83
477.46	5.78
477.662	5.81
477.864	5.75
478.066	5.85
478.268	5.83
478.469	5.78
478.671	5.81
478.873	5.75
479.075	5.83
479.276	5.84
479.478	5.88
479.68	5.84
479.882	5.79
480.083	5.78
480.285	5.65
480.487	5.67
480.688	5.66
480.89	5.62
481.091	5.63
481.293	5.52
481.495	5.46
481.696	5.35
481.898	5.31
482.099	5.19
482.301	5.13
482.502	5.07
482.704	4.97
482.905	4.86
483.107	4.79
483.308	4.76
483.51	4.71
483.711	4.71
483.913	4.71
484.114	4.75
484.315	4.77
484.517	4.78
484.718	4.81
484.92	4.87
485.121	4.93
485.322	4.99
485.524	5.04
485.725	5.07
485.926	5.09
486.127	5.1
486.329	5.06
486.53	5.07
486.731	5.06
486.932	5.05
487.134	5.03
487.335	5
487.536	4.93
487.737	4.92
487.938	4.93
488.139	4.91
488.341	4.94
488.542	4.95
488.743	4.95
488.944	4.99
489.145	5
489.346	4.98
489.547	5.06
489.748	5.1
489.949	5.09
490.15	5.15
490.351	5.16
490.552	5.12
490.753	5.1
490.954	5.09
491.155	5.08
491.356	5.07
491.557	5.07
491.758	5.06
491.959	5.1
492.159	5.15
492.36	5.13
492.561	5.16
492.762	5.21
492.963	5.28
493.164	5.34
493.364	5.41
493.565	5.48
493.766	5.53
493.967	5.66
494.167	5.7
494.368	5.68
494.569	5.78
494.769	5.83
494.97	5.81
495.171	5.81
495.371	5.78
495.572	5.68
495.773	5.67
495.973	5.66
496.174	5.57
496.375	5.63
496.575	5.65
496.776	5.59
496.976	5.49
497.177	5.58
497.377	5.55
497.578	5.64
497.778	5.74
497.979	5.76
498.179	5.83
498.38	5.8
498.58	5.73
498.78	5.75
498.981	5.82
499.181	5.91
499.382	5.97
499.582	6.02
499.782	6.01
499.983	5.94
500.183	5.98
500.383	6.05
500.584	6.08
500.784	6.1
500.984	6.2
501.184	6.24
501.385	6.34
501.585	6.26
501.785	6.33
501.985	6.31
502.185	6.36
502.386	6.29
502.586	6.3
502.786	6.36
502.986	6.37
503.186	6.28
503.386	6.19
503.586	6.17
503.786	6.11
503.987	6.02
504.187	5.99
504.387	5.95
504.587	6.03
504.787	5.92
504.987	5.88
505.187	5.91
505.387	6.03
505.587	6.07
505.786	6.04
505.986	6.03
506.186	6.07
506.386	6.08
506.586	6.08
506.786	6.08
506.986	6.13
507.186	6.12
507.386	6.12
507.585	6
507.785	6
507.985	5.98
508.185	6.17
508.384	6.12
508.584	6.1
508.784	6.15
508.984	6.17
509.183	6.19
509.383	6.12
509.583	6.1
509.782	6.08
509.982	6.1
510.182	6.09
510.381	5.92
510.581	5.91
510.781	5.96
510.98	5.93
511.18	6.01
511.379	5.92
511.579	6.01
511.778	6.03
511.978	6.11
512.177	6.16
512.377	6.24
512.576	6.33
512.776	6.44
512.975	6.5
513.175	6.58
513.374	6.49
513.573	6.59
513.773	6.53
513.972	6.57
514.172	6.58
514.371	6.6
514.57	6.56
514.77	6.56
514.969	6.56
515.168	6.62
515.367	6.61
515.567	6.59
515.766	6.6
515.965	6.73
516.164	6.72
516.364	6.69
516.563	6.65
516.762	6.56
516.961	6.56
517.16	6.5
517.359	6.44
517.559	6.43
517.758	6.45
517.957	6.43
518.156	6.37
518.355	6.38
518.554	6.39
518.753	6.34
518.952	6.37
519.151	6.36
519.35	6.36
519.549	6.32
519.748	6.35
519.947	6.36
520.146	6.43
520.345	6.47
520.544	6.47
520.743	6.49
520.942	6.58
521.141	6.65
521.339	6.59
521.538	6.6
521.737	6.72
521.936	6.75
522.135	6.81
522.333	6.74
522.532	6.79
522.731	6.81
522.93	6.83
523.129	6.84
523.327	6.81
523.526	6.87
523.725	6.87
523.923	6.77
524.122	6.66
524.321	6.61
524.519	6.57
524.718	6.57
524.917	6.52
525.115	6.48
525.314	6.47
525.512	6.43
525.711	6.4
525.909	6.4
526.108	6.38
526.306	6.42
526.505	6.4
526.703	6.37
526.902	6.34
527.1	6.27
527.299	6.24
527.497	6.2
527.696	6.22
527.894	6.17
528.092	6.16
528.291	6.17
528.489	6.17
528.688	6.16
528.886	6.21
529.084	6.24
529.283	6.31
529.481	6.37
529.679	6.43
529.877	6.51
530.076	6.65
530.274	6.72
530.472	6.82
530.67	6.89
530.869	6.94
531.067	6.95
531.265	6.93
531.463	6.96
531.661	6.93
531.859	6.87
532.057	6.84
532.255	6.77
532.454	6.73
532.652	6.67
532.85	6.65
533.048	6.68
533.246	6.69
533.444	6.71
533.642	6.77
533.84	6.8
534.038	6.86
534.236	6.89
534.434	6.93
534.632	7.04
534.83	7.1
535.027	7.18
535.225	7.24
535.423	7.31
535.621	7.38
535.819	7.4
536.017	7.43
536.215	7.48
536.412	7.45
536.61	7.52
536.808	7.48
537.006	7.51
537.203	7.52
537.401	7.59
537.599	7.66
537.797	7.65
537.994	7.7
538.192	7.76
538.39	7.8
538.587	7.83
538.785	7.83
538.983	7.87
539.18	7.84
539.378	7.74
539.575	7.72
539.773	7.66
539.97	7.6
540.168	7.52
540.366	7.45
540.563	7.45
540.761	7.45
540.958	7.44
541.155	7.4
541.353	7.44
541.55	7.51
541.748	7.51
541.945	7.53
542.143	7.59
542.34	7.64
542.537	7.67
542.735	7.68
542.932	7.8
543.129	7.86
543.327	7.95
543.524	8
543.721	8.03
543.919	8.17
544.116	8.26
544.313	8.41
544.51	8.49
544.708	8.6
544.905	8.66
545.102	8.67
545.299	8.65
545.496	8.69
545.693	8.7
545.891	8.8
546.088	8.67
546.285	8.58
546.482	8.43
546.679	8.41
546.876	8.42
547.073	8.55
547.27	8.51
547.467	8.6
547.664	8.67
547.861	8.79
548.058	8.72
548.255	8.82
548.452	8.9
548.649	9.13
548.846	9.15
549.043	9.16
549.24	8.96
549.437	9.04
549.633	9
549.83	9.05
550.027	9.07
550.224	9.22
550.421	9.22
550.618	9.34
550.814	9.2
551.011	9.26
551.208	9.22
551.405	9.27
551.601	9.25
551.798	9.31
551.995	9.11
552.191	8.99
552.388	8.75
552.585	8.81
552.781	8.69
552.978	8.64
553.175	8.78
553.371	8.88
553.568	8.96
553.764	8.99
553.961	8.99
554.157	9.07
554.354	9.14
554.55	9.33
554.747	9.3
554.943	9.36
555.14	9.35
555.336	9.2
555.533	9.25
555.729	9.27
555.926	9.19
556.122	9.3
556.318	9.39
556.515	9.32
556.711	9.37
556.907	9.41
557.104	9.45
557.3	9.65
557.496	9.73
557.693	9.78
557.889	9.82
558.085	9.91
558.281	9.74
558.478	9.73
558.674	9.7
558.87	9.75
559.066	9.75
559.262	9.66
559.459	9.67
559.655	9.61
559.851	9.53
560.047	9.48
560.243	9.47
560.439	9.57
560.635	9.64
560.831	9.72
561.027	9.71
561.223	9.57
561.419	9.61
561.615	9.51
561.811	9.59
562.007	9.57
562.203	9.58
562.399	9.51
562.595	9.45
562.791	9.44
562.987	9.48
563.183	9.48
563.379	9.68
563.575	9.77
563.771	9.71
563.966	9.6
564.162	9.66
564.358	9.64
564.554	9.8
564.75	9.77
564.945	9.63
565.141	9.59
565.337	9.56
565.533	9.49
565.728	9.38
565.924	9.49
566.12	9.48
566.315	9.45
566.511	9.43
566.707	9.32
566.902	9.33
567.098	9.37
567.293	9.43
567.489	9.5
567.684	9.41
567.88	9.58
568.076	9.6
568.271	9.7
568.467	9.68
568.662	9.57
568.858	9.6
569.053	9.61
569.248	9.71
569.444	9.73
569.639	9.64
569.835	9.62
570.03	9.51
570.225	9.42
570.421	9.34
570.616	9.39
570.812	9.49
571.007	9.49
571.202	9.54
571.397	9.46
571.593	9.38
571.788	9.36
571.983	9.44
572.178	9.46
572.374	9.42
572.569	9.5
572.764	9.45
572.959	9.49
573.154	9.56
573.35	9.53
573.545	9.66
573.74	9.73
573.935	9.7
574.13	9.69
574.325	9.73
574.52	9.91
574.715	10.03
574.91	10.06
575.105	10.17
575.3	10.12
575.495	10.18
575.69	10.16
575.885	10.11
576.08	10.24
576.275	10.3
576.47	10.31
576.665	10.38
576.86	10.32
577.055	10.3
577.25	10.3
577.444	10.33
577.639	10.36
577.834	10.41
578.029	10.56
578.224	10.69
578.418	10.76
578.613	10.81
578.808	10.59
579.003	10.55
579.197	10.65
579.392	10.65
579.587	10.81
579.781	10.94
579.976	10.96
580.171	11.04
580.365	11.04
580.56	11.01
580.755	11.07
580.949	11.16
581.144	11.22
581.338	11.25
581.533	11.28
581.727	11.31
581.922	11.17
582.116	11.1
582.311	11.04
582.505	10.89
582.7	10.99
582.894	10.98
583.089	11.1
583.283	11.14
583.478	11.14
583.672	11.09
583.866	10.96
584.061	10.94
584.255	10.94
584.449	10.96
584.644	11.07
584.838	11.11
585.032	11.13
585.226	11.05
585.421	11.05
585.615	11.11
585.809	11.17
586.003	11.25
586.198	11.34
586.392	11.36
586.586	11.47
586.78	11.52
586.974	11.5
587.168	11.51
587.363	11.55
587.557	11.55
587.751	11.56
587.945	11.57
588.139	11.53
588.333	11.43
588.527	11.38
588.721	11.31
588.915	11.21
589.109	11.24
589.303	11.09
589.497	11.01
589.691	10.94
589.885	10.93
590.079	10.81
590.273	10.92
590.466	10.96
590.66	11.06
590.854	11.09
591.048	11.16
591.242	11.14
591.436	11.34
591.629	11.47
591.823	11.6
592.017	11.52
592.211	11.55
592.404	11.43
592.598	11.41
592.792	11.38
592.986	11.37
593.179	11.29
593.373	11.22
593.567	11.19
593.76	11.12
593.954	11.06
594.147	10.95
594.341	11.03
594.535	10.96
594.728	10.89
594.922	10.76
595.115	10.59
595.309	10.59
595.502	10.51
595.696	10.46
595.889	10.49
596.083	10.43
596.276	10.53
596.47	10.44
596.663	10.39
596.856	10.4
597.05	10.5
597.243	10.46
597.437	10.54
597.63	10.65
597.823	10.6
598.017	10.51
598.21	10.6
598.403	10.57
598.596	10.56
598.79	10.74
598.983	10.74
599.176	10.8
599.369	10.91
599.563	10.9
599.756	10.83
599.949	11.01
600.142	11.07
600.335	11.11
600.528	11.19
600.722	11.31
600.915	11.26
601.108	11.4
601.301	11.38
601.494	11.47
601.687	11.51
601.88	11.37
602.073	11.43
602.266	11.49
602.459	11.35
602.652	11.27
602.845	11.25
603.038	11.16
603.231	10.94
603.424	10.75
603.617	10.73
603.809	10.6
604.002	10.67
604.195	10.59
604.388	10.53
604.581	10.56
604.774	10.6
604.966	10.63
605.159	10.73
605.352	10.97
605.545	11.16
605.737	11.18
605.93	11.34
606.123	11.42
606.316	11.5
606.508	11.58
606.701	11.68
606.894	11.67
607.086	11.74
607.279	11.8
607.471	11.66
607.664	11.7
607.857	11.63
608.049	11.52
608.242	11.47
608.434	11.41
608.627	11.46
608.819	11.45
609.012	11.67
609.204	11.7
609.397	11.77
609.589	12.09
609.782	12.16
609.974	12.47
610.166	12.7
610.359	13.09
610.551	13.42
610.743	13.75
610.936	14.09
611.128	14.23
611.32	14.56
611.513	14.75
611.705	14.94
611.897	15.28
612.09	15.34
612.282	15.42
612.474	15.39
612.666	15.33
612.858	15.28
613.051	15.19
613.243	15.09
613.435	14.95
613.627	14.87
613.819	14.63
614.011	14.52
614.203	14.47
614.395	14.43
614.588	14.19
614.78	14.13
614.972	13.99
615.164	13.92
615.356	14.07
615.548	14
615.74	13.97
615.932	13.96
616.124	13.79
616.315	13.73
616.507	13.7
616.699	13.71
616.891	13.74
617.083	13.7
617.275	13.58
617.467	13.34
617.659	13.22
617.85	13.29
618.042	13.33
618.234	13.41
618.426	13.31
618.618	13.18
618.809	13.12
619.001	12.95
619.193	12.94
619.384	12.93
619.576	12.82
619.768	12.98
619.959	12.89
620.151	12.81
620.343	12.67
620.534	12.72
620.726	12.82
620.917	12.95
621.109	13
621.301	13.07
621.492	12.94
621.684	13.02
621.875	12.86
622.067	12.82
622.258	12.81
622.45	12.66
622.641	12.65
622.832	12.67
623.024	12.73
623.215	12.64
623.407	12.61
623.598	12.85
623.789	12.9
623.981	12.94
624.172	12.85
624.363	12.77
624.555	12.83
624.746	12.83
624.937	12.74
625.129	12.51
625.32	12.45
625.511	12.32
625.702	12.08
625.893	12.16
626.085	12.1
626.276	12.19
626.467	12.32
626.658	12.29
626.849	12.07
627.04	12.12
627.231	12.24
627.422	12.41
627.614	12.36
627.805	12.48
627.996	12.33
628.187	12.42
628.378	12.42
628.569	12.34
628.76	12.47
628.951	12.71
629.142	12.79
629.332	12.74
629.523	12.79
629.714	13
629.905	13.06
630.096	13.1
630.287	13.01
630.478	12.91
630.669	13
630.859	13.01
631.05	13
631.241	12.83
631.432	12.74
631.623	12.72
631.813	12.54
632.004	12.69
632.195	12.65
632.385	12.65
632.576	12.89
632.767	12.68
632.957	12.44
633.148	12.27
633.339	12.45
633.529	12.64
633.72	12.43
633.91	12.6
634.101	12.29
634.292	12.3
634.482	12.44
634.673	12.33
634.863	12.38
635.054	12.45
635.244	12.71
635.435	12.6
635.625	12.52
635.815	12.52
636.006	12.52
636.196	12.75
636.387	12.9
636.577	12.79
636.767	12.8
636.958	12.77
637.148	12.72
637.338	12.66
637.529	12.77
637.719	12.87
637.909	13.05
638.099	12.89
638.29	12.89
638.48	12.86
638.67	12.99
638.86	12.89
639.05	12.99
639.241	13.24
639.431	13.26
639.621	13.16
639.811	13.28
640.001	13.1
640.191	13.02
640.381	13.01
640.571	12.98
640.761	12.72
640.951	12.87
641.141	12.71
641.331	12.68
641.521	12.62
641.711	12.74
641.901	12.81
642.091	12.92
642.281	12.95
642.471	12.72
642.661	12.71
642.851	12.98
643.041	12.94
643.231	12.97
643.42	13.08
643.61	13.02
643.8	12.8
643.99	12.49
644.18	12.73
644.369	12.93
644.559	13.15
644.749	13.22
644.939	13.14
645.128	13.17
645.318	13.36
645.508	13.23
645.697	13.31
645.887	13.43
646.076	13.41
646.266	13.2
646.456	13.24
646.645	13.36
646.835	13.46
647.024	13.53
647.214	13.41
647.403	13.37
647.593	13.52
647.782	13.58
647.972	13.75
648.161	13.94
648.351	14.14
648.54	14.05
648.73	13.88
648.919	13.72
649.108	13.65
649.298	13.71
649.487	13.99
649.677	14.05
649.866	14.01
650.055	14.03
650.244	13.95
650.434	13.75
650.623	13.93
650.812	13.97
651.002	14.06
651.191	14.16
651.38	14.3
651.569	14.05
651.758	13.86
651.947	13.89
652.137	13.73
652.326	13.76
652.515	13.97
652.704	13.78
652.893	13.83
653.082	13.74
653.271	13.6
653.46	13.46
653.649	13.3
653.838	13.35
654.027	13.28
654.216	13.31
654.405	13.44
654.594	13.38
654.783	13.45
654.972	13.61
655.161	13.71
655.35	13.75
655.539	13.77
655.728	14.01
655.916	14.02
656.105	14.06
656.294	13.87
656.483	13.8
656.672	13.75
656.86	13.85
657.049	13.62
657.238	13.54
657.427	13.42
657.615	13.19
657.804	13.19
657.993	13.11
658.181	13.1
658.37	13.17
658.559	12.92
658.747	12.93
658.936	12.99
659.125	12.73
659.313	12.76
659.502	12.87
659.69	13.15
659.879	13.12
660.067	13.22
660.256	13.19
660.444	13.4
660.633	13.63
660.821	13.56
661.01	13.47
661.198	13.76
661.387	13.73
661.575	13.84
661.763	13.73
661.952	13.78
662.14	14
662.328	14.14
662.517	14.03
662.705	14.06
662.893	14.01
663.082	13.89
663.27	14.08
663.458	13.91
663.646	13.89
663.834	14.18
664.023	14.31
664.211	14.18
664.399	14.09
664.587	14.21
664.775	14.26
664.963	14.69
665.152	14.73
665.34	15.01
665.528	15.05
665.716	14.83
665.904	14.81
666.092	14.73
666.28	14.53
666.468	14.62
666.656	14.56
666.844	14.55
667.032	14.14
667.22	14.25
667.408	13.89
667.596	14.19
667.784	14.48
667.971	14.4
668.159	14.36
668.347	14.32
668.535	14.3
668.723	14.03
668.911	14.1
669.098	14.39
669.286	14.33
669.474	14.44
669.662	14.44
669.849	14.3
670.037	14.28
670.225	14.02
670.413	14.39
670.6	14.35
670.788	14.76
670.976	14.68
671.163	14.53
671.351	14.62
671.538	14.47
671.726	14.23
671.913	14.09
672.101	14.09
672.289	14.35
672.476	14.04
672.664	14.09
672.851	13.91
673.039	13.74
673.226	13.71
673.413	13.82
673.601	13.89
673.788	14.21
673.976	14.45
674.163	14.39
674.35	14.5
674.538	14.66
674.725	14.71
674.912	14.72
675.1	14.96
675.287	15.19
675.474	15.09
675.662	15.09
675.849	14.82
676.036	14.75
676.223	14.87
676.411	14.53
676.598	14.56
676.785	14.66
676.972	14.63
677.159	14.53
677.346	14.42
677.533	14.3
677.721	14.26
677.908	14.47
678.095	14.53
678.282	14.36
678.469	14.5
678.656	14.53
678.843	14.32
679.03	14.13
679.217	14.15
679.404	14
679.591	14.08
679.778	13.95
679.964	13.93
680.151	13.98
680.338	14.14
680.525	14.37
680.712	14.33
680.899	14.54
681.086	14.81
681.272	14.57
681.459	14.74
681.646	14.81
681.833	15.01
682.02	15.02
682.206	14.9
682.393	14.86
682.58	14.67
682.766	14.56
682.953	14.57
683.14	14.46
683.326	14.96
683.513	14.89
683.7	14.74
683.886	14.9
684.073	14.8
684.259	14.81
684.446	14.85
684.632	14.95
684.819	15.41
685.005	15.32
685.192	15.34
685.378	15.19
685.565	15.63
685.751	15.85
685.938	15.8
686.124	16.1
686.31	16.08
686.497	16.15
686.683	16.13
686.87	15.84
687.056	15.89
687.242	16.1
687.429	16.13
687.615	16.1
687.801	16.06
687.987	16.02
688.174	15.8
688.36	15.99
688.546	15.83
688.732	16.02
688.918	15.8
689.105	15.82
689.291	15.84
689.477	15.8
689.663	15.65
689.849	15.79
690.035	15.76
690.221	15.99
690.407	16.09
690.593	16.11
690.779	16.22
690.965	16.29
691.151	16.29
691.337	16.2
691.523	16.09
691.709	16.29
691.895	16.05
692.081	16.28
692.267	16.14
692.453	15.82
692.639	15.96
692.825	15.75
693.011	16.05
693.196	15.98
693.382	15.89
693.568	15.84
693.754	15.69
693.94	16.19
694.125	15.93
694.311	15.88
694.497	16.14
694.682	16.17
694.868	15.88
695.054	15.66
695.239	15.93
695.425	16.04
695.611	16.3
695.796	16.31
695.982	15.75
696.168	15.86
696.353	16.08
696.539	16.1
696.724	15.86
696.91	16.04
697.095	15.82
697.281	15.55
697.466	15.24
697.652	14.99
697.837	14.69
698.023	14.62
698.208	14.32
698.393	14.12
698.579	13.78
698.764	13.74
698.949	13.69
699.135	13.71
699.32	13.57
699.505	13.67
699.691	13.6
699.876	13.51
700.061	13.86
700.246	14.13
700.432	14.2
700.617	14.22
700.802	14.42
700.987	14.66
701.172	15.08
701.358	15.31
701.543	15.24
701.728	15.46
701.913	15.9
702.098	15.83
702.283	15.74
702.468	15.8
702.653	16.17
702.838	16.06
703.023	16.15
703.208	15.94
703.393	15.96
703.578	16.58
703.763	16.4
703.948	16.21
704.133	16.11
704.318	16.04
704.503	15.85
704.688	15.91
704.873	15.98
705.057	15.73
705.242	15.9
705.427	16.08
705.612	15.9
705.797	16.41
705.981	16.6
706.166	16.65
706.351	17.12
706.536	17.78
706.72	17.88
706.905	18.34
707.09	18.27
707.274	17.95
707.459	18.03
707.644	18.23
707.828	18.24
708.013	18.49
708.197	18.54
708.382	18.31
708.567	17.99
708.751	18.22
708.936	17.92
709.12	18.12
709.305	18.28
709.489	18.35
709.673	18.1
709.858	18.04
710.042	17.75
710.227	17.86
710.411	17.85
710.596	17.78
710.78	17.55
710.964	17.63
711.149	17.51
711.333	17.46
711.517	17.1
711.702	17.29
711.886	17.33
712.07	17.14
712.254	16.74
712.438	16.97
712.623	17.13
712.807	17.2
712.991	17.27
713.175	17.09
713.359	16.8
713.544	17.02
713.728	16.89
713.912	16.83
714.096	16.97
714.28	16.92
714.464	16.82
714.648	16.51
714.832	16.66
715.016	16.41
715.2	16.39
715.384	16.75
715.568	16.48
715.752	16.15
715.936	16.06
716.12	16.08
716.304	16.24
716.488	16.29
716.671	16.29
716.855	15.79
717.039	15.82
717.223	15.95
717.407	16.22
717.59	16.46
717.774	16.84
717.958	17.09
718.142	17.31
718.325	17.7
718.509	17.61
718.693	17.93
718.877	18.46
719.06	17.94
719.244	17.84
719.428	17.81
719.611	18.16
719.795	18.49
719.978	18.24
720.162	18.16
720.345	17.96
720.529	17.93
720.713	18.13
720.896	17.91
721.08	18.47
721.263	18.67
721.446	18.17
721.63	17.76
721.813	17.86
721.997	18.12
722.18	17.89
722.364	18.33
722.547	18.43
722.73	18.04
722.914	18.46
723.097	18.74
723.28	18.5
723.464	18.98
723.647	19.2
723.83	19.15
724.013	19.01
724.197	18.9
724.38	18.58
724.563	18.76
724.746	18.7
724.929	18.5
725.112	18.43
725.296	18.53
725.479	18.1
725.662	17.69
725.845	17.4
726.028	17.14
726.211	17.29
726.394	17.29
726.577	16.92
726.76	17.13
726.943	16.86
727.126	16.75
727.309	17.15
727.492	17.04
727.675	16.96
727.858	16.64
728.041	16.83
728.224	17.17
728.407	17.02
728.589	17.08
728.772	16.86
728.955	16.94
729.138	16.82
729.321	16.78
729.503	16.57
729.686	17
729.869	17.39
730.052	16.86
730.234	16.48
730.417	16.66
730.6	16.67
730.782	16.59
730.965	16.67
731.148	16.72
731.33	16.54
731.513	16.84
731.695	16.67
731.878	16.77
732.061	17.14
732.243	17.08
732.426	16.72
732.608	16.98
732.791	17.17
732.973	16.89
733.156	16.97
733.338	16.8
733.52	17.28
733.703	17.51
733.885	17.49
734.068	17.43
734.25	17.44
734.432	17.44
734.615	17.44
734.797	17.71
734.979	18.23
735.162	18.58
735.344	18.71
735.526	18.4
735.708	18.24
735.891	18.12
736.073	18.41
736.255	18.67
736.437	19.08
736.619	19.11
736.802	18.79
736.984	18.52
737.166	18.5
737.348	18.65
737.53	18.89
737.712	18.27
737.894	18.26
738.076	18.35
738.258	18.05
738.44	18.16
738.622	18.16
738.804	18.43
738.986	18.31
739.168	18.36
739.35	18.72
739.532	19.05
739.714	20.27
739.896	19.96
740.078	19.94
740.259	20.79
740.441	20.47
740.623	20.23
740.805	20.49
740.987	20.63
741.168	20.57
741.35	20.33
741.532	19.47
741.714	18.92
741.895	19.03
742.077	18.65
742.259	18.39
742.44	18.73
742.622	18.66
742.804	18.4
742.985	18.68
743.167	18.08
743.348	18.04
743.53	18.79
743.711	18.92
743.893	19.58
744.075	20.34
744.256	19.71
744.438	19.47
744.619	19.1
744.8	18.73
744.982	18.26
745.163	19.05
745.345	19.42
745.526	19.18
745.707	18.76
745.889	18.73
746.07	18.78
746.252	19.57
746.433	19.74
746.614	20.62
746.795	20.59
746.977	21.23
747.158	20.52
747.339	19.83
747.52	19.3
747.702	19.69
747.883	19.35
748.064	19.12
748.245	18.69
748.426	18.89
748.607	18.56
748.788	19.66
748.97	19.36
749.151	20.24
749.332	20.94
749.513	21.65
749.694	21.53
749.875	22.15
750.056	21.81
750.237	22.38
750.418	22.25
750.599	22.74
750.78	22.16
750.96	22.14
751.141	22.53
751.322	22.25
751.503	22.26
751.684	22.39
751.865	21.65
752.046	21.91
752.226	21.65
752.407	21.48
752.588	21.3
752.769	21.5
752.949	21.42
753.13	20.65
753.311	20.49
753.492	20.11
753.672	20.28
753.853	20.06
754.034	20.07
754.214	20.76
754.395	21.43
754.575	21.16
754.756	20.93
754.937	20.89
755.117	21.05
755.298	21.01
755.478	20.93
755.659	20.74
755.839	21.45
756.02	21.99
756.2	21.69
756.381	21.11
756.561	21.84
756.741	22.08
756.922	22.28
757.102	22.45
757.283	22.42
757.463	22.98
757.643	23.59
757.823	23.1
758.004	22.65
758.184	22.54
758.364	23.06
758.545	22.93
758.725	22.56
758.905	22.58
759.085	22.67
759.265	22.3
759.446	21.45
759.626	21.22
759.806	20.93
759.986	20.79
760.166	20
760.346	19.21
760.526	18.31
760.706	18.19
760.886	17.65
761.066	16.75
761.246	17.35
761.426	17.98
761.606	17.37
761.786	17.38
761.966	17.13
762.146	17.27
762.326	17.56
762.506	17.04
762.686	17.22
762.866	16.99
763.046	16.87
763.225	16.79
763.405	16.16
763.585	15.65
763.765	16.01
763.945	16.21
764.124	16.13
764.304	16.07
764.484	16.7
764.664	16.69
764.843	16.89
765.023	16.79
765.203	16.6
765.382	17.53
765.562	18.27
765.741	18.32
765.921	18.31
766.101	18.89
766.28	19.47
766.46	19.63
766.639	18.81
766.819	19.44
766.998	20.16
767.178	20.13
767.357	19.9
767.537	19.65
767.716	19.42
767.896	19.63
768.075	19.25
768.254	18.57
768.434	19.48
768.613	20.4
768.792	19.92
768.972	20.14
769.151	20.51
769.33	20.93
769.51	21.64
769.689	21.54
769.868	22.25
770.047	22.21
770.226	22.74
770.406	21.08
770.585	21.45
770.764	21.81
770.943	21.72
771.122	21.56
771.301	21.39
771.48	21.15
771.66	22.12
771.839	21.39
772.018	20.84
772.197	20.38
772.376	21.44
772.555	20.89
772.734	21.32
772.913	20.58
773.092	20.97
773.271	21.03
773.449	20.81
773.628	20.09
773.807	20.27
773.986	21.16
774.165	20.54
774.344	20
774.523	19.61
774.701	19.15
774.88	19.91
775.059	20.36
775.238	20.52
775.417	20.87
775.595	20.42
775.774	20.55
775.953	20.04
776.131	21.92
776.31	22.83
776.489	23.59
776.667	23.65
776.846	24.2
777.025	23.44
777.203	22.5
777.382	22.49
777.56	23.21
777.739	23.62
777.917	24.34
778.096	23.9
778.274	23.06
778.453	23.19
778.631	22.94
778.81	22.26
778.988	23.25
779.166	23.62
779.345	23.76
779.523	24.54
779.702	23.42
779.88	23.74
780.058	22.69
780.237	22.93
780.415	22.39
780.593	22.73
780.771	24.07
780.95	23.2
781.128	23.06
781.306	22.84
781.484	21.99
781.662	22.73
781.841	21.74
782.019	23.07
782.197	22.3
782.375	23.05
782.553	22.76
782.731	21.36
782.909	21.93
783.087	22.08
783.265	22.39
783.443	22.75
783.621	22.85
783.799	23.02
783.977	22.66
784.155	22.75
784.333	22.89
784.511	23.79
784.689	24.26
784.867	23.59
785.045	23.56
785.223	24.57
785.4	24.68
785.578	24.39
785.756	24.15
785.934	23.37
786.112	24.46
786.289	23.57
786.467	22.33
786.645	21.24
786.823	21.36
787	21.26
787.178	19.92
787.356	19.51
787.533	19.95
787.711	20.5
787.889	20.34
788.066	19.73
788.244	19.22
788.421	20.05
788.599	20.76
788.776	20.57
788.954	20.39
789.131	20.26
789.309	20.31
789.486	20.51
789.664	20.25
789.841	20.71
790.019	20.64
790.196	22.6
790.373	22.23
790.551	22.7
790.728	23.52
790.906	23.94
791.083	23.29
791.26	24.14
791.437	24.06
791.615	23.99
791.792	23.96
791.969	24.93
792.146	24.65
792.324	24.88
792.501	25.88
792.678	25.36
792.855	25.5
793.032	25.65
793.209	25.03
793.387	23.56
793.564	23.51
793.741	23.38
793.918	23.05
794.095	22.64
794.272	22.93
794.449	21.86
794.626	21.77
794.803	21.44
794.98	21.95
795.157	22.05
795.334	22.05
795.511	21.69
795.688	22.78
795.864	22.55
796.041	23.34
796.218	22.99
796.395	23.17
796.572	23.23
796.749	23.45
796.925	23.55
797.102	24.34
797.279	24.79
797.456	25.76
797.632	25.24
797.809	24.76
797.986	24.01
798.162	24.44
798.339	24.5
798.516	24.84
798.692	24.89
798.869	25.63
799.046	23.91
799.222	24.97
799.399	25.01
799.575	25.59
799.752	26.49
799.928	26.77
800.105	26.83
800.281	25.96
800.458	25.4
800.634	25.45
800.811	25.83
800.987	27.09
801.163	27.19
801.34	27.01
801.516	26.52
801.692	25.72
801.869	26.57
802.045	25.96
802.221	26.75
802.398	26.86
802.574	26.85
802.75	26.95
802.926	26.53
803.103	25.78
803.279	26.21
803.455	25.05
803.631	25.5
803.807	24.56
803.983	25.79
804.16	26.03
804.336	27.34
804.512	28.39
804.688	27.91
804.864	28.85
805.04	29.03
805.216	29.64
805.392	30.79
805.568	32.51
805.744	32.48
805.92	31.74
806.096	30.87
806.272	30.16
806.448	28.67
806.623	29.02
806.799	28.4
806.975	29.05
807.151	27.6
807.327	27.33
807.503	26.46
807.678	25.29
807.854	26.73
808.03	27.3
808.206	26.89
808.381	27.28
808.557	26.14
808.733	25.7
808.908	23.84
809.084	24.92
809.26	25.7
809.435	25.1
809.611	26.2
809.787	26.72
809.962	25.93
810.138	26.62
810.313	27.48
810.489	29.17
810.664	30.22
810.84	32.35
811.015	32.79
811.191	32.21
811.366	32.8
811.542	31.93
811.717	30.87
811.892	32.4
812.068	32.54
812.243	32.94
812.419	32.92
812.594	32.61
812.769	32
812.944	31.29
813.12	30.39
813.295	30.71
813.47	30.85
813.645	31.79
813.821	30.1
813.996	29.91
814.171	28.8
814.346	28.1
814.521	28.96
814.697	28.25
814.872	26.37
815.047	27.86
815.222	29.11
815.397	31.52
815.572	31.61
815.747	31.99
815.922	31.68
816.097	31
816.272	29.51
816.447	27.67
816.622	29.39
816.797	29.36
816.972	29.61
817.147	29.41
817.322	27.48
817.496	24.23
817.671	24.43
817.846	24.98
818.021	26.71
818.196	27.6
818.371	27.35
818.545	26.84
818.72	27.2
818.895	27.05
819.069	24.72
819.244	24.39
819.419	25.17
819.594	24.92
819.768	23.74
819.943	22.6
820.117	21.64
820.292	20.57
820.467	18.78
820.641	18.28
820.816	16.11
820.99	15.6
821.165	14.91
821.339	14.26
821.514	13.49
821.688	12.8
821.863	12.08
822.037	11.9
822.212	11.67
822.386	11.52
822.56	11.53
822.735	11.65
822.909	11.62
823.084	11.38
823.258	11.4
823.432	11.41
823.606	11.97
823.781	12.44
823.955	12.68
824.129	13.16
824.303	13.63
824.478	14.09
824.652	14.9
824.826	15.61
825	16.71
825.174	17.14
825.348	17.76
825.523	17.54
825.697	18.06
825.871	17.86
826.045	17.62
826.219	17.2
826.393	16.44
826.567	15.92
826.741	15.37
826.915	14.74
827.089	14.4
827.263	14.5
827.437	14.35
827.611	13.99
827.784	14.38
827.958	15.19
828.132	16.06
828.306	16.45
828.48	16.64
828.654	16.88
828.827	17.83
829.001	19.33
829.175	19.54
829.349	20.27
829.522	21.39
829.696	22.56
829.87	22.25
830.044	23.2
830.217	24.12
830.391	24.95
830.565	26.08
830.738	26.81
830.912	26.42
831.085	26.85
831.259	27.71
831.432	26.73
831.606	27.89
831.779	28.29
831.953	27.45
832.126	26.57
832.3	26.14
832.473	25.1
832.647	23.3
832.82	22.67
832.994	21.66
833.167	21.48
833.34	20.8
833.514	18.81
833.687	18.18
833.86	16.59
834.034	16.18
834.207	16.11
834.38	16.53
834.553	17.3
834.727	17.44
834.9	18.79
835.073	18.63
835.246	19.29
835.419	19.55
835.593	20.57
835.766	21.49
835.939	23.28
836.112	24.08
836.285	24.15
836.458	24.51
836.631	24.48
836.804	24.45
836.977	25.17
837.15	25.88
837.323	27.65
837.496	27.73
837.669	30.31
837.842	30.55
838.015	33.5
838.188	36.02
838.361	36.5
838.533	36.54
838.706	37.27
838.879	38.08
839.052	40.74
839.225	40.55
839.398	39.26
839.57	40.37
839.743	39.13
839.916	36.63
840.088	33.63
840.261	32.71
840.434	34.34
840.607	33.87
840.779	35.96
840.952	34.12
841.124	33.24
841.297	34.28
841.47	32.03
841.642	33.05
841.815	33.59
841.987	36.67
842.16	39.64
842.332	40.8
842.505	42.13
842.677	39.86
842.85	40.62
843.022	42.4
843.194	44.15
843.367	46.26
843.539	46.97
843.712	49.17
843.884	48.85
844.056	52.49
844.229	55.35
844.401	54.55
844.573	56.74
844.745	57.22
844.918	60.31
845.09	60.12
845.262	60.31
845.434	60.05
845.606	60.96
845.779	63.39
845.951	57.57
846.123	56.06
846.295	59.83
846.467	57.85
846.639	62.04
846.811	59.94
846.983	59.49
847.155	60.84
847.327	62.26
847.499	61.4
847.671	62.53
847.843	67.09
848.015	65.95
848.187	64.13
848.359	68.62
848.531	62.66
848.703	63.56
848.875	69.23
849.047	63.87
849.218	63.25
849.39	60.39
849.562	58.75
849.734	57.39
849.905	61.3
850.077	62.66
850.249	59.92
850.421	65.19
850.592	66.03
850.764	59.9
850.936	60.96
851.107	59.11
851.279	57.96
851.451	58.93
851.622	60.31
851.794	57.41
851.965	54.87
852.137	56.82
852.308	55.63
852.48	56.63
852.651	54.32
852.823	58.23
852.994	60.76
853.166	66.18
853.337	64.66
853.509	64.5
853.68	65.67
853.851	67.88
854.023	66.46
854.194	66.49
854.365	65.24
854.537	71.26
854.708	74.74
854.879	81.42
855.05	76.31
855.222	77.62
855.393	77.41
855.564	76.13
855.735	74.06
855.906	73.97
856.078	72.77
856.249	71.56
856.42	65.46
856.591	62.67
856.762	55.84
856.933	56.15
857.104	53.11
857.275	52.51
857.446	55.93
857.617	60.08
857.788	56.76
857.959	59.73
858.13	65.94
858.301	72.3
858.472	73.74
858.643	74.46
858.814	76.22
858.985	80.24
859.155	81.63
859.326	77.76
859.497	74.97
859.668	75.22
859.839	72.97
860.009	67.64
860.18	66.54
860.351	65.32
860.522	67.02
860.692	66.88
860.863	67.79
861.034	65.79
861.204	66.66
861.375	66.3
861.546	74.28
861.716	74.74
861.887	76.74
862.057	77.6
862.228	79.35
862.398	76.83
862.569	78.06
862.739	74.88
862.91	77.85
863.08	78.87
863.251	76.14
863.421	76.44
863.592	73.62
863.762	72.98
863.932	72.35
864.103	69.93
864.273	76.39
864.443	77.63
864.614	76.43
864.784	73.71
864.954	77.15
865.125	84.07
865.295	76.98
865.465	79.94
865.635	76.54
865.805	74.46
865.976	73.08
866.146	69.31
866.316	70.31
866.486	73.57
866.656	74.96
866.826	71.11
866.996	69.2
867.166	73.52
867.336	74.01
867.506	77.66
867.676	79.15
867.846	85.07
868.016	83.02
868.186	78.64
868.356	78.56
868.526	75.58
868.696	73.19
868.866	75.67
869.036	73.08
869.206	70.23
869.376	68.11
869.545	71.77
869.715	74.3
869.885	77.17
870.055	80.64
870.224	81.04
870.394	83.78
870.564	86.07
870.734	82.43
870.903	81.26
871.073	83.27
871.243	86.73
871.412	81.84
871.582	75.51
871.751	77.59
871.921	74.41
872.091	73.46
872.26	72.37
872.43	69.64
872.599	68.56
872.769	73.26
872.938	70.54
873.108	66.72
873.277	70.5
873.446	71.66
873.616	68.16
873.785	70.93
873.955	72.87
874.124	74.25
874.293	76.75
874.463	75.34
874.632	70.18
874.801	73.15
874.971	73.98
875.14	69.08
875.309	67.91
875.478	73.47
875.647	72.27
875.817	71.4
875.986	71.08
876.155	72.79
876.324	73.3
876.493	74.75
876.662	70.02
876.831	71.49
877	72.34
877.17	73.68
877.339	66.86
877.508	64.95
877.677	61.6
877.846	59.66
878.015	60.15
878.184	64.26
878.352	62.79
878.521	66.52
878.69	65.55
878.859	62.37
879.028	60.22
879.197	56.88
879.366	55.45
879.534	52.24
879.703	48.57
879.872	43.77
880.041	39.31
880.21	35.47
880.378	31.89
880.547	27.86
880.716	25.24
880.884	21.82
881.053	20.6
881.222	20.58
881.39	19.97
881.559	19.33
881.727	18.9
881.896	18.3
882.065	18.26
882.233	18.26
882.402	18.13
882.57	18.09
882.739	19.03
882.907	19.33
883.076	18.13
883.244	18.12
883.412	18.44
883.581	18.57
883.749	19.17
883.918	19.87
884.086	20.8
884.254	21.95
884.423	22.94
884.591	23.58
884.759	24.2
884.927	26.35
885.096	28.43
885.264	30.71
885.432	33.03
885.6	33.92
885.769	36.58
885.937	36.82
886.105	40.32
886.273	42.86
886.441	45.71
886.609	49.19
886.777	53.17
886.945	55.95
887.113	56.19
887.281	57.86
887.449	59.82
887.617	64.14
887.785	64.29
887.953	67.43
888.121	68
888.289	68.9
888.457	69.28
888.625	66.44
888.793	70.22
888.961	70.93
889.129	70.06
889.296	69.07
889.464	64.38
889.632	67.95
889.8	60.22
889.967	61.53
890.135	60.86
