Data from 2938727__Reflection_03.txt Node
Date: Sun Mar 15 19:31:14 EDT 2015
User: robert
Spectrometer: USB4E03002
Autoset integration time: false
Trigger mode: 4
Integration Time (sec): 1.000000E-1
Scans to average: 10
Electric dark correction enabled: false
Nonlinearity correction enabled: false
Boxcar width: 5
Stray light correction enabled: false
XAxis mode: Wavelengths
Stop averaging: false
Number of Pixels in Spectrum: 3648
>>>>>Begin Spectral Data<<<<<
177.575	162.5
177.794	3500
178.014	-190.63
178.233	1250
178.452	182
178.672	86.67
178.891	105.13
179.11	73.75
179.33	47.23
179.549	-13.25
179.768	16.8
179.987	-66.07
180.207	-155.84
180.426	-502.86
180.645	-378.57
180.864	-933.33
181.084	48.15
181.303	84.21
181.522	44.08
181.741	-29.8
181.96	-71.78
182.179	-100
182.398	197.46
182.618	245.95
182.837	102.45
183.056	103.12
183.275	0.72
183.494	68.7
183.713	46.63
183.932	35.89
184.151	-61.8
184.37	-6.79
184.589	-127.56
184.808	-176.62
185.027	-135.15
185.246	-242.18
185.465	-129.26
185.684	-104.21
185.903	-160.44
186.122	-132.29
186.341	-95.28
186.56	-112.5
186.779	-160.16
186.998	-202.95
187.216	-130.75
187.435	-172.24
187.654	-292.75
187.873	-635.21
188.092	902.86
188.311	-52.63
188.53	-39.02
188.748	-130.77
188.967	67.42
189.186	124.39
189.405	211.72
189.623	304.81
189.842	53.78
190.061	51.92
190.28	70.15
190.498	91.27
190.717	106.04
190.936	121.92
191.154	77.58
191.373	67.66
191.592	-37.11
191.81	-15.86
192.029	-9.54
192.248	39.11
192.466	7.17
192.685	57.74
192.904	-20
193.122	-5.95
193.341	-7.41
193.559	15.72
193.778	24.05
193.996	101.9
194.215	53.52
194.433	53.53
194.652	-10.95
194.87	-30.77
195.089	-64.79
195.307	-23.28
195.526	-42.49
195.744	-63.11
195.963	-273.15
196.181	-1166.67
196.399	-731.33
196.618	1915
196.836	1004.17
197.055	-112.12
197.273	-25.26
197.491	-42.86
197.71	315.38
197.928	-297.62
198.146	208.75
198.365	-3088.89
198.583	-213.04
198.801	-261.11
199.019	-27.6
199.238	-63.27
199.456	-90
199.674	-36.71
199.892	-55.45
200.111	-137.78
200.329	44.85
200.547	84.31
200.765	100.95
200.983	115.72
201.202	85.98
201.42	88.18
201.638	88.53
201.856	85.24
202.074	108.33
202.292	90
202.51	101.17
202.728	62.28
202.946	49.5
203.165	38.82
203.383	31.77
203.601	9.37
203.819	23.82
204.037	44.56
204.255	26.83
204.473	-25.73
204.691	-55.03
204.909	-55.41
205.127	-54.56
205.345	-61.15
205.562	-8.53
205.78	2.41
205.998	9.46
206.216	8.14
206.434	-30.95
206.652	-34.05
206.87	-15.11
207.088	-0.51
207.306	-4.73
207.523	-13.09
207.741	-30.27
207.959	-117.88
208.177	-184.3
208.395	-293.4
208.612	-394.9
208.83	-481.2
209.048	-236.45
209.266	-228.42
209.483	-302.55
209.701	-196.72
209.919	-218.83
210.136	-83.62
210.354	-81.55
210.572	-126.89
210.79	-99.67
211.007	-166.16
211.225	-116.52
211.442	-131.32
211.66	-70.66
211.878	-45.61
212.095	-140.63
212.313	-171.69
212.53	-178
212.748	-194.86
212.966	-95.98
213.183	-79.38
213.401	-46.95
213.618	-43.08
213.836	-51.9
214.053	-103.02
214.271	-95.7
214.488	31.77
214.705	41.08
214.923	25.21
215.14	44.62
215.358	19.55
215.575	-7.79
215.793	-4.75
216.01	-20.38
216.227	-28
216.445	-12.63
216.662	-25
216.879	-44.04
217.097	-53.77
217.314	-45.56
217.531	-68.34
217.749	-34.41
217.966	-74.52
218.183	-117.13
218.4	-60.51
218.618	-46.15
218.835	-49.92
219.052	-72.28
219.269	-52.27
219.487	-41.33
219.704	-31.29
219.921	-4.23
220.138	-7.44
220.355	14.31
220.572	25.52
220.79	12.21
221.007	20.38
221.224	17.88
221.441	9.83
221.658	-5.31
221.875	5.66
222.092	3.49
222.309	-11.2
222.526	-10.25
222.743	-9.76
222.96	-19.58
223.177	-18.87
223.394	-15.17
223.611	-19.73
223.828	-6.44
224.045	-7.97
224.262	-8.79
224.479	-13.33
224.696	-13.2
224.913	-10.71
225.13	-12.93
225.347	-8.89
225.564	-4.76
225.781	1.08
225.997	3.43
226.214	1.31
226.431	6.24
226.648	2.28
226.865	3.95
227.082	5.29
227.298	4.55
227.515	6
227.732	7.95
227.949	6.92
228.165	4.31
228.382	4.37
228.599	4.51
228.816	4.39
229.032	5.08
229.249	3.92
229.466	3.38
229.682	3.14
229.899	2.79
230.116	0.55
230.332	-0.24
230.549	-1
230.765	-0.53
230.982	-1.17
231.199	-0.47
231.415	-1.23
231.632	-0.5
231.848	-1.57
232.065	-1.31
232.281	-4.32
232.498	-4.32
232.714	-3.23
232.931	-2.14
233.147	-3.25
233.364	-3.41
233.58	-6.61
233.797	-6.44
234.013	-6.46
234.23	-6.8
234.446	-7.38
234.662	-5.44
234.879	-5.51
235.095	-8.65
235.312	-7.59
235.528	-7.98
235.744	-8.02
235.961	-7.85
236.177	-8.25
236.393	-8.54
236.61	-7.99
236.826	-9.2
237.042	-7.21
237.258	-4.64
237.475	-0.44
237.691	-2.25
237.907	-1.29
238.123	-1.11
238.339	-0.75
238.556	-0.35
238.772	1.81
238.988	2.57
239.204	4.48
239.42	4.56
239.636	4.75
239.853	4.35
240.069	4.13
240.285	3.57
240.501	1.6
240.717	2.74
240.933	3.61
241.149	2.68
241.365	3.39
241.581	3.2
241.797	3.41
242.013	2.3
242.229	2.03
242.445	2.67
242.661	2.46
242.877	3.7
243.093	3.01
243.309	2.62
243.525	2.99
243.741	3.4
243.957	3.19
244.173	2.54
244.388	3.64
244.604	3.68
244.82	3.41
245.036	3.96
245.252	4.37
245.468	3.92
245.683	4.14
245.899	3.61
246.115	3.63
246.331	4.59
246.547	4.9
246.762	4.96
246.978	4.81
247.194	4.83
247.409	5.28
247.625	5.18
247.841	5.67
248.057	5.6
248.272	5.84
248.488	5.42
248.703	4.96
248.919	4.5
249.135	4.34
249.35	4.29
249.566	4.44
249.782	3.95
249.997	2.92
250.213	2.31
250.428	2.52
250.644	2.45
250.859	2.84
251.075	1.84
251.29	1.85
251.506	1.31
251.721	1.88
251.937	1.26
252.152	0.77
252.368	1
252.583	1.38
252.798	1.66
253.014	1.52
253.229	0.85
253.445	0.7
253.66	0.96
253.875	0.15
254.091	0.6
254.306	0.81
254.521	-0.17
254.737	0.41
254.952	-0.33
255.167	-1.09
255.383	0.12
255.598	0.54
255.813	1.13
256.028	1.1
256.244	1.66
256.459	0.27
256.674	-0.03
256.889	-0.09
257.104	-0.16
257.32	0.42
257.535	0.3
257.75	0.23
257.965	0.13
258.18	0.34
258.395	0.63
258.61	1.56
258.826	1.94
259.041	1.99
259.256	2.49
259.471	2.79
259.686	3.09
259.901	3.2
260.116	3.36
260.331	3.5
260.546	3.54
260.761	3.41
260.976	3.09
261.191	2.76
261.406	3.1
261.621	2.88
261.836	2.27
262.05	2.19
262.265	1.75
262.48	0.79
262.695	0.14
262.91	0.7
263.125	0.02
263.34	-0.16
263.555	0.24
263.769	-0.61
263.984	-0.64
264.199	-0.09
264.414	-0.53
264.629	-0.06
264.843	0.75
265.058	1.85
265.273	1.24
265.488	1.63
265.702	2.05
265.917	1.94
266.132	2.64
266.346	2.97
266.561	3.16
266.776	3.22
266.99	3.13
267.205	3.16
267.42	2.81
267.634	2.32
267.849	2.53
268.063	2.58
268.278	2.49
268.492	2.22
268.707	1.96
268.922	2.03
269.136	1.75
269.351	1.47
269.565	1.64
269.78	1.61
269.994	2.01
270.209	2.39
270.423	2.61
270.637	2.56
270.852	2.76
271.066	2.61
271.281	2.53
271.495	2.53
271.709	2.6
271.924	2.33
272.138	1.92
272.353	1.95
272.567	1.67
272.781	1.39
272.996	0.97
273.21	0.82
273.424	0.77
273.638	0.33
273.853	0.5
274.067	1.07
274.281	1.25
274.495	1.7
274.71	1.68
274.924	1.63
275.138	1.3
275.352	2.22
275.566	2.22
275.781	2.49
275.995	2.95
276.209	2.65
276.423	2.23
276.637	1.81
276.851	1.26
277.065	1.62
277.279	1.44
277.493	1.9
277.707	1.12
277.921	0.75
278.135	0.72
278.349	0.37
278.563	0.8
278.777	0.42
278.991	0.4
279.205	1.35
279.419	0.95
279.633	1.32
279.847	1.46
280.061	2.01
280.275	2.46
280.489	2.36
280.703	2.57
280.917	2.2
281.131	2.54
281.344	2.51
281.558	2.07
281.772	2.06
281.986	2.12
282.2	1.6
282.414	1.62
282.627	1.46
282.841	1.31
283.055	1.21
283.269	1.52
283.482	1.11
283.696	1.05
283.91	1.04
284.123	1.06
284.337	0.98
284.551	0.8
284.764	1.14
284.978	1.01
285.192	1.3
285.405	1.18
285.619	0.64
285.833	0.77
286.046	0.97
286.26	0.94
286.473	0.88
286.687	0.86
286.9	1.14
287.114	0.8
287.327	0.85
287.541	0.67
287.754	0.65
287.968	0.73
288.181	0.46
288.395	0.47
288.608	0.69
288.822	0.95
289.035	0.93
289.248	0.91
289.462	1.1
289.675	1.19
289.889	1.32
290.102	1.27
290.315	1.98
290.529	2.12
290.742	2.04
290.955	2.06
291.169	1.91
291.382	2.55
291.595	2.57
291.808	2.74
292.022	2.88
292.235	3.29
292.448	3.28
292.661	2.62
292.875	2.46
293.088	2.65
293.301	2.86
293.514	2.85
293.727	2.12
293.94	2.65
294.153	2.1
294.367	2.26
294.58	1.84
294.793	2.26
295.006	2.7
295.219	3
295.432	3.22
295.645	3.08
295.858	3.58
296.071	3.71
296.284	3.36
296.497	3.78
296.71	3.64
296.923	3.93
297.136	3.85
297.349	3.69
297.562	3.79
297.775	3.58
297.988	3.5
298.201	3.16
298.414	3.21
298.626	3.51
298.839	3.22
299.052	3.16
299.265	2.96
299.478	2.89
299.691	3.11
299.903	3.13
300.116	3.35
300.329	3.41
300.542	3.88
300.755	3.77
300.967	3.43
301.18	3.76
301.393	3.86
301.605	3.63
301.818	4.13
302.031	3.98
302.243	3.98
302.456	4.01
302.669	4.1
302.881	3.57
303.094	4.08
303.307	4.01
303.519	4.31
303.732	4.33
303.944	4.7
304.157	4.24
304.37	4.6
304.582	4.65
304.795	4.4
305.007	4.36
305.22	4.42
305.432	4.04
305.645	4.4
305.857	3.58
306.069	3.59
306.282	3.01
306.494	3.27
306.707	2.95
306.919	2.81
307.132	2.69
307.344	2.83
307.556	3.17
307.769	3.34
307.981	3.2
308.193	3.52
308.406	3.67
308.618	4.28
308.83	4.12
309.043	4.12
309.255	4.52
309.467	4.78
309.679	4.92
309.892	4.66
310.104	4.13
310.316	4.51
310.528	4.71
310.74	4.87
310.953	4.76
311.165	4.75
311.377	4.88
311.589	4.58
311.801	4.43
312.013	4.48
312.225	4.47
312.437	4.95
312.649	4.63
312.862	4.47
313.074	4.49
313.286	4.86
313.498	5.27
313.71	5.28
313.922	5.37
314.134	5.49
314.346	5.44
314.558	5.02
314.77	5.06
314.982	5.46
315.193	5.58
315.405	5.23
315.617	5.1
315.829	4.69
316.041	4.6
316.253	4.66
316.465	4.77
316.677	4.76
316.888	5.27
317.1	5.07
317.312	4.64
317.524	4.29
317.736	4.83
317.947	4.22
318.159	4.14
318.371	4.13
318.583	4.5
318.794	4.39
319.006	4.6
319.218	4.59
319.43	5.01
319.641	5.23
319.853	5.41
320.064	5.42
320.276	5.36
320.488	6.01
320.699	6.48
320.911	6.31
321.123	6.65
321.334	6.1
321.546	6.54
321.757	6.15
321.969	5.93
322.18	6.04
322.392	5.64
322.603	6.14
322.815	6.15
323.026	5.86
323.238	5.32
323.449	5.11
323.661	5.55
323.872	5.93
324.083	6.1
324.295	6.46
324.506	6.61
324.718	6.59
324.929	6.95
325.14	6.8
325.352	6.78
325.563	7.08
325.774	7.06
325.986	7.27
326.197	7.24
326.408	7.3
326.62	6.94
326.831	6.92
327.042	7.14
327.253	7.01
327.464	6.93
327.676	7.45
327.887	7.69
328.098	7.78
328.309	7.74
328.52	7.48
328.732	7.76
328.943	7.86
329.154	7.45
329.365	6.89
329.576	6.77
329.787	6.52
329.998	6.04
330.209	5.76
330.42	6
330.631	5.96
330.842	5.79
331.053	5.64
331.264	5.91
331.475	6.54
331.686	7.04
331.897	7.11
332.108	7.26
332.319	7.48
332.53	7.48
332.741	7.46
332.952	7.4
333.163	7.58
333.374	7.34
333.585	7.38
333.795	7.31
334.006	7.17
334.217	7.44
334.428	7.33
334.639	6.81
334.849	6.69
335.06	6.88
335.271	6.68
335.482	6.67
335.692	7.08
335.903	6.87
336.114	7.03
336.325	7.2
336.535	6.74
336.746	6.6
336.957	7.34
337.167	7.83
337.378	7.5
337.589	7.94
337.799	7.92
338.01	7.62
338.22	7.68
338.431	7.9
338.642	8.01
338.852	7.89
339.063	8.21
339.273	7.81
339.484	7.5
339.694	7.52
339.905	7.03
340.115	7.15
340.326	7.43
340.536	7.7
340.746	7.13
340.957	6.91
341.167	7.17
341.378	7.23
341.588	7.16
341.799	7.16
342.009	7.24
342.219	7.24
342.43	7.25
342.64	6.91
342.85	6.76
343.061	6.86
343.271	6.75
343.481	7.1
343.691	7.22
343.902	7.38
344.112	7.44
344.322	7.54
344.532	7.57
344.743	7.3
344.953	7.65
345.163	7.68
345.373	7.52
345.583	7.59
345.793	7.08
346.004	6.9
346.214	6.57
346.424	6.34
346.634	6.03
346.844	5.94
347.054	6.05
347.264	6.23
347.474	6.06
347.684	5.91
347.894	5.86
348.104	5.81
348.314	5.39
348.524	6.05
348.734	6.22
348.944	6.5
349.154	6.55
349.364	6.78
349.574	6.28
349.784	6.4
349.994	6.82
350.204	6.88
350.413	6.92
350.623	7.61
350.833	7.42
351.043	7.34
351.253	7.14
351.463	6.95
351.672	6.28
351.882	6.46
352.092	6.2
352.302	6.24
352.511	6.1
352.721	6.23
352.931	6.03
353.141	5.76
353.35	5.65
353.56	5.66
353.77	5.88
353.979	6.64
354.189	6.56
354.399	6.71
354.608	6.49
354.818	6.65
355.027	7
355.237	7.05
355.447	7
355.656	7.19
355.866	7.14
356.075	7.15
356.285	6.75
356.494	6.74
356.704	6.73
356.913	7.02
357.123	7.23
357.332	6.92
357.542	6.6
357.751	6.62
357.96	6.6
358.17	6.84
358.379	6.66
358.589	6.6
358.798	6.74
359.007	6.69
359.217	6.35
359.426	6.13
359.635	6.08
359.845	6.25
360.054	5.99
360.263	6.14
360.472	5.97
360.682	6.3
360.891	6.18
361.1	6.09
361.309	5.93
361.519	5.99
361.728	6.04
361.937	6.2
362.146	6.04
362.355	6.11
362.564	5.99
362.774	5.91
362.983	5.78
363.192	5.97
363.401	5.93
363.61	6.06
363.819	6.04
364.028	5.87
364.237	5.62
364.446	5.85
364.655	6.19
364.864	6.09
365.073	6.18
365.282	6.13
365.491	6.22
365.7	6.22
365.909	6.28
366.118	6.54
366.327	6.59
366.536	6.6
366.745	6.69
366.954	6.58
367.162	6.72
367.371	6.71
367.58	6.63
367.789	6.54
367.998	6.57
368.207	6.63
368.415	6.67
368.624	6.41
368.833	6.31
369.042	5.85
369.25	5.66
369.459	5.21
369.668	5.27
369.877	5.68
370.085	5.59
370.294	5.63
370.503	5.54
370.711	5.27
370.92	5.66
371.129	5.52
371.337	6
371.546	6.04
371.754	6.27
371.963	6.15
372.171	5.58
372.38	5.72
372.589	5.4
372.797	5.35
373.006	5.18
373.214	5.04
373.423	5.03
373.631	4.62
373.84	4.75
374.048	5.06
374.256	4.87
374.465	5.05
374.673	4.98
374.882	5.23
375.09	5.23
375.298	5.23
375.507	5.04
375.715	5.3
375.923	5.34
376.132	5.11
376.34	4.89
376.548	4.98
376.757	5.06
376.965	5.12
377.173	5.02
377.381	5.13
377.59	5.17
377.798	5.07
378.006	5.26
378.214	5.29
378.423	5.55
378.631	5.43
378.839	5.54
379.047	5.43
379.255	5.13
379.463	5.09
379.671	4.91
379.879	5.05
380.088	5.2
380.296	4.94
380.504	4.71
380.712	4.62
380.92	4.54
381.128	4.56
381.336	4.57
381.544	4.9
381.752	4.9
381.96	4.84
382.168	4.67
382.376	4.77
382.584	4.67
382.791	4.81
382.999	4.62
383.207	4.79
383.415	4.52
383.623	4.76
383.831	4.51
384.039	4.54
384.247	4.75
384.454	4.61
384.662	4.72
384.87	4.8
385.078	4.78
385.285	4.85
385.493	4.82
385.701	4.84
385.909	4.73
386.116	4.79
386.324	4.73
386.532	4.53
386.739	4.63
386.947	4.34
387.155	4.06
387.362	4.21
387.57	4.16
387.778	3.87
387.985	4
388.193	3.78
388.4	3.74
388.608	3.76
388.816	3.78
389.023	3.81
389.231	3.74
389.438	3.76
389.646	3.6
389.853	3.49
390.061	3.67
390.268	3.47
390.475	3.43
390.683	3.15
390.89	3.07
391.098	3.1
391.305	2.99
391.512	3.18
391.72	3.54
391.927	3.3
392.135	3.19
392.342	3.22
392.549	3.24
392.756	3.29
392.964	3.34
393.171	3.3
393.378	3.16
393.586	3.2
393.793	3.23
394	3.06
394.207	3.28
394.414	3.38
394.622	3.49
394.829	3.52
395.036	3.3
395.243	3.43
395.45	3.64
395.657	3.7
395.864	3.7
396.072	3.4
396.279	3.44
396.486	3.71
396.693	3.75
396.9	3.59
397.107	3.79
397.314	3.89
397.521	3.91
397.728	3.73
397.935	3.9
398.142	3.84
398.349	4.06
398.556	3.93
398.763	3.7
398.97	3.71
399.177	3.62
399.383	3.48
399.59	3.54
399.797	3.42
400.004	3.46
400.211	3.38
400.418	3.49
400.625	3.48
400.831	3.55
401.038	3.42
401.245	3.38
401.452	3.47
401.658	3.55
401.865	3.54
402.072	3.47
402.279	3.41
402.485	3.14
402.692	3.1
402.899	3.03
403.105	3
403.312	2.94
403.519	2.97
403.725	2.99
403.932	2.97
404.138	3.04
404.345	3.18
404.552	3.16
404.758	3.43
404.965	3.27
405.171	3.24
405.378	3.29
405.584	3.33
405.791	3.32
405.997	3.35
406.204	3.23
406.41	3.18
406.617	3.02
406.823	3.15
407.029	2.95
407.236	3.09
407.442	3.16
407.649	3.28
407.855	3.3
408.061	3.31
408.268	3.17
408.474	3.24
408.68	3.2
408.887	3.35
409.093	3.37
409.299	3.41
409.505	3.62
409.712	3.42
409.918	3.31
410.124	3.24
410.33	3.12
410.537	3.15
410.743	3.2
410.949	3.42
411.155	3.34
411.361	3.3
411.567	3.29
411.773	3.14
411.98	3.26
412.186	3.32
412.392	3.38
412.598	3.42
412.804	3.34
413.01	3.36
413.216	2.96
413.422	2.99
413.628	2.88
413.834	2.89
414.04	2.81
414.246	2.68
414.452	2.7
414.658	2.92
414.864	2.84
415.07	2.87
415.275	2.72
415.481	2.81
415.687	2.76
415.893	2.77
416.099	2.57
416.305	2.55
416.511	2.73
416.716	2.81
416.922	2.83
417.128	3
417.334	3.14
417.539	3.18
417.745	3.26
417.951	3.42
418.157	3.41
418.362	3.6
418.568	3.69
418.774	3.76
418.979	3.58
419.185	3.55
419.391	3.56
419.596	3.54
419.802	3.51
420.008	3.54
420.213	2.79
420.419	2.83
420.624	2.85
420.83	2.87
421.035	2.84
421.241	2.84
421.446	2.86
421.652	2.84
421.857	2.89
422.063	2.94
422.268	3.01
422.474	3.71
422.679	3.7
422.885	3.65
423.09	3.56
423.295	3.53
423.501	3.53
423.706	3.49
423.911	3.48
424.117	3.44
424.322	3.42
424.527	3.39
424.733	3.33
424.938	3.33
425.143	3.39
425.349	3.43
425.554	3.41
425.759	3.47
425.964	3.44
426.169	3.46
426.375	3.4
426.58	3.4
426.785	3.34
426.99	3.54
427.195	3.58
427.4	3.57
427.605	3.57
427.811	3.6
428.016	3.53
428.221	3.59
428.426	3.65
428.631	3.7
428.836	3.66
429.041	3.74
429.246	3.57
429.451	3.62
429.656	3.57
429.861	3.64
430.066	3.63
430.271	3.63
430.476	3.6
430.681	3.53
430.886	3.58
431.09	3.64
431.295	3.57
431.5	3.58
431.705	3.47
431.91	3.39
432.115	3.35
432.32	3.41
432.524	3.33
432.729	3.27
432.934	3.3
433.139	3.26
433.343	3.25
433.548	3.31
433.753	3.23
433.958	3.28
434.162	3.47
434.367	3.6
434.572	3.54
434.776	3.75
434.981	3.77
435.186	3.78
435.39	3.74
435.595	3.87
435.799	3.81
436.004	3.9
436.209	4.03
436.413	3.93
436.618	3.82
436.822	3.87
437.027	3.82
437.231	3.91
437.436	3.93
437.64	3.96
437.845	3.9
438.049	3.96
438.253	3.86
438.458	3.8
438.662	3.81
438.867	3.82
439.071	3.82
439.275	3.8
439.48	3.69
439.684	3.56
439.888	3.49
440.093	3.36
440.297	3.38
440.501	3.39
440.706	3.35
440.91	3.33
441.114	3.24
441.318	3.23
441.523	3.23
441.727	3.29
441.931	3.29
442.135	3.36
442.339	3.53
442.543	3.51
442.748	3.55
442.952	3.56
443.156	3.54
443.36	3.65
443.564	3.68
443.768	3.69
443.972	3.64
444.176	3.67
444.38	3.65
444.584	3.6
444.788	3.55
444.992	3.53
445.196	3.55
445.4	3.56
445.604	3.55
445.808	3.44
446.012	3.39
446.216	3.39
446.42	3.48
446.624	3.54
446.828	3.47
447.032	3.4
447.235	3.36
447.439	3.35
447.643	3.34
447.847	3.39
448.051	3.46
448.254	3.41
448.458	3.41
448.662	3.34
448.866	3.22
449.069	3.35
449.273	3.48
449.477	3.56
449.681	3.53
449.884	3.55
450.088	3.42
450.292	3.47
450.495	3.49
450.699	3.44
450.902	3.33
451.106	3.39
451.31	3.24
451.513	3.25
451.717	3.21
451.92	3.31
452.124	3.21
452.327	3.18
452.531	3.13
452.734	3.22
452.938	3.35
453.141	3.46
453.345	3.46
453.548	3.48
453.752	3.45
453.955	3.35
454.158	3.26
454.362	3.44
454.565	3.51
454.769	3.52
454.972	3.47
455.175	3.38
455.379	3.38
455.582	3.2
455.785	3.19
455.988	3.11
456.192	3.18
456.395	3.27
456.598	3.13
456.801	3.19
457.005	3.08
457.208	3.08
457.411	3.19
457.614	3.31
457.817	3.51
458.021	3.56
458.224	3.61
458.427	3.67
458.63	3.6
458.833	3.58
459.036	3.57
459.239	3.6
459.442	3.63
459.645	3.52
459.848	3.48
460.051	3.46
460.254	3.53
460.457	3.56
460.66	3.45
460.863	3.4
461.066	3.42
461.269	3.45
461.472	3.37
461.675	3.4
461.878	3.51
462.081	3.48
462.284	3.59
462.486	3.37
462.689	3.29
462.892	3.38
463.095	3.46
463.298	3.41
463.5	3.51
463.703	3.62
463.906	3.59
464.109	3.37
464.311	3.37
464.514	3.29
464.717	3.4
464.92	3.27
465.122	3.34
465.325	3.34
465.528	3.42
465.73	3.22
465.933	3.23
466.135	3.3
466.338	3.59
466.541	3.47
466.743	3.48
466.946	3.57
467.148	3.66
467.351	3.55
467.553	3.47
467.756	3.47
467.958	3.58
468.161	3.52
468.363	3.43
468.566	3.37
468.768	3.42
468.971	3.43
469.173	3.23
469.375	3.3
469.578	3.32
469.78	3.5
469.983	3.6
470.185	3.5
470.387	3.69
470.59	3.73
470.792	3.6
470.994	3.58
471.196	3.49
471.399	3.7
471.601	3.72
471.803	3.86
472.005	3.74
472.208	3.67
472.41	3.64
472.612	3.45
472.814	3.39
473.016	3.49
473.218	3.49
473.421	3.47
473.623	3.37
473.825	3.41
474.027	3.34
474.229	3.42
474.431	3.31
474.633	3.38
474.835	3.49
475.037	3.58
475.239	3.55
475.441	3.59
475.643	3.57
475.845	3.53
476.047	3.58
476.249	3.47
476.451	3.5
476.653	3.52
476.855	3.41
477.057	3.45
477.258	3.43
477.46	3.36
477.662	3.38
477.864	3.43
478.066	3.48
478.268	3.41
478.469	3.45
478.671	3.37
478.873	3.37
479.075	3.43
479.276	3.42
479.478	3.36
479.68	3.43
479.882	3.42
480.083	3.41
480.285	3.45
480.487	3.39
480.688	3.42
480.89	3.44
481.091	3.54
481.293	3.55
481.495	3.47
481.696	3.54
481.898	3.51
482.099	3.5
482.301	3.52
482.502	3.46
482.704	3.43
482.905	3.45
483.107	3.46
483.308	3.41
483.51	3.42
483.711	3.47
483.913	3.48
484.114	3.49
484.315	3.51
484.517	3.53
484.718	3.59
484.92	3.63
485.121	3.62
485.322	3.63
485.524	3.65
485.725	3.64
485.926	3.62
486.127	3.59
486.329	3.67
486.53	3.66
486.731	3.61
486.932	3.51
487.134	3.52
487.335	3.57
487.536	3.59
487.737	3.63
487.938	3.63
488.139	3.65
488.341	3.67
488.542	3.58
488.743	3.59
488.944	3.67
489.145	3.81
489.346	3.8
489.547	3.75
489.748	3.74
489.949	3.7
490.15	3.73
490.351	3.71
490.552	3.7
490.753	3.73
490.954	3.71
491.155	3.65
491.356	3.6
491.557	3.62
491.758	3.65
491.959	3.62
492.159	3.65
492.36	3.62
492.561	3.66
492.762	3.65
492.963	3.7
493.164	3.72
493.364	3.75
493.565	3.76
493.766	3.72
493.967	3.73
494.167	3.71
494.368	3.71
494.569	3.68
494.769	3.71
494.97	3.69
495.171	3.69
495.371	3.7
495.572	3.66
495.773	3.7
495.973	3.72
496.174	3.62
496.375	3.76
496.575	3.77
496.776	3.86
496.976	3.84
497.177	3.95
497.377	3.95
497.578	3.9
497.778	3.9
497.979	3.88
498.179	3.9
498.38	4.06
498.58	4.05
498.78	4
498.981	3.91
499.181	3.83
499.382	3.78
499.582	3.83
499.782	3.87
499.983	3.84
500.183	3.78
500.383	3.77
500.584	3.69
500.784	3.59
500.984	3.6
501.184	3.66
501.385	3.7
501.585	3.63
501.785	3.62
501.985	3.67
502.185	3.7
502.386	3.78
502.586	3.81
502.786	3.77
502.986	3.9
503.186	3.98
503.386	3.99
503.586	3.94
503.786	3.98
503.987	3.86
504.187	3.75
504.387	3.79
504.587	3.75
504.787	3.75
504.987	3.8
505.187	3.79
505.387	3.76
505.587	3.7
505.786	3.71
505.986	3.73
506.186	3.77
506.386	3.87
506.586	3.88
506.786	3.93
506.986	3.97
507.186	3.97
507.386	3.98
507.585	3.96
507.785	4.04
507.985	4.18
508.185	4.19
508.384	4.12
508.584	4.13
508.784	4.17
508.984	4.23
509.183	4.22
509.383	4.27
509.583	4.28
509.782	4.26
509.982	4.27
510.182	4.22
510.381	4.33
510.581	4.46
510.781	4.51
510.98	4.51
511.18	4.43
511.379	4.38
511.579	4.38
511.778	4.46
511.978	4.57
512.177	4.57
512.377	4.54
512.576	4.49
512.776	4.54
512.975	4.51
513.175	4.51
513.374	4.65
513.573	4.78
513.773	4.81
513.972	4.86
514.172	4.9
514.371	5.04
514.57	5.15
514.77	5.19
514.969	5.2
515.168	5.26
515.367	5.29
515.567	5.3
515.766	5.34
515.965	5.42
516.164	5.43
516.364	5.41
516.563	5.4
516.762	5.39
516.961	5.44
517.16	5.43
517.359	5.42
517.559	5.52
517.758	5.56
517.957	5.56
518.156	5.55
518.355	5.53
518.554	5.63
518.753	5.65
518.952	5.69
519.151	5.76
519.35	5.79
519.549	5.85
519.748	5.84
519.947	5.84
520.146	5.86
520.345	5.99
520.544	6
520.743	6.09
520.942	6.18
521.141	6.14
521.339	6.11
521.538	6.17
521.737	6.15
521.936	6.28
522.135	6.24
522.333	6.31
522.532	6.28
522.731	6.48
522.93	6.32
523.129	6.4
523.327	6.56
523.526	6.67
523.725	6.76
523.923	6.91
524.122	6.8
524.321	6.96
524.519	7.01
524.718	7.02
524.917	6.93
525.115	7.08
525.314	7.04
525.512	7.08
525.711	7.12
525.909	7.1
526.108	7.16
526.306	7.23
526.505	7.22
526.703	7.3
526.902	7.37
527.1	7.45
527.299	7.47
527.497	7.56
527.696	7.6
527.894	7.61
528.092	7.66
528.291	7.7
528.489	7.79
528.688	7.87
528.886	7.89
529.084	7.91
529.283	7.93
529.481	7.96
529.679	7.96
529.877	8.01
530.076	8.07
530.274	8.15
530.472	8.2
530.67	8.25
530.869	8.27
531.067	8.33
531.265	8.43
531.463	8.51
531.661	8.63
531.859	8.73
532.057	8.76
532.255	8.83
532.454	8.86
532.652	8.89
532.85	8.84
533.048	8.89
533.246	8.88
533.444	8.94
533.642	8.96
533.84	8.94
534.038	8.95
534.236	9.03
534.434	9.04
534.632	9.1
534.83	9.13
535.027	9.25
535.225	9.3
535.423	9.38
535.621	9.41
535.819	9.49
536.017	9.61
536.215	9.66
536.412	9.68
536.61	9.81
536.808	9.84
537.006	9.97
537.203	10.03
537.401	10.14
537.599	10.29
537.797	10.33
537.994	10.43
538.192	10.56
538.39	10.67
538.587	10.77
538.785	10.8
538.983	10.94
539.18	11.1
539.378	11.27
539.575	11.39
539.773	11.45
539.97	11.51
540.168	11.65
540.366	11.64
540.563	11.68
540.761	11.75
540.958	11.87
541.155	11.92
541.353	11.87
541.55	11.87
541.748	11.88
541.945	11.97
542.143	11.98
542.34	11.96
542.537	12.01
542.735	12.12
542.932	12.19
543.129	12.17
543.327	12.21
543.524	12.42
543.721	12.54
543.919	12.72
544.116	12.83
544.313	13.11
544.51	13.33
544.708	13.6
544.905	13.77
545.102	13.95
545.299	14.2
545.496	14.37
545.693	14.35
545.891	14.42
546.088	14.42
546.285	14.41
546.482	14.33
546.679	14.31
546.876	14.17
547.073	14.07
547.27	13.96
547.467	13.84
547.664	13.81
547.861	13.7
548.058	13.65
548.255	13.59
548.452	13.56
548.649	13.65
548.846	13.58
549.043	13.69
549.24	13.76
549.437	13.89
549.633	13.99
549.83	14.02
550.027	14.16
550.224	14.24
550.421	14.29
550.618	14.17
550.814	14.08
551.011	14.1
551.208	14.04
551.405	14.07
551.601	13.97
551.798	14.01
551.995	13.93
552.191	14
552.388	13.99
552.585	13.98
552.781	14.01
552.978	14.05
553.175	14.08
553.371	14.04
553.568	14.1
553.764	14.19
553.961	14.09
554.157	14.21
554.354	14.32
554.55	14.21
554.747	14.26
554.943	14.44
555.14	14.53
555.336	14.58
555.533	14.63
555.729	14.56
555.926	14.59
556.122	14.67
556.318	14.81
556.515	14.71
556.711	14.68
556.907	14.71
557.104	14.72
557.3	14.78
557.496	14.73
557.693	14.71
557.889	14.79
558.085	14.88
558.281	14.82
558.478	14.69
558.674	14.79
558.87	15.11
559.066	15.17
559.262	15.15
559.459	15.15
559.655	15.27
559.851	15.38
560.047	15.41
560.243	15.33
560.439	15.5
560.635	15.58
560.831	15.63
561.027	15.66
561.223	15.71
561.419	15.75
561.615	15.81
561.811	15.74
562.007	15.83
562.203	15.91
562.399	16.01
562.595	16.02
562.791	16.06
562.987	16.04
563.183	16.01
563.379	16.1
563.575	16.22
563.771	16.29
563.966	16.37
564.162	16.4
564.358	16.4
564.554	16.5
564.75	16.59
564.945	16.65
565.141	16.76
565.337	16.94
565.533	16.97
565.728	17.01
565.924	17.14
566.12	17.28
566.315	17.36
566.511	17.54
566.707	17.52
566.902	17.48
567.098	17.44
567.293	17.48
567.489	17.44
567.684	17.52
567.88	17.48
568.076	17.45
568.271	17.48
568.467	17.54
568.662	17.45
568.858	17.43
569.053	17.63
569.248	17.74
569.444	17.83
569.639	17.89
569.835	17.86
570.03	18.02
570.225	18.08
570.421	18.09
570.616	18.09
570.812	18.22
571.007	18.3
571.202	18.29
571.397	18.36
571.593	18.36
571.788	18.51
571.983	18.54
572.178	18.56
572.374	18.6
572.569	18.68
572.764	18.77
572.959	18.69
573.154	18.82
573.35	18.88
573.545	18.88
573.74	18.9
573.935	18.82
574.13	18.98
574.325	19.01
574.52	19.07
574.715	19.06
574.91	19.17
575.105	19.38
575.3	19.62
575.495	19.69
575.69	19.8
575.885	19.9
576.08	20
576.275	20.1
576.47	20.32
576.665	20.43
576.86	20.61
577.055	20.74
577.25	20.76
577.444	20.71
577.639	20.81
577.834	21.07
578.029	21.22
578.224	21.38
578.418	21.41
578.613	21.42
578.808	21.52
579.003	21.63
579.197	21.47
579.392	21.58
579.587	21.58
579.781	21.61
579.976	21.34
580.171	21.33
580.365	21.27
580.56	21.43
580.755	21.42
580.949	21.53
581.144	21.46
581.338	21.74
581.533	21.6
581.727	21.56
581.922	21.44
582.116	21.59
582.311	21.82
582.505	21.92
582.7	21.9
582.894	21.75
583.089	21.63
583.283	21.68
583.478	21.54
583.672	21.55
583.866	21.61
584.061	21.77
584.255	21.96
584.449	21.78
584.644	21.76
584.838	21.87
585.032	22.11
585.226	22.3
585.421	22.47
585.615	22.55
585.809	22.83
586.003	23.04
586.198	23.17
586.392	23.26
586.586	23.44
586.78	23.52
586.974	23.4
587.168	23.28
587.363	23.24
587.557	23.15
587.751	23.01
587.945	22.88
588.139	22.78
588.333	22.68
588.527	22.55
588.721	22.37
588.915	22.24
589.109	22.17
589.303	22.21
589.497	22.17
589.691	22.29
589.885	22.45
590.079	22.54
590.273	22.61
590.466	22.8
590.66	22.97
590.854	23.12
591.048	23.21
591.242	23.5
591.436	23.58
591.629	23.48
591.823	23.4
592.017	23.46
592.211	23.6
592.404	23.51
592.598	23.4
592.792	23.24
592.986	23.19
593.179	23.25
593.373	23.02
593.567	22.86
593.76	23.13
593.954	23.14
594.147	23.14
594.341	23.07
594.535	23.07
594.728	22.99
594.922	23
595.115	22.92
595.309	22.85
595.502	22.81
595.696	22.94
595.889	22.68
596.083	22.71
596.276	22.64
596.47	22.58
596.663	22.54
596.856	22.66
597.05	22.57
597.243	22.69
597.437	22.74
597.63	22.89
597.823	22.9
598.017	23.15
598.21	23.1
598.403	23.18
598.596	23.29
598.79	23.42
598.983	23.46
599.176	23.48
599.369	23.46
599.563	23.48
599.756	23.58
599.949	23.57
600.142	23.44
600.335	23.52
600.528	23.54
600.722	23.43
600.915	23.39
601.108	23.37
601.301	23.58
601.494	23.71
601.687	23.65
601.88	23.51
602.073	23.53
602.266	23.36
602.459	23.26
602.652	23.23
602.845	23.24
603.038	23.14
603.231	23.04
603.424	22.84
603.617	22.65
603.809	22.73
604.002	22.7
604.195	22.62
604.388	22.69
604.581	22.7
604.774	22.61
604.966	22.57
605.159	22.63
605.352	22.65
605.545	22.82
605.737	22.92
605.93	22.89
606.123	22.98
606.316	23.18
606.508	23.37
606.701	23.5
606.894	23.87
607.086	24.02
607.279	24.31
607.471	24.45
607.664	24.71
607.857	24.99
608.049	25.47
608.242	25.9
608.434	26.5
608.627	27.32
608.819	28.2
609.012	29.06
609.204	30.36
609.397	31.56
609.589	33.11
609.782	34.51
609.974	36.15
610.166	37.63
610.359	39.2
610.551	40.53
610.743	41.61
610.936	42.7
611.128	43.45
611.32	43.91
611.513	44.18
611.705	44.1
611.897	43.74
612.09	43.12
612.282	42.51
612.474	41.52
612.666	40.71
612.858	39.67
613.051	38.56
613.243	37.65
613.435	36.73
613.627	35.86
613.819	35.36
614.011	34.76
614.203	34.09
614.395	33.55
614.588	32.97
614.78	32.27
614.972	31.79
615.164	31.29
615.356	30.9
615.548	30.45
615.74	30.02
615.932	29.34
616.124	29.02
616.315	28.71
616.507	28.14
616.699	27.59
616.891	27.35
617.083	27.15
617.275	26.84
617.467	26.31
617.659	26.19
617.85	26.11
618.042	25.89
618.234	25.58
618.426	25.35
618.618	25.18
618.809	25.24
619.001	25.14
619.193	24.86
619.384	25.04
619.576	25.28
619.768	25.19
619.959	25.1
620.151	25.1
620.343	24.94
620.534	24.97
620.726	24.97
620.917	25.19
621.109	25.1
621.301	25.26
621.492	25.21
621.684	25.15
621.875	25.24
622.067	25.35
622.258	25.36
622.45	25.49
622.641	25.49
622.832	25.57
623.024	25.58
623.215	25.83
623.407	25.85
623.598	26.01
623.789	26.07
623.981	25.94
624.172	26.11
624.363	26.41
624.555	26.53
624.746	26.46
624.937	26.2
625.129	26.07
625.32	25.89
625.511	26.01
625.702	25.69
625.893	25.65
626.085	25.64
626.276	25.38
626.467	25.16
626.658	25.18
626.849	25.18
627.04	25.41
627.231	25.52
627.422	25.47
627.614	25.37
627.805	25.43
627.996	25.56
628.187	25.69
628.378	25.94
628.569	26.08
628.76	26.08
628.951	26.28
629.142	26.41
629.332	26.48
629.523	26.79
629.714	26.96
629.905	27.33
630.096	27.4
630.287	27.4
630.478	27.09
630.669	27.06
630.859	27.05
631.05	26.98
631.241	26.78
631.432	26.77
631.623	26.55
631.813	26.4
632.004	26.06
632.195	25.59
632.385	25.39
632.576	25.38
632.767	25.11
632.957	24.76
633.148	24.62
633.339	24.53
633.529	24.32
633.72	24.11
633.91	23.92
634.101	23.79
634.292	24.01
634.482	23.97
634.673	24.01
634.863	23.89
635.054	24.07
635.244	24.05
635.435	24.1
635.625	24.09
635.815	24.1
636.006	24.38
636.196	24.34
636.387	24.13
636.577	24.16
636.767	24.24
636.958	24.5
637.148	24.44
637.338	24.39
637.529	24.3
637.719	24.23
637.909	24.19
638.099	23.93
638.29	24.09
638.48	24.16
638.67	24
638.86	23.98
639.05	23.78
639.241	23.79
639.431	23.66
639.621	23.7
639.811	23.8
640.001	23.75
640.191	23.99
640.381	23.85
640.571	23.81
640.761	23.84
640.951	23.59
641.141	23.83
641.331	24.17
641.521	24.39
641.711	24.43
641.901	24.26
642.091	24.3
642.281	24.1
642.471	24.33
642.661	24.25
642.851	24.17
643.041	24.02
643.231	23.9
643.42	23.55
643.61	23.47
643.8	23.55
643.99	23.78
644.18	24.05
644.369	23.99
644.559	23.74
644.749	24.08
644.939	24.19
645.128	24.39
645.318	24.38
645.508	24.36
645.697	24.32
645.887	24.23
646.076	24.22
646.266	23.95
646.456	24.28
646.645	24.41
646.835	24.46
647.024	24.81
647.214	24.85
647.403	24.86
647.593	25.09
647.782	24.98
647.972	25.01
648.161	24.75
648.351	24.72
648.54	24.47
648.73	24.69
648.919	24.63
649.108	24.5
649.298	24.89
649.487	24.83
649.677	24.82
649.866	24.96
650.055	24.87
650.244	25.17
650.434	25.42
650.623	25.42
650.812	25.37
651.002	25.29
651.191	25.37
651.38	24.96
651.569	25.01
651.758	24.89
651.947	25.04
652.137	25.06
652.326	24.94
652.515	24.76
652.704	24.77
652.893	24.55
653.082	24.44
653.271	24.15
653.46	24.22
653.649	24.29
653.838	24.38
654.027	24.11
654.216	24.11
654.405	24.08
654.594	24.14
654.783	24
654.972	23.85
655.161	23.86
655.35	23.93
655.539	23.76
655.728	23.84
655.916	23.66
656.105	23.86
656.294	23.92
656.483	24.02
656.672	24.13
656.86	24.03
657.049	24.14
657.238	24.49
657.427	24.5
657.615	24.46
657.804	24.14
657.993	24.39
658.181	24.24
658.37	24.3
658.559	24.03
658.747	24.05
658.936	24.19
659.125	24.22
659.313	23.94
659.502	24.06
659.69	24.19
659.879	24.3
660.067	24.02
660.256	24.1
660.444	23.95
660.633	24.09
660.821	24.19
661.01	24.27
661.198	24.41
661.387	24.63
661.575	24.47
661.763	24.54
661.952	24.41
662.14	24.71
662.328	24.74
662.517	24.76
662.705	24.74
662.893	24.56
663.082	24.29
663.27	24.26
663.458	23.96
663.646	23.96
663.834	24.18
664.023	24.2
664.211	24.12
664.399	24.17
664.587	24.37
664.775	24.31
664.963	24.17
665.152	24.21
665.34	23.84
665.528	23.88
665.716	23.91
665.904	23.31
666.092	23.07
666.28	23.17
666.468	23.25
666.656	23.18
666.844	23.4
667.032	23.63
667.22	24.03
667.408	24.31
667.596	24.32
667.784	24.22
667.971	24.64
668.159	25.07
668.347	24.81
668.535	24.7
668.723	24.62
668.911	24.8
669.098	24.62
669.286	24.26
669.474	24.19
669.662	24.17
669.849	24.39
670.037	24.23
670.225	24.44
670.413	24.54
670.6	24.67
670.788	24.89
670.976	24.61
671.163	24.53
671.351	24.51
671.538	24.55
671.726	24.43
671.913	24.46
672.101	24.4
672.289	24
672.476	24.01
672.664	23.58
672.851	23.48
673.039	23.73
673.226	23.84
673.413	24.09
673.601	23.92
673.788	24.05
673.976	24.22
674.163	24.16
674.35	24.34
674.538	24.08
674.725	24.19
674.912	24.08
675.1	23.72
675.287	24.14
675.474	24.11
675.662	24.2
675.849	24.13
676.036	23.81
676.223	24.08
676.411	24.01
676.598	24.1
676.785	24.42
676.972	24.38
677.159	24.45
677.346	24.01
677.533	23.9
677.721	24.01
677.908	24.22
678.095	23.97
678.282	23.62
678.469	23.47
678.656	23.52
678.843	23.33
679.03	23.41
679.217	23.5
679.404	23.63
679.591	23.78
679.778	23.83
679.964	23.65
680.151	23.95
680.338	24.1
680.525	24.06
680.712	24.08
680.899	24.14
681.086	24.34
681.272	24.26
681.459	24.19
681.646	24.14
681.833	24.17
682.02	24.49
682.206	24.34
682.393	24.14
682.58	24.59
682.766	24.65
682.953	24.66
683.14	24.21
683.326	24
683.513	23.77
683.7	23.48
683.886	23.32
684.073	23.17
684.259	22.97
684.446	23.31
684.632	22.89
684.819	23.03
685.005	22.85
685.192	23.13
685.378	23.58
685.565	23.92
685.751	24.35
685.938	24.48
686.124	24.5
686.31	24.76
686.497	25.01
686.683	25.23
686.87	25.24
687.056	25.39
687.242	25.49
687.429	25.26
687.615	25.19
687.801	25.03
687.987	24.87
688.174	24.73
688.36	24.95
688.546	25
688.732	25.09
688.918	24.84
689.105	24.89
689.291	24.96
689.477	25.02
689.663	24.62
689.849	24.59
690.035	24.87
690.221	25.15
690.407	24.99
690.593	24.62
690.779	24.24
690.965	24.53
691.151	24.26
691.337	24.03
691.523	23.99
691.709	24.4
691.895	24.04
692.081	24.2
692.267	23.96
692.453	24.21
692.639	24.37
692.825	24.68
693.011	24.48
693.196	24.85
693.382	24.59
693.568	24.5
693.754	24.66
693.94	24.88
694.125	24.41
694.311	24
694.497	23.59
694.682	23.23
694.868	22.77
695.054	22.88
695.239	22.6
695.425	23.27
695.611	23.44
695.796	23.54
695.982	23.67
696.168	23.48
696.353	23.84
696.539	23.69
696.724	23.88
696.91	24.21
697.095	24.42
697.281	24.28
697.466	24.02
697.652	24.16
697.837	24.1
698.023	24.19
698.208	24.23
698.393	24.1
698.579	24.42
698.764	24.28
698.949	24.04
699.135	23.9
699.32	24.09
699.505	24.07
699.691	23.98
699.876	23.59
700.061	23.8
700.246	23.92
700.432	24.26
700.617	24.1
700.802	24.41
700.987	24.43
701.172	23.95
701.358	24.15
701.543	23.9
701.728	23.86
701.913	24.19
702.098	23.89
702.283	24.31
702.468	24.17
702.653	24.57
702.838	24.41
703.023	24.75
703.208	25.63
703.393	25.71
703.578	26.24
703.763	26.65
703.948	26.81
704.133	27.23
704.318	27.1
704.503	27.39
704.688	27.43
704.873	27.67
705.057	28.09
705.242	27.96
705.427	28.08
705.612	28.18
705.797	28.63
705.981	29.13
706.166	28.92
706.351	29.05
706.536	28.78
706.72	28.98
706.905	29.19
707.09	29.21
707.274	29.49
707.459	29.07
707.644	29.25
707.828	29.01
708.013	28.96
708.197	29.31
708.382	29.52
708.567	29.61
708.751	29.28
708.936	29.17
709.12	28.94
709.305	28.89
709.489	29.32
709.673	29.21
709.858	28.97
710.042	28.86
710.227	28.6
710.411	28.36
710.596	28.61
710.78	28.55
710.964	28.79
711.149	28.83
711.333	28.78
711.517	28.27
711.702	27.97
711.886	27.84
712.07	27.74
712.254	27.57
712.438	27.22
712.623	26.46
712.807	26.25
712.991	25.51
713.175	25.36
713.359	25.19
713.544	25.56
713.728	25.57
713.912	25.21
714.096	25.02
714.28	24.63
714.464	24.52
714.648	24.82
714.832	24.45
715.016	24.58
715.2	24.22
715.384	24.15
715.568	24.07
715.752	23.57
715.936	23.35
716.12	23.33
716.304	23.23
716.488	23.17
716.671	22.94
716.855	23.21
717.039	23.33
717.223	23.52
717.407	23.11
717.59	22.99
717.774	23.09
717.958	23.28
718.142	22.99
718.325	23.37
718.509	23.42
718.693	23.49
718.877	23.51
719.06	23.5
719.244	23.57
719.428	23.71
719.611	23.67
719.795	24.14
719.978	24.31
720.162	24.23
720.345	24.19
720.529	24.14
720.713	24.43
720.896	24.71
721.08	24.67
721.263	24.7
721.446	24.25
721.63	24.13
721.813	23.78
721.997	23.9
722.18	24.33
722.364	24.2
722.547	24.25
722.73	24.37
722.914	23.98
723.097	24.02
723.28	23.82
723.464	24.36
723.647	24.46
723.83	24.35
724.013	23.98
724.197	23.79
724.38	23.63
724.563	23.97
724.746	24.13
724.929	23.55
725.112	23.32
725.296	23.48
725.479	23.57
725.662	23.4
725.845	23.01
726.028	23.58
726.211	23.91
726.394	23.56
726.577	23.64
726.76	23.44
726.943	23.97
727.126	24.17
727.309	23.94
727.492	23.87
727.675	23.75
727.858	23.74
728.041	23.92
728.224	23.51
728.407	23.74
728.589	23.49
728.772	23.21
728.955	23.41
729.138	23.11
729.321	23.1
729.503	23.19
729.686	22.85
729.869	23.41
730.052	22.58
730.234	22.94
730.417	22.95
730.6	22.37
730.782	22
730.965	21.63
731.148	22.34
731.33	22.52
731.513	22.52
731.695	22.82
731.878	22.65
732.061	23.1
732.243	22.79
732.426	22.97
732.608	23.84
732.791	24.13
732.973	24.18
733.156	23.28
733.338	23.43
733.52	23.05
733.703	23.42
733.885	23.81
734.068	23.69
734.25	23.74
734.432	23.44
734.615	23.38
734.797	23.14
734.979	22.47
735.162	23.08
735.344	23.15
735.526	23.27
735.708	22.81
735.891	22.24
736.073	21.95
736.255	21.97
736.437	21.92
736.619	21.08
736.802	21.39
736.984	22.23
737.166	21.65
737.348	20.99
737.53	21.33
737.712	21.32
737.894	21.43
738.076	21.91
738.258	21.84
738.44	22.16
738.622	21.91
738.804	22.3
738.986	22.38
739.168	22.9
739.35	23.12
739.532	22.66
739.714	22.58
739.896	22.29
740.078	21.81
740.259	22.16
740.441	22.34
740.623	23.69
740.805	22.95
740.987	22.85
741.168	22.04
741.35	22.15
741.532	22.49
741.714	22.61
741.895	22.74
742.077	22.62
742.259	21.58
742.44	21.76
742.622	21.19
742.804	21.56
742.985	21.62
743.167	22.08
743.348	22.26
743.53	22.28
743.711	22.75
743.893	23.15
744.075	23.84
744.256	24.1
744.438	23.83
744.619	24.12
744.8	24.25
744.982	24.05
745.163	24.31
745.345	24.57
745.526	24.68
745.707	24.29
745.889	24.53
746.07	23.57
746.252	23.89
746.433	24.14
746.614	23.45
746.795	22.95
746.977	23.06
747.158	23.2
747.339	22.69
747.52	22.72
747.702	22.47
747.883	21.8
748.064	22.4
748.245	22.18
748.426	21.99
748.607	21.8
748.788	21.63
748.97	21.68
749.151	20.48
749.332	20.5
749.513	19.92
749.694	19.97
749.875	20.5
750.056	20.67
750.237	21.47
750.418	21.22
750.599	21.89
750.78	21.86
750.96	21.69
751.141	23.05
751.322	22.25
751.503	23.02
751.684	23
751.865	23.03
752.046	22.94
752.226	21.67
752.407	21.57
752.588	21.42
752.769	21.91
752.949	22.16
753.13	21.35
753.311	22.25
753.492	22.49
753.672	22.34
753.853	23.03
754.034	23.01
754.214	23.59
754.395	23.23
754.575	23.41
754.756	22.5
754.937	22.45
755.117	23
755.298	22.77
755.478	22.23
755.659	22.85
755.839	21.66
756.02	21.75
756.2	21.33
756.381	22.93
756.561	22.08
756.741	23.85
756.922	23.99
757.102	23.76
757.283	23.86
757.463	23.85
757.643	23.78
757.823	24.42
758.004	24.72
758.184	25.06
758.364	24.17
758.545	24.57
758.725	23.74
758.905	24.08
759.085	23.89
759.265	24.2
759.446	24.57
759.626	24.15
759.806	23.29
759.986	23.32
760.166	23.55
760.346	24.31
760.526	24.43
760.706	24.82
760.886	23.28
761.066	23.83
761.246	23.54
761.426	23.19
761.606	23.73
761.786	24.18
761.966	23.31
762.146	23.16
762.326	22.48
762.506	22.64
762.686	22.06
762.866	22.56
763.046	22
763.225	22.27
763.405	22.06
763.585	22.18
763.765	21.94
763.945	22.31
764.124	22.43
764.304	22.24
764.484	22.08
764.664	22.78
764.843	23.01
765.023	23.17
765.203	22.8
765.382	22.83
765.562	22.17
765.741	22.18
765.921	21.72
766.101	21.45
766.28	20.79
766.46	21.06
766.639	20.68
766.819	20.51
766.998	20.04
767.178	20.09
767.357	19.84
767.537	19.85
767.716	19.51
767.896	19.93
768.075	19.89
768.254	20.71
768.434	20.59
768.613	19.37
768.792	19.8
768.972	19.95
769.151	19.02
769.33	19.58
769.51	19.7
769.689	20.44
769.868	20.89
770.047	21.64
770.226	21.4
770.406	21.98
770.585	22.28
770.764	22.68
770.943	23.66
771.122	25.26
771.301	25.55
771.48	25.73
771.66	25.61
771.839	24.17
772.018	23.16
772.197	24.01
772.376	23.38
772.555	24.23
772.734	23.99
772.913	23.35
773.092	23.14
773.271	21.7
773.449	21.32
773.628	21.82
773.807	22.57
773.986	21.9
774.165	21.29
774.344	20.99
774.523	20.53
774.701	20.22
774.88	21.56
775.059	21.31
775.238	21.9
775.417	22.38
775.595	21.49
775.774	20.87
775.953	22.04
776.131	22.27
776.31	21.04
776.489	21.04
776.667	20.74
776.846	19.42
777.025	18.67
777.203	18.04
777.382	17.06
777.56	17.1
777.739	18.44
777.917	18.54
778.096	18.49
778.274	20.16
778.453	20.34
778.631	20.38
778.81	19.93
778.988	20.96
779.166	22.18
779.345	22.78
779.523	22.96
779.702	22.17
779.88	21.81
780.058	22.05
780.237	21.95
780.415	21.22
780.593	21.6
780.771	22.62
780.95	21.73
781.128	21.2
781.306	21.87
781.484	23
781.662	23.57
781.841	24.06
782.019	23.67
782.197	23.28
782.375	24.07
782.553	22.96
782.731	22.3
782.909	22.37
783.087	23.32
783.265	23.1
783.443	21.67
783.621	20.59
783.799	20.75
783.977	20.42
784.155	20.04
784.333	19.82
784.511	19.42
784.689	18.95
784.867	19.2
785.045	18.75
785.223	18.77
785.4	18.8
785.578	20.42
785.756	19.71
785.934	20.24
786.112	20.17
786.289	21.71
786.467	23.49
786.645	24.03
786.823	24.06
787	24.37
787.178	23.88
787.356	23.5
787.533	22.43
787.711	22.82
787.889	22.62
788.066	23.06
788.244	21.62
788.421	20.92
788.599	20.49
788.776	20.41
788.954	19.77
789.131	20.11
789.309	20.82
789.486	21.85
789.664	20.74
789.841	20.75
790.019	20.79
790.196	20.9
790.373	20.75
790.551	20.84
790.728	20.33
790.906	19.63
791.083	21.05
791.26	20.39
791.437	19.15
791.615	18.92
791.792	19.13
791.969	19.18
792.146	19.42
792.324	20.31
792.501	20.67
792.678	21.56
792.855	21.3
793.032	20.12
793.209	21.51
793.387	22.14
793.564	22.22
793.741	21.65
793.918	20.96
794.095	19.53
794.272	18.6
794.449	18.23
794.626	19.31
794.803	20.42
794.98	19.04
795.157	18.69
795.334	17.82
795.511	18.43
795.688	18.76
795.864	19.7
796.041	20.72
796.218	21.05
796.395	21.46
796.572	20.58
796.749	21.05
796.925	22.62
797.102	23.7
797.279	23.96
797.456	24.13
797.632	24.43
797.809	23.67
797.986	23.05
798.162	22.65
798.339	22.1
798.516	21.86
798.692	21.61
798.869	21.6
799.046	20.22
799.222	21.4
799.399	21.89
799.575	21.78
799.752	22.32
799.928	22.35
800.105	23.56
800.281	25.07
800.458	24.39
800.634	23.95
800.811	23.57
800.987	22.46
801.163	21.5
801.34	21.08
801.516	21.14
801.692	20.36
801.869	20.21
802.045	18.9
802.221	18.82
802.398	17.76
802.574	18.01
802.75	16.44
802.926	16.95
803.103	16.96
803.279	18.27
803.455	18.03
803.631	19.79
803.807	20.55
803.983	21.07
804.16	21.45
804.336	23.2
804.512	21.45
804.688	22.99
804.864	23.74
805.04	22.79
805.216	21.88
805.392	20.84
805.568	19.53
805.744	20.15
805.92	20.21
806.096	19.81
806.272	19.01
806.448	20.5
806.623	19.31
806.799	17.46
806.975	17.96
807.151	17.36
807.327	19.05
807.503	18.16
807.678	18.32
807.854	18.83
808.03	17.76
808.206	18.73
808.381	19.61
808.557	20.02
808.733	20.73
808.908	21.01
809.084	20.73
809.26	19.93
809.435	20.72
809.611	18.26
809.787	15.83
809.962	16.39
810.138	15.71
810.313	14.8
810.489	15.46
810.664	14.89
810.84	15.84
811.015	16.49
811.191	16.53
811.366	16.93
811.542	20.22
811.717	22.35
811.892	22.15
812.068	22.15
812.243	20.57
812.419	21.34
812.594	22.29
812.769	22.35
812.944	23.15
813.12	23.33
813.295	22.74
813.47	21.23
813.645	20.91
813.821	20.45
813.996	20.66
814.171	21.75
814.346	19.33
814.521	20.3
814.697	19.95
814.872	19.72
815.047	18.29
815.222	18.43
815.397	19.18
815.572	18.87
815.747	18.81
815.922	20.08
816.097	20.67
816.272	21.45
816.447	19.81
816.622	19.71
816.797	19.71
816.972	20.17
817.147	21.28
817.322	21.82
817.496	22.09
817.671	23.51
817.846	22.59
818.021	22.44
818.196	22.92
818.371	22.76
818.545	23.01
818.72	21.5
818.895	21.71
819.069	20.76
819.244	19.03
819.419	20.1
819.594	20.54
819.768	20.07
819.943	20.64
820.117	20.39
820.292	21.67
820.467	21.09
820.641	21.76
820.816	22.18
820.99	22.65
821.165	22.44
821.339	21.68
821.514	20.81
821.688	20.75
821.863	20.45
822.037	20.76
822.212	20.55
822.386	20.68
822.56	20.63
822.735	20.41
822.909	20.27
823.084	20.21
823.258	20.27
823.432	20.33
823.606	20.62
823.781	20.83
823.955	20.35
824.129	20.19
824.303	20.07
824.478	19.75
824.652	19.79
824.826	18.98
825	19.58
825.174	19.63
825.348	19.2
825.523	18.96
825.697	18.49
825.871	18.41
826.045	18.42
826.219	18.2
826.393	18.91
826.567	18.81
826.741	19.77
826.915	18.98
827.089	18.4
827.263	19.06
827.437	18.56
827.611	18.93
827.784	19.21
827.958	19.2
828.132	19.47
828.306	19.02
828.48	18.81
828.654	18.47
828.827	18.49
829.001	18.62
829.175	17.78
829.349	17.49
829.522	17.29
829.696	17.79
829.87	17.92
830.044	18.65
830.217	18.85
830.391	19.5
830.565	20.32
830.738	20.44
830.912	21.67
831.085	21.95
831.259	23.87
831.432	23.21
831.606	23.95
831.779	23.66
831.953	22.79
832.126	21.55
832.3	21.24
832.473	20.5
832.647	21.16
832.82	20.97
832.994	20.48
833.167	20.58
833.34	21.32
833.514	20.36
833.687	20.56
833.86	20.54
834.034	21.43
834.207	21.51
834.38	21.95
834.553	21.86
834.727	21.47
834.9	22.48
835.073	21.54
835.246	20.92
835.419	21.14
835.593	21.29
835.766	20.63
835.939	21.43
836.112	20.93
836.285	20.06
836.458	20.12
836.631	20.82
836.804	20.13
836.977	20.22
837.15	19.8
837.323	18.78
837.496	18.65
837.669	17.35
837.842	13.34
838.015	12.39
838.188	13.04
838.361	12
838.533	12.13
838.706	14.01
838.879	13.72
839.052	13.74
839.225	13.6
839.398	15
839.57	16.55
839.743	18.12
839.916	19.94
840.088	19.44
840.261	17.25
840.434	15.56
840.607	15.4
840.779	15.39
840.952	14.91
841.124	18.21
841.297	16.45
841.47	18.08
841.642	17.43
841.815	16.81
841.987	16.24
842.16	17.91
842.332	16.85
842.505	14.9
842.677	15.35
842.85	16.99
843.022	14.46
843.194	17.82
843.367	15.55
843.539	15.35
843.712	14.87
843.884	17.09
844.056	18.89
844.229	21.3
844.401	21.41
844.573	22.4
844.745	18.87
844.918	18.69
845.09	17.48
845.262	18.84
845.434	18.33
845.606	18.53
845.779	15.82
845.951	14.83
846.123	16.12
846.295	17.13
846.467	19.77
846.639	22.56
846.811	19.67
846.983	15.04
847.155	14.15
847.327	16.8
847.499	16.07
847.671	18.66
847.843	17.21
848.015	14.43
848.187	13.93
848.359	13
848.531	14.67
848.703	18.68
848.875	21.42
849.047	21.76
849.218	23.93
849.39	29.9
849.562	28.91
849.734	31.67
849.905	32.68
850.077	36.28
850.249	36.34
850.421	33.07
850.592	32.14
850.764	28.17
850.936	30.63
851.107	29.67
851.279	27.3
851.451	24.01
851.622	22.46
851.794	24.83
851.965	22.58
852.137	23.27
852.308	23.82
852.48	24.18
852.651	28.72
852.823	26.03
852.994	28.28
853.166	24.77
853.337	24.53
853.509	30.21
853.68	26.91
853.851	33.25
854.023	27.85
854.194	27.65
854.365	29.61
854.537	22.35
854.708	24.87
854.879	20.37
855.05	21.14
855.222	21.8
855.393	16.34
855.564	16.66
855.735	8.66
855.906	13.05
856.078	13.72
856.249	9.71
856.42	12.5
856.591	10.93
856.762	9.22
856.933	11.22
857.104	15.38
857.275	12.16
857.446	16.19
857.617	20.23
857.788	20.45
857.959	21.85
858.13	27.91
858.301	30.73
858.472	31
858.643	28.99
858.814	26.98
858.985	29.09
859.155	33.6
859.326	32.27
859.497	27.1
859.668	26.32
859.839	26.4
860.009	22.32
860.18	20.63
860.351	25.36
860.522	27.48
860.692	28.8
860.863	24.87
861.034	24.65
861.204	22.25
861.375	24.48
861.546	25.01
861.716	23.52
861.887	30.31
862.057	29.56
862.228	23.18
862.398	24.38
862.569	20.44
862.739	21.42
862.91	15.48
863.08	17.71
863.251	19.47
863.421	17.99
863.592	18.95
863.762	15.76
863.932	12.4
864.103	11.75
864.273	12.19
864.443	11.78
864.614	14.21
864.784	14.28
864.954	14.42
865.125	12.82
865.295	12.78
865.465	15.4
865.635	10.27
865.805	16.74
865.976	19.34
866.146	19.35
866.316	22.2
866.486	18.6
866.656	22.85
866.826	21
866.996	21.32
867.166	29.55
867.336	22.34
867.506	30.51
867.676	23.04
867.846	22.56
868.016	25.29
868.186	23.69
868.356	21.62
868.526	20.23
868.696	21.99
868.866	26.48
869.036	20.73
869.206	23.53
869.376	14.76
869.545	24.23
869.715	22.08
869.885	17.35
870.055	17.34
870.224	21.76
870.394	23.64
870.564	22.03
870.734	15.58
870.903	11.8
871.073	12.87
871.243	12.14
871.412	10.87
871.582	13.01
871.751	19.02
871.921	21.88
872.091	15.57
872.26	14.95
872.43	13.38
872.599	17.73
872.769	19.12
872.938	21.39
873.108	26.84
873.277	19.73
873.446	12.63
873.616	5.54
873.785	1.24
873.955	5.5
874.124	6.17
874.293	6.56
874.463	5.97
874.632	14.56
874.801	12.21
874.971	13.29
875.14	18.51
875.309	23.57
875.478	24.25
875.647	31.07
875.817	33.65
875.986	35.59
876.155	41.29
876.324	37.63
876.493	28.97
876.662	27.12
876.831	26.14
877	15.08
877.17	4.84
877.339	11.14
877.508	4.7
877.677	1.51
877.846	-3.73
878.015	-2.97
878.184	0.17
878.352	-1.09
878.521	3.34
878.69	-0.96
878.859	8.04
879.028	17.59
879.197	8.76
879.366	8.78
879.534	9.42
879.703	11.9
879.872	10.87
880.041	12.36
880.21	14.73
880.378	12.93
880.547	13.23
880.716	12.75
880.884	13.02
881.053	15.55
881.222	16.1
881.39	16.28
881.559	16.51
881.727	17.25
881.896	16.4
882.065	16.22
882.233	16.83
882.402	17.61
882.57	18.31
882.739	18.2
882.907	18.15
883.076	18.83
883.244	18.44
883.412	18.59
883.581	18.36
883.749	18.53
883.918	18.74
884.086	18.75
884.254	18.22
884.423	18.44
884.591	18.99
884.759	18.74
884.927	16.34
885.096	16.47
885.264	15.97
885.432	15.99
885.6	16.63
885.769	14.17
885.937	14.74
886.105	12.7
886.273	9.79
886.441	6.5
886.609	6.94
886.777	9.38
886.945	10.26
887.113	10.38
887.281	8.42
887.449	8.8
887.617	12.67
887.785	13.52
887.953	20.38
888.121	18.62
888.289	21.09
888.457	16.86
888.625	22.58
888.793	23.39
888.961	20.57
889.129	24.51
889.296	23.92
889.464	22.79
889.632	21.24
889.8	14.35
889.967	22
890.135	22.85
