Data from 2938826__Reflection_03.txt Node
Date: Thu Mar 12 13:34:59 EDT 2015
User: robert
Spectrometer: USB4E03002
Autoset integration time: false
Trigger mode: 4
Integration Time (sec): 1.000000E-1
Scans to average: 10
Electric dark correction enabled: false
Nonlinearity correction enabled: false
Boxcar width: 5
Stray light correction enabled: false
XAxis mode: Wavelengths
Stop averaging: false
Number of Pixels in Spectrum: 3648
>>>>>Begin Spectral Data<<<<<
177.575	-1460.29
177.794	-3449.33
178.014	-7011.63
178.233	-2838.26
178.452	-2477.18
178.672	-2624.05
178.891	-3512.3
179.11	-5367.07
179.33	7491.67
179.549	-4400
179.768	-3710.32
179.987	4039.83
180.207	2286.76
180.426	2836.53
180.645	2314.29
180.864	1067.93
181.084	719.06
181.303	806.25
181.522	686.52
181.741	816.92
181.96	700.28
182.179	637.86
182.398	614.73
182.618	788.78
182.837	816.06
183.056	787.39
183.275	1288.99
183.494	3026.43
183.713	1750.41
183.932	5015.66
184.151	-3976.24
184.37	-5502.78
184.589	-2346.47
184.808	-2321.05
185.027	-10221.95
185.246	5407.23
185.465	3825
185.684	2714.62
185.903	2037
186.122	1951.07
186.341	1106.25
186.56	615.34
186.779	768.23
186.998	703.78
187.216	694.54
187.435	805.24
187.654	798.48
187.873	729.46
188.092	694.33
188.311	717.14
188.53	646.27
188.748	764.95
188.967	997.85
189.186	775.31
189.405	775.19
189.623	978.5
189.842	727.79
190.061	787.16
190.28	736.59
190.498	596.53
190.717	627.11
190.936	850.67
191.154	979.06
191.373	1050
191.592	888.13
191.81	936.29
192.029	764.74
192.248	1304.46
192.466	1764.23
192.685	3691.13
192.904	-11471.79
193.122	-27011.76
193.341	10202.22
193.559	4909.47
193.778	35461.54
193.996	-3824.37
194.215	-2006.09
194.433	-1084.6
194.652	-1280.06
194.87	-1984.98
195.089	-1634.88
195.307	-1277.5
195.526	-972.41
195.744	-947.73
195.963	-965.3
196.181	-1203.65
196.399	-1368.12
196.618	-2668.93
196.836	-3148.97
197.055	-2352.76
197.273	-1335.5
197.491	-2085.71
197.71	-3029.41
197.928	-2631.79
198.146	-4302.88
198.365	-4088.39
198.583	-49233.33
198.801	12294.29
199.019	4724.44
199.238	2022.02
199.456	1556.99
199.674	1481.72
199.892	1329.27
200.111	2268.09
200.329	929.69
200.547	775.99
200.765	816.46
200.983	880.86
201.202	856.64
201.42	1467.32
201.638	2738.65
201.856	3111.72
202.074	1818.18
202.292	1902.54
202.51	1189.09
202.728	2620.83
202.946	2853.16
203.165	2414.81
203.383	2414.81
203.601	1767.29
203.819	929.54
204.037	887.19
204.255	831.08
204.473	703.02
204.691	778.32
204.909	806.11
205.127	843.39
205.345	1522.11
205.562	1670.65
205.78	2194.86
205.998	1926.59
206.216	4474.31
206.434	3619.12
206.652	-4534.31
206.87	-3858.12
207.088	-2725.47
207.306	-3000
207.523	-4806
207.741	-11000
207.959	7426.56
208.177	2744.97
208.395	2162.38
208.612	1612.63
208.83	1749.43
209.048	909.85
209.266	954.68
209.483	845.29
209.701	611.87
209.919	521.19
210.136	460.76
210.354	462.35
210.572	512.33
210.79	788.78
211.007	651.96
211.225	663.62
211.442	563.26
211.66	570.88
211.878	527.7
212.095	545.28
212.313	597.16
212.53	565.37
212.748	494.58
212.966	556.22
213.183	411.49
213.401	481.85
213.618	437.41
213.836	548.37
214.053	637.48
214.271	772.49
214.488	1187.21
214.705	1072.8
214.923	1032.61
215.14	1433
215.358	758.84
215.575	900.8
215.793	691.26
216.01	700.92
216.227	606.02
216.445	530.68
216.662	476.6
216.879	461
217.097	457.88
217.314	444.76
217.531	467.55
217.749	581.62
217.966	444.61
218.183	429.35
218.4	380.93
218.618	378.77
218.835	338.35
219.052	357.09
219.269	339.16
219.487	359.26
219.704	337.53
219.921	311.43
220.138	290.54
220.355	307.83
220.572	331.41
220.79	314.26
221.007	287.59
221.224	317.85
221.441	304.51
221.658	288.51
221.875	256.55
222.092	233.33
222.309	223.14
222.526	211.35
222.743	210.74
222.96	193.51
223.177	197.57
223.394	193.17
223.611	176.26
223.828	165.97
224.045	156.32
224.262	143.98
224.479	145.79
224.696	143.52
224.913	139.03
225.13	129.76
225.347	130.17
225.564	122.25
225.781	114.19
225.997	106.98
226.214	97.69
226.431	90.8
226.648	83.43
226.865	73.35
227.082	64.75
227.298	55.13
227.515	49.43
227.732	41.17
227.949	36.67
228.165	33.81
228.382	30.93
228.599	28.85
228.816	26.67
229.032	25.56
229.249	25.04
229.466	24.28
229.682	24.66
229.899	24.5
230.116	26.27
230.332	27.42
230.549	28.46
230.765	30.14
230.982	31.79
231.199	33.74
231.415	36.86
231.632	38.24
231.848	39.82
232.065	41.25
232.281	43.58
232.498	43.04
232.714	44.1
232.931	44.19
233.147	44.92
233.364	44.76
233.58	45.71
233.797	44.53
234.013	44.76
234.23	45.28
234.446	45.61
234.662	44.28
234.879	44.57
235.095	45.16
235.312	44.35
235.528	44.46
235.744	44.75
235.961	42.56
236.177	42.67
236.393	43.34
236.61	43.4
236.826	42.93
237.042	44.24
237.258	46.52
237.475	47.09
237.691	47.5
237.907	46.66
238.123	46.44
238.339	48.29
238.556	49.16
238.772	49.27
238.988	48.6
239.204	48.61
239.42	46.09
239.636	43.15
239.853	40.5
240.069	39.1
240.285	37.32
240.501	35.46
240.717	33.05
240.933	30.76
241.149	28.58
241.365	26.56
241.581	25.2
241.797	24.13
242.013	22.88
242.229	21.83
242.445	21.74
242.661	20.97
242.877	20.94
243.093	21.29
243.309	20.81
243.525	20.94
243.741	22.13
243.957	22.3
244.173	23.17
244.388	23.87
244.604	24.3
244.82	24.43
245.036	23.87
245.252	22.17
245.468	20.95
245.683	20.33
245.899	19.06
246.115	17.29
246.331	16.49
246.547	15.05
246.762	14.29
246.978	13.69
247.194	13
247.409	12.94
247.625	13.04
247.841	12.71
248.057	12.8
248.272	13.09
248.488	13.68
248.703	13.82
248.919	15.17
249.135	16.18
249.35	17.5
249.566	18.58
249.782	19.61
249.997	20.83
250.213	22.28
250.428	23.6
250.644	23.14
250.859	24.05
251.075	24.44
251.29	24.21
251.506	23.7
251.721	23.48
251.937	23.41
252.152	23.47
252.368	22.89
252.583	23.39
252.798	22.66
253.014	23.4
253.229	23.33
253.445	24.23
253.66	24.49
253.875	25.61
254.091	26.23
254.306	26.76
254.521	27.3
254.737	28.24
254.952	27.74
255.167	28.52
255.383	29.29
255.598	29.49
255.813	28.99
256.028	29.05
256.244	28.56
256.459	27.41
256.674	26.95
256.889	25.59
257.104	23.85
257.32	22.99
257.535	22.15
257.75	20.64
257.965	19.09
258.18	17.8
258.395	15.83
258.61	14.22
258.826	13.13
259.041	12.19
259.256	11.64
259.471	11.32
259.686	10.63
259.901	10.08
260.116	9.57
260.331	9.61
260.546	9.25
260.761	9.37
260.976	9.86
261.191	10.17
261.406	10.67
261.621	11.22
261.836	11.65
262.05	12.87
262.265	13.69
262.48	15.12
262.695	15.83
262.91	17.29
263.125	18.37
263.34	18.85
263.555	19.76
263.769	19.68
263.984	19.76
264.199	20.49
264.414	20.38
264.629	20.65
264.843	20.1
265.058	20.12
265.273	19.86
265.488	19.22
265.702	18.62
265.917	17.59
266.132	17.88
266.346	17.59
266.561	16.81
266.776	16.25
266.99	15.81
267.205	15.74
267.42	15.08
267.634	14.68
267.849	14.89
268.063	14.65
268.278	15.09
268.492	14.83
268.707	15.13
268.922	15.02
269.136	14.63
269.351	14.92
269.565	14.81
269.78	15.03
269.994	14.82
270.209	14.77
270.423	14.51
270.637	14.11
270.852	14.02
271.066	13.66
271.281	13.86
271.495	13.84
271.709	13.4
271.924	13.32
272.138	13.04
272.353	13.02
272.567	12.57
272.781	12.72
272.996	12.82
273.21	12.96
273.424	13.08
273.638	13.01
273.853	13.13
274.067	13.4
274.281	13.96
274.495	14.62
274.71	15
274.924	15.16
275.138	15.48
275.352	15.3
275.566	15.47
275.781	15.38
275.995	15.38
276.209	16.18
276.423	16.4
276.637	15.65
276.851	14.88
277.065	14.41
277.279	14.52
277.493	14.13
277.707	14.3
277.921	13.96
278.135	14.03
278.349	14.13
278.563	13.78
278.777	13.53
278.991	13.76
279.205	14.45
279.419	14.77
279.633	14.78
279.847	14.44
280.061	14.3
280.275	14.16
280.489	13.81
280.703	13.39
280.917	12.69
281.131	12.52
281.344	12.89
281.558	12.29
281.772	12.12
281.986	12.07
282.2	12.36
282.414	12.09
282.627	11.89
282.841	12.07
283.055	12.3
283.269	12.77
283.482	12.86
283.696	11.89
283.91	11.8
284.123	11.6
284.337	11.59
284.551	11.37
284.764	11.4
284.978	11.22
285.192	10.81
285.405	10.57
285.619	10.32
285.833	10.18
286.046	10.54
286.26	10.81
286.473	10.78
286.687	10.73
286.9	10.38
287.114	10.66
287.327	10.83
287.541	11.29
287.754	11.59
287.968	12.06
288.181	12.23
288.395	12.25
288.608	12.2
288.822	12.41
289.035	12.22
289.248	12.73
289.462	12.58
289.675	12.63
289.889	12.75
290.102	12.65
290.315	12.28
290.529	12
290.742	12.08
290.955	12.21
291.169	12.25
291.382	12.82
291.595	13.43
291.808	13.59
292.022	13.77
292.235	13.55
292.448	13.8
292.661	14.1
292.875	14.71
293.088	15.05
293.301	15
293.514	15.11
293.727	14.85
293.94	13.97
294.153	13.86
294.367	13.46
294.58	13.45
294.793	13.37
295.006	13.16
295.219	12.87
295.432	12.77
295.645	12.56
295.858	12.04
296.071	11.85
296.284	11.92
296.497	11.73
296.71	11.84
296.923	11.87
297.136	11.68
297.349	11.89
297.562	11.61
297.775	11.56
297.988	11.81
298.201	12.26
298.414	12.43
298.626	12.53
298.839	12.84
299.052	13.41
299.265	13.46
299.478	13.65
299.691	13.74
299.903	14.33
300.116	14.59
300.329	14.6
300.542	14.88
300.755	15.11
300.967	15.33
301.18	15.78
301.393	15.62
301.605	16.03
301.818	16.43
302.031	16.3
302.243	16.48
302.456	16.56
302.669	16.66
302.881	16.65
303.094	16.52
303.307	16.57
303.519	16.42
303.732	16.4
303.944	16.09
304.157	15.85
304.37	16.2
304.582	16.29
304.795	16.56
305.007	16.37
305.22	16.68
305.432	16.92
305.645	17.06
305.857	17.27
306.069	17.63
306.282	17.85
306.494	17.84
306.707	17.5
306.919	17.47
307.132	17.15
307.344	17.42
307.556	17.22
307.769	17.23
307.981	17.15
308.193	16.91
308.406	16.69
308.618	16.81
308.83	16.93
309.043	17.1
309.255	16.74
309.467	16.5
309.679	16.63
309.892	16.26
310.104	15.98
310.316	15.75
310.528	15.36
310.74	15.15
310.953	14.88
311.165	14.84
311.377	14.66
311.589	14.76
311.801	14.94
312.013	14.89
312.225	15.19
312.437	15.53
312.649	15.8
312.862	16.25
313.074	16.41
313.286	16.6
313.498	16.7
313.71	16.85
313.922	17.13
314.134	17.09
314.346	17.23
314.558	17
314.77	16.95
314.982	17.61
315.193	17.88
315.405	18.13
315.617	18.4
315.829	18.56
316.041	18.6
316.253	18.79
316.465	18.91
316.677	18.62
316.888	19.16
317.1	19.15
317.312	18.56
317.524	18.15
317.736	18.35
317.947	18.56
318.159	18.7
318.371	18.91
318.583	18.96
318.794	19.18
319.006	19.41
319.218	19.28
319.43	19.51
319.641	20.04
319.853	20.03
320.064	19.86
320.276	19.72
320.488	20.21
320.699	20.45
320.911	20.37
321.123	20.26
321.334	20.3
321.546	20.34
321.757	20.54
321.969	20.04
322.18	20.16
322.392	20.07
322.603	19.88
322.815	19.25
323.026	18.8
323.238	18.29
323.449	17.78
323.661	17.64
323.872	17.18
324.083	17.18
324.295	17.12
324.506	17.12
324.718	16.92
324.929	16.84
325.14	16.99
325.352	16.93
325.563	17.21
325.774	17.56
325.986	17.62
326.197	17.32
326.408	16.79
326.62	16.83
326.831	16.76
327.042	16.69
327.253	16.56
327.464	16.22
327.676	15.96
327.887	15.8
328.098	15.36
328.309	15.48
328.52	15.88
328.732	16.03
328.943	16.14
329.154	16.33
329.365	16.4
329.576	16.83
329.787	17.17
329.998	17.35
330.209	17.61
330.42	18.24
330.631	18.43
330.842	18.56
331.053	18.67
331.264	18.43
331.475	18.4
331.686	18.76
331.897	18.36
332.108	18.28
332.319	18.42
332.53	18.12
332.741	18
332.952	17.59
333.163	17.2
333.374	17.01
333.585	17.02
333.795	17.04
334.006	16.65
334.217	17.09
334.428	17.19
334.639	17.28
334.849	17.67
335.06	17.46
335.271	17.48
335.482	17.75
335.692	17.69
335.903	17.76
336.114	17.51
336.325	17.74
336.535	17.46
336.746	17.23
336.957	16.93
337.167	16.81
337.378	16.93
337.589	16.81
337.799	16.8
338.01	16.86
338.22	16.59
338.431	16.75
338.642	16.6
338.852	16.48
339.063	16.59
339.273	16.73
339.484	16.51
339.694	16.42
339.905	16.58
340.115	16.69
340.326	16.75
340.536	16.62
340.746	16.43
340.957	16.48
341.167	16.25
341.378	16.14
341.588	16.26
341.799	16.49
342.009	16.31
342.219	16.13
342.43	15.9
342.64	15.38
342.85	15.48
343.061	15.52
343.271	15.39
343.481	15.42
343.691	15.27
343.902	14.79
344.112	14.44
344.322	14.25
344.532	14.11
344.743	14.07
344.953	14.16
345.163	14.25
345.373	14.13
345.583	13.88
345.793	13.61
346.004	13.83
346.214	14.02
346.424	14.23
346.634	14.6
346.844	14.69
347.054	14.58
347.264	14.81
347.474	14.95
347.684	15.05
347.894	15.25
348.104	15.63
348.314	15.42
348.524	15.22
348.734	15.25
348.944	15.35
349.154	15.08
349.364	15.02
349.574	15.09
349.784	14.45
349.994	14.41
350.204	14.34
350.413	14.36
350.623	14.5
350.833	14.83
351.043	14.63
351.253	14.17
351.463	14.35
351.672	14.53
351.882	14.45
352.092	15.16
352.302	15.07
352.511	15.23
352.721	14.93
352.931	14.62
353.141	14.75
353.35	14.65
353.56	14.83
353.77	14.4
353.979	14.21
354.189	14.05
354.399	13.61
354.608	13.42
354.818	13.56
355.027	13.64
355.237	13.82
355.447	13.16
355.656	13.2
355.866	13.09
356.075	13.26
356.285	13.16
356.494	12.97
356.704	12.94
356.913	13.08
357.123	12.69
357.332	12.57
357.542	12.93
357.751	13.19
357.96	13.15
358.17	13.05
358.379	13.2
358.589	13.4
358.798	13.44
359.007	13.37
359.217	13.04
359.426	13.15
359.635	13.29
359.845	12.36
360.054	12.32
360.263	11.99
360.472	11.79
360.682	11.6
360.891	11.3
361.1	11.12
361.309	11.03
361.519	11.16
361.728	10.92
361.937	10.9
362.146	11.12
362.355	11.08
362.564	11.28
362.774	11.51
362.983	11.43
363.192	11.51
363.401	11.67
363.61	11.68
363.819	11.83
364.028	11.98
364.237	12.09
364.446	11.79
364.655	11.74
364.864	11.55
365.073	11.38
365.282	11.32
365.491	11.27
365.7	11.25
365.909	11.45
366.118	11.26
366.327	11.43
366.536	11.09
366.745	11.54
366.954	11.8
367.162	11.87
367.371	11.99
367.58	12.33
367.789	12.43
367.998	12.45
368.207	12.45
368.415	12.6
368.624	12.29
368.833	12.35
369.042	12.12
369.25	12.04
369.459	12.09
369.668	11.91
369.877	11.7
370.085	11.5
370.294	11.48
370.503	11.23
370.711	11.04
370.92	11.21
371.129	11.01
371.337	11.05
371.546	10.8
371.754	10.69
371.963	10.84
372.171	10.92
372.38	11.13
372.589	11.12
372.797	11.17
373.006	11.24
373.214	11.08
373.423	11.28
373.631	11.06
373.84	11.05
374.048	11.13
374.256	10.88
374.465	10.83
374.673	10.6
374.882	10.7
375.09	10.88
375.298	10.73
375.507	10.59
375.715	10.6
375.923	10.71
376.132	10.56
376.34	10.26
376.548	10.08
376.757	9.81
376.965	9.75
377.173	9.52
377.381	9.41
377.59	9.45
377.798	9.65
378.006	9.55
378.214	9.64
378.423	9.67
378.631	9.94
378.839	10.21
379.047	10.38
379.255	10.36
379.463	10.24
379.671	10.03
379.879	9.95
380.088	9.83
380.296	9.95
380.504	9.96
380.712	10.09
380.92	9.94
381.128	9.96
381.336	9.91
381.544	9.97
381.752	10.18
381.96	10.17
382.168	10.01
382.376	10.11
382.584	9.81
382.791	9.56
382.999	9.39
383.207	9.27
383.415	8.9
383.623	8.69
383.831	8.9
384.039	8.69
384.247	8.65
384.454	8.81
384.662	8.51
384.87	8.59
385.078	8.56
385.285	8.33
385.493	8.42
385.701	8.48
385.909	8.53
386.116	8.36
386.324	8.35
386.532	8.39
386.739	8.22
386.947	8.28
387.155	8.21
387.362	8.14
387.57	8.37
387.778	8.23
387.985	8.29
388.193	8.22
388.4	8.22
388.608	8.42
388.816	8.35
389.023	8.43
389.231	8.36
389.438	8.45
389.646	8.56
389.853	8.31
390.061	8.17
390.268	8.19
390.475	8.29
390.683	8.22
390.89	8.07
391.098	8.16
391.305	8.08
391.512	7.94
391.72	7.67
391.927	7.59
392.135	7.67
392.342	7.69
392.549	7.79
392.756	7.54
392.964	7.4
393.171	7.28
393.378	7.18
393.586	6.94
393.793	6.97
394	6.85
394.207	6.92
394.414	6.88
394.622	6.89
394.829	6.8
395.036	6.87
395.243	6.87
395.45	6.99
395.657	7.08
395.864	7.28
396.072	7.19
396.279	7.36
396.486	7.32
396.693	7.35
396.9	7.4
397.107	7.33
397.314	7.62
397.521	7.59
397.728	7.38
397.935	7.16
398.142	7.07
398.349	7.23
398.556	7.23
398.763	7.19
398.97	7.23
399.177	7.13
399.383	6.99
399.59	6.69
399.797	6.67
400.004	6.97
400.211	7.07
400.418	6.89
400.625	6.88
400.831	6.84
401.038	6.98
401.245	6.99
401.452	6.93
401.658	7.12
401.865	7.28
402.072	7.33
402.279	7.11
402.485	7.14
402.692	7.31
402.899	7.19
403.105	7.3
403.312	7.11
403.519	6.99
403.725	7.02
403.932	6.78
404.138	6.46
404.345	6.3
404.552	6.22
404.758	6.09
404.965	5.99
405.171	5.94
405.378	5.71
405.584	5.73
405.791	5.54
405.997	5.52
406.204	5.69
406.41	5.97
406.617	6.07
406.823	6.16
407.029	6.28
407.236	6.4
407.442	6.61
407.649	6.84
407.855	6.75
408.061	6.88
408.268	6.78
408.474	6.61
408.68	6.39
408.887	6.34
409.093	6.47
409.299	6.31
409.505	6.18
409.712	5.88
409.918	5.89
410.124	5.97
410.33	5.93
410.537	6.08
410.743	6.23
410.949	6.22
411.155	6.35
411.361	6.28
411.567	6.35
411.773	6.38
411.98	6.55
412.186	6.36
412.392	6.31
412.598	6.51
412.804	6.61
413.01	6.62
413.216	6.94
413.422	6.81
413.628	6.66
413.834	6.67
414.04	6.71
414.246	6.62
414.452	6.58
414.658	6.63
414.864	6.66
415.07	6.51
415.275	6.35
415.481	6.1
415.687	6.06
415.893	6.04
416.099	5.86
416.305	5.89
416.511	6.02
416.716	6.03
416.922	5.84
417.128	5.42
417.334	5.31
417.539	5.31
417.745	5.19
417.951	5.06
418.157	4.88
418.362	4.8
418.568	4.63
418.774	4.41
418.979	4.27
419.185	4.2
419.391	4.25
419.596	4.27
419.802	4.12
420.008	4.07
420.213	4.71
420.419	4.8
420.624	4.83
420.83	4.81
421.035	4.8
421.241	4.86
421.446	4.89
421.652	4.9
421.857	4.64
422.063	4.62
422.268	4.62
422.474	3.95
422.679	3.9
422.885	3.85
423.09	3.87
423.295	3.8
423.501	3.7
423.706	3.64
423.911	3.6
424.117	3.78
424.322	3.82
424.527	3.85
424.733	3.94
424.938	3.92
425.143	3.94
425.349	3.87
425.554	3.99
425.759	4.1
425.964	4.12
426.169	4.16
426.375	4.23
426.58	4.23
426.785	4.25
426.99	4.23
427.195	4.3
427.4	4.25
427.605	4.47
427.811	4.48
428.016	4.5
428.221	4.54
428.426	4.55
428.631	4.48
428.836	4.45
429.041	4.53
429.246	4.64
429.451	4.66
429.656	4.83
429.861	4.8
430.066	4.7
430.271	4.53
430.476	4.66
430.681	4.68
430.886	4.76
431.09	4.84
431.295	4.86
431.5	4.75
431.705	4.59
431.91	4.53
432.115	4.43
432.32	4.42
432.524	4.43
432.729	4.47
432.934	4.45
433.139	4.49
433.343	4.57
433.548	4.42
433.753	4.43
433.958	4.55
434.162	4.55
434.367	4.6
434.572	4.68
434.776	4.72
434.981	4.65
435.186	4.66
435.39	4.59
435.595	4.58
435.799	4.62
436.004	4.66
436.209	4.7
436.413	4.6
436.618	4.53
436.822	4.47
437.027	4.4
437.231	4.38
437.436	4.33
437.64	4.22
437.845	4.07
438.049	4.18
438.253	4.16
438.458	4.05
438.662	4.03
438.867	3.98
439.071	3.87
439.275	3.96
439.48	3.89
439.684	3.92
439.888	3.91
440.093	3.82
440.297	3.72
440.501	3.67
440.706	3.6
440.91	3.64
441.114	3.68
441.318	3.8
441.523	3.76
441.727	3.88
441.931	3.88
442.135	3.9
442.339	4.04
442.543	4.08
442.748	4.13
442.952	4.23
443.156	4.21
443.36	4.29
443.564	4.23
443.768	4.22
443.972	4.1
444.176	4.08
444.38	4.08
444.584	3.96
444.788	3.87
444.992	3.76
445.196	3.65
445.4	3.53
445.604	3.35
445.808	3.28
446.012	3.25
446.216	3.2
446.42	3.14
446.624	3.15
446.828	3.19
447.032	3.17
447.235	3.17
447.439	3.25
447.643	3.39
447.847	3.43
448.051	3.48
448.254	3.49
448.458	3.49
448.662	3.53
448.866	3.5
449.069	3.44
449.273	3.57
449.477	3.69
449.681	3.72
449.884	3.68
450.088	3.91
450.292	3.94
450.495	4.04
450.699	4.1
450.902	4.17
451.106	4.23
451.31	4.38
451.513	4.36
451.717	4.36
451.92	4.37
452.124	4.34
452.327	4.18
452.531	4.29
452.734	4.31
452.938	4.4
453.141	4.26
453.345	4.28
453.548	4.3
453.752	4.34
453.955	4.42
454.158	4.32
454.362	4.44
454.565	4.55
454.769	4.41
454.972	4.36
455.175	4.33
455.379	4.47
455.582	4.63
455.785	4.47
455.988	4.47
456.192	4.29
456.395	4.38
456.598	4.34
456.801	4.32
457.005	4.44
457.208	4.53
457.411	4.41
457.614	4.31
457.817	4.04
458.021	4.03
458.224	3.98
458.427	3.94
458.63	3.9
458.833	3.81
459.036	3.59
459.239	3.48
459.442	3.39
459.645	3.43
459.848	3.41
460.051	3.5
460.254	3.52
460.457	3.42
460.66	3.48
460.863	3.5
461.066	3.55
461.269	3.69
461.472	3.82
461.675	3.81
461.878	3.86
462.081	3.96
462.284	3.91
462.486	3.91
462.689	3.94
462.892	4
463.095	3.88
463.298	3.95
463.5	4.05
463.703	3.97
463.906	4.13
464.109	4.06
464.311	4.11
464.514	4.23
464.717	4.37
464.92	4.6
465.122	4.48
465.325	4.63
465.528	4.57
465.73	4.54
465.933	4.5
466.135	4.36
466.338	4.33
466.541	4.35
466.743	4.2
466.946	4.1
467.148	4
467.351	4.07
467.553	3.92
467.756	3.92
467.958	3.93
468.161	3.88
468.363	3.9
468.566	3.89
468.768	3.88
468.971	3.9
469.173	3.89
469.375	3.85
469.578	3.86
469.78	3.98
469.983	4.03
470.185	3.96
470.387	4.15
470.59	4.14
470.792	4.29
470.994	4.27
471.196	4.35
471.399	4.42
471.601	4.43
471.803	4.41
472.005	4.35
472.208	4.3
472.41	4.36
472.612	4.3
472.814	4.32
473.016	4.23
473.218	4.17
473.421	4.1
473.623	4.1
473.825	4.21
474.027	4.28
474.229	4.32
474.431	4.4
474.633	4.31
474.835	4.28
475.037	4.16
475.239	4.18
475.441	4.16
475.643	4.22
475.845	4.12
476.047	4.02
476.249	3.97
476.451	4.01
476.653	3.95
476.855	3.95
477.057	3.97
477.258	4.06
477.46	4.05
477.662	4
477.864	3.91
478.066	3.85
478.268	3.81
478.469	3.77
478.671	3.69
478.873	3.68
479.075	3.6
479.276	3.52
479.478	3.46
479.68	3.4
479.882	3.38
480.083	3.4
480.285	3.37
480.487	3.35
480.688	3.27
480.89	3.26
481.091	3.14
481.293	3.07
481.495	2.95
481.696	2.83
481.898	2.71
482.099	2.61
482.301	2.49
482.502	2.44
482.704	2.36
482.905	2.3
483.107	2.21
483.308	2.18
483.51	2.14
483.711	2.11
483.913	2.11
484.114	2.11
484.315	2.09
484.517	2.12
484.718	2.13
484.92	2.15
485.121	2.17
485.322	2.21
485.524	2.26
485.725	2.29
485.926	2.28
486.127	2.31
486.329	2.3
486.53	2.33
486.731	2.3
486.932	2.29
487.134	2.29
487.335	2.3
487.536	2.26
487.737	2.24
487.938	2.24
488.139	2.3
488.341	2.31
488.542	2.34
488.743	2.31
488.944	2.36
489.145	2.34
489.346	2.36
489.547	2.34
489.748	2.43
489.949	2.43
490.15	2.41
490.351	2.42
490.552	2.4
490.753	2.36
490.954	2.39
491.155	2.39
491.356	2.41
491.557	2.37
491.758	2.38
491.959	2.37
492.159	2.42
492.36	2.48
492.561	2.48
492.762	2.49
492.963	2.58
493.164	2.68
493.364	2.81
493.565	2.96
493.766	3.07
493.967	3.2
494.167	3.3
494.368	3.32
494.569	3.32
494.769	3.38
494.97	3.51
495.171	3.51
495.371	3.57
495.572	3.47
495.773	3.39
495.973	3.47
496.174	3.43
496.375	3.42
496.575	3.36
496.776	3.44
496.976	3.49
497.177	3.48
497.377	3.54
497.578	3.51
497.778	3.48
497.979	3.56
498.179	3.54
498.38	3.58
498.58	3.63
498.78	3.77
498.981	3.82
499.181	3.84
499.382	3.88
499.582	3.88
499.782	3.93
499.983	3.96
500.183	3.92
500.383	3.93
500.584	3.94
500.784	3.99
500.984	3.96
501.184	3.89
501.385	3.93
501.585	3.93
501.785	3.98
501.985	4
502.185	4.15
502.386	4.16
502.586	4.24
502.786	4.33
502.986	4.29
503.186	4.27
503.386	4.39
503.586	4.34
503.786	4.35
503.987	4.37
504.187	4.36
504.387	4.37
504.587	4.42
504.787	4.37
504.987	4.4
505.187	4.34
505.387	4.39
505.587	4.28
505.786	4.41
505.986	4.5
506.186	4.48
506.386	4.45
506.586	4.42
506.786	4.47
506.986	4.53
507.186	4.45
507.386	4.54
507.585	4.59
507.785	4.72
507.985	4.73
508.185	4.77
508.384	4.84
508.584	4.95
508.784	4.98
508.984	5.04
509.183	5.03
509.383	5.08
509.583	5.1
509.782	5.1
509.982	5.08
510.182	5.16
510.381	5.16
510.581	5.19
510.781	5.26
510.98	5.26
511.18	5.25
511.379	5.39
511.579	5.53
511.778	5.61
511.978	5.59
512.177	5.63
512.377	5.55
512.576	5.57
512.776	5.56
512.975	5.53
513.175	5.59
513.374	5.7
513.573	5.61
513.773	5.53
513.972	5.58
514.172	5.85
514.371	6.05
514.57	6.22
514.77	6.27
514.969	6.4
515.168	6.53
515.367	6.5
515.567	6.55
515.766	6.69
515.965	6.81
516.164	6.85
516.364	6.71
516.563	6.66
516.762	6.59
516.961	6.6
517.16	6.62
517.359	6.59
517.559	6.74
517.758	6.67
517.957	6.67
518.156	6.7
518.355	6.75
518.554	6.86
518.753	6.96
518.952	7.02
519.151	7.12
519.35	7.16
519.549	7.29
519.748	7.35
519.947	7.56
520.146	7.66
520.345	7.69
520.544	7.76
520.743	7.87
520.942	7.92
521.141	8.09
521.339	8.17
521.538	8.27
521.737	8.35
521.936	8.41
522.135	8.49
522.333	8.69
522.532	8.76
522.731	8.94
522.93	9.01
523.129	9.15
523.327	9.18
523.526	9.28
523.725	9.33
523.923	9.32
524.122	9.38
524.321	9.38
524.519	9.34
524.718	9.4
524.917	9.43
525.115	9.38
525.314	9.44
525.512	9.44
525.711	9.45
525.909	9.5
526.108	9.54
526.306	9.61
526.505	9.62
526.703	9.65
526.902	9.7
527.1	9.67
527.299	9.71
527.497	9.68
527.696	9.69
527.894	9.7
528.092	9.75
528.291	9.8
528.489	9.8
528.688	9.84
528.886	9.87
529.084	9.93
529.283	10
529.481	10.09
529.679	10.16
529.877	10.28
530.076	10.38
530.274	10.46
530.472	10.53
530.67	10.64
530.869	10.75
531.067	10.86
531.265	10.96
531.463	11.11
531.661	11.18
531.859	11.26
532.057	11.35
532.255	11.44
532.454	11.47
532.652	11.53
532.85	11.64
533.048	11.68
533.246	11.74
533.444	11.78
533.642	11.82
533.84	11.88
534.038	11.96
534.236	12.04
534.434	12.12
534.632	12.23
534.83	12.32
535.027	12.39
535.225	12.44
535.423	12.55
535.621	12.6
535.819	12.6
536.017	12.69
536.215	12.73
536.412	12.77
536.61	12.78
536.808	12.88
537.006	12.99
537.203	13.1
537.401	13.25
537.599	13.27
537.797	13.36
537.994	13.53
538.192	13.66
538.39	13.71
538.587	13.82
538.785	13.9
538.983	13.91
539.18	13.92
539.378	13.87
539.575	13.77
539.773	13.78
539.97	13.83
540.168	13.76
540.366	13.67
540.563	13.69
540.761	13.66
540.958	13.67
541.155	13.67
541.353	13.71
541.55	13.72
541.748	13.74
541.945	13.79
542.143	13.79
542.34	13.86
542.537	13.98
542.735	14.09
542.932	14.19
543.129	14.22
543.327	14.31
543.524	14.36
543.721	14.47
543.919	14.66
544.116	14.76
544.313	14.84
544.51	14.93
544.708	14.9
544.905	14.95
545.102	14.97
545.299	15.06
545.496	15.12
545.693	15.13
545.891	15.11
546.088	15.06
546.285	15.12
546.482	15.12
546.679	15.18
546.876	15.3
547.073	15.35
547.27	15.47
547.467	15.5
547.664	15.55
547.861	15.68
548.058	15.84
548.255	16.05
548.452	16.15
548.649	16.31
548.846	16.4
549.043	16.44
549.24	16.6
549.437	16.58
549.633	16.72
549.83	16.83
550.027	16.85
550.224	16.84
550.421	16.82
550.618	16.81
550.814	16.83
551.011	16.86
551.208	16.92
551.405	16.82
551.601	16.82
551.798	16.89
551.995	16.77
552.191	16.85
552.388	16.9
552.585	16.85
552.781	16.87
552.978	16.82
553.175	16.87
553.371	16.94
553.568	16.97
553.764	17.04
553.961	17.04
554.157	17.15
554.354	17.18
554.55	17.2
554.747	17.32
554.943	17.28
555.14	17.33
555.336	17.36
555.533	17.35
555.729	17.46
555.926	17.52
556.122	17.66
556.318	17.69
556.515	17.67
556.711	17.67
556.907	17.74
557.104	17.89
557.3	17.97
557.496	18
557.693	17.94
557.889	18.02
558.085	18.03
558.281	18.02
558.478	18.03
558.674	18.1
558.87	18.07
559.066	18.01
559.262	17.91
559.459	18.12
559.655	18.1
559.851	18.19
560.047	18.11
560.243	18.18
560.439	18.12
560.635	18.2
560.831	18.27
561.027	18.32
561.223	18.29
561.419	18.48
561.615	18.37
561.811	18.49
562.007	18.46
562.203	18.42
562.399	18.39
562.595	18.49
562.791	18.49
562.987	18.41
563.183	18.49
563.379	18.52
563.575	18.5
563.771	18.52
563.966	18.47
564.162	18.51
564.358	18.52
564.554	18.45
564.75	18.31
564.945	18.18
565.141	18.22
565.337	18.28
565.533	18.3
565.728	18.25
565.924	18.17
566.12	18.16
566.315	18.19
566.511	18.23
566.707	18.29
566.902	18.38
567.098	18.56
567.293	18.58
567.489	18.38
567.684	18.39
567.88	18.39
568.076	18.53
568.271	18.49
568.467	18.44
568.662	18.46
568.858	18.43
569.053	18.34
569.248	18.27
569.444	18.15
569.639	18.23
569.835	18.21
570.03	18.16
570.225	18.09
570.421	18.05
570.616	18.15
570.812	18.19
571.007	18.07
571.202	18.01
571.397	18.09
571.593	18.16
571.788	18.31
571.983	18.43
572.178	18.55
572.374	18.57
572.569	18.63
572.764	18.6
572.959	18.6
573.154	18.68
573.35	18.89
573.545	18.88
573.74	18.9
573.935	18.87
574.13	18.76
574.325	18.72
574.52	18.79
574.715	18.78
574.91	18.65
575.105	18.7
575.3	18.79
575.495	18.69
575.69	18.59
575.885	18.67
576.08	18.74
576.275	18.92
576.47	18.95
576.665	18.93
576.86	19.03
577.055	19.22
577.25	19.17
577.444	19.3
577.639	19.46
577.834	19.58
578.029	19.63
578.224	19.53
578.418	19.56
578.613	19.7
578.808	19.86
579.003	19.86
579.197	19.97
579.392	20.14
579.587	20.09
579.781	20.13
579.976	20.29
580.171	20.34
580.365	20.47
580.56	20.45
580.755	20.52
580.949	20.56
581.144	20.48
581.338	20.4
581.533	20.34
581.727	20.33
581.922	20.32
582.116	20.24
582.311	20.23
582.505	20.28
582.7	20.19
582.894	20.16
583.089	20.12
583.283	20.22
583.478	20.36
583.672	20.49
583.866	20.45
584.061	20.3
584.255	20.21
584.449	20.25
584.644	20.21
584.838	20.21
585.032	20.25
585.226	20.27
585.421	20.4
585.615	20.39
585.809	20.31
586.003	20.49
586.198	20.66
586.392	20.86
586.586	20.77
586.78	20.78
586.974	20.94
587.168	20.9
587.363	20.85
587.557	20.76
587.751	20.83
587.945	20.86
588.139	20.91
588.333	20.83
588.527	20.68
588.721	20.72
588.915	20.67
589.109	20.67
589.303	20.67
589.497	20.59
589.691	20.67
589.885	20.54
590.079	20.49
590.273	20.4
590.466	20.57
590.66	20.66
590.854	20.87
591.048	20.89
591.242	20.93
591.436	21.02
591.629	21.05
591.823	21.1
592.017	21.14
592.211	21.14
592.404	21.08
592.598	20.86
592.792	20.89
592.986	20.68
593.179	20.66
593.373	20.64
593.567	20.51
593.76	20.41
593.954	20.36
594.147	20.4
594.341	20.38
594.535	20.44
594.728	20.57
594.922	20.46
595.115	20.46
595.309	20.32
595.502	20.3
595.696	20.3
595.889	20.44
596.083	20.4
596.276	20.41
596.47	20.36
596.663	20.39
596.856	20.36
597.05	20.42
597.243	20.56
597.437	20.7
597.63	20.72
597.823	20.78
598.017	20.83
598.21	20.85
598.403	20.84
598.596	20.84
598.79	20.83
598.983	20.86
599.176	20.97
599.369	21.04
599.563	21.16
599.756	21.13
599.949	21.28
600.142	21.2
600.335	21.39
600.528	21.31
600.722	21.51
600.915	21.7
601.108	21.85
601.301	21.91
601.494	21.67
601.687	21.51
601.88	21.48
602.073	21.2
602.266	21.18
602.459	21.06
602.652	21.12
602.845	21.07
603.038	20.96
603.231	20.96
603.424	20.76
603.617	20.8
603.809	20.91
604.002	20.84
604.195	21.01
604.388	20.99
604.581	20.95
604.774	20.91
604.966	20.82
605.159	20.77
605.352	20.7
605.545	20.79
605.737	20.8
605.93	20.78
606.123	21.09
606.316	21.1
606.508	21.27
606.701	21.45
606.894	21.64
607.086	21.81
607.279	21.95
607.471	22.05
607.664	22.04
607.857	21.99
608.049	21.87
608.242	21.86
608.434	21.83
608.627	21.65
608.819	21.51
609.012	21.5
609.204	21.61
609.397	21.65
609.589	21.84
609.782	21.98
609.974	22.17
610.166	22.42
610.359	22.45
610.551	22.53
610.743	22.74
610.936	22.93
611.128	22.93
611.32	22.91
611.513	22.98
611.705	23.06
611.897	23.14
612.09	23.18
612.282	23
612.474	23.06
612.666	23.21
612.858	23.46
613.051	23.57
613.243	23.66
613.435	23.51
613.627	23.43
613.819	23.17
614.011	23.28
614.203	23.34
614.395	23.51
614.588	23.54
614.78	23.42
614.972	23.36
615.164	23.41
615.356	23.39
615.548	23.62
615.74	23.65
615.932	23.54
616.124	23.37
616.315	23.39
616.507	23.4
616.699	23.19
616.891	23.15
617.083	23.19
617.275	23.19
617.467	23.26
617.659	23.14
617.85	23.22
618.042	23.27
618.234	23.25
618.426	23.3
618.618	23.35
618.809	23.41
619.001	23.43
619.193	23.2
619.384	23.2
619.576	23.24
619.768	23.23
619.959	23.15
620.151	23.22
620.343	23.07
620.534	22.78
620.726	22.74
620.917	22.8
621.109	22.79
621.301	22.95
621.492	22.88
621.684	22.8
621.875	22.99
622.067	23.02
622.258	22.98
622.45	23.23
622.641	23.35
622.832	23.32
623.024	23.2
623.215	23.46
623.407	23.45
623.598	23.52
623.789	23.58
623.981	23.54
624.172	23.59
624.363	23.56
624.555	23.51
624.746	23.66
624.937	23.74
625.129	23.94
625.32	23.84
625.511	23.77
625.702	23.54
625.893	23.56
626.085	23.27
626.276	23.36
626.467	23.45
626.658	23.28
626.849	23.17
627.04	23.08
627.231	22.98
627.422	22.93
627.614	22.84
627.805	22.91
627.996	22.73
628.187	22.95
628.378	22.71
628.569	22.75
628.76	22.88
628.951	22.95
629.142	23.03
629.332	23.03
629.523	22.93
629.714	23.08
629.905	23.33
630.096	23.51
630.287	23.5
630.478	23.53
630.669	23.4
630.859	23.51
631.05	23.61
631.241	23.65
631.432	23.58
631.623	23.89
631.813	23.84
632.004	23.68
632.195	23.56
632.385	23.63
632.576	23.68
632.767	23.76
632.957	23.85
633.148	23.89
633.339	23.91
633.529	24.01
633.72	23.75
633.91	23.72
634.101	23.75
634.292	23.94
634.482	23.98
634.673	24.21
634.863	24.22
635.054	24.11
635.244	24
635.435	24.03
635.625	24.03
635.815	24.12
636.006	24.31
636.196	24.31
636.387	24.22
636.577	24.28
636.767	24.32
636.958	24.36
637.148	24.57
637.338	24.74
637.529	24.55
637.719	24.53
637.909	24.47
638.099	24.29
638.29	24.24
638.48	24.18
638.67	24.38
638.86	24.25
639.05	24.43
639.241	24.34
639.431	24.1
639.621	24.38
639.811	24.55
640.001	24.55
640.191	24.69
640.381	24.7
640.571	24.83
640.761	24.61
640.951	24.55
641.141	24.59
641.331	24.46
641.521	24.82
641.711	24.74
641.901	24.75
642.091	25.07
642.281	25.2
642.471	25.38
642.661	25.44
642.851	25.57
643.041	25.69
643.231	25.61
643.42	25.92
643.61	25.66
643.8	25.7
643.99	25.59
644.18	25.36
644.369	25.29
644.559	25.21
644.749	25.18
644.939	25.27
645.128	25.14
645.318	25.31
645.508	25.12
645.697	25.16
645.887	25.28
646.076	25.51
646.266	25.36
646.456	25.36
646.645	25.81
646.835	25.71
647.024	25.44
647.214	25.54
647.403	25.43
647.593	25.55
647.782	25.47
647.972	25.35
648.161	25.37
648.351	25.56
648.54	25.41
648.73	24.89
648.919	24.95
649.108	25.28
649.298	25.37
649.487	25.24
649.677	25.21
649.866	25.31
650.055	25.32
650.244	25.18
650.434	25.11
650.623	25.4
650.812	25.41
651.002	25.22
651.191	25.18
651.38	25.26
651.569	25.28
651.758	25.19
651.947	25.26
652.137	25.5
652.326	25.54
652.515	25.8
652.704	25.81
652.893	25.99
653.082	26.33
653.271	26.3
653.46	25.94
653.649	25.92
653.838	26.02
654.027	25.94
654.216	25.66
654.405	25.57
654.594	25.29
654.783	25.2
654.972	25.37
655.161	25.48
655.35	25.42
655.539	25.84
655.728	26.08
655.916	26.21
656.105	26.22
656.294	26.41
656.483	26.37
656.672	26.4
656.86	26.15
657.049	25.83
657.238	25.55
657.427	25.44
657.615	25.42
657.804	25.11
657.993	24.97
658.181	25.07
658.37	25.07
658.559	25.04
658.747	25.09
658.936	25.3
659.125	25.37
659.313	25.41
659.502	25.56
659.69	25.41
659.879	25.42
660.067	25.36
660.256	25.38
660.444	25.28
660.633	25.42
660.821	25.6
661.01	25.6
661.198	25.41
661.387	25.53
661.575	25.48
661.763	25.76
661.952	26.02
662.14	26.26
662.328	26.28
662.517	26.64
662.705	26.62
662.893	26.61
663.082	26.78
663.27	27.32
663.458	27.55
663.646	27.54
663.834	27.51
664.023	27.52
664.211	27.63
664.399	27.66
664.587	27.48
664.775	27.54
664.963	27.46
665.152	27.42
665.34	27.45
665.528	27.28
665.716	27.22
665.904	27.16
666.092	27.27
666.28	27.27
666.468	27.34
666.656	27.42
666.844	27.55
667.032	27.6
667.22	27.68
667.408	27.46
667.596	27.47
667.784	27.65
667.971	27.88
668.159	27.49
668.347	27.32
668.535	27.31
668.723	27.2
668.911	27.17
669.098	27.09
669.286	27.15
669.474	27.15
669.662	27.23
669.849	27.34
670.037	27.28
670.225	27.53
670.413	27.37
670.6	27.54
670.788	27.62
670.976	27.71
671.163	27.87
671.351	27.79
671.538	27.96
671.726	28.14
671.913	28.01
672.101	27.85
672.289	27.84
672.476	27.93
672.664	28.1
672.851	28.2
673.039	28.02
673.226	28.01
673.413	27.98
673.601	27.98
673.788	28.04
673.976	27.85
674.163	28.1
674.35	28.22
674.538	28.3
674.725	28.03
674.912	27.71
675.1	27.7
675.287	27.73
675.474	27.56
675.662	27.51
675.849	27.55
676.036	27.82
676.223	27.76
676.411	27.86
676.598	27.64
676.785	27.52
676.972	27.7
677.159	27.81
677.346	27.76
677.533	27.9
677.721	27.9
677.908	27.33
678.095	27.3
678.282	27.06
678.469	26.87
678.656	26.76
678.843	26.68
679.03	26.64
679.217	26.7
679.404	26.72
679.591	26.42
679.778	26.54
679.964	26.85
680.151	26.88
680.338	26.9
680.525	26.83
680.712	26.97
680.899	26.96
681.086	27.02
681.272	26.83
681.459	26.87
681.646	27.43
681.833	27.28
682.02	27.34
682.206	27.39
682.393	27.75
682.58	28.16
682.766	28.56
682.953	28.93
683.14	29.04
683.326	29.44
683.513	29.89
683.7	29.74
683.886	29.8
684.073	29.88
684.259	30
684.446	29.78
684.632	29.65
684.819	29.45
685.005	29.54
685.192	29.75
685.378	29.8
685.565	29.26
685.751	29.26
685.938	29.26
686.124	28.99
686.31	29.01
686.497	29.01
686.683	29.02
686.87	29.16
687.056	28.74
687.242	28.43
687.429	28.33
687.615	28.36
687.801	28.37
687.987	28.4
688.174	28.47
688.36	28.45
688.546	28.37
688.732	28.36
688.918	28.43
689.105	28.44
689.291	28.65
689.477	29.11
689.663	29.43
689.849	29.6
690.035	29.92
690.221	30.24
690.407	30.34
690.593	30.32
690.779	30.34
690.965	30.11
691.151	30.58
691.337	30.63
691.523	30.29
691.709	30.36
691.895	30.31
692.081	30.32
692.267	30.14
692.453	30.29
692.639	30.5
692.825	30.58
693.011	30.63
693.196	30.37
693.382	30.22
693.568	30.47
693.754	30.35
693.94	30.55
694.125	30.42
694.311	30.72
694.497	30.56
694.682	30.73
694.868	30.89
695.054	30.98
695.239	31.27
695.425	31.18
695.611	30.55
695.796	30.52
695.982	30.15
696.168	29.87
696.353	29.58
696.539	29.21
696.724	28.9
696.91	28.62
697.095	28.63
697.281	28.26
697.466	28.14
697.652	28.41
697.837	28.15
698.023	28.2
698.208	27.96
698.393	27.8
698.579	27.78
698.764	27.69
698.949	27.57
699.135	27.58
699.32	27.35
699.505	27.5
699.691	27.26
699.876	27.31
700.061	27.34
700.246	27.6
700.432	27.78
700.617	28
700.802	28.22
700.987	28.48
701.172	28.83
701.358	29.4
701.543	29.78
701.728	29.99
701.913	30.55
702.098	30.96
702.283	31.64
702.468	31.91
702.653	32.3
702.838	32.74
703.023	33.25
703.208	32.99
703.393	32.88
703.578	32.95
703.763	33.58
703.948	33.29
704.133	33.14
704.318	32.66
704.503	32.77
704.688	32.51
704.873	32.42
705.057	32.18
705.242	32.25
705.427	32.73
705.612	32.63
705.797	32.29
705.981	32.74
706.166	32.73
706.351	32.85
706.536	33.14
706.72	33.75
706.905	34.06
707.09	34.32
707.274	34.52
707.459	34.49
707.644	34.74
707.828	35.17
708.013	34.95
708.197	35.2
708.382	35.41
708.567	35.26
708.751	34.8
708.936	34.18
709.12	33.82
709.305	33.82
709.489	33.9
709.673	33.73
709.858	33.16
710.042	32.95
710.227	32.59
710.411	32.6
710.596	32.68
710.78	33.05
710.964	33.13
711.149	33.47
711.333	33.18
711.517	32.64
711.702	32.77
711.886	32.66
712.07	32.96
712.254	33.12
712.438	33.09
712.623	32.81
712.807	32.43
712.991	32.73
713.175	32.51
713.359	32.74
713.544	32.69
713.728	32.25
713.912	32.68
714.096	32.12
714.28	32.15
714.464	32.12
714.648	31.84
714.832	32.14
715.016	32.26
715.2	31.84
715.384	31.47
715.568	31.96
715.752	31.82
715.936	31.85
716.12	32.01
716.304	32.04
716.488	31.88
716.671	32.43
716.855	32.16
717.039	32.17
717.223	32.47
717.407	32.65
717.59	32.95
717.774	33.1
717.958	32.99
718.142	33.37
718.325	33.63
718.509	33.76
718.693	33.61
718.877	33.73
719.06	33.79
719.244	34.01
719.428	34.19
719.611	34.19
719.795	34.3
719.978	35.01
720.162	35.33
720.345	34.96
720.529	35.59
720.713	35.8
720.896	35.29
721.08	35.27
721.263	35.4
721.446	35.49
721.63	34.95
721.813	35.26
721.997	34.68
722.18	33.62
722.364	34.05
722.547	33.58
722.73	33.79
722.914	34.44
723.097	34.06
723.28	34
723.464	34.15
723.647	34.84
723.83	34.65
724.013	35.12
724.197	35.96
724.38	35.76
724.563	35.68
724.746	35.44
724.929	35.66
725.112	36.22
725.296	35.89
725.479	36.12
725.662	35.6
725.845	35.8
726.028	35.2
726.211	34.76
726.394	35.3
726.577	35.25
726.76	34.89
726.943	34.72
727.126	33.88
727.309	33.82
727.492	33.73
727.675	33.72
727.858	33.69
728.041	33.78
728.224	34.07
728.407	33.44
728.589	33.94
728.772	33.88
728.955	33.91
729.138	34.53
729.321	34.67
729.503	34.73
729.686	34.61
729.869	34.72
730.052	34.77
730.234	34.89
730.417	35.14
730.6	34.53
730.782	34.79
730.965	34.97
731.148	35.24
731.33	35.49
731.513	35.41
731.695	35.89
731.878	35.52
732.061	35.38
732.243	35.1
732.426	35.11
732.608	35.55
732.791	35.75
732.973	35.68
733.156	35.38
733.338	35.28
733.52	35.62
733.703	35.34
733.885	35.74
734.068	35.95
734.25	36.33
734.432	36.07
734.615	36.11
734.797	36.27
734.979	36.11
735.162	36.11
735.344	36.3
735.526	35.87
735.708	35.61
735.891	35.49
736.073	35.48
736.255	36.05
736.437	36.93
736.619	37.26
736.802	37.2
736.984	37.2
737.166	37.55
737.348	38.03
737.53	38.46
737.712	38.58
737.894	38.84
738.076	39.07
738.258	38.66
738.44	38.07
738.622	37.65
738.804	37.06
738.986	37.44
739.168	36.53
739.35	35.91
739.532	35.92
739.714	36.68
739.896	36.27
740.078	36.42
740.259	36.14
740.441	36.5
740.623	36.88
740.805	37.43
740.987	37.39
741.168	37.93
741.35	39.12
741.532	38.99
741.714	38.74
741.895	39.5
742.077	39.93
742.259	40.54
742.44	40.9
742.622	41.25
742.804	42.24
742.985	42.59
743.167	43.33
743.348	42.98
743.53	43.51
743.711	43.23
743.893	44.12
744.075	43.45
744.256	43.51
744.438	43.62
744.619	43.24
744.8	43.06
744.982	43.01
745.163	42.36
745.345	42.44
745.526	41.9
745.707	42.67
745.889	41.52
746.07	41.79
746.252	41.89
746.433	41.65
746.614	41.98
746.795	42.12
746.977	41.75
747.158	42.51
747.339	42.73
747.52	42.98
747.702	43.25
747.883	43.43
748.064	43.67
748.245	43.05
748.426	43.45
748.607	43.27
748.788	42.62
748.97	43
749.151	42.84
749.332	42.6
749.513	42.72
749.694	42.55
749.875	43.57
750.056	42.91
750.237	42.87
750.418	42.64
750.599	42.53
750.78	42.9
750.96	42.87
751.141	42.97
751.322	42.81
751.503	43
751.684	43.3
751.865	42.67
752.046	43.34
752.226	44.37
752.407	44.03
752.588	43.85
752.769	43.31
752.949	43.46
753.13	43.68
753.311	43.4
753.492	43.22
753.672	42.84
753.853	42.42
754.034	42.7
754.214	42.45
754.395	42.46
754.575	43.44
754.756	44.42
754.937	44.65
755.117	43.83
755.298	44.27
755.478	44.37
755.659	43.93
755.839	44.35
756.02	43.73
756.2	43.72
756.381	43.34
756.561	42.52
756.741	41.46
756.922	41.32
757.102	41.79
757.283	41.81
757.463	42.22
757.643	42.65
757.823	42.98
758.004	43.19
758.184	42.89
758.364	43.92
758.545	43.93
758.725	44.09
758.905	43.98
759.085	44.18
759.265	43.88
759.446	43.62
759.626	43.29
759.806	42.51
759.986	42.39
760.166	42.2
760.346	41.22
760.526	41.9
760.706	41.66
760.886	41.5
761.066	40.8
761.246	40.29
761.426	39.49
761.606	38.88
761.786	38.86
761.966	38.82
762.146	38.18
762.326	38.66
762.506	37.27
762.686	37.38
762.866	36.69
763.046	36.65
763.225	36.55
763.405	36.46
763.585	36.17
763.765	36.01
763.945	35.69
764.124	36.13
764.304	35.85
764.484	36.04
764.664	35.86
764.843	36.71
765.023	37.38
765.203	37.72
765.382	37.96
765.562	38.83
765.741	39.24
765.921	39.98
766.101	40.1
766.28	40.53
766.46	41.36
766.639	41.75
766.819	42
766.998	41.69
767.178	42.07
767.357	42.8
767.537	42.98
767.716	43.14
767.896	43.6
768.075	43.64
768.254	43.52
768.434	44.38
768.613	44.75
768.792	44.44
768.972	44.92
769.151	45.51
769.33	45.51
769.51	46.31
769.689	47.03
769.868	46.24
770.047	47.74
770.226	47.55
770.406	46.38
770.585	46.52
770.764	46.6
770.943	46.38
771.122	46.03
771.301	46.01
771.48	46.08
771.66	46.09
771.839	47.15
772.018	46.24
772.197	47.24
772.376	47.8
772.555	48.72
772.734	48.73
772.913	48.83
773.092	49.47
773.271	49.63
773.449	48.78
773.628	48.98
773.807	48.55
773.986	49.4
774.165	48.7
774.344	49.37
774.523	47.95
774.701	48.88
774.88	49.45
775.059	49.01
775.238	48.95
775.417	49.85
775.595	50.12
775.774	50.29
775.953	49.74
776.131	49.69
776.31	48.68
776.489	50.27
776.667	49.91
776.846	50.4
777.025	50.33
777.203	49.83
777.382	49.3
777.56	47.73
777.739	47.7
777.917	48.33
778.096	49.01
778.274	49.91
778.453	49.31
778.631	49.44
778.81	48.94
778.988	49.26
779.166	49.81
779.345	49.83
779.523	50.23
779.702	50.82
779.88	50.05
780.058	50.67
780.237	49.91
780.415	50.38
780.593	49.53
780.771	50.15
780.95	50.94
781.128	51.09
781.306	51.36
781.484	52.48
781.662	52.08
781.841	52.91
782.019	52.29
782.197	53.1
782.375	52.86
782.553	52.82
782.731	51.9
782.909	51.43
783.087	52.27
783.265	52.5
783.443	52.31
783.621	52.77
783.799	52.7
783.977	53.15
784.155	53.02
784.333	53.09
784.511	54.56
784.689	54.98
784.867	55.49
785.045	54.87
785.223	55.25
785.4	55.88
785.578	55.2
785.756	54.59
785.934	54.11
786.112	54.71
786.289	55.47
786.467	54.95
786.645	54.61
786.823	54.15
787	54.59
787.178	53.23
787.356	51.86
787.533	51.01
787.711	50.31
787.889	50.45
788.066	49.41
788.244	47.99
788.421	47.4
788.599	47.61
788.776	48.21
788.954	47.81
789.131	48.23
789.309	47.86
789.486	48.15
789.664	49.36
789.841	49.59
790.019	50.22
790.196	51.26
790.373	53.09
790.551	54.14
790.728	53.53
790.906	54.29
791.083	54.43
791.26	55.55
791.437	56.88
791.615	56.02
791.792	56.76
791.969	56.43
792.146	55.73
792.324	55.21
792.501	55.66
792.678	55.98
792.855	56.76
793.032	57.73
793.209	58.44
793.387	58.16
793.564	58.73
793.741	58.58
793.918	60.53
794.095	61.37
794.272	60.57
794.449	57.74
794.626	58.09
794.803	56.11
794.98	55.14
795.157	54.68
795.334	55.46
795.511	55.83
795.688	55.54
795.864	54.19
796.041	53.63
796.218	55.49
796.395	57.31
796.572	56.55
796.749	56.67
796.925	56.85
797.102	57.64
797.279	56.98
797.456	56.65
797.632	55.54
797.809	54.88
797.986	55.15
798.162	53.47
798.339	53.55
798.516	54.4
798.692	55.77
798.869	56.19
799.046	55.51
799.222	55.77
799.399	55.31
799.575	56.25
799.752	57.95
799.928	58.97
800.105	60.05
800.281	60.18
800.458	59.51
800.634	60.12
800.811	59.34
800.987	60.45
801.163	60.56
801.34	61.38
801.516	62.98
801.692	62.84
801.869	62.63
802.045	61.27
802.221	61
802.398	61.22
802.574	61.14
802.75	62.35
802.926	62.19
803.103	64.27
803.279	63.42
803.455	61.33
803.631	61.52
803.807	62.85
803.983	65.48
804.16	66.41
804.336	67.71
804.512	67.48
804.688	68.02
804.864	68.86
805.04	66.52
805.216	67.53
805.392	68.59
805.568	68.85
805.744	67.31
805.92	66.4
806.096	66.49
806.272	67.62
806.448	67.86
806.623	68.91
806.799	68.11
806.975	68.87
807.151	69.43
807.327	69.28
807.503	68.74
807.678	68.97
807.854	67.58
808.03	66.99
808.206	64.83
808.381	63.33
808.557	62.92
808.733	62.85
808.908	62.77
809.084	62.08
809.26	61.35
809.435	61.6
809.611	61.05
809.787	61.3
809.962	62.16
810.138	63.19
810.313	64.84
810.489	64.22
810.664	64.14
810.84	64.85
811.015	67.51
811.191	68.44
811.366	69.73
811.542	71.49
811.717	72.71
811.892	72.28
812.068	72.94
812.243	72.56
812.419	74.57
812.594	74.14
812.769	72.2
812.944	70.07
813.12	71.79
813.295	69.94
813.47	69.02
813.645	68.96
813.821	68.8
813.996	66.94
814.171	66.95
814.346	66.17
814.521	67.06
814.697	68.73
814.872	69.26
815.047	69.3
815.222	70.35
815.397	69.92
815.572	70.05
815.747	69.9
815.922	70.63
816.097	70.68
816.272	71.28
816.447	70.33
816.622	70.13
816.797	69.54
816.972	67.33
817.147	67.07
817.322	67.22
817.496	65.56
817.671	67.54
817.846	67.43
818.021	66.41
818.196	66.52
818.371	65.82
818.545	64.7
818.72	64.74
818.895	65
819.069	63.69
819.244	62.34
819.419	60.96
819.594	58.39
819.768	56.98
819.943	55.37
820.117	51.55
820.292	48.87
820.467	46.61
820.641	44.36
820.816	41.97
820.99	39.44
821.165	37.94
821.339	36.85
821.514	35.32
821.688	34.14
821.863	33.32
822.037	32.89
822.212	32.75
822.386	32.37
822.56	31.78
822.735	31.73
822.909	31.81
823.084	31.82
823.258	31.89
823.432	32.09
823.606	32.48
823.781	32.74
823.955	33.27
824.129	33.44
824.303	34.11
824.478	34.48
824.652	34.72
824.826	35.43
825	35.62
825.174	36.23
825.348	36.97
825.523	37.36
825.697	38.08
825.871	37.73
826.045	38.48
826.219	37.84
826.393	38.7
826.567	39.53
826.741	39.69
826.915	39.5
827.089	39.87
827.263	39.21
827.437	38.81
827.611	38.87
827.784	39.22
827.958	39.32
828.132	40.32
828.306	40.77
828.48	41.16
828.654	41.82
828.827	43.08
829.001	43.3
829.175	45.07
829.349	47.62
829.522	49.01
829.696	50.73
829.87	51.95
830.044	54.11
830.217	55.24
830.391	54.96
830.565	55.6
830.738	56.92
830.912	57.82
831.085	58.49
831.259	58.72
831.432	58.04
831.606	58.83
831.779	57.86
831.953	55.6
832.126	55.1
832.3	55.41
832.473	54.87
832.647	53.5
832.82	51.65
832.994	50.36
833.167	48.5
833.34	48.47
833.514	46.71
833.687	46.55
833.86	46.48
834.034	45.91
834.207	45.99
834.38	45.9
834.553	45.93
834.727	46.91
834.9	47.3
835.073	47.92
835.246	48.54
835.419	49.93
835.593	50.99
835.766	51.97
835.939	53.28
836.112	54.01
836.285	55.02
836.458	56.82
836.631	58.15
836.804	60.37
836.977	62.02
837.15	63.37
837.323	64.62
837.496	66.5
837.669	68.99
837.842	71.47
838.015	75.48
838.188	77.4
838.361	79.23
838.533	79.03
838.706	80.76
838.879	81.3
839.052	83.35
839.225	84.84
839.398	82.83
839.57	83.51
839.743	81.54
839.916	80.61
840.088	80.95
840.261	79.96
840.434	81
840.607	78.13
840.779	78.91
840.952	77.63
841.124	76.01
841.297	76.76
841.47	76.77
841.642	78.85
841.815	78.44
841.987	80.45
842.16	81.74
842.332	82.49
842.505	85.93
842.677	87.06
842.85	89.22
843.022	88.9
843.194	93.51
843.367	93.54
843.539	95.67
843.712	95.04
843.884	91.18
844.056	95.52
844.229	98.38
844.401	98.75
844.573	101.06
844.745	99.66
844.918	107.03
845.09	108.4
845.262	111.5
845.434	111.89
845.606	110.18
845.779	116.52
845.951	114.24
846.123	114.06
846.295	114
846.467	111.79
846.639	116.98
846.811	115.12
846.983	112.22
847.155	110.56
847.327	108
847.499	113.65
847.671	114.27
847.843	114.06
848.015	117.67
848.187	120.14
848.359	123.96
848.531	121.67
848.703	122.94
848.875	123.9
849.047	123.42
849.218	128.14
849.39	129.34
849.562	127.01
849.734	122.83
849.905	117.55
850.077	120.6
850.249	120.02
850.421	120.19
850.592	121.58
850.764	120.14
850.936	124.97
851.107	125.68
851.279	123.91
851.451	127.65
851.622	132.39
851.794	145.08
851.965	134.22
852.137	135.99
852.308	141.06
852.48	147.34
852.651	149.07
852.823	150.61
852.994	145.82
853.166	153.71
853.337	152.86
853.509	152.09
853.68	146.11
853.851	148.46
854.023	145.94
854.194	141.36
854.365	132.69
854.537	135.9
854.708	133.55
854.879	139.36
855.05	135.21
855.222	134.13
855.393	134.57
855.564	137.97
855.735	141.75
855.906	140.2
856.078	145.06
856.249	151.4
856.42	151.13
856.591	149.97
856.762	148.88
856.933	147.03
857.104	148.74
857.275	147.88
857.446	148.08
857.617	154.12
857.788	155.03
857.959	150.43
858.13	148.66
858.301	153.3
858.472	156.32
858.643	156.45
858.814	157.18
858.985	157.17
859.155	167.54
859.326	167.82
859.497	163.16
859.668	162.7
859.839	165.17
860.009	161.39
860.18	157.81
860.351	155.17
860.522	153.88
860.692	154.98
860.863	163.41
861.034	162.79
861.204	162.55
861.375	165.12
861.546	164.52
861.716	159.76
861.887	166.69
862.057	167.64
862.228	173.66
862.398	163.02
862.569	158.81
862.739	154.7
862.91	152.89
863.08	150.72
863.251	150.7
863.421	157.39
863.592	164.85
863.762	158.93
863.932	154.15
864.103	150.73
864.273	153.85
864.443	153.59
864.614	151.19
864.784	156.55
864.954	152.13
865.125	147.62
865.295	150.74
865.465	147.35
865.635	150.11
865.805	154.38
865.976	156.58
866.146	158.83
866.316	160.48
866.486	159.08
866.656	158.99
866.826	167.35
866.996	170.23
867.166	167.58
867.336	164.58
867.506	165
867.676	160.39
867.846	165.45
868.016	165.16
868.186	172.38
868.356	174.59
868.526	167.23
868.696	163.94
868.866	164.22
869.036	164.74
869.206	167.7
869.376	165.74
869.545	170.76
869.715	174.2
869.885	177.82
870.055	170.61
870.224	173.24
870.394	180.24
870.564	175.52
870.734	171.14
870.903	170.68
871.073	170.44
871.243	163.62
871.412	166.7
871.582	157.47
871.751	158.77
871.921	157.58
872.091	159.25
872.26	150.3
872.43	147.88
872.599	148.88
872.769	139.02
872.938	139.07
873.108	152.73
873.277	147.1
873.446	148.24
873.616	150.63
873.785	149.58
873.955	139.13
874.124	147.52
874.293	147.71
874.463	154.56
874.632	155.71
874.801	159.8
874.971	146.02
875.14	151.85
875.309	156.4
875.478	148.82
875.647	158.46
875.817	157.62
875.986	154.56
876.155	155.05
876.324	148.18
876.493	158.65
876.662	154.94
876.831	154.29
877	153.33
877.17	148.94
877.339	152.28
877.508	145.55
877.677	156.63
877.846	153.83
878.015	154.59
878.184	152.19
878.352	147.55
878.521	146.27
878.69	149.58
878.859	140.8
879.028	136.6
879.197	130.6
879.366	125.31
879.534	117.82
879.703	108.13
879.872	97.42
880.041	91.21
880.21	83.55
880.378	76.64
880.547	72.17
880.716	66.53
880.884	62.07
881.053	58.53
881.222	56.08
881.39	52.99
881.559	51.19
881.727	50.8
881.896	49.58
882.065	48.97
882.233	48.59
882.402	47.87
882.57	48.13
882.739	47.56
882.907	48.05
883.076	48.21
883.244	47.93
883.412	48.26
883.581	48.91
883.749	49.92
883.918	51.23
884.086	52.92
884.254	55.15
884.423	56.67
884.591	58.77
884.759	59.77
884.927	63.2
885.096	66.72
885.264	71.52
885.432	76
885.6	78.26
885.769	80.93
885.937	84.56
886.105	86.67
886.273	93.83
886.441	98.28
886.609	103.77
886.777	104.18
886.945	109.15
887.113	113.23
887.281	112.84
887.449	118.37
887.617	120.09
887.785	119.87
887.953	124.31
888.121	121.26
888.289	127.47
888.457	130.1
888.625	133.87
888.793	138.52
888.961	138.01
889.129	143.4
889.296	144.75
889.464	150.19
889.632	152.9
889.8	154.05
889.967	162.14
890.135	157.06
