Data from 2938716__Reflection_02.txt Node
Date: Tue Mar 17 18:56:14 EDT 2015
User: robert
Spectrometer: USB4E03002
Autoset integration time: false
Trigger mode: 4
Integration Time (sec): 1.000000E-1
Scans to average: 10
Electric dark correction enabled: false
Nonlinearity correction enabled: false
Boxcar width: 5
Stray light correction enabled: false
XAxis mode: Wavelengths
Stop averaging: false
Number of Pixels in Spectrum: 3648
>>>>>Begin Spectral Data<<<<<
177.575	-38.33
177.794	-118.29
178.014	-59.22
178.233	28.08
178.452	21.63
178.672	-18.55
178.891	-19.43
179.11	-48.39
179.33	-286.79
179.549	-17.36
179.768	-42.53
179.987	-21.16
180.207	-43.37
180.426	-56.95
180.645	-23000
180.864	10460
181.084	865.38
181.303	414.17
181.522	381.44
181.741	1718.92
181.96	204.57
182.179	215.16
182.398	303.91
182.618	260.47
182.837	509.38
183.056	380.77
183.275	314.09
183.494	506
183.713	500
183.932	389.66
184.151	204.98
184.37	205.14
184.589	325.42
184.808	235.54
185.027	209.34
185.246	172.23
185.465	150.08
185.684	117.29
185.903	111.67
186.122	103.52
186.341	105.97
186.56	80.73
186.779	67.35
186.998	48.97
187.216	49.28
187.435	48.06
187.654	43.65
187.873	32.71
188.092	67.23
188.311	81.15
188.53	96.2
188.748	99.54
188.967	135.74
189.186	270.83
189.405	-34.45
189.623	18.94
189.842	8.96
190.061	-39.96
190.28	-186.64
190.498	-226.82
190.717	-136.45
190.936	-175.76
191.154	-7466.67
191.373	171.37
191.592	254.11
191.81	152.95
192.029	117.47
192.248	95.29
192.466	103.68
192.685	102.21
192.904	97.05
193.122	117.72
193.341	131.59
193.559	166.42
193.778	248.18
193.996	248.39
194.215	673.74
194.433	-470.63
194.652	3627.27
194.87	396
195.089	1892.86
195.307	550.83
195.526	297.59
195.744	232.54
195.963	219.46
196.181	183.53
196.399	206.12
196.618	168.24
196.836	178.42
197.055	263.06
197.273	240.75
197.491	200
197.71	184.33
197.928	212.95
198.146	289.66
198.365	588.82
198.583	2134.21
198.801	10675
199.019	-84400
199.238	637.84
199.456	1314
199.674	-848.39
199.892	-628.81
200.111	-239.55
200.329	-382.11
200.547	-418.18
200.765	966.67
200.983	523.56
201.202	243.64
201.42	271.47
201.638	258.94
201.856	208.52
202.074	144.07
202.292	197.83
202.51	251.63
202.728	202.19
202.946	273.55
203.165	543.3
203.383	3406.67
203.601	-284.54
203.819	-945.45
204.037	576.24
204.255	498.9
204.473	306.65
204.691	217.28
204.909	143.43
205.127	153.29
205.345	147.4
205.562	143.07
205.78	139.64
205.998	108.29
206.216	115.43
206.434	134.15
206.652	106.24
206.87	102.69
207.088	138.52
207.306	170.8
207.523	182.43
207.741	163.59
207.959	186.98
208.177	222.47
208.395	882.05
208.612	489.01
208.83	345.13
209.048	313.07
209.266	350.34
209.483	165.74
209.701	133.09
209.919	119.93
210.136	75.57
210.354	73.51
210.572	128.95
210.79	113.6
211.007	70.3
211.225	69.31
211.442	83.38
211.66	134.4
211.878	183.75
212.095	164.58
212.313	226.39
212.53	175
212.748	182.02
212.966	88.19
213.183	158.43
213.401	-145
213.618	150
213.836	-247.62
214.053	-68.97
214.271	-237.39
214.488	-70.21
214.705	-1.19
214.923	63.14
215.14	71.85
215.358	87.18
215.575	53.55
215.793	45.6
216.01	76.73
216.227	81.14
216.445	96.34
216.662	69.02
216.879	73.17
217.097	85.86
217.314	45.74
217.531	49.73
217.749	56.88
217.966	71.85
218.183	77.87
218.4	73.86
218.618	51.07
218.835	57.2
219.052	55.35
219.269	48.13
219.487	47.71
219.704	47.37
219.921	39.87
220.138	34.23
220.355	29.49
220.572	33.05
220.79	30.9
221.007	48.29
221.224	43.8
221.441	42.93
221.658	45.3
221.875	43.62
222.092	43.57
222.309	42.11
222.526	40.92
222.743	42.06
222.96	41.85
223.177	36.76
223.394	31.42
223.611	29.43
223.828	28.17
224.045	21.57
224.262	27.48
224.479	30.27
224.696	33.02
224.913	28.95
225.13	22.69
225.347	17.51
225.564	18.64
225.781	18.48
225.997	18.47
226.214	18.44
226.431	15.87
226.648	9.82
226.865	7.51
227.082	7.82
227.298	6.86
227.515	7.48
227.732	8.41
227.949	6.85
228.165	6.58
228.382	6.08
228.599	5.22
228.816	6.22
229.032	5.36
229.249	5
229.466	3.95
229.682	4.11
229.899	4.07
230.116	3.8
230.332	4.77
230.549	3.64
230.765	3.46
230.982	3.02
231.199	2.31
231.415	2.73
231.632	3.82
231.848	3.81
232.065	5.53
232.281	5.17
232.498	3.7
232.714	4.16
232.931	8.23
233.147	8.09
233.364	9.2
233.58	7.8
233.797	8.76
234.013	7.48
234.23	7.27
234.446	5.76
234.662	5.05
234.879	5.44
235.095	4.14
235.312	3.1
235.528	3.75
235.744	0.4
235.961	2.5
236.177	2.5
236.393	2.96
236.61	1.62
236.826	3.62
237.042	2.2
237.258	2.97
237.475	2.83
237.691	3.73
237.907	0.99
238.123	5.38
238.339	5.01
238.556	5.42
238.772	5.32
238.988	7.4
239.204	6.01
239.42	7.87
239.636	7.91
239.853	8.02
240.069	5.86
240.285	6.73
240.501	6.44
240.717	7.24
240.933	8.25
241.149	8.16
241.365	8.34
241.581	8.76
241.797	9.3
242.013	9.21
242.229	9.49
242.445	9.14
242.661	9.14
242.877	9.27
243.093	9.31
243.309	8.21
243.525	8.74
243.741	9.19
243.957	8.87
244.173	8.66
244.388	8.59
244.604	8.27
244.82	8.36
245.036	8.56
245.252	8.33
245.468	7.77
245.683	7.86
245.899	7.35
246.115	6.57
246.331	6.57
246.547	6.32
246.762	6.45
246.978	6.4
247.194	6.68
247.409	6.66
247.625	6.61
247.841	6.48
248.057	6.36
248.272	6.47
248.488	6.23
248.703	6.46
248.919	6.23
249.135	5.87
249.35	5.71
249.566	5.3
249.782	5.18
249.997	5.19
250.213	5.22
250.428	5.6
250.644	5.94
250.859	6.58
251.075	6.45
251.29	7.61
251.506	7.93
251.721	7.93
251.937	8.01
252.152	7.8
252.368	7.32
252.583	7.43
252.798	7.36
253.014	6.96
253.229	6.91
253.445	6.24
253.66	5.63
253.875	5.45
254.091	4.63
254.306	4.67
254.521	5.06
254.737	6.22
254.952	5.95
255.167	6.01
255.383	6.05
255.598	5.67
255.813	6.88
256.028	6.39
256.244	6.39
256.459	7.67
256.674	7.05
256.889	5.94
257.104	5.58
257.32	5.73
257.535	5.67
257.75	5.32
257.965	6.03
258.18	5.66
258.395	6.15
258.61	5.88
258.826	5.48
259.041	6.02
259.256	6.22
259.471	5.61
259.686	5.36
259.901	5.21
260.116	5.39
260.331	5.14
260.546	5.22
260.761	5.02
260.976	5.29
261.191	5.45
261.406	5.54
261.621	5.79
261.836	6.4
262.05	6.35
262.265	6.36
262.48	5.98
262.695	6.16
262.91	6.71
263.125	6.94
263.34	6.42
263.555	6.48
263.769	5.83
263.984	5.84
264.199	5.54
264.414	6.38
264.629	7.13
264.843	7.78
265.058	7.6
265.273	7.09
265.488	6.68
265.702	6.96
265.917	6.79
266.132	6.64
266.346	6.63
266.561	6.77
266.776	6.48
266.99	5.9
267.205	5.48
267.42	5.4
267.634	5.31
267.849	5.15
268.063	4.72
268.278	4.77
268.492	4.7
268.707	4.28
268.922	3.9
269.136	3.58
269.351	4.02
269.565	4.12
269.78	3.99
269.994	3.83
270.209	3.99
270.423	4.22
270.637	3.72
270.852	3.91
271.066	3.92
271.281	4.01
271.495	4.18
271.709	3.99
271.924	3.98
272.138	3.83
272.353	3.94
272.567	3.79
272.781	3.88
272.996	4.17
273.21	4.23
273.424	4.18
273.638	4.3
273.853	4.56
274.067	4.55
274.281	4.53
274.495	4.47
274.71	4.2
274.924	4.67
275.138	4.21
275.352	3.81
275.566	3.72
275.781	3.71
275.995	3.73
276.209	3.79
276.423	3.54
276.637	3.43
276.851	4.13
277.065	3.85
277.279	3.19
277.493	3.7
277.707	4.17
277.921	3.45
278.135	3.61
278.349	3.47
278.563	2.93
278.777	3.09
278.991	3.28
279.205	2.79
279.419	3.72
279.633	4.23
279.847	4.1
280.061	4.24
280.275	4.57
280.489	4.63
280.703	4.18
280.917	4.48
281.131	4.51
281.344	4.51
281.558	4.16
281.772	3.63
281.986	3.65
282.2	3.59
282.414	3.42
282.627	3.5
282.841	3.3
283.055	3.57
283.269	3.64
283.482	3.7
283.696	3.46
283.91	3.7
284.123	3.9
284.337	3.89
284.551	3.81
284.764	3.74
284.978	3.86
285.192	4.09
285.405	4.18
285.619	3.76
285.833	3.89
286.046	3.78
286.26	3.94
286.473	3.95
286.687	3.82
286.9	4
287.114	4
287.327	3.78
287.541	3.74
287.754	3.69
287.968	3.87
288.181	3.52
288.395	4.01
288.608	3.88
288.822	3.75
289.035	3.61
289.248	3.55
289.462	3.87
289.675	3.79
289.889	3.66
290.102	3.73
290.315	4.05
290.529	4.07
290.742	3.56
290.955	3.71
291.169	3.65
291.382	3.9
291.595	3.92
291.808	3.59
292.022	4
292.235	4.24
292.448	4.36
292.661	3.9
292.875	4.49
293.088	5.1
293.301	5.01
293.514	5.04
293.727	4.81
293.94	5.11
294.153	5.3
294.367	5.18
294.58	4.88
294.793	4.65
295.006	4.86
295.219	4.71
295.432	4.29
295.645	4.06
295.858	4.2
296.071	4.33
296.284	4.32
296.497	4.34
296.71	4.55
296.923	4.67
297.136	4.85
297.349	4.95
297.562	4.89
297.775	5.18
297.988	5.49
298.201	5.59
298.414	5.72
298.626	5.7
298.839	5.72
299.052	5.83
299.265	5.67
299.478	5.66
299.691	5.91
299.903	5.74
300.116	5.63
300.329	5.85
300.542	5.62
300.755	5.84
300.967	5.91
301.18	5.97
301.393	5.61
301.605	5.93
301.818	5.82
302.031	5.62
302.243	5.86
302.456	5.84
302.669	5.64
302.881	5.77
303.094	5.59
303.307	5.22
303.519	5.42
303.732	5.51
303.944	5.58
304.157	5.66
304.37	5.73
304.582	5.86
304.795	6.37
305.007	6.52
305.22	6.54
305.432	6.52
305.645	6.7
305.857	6.44
306.069	6.58
306.282	6.6
306.494	6.85
306.707	7.29
306.919	6.91
307.132	6.76
307.344	6.76
307.556	6.97
307.769	6.97
307.981	6.95
308.193	7.35
308.406	7.41
308.618	7.02
308.83	6.85
309.043	6.22
309.255	6.32
309.467	6.17
309.679	6.26
309.892	6.12
310.104	6.17
310.316	6.34
310.528	6.04
310.74	6.03
310.953	6.36
311.165	6.59
311.377	6.96
311.589	7.14
311.801	7.32
312.013	7.46
312.225	7.63
312.437	7.95
312.649	8.16
312.862	8.49
313.074	8.59
313.286	8.51
313.498	8.44
313.71	8.25
313.922	8.39
314.134	8.28
314.346	8.31
314.558	8.25
314.77	8.02
314.982	7.95
315.193	7.74
315.405	7.8
315.617	7.78
315.829	7.92
316.041	8.13
316.253	7.87
316.465	8.15
316.677	8.31
316.888	8.44
317.1	8.01
317.312	7.7
317.524	7.84
317.736	7.74
317.947	7.9
318.159	8
318.371	7.94
318.583	7.77
318.794	7.48
319.006	7.03
319.218	6.84
319.43	7.7
319.641	7.91
319.853	8.16
320.064	8.61
320.276	8.68
320.488	8.85
320.699	8.95
320.911	9.18
321.123	9.45
321.334	9.69
321.546	9.65
321.757	9.31
321.969	9.55
322.18	9.05
322.392	8.33
322.603	8.63
322.815	8.36
323.026	8.36
323.238	8.56
323.449	8.51
323.661	8.69
323.872	8.99
324.083	9.12
324.295	8.97
324.506	9.19
324.718	9.54
324.929	9.69
325.14	9.48
325.352	9.62
325.563	9.51
325.774	9.49
325.986	9.18
326.197	9.28
326.408	9.17
326.62	9
326.831	8.63
327.042	8.4
327.253	8.55
327.464	8.64
327.676	8.65
327.887	8.82
328.098	8.4
328.309	8.27
328.52	8.26
328.732	8.44
328.943	8.82
329.154	9.4
329.365	9.79
329.576	9.26
329.787	9.35
329.998	8.95
330.209	9.06
330.42	9.66
330.631	9.92
330.842	9.76
331.053	9.71
331.264	9.46
331.475	9.34
331.686	9.25
331.897	9.2
332.108	9.21
332.319	9.57
332.53	9.41
332.741	9.65
332.952	9.76
333.163	9.78
333.374	9.5
333.585	9.57
333.795	9.56
334.006	9.56
334.217	9.62
334.428	9.4
334.639	9.62
334.849	9.69
335.06	9.25
335.271	8.91
335.482	9.07
335.692	9.07
335.903	9.2
336.114	9.4
336.325	9.28
336.535	9.41
336.746	9.69
336.957	9.5
337.167	9.75
337.378	9.9
337.589	9.76
337.799	9.57
338.01	9.35
338.22	9.19
338.431	9.01
338.642	9.11
338.852	8.96
339.063	8.89
339.273	8.97
339.484	8.96
339.694	8.91
339.905	9.36
340.115	9.47
340.326	9.77
340.536	9.72
340.746	10.03
340.957	10.28
341.167	10.35
341.378	10.32
341.588	10.1
341.799	9.94
342.009	9.69
342.219	9.8
342.43	10.02
342.64	10.08
342.85	10.21
343.061	9.45
343.271	9.49
343.481	9.44
343.691	9.62
343.902	9.71
344.112	9.65
344.322	9.49
344.532	9.12
344.743	8.93
344.953	8.98
345.163	9.03
345.373	9.48
345.583	9.22
345.793	9.18
346.004	9.18
346.214	8.8
346.424	8.66
346.634	8.89
346.844	9.22
347.054	8.97
347.264	8.81
347.474	8.72
347.684	8.56
347.894	8.54
348.104	8.63
348.314	8.17
348.524	8.67
348.734	8.9
348.944	9.02
349.154	8.75
349.364	8.63
349.574	8.58
349.784	8.75
349.994	8.69
350.204	9.02
350.413	8.88
350.623	9.24
350.833	8.95
351.043	8.68
351.253	8.77
351.463	9.07
351.672	9.54
351.882	9.83
352.092	9.78
352.302	10.11
352.511	9.42
352.721	9.27
352.931	9.05
353.141	9.03
353.35	9.43
353.56	9.26
353.77	9.12
353.979	8.88
354.189	8.57
354.399	8.23
354.608	8.17
354.818	8.38
355.027	8.16
355.237	8.23
355.447	8.36
355.656	8.23
355.866	8.28
356.075	8.08
356.285	7.96
356.494	8.24
356.704	8.39
356.913	8.35
357.123	8.35
357.332	8.79
357.542	8.75
357.751	8.86
357.96	8.68
358.17	8.46
358.379	8.6
358.589	8.63
358.798	8.51
359.007	8.55
359.217	8.39
359.426	8.51
359.635	8.29
359.845	8.4
360.054	8.13
360.263	8.36
360.472	8.62
360.682	8.65
360.891	8.71
361.1	8.78
361.309	8.75
361.519	8.75
361.728	8.58
361.937	8.66
362.146	8.66
362.355	8.68
362.564	8.54
362.774	8.34
362.983	8.22
363.192	8.15
363.401	8.09
363.61	7.94
363.819	8.01
364.028	8.17
364.237	8.11
364.446	7.87
364.655	8.06
364.864	7.94
365.073	7.93
365.282	7.98
365.491	7.99
365.7	7.96
365.909	7.97
366.118	8.02
366.327	7.74
366.536	7.8
366.745	7.76
366.954	7.57
367.162	7.64
367.371	7.75
367.58	7.7
367.789	7.72
367.998	7.58
368.207	7.61
368.415	7.41
368.624	7.67
368.833	7.57
369.042	7.69
369.25	7.71
369.459	7.61
369.668	7.59
369.877	7.52
370.085	7.43
370.294	7.21
370.503	7.33
370.711	7.38
370.92	7.12
371.129	7.19
371.337	6.96
371.546	6.6
371.754	6.5
371.963	6.36
372.171	6.33
372.38	6.28
372.589	6.41
372.797	6.29
373.006	6.08
373.214	6.49
373.423	6.48
373.631	6.78
373.84	7.14
374.048	7.2
374.256	7.3
374.465	7.5
374.673	7.36
374.882	7.33
375.09	7.16
375.298	7.27
375.507	6.91
375.715	6.74
375.923	6.65
376.132	6.8
376.34	6.68
376.548	6.53
376.757	6.23
376.965	6.35
377.173	6.24
377.381	6.33
377.59	6.34
377.798	6.29
378.006	6.37
378.214	6.16
378.423	6
378.631	6.15
378.839	6.26
379.047	6.46
379.255	6.5
379.463	6.75
379.671	6.63
379.879	6.48
380.088	6.44
380.296	6.33
380.504	6.49
380.712	6.33
380.92	6.31
381.128	6.22
381.336	6.04
381.544	5.99
381.752	5.79
381.96	5.78
382.168	5.86
382.376	5.9
382.584	5.92
382.791	6.08
382.999	6.21
383.207	6.17
383.415	6.25
383.623	6.31
383.831	6.25
384.039	6.13
384.247	6.09
384.454	6.35
384.662	6.56
384.87	6.37
385.078	6.18
385.285	6.05
385.493	6.03
385.701	6
385.909	5.93
386.116	5.96
386.324	6.07
386.532	5.94
386.739	5.62
386.947	5.44
387.155	5.48
387.362	5.46
387.57	5.44
387.778	5.39
387.985	5.26
388.193	5.28
388.4	5.26
388.608	5.15
388.816	5.34
389.023	5.32
389.231	5.32
389.438	5.65
389.646	5.72
389.853	5.59
390.061	5.48
390.268	5.51
390.475	5.44
390.683	5.36
390.89	5.62
391.098	5.5
391.305	5.45
391.512	5.3
391.72	4.97
391.927	4.94
392.135	5.12
392.342	5.37
392.549	5.4
392.756	5.37
392.964	5.42
393.171	5.25
393.378	5.35
393.586	5.29
393.793	5.3
394	5.59
394.207	5.64
394.414	5.53
394.622	5.3
394.829	5.32
395.036	5.4
395.243	5.27
395.45	5.36
395.657	5.3
395.864	5.4
396.072	5.49
396.279	5.2
396.486	5.16
396.693	5.13
396.9	5.19
397.107	5.09
397.314	5.02
397.521	5.03
397.728	4.82
397.935	4.96
398.142	4.98
398.349	4.95
398.556	5.01
398.763	4.95
398.97	5.01
399.177	5.09
399.383	5.1
399.59	5.13
399.797	5.31
400.004	5.48
400.211	5.35
400.418	5.22
400.625	5.12
400.831	5.09
401.038	5.04
401.245	5.17
401.452	5.05
401.658	5.17
401.865	4.99
402.072	4.91
402.279	4.84
402.485	4.79
402.692	4.91
402.899	5.07
403.105	5.07
403.312	5.1
403.519	4.93
403.725	4.91
403.932	4.71
404.138	4.84
404.345	4.87
404.552	4.89
404.758	4.91
404.965	4.79
405.171	4.79
405.378	4.88
405.584	4.83
405.791	4.82
405.997	4.81
406.204	4.9
406.41	5.01
406.617	5
406.823	4.93
407.029	5.16
407.236	5.34
407.442	5.27
407.649	5.42
407.855	5.59
408.061	5.59
408.268	5.71
408.474	5.8
408.68	5.68
408.887	5.6
409.093	5.59
409.299	5.42
409.505	5.41
409.712	5.28
409.918	5.1
410.124	4.99
410.33	4.99
410.537	4.73
410.743	4.77
410.949	4.79
411.155	4.7
411.361	4.75
411.567	4.67
411.773	4.61
411.98	4.64
412.186	4.51
412.392	4.51
412.598	4.54
412.804	4.73
413.01	4.65
413.216	4.63
413.422	4.72
413.628	4.69
413.834	4.73
414.04	4.79
414.246	4.76
414.452	4.8
414.658	4.84
414.864	4.78
415.07	4.67
415.275	4.66
415.481	4.64
415.687	4.7
415.893	4.71
416.099	4.7
416.305	4.68
416.511	4.89
416.716	4.93
416.922	4.83
417.128	4.89
417.334	5
417.539	4.99
417.745	5.04
417.951	4.94
418.157	4.89
418.362	4.92
418.568	4.87
418.774	4.76
418.979	4.84
419.185	4.79
419.391	4.74
419.596	4.64
419.802	4.61
420.008	4.56
420.213	5.27
420.419	5.25
420.624	5.22
420.83	5.23
421.035	5.23
421.241	5.14
421.446	5.16
421.652	5.19
421.857	5.25
422.063	5.28
422.268	5.26
422.474	4.68
422.679	4.68
422.885	4.74
423.09	4.75
423.295	4.77
423.501	4.73
423.706	4.77
423.911	4.72
424.117	4.69
424.322	4.66
424.527	4.72
424.733	4.71
424.938	4.74
425.143	4.67
425.349	4.64
425.554	4.58
425.759	4.62
425.964	4.62
426.169	4.66
426.375	4.75
426.58	4.72
426.785	4.63
426.99	4.67
427.195	4.59
427.4	4.59
427.605	4.67
427.811	4.67
428.016	4.69
428.221	4.7
428.426	4.7
428.631	4.57
428.836	4.59
429.041	4.74
429.246	4.57
429.451	4.7
429.656	4.76
429.861	4.69
430.066	4.79
430.271	4.87
430.476	4.78
430.681	4.78
430.886	4.79
431.09	4.79
431.295	4.66
431.5	4.76
431.705	4.77
431.91	4.61
432.115	4.56
432.32	4.52
432.524	4.42
432.729	4.51
432.934	4.56
433.139	4.53
433.343	4.55
433.548	4.49
433.753	4.43
433.958	4.39
434.162	4.45
434.367	4.49
434.572	4.47
434.776	4.53
434.981	4.48
435.186	4.4
435.39	4.41
435.595	4.33
435.799	4.45
436.004	4.39
436.209	4.32
436.413	4.37
436.618	4.4
436.822	4.39
437.027	4.4
437.231	4.45
437.436	4.48
437.64	4.5
437.845	4.55
438.049	4.58
438.253	4.68
438.458	4.75
438.662	4.72
438.867	4.76
439.071	4.75
439.275	4.76
439.48	4.77
439.684	4.73
439.888	4.79
440.093	4.74
440.297	4.68
440.501	4.7
440.706	4.7
440.91	4.71
441.114	4.59
441.318	4.6
441.523	4.51
441.727	4.43
441.931	4.49
442.135	4.39
442.339	4.39
442.543	4.42
442.748	4.33
442.952	4.4
443.156	4.31
443.36	4.39
443.564	4.41
443.768	4.42
443.972	4.45
444.176	4.4
444.38	4.54
444.584	4.57
444.788	4.61
444.992	4.66
445.196	4.61
445.4	4.66
445.604	4.63
445.808	4.59
446.012	4.63
446.216	4.67
446.42	4.68
446.624	4.63
446.828	4.59
447.032	4.58
447.235	4.53
447.439	4.48
447.643	4.49
447.847	4.53
448.051	4.62
448.254	4.62
448.458	4.54
448.662	4.57
448.866	4.61
449.069	4.67
449.273	4.68
449.477	4.79
449.681	4.85
449.884	4.9
450.088	4.94
450.292	4.88
450.495	4.95
450.699	5.06
450.902	4.96
451.106	4.95
451.31	4.98
451.513	4.95
451.717	4.85
451.92	4.84
452.124	4.75
452.327	4.68
452.531	4.69
452.734	4.64
452.938	4.57
453.141	4.51
453.345	4.51
453.548	4.4
453.752	4.39
453.955	4.48
454.158	4.5
454.362	4.48
454.565	4.51
454.769	4.39
454.972	4.47
455.175	4.48
455.379	4.53
455.582	4.54
455.785	4.51
455.988	4.58
456.192	4.64
456.395	4.63
456.598	4.61
456.801	4.59
457.005	4.73
457.208	4.68
457.411	4.59
457.614	4.58
457.817	4.54
458.021	4.62
458.224	4.53
458.427	4.48
458.63	4.44
458.833	4.41
459.036	4.35
459.239	4.32
459.442	4.32
459.645	4.41
459.848	4.46
460.051	4.45
460.254	4.47
460.457	4.47
460.66	4.51
460.863	4.58
461.066	4.57
461.269	4.6
461.472	4.51
461.675	4.43
461.878	4.33
462.081	4.27
462.284	4.34
462.486	4.22
462.689	4.19
462.892	3.99
463.095	4.03
463.298	4.12
463.5	4.09
463.703	4.23
463.906	4.19
464.109	4.31
464.311	4.27
464.514	4.25
464.717	4.33
464.92	4.41
465.122	4.56
465.325	4.41
465.528	4.5
465.73	4.64
465.933	4.55
466.135	4.61
466.338	4.58
466.541	4.66
466.743	4.69
466.946	4.68
467.148	4.65
467.351	4.6
467.553	4.56
467.756	4.41
467.958	4.32
468.161	4.4
468.363	4.41
468.566	4.46
468.768	4.42
468.971	4.38
469.173	4.27
469.375	4.27
469.578	4.25
469.78	4.32
469.983	4.45
470.185	4.46
470.387	4.42
470.59	4.43
470.792	4.33
470.994	4.45
471.196	4.47
471.399	4.64
471.601	4.66
471.803	4.65
472.005	4.73
472.208	4.64
472.41	4.59
472.612	4.74
472.814	4.71
473.016	4.68
473.218	4.55
473.421	4.41
473.623	4.46
473.825	4.52
474.027	4.58
474.229	4.48
474.431	4.5
474.633	4.55
474.835	4.51
475.037	4.44
475.239	4.43
475.441	4.54
475.643	4.59
475.845	4.46
476.047	4.43
476.249	4.39
476.451	4.42
476.653	4.41
476.855	4.39
477.057	4.4
477.258	4.45
477.46	4.49
477.662	4.46
477.864	4.42
478.066	4.43
478.268	4.45
478.469	4.45
478.671	4.47
478.873	4.41
479.075	4.53
479.276	4.43
479.478	4.43
479.68	4.47
479.882	4.42
480.083	4.52
480.285	4.5
480.487	4.41
480.688	4.41
480.89	4.39
481.091	4.52
481.293	4.44
481.495	4.41
481.696	4.43
481.898	4.36
482.099	4.39
482.301	4.35
482.502	4.34
482.704	4.36
482.905	4.37
483.107	4.37
483.308	4.31
483.51	4.32
483.711	4.32
483.913	4.31
484.114	4.35
484.315	4.32
484.517	4.35
484.718	4.35
484.92	4.35
485.121	4.34
485.322	4.34
485.524	4.38
485.725	4.36
485.926	4.39
486.127	4.41
486.329	4.37
486.53	4.4
486.731	4.38
486.932	4.36
487.134	4.34
487.335	4.35
487.536	4.35
487.737	4.34
487.938	4.34
488.139	4.32
488.341	4.31
488.542	4.31
488.743	4.32
488.944	4.27
489.145	4.31
489.346	4.35
489.547	4.33
489.748	4.32
489.949	4.37
490.15	4.45
490.351	4.48
490.552	4.49
490.753	4.5
490.954	4.5
491.155	4.54
491.356	4.51
491.557	4.51
491.758	4.55
491.959	4.57
492.159	4.54
492.36	4.49
492.561	4.47
492.762	4.5
492.963	4.55
493.164	4.56
493.364	4.62
493.565	4.63
493.766	4.61
493.967	4.6
494.167	4.61
494.368	4.62
494.569	4.68
494.769	4.72
494.97	4.71
495.171	4.67
495.371	4.71
495.572	4.63
495.773	4.63
495.973	4.63
496.174	4.62
496.375	4.61
496.575	4.68
496.776	4.66
496.976	4.62
497.177	4.6
497.377	4.58
497.578	4.56
497.778	4.57
497.979	4.64
498.179	4.64
498.38	4.67
498.58	4.65
498.78	4.56
498.981	4.57
499.181	4.59
499.382	4.64
499.582	4.64
499.782	4.71
499.983	4.8
500.183	4.85
500.383	4.91
500.584	4.97
500.784	5.01
500.984	5.04
501.184	5
501.385	5.05
501.585	5.03
501.785	5.08
501.985	4.99
502.185	5.02
502.386	5.08
502.586	5.15
502.786	5.08
502.986	4.99
503.186	4.97
503.386	4.97
503.586	5.02
503.786	5.07
503.987	5.13
504.187	5.16
504.387	5.14
504.587	5.1
504.787	5.07
504.987	5.19
505.187	5.32
505.387	5.46
505.587	5.48
505.786	5.54
505.986	5.56
506.186	5.53
506.386	5.6
506.586	5.69
506.786	5.65
506.986	5.61
507.186	5.65
507.386	5.68
507.585	5.65
507.785	5.71
507.985	5.61
508.185	5.65
508.384	5.72
508.584	5.72
508.784	5.61
508.984	5.68
509.183	5.74
509.383	5.75
509.583	5.75
509.782	5.83
509.982	5.84
510.182	5.84
510.381	5.82
510.581	5.76
510.781	5.75
510.98	5.86
511.18	5.87
511.379	5.88
511.579	5.82
511.778	5.83
511.978	5.83
512.177	5.88
512.377	6.01
512.576	6.08
512.776	6.19
512.975	6.36
513.175	6.36
513.374	6.39
513.573	6.46
513.773	6.55
513.972	6.61
514.172	6.6
514.371	6.73
514.57	6.76
514.77	6.78
514.969	6.82
515.168	6.77
515.367	6.84
515.567	6.9
515.766	6.93
515.965	6.97
516.164	7.04
516.364	7.12
516.563	7.06
516.762	7.12
516.961	7.17
517.16	7.23
517.359	7.27
517.559	7.34
517.758	7.41
517.957	7.48
518.156	7.59
518.355	7.64
518.554	7.69
518.753	7.75
518.952	7.83
519.151	7.9
519.35	7.98
519.549	8.03
519.748	8.05
519.947	8.14
520.146	8.21
520.345	8.2
520.544	8.25
520.743	8.3
520.942	8.36
521.141	8.45
521.339	8.51
521.538	8.54
521.737	8.64
521.936	8.72
522.135	8.69
522.333	8.73
522.532	8.78
522.731	8.88
522.93	8.99
523.129	9.08
523.327	9.1
523.526	9.21
523.725	9.3
523.923	9.39
524.122	9.46
524.321	9.53
524.519	9.56
524.718	9.63
524.917	9.64
525.115	9.67
525.314	9.7
525.512	9.76
525.711	9.73
525.909	9.74
526.108	9.74
526.306	9.8
526.505	9.9
526.703	10
526.902	10.06
527.1	10.12
527.299	10.17
527.497	10.24
527.696	10.27
527.894	10.34
528.092	10.38
528.291	10.4
528.489	10.43
528.688	10.45
528.886	10.47
529.084	10.5
529.283	10.56
529.481	10.59
529.679	10.62
529.877	10.64
530.076	10.68
530.274	10.77
530.472	10.87
530.67	10.91
530.869	10.98
531.067	11.05
531.265	11.12
531.463	11.15
531.661	11.19
531.859	11.27
532.057	11.4
532.255	11.44
532.454	11.43
532.652	11.42
532.85	11.46
533.048	11.49
533.246	11.55
533.444	11.61
533.642	11.63
533.84	11.66
534.038	11.7
534.236	11.69
534.434	11.68
534.632	11.74
534.83	11.84
535.027	11.94
535.225	11.99
535.423	12.04
535.621	12.08
535.819	12.12
536.017	12.16
536.215	12.21
536.412	12.3
536.61	12.38
536.808	12.42
537.006	12.42
537.203	12.41
537.401	12.45
537.599	12.45
537.797	12.49
537.994	12.58
538.192	12.65
538.39	12.7
538.587	12.68
538.785	12.78
538.983	12.9
539.18	13.04
539.378	13.08
539.575	13.15
539.773	13.17
539.97	13.22
540.168	13.22
540.366	13.21
540.563	13.18
540.761	13.21
540.958	13.2
541.155	13.22
541.353	13.22
541.55	13.2
541.748	13.19
541.945	13.2
542.143	13.26
542.34	13.28
542.537	13.35
542.735	13.41
542.932	13.42
543.129	13.43
543.327	13.39
543.524	13.45
543.721	13.55
543.919	13.68
544.116	13.8
544.313	13.77
544.51	13.87
544.708	13.99
544.905	14.01
545.102	14.18
545.299	14.28
545.496	14.41
545.693	14.37
545.891	14.38
546.088	14.32
546.285	14.28
546.482	14.37
546.679	14.35
546.876	14.26
547.073	14.28
547.27	14.19
547.467	14.21
547.664	14.15
547.861	14.2
548.058	14.3
548.255	14.35
548.452	14.39
548.649	14.4
548.846	14.45
549.043	14.42
549.24	14.52
549.437	14.55
549.633	14.56
549.83	14.67
550.027	14.73
550.224	14.67
550.421	14.73
550.618	14.75
550.814	14.77
551.011	14.76
551.208	14.93
551.405	14.86
551.601	14.89
551.798	14.93
551.995	14.87
552.191	14.94
552.388	14.96
552.585	14.96
552.781	14.93
552.978	14.89
553.175	14.99
553.371	14.97
553.568	14.99
553.764	15.08
553.961	15.14
554.157	15.18
554.354	15.08
554.55	15.14
554.747	15.18
554.943	15.26
555.14	15.37
555.336	15.41
555.533	15.44
555.729	15.41
555.926	15.35
556.122	15.25
556.318	15.29
556.515	15.38
556.711	15.39
556.907	15.29
557.104	15.36
557.3	15.26
557.496	15.32
557.693	15.34
557.889	15.44
558.085	15.46
558.281	15.52
558.478	15.59
558.674	15.61
558.87	15.6
559.066	15.65
559.262	15.55
559.459	15.66
559.655	15.57
559.851	15.61
560.047	15.71
560.243	15.77
560.439	15.84
560.635	15.85
560.831	15.91
561.027	15.94
561.223	16.03
561.419	16.06
561.615	15.98
561.811	15.99
562.007	16.06
562.203	16.06
562.399	16.07
562.595	16.03
562.791	15.99
562.987	16.02
563.183	16.03
563.379	15.97
563.575	16.04
563.771	16.17
563.966	16.15
564.162	16.14
564.358	16.15
564.554	16.08
564.75	16.05
564.945	16.08
565.141	15.94
565.337	15.94
565.533	16.01
565.728	16.02
565.924	16
566.12	16.08
566.315	16.07
566.511	16.08
566.707	16.2
566.902	16.26
567.098	16.24
567.293	16.35
567.489	16.42
567.684	16.55
567.88	16.56
568.076	16.48
568.271	16.5
568.467	16.51
568.662	16.47
568.858	16.52
569.053	16.49
569.248	16.52
569.444	16.54
569.639	16.48
569.835	16.33
570.03	16.34
570.225	16.47
570.421	16.39
570.616	16.35
570.812	16.38
571.007	16.35
571.202	16.37
571.397	16.36
571.593	16.36
571.788	16.42
571.983	16.4
572.178	16.46
572.374	16.49
572.569	16.55
572.764	16.61
572.959	16.64
573.154	16.68
573.35	16.75
573.545	16.86
573.74	16.81
573.935	16.8
574.13	16.83
574.325	16.87
574.52	16.78
574.715	16.87
574.91	16.86
575.105	16.89
575.3	16.94
575.495	16.94
575.69	16.94
575.885	17.08
576.08	17.15
576.275	17.3
576.47	17.26
576.665	17.38
576.86	17.23
577.055	17.34
577.25	17.32
577.444	17.3
577.639	17.36
577.834	17.39
578.029	17.45
578.224	17.48
578.418	17.41
578.613	17.54
578.808	17.51
579.003	17.55
579.197	17.54
579.392	17.62
579.587	17.58
579.781	17.54
579.976	17.5
580.171	17.54
580.365	17.58
580.56	17.56
580.755	17.52
580.949	17.64
581.144	17.66
581.338	17.62
581.533	17.63
581.727	17.52
581.922	17.56
582.116	17.58
582.311	17.43
582.505	17.41
582.7	17.54
582.894	17.49
583.089	17.38
583.283	17.58
583.478	17.64
583.672	17.81
583.866	17.97
584.061	18
584.255	17.97
584.449	17.95
584.644	17.88
584.838	17.84
585.032	17.89
585.226	17.92
585.421	17.74
585.615	17.88
585.809	17.75
586.003	17.78
586.198	17.76
586.392	18.03
586.586	18.02
586.78	18.01
586.974	18.08
587.168	18.19
587.363	18.29
587.557	18.36
587.751	18.33
587.945	18.38
588.139	18.46
588.333	18.47
588.527	18.28
588.721	18.32
588.915	18.35
589.109	18.34
589.303	18.21
589.497	18.16
589.691	18.27
589.885	18.17
590.079	18.14
590.273	18.03
590.466	18.08
590.66	18.01
590.854	18.11
591.048	18.06
591.242	17.92
591.436	17.94
591.629	18.02
591.823	17.96
592.017	17.97
592.211	18.03
592.404	18.06
592.598	18.01
592.792	18.07
592.986	17.96
593.179	18.13
593.373	18.31
593.567	18.33
593.76	18.33
593.954	18.34
594.147	18.39
594.341	18.46
594.535	18.56
594.728	18.46
594.922	18.47
595.115	18.62
595.309	18.57
595.502	18.52
595.696	18.56
595.889	18.59
596.083	18.73
596.276	18.84
596.47	18.78
596.663	18.77
596.856	18.86
597.05	18.95
597.243	18.98
597.437	19.09
597.63	19.2
597.823	19.25
598.017	19.22
598.21	19.09
598.403	18.99
598.596	18.98
598.79	19.02
598.983	19.14
599.176	19.07
599.369	19.06
599.563	18.86
599.756	18.68
599.949	18.68
600.142	18.71
600.335	18.73
600.528	18.67
600.722	18.66
600.915	18.72
601.108	18.73
601.301	18.92
601.494	19.02
601.687	19.09
601.88	19.19
602.073	19.09
602.266	19.1
602.459	19.17
602.652	19.19
602.845	19.31
603.038	19.35
603.231	19.37
603.424	19.44
603.617	19.37
603.809	19.38
604.002	19.37
604.195	19.48
604.388	19.49
604.581	19.52
604.774	19.6
604.966	19.59
605.159	19.53
605.352	19.47
605.545	19.45
605.737	19.53
605.93	19.64
606.123	19.66
606.316	19.69
606.508	19.75
606.701	19.7
606.894	19.78
607.086	19.78
607.279	19.98
607.471	20.09
607.664	20.07
607.857	20.12
608.049	20.32
608.242	20.49
608.434	20.66
608.627	20.86
608.819	21.14
609.012	21.37
609.204	21.67
609.397	21.91
609.589	22.27
609.782	22.71
609.974	23.07
610.166	23.35
610.359	23.65
610.551	23.89
610.743	24.1
610.936	24.47
611.128	24.53
611.32	24.7
611.513	24.72
611.705	24.66
611.897	24.63
612.09	24.42
612.282	24.13
612.474	24.11
612.666	24.04
612.858	23.99
613.051	23.64
613.243	23.54
613.435	23.42
613.627	23.18
613.819	23.13
614.011	22.85
614.203	22.91
614.395	22.92
614.588	22.53
614.78	22.45
614.972	22.16
615.164	22.05
615.356	21.84
615.548	21.46
615.74	21.42
615.932	21.3
616.124	21.1
616.315	20.97
616.507	20.95
616.699	20.92
616.891	20.67
617.083	20.59
617.275	20.53
617.467	20.73
617.659	20.79
617.85	20.74
618.042	20.71
618.234	20.68
618.426	20.47
618.618	20.3
618.809	20.43
619.001	20.4
619.193	20.48
619.384	20.33
619.576	20.11
619.768	20.15
619.959	19.99
620.151	20.05
620.343	20.19
620.534	20.38
620.726	20.79
620.917	20.58
621.109	20.85
621.301	20.85
621.492	21
621.684	21.06
621.875	21.03
622.067	21.28
622.258	21.09
622.45	21.18
622.641	21.16
622.832	20.86
623.024	21.04
623.215	20.87
623.407	20.92
623.598	21.21
623.789	21.4
623.981	21.42
624.172	21.3
624.363	21.55
624.555	21.41
624.746	21.47
624.937	21.5
625.129	21.48
625.32	21.53
625.511	21.47
625.702	21.27
625.893	21.21
626.085	21.33
626.276	21.41
626.467	21.34
626.658	21.45
626.849	21.34
627.04	21.39
627.231	21.36
627.422	21.32
627.614	21.16
627.805	20.99
627.996	20.9
628.187	20.96
628.378	20.92
628.569	20.87
628.76	20.85
628.951	20.87
629.142	20.84
629.332	20.89
629.523	20.93
629.714	21.22
629.905	21.36
630.096	21.34
630.287	21.3
630.478	21.43
630.669	21.63
630.859	21.75
631.05	21.79
631.241	21.76
631.432	21.79
631.623	21.67
631.813	21.5
632.004	21.55
632.195	21.48
632.385	21.34
632.576	21.27
632.767	20.99
632.957	20.86
633.148	20.81
633.339	20.74
633.529	20.71
633.72	20.85
633.91	20.84
634.101	20.93
634.292	20.83
634.482	20.79
634.673	20.75
634.863	20.85
635.054	20.82
635.244	20.81
635.435	20.95
635.625	20.87
635.815	20.76
636.006	20.84
636.196	20.71
636.387	20.88
636.577	20.89
636.767	20.88
636.958	20.92
637.148	20.9
637.338	20.69
637.529	20.77
637.719	20.71
637.909	20.8
638.099	20.92
638.29	20.84
638.48	20.91
638.67	21.01
638.86	20.99
639.05	20.87
639.241	20.68
639.431	20.93
639.621	20.71
639.811	21.02
640.001	21.01
640.191	20.95
640.381	20.97
640.571	21.18
640.761	20.83
640.951	20.93
641.141	20.92
641.331	21.18
641.521	21.06
641.711	21.18
641.901	20.99
642.091	21.14
642.281	21.03
642.471	20.85
642.661	20.55
642.851	21.02
643.041	20.98
643.231	20.87
643.42	20.76
643.61	20.92
643.8	20.77
643.99	20.79
644.18	20.63
644.369	20.73
644.559	21
644.749	21.21
644.939	21.03
645.128	21.11
645.318	21.44
645.508	21.63
645.697	21.51
645.887	21.83
646.076	21.77
646.266	21.65
646.456	21.57
646.645	21.61
646.835	21.54
647.024	21.58
647.214	21.6
647.403	21.43
647.593	21.31
647.782	21.59
647.972	21.39
648.161	21.54
648.351	21.83
648.54	21.74
648.73	21.63
648.919	21.75
649.108	21.81
649.298	21.9
649.487	22.04
649.677	22.25
649.866	22.22
650.055	22.27
650.244	22.17
650.434	22.08
650.623	22.11
650.812	22.15
651.002	22.23
651.191	22.33
651.38	22.3
651.569	22.14
651.758	22.06
651.947	22.13
652.137	22.04
652.326	22.2
652.515	22.02
652.704	22.31
652.893	22.29
653.082	21.89
653.271	21.72
653.46	21.57
653.649	21.65
653.838	21.57
654.027	21.49
654.216	21.58
654.405	21.7
654.594	21.85
654.783	21.58
654.972	21.59
655.161	21.81
655.35	21.54
655.539	21.49
655.728	21.44
655.916	21.47
656.105	21.36
656.294	21.32
656.483	21.07
656.672	21.1
656.86	21.27
657.049	21.33
657.238	21.14
657.427	21.61
657.615	21.72
657.804	21.68
657.993	21.62
658.181	21.72
658.37	21.76
658.559	21.85
658.747	21.82
658.936	21.87
659.125	21.75
659.313	21.9
659.502	21.75
659.69	21.67
659.879	21.79
660.067	21.74
660.256	21.56
660.444	21.55
660.633	21.66
660.821	21.63
661.01	21.51
661.198	21.65
661.387	21.64
661.575	21.65
661.763	21.74
661.952	21.78
662.14	21.91
662.328	22.01
662.517	22.08
662.705	21.67
662.893	21.66
663.082	21.75
663.27	21.78
663.458	21.82
663.646	21.7
663.834	21.64
664.023	21.65
664.211	21.7
664.399	21.77
664.587	21.6
664.775	22.05
664.963	22.14
665.152	22.13
665.34	22.39
665.528	22.47
665.716	22.56
665.904	22.73
666.092	22.49
666.28	22.57
666.468	22.43
666.656	22.37
666.844	22.06
667.032	22.12
667.22	22.16
667.408	21.84
667.596	21.9
667.784	21.95
667.971	22
668.159	21.92
668.347	21.73
668.535	21.86
668.723	22.05
668.911	22.18
669.098	22.24
669.286	22.23
669.474	22.16
669.662	22.01
669.849	22.08
670.037	21.94
670.225	22.1
670.413	22.27
670.6	22.25
670.788	22.09
670.976	22.15
671.163	22.02
671.351	21.99
671.538	22.2
671.726	22.23
671.913	22.12
672.101	22.13
672.289	22.03
672.476	21.71
672.664	21.64
672.851	21.89
673.039	21.74
673.226	21.73
673.413	21.67
673.601	21.75
673.788	21.85
673.976	21.98
674.163	22.25
674.35	22.25
674.538	22.58
674.725	22.79
674.912	22.79
675.1	22.77
675.287	23
675.474	23.18
675.662	23.17
675.849	22.94
676.036	22.9
676.223	22.71
676.411	22.93
676.598	22.78
676.785	22.78
676.972	22.61
677.159	22.59
677.346	22.59
677.533	22.38
677.721	22.33
677.908	22.55
678.095	22.6
678.282	22.38
678.469	22.19
678.656	22.34
678.843	22.22
679.03	22.3
679.217	22.38
679.404	22.29
679.591	22.27
679.778	22.25
679.964	22.33
680.151	22.18
680.338	22.37
680.525	22.47
680.712	22.41
680.899	22.53
681.086	22.68
681.272	22.72
681.459	22.59
681.646	22.75
681.833	22.84
682.02	22.64
682.206	22.71
682.393	22.72
682.58	22.66
682.766	22.6
682.953	22.46
683.14	22.3
683.326	22.28
683.513	22.71
683.7	22.78
683.886	22.54
684.073	22.43
684.259	22.1
684.446	22.05
684.632	22.29
684.819	22.33
685.005	22.29
685.192	22.33
685.378	22.52
685.565	22.39
685.751	22.47
685.938	22.76
686.124	23.06
686.31	23.13
686.497	23.44
686.683	23.29
686.87	23.14
687.056	23.16
687.242	23.1
687.429	23.06
687.615	23.12
687.801	22.83
687.987	22.74
688.174	22.61
688.36	22.97
688.546	22.52
688.732	22.79
688.918	22.97
689.105	22.87
689.291	23.04
689.477	22.85
689.663	22.57
689.849	22.61
690.035	22.66
690.221	22.76
690.407	22.94
690.593	22.92
690.779	22.71
690.965	22.63
691.151	22.83
691.337	22.6
691.523	23.09
691.709	23.05
691.895	23.2
692.081	23.04
692.267	23.18
692.453	22.78
692.639	22.86
692.825	22.88
693.011	22.88
693.196	23.09
693.382	23.31
693.568	22.81
693.754	23.03
693.94	23.09
694.125	23.4
694.311	23.45
694.497	23.59
694.682	23.8
694.868	23.73
695.054	23.63
695.239	23.61
695.425	23.57
695.611	23.53
695.796	23.57
695.982	23.17
696.168	23.03
696.353	22.81
696.539	22.8
696.724	22.8
696.91	22.76
697.095	22.84
697.281	22.78
697.466	22.74
697.652	22.82
697.837	22.82
698.023	22.93
698.208	22.85
698.393	22.94
698.579	23.06
698.764	23.07
698.949	23.12
699.135	22.99
699.32	22.88
699.505	22.84
699.691	22.89
699.876	22.83
700.061	22.94
700.246	23.12
700.432	23.08
700.617	23.17
700.802	23.12
700.987	23.54
701.172	24.15
701.358	24.39
701.543	24.62
701.728	24.69
701.913	24.83
702.098	24.93
702.283	24.97
702.468	24.95
702.653	24.72
702.838	25.02
703.023	24.79
703.208	24.21
703.393	24.4
703.578	24.52
703.763	24.54
703.948	24.62
704.133	24.82
704.318	24.67
704.503	24.87
704.688	25.11
704.873	25.02
705.057	25.2
705.242	25.55
705.427	25.55
705.612	25.76
705.797	25.94
705.981	26.11
706.166	26.27
706.351	26.69
706.536	26.95
706.72	26.72
706.905	26.74
707.09	26.5
707.274	26.46
707.459	26.49
707.644	26.33
707.828	26.51
708.013	26.45
708.197	26.41
708.382	26.17
708.567	25.99
708.751	25.74
708.936	26.09
709.12	26.39
709.305	26.47
709.489	26.4
709.673	26.01
709.858	26.1
710.042	26.14
710.227	26.03
710.411	26.12
710.596	26.05
710.78	26.5
710.964	26.47
711.149	26.29
711.333	26.32
711.517	26.27
711.702	26.67
711.886	26.45
712.07	26.48
712.254	26.26
712.438	26.04
712.623	26.17
712.807	26.05
712.991	25.55
713.175	25.55
713.359	25.49
713.544	25.01
713.728	24.65
713.912	24.43
714.096	24.1
714.28	24.11
714.464	24.17
714.648	24.24
714.832	24.05
715.016	24.14
715.2	23.95
715.384	23.67
715.568	23.73
715.752	23.87
715.936	24.23
716.12	24.16
716.304	24.12
716.488	24.35
716.671	23.91
716.855	24.17
717.039	24.15
717.223	24.08
717.407	23.7
717.59	24.19
717.774	23.97
717.958	23.5
718.142	23.74
718.325	23.63
718.509	22.97
718.693	23.12
718.877	22.96
719.06	22.89
719.244	22.7
719.428	23.24
719.611	23.33
719.795	23.05
719.978	23.59
720.162	23.58
720.345	23.92
720.529	24.37
720.713	24.27
720.896	24.32
721.08	24.48
721.263	24.5
721.446	24.41
721.63	24.03
721.813	24.36
721.997	23.96
722.18	23.34
722.364	23.22
722.547	22.79
722.73	22.92
722.914	23.2
723.097	23.1
723.28	22.7
723.464	22.64
723.647	22.87
723.83	23.05
724.013	23.05
724.197	23.64
724.38	23.49
724.563	23.8
724.746	24.17
724.929	23.79
725.112	23.51
725.296	24.32
725.479	24.65
725.662	24.73
725.845	24.71
726.028	24.88
726.211	24.6
726.394	24.34
726.577	24.23
726.76	24.43
726.943	24.27
727.126	24.53
727.309	24.5
727.492	24.52
727.675	24.08
727.858	24.25
728.041	24.02
728.224	24.27
728.407	24.78
728.589	25.26
728.772	24.93
728.955	25.49
729.138	25.93
729.321	25.4
729.503	25.63
729.686	25.55
729.869	25.31
730.052	25.46
730.234	25.32
730.417	25.06
730.6	24.52
730.782	24.37
730.965	24.21
731.148	24.07
731.33	24.34
731.513	24.5
731.695	25.08
731.878	25.06
732.061	24.87
732.243	24.83
732.426	25.11
732.608	25.23
732.791	25.06
732.973	25.18
733.156	24.8
733.338	25.16
733.52	24.77
733.703	24.41
733.885	24.88
734.068	24.89
734.25	24.97
734.432	25.11
734.615	25.42
734.797	25.22
734.979	24.83
735.162	25
735.344	24.84
735.526	24.91
735.708	24.93
735.891	24.13
736.073	24.41
736.255	24.45
736.437	24.22
736.619	24.01
736.802	24.44
736.984	24.73
737.166	24.74
737.348	24.58
737.53	24.93
737.712	25.13
737.894	25.99
738.076	25.76
738.258	26.13
738.44	26.19
738.622	26.31
738.804	26.53
738.986	26.35
739.168	26.89
739.35	26.73
739.532	26.19
739.714	26.17
739.896	25.9
740.078	25.81
740.259	25.63
740.441	25.66
740.623	25.56
740.805	25.47
740.987	25.48
741.168	25.08
741.35	25.44
741.532	25.45
741.714	25.38
741.895	25.31
742.077	25.46
742.259	25.26
742.44	25.32
742.622	25.62
742.804	25.66
742.985	25.55
743.167	25.77
743.348	26.08
743.53	26.54
743.711	26.7
743.893	27.15
744.075	27.12
744.256	27.31
744.438	26.71
744.619	26.57
744.8	26.16
744.982	26.38
745.163	26.43
745.345	26.62
745.526	26.4
745.707	25.98
745.889	25.71
746.07	25.54
746.252	25.4
746.433	25.73
746.614	26.29
746.795	27.04
746.977	27.16
747.158	27.58
747.339	27.21
747.52	27.48
747.702	27.8
747.883	27.53
748.064	28.33
748.245	28.28
748.426	28.28
748.607	27.66
748.788	27.23
748.97	27.03
749.151	26.24
749.332	25.86
749.513	25.47
749.694	25.83
749.875	26.06
750.056	25.52
750.237	25.71
750.418	25.33
750.599	25.16
750.78	24.93
750.96	24.72
751.141	24.83
751.322	25
751.503	25.2
751.684	25
751.865	24.62
752.046	24.54
752.226	24.72
752.407	25.4
752.588	25.19
752.769	25.45
752.949	25.34
753.13	25.48
753.311	25.61
753.492	24.87
753.672	24.59
753.853	25.01
754.034	24.99
754.214	25.13
754.395	25.25
754.575	26.05
754.756	25.84
754.937	26.76
755.117	26.5
755.298	26.23
755.478	25.94
755.659	26.02
755.839	25.95
756.02	26.45
756.2	26.17
756.381	26.16
756.561	25.45
756.741	25.84
756.922	25.57
757.102	25.63
757.283	25.7
757.463	26.76
757.643	27.15
757.823	26.66
758.004	25.87
758.184	26.1
758.364	26.01
758.545	26.13
758.725	25.57
758.905	25.19
759.085	25.23
759.265	25.39
759.446	25.65
759.626	25.36
759.806	25.52
759.986	25.38
760.166	25.11
760.346	24.39
760.526	23.82
760.706	24.17
760.886	24.96
761.066	24.67
761.246	24.74
761.426	24.57
761.606	24.83
761.786	24.61
761.966	24.92
762.146	24.92
762.326	25.23
762.506	25.7
762.686	25.84
762.866	25.42
763.046	25.75
763.225	25.62
763.405	25.5
763.585	24.95
763.765	25.51
763.945	25.5
764.124	25.1
764.304	25.41
764.484	25.29
764.664	25.26
764.843	25.12
765.023	24.93
765.203	24.93
765.382	24.61
765.562	24.8
765.741	24.18
765.921	24.57
766.101	24.58
766.28	24.22
766.46	24.58
766.639	24.43
766.819	24.16
766.998	24.27
767.178	24
767.357	23.79
767.537	24.11
767.716	24.6
767.896	24.39
768.075	25.09
768.254	24.72
768.434	24.66
768.613	24.35
768.792	24.31
768.972	23.65
769.151	24.2
769.33	24.62
769.51	24.26
769.689	24.33
769.868	24.21
770.047	23.93
770.226	24.89
770.406	25.27
770.585	25.63
770.764	26.82
770.943	27.09
771.122	26.56
771.301	26.98
771.48	27.94
771.66	27.41
771.839	27.58
772.018	27.39
772.197	27.11
772.376	25.91
772.555	26.31
772.734	25.97
772.913	26.09
773.092	26.04
773.271	25.78
773.449	25.01
773.628	25.03
773.807	25.02
773.986	25.09
774.165	24.68
774.344	25.23
774.523	25.06
774.701	24.55
774.88	25.03
775.059	25.41
775.238	25.83
775.417	25.33
775.595	25.87
775.774	26.35
775.953	27.41
776.131	28.11
776.31	28.15
776.489	27.38
776.667	27.83
776.846	27.66
777.025	27.26
777.203	27.02
777.382	27.61
777.56	26.67
777.739	25.75
777.917	24.69
778.096	24.79
778.274	25.34
778.453	25.81
778.631	26.21
778.81	26.19
778.988	26.73
779.166	26.94
779.345	26.72
779.523	28.24
779.702	28.47
779.88	28.66
780.058	27.99
780.237	27.51
780.415	27.48
780.593	26.23
780.771	25.96
780.95	26.47
781.128	26.43
781.306	26.77
781.484	25.97
781.662	25.84
781.841	26.34
782.019	26.84
782.197	27.25
782.375	27.64
782.553	28.42
782.731	28.8
782.909	27.97
783.087	28.58
783.265	28.1
783.443	28.24
783.621	28.24
783.799	28.03
783.977	27.19
784.155	26.94
784.333	26.05
784.511	24.78
784.689	24.78
784.867	25.32
785.045	24.66
785.223	25.01
785.4	24.26
785.578	25.06
785.756	25.46
785.934	26.56
786.112	26.58
786.289	27.31
786.467	27.56
786.645	26.8
786.823	26.9
787	26.83
787.178	26.81
787.356	27.64
787.533	26.21
787.711	26.05
787.889	25.14
788.066	24.26
788.244	24.07
788.421	24.37
788.599	25.16
788.776	25
788.954	24.94
789.131	25.91
789.309	25.63
789.486	27.46
789.664	27.05
789.841	27.6
790.019	27.67
790.196	27.56
790.373	27.49
790.551	26.99
790.728	27.67
790.906	27.92
791.083	27.1
791.26	26.74
791.437	25.75
791.615	25.84
791.792	25.73
791.969	27.57
792.146	27.62
792.324	28.75
792.501	28.92
792.678	27.63
792.855	26.88
793.032	27.08
793.209	27.36
793.387	27.53
793.564	27.08
793.741	26.75
793.918	25.73
794.095	25.73
794.272	25.4
794.449	25.37
794.626	25.6
794.803	26.51
794.98	26.69
795.157	26.82
795.334	26.76
795.511	27.25
795.688	28.17
795.864	27.9
796.041	28.36
796.218	27.75
796.395	28.53
796.572	28.08
796.749	28.03
796.925	27.51
797.102	27.47
797.279	27.81
797.456	28.26
797.632	27.75
797.809	28.14
797.986	28.16
798.162	28.55
798.339	28
798.516	28.7
798.692	27.59
798.869	27.62
799.046	26.73
799.222	25.87
799.399	25.38
799.575	25.28
799.752	25.72
799.928	24.83
800.105	24.94
800.281	25.19
800.458	25.44
800.634	26.12
800.811	25.77
800.987	27.01
801.163	28.22
801.34	28.18
801.516	27.66
801.692	27.51
801.869	27.98
802.045	28.11
802.221	26.95
802.398	26.6
802.574	25.97
802.75	26.39
802.926	26.83
803.103	26.75
803.279	25.64
803.455	26.23
803.631	26.51
803.807	26.57
803.983	26
804.16	27.48
804.336	28.17
804.512	28.65
804.688	29.71
804.864	30.33
805.04	28.75
805.216	29.52
805.392	29.47
805.568	28.91
805.744	29.5
805.92	29.05
806.096	28.05
806.272	27.7
806.448	28.29
806.623	28.08
806.799	26.38
806.975	27.05
807.151	27.51
807.327	27.54
807.503	26.82
807.678	27.17
807.854	28.58
808.03	29.37
808.206	28.84
808.381	29.22
808.557	28.2
808.733	27.53
808.908	28.52
809.084	28.72
809.26	28.45
809.435	28.16
809.611	28.11
809.787	28.01
809.962	28.4
810.138	27.64
810.313	26.77
810.489	26.25
810.664	27.48
810.84	26.48
811.015	26.35
811.191	27.18
811.366	28.17
811.542	26.65
811.717	26.72
811.892	25.67
812.068	25.77
812.243	26.62
812.419	26.97
812.594	27.55
812.769	26.72
812.944	25.87
813.12	25.39
813.295	24.95
813.47	25.86
813.645	24.28
813.821	24.22
813.996	24.19
814.171	24.01
814.346	23.82
814.521	24.1
814.697	24.99
814.872	26.55
815.047	26.05
815.222	26.37
815.397	25.86
815.572	26.2
815.747	25.67
815.922	26.37
816.097	26.81
816.272	27.49
816.447	27.31
816.622	27.06
816.797	27.77
816.972	29.24
817.147	28.28
817.322	27.86
817.496	28.02
817.671	28.48
817.846	27.85
818.021	26.58
818.196	26.07
818.371	25.75
818.545	26.24
818.72	25.67
818.895	25.24
819.069	25.28
819.244	25.8
819.419	26.03
819.594	27.24
819.768	27.92
819.943	27.38
820.117	26.85
820.292	26.36
820.467	26.68
820.641	26.07
820.816	25.92
820.99	25.97
821.165	26.27
821.339	26.14
821.514	25.91
821.688	25.88
821.863	26.13
822.037	26.18
822.212	25.96
822.386	25.59
822.56	25.75
822.735	25.7
822.909	25.63
823.084	25.2
823.258	25.21
823.432	24.94
823.606	24.69
823.781	24.71
823.955	24.71
824.129	24.74
824.303	24.87
824.478	24.71
824.652	24.64
824.826	24.35
825	24.87
825.174	24.83
825.348	24.87
825.523	25.23
825.697	25.14
825.871	24.87
826.045	24.81
826.219	25.35
826.393	25.75
826.567	26.09
826.741	26.82
826.915	26.58
827.089	26.54
827.263	26.71
827.437	26.73
827.611	26.58
827.784	26.73
827.958	26.94
828.132	26.63
828.306	26.24
828.48	25.83
828.654	25.84
828.827	25.53
829.001	25.07
829.175	25.38
829.349	25.04
829.522	25.51
829.696	26.19
829.87	26.73
830.044	26.86
830.217	26.58
830.391	25.99
830.565	25.92
830.738	26.91
830.912	27.98
831.085	25.65
831.259	26.15
831.432	25.67
831.606	25.09
831.779	24.41
831.953	23.85
832.126	24.26
832.3	25.56
832.473	24.79
832.647	25.07
832.82	24.4
832.994	26.05
833.167	26.04
833.34	25.62
833.514	24.27
833.687	24.35
833.86	24.67
834.034	24.57
834.207	24.24
834.38	24.59
834.553	24.09
834.727	24.29
834.9	23.96
835.073	23.91
835.246	24.19
835.419	25.63
835.593	26.05
835.766	25.51
835.939	25.65
836.112	25.2
836.285	25.14
836.458	25.78
836.631	27.25
836.804	27.58
836.977	27.13
837.15	27.09
837.323	26.99
837.496	25.69
837.669	27.66
837.842	29.27
838.015	29.76
838.188	29.46
838.361	29.65
838.533	27.96
838.706	27.69
838.879	29.83
839.052	29.32
839.225	29.7
839.398	31.41
839.57	30.04
839.743	28.94
839.916	30.92
840.088	31.09
840.261	31.94
840.434	32.34
840.607	32.77
840.779	31.86
840.952	31.17
841.124	30.89
841.297	30.81
841.47	30.12
841.642	29
841.815	27.18
841.987	28.65
842.16	27.2
842.332	25.61
842.505	23.33
842.677	23.77
842.85	25.56
843.022	28.2
843.194	27.19
843.367	27.1
843.539	26.58
843.712	25.14
843.884	23.15
844.056	25.02
844.229	26.14
844.401	31.11
844.573	29.52
844.745	29.45
844.918	24.61
845.09	25.27
845.262	26.28
845.434	31.85
845.606	34
845.779	34.76
845.951	32.16
846.123	33.1
846.295	28.16
846.467	28.51
846.639	27.66
846.811	28.84
846.983	28.12
847.155	27.95
847.327	20.97
847.499	21.99
847.671	21.87
847.843	18.25
848.015	17.53
848.187	20.17
848.359	17.94
848.531	21.64
848.703	21.93
848.875	22
849.047	22.33
849.218	22.38
849.39	22.3
849.562	22.16
849.734	28.21
849.905	30.44
850.077	31
850.249	31.52
850.421	30.33
850.592	36.21
850.764	40.43
850.936	39.92
851.107	38.39
851.279	40.4
851.451	42.15
851.622	40.3
851.794	37.11
851.965	37.86
852.137	39.34
852.308	35.5
852.48	27.52
852.651	24.59
852.823	22.58
852.994	29.02
853.166	24.3
853.337	23.94
853.509	25.5
853.68	26.59
853.851	22.22
854.023	21.89
854.194	26.78
854.365	29
854.537	28.41
854.708	29.56
854.879	24.62
855.05	27.12
855.222	25.63
855.393	27.34
855.564	27.96
855.735	29.94
855.906	29.47
856.078	21.84
856.249	21.19
856.42	19.86
856.591	22.97
856.762	24.95
856.933	23.45
857.104	25.61
857.275	25.84
857.446	28.09
857.617	32.29
857.788	29.97
857.959	40.8
858.13	39.37
858.301	40.01
858.472	42.38
858.643	43.26
858.814	45.16
858.985	40.09
859.155	38.03
859.326	36.15
859.497	34.25
859.668	41.36
859.839	35.93
860.009	41.96
860.18	42.45
860.351	33.06
860.522	34.26
860.692	31.62
860.863	37.19
861.034	39.26
861.204	41.99
861.375	43.61
861.546	36.34
861.716	40.86
861.887	34.83
862.057	40.84
862.228	44.6
862.398	49.76
862.569	49.67
862.739	47.42
862.91	45.83
863.08	42.34
863.251	39.48
863.421	40.83
863.592	34.48
863.762	32.43
863.932	26.32
864.103	25.78
864.273	21.49
864.443	23
864.614	23.68
864.784	21.13
864.954	18.17
865.125	20.54
865.295	21.27
865.465	26.14
865.635	28.92
865.805	31.51
865.976	30.45
866.146	26.95
866.316	24.65
866.486	28.77
866.656	30.56
866.826	32.5
866.996	25.85
867.166	24.96
867.336	25.03
867.506	28.43
867.676	26.23
867.846	29.2
868.016	35.73
868.186	40.74
868.356	38.3
868.526	37.37
868.696	41.49
868.866	46.64
869.036	45.95
869.206	45.8
869.376	45.21
869.545	44.41
869.715	43.48
869.885	38.99
870.055	35.28
870.224	34.48
870.394	32.69
870.564	26.07
870.734	27.03
870.903	31.71
871.073	29.01
871.243	21.98
871.412	23.68
871.582	28.93
871.751	26.58
871.921	27.73
872.091	29.17
872.26	30.79
872.43	30.79
872.599	26.56
872.769	26.72
872.938	27.4
873.108	35.91
873.277	35.02
873.446	31.25
873.616	34.84
873.785	36.35
873.955	36.48
874.124	37.72
874.293	39.9
874.463	41.67
874.632	41.12
874.801	41.17
874.971	38.3
875.14	40.44
875.309	40.7
875.478	41.28
875.647	41.75
875.817	41.63
875.986	40.75
876.155	40.96
876.324	40.6
876.493	40.79
876.662	40.02
876.831	40.4
877	38
877.17	37.87
877.339	34.62
877.508	35.05
877.677	36.47
877.846	34.77
878.015	38.94
878.184	37.57
878.352	35.66
878.521	36.61
878.69	35.03
878.859	36.31
879.028	38.19
879.197	39.46
879.366	34.14
879.534	30.63
879.703	31.36
879.872	28.93
880.041	29.48
880.21	28.94
880.378	26.64
880.547	27.62
880.716	27.21
880.884	25.73
881.053	25.59
881.222	25.49
881.39	25.29
881.559	24.45
881.727	23.4
881.896	23.17
882.065	24.26
882.233	24.86
882.402	24.27
882.57	23.05
882.739	22.96
882.907	22.99
883.076	23.5
883.244	24.04
883.412	24.64
883.581	25.28
883.749	25.14
883.918	24.49
884.086	24.06
884.254	24.02
884.423	25.21
884.591	25.41
884.759	25.34
884.927	25.03
885.096	23.47
885.264	23.1
885.432	24.1
885.6	24.31
885.769	23.45
885.937	23.12
886.105	24.9
886.273	26.86
886.441	27.7
886.609	26.09
886.777	27.02
886.945	30.13
887.113	30.79
887.281	29.25
887.449	31.41
887.617	34.92
887.785	36.93
887.953	38.85
888.121	37.23
888.289	39.52
888.457	43.72
888.625	43.07
888.793	43.7
888.961	43.6
889.129	44.12
889.296	45.05
889.464	43.16
889.632	44.91
889.8	41.97
889.967	43.59
890.135	42.22
