Data from 2938722__Reflection_01.txt Node
Date: Tue Mar 17 10:36:20 EDT 2015
User: robert
Spectrometer: USB4E03002
Autoset integration time: false
Trigger mode: 4
Integration Time (sec): 1.000000E-1
Scans to average: 10
Electric dark correction enabled: false
Nonlinearity correction enabled: false
Boxcar width: 5
Stray light correction enabled: false
XAxis mode: Wavelengths
Stop averaging: false
Number of Pixels in Spectrum: 3648
>>>>>Begin Spectral Data<<<<<
177.575	135.55
177.794	235.34
178.014	222.73
178.233	-9.09
178.452	-18.93
178.672	-213.73
178.891	-33.33
179.11	-64.35
179.33	-46.08
179.549	-561.11
179.768	-33.33
179.987	-239.02
180.207	-30.39
180.426	1531.25
180.645	179.43
180.864	308.44
181.084	796.67
181.303	-652.73
181.522	-212.35
181.741	784.78
181.96	-82.21
182.179	-119.13
182.398	-73.82
182.618	-1228.57
182.837	-64.62
183.056	-17.14
183.275	-103.96
183.494	-278.08
183.713	6.46
183.932	-4.61
184.151	-77.55
184.37	13.86
184.589	-2.58
184.808	29.83
185.027	49.15
185.246	68.92
185.465	95.51
185.684	94.94
185.903	80.86
186.122	54.2
186.341	29.76
186.56	67.72
186.779	-15.84
186.998	-23.17
187.216	201.77
187.435	441.18
187.654	-68.09
187.873	-326.67
188.092	-425.81
188.311	1500
188.53	158.02
188.748	91.53
188.967	168.67
189.186	64.18
189.405	96.97
189.623	-73.6
189.842	-16.72
190.061	-69.69
190.28	-10.26
190.498	24.29
190.717	-12.13
190.936	11.17
191.154	58.08
191.373	73.96
191.592	64.78
191.81	64.73
192.029	86.41
192.248	75.39
192.466	89.85
192.685	80.47
192.904	60.33
193.122	100
193.341	109.44
193.559	98.98
193.778	73.86
193.996	32.95
194.215	25.68
194.433	20.82
194.652	7.5
194.87	-5.13
195.089	26.98
195.307	47.75
195.526	32.61
195.744	32.44
195.963	21.59
196.181	25.11
196.399	17.79
196.618	9.17
196.836	-17.02
197.055	93.96
197.273	76.79
197.491	92.53
197.71	716.67
197.928	-67.06
198.146	-288.89
198.365	-71.35
198.583	-140.14
198.801	-82.71
199.019	-109.84
199.238	-24.77
199.456	-27.69
199.674	-277.17
199.892	-91.36
200.111	-148.04
200.329	-50
200.547	16.75
200.765	35.57
200.983	42.03
201.202	81.35
201.42	106.7
201.638	85.03
201.856	87.12
202.074	106.52
202.292	186.67
202.51	162.36
202.728	242.55
202.946	-433.33
203.165	-1390
203.383	1050
203.601	-50.57
203.819	-780.77
204.037	1591.67
204.255	277.53
204.473	-216.22
204.691	-22.02
204.909	-79.93
205.127	-80.43
205.345	-82.51
205.562	-149.72
205.78	-99.22
205.998	-77.53
206.216	30.1
206.434	-441.18
206.652	-67.07
206.87	378.05
207.088	-576.47
207.306	66.27
207.523	1154.55
207.741	210
207.959	-55.48
208.177	-54.39
208.395	-34.12
208.612	-101.52
208.83	-9.13
209.048	-54.21
209.266	-34.65
209.483	-8.33
209.701	-203.51
209.919	47.38
210.136	65.23
210.354	70.66
210.572	132.97
210.79	166.67
211.007	108.43
211.225	92.96
211.442	99.15
211.66	73.24
211.878	71.73
212.095	-35.29
212.313	-55.99
212.53	-50.42
212.748	-39.38
212.966	-43.18
213.183	-74.79
213.401	-64.24
213.618	-42.14
213.836	-30.03
214.053	-64.43
214.271	-72.21
214.488	41.98
214.705	7.65
214.923	37.68
215.14	-60.9
215.358	9.4
215.575	14.86
215.793	4.26
216.01	-19.2
216.227	-74.14
216.445	-41.34
216.662	-27.53
216.879	-21.42
217.097	-7.21
217.314	-12.3
217.531	-36.92
217.749	-33.69
217.966	-27.48
218.183	-34.12
218.4	-43.5
218.618	-29.9
218.835	-6.73
219.052	-38.84
219.269	-64.02
219.487	-104.04
219.704	-84.57
219.921	-42.32
220.138	-68.63
220.355	-36.26
220.572	-30.54
220.79	-52.85
221.007	-36.8
221.224	-52.36
221.441	-30.15
221.658	-27.79
221.875	-10.2
222.092	-15.95
222.309	-14.63
222.526	-14.8
222.743	-19.21
222.96	-17.44
223.177	-5.22
223.394	-5.57
223.611	2.28
223.828	0.97
224.045	6.42
224.262	1.97
224.479	13.51
224.696	9.22
224.913	13.26
225.13	14.03
225.347	9.72
225.564	12.11
225.781	8.46
225.997	8.37
226.214	11.77
226.431	8.04
226.648	8.63
226.865	5.78
227.082	6.14
227.298	2.3
227.515	1.99
227.732	1.14
227.949	-0.33
228.165	1.45
228.382	0.32
228.599	-0.22
228.816	0.42
229.032	0.72
229.249	0.56
229.466	0.64
229.682	1.05
229.899	1.12
230.116	2.56
230.332	2.15
230.549	1.54
230.765	1.87
230.982	1.02
231.199	1.41
231.415	1.03
231.632	0.58
231.848	0.42
232.065	2.11
232.281	0.4
232.498	-1.72
232.714	0.08
232.931	-0.4
233.147	-1.57
233.364	-0.53
233.58	-1.89
233.797	-2.58
234.013	-3.57
234.23	-4.41
234.446	-5.62
234.662	-4.6
234.879	-4.28
235.095	-3.16
235.312	-1.61
235.528	-1.56
235.744	-1.21
235.961	-0.82
236.177	-0.59
236.393	0.04
236.61	1.07
236.826	-0.61
237.042	-1.7
237.258	-0.92
237.475	-2.27
237.691	-4.73
237.907	-4.93
238.123	-6.77
238.339	-7.19
238.556	-8.16
238.772	-6.93
238.988	-6.72
239.204	-4.56
239.42	-3.17
239.636	-2.95
239.853	-3.02
240.069	-2.58
240.285	-1.47
240.501	-0.16
240.717	0.05
240.933	0.79
241.149	0.05
241.365	-0.07
241.581	0.8
241.797	1.85
242.013	1.54
242.229	1.73
242.445	1.79
242.661	1.79
242.877	1.83
243.093	2.08
243.309	1.46
243.525	1.72
243.741	1.7
243.957	1.32
244.173	-0.17
244.388	0.29
244.604	-0.22
244.82	-0.14
245.036	-0.05
245.252	0.4
245.468	0.72
245.683	1.55
245.899	1.49
246.115	2
246.331	2.03
246.547	2.71
246.762	2.6
246.978	2.51
247.194	2.76
247.409	3.08
247.625	2.72
247.841	2.73
248.057	2.36
248.272	2.18
248.488	1.73
248.703	1.29
248.919	0.99
249.135	0.45
249.35	0.07
249.566	-0.75
249.782	-1.87
249.997	-2.13
250.213	-2.93
250.428	-2.58
250.644	-1.94
250.859	-1.49
251.075	-0.98
251.29	-1.46
251.506	-1.11
251.721	-0.15
251.937	0.31
252.152	0.96
252.368	0.7
252.583	1.36
252.798	1.21
253.014	1.25
253.229	1.79
253.445	1.04
253.66	0.93
253.875	0.75
254.091	0.16
254.306	0.13
254.521	-0.8
254.737	0.22
254.952	-0.86
255.167	-0.03
255.383	-0.58
255.598	-1.27
255.813	-1.87
256.028	-1.37
256.244	-0.05
256.459	-0.07
256.674	-0.72
256.889	-0.92
257.104	-1.16
257.32	-1.57
257.535	-1.39
257.75	-0.96
257.965	-0.68
258.18	0.19
258.395	0.82
258.61	0.9
258.826	0.78
259.041	1.35
259.256	1.78
259.471	1.57
259.686	1.85
259.901	1.89
260.116	2.14
260.331	2.14
260.546	2.31
260.761	1.97
260.976	1.72
261.191	1.95
261.406	1.54
261.621	1.38
261.836	1.42
262.05	1.39
262.265	0.84
262.48	0.39
262.695	0.36
262.91	0.29
263.125	0.23
263.34	0.57
263.555	0.99
263.769	1.46
263.984	1.03
264.199	1.31
264.414	1.42
264.629	1.34
264.843	1.19
265.058	1.19
265.273	1.01
265.488	1.83
265.702	1.43
265.917	0.63
266.132	1.38
266.346	1.83
266.561	1.42
266.776	1.45
266.99	1.49
267.205	1.28
267.42	1.14
267.634	0.93
267.849	0.17
268.063	0.45
268.278	0.74
268.492	-0.4
268.707	-0.12
268.922	0.71
269.136	0.73
269.351	0.51
269.565	0.77
269.78	-0.11
269.994	0.16
270.209	-0.01
270.423	-0.19
270.637	-0.67
270.852	-0.48
271.066	-0.32
271.281	-0.65
271.495	-0.62
271.709	-0.36
271.924	-0.14
272.138	0.42
272.353	0.36
272.567	0.86
272.781	1.01
272.996	1.43
273.21	1.61
273.424	1.39
273.638	1.37
273.853	0.78
274.067	1.07
274.281	0.62
274.495	0.56
274.71	0.57
274.924	0.2
275.138	0.03
275.352	0.17
275.566	0.01
275.781	-0.19
275.995	-0.24
276.209	0.25
276.423	0.19
276.637	0.82
276.851	1.3
277.065	1.65
277.279	1.43
277.493	1.71
277.707	1.5
277.921	1.9
278.135	1.47
278.349	1.64
278.563	1.5
278.777	1.39
278.991	1.29
279.205	1.01
279.419	0.51
279.633	0.62
279.847	0.33
280.061	0.62
280.275	0.46
280.489	0.86
280.703	0.29
280.917	0.45
281.131	0.4
281.344	0.38
281.558	0.34
281.772	0.55
281.986	0.66
282.2	0.69
282.414	0.59
282.627	0.83
282.841	0.67
283.055	0.72
283.269	0.58
283.482	0.73
283.696	0.35
283.91	0.24
284.123	0.31
284.337	0.38
284.551	0.53
284.764	0.61
284.978	0.44
285.192	0.64
285.405	0.96
285.619	1.04
285.833	1.04
286.046	1.02
286.26	1.02
286.473	0.9
286.687	1.1
286.9	1.01
287.114	0.79
287.327	0.99
287.541	0.82
287.754	0.81
287.968	0.47
288.181	0.39
288.395	1.03
288.608	1.42
288.822	1.74
289.035	1.7
289.248	1.52
289.462	1.48
289.675	1.15
289.889	1.31
290.102	1.15
290.315	1.55
290.529	1.69
290.742	1.07
290.955	0.74
291.169	0.65
291.382	0.51
291.595	0.63
291.808	0.96
292.022	1.2
292.235	1.04
292.448	1.35
292.661	1.25
292.875	1.43
293.088	1.81
293.301	1.97
293.514	2.17
293.727	2.36
293.94	2.33
294.153	2.29
294.367	2.17
294.58	2.21
294.793	2.19
295.006	2.64
295.219	2.43
295.432	2.55
295.645	2.51
295.858	2.47
296.071	2.53
296.284	2.57
296.497	2.69
296.71	2.95
296.923	3.22
297.136	3.13
297.349	2.96
297.562	3.03
297.775	3.18
297.988	3.09
298.201	3.33
298.414	3.11
298.626	3.05
298.839	3.07
299.052	2.88
299.265	2.69
299.478	2.82
299.691	2.61
299.903	2.56
300.116	2.52
300.329	2.74
300.542	2.37
300.755	2.54
300.967	2.69
301.18	2.8
301.393	2.96
301.605	2.6
301.818	2.36
302.031	2.83
302.243	3.35
302.456	3.4
302.669	3.5
302.881	3.35
303.094	3.64
303.307	3.66
303.519	3.17
303.732	3.26
303.944	3.73
304.157	4.17
304.37	4.04
304.582	3.64
304.795	3.21
305.007	3.11
305.22	3.46
305.432	3.51
305.645	3.46
305.857	3.94
306.069	3.85
306.282	4
306.494	3.8
306.707	3.73
306.919	3.68
307.132	3.6
307.344	3.9
307.556	3.77
307.769	3.61
307.981	3.76
308.193	3.47
308.406	3.35
308.618	3.36
308.83	3.31
309.043	3.4
309.255	3.85
309.467	4.25
309.679	4.23
309.892	4.17
310.104	4.43
310.316	4.51
310.528	4.62
310.74	4.81
310.953	4.89
311.165	4.92
311.377	5.23
311.589	4.94
311.801	4.92
312.013	4.67
312.225	4.96
312.437	5
312.649	4.98
312.862	4.98
313.074	4.8
313.286	4.7
313.498	4.86
313.71	4.56
313.922	4.92
314.134	4.7
314.346	4.98
314.558	4.66
314.77	4.84
314.982	4.95
315.193	4.79
315.405	4.94
315.617	5.05
315.829	5.04
316.041	5.14
316.253	4.95
316.465	5.27
316.677	5.11
316.888	5.72
317.1	5.48
317.312	5.74
317.524	6.03
317.736	5.92
317.947	6.08
318.159	6.43
318.371	6.69
318.583	6.72
318.794	6.99
319.006	7.34
319.218	6.91
319.43	6.63
319.641	6.32
319.853	6.49
320.064	6.58
320.276	6.65
320.488	6.15
320.699	5.87
320.911	5.19
321.123	5.5
321.334	5.48
321.546	5.64
321.757	5.88
321.969	5.99
322.18	5.59
322.392	5.7
322.603	5.75
322.815	6.02
323.026	6
323.238	7.02
323.449	6.54
323.661	6.55
323.872	6.9
324.083	6.71
324.295	6.7
324.506	7.33
324.718	7.72
324.929	7.92
325.14	7.99
325.352	8.42
325.563	8.54
325.774	8.9
325.986	9.45
326.197	9.63
326.408	9.93
326.62	10.37
326.831	10.57
327.042	10.37
327.253	10.61
327.464	10.98
327.676	11.09
327.887	11.23
328.098	11.48
328.309	11.19
328.52	11.18
328.732	11.52
328.943	11.39
329.154	11.59
329.365	12.31
329.576	12.56
329.787	12.96
329.998	13.26
330.209	13.11
330.42	13.3
330.631	13.74
330.842	13.99
331.053	14.51
331.264	15.15
331.475	15.34
331.686	15.14
331.897	14.81
332.108	14.63
332.319	14.71
332.53	15.07
332.741	14.76
332.952	14.75
333.163	14.46
333.374	14.24
333.585	13.89
333.795	13.68
334.006	13.51
334.217	13.7
334.428	13.85
334.639	13.9
334.849	13.87
335.06	14.04
335.271	14.17
335.482	14.05
335.692	14.17
335.903	14.73
336.114	14.91
336.325	15.35
336.535	15.38
336.746	15.43
336.957	15.34
337.167	15.52
337.378	15.52
337.589	15.62
337.799	16.13
338.01	16.03
338.22	15.99
338.431	16.27
338.642	16.39
338.852	16.47
339.063	16.53
339.273	16.7
339.484	16.39
339.694	16.59
339.905	16.62
340.115	16.88
340.326	16.93
340.536	16.93
340.746	16.49
340.957	16.54
341.167	16.45
341.378	16.53
341.588	16.45
341.799	16.66
342.009	16.69
342.219	16.85
342.43	16.59
342.64	16.36
342.85	16.17
343.061	16.34
343.271	15.96
343.481	16.03
343.691	15.79
343.902	16.04
344.112	15.91
344.322	16.02
344.532	15.78
344.743	15.82
344.953	16.08
345.163	16.32
345.373	16.28
345.583	16.57
345.793	16.81
346.004	16.79
346.214	16.52
346.424	16.71
346.634	16.62
346.844	16.69
347.054	16.62
347.264	16.63
347.474	16.2
347.684	16.13
347.894	15.98
348.104	15.39
348.314	15.51
348.524	15.52
348.734	15.34
348.944	15.29
349.154	15.18
349.364	15.23
349.574	14.98
349.784	15.16
349.994	15.39
350.204	15.57
350.413	15.84
350.623	15.9
350.833	15.87
351.043	15.8
351.253	15.66
351.463	15.72
351.672	15.52
351.882	15.87
352.092	15.94
352.302	15.82
352.511	15.72
352.721	15.71
352.931	15.68
353.141	15.66
353.35	15.46
353.56	15.86
353.77	15.63
353.979	15.8
354.189	15.56
354.399	15.39
354.608	15.44
354.818	15.59
355.027	15.72
355.237	15.79
355.447	16.12
355.656	16.28
355.866	16
356.075	16.13
356.285	16.13
356.494	16.14
356.704	16.02
356.913	16.07
357.123	15.94
357.332	15.66
357.542	15.4
357.751	15.22
357.96	15.13
358.17	15.02
358.379	15.01
358.589	14.8
358.798	14.76
359.007	14.83
359.217	14.75
359.426	14.46
359.635	14.64
359.845	14.9
360.054	14.97
360.263	15.18
360.472	15.48
360.682	15.51
360.891	15.71
361.1	15.84
361.309	15.77
361.519	15.69
361.728	15.86
361.937	15.86
362.146	15.88
362.355	15.7
362.564	15.7
362.774	15.57
362.983	15.51
363.192	15.46
363.401	15.26
363.61	15.56
363.819	15.62
364.028	15.4
364.237	15.29
364.446	15.07
364.655	15.18
364.864	15.04
365.073	14.74
365.282	14.83
365.491	14.68
365.7	14.61
365.909	14.3
366.118	14.04
366.327	14.25
366.536	14.32
366.745	14.4
366.954	14.53
367.162	14.48
367.371	14.52
367.58	14.46
367.789	14.68
367.998	14.51
368.207	14.67
368.415	14.69
368.624	14.75
368.833	14.7
369.042	14.68
369.25	14.24
369.459	14.4
369.668	14.58
369.877	14.32
370.085	14.01
370.294	14.47
370.503	14.3
370.711	14.21
370.92	14.34
371.129	14.31
371.337	14.21
371.546	14.24
371.754	14.13
371.963	13.94
372.171	14.17
372.38	14.22
372.589	13.84
372.797	13.58
373.006	13.63
373.214	13.46
373.423	13.46
373.631	13.19
373.84	13.3
374.048	13.26
374.256	13.66
374.465	13.77
374.673	14.01
374.882	14.23
375.09	14.46
375.298	14.29
375.507	14.06
375.715	13.8
375.923	13.91
376.132	13.98
376.34	13.82
376.548	13.58
376.757	13.37
376.965	13.22
377.173	13
377.381	12.99
377.59	13.31
377.798	13.44
378.006	13.49
378.214	13.53
378.423	13.46
378.631	13.64
378.839	13.74
379.047	13.79
379.255	13.77
379.463	13.96
379.671	13.98
379.879	13.9
380.088	13.98
380.296	13.9
380.504	13.81
380.712	13.83
380.92	13.57
381.128	13.48
381.336	13.49
381.544	13.41
381.752	13.23
381.96	13.17
382.168	12.87
382.376	12.54
382.584	12.75
382.791	12.88
382.999	12.66
383.207	12.94
383.415	12.77
383.623	12.9
383.831	12.71
384.039	12.71
384.247	12.73
384.454	12.94
384.662	13.11
384.87	13
385.078	12.78
385.285	12.87
385.493	12.85
385.701	13.14
385.909	12.94
386.116	13.23
386.324	13.39
386.532	13.27
386.739	13.24
386.947	13.22
387.155	13.29
387.362	13.45
387.57	13.38
387.778	13.45
387.985	13.13
388.193	13.16
388.4	12.96
388.608	13.11
388.816	13.07
389.023	12.91
389.231	12.81
389.438	12.73
389.646	12.73
389.853	12.62
390.061	12.35
390.268	12.41
390.475	12.24
390.683	12.22
390.89	11.9
391.098	11.81
391.305	11.93
391.512	12.03
391.72	12.07
391.927	12.12
392.135	12.29
392.342	12.37
392.549	12.39
392.756	12.55
392.964	12.58
393.171	12.56
393.378	12.67
393.586	12.68
393.793	12.6
394	12.59
394.207	12.5
394.414	12.43
394.622	12.39
394.829	12.41
395.036	12.18
395.243	12.15
395.45	12.08
395.657	12.22
395.864	12.18
396.072	12.27
396.279	12.37
396.486	12.5
396.693	12.5
396.9	12.47
397.107	12.34
397.314	12.27
397.521	12.15
397.728	12.25
397.935	12.17
398.142	12.16
398.349	12.02
398.556	11.91
398.763	11.71
398.97	11.62
399.177	11.64
399.383	11.73
399.59	11.86
399.797	12.06
400.004	12.06
400.211	11.8
400.418	11.79
400.625	11.88
400.831	12
401.038	11.99
401.245	11.94
401.452	11.91
401.658	12
401.865	12.11
402.072	12.09
402.279	12.15
402.485	12.34
402.692	12.37
402.899	12.22
403.105	12.13
403.312	12.13
403.519	12.35
403.725	12.46
403.932	12.51
404.138	12.46
404.345	12.38
404.552	12.32
404.758	12.34
404.965	12.39
405.171	12.52
405.378	12.4
405.584	12.36
405.791	12.32
405.997	12.39
406.204	12.23
406.41	12.25
406.617	12.26
406.823	12.2
407.029	12.26
407.236	12.18
407.442	12.15
407.649	12.14
407.855	12.24
408.061	12.24
408.268	12.17
408.474	12.12
408.68	12.23
408.887	12.14
409.093	12.29
409.299	12.13
409.505	12.19
409.712	12.14
409.918	12.28
410.124	12.27
410.33	12.2
410.537	12.03
410.743	12.1
410.949	11.92
411.155	12.07
411.361	11.94
411.567	11.99
411.773	11.93
411.98	11.89
412.186	11.93
412.392	11.92
412.598	11.82
412.804	11.97
413.01	11.86
413.216	11.99
413.422	11.86
413.628	11.97
413.834	11.91
414.04	12.05
414.246	12.14
414.452	12.11
414.658	12.22
414.864	12.41
415.07	12.23
415.275	12.36
415.481	12.32
415.687	12.51
415.893	12.59
416.099	12.65
416.305	12.73
416.511	12.71
416.716	12.8
416.922	12.84
417.128	12.69
417.334	12.85
417.539	12.9
417.745	12.94
417.951	12.83
418.157	12.88
418.362	12.97
418.568	12.96
418.774	13.03
418.979	12.98
419.185	12.94
419.391	13.08
419.596	13.01
419.802	13.02
420.008	13.01
420.213	13.14
420.419	13.17
420.624	13.09
420.83	13.09
421.035	13.08
421.241	13.11
421.446	13.14
421.652	13.15
421.857	13.19
422.063	13.24
422.268	13.32
422.474	13.25
422.679	13.17
422.885	13.27
423.09	13.25
423.295	13.26
423.501	13.25
423.706	13.27
423.911	13.3
424.117	13.37
424.322	13.37
424.527	13.33
424.733	13.37
424.938	13.34
425.143	13.36
425.349	13.33
425.554	13.38
425.759	13.43
425.964	13.4
426.169	13.35
426.375	13.33
426.58	13.35
426.785	13.32
426.99	13.19
427.195	13.27
427.4	13.2
427.605	13.24
427.811	13.18
428.016	13.15
428.221	13.2
428.426	13.17
428.631	13.07
428.836	13.03
429.041	13.04
429.246	13.22
429.451	13.28
429.656	13.46
429.861	13.42
430.066	13.35
430.271	13.28
430.476	13.29
430.681	13.41
430.886	13.54
431.09	13.44
431.295	13.5
431.5	13.52
431.705	13.49
431.91	13.38
432.115	13.43
432.32	13.59
432.524	13.64
432.729	13.62
432.934	13.64
433.139	13.64
433.343	13.82
433.548	13.87
433.753	13.9
433.958	13.91
434.162	13.92
434.367	14
434.572	13.95
434.776	13.88
434.981	13.86
435.186	13.8
435.39	13.91
435.595	13.82
435.799	13.85
436.004	13.77
436.209	13.83
436.413	13.82
436.618	13.9
436.822	13.89
437.027	14.09
437.231	14.24
437.436	14.32
437.64	14.22
437.845	14.3
438.049	14.17
438.253	14.26
438.458	14.19
438.662	14.28
438.867	14.23
439.071	14.27
439.275	14.25
439.48	14.17
439.684	14.12
439.888	14.09
440.093	14.12
440.297	14.18
440.501	14.17
440.706	14.2
440.91	14.21
441.114	14.14
441.318	14.2
441.523	14.24
441.727	14.33
441.931	14.38
442.135	14.47
442.339	14.4
442.543	14.5
442.748	14.55
442.952	14.55
443.156	14.46
443.36	14.55
443.564	14.5
443.768	14.49
443.972	14.4
444.176	14.36
444.38	14.34
444.584	14.38
444.788	14.33
444.992	14.38
445.196	14.43
445.4	14.52
445.604	14.51
445.808	14.52
446.012	14.45
446.216	14.56
446.42	14.58
446.624	14.62
446.828	14.58
447.032	14.55
447.235	14.47
447.439	14.49
447.643	14.5
447.847	14.48
448.051	14.5
448.254	14.51
448.458	14.45
448.662	14.5
448.866	14.47
449.069	14.51
449.273	14.5
449.477	14.51
449.681	14.46
449.884	14.35
450.088	14.34
450.292	14.39
450.495	14.33
450.699	14.29
450.902	14.29
451.106	14.25
451.31	14.28
451.513	14.28
451.717	14.31
451.92	14.3
452.124	14.34
452.327	14.36
452.531	14.25
452.734	14.31
452.938	14.32
453.141	14.3
453.345	14.31
453.548	14.23
453.752	14.16
453.955	14.13
454.158	14.11
454.362	14.1
454.565	14
454.769	14.06
454.972	14.07
455.175	14.06
455.379	13.98
455.582	14.14
455.785	14.15
455.988	14.3
456.192	14.33
456.395	14.43
456.598	14.51
456.801	14.63
457.005	14.62
457.208	14.74
457.411	14.79
457.614	14.79
457.817	14.67
458.021	14.68
458.224	14.55
458.427	14.51
458.63	14.47
458.833	14.48
459.036	14.45
459.239	14.47
459.442	14.35
459.645	14.24
459.848	14.29
460.051	14.28
460.254	14.33
460.457	14.35
460.66	14.34
460.863	14.31
461.066	14.31
461.269	14.3
461.472	14.33
461.675	14.34
461.878	14.41
462.081	14.36
462.284	14.34
462.486	14.27
462.689	14.34
462.892	14.4
463.095	14.48
463.298	14.46
463.5	14.5
463.703	14.46
463.906	14.49
464.109	14.53
464.311	14.54
464.514	14.58
464.717	14.57
464.92	14.56
465.122	14.65
465.325	14.67
465.528	14.7
465.73	14.78
465.933	14.7
466.135	14.77
466.338	14.76
466.541	14.77
466.743	14.75
466.946	14.74
467.148	14.66
467.351	14.55
467.553	14.52
467.756	14.51
467.958	14.45
468.161	14.49
468.363	14.51
468.566	14.49
468.768	14.5
468.971	14.59
469.173	14.7
469.375	14.78
469.578	14.89
469.78	14.94
469.983	14.94
470.185	14.88
470.387	14.91
470.59	14.92
470.792	14.91
470.994	14.92
471.196	14.81
471.399	14.72
471.601	14.73
471.803	14.63
472.005	14.51
472.208	14.52
472.41	14.49
472.612	14.52
472.814	14.48
473.016	14.56
473.218	14.57
473.421	14.56
473.623	14.67
473.825	14.71
474.027	14.76
474.229	14.79
474.431	14.8
474.633	14.87
474.835	14.87
475.037	14.91
475.239	14.95
475.441	15.07
475.643	15.16
475.845	15.06
476.047	15.02
476.249	15.12
476.451	15.18
476.653	15.15
476.855	15.16
477.057	15.27
477.258	15.29
477.46	15.2
477.662	15.1
477.864	15.07
478.066	15.08
478.268	14.98
478.469	14.92
478.671	14.89
478.873	14.89
479.075	14.9
479.276	14.86
479.478	14.88
479.68	14.9
479.882	14.83
480.083	14.89
480.285	14.87
480.487	15.06
480.688	15.07
480.89	15.14
481.091	15.2
481.293	15.21
481.495	15.14
481.696	15.09
481.898	15.07
482.099	15.04
482.301	14.95
482.502	14.95
482.704	14.88
482.905	14.82
483.107	14.8
483.308	14.76
483.51	14.72
483.711	14.71
483.913	14.72
484.114	14.75
484.315	14.8
484.517	14.84
484.718	14.87
484.92	14.91
485.121	14.95
485.322	14.96
485.524	15.01
485.725	15.06
485.926	15.08
486.127	15.08
486.329	15.07
486.53	15.05
486.731	15
486.932	15.01
487.134	15
487.335	15.01
487.536	15
487.737	14.98
487.938	14.97
488.139	15
488.341	15.01
488.542	14.99
488.743	14.99
488.944	15.08
489.145	15.07
489.346	15.03
489.547	15.03
489.748	15.07
489.949	15.1
490.15	15.09
490.351	15.05
490.552	15.1
490.753	15.13
490.954	15.1
491.155	15.07
491.356	15.02
491.557	15.08
491.758	15.11
491.959	15.08
492.159	15.1
492.36	15.17
492.561	15.22
492.762	15.21
492.963	15.16
493.164	15.2
493.364	15.27
493.565	15.34
493.766	15.31
493.967	15.22
494.167	15.26
494.368	15.16
494.569	15.11
494.769	15.15
494.97	15.13
495.171	15.17
495.371	15.21
495.572	15.18
495.773	15.15
495.973	15.11
496.174	15.24
496.375	15.22
496.575	15.28
496.776	15.33
496.976	15.24
497.177	15.25
497.377	15.38
497.578	15.42
497.778	15.41
497.979	15.51
498.179	15.53
498.38	15.54
498.58	15.56
498.78	15.59
498.981	15.56
499.181	15.67
499.382	15.64
499.582	15.57
499.782	15.49
499.983	15.57
500.183	15.55
500.383	15.6
500.584	15.61
500.784	15.75
500.984	15.82
501.184	15.94
501.385	15.95
501.585	16.1
501.785	16.11
501.985	16.2
502.185	16.17
502.386	16.15
502.586	16.19
502.786	16.24
502.986	16.14
503.186	16.18
503.386	16.14
503.586	16.2
503.786	16.1
503.987	16.19
504.187	16.3
504.387	16.29
504.587	16.34
504.787	16.38
504.987	16.35
505.187	16.41
505.387	16.37
505.587	16.47
505.786	16.51
505.986	16.72
506.186	16.76
506.386	16.71
506.586	16.72
506.786	16.76
506.986	16.94
507.186	17
507.386	17.06
507.585	17.1
507.785	17.08
507.985	17.09
508.185	17
508.384	17.03
508.584	17.1
508.784	17.24
508.984	17.29
509.183	17.2
509.383	17.34
509.583	17.43
509.782	17.49
509.982	17.54
510.182	17.48
510.381	17.64
510.581	17.69
510.781	17.77
510.98	17.79
511.18	17.81
511.379	17.87
511.579	17.8
511.778	17.84
511.978	17.91
512.177	17.94
512.377	18.03
512.576	18.1
512.776	18.13
512.975	18.24
513.175	18.4
513.374	18.52
513.573	18.66
513.773	18.79
513.972	18.76
514.172	18.85
514.371	18.93
514.57	19.02
514.77	19.03
514.969	19.15
515.168	19.18
515.367	19.1
515.567	19.17
515.766	19.15
515.965	19.16
516.164	19.26
516.364	19.35
516.563	19.47
516.762	19.52
516.961	19.59
517.16	19.63
517.359	19.74
517.559	19.85
517.758	19.92
517.957	20.01
518.156	20.07
518.355	20.17
518.554	20.16
518.753	20.21
518.952	20.32
519.151	20.33
519.35	20.36
519.549	20.39
519.748	20.44
519.947	20.51
520.146	20.55
520.345	20.73
520.544	20.78
520.743	20.86
520.942	20.88
521.141	20.91
521.339	21.08
521.538	21.16
521.737	21.25
521.936	21.36
522.135	21.4
522.333	21.44
522.532	21.47
522.731	21.59
522.93	21.71
523.129	21.8
523.327	21.86
523.526	21.86
523.725	21.93
523.923	21.94
524.122	22.07
524.321	22.12
524.519	22.25
524.718	22.29
524.917	22.32
525.115	22.38
525.314	22.41
525.512	22.44
525.711	22.47
525.909	22.57
526.108	22.58
526.306	22.6
526.505	22.72
526.703	22.73
526.902	22.84
527.1	22.88
527.299	22.85
527.497	22.96
527.696	23.04
527.894	23.04
528.092	23.07
528.291	23.15
528.489	23.15
528.688	23.17
528.886	23.24
529.084	23.23
529.283	23.29
529.481	23.38
529.679	23.41
529.877	23.45
530.076	23.55
530.274	23.63
530.472	23.66
530.67	23.76
530.869	23.83
531.067	23.89
531.265	23.96
531.463	24
531.661	24.04
531.859	24.06
532.057	24.09
532.255	24.18
532.454	24.19
532.652	24.25
532.85	24.26
533.048	24.31
533.246	24.34
533.444	24.4
533.642	24.41
533.84	24.48
534.038	24.52
534.236	24.64
534.434	24.68
534.632	24.78
534.83	24.75
535.027	24.79
535.225	24.79
535.423	24.85
535.621	24.85
535.819	24.94
536.017	24.99
536.215	25.08
536.412	25.09
536.61	25.06
536.808	25.04
537.006	25.1
537.203	25.14
537.401	25.22
537.599	25.24
537.797	25.32
537.994	25.35
538.192	25.28
538.39	25.22
538.587	25.15
538.785	25.21
538.983	25.19
539.18	25.29
539.378	25.27
539.575	25.22
539.773	25.2
539.97	25.22
540.168	25.17
540.366	25.26
540.563	25.25
540.761	25.38
540.958	25.41
541.155	25.45
541.353	25.41
541.55	25.48
541.748	25.52
541.945	25.55
542.143	25.6
542.34	25.68
542.537	25.67
542.735	25.79
542.932	25.74
543.129	25.78
543.327	25.85
543.524	25.92
543.721	25.9
543.919	25.95
544.116	26.01
544.313	25.97
544.51	25.96
544.708	26.01
544.905	25.94
545.102	25.93
545.299	25.95
545.496	25.93
545.693	25.97
545.891	26.01
546.088	26.04
546.285	26
546.482	26.02
546.679	26
546.876	25.93
547.073	26.06
547.27	26.06
547.467	25.98
547.664	26
547.861	26.01
548.058	26.01
548.255	25.96
548.452	26
548.649	25.99
548.846	26.1
549.043	26.25
549.24	26.17
549.437	26.28
549.633	26.4
549.83	26.31
550.027	26.33
550.224	26.33
550.421	26.4
550.618	26.39
550.814	26.4
551.011	26.3
551.208	26.19
551.405	26.19
551.601	26.21
551.798	26.02
551.995	26.16
552.191	26.18
552.388	26.1
552.585	26.1
552.781	26.19
552.978	26.31
553.175	26.38
553.371	26.47
553.568	26.35
553.764	26.44
553.961	26.56
554.157	26.41
554.354	26.34
554.55	26.52
554.747	26.5
554.943	26.44
555.14	26.31
555.336	26.35
555.533	26.3
555.729	26.45
555.926	26.38
556.122	26.34
556.318	26.41
556.515	26.48
556.711	26.43
556.907	26.51
557.104	26.58
557.3	26.64
557.496	26.52
557.693	26.51
557.889	26.47
558.085	26.37
558.281	26.44
558.478	26.53
558.674	26.58
558.87	26.67
559.066	26.55
559.262	26.49
559.459	26.4
559.655	26.49
559.851	26.45
560.047	26.33
560.243	26.48
560.439	26.44
560.635	26.43
560.831	26.35
561.027	26.34
561.223	26.33
561.419	26.31
561.615	26.45
561.811	26.49
562.007	26.48
562.203	26.63
562.399	26.58
562.595	26.64
562.791	26.68
562.987	26.72
563.183	26.6
563.379	26.59
563.575	26.62
563.771	26.6
563.966	26.59
564.162	26.67
564.358	26.59
564.554	26.64
564.75	26.71
564.945	26.79
565.141	26.77
565.337	26.84
565.533	26.9
565.728	26.91
565.924	26.84
566.12	26.86
566.315	26.82
566.511	26.99
566.707	26.94
566.902	26.84
567.098	26.63
567.293	26.6
567.489	26.65
567.684	26.68
567.88	26.67
568.076	26.7
568.271	26.7
568.467	26.76
568.662	26.74
568.858	26.81
569.053	26.94
569.248	27.17
569.444	27.26
569.639	27.22
569.835	27.19
570.03	27.2
570.225	27.15
570.421	27.16
570.616	27.07
570.812	27.11
571.007	26.95
571.202	26.89
571.397	26.81
571.593	26.81
571.788	26.87
571.983	26.89
572.178	26.91
572.374	26.99
572.569	27.03
572.764	27.16
572.959	27.05
573.154	27.13
573.35	27.14
573.545	27.12
573.74	27.07
573.935	27.08
574.13	27.04
574.325	27.03
574.52	27.04
574.715	26.91
574.91	26.91
575.105	26.85
575.3	26.89
575.495	26.87
575.69	26.9
575.885	26.91
576.08	26.74
576.275	26.72
576.47	26.72
576.665	26.73
576.86	26.76
577.055	26.7
577.25	26.74
577.444	26.7
577.639	26.7
577.834	26.7
578.029	26.97
578.224	27.12
578.418	27.1
578.613	27.14
578.808	27.16
579.003	27.28
579.197	27.29
579.392	27.36
579.587	27.48
579.781	27.53
579.976	27.5
580.171	27.27
580.365	27.23
580.56	27.41
580.755	27.34
580.949	27.32
581.144	27.29
581.338	27.26
581.533	27.35
581.727	27.25
581.922	27.27
582.116	27.18
582.311	27.18
582.505	27.22
582.7	27.05
582.894	27.14
583.089	27.15
583.283	27.08
583.478	27.11
583.672	27.05
583.866	27.13
584.061	27.04
584.255	27.36
584.449	27.36
584.644	27.35
584.838	27.36
585.032	27.26
585.226	27.24
585.421	27.32
585.615	27.43
585.809	27.36
586.003	27.35
586.198	27.42
586.392	27.16
586.586	27.09
586.78	27.17
586.974	27.33
587.168	27.45
587.363	27.4
587.557	27.33
587.751	27.36
587.945	27.36
588.139	27.4
588.333	27.35
588.527	27.46
588.721	27.54
588.915	27.51
589.109	27.5
589.303	27.45
589.497	27.53
589.691	27.53
589.885	27.43
590.079	27.54
590.273	27.36
590.466	27.51
590.66	27.44
590.854	27.42
591.048	27.43
591.242	27.39
591.436	27.2
591.629	27.25
591.823	27.37
592.017	27.47
592.211	27.5
592.404	27.67
592.598	27.55
592.792	27.53
592.986	27.6
593.179	27.52
593.373	27.48
593.567	27.65
593.76	27.51
593.954	27.52
594.147	27.4
594.341	27.33
594.535	27.28
594.728	27.4
594.922	27.51
595.115	27.51
595.309	27.56
595.502	27.46
595.696	27.42
595.889	27.5
596.083	27.49
596.276	27.51
596.47	27.47
596.663	27.48
596.856	27.44
597.05	27.43
597.243	27.47
597.437	27.51
597.63	27.62
597.823	27.7
598.017	27.69
598.21	27.62
598.403	27.7
598.596	27.75
598.79	27.93
598.983	27.86
599.176	27.96
599.369	27.79
599.563	27.77
599.756	27.85
599.949	27.84
600.142	27.95
600.335	28.09
600.528	27.93
600.722	28.01
600.915	28
601.108	28.01
601.301	28.06
601.494	28.03
601.687	28.04
601.88	28.1
602.073	27.97
602.266	28
602.459	27.95
602.652	28.12
602.845	28.11
603.038	28
603.231	27.9
603.424	27.84
603.617	27.96
603.809	27.93
604.002	27.83
604.195	27.93
604.388	27.89
604.581	27.94
604.774	27.85
604.966	27.86
605.159	27.81
605.352	27.95
605.545	28
605.737	28.02
605.93	28.17
606.123	28.25
606.316	28.28
606.508	28.24
606.701	28.18
606.894	28.37
607.086	28.38
607.279	28.44
607.471	28.57
607.664	28.48
607.857	28.35
608.049	28.19
608.242	28.09
608.434	28.17
608.627	28.21
608.819	28.18
609.012	28.06
609.204	27.95
609.397	28.02
609.589	27.94
609.782	27.94
609.974	28.09
610.166	28.22
610.359	28.32
610.551	28.32
610.743	28.25
610.936	28.41
611.128	28.47
611.32	28.81
611.513	28.8
611.705	28.88
611.897	28.83
612.09	28.87
612.282	28.87
612.474	28.89
612.666	28.9
612.858	29.01
613.051	29.05
613.243	28.94
613.435	28.66
613.627	28.66
613.819	28.5
614.011	28.8
614.203	28.73
614.395	28.75
614.588	28.78
614.78	28.84
614.972	28.9
615.164	28.62
615.356	28.65
615.548	28.75
615.74	28.9
615.932	28.92
616.124	28.52
616.315	28.6
616.507	28.57
616.699	28.39
616.891	28.2
617.083	28.12
617.275	28.39
617.467	28.42
617.659	28.31
617.85	27.95
618.042	27.89
618.234	28
618.426	28.09
618.618	28.15
618.809	28.13
619.001	28.33
619.193	28.35
619.384	28.3
619.576	28.27
619.768	28.23
619.959	28.57
620.151	28.67
620.343	28.74
620.534	28.52
620.726	28.4
620.917	28.5
621.109	28.42
621.301	28.37
621.492	28.25
621.684	28.3
621.875	28.37
622.067	28.22
622.258	28.31
622.45	28.28
622.641	28.16
622.832	28.18
623.024	28.33
623.215	28.25
623.407	28.28
623.598	28.48
623.789	28.58
623.981	28.6
624.172	28.65
624.363	28.72
624.555	28.75
624.746	28.86
624.937	28.86
625.129	28.68
625.32	28.71
625.511	28.81
625.702	28.56
625.893	28.55
626.085	28.65
626.276	28.67
626.467	28.52
626.658	28.58
626.849	28.7
627.04	28.64
627.231	28.83
627.422	28.91
627.614	28.84
627.805	29.05
627.996	28.99
628.187	28.89
628.378	28.96
628.569	28.99
628.76	28.92
628.951	28.76
629.142	28.89
629.332	28.91
629.523	28.74
629.714	28.73
629.905	28.68
630.096	28.71
630.287	28.64
630.478	28.5
630.669	28.61
630.859	28.73
631.05	28.79
631.241	28.68
631.432	28.7
631.623	28.79
631.813	28.84
632.004	28.86
632.195	28.95
632.385	29.21
632.576	29.28
632.767	29.27
632.957	29.23
633.148	29.22
633.339	29.23
633.529	28.98
633.72	28.97
633.91	28.92
634.101	28.99
634.292	28.91
634.482	28.9
634.673	28.94
634.863	29.03
635.054	28.99
635.244	29.04
635.435	28.99
635.625	29.23
635.815	29.36
636.006	29.48
636.196	29.39
636.387	29.48
636.577	29.35
636.767	29.48
636.958	29.34
637.148	29.3
637.338	29.3
637.529	29.42
637.719	29.41
637.909	29.26
638.099	29.12
638.29	28.98
638.48	28.81
638.67	28.78
638.86	28.44
639.05	28.58
639.241	28.59
639.431	28.74
639.621	28.78
639.811	28.55
640.001	28.69
640.191	28.69
640.381	29.08
640.571	29.24
640.761	29.3
640.951	29.37
641.141	29.3
641.331	29.52
641.521	29.47
641.711	29.47
641.901	29.56
642.091	29.56
642.281	29.71
642.471	29.43
642.661	29.48
642.851	29.56
643.041	29.62
643.231	29.63
643.42	29.43
643.61	29.49
643.8	29.32
643.99	29.31
644.18	29.26
644.369	29.24
644.559	29.37
644.749	29.51
644.939	29.4
645.128	29.39
645.318	29.45
645.508	29.51
645.697	29.47
645.887	29.8
646.076	29.9
646.266	29.75
646.456	29.78
646.645	29.78
646.835	29.74
647.024	29.78
647.214	29.68
647.403	29.73
647.593	29.77
647.782	29.79
647.972	29.62
648.161	29.6
648.351	29.73
648.54	29.79
648.73	29.83
648.919	29.68
649.108	29.66
649.298	29.81
649.487	29.77
649.677	29.76
649.866	29.62
650.055	29.56
650.244	29.86
650.434	29.91
650.623	29.91
650.812	29.77
651.002	29.95
651.191	30.19
651.38	30.47
651.569	30.53
651.758	30.47
651.947	30.6
652.137	30.79
652.326	30.57
652.515	30.45
652.704	30.55
652.893	30.72
653.082	30.33
653.271	30.22
653.46	30.05
653.649	30.21
653.838	30.23
654.027	30.24
654.216	30.31
654.405	30.35
654.594	30.52
654.783	30.31
654.972	30.1
655.161	30.29
655.35	30.11
655.539	29.96
655.728	29.67
655.916	29.8
656.105	29.69
656.294	29.56
656.483	29.53
656.672	29.64
656.86	29.73
657.049	29.85
657.238	29.85
657.427	29.95
657.615	30.21
657.804	30.24
657.993	30.14
658.181	30.27
658.37	30.56
658.559	30.48
658.747	30.46
658.936	30.54
659.125	30.73
659.313	30.84
659.502	30.76
659.69	30.64
659.879	30.78
660.067	30.8
660.256	30.77
660.444	30.54
660.633	30.53
660.821	30.43
661.01	30.43
661.198	30.21
661.387	30.16
661.575	30.18
661.763	30.39
661.952	30.31
662.14	30.47
662.328	30.48
662.517	30.26
662.705	30.44
662.893	30.5
663.082	30.38
663.27	30.48
663.458	30.54
663.646	30.54
663.834	30.11
664.023	30.1
664.211	29.92
664.399	30.16
664.587	30.31
664.775	30.33
664.963	30.34
665.152	30.21
665.34	30.02
665.528	30.03
665.716	30.37
665.904	30.53
666.092	30.34
666.28	30.55
666.468	30.51
666.656	30.53
666.844	30.55
667.032	30.8
667.22	31.12
667.408	31.28
667.596	31.27
667.784	31.11
667.971	31.18
668.159	31.27
668.347	31.38
668.535	31.2
668.723	31.24
668.911	31.18
669.098	31
669.286	30.74
669.474	30.78
669.662	30.83
669.849	30.99
670.037	31.1
670.225	30.98
670.413	30.66
670.6	30.82
670.788	30.8
670.976	30.74
671.163	30.54
671.351	30.88
671.538	30.91
671.726	31
671.913	30.82
672.101	30.56
672.289	30.92
672.476	31.13
672.664	31.1
672.851	31.16
673.039	31.17
673.226	31.41
673.413	31.22
673.601	31.24
673.788	31.22
673.976	31.18
674.163	31.31
674.35	31.21
674.538	30.99
674.725	30.94
674.912	30.74
675.1	30.88
675.287	31.13
675.474	30.96
675.662	30.83
675.849	30.87
676.036	30.72
676.223	30.8
676.411	30.8
676.598	30.87
676.785	30.9
676.972	31.32
677.159	31.1
677.346	30.54
677.533	30.86
677.721	30.92
677.908	30.88
678.095	30.96
678.282	30.9
678.469	30.84
678.656	30.81
678.843	30.89
679.03	30.62
679.217	30.87
679.404	30.91
679.591	30.78
679.778	31.04
679.964	30.9
680.151	30.92
680.338	30.93
680.525	31.2
680.712	31.32
680.899	31.32
681.086	31.64
681.272	31.8
681.459	32.07
681.646	32.09
681.833	31.9
682.02	32.1
682.206	32.12
682.393	32.22
682.58	32
682.766	32.03
682.953	31.99
683.14	31.72
683.326	31.58
683.513	31.57
683.7	31.44
683.886	31.39
684.073	31.24
684.259	31.13
684.446	31.23
684.632	30.99
684.819	30.91
685.005	30.86
685.192	30.87
685.378	30.49
685.565	30.39
685.751	30.48
685.938	30.35
686.124	30.29
686.31	30.68
686.497	30.44
686.683	30.75
686.87	31.03
687.056	31.04
687.242	31.13
687.429	31.28
687.615	31.38
687.801	31.3
687.987	31.42
688.174	31.61
688.36	31.55
688.546	31.54
688.732	31.49
688.918	30.96
689.105	31.1
689.291	30.93
689.477	31.24
689.663	31.16
689.849	31.47
690.035	31.52
690.221	31.58
690.407	31.62
690.593	31.72
690.779	31.77
690.965	32.21
691.151	31.93
691.337	32.17
691.523	31.73
691.709	31.78
691.895	31.33
692.081	31.34
692.267	30.98
692.453	30.77
692.639	30.77
692.825	30.54
693.011	30.39
693.196	30.77
693.382	30.45
693.568	30.67
693.754	30.8
693.94	31.32
694.125	31.21
694.311	31.78
694.497	31.88
694.682	31.74
694.868	32.06
695.054	31.86
695.239	31.75
695.425	31.87
695.611	32.17
695.796	31.94
695.982	31.54
696.168	31.54
696.353	31.12
696.539	31.23
696.724	31.24
696.91	31.09
697.095	31.25
697.281	31.36
697.466	31.31
697.652	31.24
697.837	31.4
698.023	31.5
698.208	31.47
698.393	31.61
698.579	31.68
698.764	31.78
698.949	31.92
699.135	31.89
699.32	31.92
699.505	32.16
699.691	31.99
699.876	32.07
700.061	32.27
700.246	32.51
700.432	32.43
700.617	32.39
700.802	32.36
700.987	32.13
701.172	32.43
701.358	32.49
701.543	32.42
701.728	32.46
701.913	32.45
702.098	32.22
702.283	32.14
702.468	32.06
702.653	31.92
702.838	32.06
703.023	32.17
703.208	31.98
703.393	31.6
703.578	31.55
703.763	32.02
703.948	32.14
704.133	32.08
704.318	32.23
704.503	32.49
704.688	32.48
704.873	32.39
705.057	32.91
705.242	32.83
705.427	33.12
705.612	32.85
705.797	32.2
705.981	31.88
706.166	32.16
706.351	32.1
706.536	32.01
706.72	31.97
706.905	32.23
707.09	31.76
707.274	31.81
707.459	31.88
707.644	32.16
707.828	32.73
708.013	32.87
708.197	32.61
708.382	32.48
708.567	32.67
708.751	32.68
708.936	32.25
709.12	32.24
709.305	32.23
709.489	32.13
709.673	31.91
709.858	31.68
710.042	31.48
710.227	31.8
710.411	31.6
710.596	31.09
710.78	31.27
710.964	31.69
711.149	32.09
711.333	31.97
711.517	32.25
711.702	32.51
711.886	32.34
712.07	32.58
712.254	32.52
712.438	32.59
712.623	32.72
712.807	32.57
712.991	32.41
713.175	32.27
713.359	32.47
713.544	32.13
713.728	32.11
713.912	32.15
714.096	31.98
714.28	31.78
714.464	32.07
714.648	32.13
714.832	32.26
715.016	32.29
715.2	31.98
715.384	31.87
715.568	31.82
715.752	31.93
715.936	31.84
716.12	31.87
716.304	32
716.488	31.59
716.671	32.01
716.855	31.89
717.039	31.73
717.223	31.87
717.407	31.71
717.59	31.65
717.774	31.36
717.958	31.7
718.142	31.57
718.325	31.53
718.509	32.31
718.693	31.67
718.877	31.57
719.06	31.59
719.244	31.6
719.428	31.6
719.611	31.93
719.795	32.08
719.978	32.25
720.162	32.69
720.345	32.18
720.529	31.58
720.713	31.61
720.896	31.94
721.08	31.89
721.263	31.67
721.446	31.81
721.63	31.23
721.813	31.33
721.997	30.93
722.18	31.01
722.364	31.33
722.547	30.96
722.73	31.06
722.914	30.76
723.097	31.06
723.28	31.55
723.464	31.65
723.647	31.64
723.83	31.19
724.013	31.32
724.197	30.8
724.38	31.06
724.563	31.26
724.746	31.78
724.929	31.82
725.112	31.48
725.296	31.03
725.479	30.81
725.662	31.49
725.845	31.89
726.028	31.92
726.211	31.92
726.394	31.78
726.577	32.08
726.76	31.78
726.943	32.06
727.126	32.23
727.309	32.81
727.492	33.13
727.675	32.91
727.858	33.06
728.041	32.68
728.224	33.25
728.407	32.86
728.589	32.91
728.772	32.98
728.955	32.57
729.138	32.32
729.321	31.67
729.503	31.78
729.686	31.43
729.869	31.17
730.052	31.46
730.234	30.57
730.417	30.84
730.6	30.7
730.782	29.93
730.965	30.33
731.148	30.75
731.33	30.96
731.513	30.62
731.695	31.02
731.878	30.96
732.061	31.28
732.243	31.54
732.426	31.82
732.608	31.58
732.791	32.21
732.973	32.32
733.156	32.37
733.338	32.34
733.52	32.34
733.703	32.45
733.885	32.76
734.068	32.3
734.25	32.42
734.432	32.28
734.615	32.21
734.797	32.57
734.979	32.4
735.162	32.27
735.344	32.26
735.526	32.69
735.708	32.18
735.891	31.72
736.073	31.78
736.255	31.75
736.437	32.13
736.619	32.72
736.802	32.59
736.984	32.45
737.166	32.39
737.348	32.8
737.53	32.93
737.712	33.22
737.894	33.13
738.076	33.2
738.258	33.17
738.44	33
738.622	33.29
738.804	33.48
738.986	33.62
739.168	33.78
739.35	33.62
739.532	32.98
739.714	32.72
739.896	33.51
740.078	33.53
740.259	34.17
740.441	34.09
740.623	33.85
740.805	33.52
740.987	33.52
741.168	33.4
741.35	33.8
741.532	33.78
741.714	34.2
741.895	33.86
742.077	33.7
742.259	33.51
742.44	33.27
742.622	32.95
742.804	32.53
742.985	32.25
743.167	32.09
743.348	31.85
743.53	31.85
743.711	31.16
743.893	30.94
744.075	31.02
744.256	30.68
744.438	30.97
744.619	31.73
744.8	32.08
744.982	32.18
745.163	32.05
745.345	31.47
745.526	31.47
745.707	32.2
745.889	31.94
746.07	31.88
746.252	32
746.433	31.83
746.614	31.27
746.795	31.11
746.977	31.17
747.158	32.04
747.339	32.56
747.52	33.18
747.702	32.78
747.883	32.81
748.064	32.88
748.245	32.58
748.426	33.17
748.607	32.73
748.788	32.8
748.97	33.04
749.151	32.38
749.332	32.45
749.513	32.53
749.694	33.08
749.875	33.53
750.056	33.72
750.237	33.73
750.418	33.35
750.599	33.82
750.78	33.89
750.96	33.79
751.141	33.73
751.322	33.14
751.503	32.51
751.684	31.99
751.865	31.4
752.046	31.77
752.226	32.07
752.407	32.14
752.588	32.4
752.769	32.12
752.949	31.89
753.13	31.94
753.311	31.65
753.492	31.82
753.672	31.04
753.853	31.73
754.034	30.82
754.214	30.5
754.395	30.78
754.575	30.85
754.756	31.59
754.937	31.49
755.117	31.84
755.298	32.59
755.478	32.2
755.659	32.82
755.839	32.54
756.02	33.08
756.2	33.07
756.381	32.67
756.561	32.28
756.741	31.72
756.922	32.07
757.102	31.44
757.283	31.31
757.463	31.76
757.643	32.2
757.823	31.91
758.004	32.63
758.184	31.88
758.364	31.76
758.545	31.53
758.725	31.62
758.905	31.1
759.085	30.88
759.265	30.78
759.446	30.39
759.626	30.04
759.806	29.71
759.986	28.08
760.166	28.04
760.346	28.09
760.526	28.13
760.706	28.18
760.886	27.66
761.066	28.4
761.246	28.04
761.426	28.77
761.606	28.92
761.786	29.41
761.966	30.21
762.146	30.74
762.326	30.75
762.506	30.5
762.686	30.19
762.866	30.48
763.046	30.54
763.225	30.66
763.405	30.2
763.585	29.98
763.765	29.9
763.945	29.84
764.124	30.17
764.304	29.99
764.484	30.07
764.664	30.18
764.843	30.62
765.023	30.8
765.203	30.92
765.382	30.85
765.562	30.79
765.741	30.94
765.921	31.73
766.101	31.04
766.28	31.55
766.46	31.66
766.639	31.76
766.819	31.84
766.998	30.97
767.178	31.39
767.357	31.93
767.537	32.7
767.716	31.78
767.896	30.98
768.075	31.74
768.254	31.92
768.434	31.88
768.613	32.23
768.792	31.6
768.972	32.32
769.151	32.44
769.33	31.74
769.51	31.46
769.689	32.94
769.868	32.81
770.047	32.48
770.226	31.05
770.406	30.89
770.585	30.71
770.764	31.13
770.943	30.8
771.122	29.88
771.301	30.09
771.48	30.11
771.66	29.11
771.839	29.22
772.018	29.59
772.197	30.26
772.376	30.14
772.555	29.84
772.734	29.43
772.913	30.3
773.092	29.95
773.271	30.21
773.449	30.05
773.628	30.78
773.807	30.57
773.986	30.34
774.165	30.51
774.344	30.14
774.523	30.82
774.701	30.85
774.88	29.75
775.059	30.44
775.238	30.58
775.417	31.2
775.595	30.37
775.774	30.25
775.953	29.56
776.131	29.01
776.31	29.75
776.489	28.99
776.667	28.85
776.846	28.74
777.025	28.28
777.203	27.73
777.382	27.59
777.56	27.33
777.739	27.67
777.917	28.06
778.096	29
778.274	29.01
778.453	29.54
778.631	29.62
778.81	30.06
778.988	31.17
779.166	32.11
779.345	31.15
779.523	31.8
779.702	31.91
779.88	32.38
780.058	32.39
780.237	32.19
780.415	31.5
780.593	32.59
780.771	32.49
780.95	30.84
781.128	30.17
781.306	31.17
781.484	31.54
781.662	31.64
781.841	31.5
782.019	31.05
782.197	30.6
782.375	31.39
782.553	30.18
782.731	30.54
782.909	32.63
783.087	32.5
783.265	31.99
783.443	31.89
783.621	31.86
783.799	31.95
783.977	31.65
784.155	32.36
784.333	32.84
784.511	33
784.689	31.71
784.867	31.31
785.045	31.79
785.223	32.35
785.4	31.35
785.578	30.73
785.756	31.12
785.934	30.74
786.112	30.71
786.289	29.47
786.467	29.42
786.645	30.39
786.823	28.74
787	29.02
787.178	28.35
787.356	28.9
787.533	29.09
787.711	28.87
787.889	29.68
788.066	29.86
788.244	29.96
788.421	30.28
788.599	29.34
788.776	30.67
788.954	29.95
789.131	30.79
789.309	30.78
789.486	30.76
789.664	30.9
789.841	31.25
790.019	30.66
790.196	31.32
790.373	31.11
790.551	31.86
790.728	32.42
790.906	32.74
791.083	31.94
791.26	31.2
791.437	31.69
791.615	30.23
791.792	29.54
791.969	29.69
792.146	29.02
792.324	29.68
792.501	30.31
792.678	29.97
792.855	29.7
793.032	28.42
793.209	28.98
793.387	28.67
793.564	29.87
793.741	30.27
793.918	30.69
794.095	31.01
794.272	30.75
794.449	30.03
794.626	28.79
794.803	29.55
794.98	29.99
795.157	29.27
795.334	28.78
795.511	29.41
795.688	29.34
795.864	29.68
796.041	29.91
796.218	29.91
796.395	29.91
796.572	29.68
796.749	29.7
796.925	31.25
797.102	31.84
797.279	31.89
797.456	32.09
797.632	32.28
797.809	31.3
797.986	31.42
798.162	31.42
798.339	31.16
798.516	31.19
798.692	30.99
798.869	29.71
799.046	30.51
799.222	30.1
799.399	29.62
799.575	29.12
799.752	29.87
799.928	29.48
800.105	28.83
800.281	30
800.458	30.66
800.634	30.61
800.811	30.45
800.987	30.32
801.163	31.1
801.34	31.11
801.516	31.95
801.692	31.88
801.869	31.33
802.045	31.82
802.221	31.47
802.398	30.82
802.574	30.73
802.75	30.3
802.926	29.82
803.103	30.18
803.279	30.09
803.455	28.01
803.631	27.14
803.807	27.15
803.983	25.97
804.16	24.88
804.336	25.08
804.512	24.17
804.688	25.61
804.864	26.29
805.04	25.17
805.216	24.53
805.392	25.8
805.568	25.58
805.744	25.68
805.92	25.59
806.096	26.69
806.272	26.01
806.448	26.65
806.623	27.39
806.799	25.66
806.975	26.56
807.151	26.97
807.327	25.98
807.503	26.76
807.678	27.91
807.854	30.27
808.03	28.88
808.206	30.34
808.381	30.77
808.557	28.76
808.733	30
808.908	29.24
809.084	28.96
809.26	29.22
809.435	28.29
809.611	25.97
809.787	24.47
809.962	25.67
810.138	24.79
810.313	23.43
810.489	24.04
810.664	23.8
810.84	24.11
811.015	23.96
811.191	26.44
811.366	28.44
811.542	29.43
811.717	29.98
811.892	29.26
812.068	31.42
812.243	31.63
812.419	32.23
812.594	33.05
812.769	31.12
812.944	32.43
813.12	30.32
813.295	30.44
813.47	31.16
813.645	31.15
813.821	31.45
813.996	29.28
814.171	31.31
814.346	30.96
814.521	30.46
814.697	33.27
814.872	31.29
815.047	33.17
815.222	32.95
815.397	31.39
815.572	30.5
815.747	29.92
815.922	30.03
816.097	28.37
816.272	30.31
816.447	29.59
816.622	28.26
816.797	27.99
816.972	27.44
817.147	27.33
817.322	28.53
817.496	28.02
817.671	28.74
817.846	26.81
818.021	27.13
818.196	25.06
818.371	25.79
818.545	26.19
818.72	27.03
818.895	27.2
819.069	27.24
819.244	27.86
819.419	28.71
819.594	29.08
819.768	30.38
819.943	30.31
820.117	30.55
820.292	30.39
820.467	29.67
820.641	28.86
820.816	28.8
820.99	28.53
821.165	28.21
821.339	28.01
821.514	27.41
821.688	27.3
821.863	27.25
822.037	26.91
822.212	26.78
822.386	26.92
822.56	27.14
822.735	27.07
822.909	27.13
823.084	26.96
823.258	26.92
823.432	27.12
823.606	27.07
823.781	27.02
823.955	27.2
824.129	27.08
824.303	27.18
824.478	27.1
824.652	26.79
824.826	27.07
825	27.45
825.174	27.77
825.348	27.6
825.523	27.61
825.697	27.94
825.871	27.98
826.045	28.15
826.219	28.35
826.393	28.04
826.567	28.05
826.741	26.98
826.915	26.59
827.089	26.25
827.263	26.04
827.437	26.55
827.611	26.12
827.784	26.04
827.958	25.71
828.132	25.64
828.306	25.87
828.48	25.76
828.654	25.84
828.827	25.54
829.001	24.93
829.175	25.68
829.349	25.39
829.522	25.68
829.696	25.62
829.87	26.29
830.044	25.31
830.217	25.27
830.391	25
830.565	25.11
830.738	25.22
830.912	26.08
831.085	24.88
831.259	23.26
831.432	22.4
831.606	23.56
831.779	22.75
831.953	23.23
832.126	22.95
832.3	22.84
832.473	22.33
832.647	22.62
832.82	23.28
832.994	22.85
833.167	24.3
833.34	24.48
833.514	24.54
833.687	25.46
833.86	24.95
834.034	24.78
834.207	25.3
834.38	25.94
834.553	26.27
834.727	25.78
834.9	25.94
835.073	25.5
835.246	25.12
835.419	23.92
835.593	23.18
835.766	24.3
835.939	23.61
836.112	23.09
836.285	23.84
836.458	23.53
836.631	24.48
836.804	25.6
836.977	25.62
837.15	26.38
837.323	27.35
837.496	27.83
837.669	27.41
837.842	29.41
838.015	30.22
838.188	28.73
838.361	28.44
838.533	27.23
838.706	26.28
838.879	25.32
839.052	25.99
839.225	27.13
839.398	24.94
839.57	24.88
839.743	24.4
839.916	23.84
840.088	22.63
840.261	23.45
840.434	24.05
840.607	25.27
840.779	25.83
840.952	24.51
841.124	24.37
841.297	26.34
841.47	26.7
841.642	26.75
841.815	28.89
841.987	30.22
842.16	29.5
842.332	29.46
842.505	26.16
842.677	24.29
842.85	26.04
843.022	23.94
843.194	22.4
843.367	21.52
843.539	21.95
843.712	17.19
843.884	16.06
844.056	17.52
844.229	16.17
844.401	21.31
844.573	22.84
844.745	22.5
844.918	21.47
845.09	21.09
845.262	20.9
845.434	21.08
845.606	21.9
845.779	23.21
845.951	24.06
846.123	21.68
846.295	21.64
846.467	24.62
846.639	24.76
846.811	26.4
846.983	29.72
847.155	29.75
847.327	33.25
847.499	33.81
847.671	34.98
847.843	33.29
848.015	37.29
848.187	36.21
848.359	34.54
848.531	33.06
848.703	34.59
848.875	36.06
849.047	36.34
849.218	34.65
849.39	33.55
849.562	31.88
849.734	32.72
849.905	32.05
850.077	30.75
850.249	29.66
850.421	32.27
850.592	30.82
850.764	27.19
850.936	24.32
851.107	20.53
851.279	18.15
851.451	21.91
851.622	18.83
851.794	15.58
851.965	16.37
852.137	16.25
852.308	13.58
852.48	13.87
852.651	13.91
852.823	15.61
852.994	18.04
853.166	24.15
853.337	18.32
853.509	18.09
853.68	23.92
853.851	25.23
854.023	25.6
854.194	23.92
854.365	23.94
854.537	25.82
854.708	27.44
854.879	28.59
855.05	27.68
855.222	28.57
855.393	31.58
855.564	29.29
855.735	27.41
855.906	23.19
856.078	26.63
856.249	28.55
856.42	27.52
856.591	26.1
856.762	23.38
856.933	24.31
857.104	26.29
857.275	27.16
857.446	28.33
857.617	26.27
857.788	33.26
857.959	30.88
858.13	30.59
858.301	33.59
858.472	31.81
858.643	34.02
858.814	32.51
858.985	31.98
859.155	27.26
859.326	25.42
859.497	31.78
859.668	27.92
859.839	30.45
860.009	28.29
860.18	23.14
860.351	26.61
860.522	21.59
860.692	21.61
860.863	27.82
861.034	29.77
861.204	29.63
861.375	27.96
861.546	27.26
861.716	26.25
861.887	26.68
862.057	28.15
862.228	23.23
862.398	20.02
862.569	21.14
862.739	15.43
862.91	13.53
863.08	14.69
863.251	11.2
863.421	16.54
863.592	20.61
863.762	22.41
863.932	22.15
864.103	23.47
864.273	30.27
864.443	32.64
864.614	31.28
864.784	33.32
864.954	35.95
865.125	32.26
865.295	26.8
865.465	24.8
865.635	24.87
865.805	25.5
865.976	26.31
866.146	26.88
866.316	25.08
866.486	24.66
866.656	22.16
866.826	20.66
866.996	20.97
867.166	22.96
867.336	23.16
867.506	18.17
867.676	21.53
867.846	22.67
868.016	21.06
868.186	23.03
868.356	22.24
868.526	19.54
868.696	16.25
868.866	17.02
869.036	16.55
869.206	9.21
869.376	16.02
869.545	8.64
869.715	5.86
869.885	5.82
870.055	2.82
870.224	5.88
870.394	9.17
870.564	16.78
870.734	20.93
870.903	25.14
871.073	29.57
871.243	29.52
871.412	31.29
871.582	29.57
871.751	26.38
871.921	27.66
872.091	24.5
872.26	23.6
872.43	16.65
872.599	13.9
872.769	11.42
872.938	13.33
873.108	12.35
873.277	13.59
873.446	17.56
873.616	16.8
873.785	15.09
873.955	16.84
874.124	23.4
874.293	25.86
874.463	23.15
874.632	18.68
874.801	14.48
874.971	12.3
875.14	11.1
875.309	10.74
875.478	12.15
875.647	11.58
875.817	13.65
875.986	11.05
876.155	10.48
876.324	16.28
876.493	18.62
876.662	20.37
876.831	22.04
877	24.12
877.17	23.51
877.339	26.24
877.508	24
877.677	18.56
877.846	18.43
878.015	20.5
878.184	18.79
878.352	15.99
878.521	16.18
878.69	18.14
878.859	20.17
879.028	20.66
879.197	22.74
879.366	21.19
879.534	22.88
879.703	19.23
879.872	17.63
880.041	18.7
880.21	21.8
880.378	20.64
880.547	20.4
880.716	18.59
880.884	18.95
881.053	17.39
881.222	18.76
881.39	19.9
881.559	21.15
881.727	22.38
881.896	22.82
882.065	22.21
882.233	22.96
882.402	23.25
882.57	23.45
882.739	22.95
882.907	23.55
883.076	23.62
883.244	23.04
883.412	23.25
883.581	22.76
883.749	21.88
883.918	22.19
884.086	21.55
884.254	20.73
884.423	20.44
884.591	21.53
884.759	19.98
884.927	20.74
885.096	20.44
885.264	20.04
885.432	21.31
885.6	21.15
885.769	20.76
885.937	20.66
886.105	23.01
886.273	22.6
886.441	19.63
886.609	23.09
886.777	21.5
886.945	24.05
887.113	21.92
887.281	19.75
887.449	21.21
887.617	22.29
887.785	25.12
887.953	20.46
888.121	21.11
888.289	24.45
888.457	26.59
888.625	24.02
888.793	22.24
888.961	21.2
889.129	10.21
889.296	16.3
889.464	14.02
889.632	10.94
889.8	9.3
889.967	11.12
890.135	5.21
