Data from 2938841__Reflection_03.txt Node
Date: Wed Mar 11 15:32:32 EDT 2015
User: robert
Spectrometer: USB4E03002
Autoset integration time: false
Trigger mode: 4
Integration Time (sec): 1.000000E-1
Scans to average: 10
Electric dark correction enabled: false
Nonlinearity correction enabled: false
Boxcar width: 5
Stray light correction enabled: false
XAxis mode: Wavelengths
Stop averaging: false
Number of Pixels in Spectrum: 3648
>>>>>Begin Spectral Data<<<<<
177.575	655.56
177.794	242.67
178.014	225.35
178.233	296.32
178.452	680.65
178.672	1129.69
178.891	1038.46
179.11	-3385.71
179.33	-129.34
179.549	-155.65
179.768	-277.48
179.987	-230.22
180.207	-317.95
180.426	-260.73
180.645	-335.2
180.864	-336.23
181.084	-84.55
181.303	-7.39
181.522	40.55
181.741	175
181.96	8.11
182.179	136.17
182.398	358
182.618	61.22
182.837	101.98
183.056	146.26
183.275	47.53
183.494	56.62
183.713	-64.18
183.932	-19.42
184.151	-71.43
184.37	2425
184.589	272.5
184.808	47.2
185.027	165.94
185.246	55
185.465	84
185.684	8.96
185.903	54.67
186.122	75.26
186.341	50.82
186.56	30.95
186.779	119.9
186.998	126.92
187.216	156.61
187.435	120
187.654	245.37
187.873	166.56
188.092	141.56
188.311	193.55
188.53	137.82
188.748	145.57
188.967	237.3
189.186	-52.55
189.405	2.01
189.623	39.73
189.842	32.75
190.061	61.54
190.28	-21.68
190.498	2.9
190.717	-24.51
190.936	17.3
191.154	24.25
191.373	-62.98
191.592	177.78
191.81	145.54
192.029	130.65
192.248	196.64
192.466	145.56
192.685	55.89
192.904	57.67
193.122	58.3
193.341	65.73
193.559	74.76
193.778	46.39
193.996	47.44
194.215	77.57
194.433	55.45
194.652	9.48
194.87	-15.12
195.089	-124.43
195.307	-2616.67
195.526	-233.33
195.744	-589.13
195.963	1257.89
196.181	-67.97
196.399	-177.17
196.618	-100
196.836	5.46
197.055	43.82
197.273	41.3
197.491	68.13
197.71	110.3
197.928	128.75
198.146	133.78
198.365	137.43
198.583	216.5
198.801	263.68
199.019	203.37
199.238	-156.3
199.456	-154.81
199.674	-922.64
199.892	351.41
200.111	216.86
200.329	179.08
200.547	145.63
200.765	72.64
200.983	68.24
201.202	75
201.42	110.43
201.638	101.57
201.856	120.46
202.074	69.1
202.292	98.13
202.51	121.09
202.728	135.69
202.946	220.98
203.165	380.17
203.383	265.71
203.601	245.07
203.819	103.51
204.037	127.94
204.255	108.42
204.473	95.15
204.691	76.67
204.909	46.43
205.127	50.85
205.345	41.42
205.562	43.15
205.78	54.58
205.998	65.44
206.216	94.65
206.434	86.63
206.652	86.93
206.87	116.29
207.088	99.15
207.306	130.07
207.523	224.88
207.741	348.7
207.959	-742.37
208.177	-113.2
208.395	-23.37
208.612	37.5
208.83	33.11
209.048	7.04
209.266	94.98
209.483	38.36
209.701	-126.25
209.919	97.33
210.136	83.63
210.354	-305.71
210.572	27.03
210.79	124.14
211.007	89.84
211.225	68.07
211.442	104.74
211.66	109.97
211.878	132.72
212.095	528.64
212.313	403.26
212.53	440.58
212.748	413.36
212.966	274.84
213.183	204.71
213.401	198.94
213.618	224.71
213.836	190.23
214.053	153.73
214.271	140.03
214.488	14.81
214.705	43.04
214.923	51.01
215.14	53.92
215.358	59.46
215.575	50.26
215.793	46.5
216.01	64.67
216.227	60.29
216.445	48.09
216.662	37.96
216.879	32.23
217.097	25.86
217.314	28.89
217.531	36.59
217.749	29.05
217.966	25.46
218.183	25.95
218.4	16.75
218.618	7.23
218.835	6.84
219.052	5.91
219.269	7.05
219.487	3.09
219.704	-11.89
219.921	-14.21
220.138	-17
220.355	-15.96
220.572	-19.57
220.79	-19.93
221.007	-12.1
221.224	-7.97
221.441	-14.15
221.658	-6.2
221.875	-6.52
222.092	-1
222.309	-4
222.526	4.54
222.743	7.96
222.96	4.13
223.177	8.93
223.394	10.54
223.611	9.2
223.828	16.27
224.045	16.1
224.262	19.36
224.479	17.05
224.696	19.84
224.913	13.92
225.13	9.98
225.347	7.99
225.564	4.59
225.781	-0.76
225.997	1.71
226.214	1.2
226.431	1.15
226.648	0.61
226.865	3.85
227.082	2.13
227.298	2.94
227.515	5.15
227.732	6.04
227.949	6.11
228.165	6.2
228.382	5.65
228.599	6.28
228.816	5.49
229.032	5.48
229.249	4.61
229.466	4.89
229.682	5.22
229.899	4.68
230.116	4.93
230.332	4.99
230.549	5.12
230.765	5.1
230.982	3.72
231.199	2.84
231.415	2.24
231.632	1.85
231.848	0.13
232.065	-1.27
232.281	-1.73
232.498	-4.31
232.714	-4.17
232.931	-2.78
233.147	-2.34
233.364	-2.85
233.58	-2.22
233.797	-0.74
234.013	0.49
234.23	0.73
234.446	1.01
234.662	-0.51
234.879	0.84
235.095	2.13
235.312	1.35
235.528	1.66
235.744	1.85
235.961	1.98
236.177	1.67
236.393	1.25
236.61	1.42
236.826	1.73
237.042	2.28
237.258	1.53
237.475	-0.62
237.691	0.23
237.907	-1.63
238.123	-0.14
238.339	-0.05
238.556	1.56
238.772	2.43
238.988	4.01
239.204	3.86
239.42	3.29
239.636	5.49
239.853	4.38
240.069	4.49
240.285	5.83
240.501	5.08
240.717	6.6
240.933	6.37
241.149	5.56
241.365	6.12
241.581	6.45
241.797	6.46
242.013	5.95
242.229	6.16
242.445	6.17
242.661	5.95
242.877	6.58
243.093	5.52
243.309	5.45
243.525	5.71
243.741	5.16
243.957	4.84
244.173	5.49
244.388	5.94
244.604	6.18
244.82	5.5
245.036	5.51
245.252	4.96
245.468	5.06
245.683	4.99
245.899	5.49
246.115	5.19
246.331	5.23
246.547	5.56
246.762	5.52
246.978	5.56
247.194	5.59
247.409	5.53
247.625	5.71
247.841	5.93
248.057	5.88
248.272	5.57
248.488	5.73
248.703	5.65
248.919	5.07
249.135	4.88
249.35	4.95
249.566	5.28
249.782	4.8
249.997	4.32
250.213	4.28
250.428	4.7
250.644	4.37
250.859	4.03
251.075	3.97
251.29	4.03
251.506	3.55
251.721	3.55
251.937	3.26
252.152	3.37
252.368	2.83
252.583	2.8
252.798	2.22
253.014	2.32
253.229	1.91
253.445	2.46
253.66	2.47
253.875	2.19
254.091	2.29
254.306	1.77
254.521	1.62
254.737	1.42
254.952	0.99
255.167	0.23
255.383	1.33
255.598	1.29
255.813	0.73
256.028	0.56
256.244	0.66
256.459	-0.17
256.674	0.38
256.889	0.97
257.104	1.64
257.32	1.79
257.535	2.22
257.75	2.28
257.965	2.86
258.18	3.48
258.395	3.6
258.61	3.89
258.826	4.34
259.041	4.45
259.256	4.65
259.471	4.57
259.686	4.65
259.901	4.68
260.116	4.38
260.331	4.32
260.546	4.09
260.761	4.27
260.976	4.08
261.191	3.95
261.406	3.78
261.621	3.7
261.836	3.81
262.05	3.88
262.265	3.78
262.48	3.8
262.695	3.61
262.91	3.4
263.125	3.53
263.34	3.3
263.555	2.98
263.769	2.92
263.984	2.5
264.199	2.67
264.414	2.76
264.629	3.07
264.843	3.44
265.058	3.75
265.273	4.54
265.488	4.05
265.702	4.19
265.917	4.37
266.132	4.28
266.346	4.27
266.561	4.37
266.776	4.28
266.99	4
267.205	4.33
267.42	4.32
267.634	3.89
267.849	4.06
268.063	3.91
268.278	4.23
268.492	3.99
268.707	3.96
268.922	3.91
269.136	3.35
269.351	3.5
269.565	2.81
269.78	2.85
269.994	2.56
270.209	2.72
270.423	2.86
270.637	2.42
270.852	3.1
271.066	3.15
271.281	2.69
271.495	2.87
271.709	2.88
271.924	3.15
272.138	3.25
272.353	3.21
272.567	3.14
272.781	3.43
272.996	3.79
273.21	3.06
273.424	2.92
273.638	3.01
273.853	3.18
274.067	2.92
274.281	3.09
274.495	2.9
274.71	2.66
274.924	2.57
275.138	2.52
275.352	2.34
275.566	2.84
275.781	3.28
275.995	3.39
276.209	3.58
276.423	3.64
276.637	3.41
276.851	3.44
277.065	3.81
277.279	3.41
277.493	3.37
277.707	3.21
277.921	3.24
278.135	2.91
278.349	2.89
278.563	2.71
278.777	2.45
278.991	2.44
279.205	2.44
279.419	2.68
279.633	2.97
279.847	2.87
280.061	3.09
280.275	3.03
280.489	3.37
280.703	3.48
280.917	3.32
281.131	3.53
281.344	3.4
281.558	3.35
281.772	3.49
281.986	3.86
282.2	4.13
282.414	4.04
282.627	4.05
282.841	3.95
283.055	3.92
283.269	3.9
283.482	4.16
283.696	4.33
283.91	4.35
284.123	4.24
284.337	3.85
284.551	3.82
284.764	3.81
284.978	3.49
285.192	3.39
285.405	3.16
285.619	3.34
285.833	3.1
286.046	3.11
286.26	3.27
286.473	3.02
286.687	2.95
286.9	2.92
287.114	2.95
287.327	3.31
287.541	3.01
287.754	3.22
287.968	3.14
288.181	3.05
288.395	2.89
288.608	2.66
288.822	2.78
289.035	2.83
289.248	2.85
289.462	2.8
289.675	3.13
289.889	3.6
290.102	3.67
290.315	3.75
290.529	4.22
290.742	4.03
290.955	4.42
291.169	4.84
291.382	5.09
291.595	5.4
291.808	5.48
292.022	5.31
292.235	5.3
292.448	5.46
292.661	5.52
292.875	5.49
293.088	5.84
293.301	6.01
293.514	5.62
293.727	5.43
293.94	5.15
294.153	5.46
294.367	5.33
294.58	5.14
294.793	4.95
295.006	4.88
295.219	4.91
295.432	4.96
295.645	4.54
295.858	4.59
296.071	4.68
296.284	4.75
296.497	4.62
296.71	4.84
296.923	5.25
297.136	5.32
297.349	5.49
297.562	5.38
297.775	5.49
297.988	5.7
298.201	5.74
298.414	5.81
298.626	5.79
298.839	5.76
299.052	5.61
299.265	5.4
299.478	5.48
299.691	5.35
299.903	5.74
300.116	5.78
300.329	5.82
300.542	6.17
300.755	6.47
300.967	6.61
301.18	6.76
301.393	6.82
301.605	6.57
301.818	6.47
302.031	6.31
302.243	5.87
302.456	5.66
302.669	5.73
302.881	6.13
303.094	5.88
303.307	6
303.519	6.02
303.732	6.04
303.944	6.35
304.157	7.09
304.37	7.21
304.582	7.39
304.795	7.6
305.007	7.41
305.22	6.77
305.432	6.91
305.645	6.9
305.857	7.1
306.069	7.23
306.282	7.39
306.494	6.8
306.707	6.92
306.919	6.98
307.132	7.12
307.344	7.32
307.556	7.71
307.769	7.82
307.981	7.8
308.193	7.61
308.406	7.82
308.618	7.96
308.83	8.36
309.043	8.32
309.255	8.23
309.467	8.33
309.679	8.3
309.892	8.08
310.104	7.91
310.316	7.82
310.528	7.97
310.74	7.86
310.953	7.45
311.165	6.96
311.377	7.12
311.589	7.22
311.801	6.96
312.013	6.83
312.225	6.9
312.437	6.91
312.649	7.37
312.862	7.35
313.074	7.5
313.286	7.65
313.498	7.99
313.71	8.04
313.922	7.91
314.134	8.32
314.346	8.53
314.558	8.55
314.77	8.78
314.982	8.57
315.193	8.41
315.405	7.98
315.617	8.11
315.829	8.29
316.041	8.07
316.253	8.24
316.465	7.93
316.677	7.72
316.888	7.82
317.1	7.85
317.312	7.55
317.524	7.5
317.736	7.85
317.947	7.98
318.159	7.86
318.371	8.08
318.583	8.21
318.794	8.22
319.006	8.44
319.218	8.61
319.43	8.66
319.641	8.67
319.853	9.25
320.064	9.51
320.276	9.54
320.488	9.69
320.699	9.74
320.911	9.91
321.123	10.11
321.334	10.32
321.546	10.33
321.757	10.2
321.969	10.45
322.18	10.11
322.392	9.86
322.603	9.79
322.815	9.98
323.026	10.08
323.238	10.21
323.449	10.44
323.661	10.27
323.872	9.86
324.083	9.88
324.295	10.01
324.506	10.22
324.718	10.04
324.929	10.03
325.14	9.94
325.352	9.81
325.563	9.74
325.774	9.69
325.986	10.04
326.197	10.49
326.408	10.69
326.62	10.62
326.831	10.77
327.042	11.15
327.253	11.26
327.464	11.06
327.676	11.13
327.887	11.07
328.098	10.99
328.309	10.85
328.52	11.12
328.732	11.15
328.943	11.1
329.154	11.14
329.365	11.09
329.576	11.23
329.787	11.61
329.998	11.97
330.209	11.99
330.42	11.99
330.631	12.16
330.842	11.8
331.053	11.97
331.264	12.07
331.475	12.26
331.686	12.38
331.897	12.35
332.108	12.57
332.319	12.44
332.53	12.34
332.741	12.53
332.952	12.2
333.163	11.91
333.374	11.69
333.585	11.84
333.795	11.62
334.006	11.72
334.217	11.55
334.428	11.27
334.639	11.23
334.849	11.3
335.06	11.56
335.271	11.74
335.482	12.2
335.692	11.95
335.903	12.15
336.114	12.09
336.325	12.17
336.535	12.21
336.746	12.2
336.957	12.11
337.167	12.13
337.378	11.68
337.589	11.99
337.799	11.97
338.01	12.23
338.22	11.91
338.431	11.72
338.642	11.58
338.852	11.65
339.063	11.63
339.273	11.78
339.484	11.73
339.694	11.7
339.905	11.47
340.115	11.17
340.326	11.33
340.536	11.4
340.746	11.33
340.957	11.34
341.167	11.54
341.378	11.65
341.588	11.49
341.799	11.71
342.009	12.01
342.219	11.86
342.43	12.14
342.64	12.14
342.85	11.92
343.061	12.06
343.271	12.19
343.481	12.01
343.691	11.81
343.902	11.91
344.112	11.53
344.322	11.45
344.532	11.48
344.743	11.42
344.953	11.24
345.163	11.36
345.373	11.38
345.583	10.87
345.793	11.14
346.004	11.28
346.214	11.11
346.424	11.41
346.634	11.44
346.844	11.71
347.054	11.74
347.264	11.76
347.474	11.73
347.684	11.83
347.894	11.98
348.104	11.92
348.314	11.74
348.524	11.87
348.734	11.87
348.944	11.87
349.154	11.7
349.364	11.54
349.574	11.34
349.784	11.3
349.994	11.06
350.204	11.12
350.413	11.1
350.623	11.36
350.833	10.99
351.043	10.84
351.253	10.5
351.463	10.47
351.672	10.53
351.882	10.62
352.092	10.7
352.302	10.54
352.511	10.49
352.721	10.19
352.931	10.24
353.141	10.3
353.35	10.65
353.56	11.03
353.77	11.07
353.979	10.98
354.189	11.17
354.399	11.17
354.608	11.39
354.818	11.59
355.027	11.72
355.237	11.65
355.447	11.85
355.656	11.49
355.866	11.38
356.075	11.43
356.285	11.6
356.494	11.55
356.704	11.4
356.913	11.22
357.123	11.05
357.332	10.93
357.542	10.7
357.751	10.97
357.96	10.92
358.17	10.76
358.379	10.51
358.589	10.29
358.798	10.45
359.007	10.63
359.217	10.69
359.426	10.62
359.635	10.75
359.845	10.93
360.054	10.56
360.263	10.52
360.472	10.49
360.682	10.7
360.891	10.93
361.1	10.82
361.309	10.73
361.519	10.69
361.728	10.65
361.937	10.66
362.146	10.58
362.355	10.6
362.564	10.72
362.774	10.93
362.983	10.7
363.192	10.55
363.401	10.41
363.61	10.48
363.819	10.71
364.028	10.78
364.237	10.53
364.446	10.44
364.655	10.41
364.864	10.48
365.073	10.11
365.282	10.13
365.491	9.91
365.7	9.71
365.909	9.62
366.118	9.47
366.327	9.58
366.536	9.72
366.745	9.74
366.954	9.8
367.162	9.64
367.371	9.75
367.58	9.79
367.789	10.05
367.998	10.23
368.207	10.35
368.415	10.42
368.624	10.24
368.833	10.4
369.042	10.33
369.25	10.01
369.459	9.91
369.668	9.91
369.877	9.62
370.085	9.52
370.294	9.71
370.503	9.85
370.711	9.54
370.92	9.6
371.129	9.38
371.337	9.42
371.546	9.49
371.754	9.63
371.963	9.51
372.171	9.78
372.38	9.65
372.589	9.41
372.797	9.31
373.006	9.37
373.214	9.32
373.423	8.93
373.631	8.8
373.84	8.93
374.048	8.88
374.256	8.97
374.465	8.92
374.673	8.89
374.882	8.81
375.09	8.32
375.298	8.45
375.507	8.45
375.715	8.61
375.923	8.47
376.132	8.54
376.34	8.34
376.548	8.27
376.757	8.21
376.965	8.31
377.173	8.27
377.381	8.35
377.59	8.25
377.798	8.29
378.006	8.43
378.214	8.66
378.423	8.4
378.631	8.43
378.839	8.48
379.047	8.28
379.255	8.12
379.463	8.11
379.671	8.08
379.879	7.84
380.088	7.68
380.296	7.61
380.504	7.57
380.712	7.79
380.92	7.64
381.128	7.57
381.336	7.6
381.544	7.59
381.752	7.8
381.96	7.85
382.168	8.09
382.376	8.19
382.584	7.95
382.791	7.66
382.999	7.69
383.207	7.91
383.415	7.67
383.623	7.78
383.831	7.82
384.039	7.61
384.247	7.58
384.454	7.43
384.662	7.14
384.87	7.17
385.078	7.18
385.285	6.9
385.493	6.91
385.701	7.06
385.909	6.99
386.116	6.87
386.324	6.8
386.532	6.52
386.739	6.46
386.947	6.42
387.155	6.48
387.362	6.71
387.57	6.66
387.778	6.53
387.985	6.45
388.193	6.46
388.4	6.23
388.608	6.28
388.816	6.29
389.023	6.3
389.231	6.42
389.438	6.42
389.646	6.34
389.853	6.27
390.061	6.21
390.268	6.05
390.475	5.88
390.683	6.15
390.89	5.97
391.098	6.11
391.305	6.2
391.512	6.27
391.72	6.27
391.927	5.99
392.135	6.08
392.342	6.18
392.549	6.38
392.756	6.48
392.964	6.34
393.171	6.38
393.378	6.32
393.586	6.27
393.793	6.21
394	6.16
394.207	6.27
394.414	6.41
394.622	6.2
394.829	6.11
395.036	5.9
395.243	5.96
395.45	5.86
395.657	5.69
395.864	5.55
396.072	5.49
396.279	5.49
396.486	5.47
396.693	5.45
396.9	5.48
397.107	5.51
397.314	5.74
397.521	5.68
397.728	5.64
397.935	5.77
398.142	5.64
398.349	5.64
398.556	5.66
398.763	5.7
398.97	5.56
399.177	5.47
399.383	5.48
399.59	5.12
399.797	5.03
400.004	5.04
400.211	5.14
400.418	5.3
400.625	5.2
400.831	5.14
401.038	5.17
401.245	5.17
401.452	5.07
401.658	4.97
401.865	5.19
402.072	5.23
402.279	5.37
402.485	5.06
402.692	5.01
402.899	4.92
403.105	4.78
403.312	4.66
403.519	4.68
403.725	4.69
403.932	4.62
404.138	4.55
404.345	4.6
404.552	4.59
404.758	4.76
404.965	4.78
405.171	4.83
405.378	4.96
405.584	4.98
405.791	4.77
405.997	4.75
406.204	4.87
406.41	4.78
406.617	4.73
406.823	4.61
407.029	4.62
407.236	4.43
407.442	4.34
407.649	4.29
407.855	4.21
408.061	4.2
408.268	4.2
408.474	4.04
408.68	4
408.887	3.96
409.093	4
409.299	4.14
409.505	4.24
409.712	4.33
409.918	4.23
410.124	4.34
410.33	4.51
410.537	4.56
410.743	4.49
410.949	4.59
411.155	4.52
411.361	4.55
411.567	4.36
411.773	4.43
411.98	4.53
412.186	4.73
412.392	4.6
412.598	4.47
412.804	4.38
413.01	4.48
413.216	4.61
413.422	4.61
413.628	4.46
413.834	4.4
414.04	4.32
414.246	4.24
414.452	4.13
414.658	4.28
414.864	4.35
415.07	4.37
415.275	4.39
415.481	4.34
415.687	4.56
415.893	4.69
416.099	4.77
416.305	4.79
416.511	4.63
416.716	4.54
416.922	4.5
417.128	4.54
417.334	4.67
417.539	4.67
417.745	4.62
417.951	4.41
418.157	4.42
418.362	4.39
418.568	4.32
418.774	4.39
418.979	4.42
419.185	4.38
419.391	4.32
419.596	4.31
419.802	4.27
420.008	4.31
420.213	4.67
420.419	4.61
420.624	4.62
420.83	4.68
421.035	4.7
421.241	4.68
421.446	4.66
421.652	4.64
421.857	4.62
422.063	4.61
422.268	4.57
422.474	4.29
422.679	4.33
422.885	4.33
423.09	4.34
423.295	4.3
423.501	4.26
423.706	4.32
423.911	4.25
424.117	4.27
424.322	4.29
424.527	4.28
424.733	4.24
424.938	4.23
425.143	4.16
425.349	4.14
425.554	4.07
425.759	4.07
425.964	4.07
426.169	4.16
426.375	4.02
426.58	4.04
426.785	4.05
426.99	4.07
427.195	4.03
427.4	4.04
427.605	4.03
427.811	4.21
428.016	4.25
428.221	4.14
428.426	4.12
428.631	4.13
428.836	4.06
429.041	4.02
429.246	4.01
429.451	3.98
429.656	4.05
429.861	3.92
430.066	3.91
430.271	3.88
430.476	3.85
430.681	3.92
430.886	4
431.09	4.05
431.295	4.07
431.5	4.05
431.705	4.07
431.91	3.98
432.115	4.03
432.32	4.03
432.524	4.05
432.729	4.04
432.934	4.07
433.139	4.16
433.343	4.12
433.548	4.07
433.753	4.07
433.958	4.08
434.162	4.17
434.367	4.15
434.572	4.07
434.776	4.09
434.981	4.08
435.186	3.94
435.39	3.86
435.595	3.83
435.799	3.85
436.004	3.81
436.209	3.76
436.413	3.82
436.618	3.86
436.822	3.81
437.027	3.85
437.231	3.86
437.436	3.88
437.64	3.96
437.845	4
438.049	4.02
438.253	4.08
438.458	4.19
438.662	4.05
438.867	4.05
439.071	4.08
439.275	4.01
439.48	4.08
439.684	4.13
439.888	4.02
440.093	4.01
440.297	4.03
440.501	4.01
440.706	3.87
440.91	3.9
441.114	3.9
441.318	3.93
441.523	3.99
441.727	3.87
441.931	3.83
442.135	3.86
442.339	3.86
442.543	3.87
442.748	3.93
442.952	3.98
443.156	3.95
443.36	3.95
443.564	3.97
443.768	3.86
443.972	3.91
444.176	3.92
444.38	3.9
444.584	3.9
444.788	3.88
444.992	3.83
445.196	3.79
445.4	3.81
445.604	3.87
445.808	3.86
446.012	3.92
446.216	4.02
446.42	4
446.624	3.95
446.828	3.93
447.032	3.91
447.235	3.92
447.439	3.98
447.643	3.98
447.847	3.9
448.051	3.89
448.254	3.82
448.458	3.75
448.662	3.77
448.866	3.8
449.069	3.79
449.273	3.73
449.477	3.72
449.681	3.69
449.884	3.67
450.088	3.64
450.292	3.67
450.495	3.64
450.699	3.61
450.902	3.63
451.106	3.7
451.31	3.66
451.513	3.73
451.717	3.73
451.92	3.74
452.124	3.74
452.327	3.73
452.531	3.69
452.734	3.65
452.938	3.65
453.141	3.68
453.345	3.6
453.548	3.6
453.752	3.5
453.955	3.44
454.158	3.46
454.362	3.48
454.565	3.5
454.769	3.56
454.972	3.55
455.175	3.6
455.379	3.58
455.582	3.53
455.785	3.59
455.988	3.69
456.192	3.74
456.395	3.7
456.598	3.64
456.801	3.6
457.005	3.61
457.208	3.67
457.411	3.67
457.614	3.58
457.817	3.59
458.021	3.66
458.224	3.6
458.427	3.52
458.63	3.61
458.833	3.67
459.036	3.64
459.239	3.62
459.442	3.66
459.645	3.63
459.848	3.66
460.051	3.67
460.254	3.66
460.457	3.7
460.66	3.75
460.863	3.67
461.066	3.57
461.269	3.62
461.472	3.59
461.675	3.54
461.878	3.57
462.081	3.56
462.284	3.6
462.486	3.53
462.689	3.62
462.892	3.7
463.095	3.67
463.298	3.72
463.5	3.73
463.703	3.65
463.906	3.66
464.109	3.58
464.311	3.59
464.514	3.62
464.717	3.54
464.92	3.45
465.122	3.34
465.325	3.53
465.528	3.58
465.73	3.56
465.933	3.65
466.135	3.72
466.338	3.81
466.541	3.75
466.743	3.68
466.946	3.76
467.148	3.73
467.351	3.76
467.553	3.64
467.756	3.66
467.958	3.65
468.161	3.58
468.363	3.53
468.566	3.41
468.768	3.41
468.971	3.52
469.173	3.53
469.375	3.64
469.578	3.62
469.78	3.61
469.983	3.48
470.185	3.53
470.387	3.52
470.59	3.55
470.792	3.53
470.994	3.53
471.196	3.51
471.399	3.5
471.601	3.37
471.803	3.38
472.005	3.41
472.208	3.51
472.41	3.5
472.612	3.61
472.814	3.6
473.016	3.6
473.218	3.59
473.421	3.45
473.623	3.5
473.825	3.55
474.027	3.57
474.229	3.54
474.431	3.52
474.633	3.6
474.835	3.61
475.037	3.61
475.239	3.8
475.441	3.84
475.643	3.81
475.845	3.68
476.047	3.73
476.249	3.69
476.451	3.73
476.653	3.79
476.855	3.66
477.057	3.66
477.258	3.62
477.46	3.45
477.662	3.55
477.864	3.64
478.066	3.81
478.268	3.85
478.469	3.92
478.671	3.94
478.873	3.94
479.075	3.96
479.276	3.89
479.478	3.96
479.68	4
479.882	3.91
480.083	3.92
480.285	3.89
480.487	3.89
480.688	3.89
480.89	3.87
481.091	3.81
481.293	3.87
481.495	3.94
481.696	3.9
481.898	3.9
482.099	3.91
482.301	3.91
482.502	3.86
482.704	3.81
482.905	3.79
483.107	3.77
483.308	3.79
483.51	3.78
483.711	3.75
483.913	3.74
484.114	3.74
484.315	3.75
484.517	3.72
484.718	3.73
484.92	3.74
485.121	3.76
485.322	3.77
485.524	3.77
485.725	3.79
485.926	3.78
486.127	3.82
486.329	3.82
486.53	3.78
486.731	3.81
486.932	3.81
487.134	3.8
487.335	3.81
487.536	3.82
487.737	3.82
487.938	3.8
488.139	3.83
488.341	3.81
488.542	3.82
488.743	3.88
488.944	3.91
489.145	3.88
489.346	3.85
489.547	3.85
489.748	3.86
489.949	3.85
490.15	3.85
490.351	3.88
490.552	3.88
490.753	3.89
490.954	3.86
491.155	3.84
491.356	3.88
491.557	3.92
491.758	3.9
491.959	3.88
492.159	3.89
492.36	3.9
492.561	3.87
492.762	3.89
492.963	3.89
493.164	3.94
493.364	3.96
493.565	3.95
493.766	4.01
493.967	4.05
494.167	4.1
494.368	4.13
494.569	4.18
494.769	4.29
494.97	4.26
495.171	4.22
495.371	4.22
495.572	4.23
495.773	4.28
495.973	4.26
496.174	4.18
496.375	4.16
496.575	4.13
496.776	4.13
496.976	4.1
497.177	4.15
497.377	4.19
497.578	4.15
497.778	4.17
497.979	4.13
498.179	4.13
498.38	4.26
498.58	4.23
498.78	4.2
498.981	4.16
499.181	4.13
499.382	4.14
499.582	4.17
499.782	4.17
499.983	4.16
500.183	4.11
500.383	4.21
500.584	4.15
500.784	4.26
500.984	4.4
501.184	4.38
501.385	4.38
501.585	4.45
501.785	4.42
501.985	4.49
502.185	4.48
502.386	4.56
502.586	4.51
502.786	4.51
502.986	4.58
503.186	4.6
503.386	4.74
503.586	4.79
503.786	4.83
503.987	4.9
504.187	4.91
504.387	4.93
504.587	4.97
504.787	4.99
504.987	4.97
505.187	4.96
505.387	4.9
505.587	4.88
505.786	4.93
505.986	4.89
506.186	4.92
506.386	4.98
506.586	5.01
506.786	5.03
506.986	5.11
507.186	5.13
507.386	5.1
507.585	5.22
507.785	5.26
507.985	5.26
508.185	5.32
508.384	5.36
508.584	5.4
508.784	5.45
508.984	5.53
509.183	5.52
509.383	5.59
509.583	5.64
509.782	5.64
509.982	5.66
510.182	5.68
510.381	5.69
510.581	5.74
510.781	5.73
510.98	5.79
511.18	5.81
511.379	5.83
511.579	5.9
511.778	5.94
511.978	5.98
512.177	6.04
512.377	6.13
512.576	6.19
512.776	6.18
512.975	6.34
513.175	6.37
513.374	6.41
513.573	6.55
513.773	6.66
513.972	6.78
514.172	6.84
514.371	6.91
514.57	6.99
514.77	7.07
514.969	7.13
515.168	7.06
515.367	7.17
515.567	7.25
515.766	7.28
515.965	7.24
516.164	7.32
516.364	7.5
516.563	7.58
516.762	7.69
516.961	7.69
517.16	7.75
517.359	7.89
517.559	7.89
517.758	7.93
517.957	7.94
518.156	8.01
518.355	8.01
518.554	7.99
518.753	8.09
518.952	8.09
519.151	8.12
519.35	8.22
519.549	8.19
519.748	8.28
519.947	8.34
520.146	8.45
520.345	8.56
520.544	8.63
520.743	8.67
520.942	8.71
521.141	8.74
521.339	8.8
521.538	8.89
521.737	8.99
521.936	9.1
522.135	9.2
522.333	9.24
522.532	9.22
522.731	9.37
522.93	9.49
523.129	9.52
523.327	9.65
523.526	9.8
523.725	9.84
523.923	9.97
524.122	10.01
524.321	10.07
524.519	10.16
524.718	10.24
524.917	10.29
525.115	10.38
525.314	10.45
525.512	10.56
525.711	10.59
525.909	10.69
526.108	10.76
526.306	10.89
526.505	10.96
526.703	11.07
526.902	11.15
527.1	11.17
527.299	11.22
527.497	11.31
527.696	11.28
527.894	11.36
528.092	11.39
528.291	11.42
528.489	11.4
528.688	11.43
528.886	11.48
529.084	11.54
529.283	11.61
529.481	11.62
529.679	11.63
529.877	11.74
530.076	11.77
530.274	11.83
530.472	11.88
530.67	11.91
530.869	11.99
531.067	12
531.265	12.08
531.463	12.14
531.661	12.23
531.859	12.35
532.057	12.41
532.255	12.48
532.454	12.51
532.652	12.61
532.85	12.74
533.048	12.81
533.246	12.86
533.444	12.92
533.642	12.93
533.84	13
534.038	13.03
534.236	13.07
534.434	13.09
534.632	13.17
534.83	13.21
535.027	13.27
535.225	13.25
535.423	13.3
535.621	13.36
535.819	13.46
536.017	13.55
536.215	13.59
536.412	13.66
536.61	13.75
536.808	13.79
537.006	13.85
537.203	13.91
537.401	14.02
537.599	14.07
537.797	14.1
537.994	14.14
538.192	14.13
538.39	14.19
538.587	14.21
538.785	14.26
538.983	14.38
539.18	14.46
539.378	14.52
539.575	14.63
539.773	14.72
539.97	14.77
540.168	14.81
540.366	14.86
540.563	14.92
540.761	14.97
540.958	15.02
541.155	15.04
541.353	15.06
541.55	15.09
541.748	15.1
541.945	15.15
542.143	15.17
542.34	15.2
542.537	15.23
542.735	15.26
542.932	15.31
543.129	15.39
543.327	15.49
543.524	15.57
543.721	15.67
543.919	15.75
544.116	15.84
544.313	15.98
544.51	16.14
544.708	16.26
544.905	16.4
545.102	16.54
545.299	16.59
545.496	16.65
545.693	16.78
545.891	16.79
546.088	16.79
546.285	16.72
546.482	16.68
546.679	16.7
546.876	16.64
547.073	16.63
547.27	16.61
547.467	16.58
547.664	16.52
547.861	16.4
548.058	16.36
548.255	16.47
548.452	16.55
548.649	16.62
548.846	16.54
549.043	16.57
549.24	16.57
549.437	16.5
549.633	16.5
549.83	16.5
550.027	16.55
550.224	16.58
550.421	16.45
550.618	16.38
550.814	16.29
551.011	16.37
551.208	16.42
551.405	16.43
551.601	16.47
551.798	16.53
551.995	16.53
552.191	16.52
552.388	16.5
552.585	16.57
552.781	16.53
552.978	16.51
553.175	16.48
553.371	16.48
553.568	16.39
553.764	16.37
553.961	16.36
554.157	16.43
554.354	16.36
554.55	16.46
554.747	16.52
554.943	16.68
555.14	16.75
555.336	16.68
555.533	16.69
555.729	16.79
555.926	16.8
556.122	16.9
556.318	16.8
556.515	16.93
556.711	16.95
556.907	16.87
557.104	16.86
557.3	16.79
557.496	16.94
557.693	16.96
557.889	16.93
558.085	16.97
558.281	16.91
558.478	17.02
558.674	16.96
558.87	16.99
559.066	16.98
559.262	17.02
559.459	17.13
559.655	17.1
559.851	17.18
560.047	17.3
560.243	17.36
560.439	17.38
560.635	17.46
560.831	17.42
561.027	17.4
561.223	17.49
561.419	17.39
561.615	17.44
561.811	17.44
562.007	17.47
562.203	17.42
562.399	17.44
562.595	17.46
562.791	17.39
562.987	17.46
563.183	17.55
563.379	17.55
563.575	17.57
563.771	17.53
563.966	17.65
564.162	17.72
564.358	17.72
564.554	17.81
564.75	17.79
564.945	17.77
565.141	17.73
565.337	17.61
565.533	17.61
565.728	17.64
565.924	17.72
566.12	17.68
566.315	17.56
566.511	17.59
566.707	17.43
566.902	17.48
567.098	17.47
567.293	17.5
567.489	17.59
567.684	17.58
567.88	17.64
568.076	17.63
568.271	17.58
568.467	17.6
568.662	17.58
568.858	17.65
569.053	17.66
569.248	17.7
569.444	17.78
569.639	17.77
569.835	17.84
570.03	17.77
570.225	17.81
570.421	17.82
570.616	17.81
570.812	17.81
571.007	17.79
571.202	17.78
571.397	17.78
571.593	17.71
571.788	17.68
571.983	17.6
572.178	17.74
572.374	17.71
572.569	17.62
572.764	17.69
572.959	17.76
573.154	17.81
573.35	17.73
573.545	17.78
573.74	17.77
573.935	17.84
574.13	17.89
574.325	17.87
574.52	17.9
574.715	18.09
574.91	18.09
575.105	18.13
575.3	18.07
575.495	18.15
575.69	18.08
575.885	18.2
576.08	18.16
576.275	18.22
576.47	18.24
576.665	18.2
576.86	18.13
577.055	18.23
577.25	18.15
577.444	18.35
577.639	18.45
577.834	18.73
578.029	18.74
578.224	18.7
578.418	18.73
578.613	18.71
578.808	18.75
579.003	18.83
579.197	18.79
579.392	18.81
579.587	18.74
579.781	18.81
579.976	18.53
580.171	18.55
580.365	18.59
580.56	18.54
580.755	18.45
580.949	18.57
581.144	18.56
581.338	18.65
581.533	18.7
581.727	18.79
581.922	18.67
582.116	18.89
582.311	18.78
582.505	18.97
582.7	19.05
582.894	19.21
583.089	19.12
583.283	19.04
583.478	19.04
583.672	18.99
583.866	18.84
584.061	18.89
584.255	18.88
584.449	18.95
584.644	18.87
584.838	18.84
585.032	18.76
585.226	18.71
585.421	18.88
585.615	18.9
585.809	19.01
586.003	19.21
586.198	19.18
586.392	19.17
586.586	19.3
586.78	19.27
586.974	19.24
587.168	19.44
587.363	19.51
587.557	19.5
587.751	19.44
587.945	19.36
588.139	19.41
588.333	19.53
588.527	19.43
588.721	19.41
588.915	19.42
589.109	19.46
589.303	19.39
589.497	19.49
589.691	19.47
589.885	19.55
590.079	19.56
590.273	19.51
590.466	19.39
590.66	19.38
590.854	19.39
591.048	19.45
591.242	19.5
591.436	19.38
591.629	19.47
591.823	19.51
592.017	19.59
592.211	19.69
592.404	19.35
592.598	19.44
592.792	19.62
592.986	19.69
593.179	19.66
593.373	19.68
593.567	19.66
593.76	19.5
593.954	19.58
594.147	19.5
594.341	19.45
594.535	19.71
594.728	19.69
594.922	19.57
595.115	19.5
595.309	19.61
595.502	19.63
595.696	19.74
595.889	19.76
596.083	19.71
596.276	19.7
596.47	19.83
596.663	19.77
596.856	19.89
597.05	19.97
597.243	19.99
597.437	19.98
597.63	19.99
597.823	20.02
598.017	20.01
598.21	20.03
598.403	19.96
598.596	19.88
598.79	20.01
598.983	19.88
599.176	19.97
599.369	19.96
599.563	19.85
599.756	19.83
599.949	19.85
600.142	19.82
600.335	19.69
600.528	19.77
600.722	19.73
600.915	19.78
601.108	19.77
601.301	19.65
601.494	19.66
601.687	19.71
601.88	19.64
602.073	19.59
602.266	19.77
602.459	19.86
602.652	19.93
602.845	19.97
603.038	19.82
603.231	19.95
603.424	19.96
603.617	20
603.809	20.1
604.002	20.19
604.195	20.21
604.388	20.1
604.581	20.2
604.774	20.06
604.966	20.02
605.159	20.04
605.352	19.95
605.545	20.13
605.737	20
605.93	19.97
606.123	20.04
606.316	20.03
606.508	20.14
606.701	20.12
606.894	20.24
607.086	20.29
607.279	20.3
607.471	20.44
607.664	20.36
607.857	20.65
608.049	20.8
608.242	20.92
608.434	21.23
608.627	21.56
608.819	21.77
609.012	22.15
609.204	22.63
609.397	23.34
609.589	23.93
609.782	24.56
609.974	25.17
610.166	25.73
610.359	26.4
610.551	27.01
610.743	27.53
610.936	28.11
611.128	28.56
611.32	28.84
611.513	28.81
611.705	28.75
611.897	28.63
612.09	28.4
612.282	28.19
612.474	27.85
612.666	27.54
612.858	27.15
613.051	26.73
613.243	26.16
613.435	25.95
613.627	25.76
613.819	25.6
614.011	25.33
614.203	25.12
614.395	24.99
614.588	24.78
614.78	24.48
614.972	24.35
615.164	24.19
615.356	24.21
615.548	23.73
615.74	23.52
615.932	23.35
616.124	23.22
616.315	22.96
616.507	22.66
616.699	22.38
616.891	22.17
617.083	21.74
617.275	21.54
617.467	21.42
617.659	21.34
617.85	21.11
618.042	20.98
618.234	20.67
618.426	20.74
618.618	20.64
618.809	20.61
619.001	20.44
619.193	20.59
619.384	20.5
619.576	20.46
619.768	20.63
619.959	20.7
620.151	20.72
620.343	20.94
620.534	20.94
620.726	20.95
620.917	20.81
621.109	20.96
621.301	20.99
621.492	21.17
621.684	21.22
621.875	21.36
622.067	21.38
622.258	21.36
622.45	21.38
622.641	21.54
622.832	21.65
623.024	21.84
623.215	21.95
623.407	21.89
623.598	21.93
623.789	21.98
623.981	22.01
624.172	22.07
624.363	21.98
624.555	21.93
624.746	21.69
624.937	21.47
625.129	21.46
625.32	21.36
625.511	21.36
625.702	21.26
625.893	21.33
626.085	21.3
626.276	21.39
626.467	21.49
626.658	21.4
626.849	21.36
627.04	21.45
627.231	21.48
627.422	21.6
627.614	21.54
627.805	21.6
627.996	21.49
628.187	21.53
628.378	21.44
628.569	21.38
628.76	21.52
628.951	21.6
629.142	21.68
629.332	21.71
629.523	21.79
629.714	21.9
629.905	22
630.096	22.02
630.287	21.9
630.478	21.91
630.669	21.9
630.859	21.87
631.05	21.81
631.241	21.87
631.432	21.63
631.623	21.55
631.813	21.58
632.004	21.37
632.195	21.23
632.385	21.05
632.576	20.94
632.767	21.02
632.957	20.82
633.148	20.78
633.339	20.73
633.529	20.75
633.72	20.6
633.91	20.48
634.101	20.45
634.292	20.46
634.482	20.45
634.673	20.54
634.863	20.21
635.054	20.26
635.244	20.52
635.435	20.51
635.625	20.56
635.815	20.46
636.006	20.57
636.196	20.63
636.387	20.76
636.577	21
636.767	20.89
636.958	21.12
637.148	21.29
637.338	21.22
637.529	21.17
637.719	21.1
637.909	21.14
638.099	21.16
638.29	21
638.48	20.73
638.67	20.61
638.86	20.7
639.05	20.73
639.241	20.62
639.431	20.49
639.621	20.55
639.811	20.83
640.001	20.87
640.191	20.72
640.381	20.98
640.571	21.1
640.761	21.24
640.951	21.28
641.141	21.06
641.331	21.16
641.521	21.21
641.711	21.41
641.901	21.33
642.091	21.34
642.281	21.35
642.471	21.23
642.661	21.34
642.851	21.47
643.041	21.44
643.231	21.69
643.42	21.51
643.61	21.54
643.8	21.36
643.99	21.16
644.18	21.17
644.369	21.18
644.559	21.15
644.749	21.09
644.939	20.77
645.128	20.7
645.318	20.62
645.508	20.84
645.697	20.75
645.887	20.76
646.076	20.88
646.266	20.97
646.456	21.25
646.645	21.21
646.835	21.11
647.024	21.24
647.214	21.18
647.403	21.14
647.593	21.18
647.782	21.31
647.972	21.3
648.161	21.33
648.351	21.42
648.54	21.04
648.73	21.2
648.919	21.5
649.108	21.57
649.298	21.79
649.487	21.78
649.677	21.62
649.866	21.47
650.055	21.43
650.244	21.48
650.434	21.43
650.623	21.58
650.812	21.66
651.002	21.35
651.191	21.53
651.38	21.52
651.569	21.76
651.758	21.82
651.947	22.02
652.137	22.15
652.326	22.08
652.515	21.93
652.704	21.89
652.893	21.94
653.082	22.1
653.271	21.72
653.46	21.51
653.649	21.44
653.838	21.48
654.027	21.36
654.216	21.31
654.405	21.26
654.594	21.29
654.783	21.23
654.972	21.26
655.161	21.53
655.35	21.83
655.539	21.98
655.728	21.89
655.916	21.74
656.105	21.8
656.294	21.71
656.483	21.62
656.672	21.73
656.86	21.76
657.049	21.54
657.238	21.56
657.427	21.24
657.615	21.16
657.804	21.3
657.993	21.45
658.181	21.31
658.37	21.24
658.559	21.4
658.747	21.32
658.936	21.5
659.125	21.62
659.313	21.48
659.502	21.49
659.69	21.53
659.879	21.53
660.067	21.46
660.256	21.33
660.444	21.46
660.633	21.4
660.821	21.38
661.01	21.32
661.198	21.29
661.387	21.28
661.575	21.49
661.763	21.53
661.952	21.47
662.14	21.42
662.328	21.7
662.517	21.65
662.705	21.62
662.893	21.59
663.082	21.66
663.27	21.33
663.458	21.33
663.646	21.31
663.834	21.25
664.023	21.07
664.211	21.11
664.399	20.94
664.587	20.98
664.775	21.15
664.963	21.39
665.152	21.24
665.34	21.56
665.528	21.78
665.716	21.69
665.904	21.72
666.092	21.84
666.28	21.95
666.468	22.05
666.656	22.02
666.844	21.97
667.032	21.69
667.22	21.86
667.408	21.84
667.596	21.41
667.784	21.16
667.971	21.28
668.159	21.18
668.347	21.05
668.535	21.08
668.723	21.24
668.911	21.18
669.098	21.19
669.286	20.82
669.474	20.89
669.662	20.91
669.849	21.1
670.037	21.01
670.225	21.18
670.413	21.16
670.6	21.09
670.788	20.81
670.976	20.89
671.163	21.22
671.351	21.03
671.538	20.92
671.726	21.01
671.913	20.96
672.101	20.91
672.289	20.9
672.476	20.99
672.664	21.26
672.851	21.65
673.039	21.78
673.226	21.61
673.413	21.92
673.601	21.96
673.788	21.8
673.976	21.83
674.163	21.99
674.35	21.91
674.538	21.94
674.725	21.76
674.912	21.52
675.1	21.34
675.287	21.4
675.474	21.85
675.662	21.75
675.849	22.05
676.036	22.5
676.223	22.3
676.411	22.47
676.598	22.54
676.785	22.65
676.972	22.73
677.159	22.81
677.346	22.67
677.533	22.42
677.721	22.24
677.908	22.19
678.095	21.94
678.282	22.19
678.469	22.07
678.656	21.93
678.843	21.85
679.03	21.73
679.217	21.86
679.404	21.83
679.591	21.83
679.778	22.02
679.964	21.96
680.151	22.04
680.338	22
680.525	21.96
680.712	22.03
680.899	22.08
681.086	22.3
681.272	22.07
681.459	22.15
681.646	22.17
681.833	22.26
682.02	22.26
682.206	22.09
682.393	21.97
682.58	22.1
682.766	22.03
682.953	21.85
683.14	21.77
683.326	21.83
683.513	21.88
683.7	21.79
683.886	21.99
684.073	22.05
684.259	22.05
684.446	22.1
684.632	22.03
684.819	22.23
685.005	22.41
685.192	22.31
685.378	22.46
685.565	22.42
685.751	22.5
685.938	22.13
686.124	22.57
686.31	22.42
686.497	22.42
686.683	22.48
686.87	22.25
687.056	22.3
687.242	22.42
687.429	22.26
687.615	22.66
687.801	22.69
687.987	22.94
688.174	22.62
688.36	23.03
688.546	22.98
688.732	22.93
688.918	23.16
689.105	23.15
689.291	23.1
689.477	23.39
689.663	23.03
689.849	22.9
690.035	22.86
690.221	22.89
690.407	22.33
690.593	22.38
690.779	22.38
690.965	21.98
691.151	21.89
691.337	21.71
691.523	21.57
691.709	21.8
691.895	22.05
692.081	22.03
692.267	21.79
692.453	22.12
692.639	22.21
692.825	22.21
693.011	22.65
693.196	22.96
693.382	23.24
693.568	23.46
693.754	23.27
693.94	23.28
694.125	23.14
694.311	23.14
694.497	23.12
694.682	23
694.868	23.17
695.054	22.98
695.239	22.49
695.425	22.44
695.611	22.3
695.796	22.23
695.982	22.02
696.168	22.28
696.353	22.03
696.539	22.11
696.724	22.12
696.91	22
697.095	21.9
697.281	21.97
697.466	21.86
697.652	21.72
697.837	21.77
698.023	21.7
698.208	21.73
698.393	22.08
698.579	22.2
698.764	22.02
698.949	22
699.135	22.09
699.32	22.26
699.505	22.35
699.691	22.45
699.876	22.55
700.061	22.62
700.246	22.51
700.432	22.65
700.617	22.48
700.802	22.73
700.987	22.81
701.172	22.61
701.358	22.55
701.543	22.54
701.728	22.44
701.913	22.07
702.098	22.09
702.283	22.16
702.468	21.83
702.653	21.64
702.838	21.72
703.023	21.82
703.208	22.01
703.393	21.84
703.578	22.23
703.763	22.27
703.948	22.75
704.133	22.88
704.318	22.77
704.503	22.9
704.688	23.16
704.873	23.13
705.057	23.08
705.242	23.56
705.427	24.22
705.612	24.12
705.797	25.04
705.981	24.81
706.166	25.06
706.351	25.27
706.536	25.48
706.72	25.64
706.905	26.02
707.09	25.67
707.274	25.83
707.459	25.77
707.644	26.04
707.828	25.45
708.013	25.62
708.197	25.54
708.382	25.54
708.567	25.51
708.751	25.46
708.936	25.43
709.12	25.82
709.305	25.12
709.489	25.08
709.673	24.43
709.858	24.28
710.042	24.2
710.227	24.18
710.411	24.19
710.596	24.15
710.78	24.24
710.964	23.9
711.149	23.89
711.333	24.53
711.517	24.43
711.702	24.71
711.886	24.55
712.07	24.83
712.254	24.78
712.438	24.74
712.623	24.35
712.807	24.06
712.991	24.16
713.175	24.21
713.359	23.81
713.544	23.42
713.728	23.23
713.912	23.22
714.096	23.07
714.28	22.83
714.464	22.4
714.648	22.57
714.832	22.46
715.016	22.4
715.2	22.38
715.384	22.73
715.568	22.91
715.752	22.84
715.936	23
716.12	22.85
716.304	22.89
716.488	23.04
716.671	23.17
716.855	23.24
717.039	23.13
717.223	23.08
717.407	22.7
717.59	22.64
717.774	22.72
717.958	22.49
718.142	22.19
718.325	22.28
718.509	22.33
718.693	22.17
718.877	22.23
719.06	22.14
719.244	22.03
719.428	21.89
719.611	21.72
719.795	21.94
719.978	22.11
720.162	22.34
720.345	22.71
720.529	22.89
720.713	23.06
720.896	22.92
721.08	23.3
721.263	23.37
721.446	23.88
721.63	23.86
721.813	23.76
721.997	23.63
722.18	23.21
722.364	22.71
722.547	22.54
722.73	22.31
722.914	22.44
723.097	22.49
723.28	22.53
723.464	22.04
723.647	22.39
723.83	22.21
724.013	21.97
724.197	22.87
724.38	23.17
724.563	23.08
724.746	23.26
724.929	23.51
725.112	23.28
725.296	23.33
725.479	23.3
725.662	23.24
725.845	23.38
726.028	23.42
726.211	23.35
726.394	23.1
726.577	23.08
726.76	23.06
726.943	22.4
727.126	22.39
727.309	22.12
727.492	22.29
727.675	22.33
727.858	22.28
728.041	22.56
728.224	22.53
728.407	22.6
728.589	23.04
728.772	22.88
728.955	22.92
729.138	22.95
729.321	22.63
729.503	22.79
729.686	22.82
729.869	23
730.052	22.82
730.234	22.27
730.417	22.41
730.6	21.88
730.782	22.42
730.965	22.72
731.148	22.82
731.33	23.02
731.513	22.81
731.695	22.51
731.878	22.45
732.061	22.71
732.243	23.01
732.426	22.71
732.608	23.44
732.791	23.24
732.973	23.45
733.156	23.56
733.338	23.65
733.52	24.11
733.703	24.15
733.885	24.04
734.068	23.78
734.25	23.75
734.432	24.04
734.615	23.53
734.797	23.59
734.979	23.89
735.162	23.68
735.344	24.08
735.526	23.51
735.708	23.65
735.891	23.92
736.073	23.81
736.255	24.05
736.437	23.52
736.619	23.53
736.802	23.13
736.984	22.92
737.166	22.76
737.348	22.79
737.53	23.17
737.712	23.11
737.894	22.93
738.076	23.66
738.258	23.68
738.44	23.86
738.622	24.17
738.804	24.84
738.986	24.69
739.168	25.17
739.35	25.16
739.532	24.92
739.714	24.97
739.896	24.74
740.078	24.49
740.259	24.19
740.441	23.95
740.623	23.66
740.805	23.3
740.987	23.5
741.168	22.8
741.35	22.92
741.532	22.84
741.714	22.91
741.895	23.11
742.077	23.06
742.259	23.18
742.44	23.69
742.622	23.63
742.804	23.54
742.985	23.7
743.167	24.18
743.348	24.08
743.53	23.96
743.711	23.96
743.893	23.54
744.075	23.27
744.256	23.26
744.438	23.37
744.619	23.37
744.8	23.32
744.982	23.17
745.163	22.46
745.345	21.95
745.526	22.2
745.707	22.4
745.889	22.55
746.07	22.71
746.252	22.82
746.433	23.29
746.614	23.6
746.795	23.81
746.977	23.57
747.158	24.1
747.339	24.58
747.52	24.59
747.702	24.81
747.883	25.04
748.064	25.63
748.245	25.85
748.426	25.05
748.607	24.85
748.788	24.39
748.97	24.42
749.151	24.38
749.332	24.85
749.513	25.63
749.694	25.21
749.875	25.7
750.056	25.2
750.237	24.87
750.418	25.35
750.599	25.51
750.78	25.64
750.96	25.84
751.141	25.6
751.322	25.19
751.503	24.64
751.684	24.53
751.865	24.19
752.046	24.29
752.226	24.37
752.407	24.09
752.588	23.62
752.769	23.35
752.949	22.29
753.13	22.62
753.311	22.53
753.492	22.06
753.672	22.76
753.853	23.26
754.034	23.69
754.214	24.08
754.395	23.76
754.575	24.01
754.756	24.75
754.937	25.61
755.117	25.75
755.298	26.11
755.478	26.55
755.659	25.69
755.839	24.9
756.02	24.26
756.2	23.5
756.381	24.36
756.561	24.41
756.741	24.34
756.922	24.1
757.102	23.27
757.283	22.89
757.463	23.25
757.643	23.55
757.823	23.21
758.004	23.14
758.184	23.08
758.364	22.42
758.545	22.31
758.725	21.63
758.905	22.43
759.085	23.09
759.265	22.51
759.446	22.04
759.626	22.29
759.806	22.7
759.986	22.49
760.166	22.71
760.346	23.12
760.526	23.4
760.706	24.11
760.886	23.69
761.066	23.68
761.246	24.07
761.426	24.64
761.606	23.82
761.786	23.72
761.966	24.04
762.146	24.09
762.326	24
762.506	24.43
762.686	24.14
762.866	24.14
763.046	24.09
763.225	24.18
763.405	23.73
763.585	23.76
763.765	24.22
763.945	23.99
764.124	23.91
764.304	23.98
764.484	23.56
764.664	23.47
764.843	23.54
765.023	23.78
765.203	23.75
765.382	23.5
765.562	24.04
765.741	23.37
765.921	23.77
766.101	23.79
766.28	23.47
766.46	23.3
766.639	23.42
766.819	23.08
766.998	22.9
767.178	23.55
767.357	23.79
767.537	24.08
767.716	24.74
767.896	24.21
768.075	24.29
768.254	24.61
768.434	24.77
768.613	24.68
768.792	24.93
768.972	24.65
769.151	24.04
769.33	24.03
769.51	23.81
769.689	23.17
769.868	24.41
770.047	25.04
770.226	25.39
770.406	25.7
770.585	25.33
770.764	25.54
770.943	25.65
771.122	24.95
771.301	25.29
771.48	26.26
771.66	26.89
771.839	26.45
772.018	26.88
772.197	27.21
772.376	26.71
772.555	27.56
772.734	27.17
772.913	27.45
773.092	27.69
773.271	28.01
773.449	26.52
773.628	27.2
773.807	26.75
773.986	26.08
774.165	25.63
774.344	26.14
774.523	26.14
774.701	26.1
774.88	25.64
775.059	25.79
775.238	25.45
775.417	25.56
775.595	24.58
775.774	24.3
775.953	24.59
776.131	24.21
776.31	24.05
776.489	23.33
776.667	24
776.846	25.03
777.025	25.01
777.203	24.81
777.382	25.8
777.56	26.15
777.739	26.62
777.917	25.94
778.096	26.69
778.274	26.62
778.453	27.56
778.631	27.36
778.81	26.42
778.988	27.42
779.166	27.17
779.345	26.9
779.523	26.57
779.702	27.07
779.88	27.2
780.058	26.64
780.237	26.64
780.415	26.75
780.593	26.61
780.771	27.16
780.95	26.47
781.128	27.07
781.306	26.44
781.484	26.69
781.662	26.14
781.841	25.7
782.019	25.17
782.197	25.22
782.375	24.68
782.553	26.15
782.731	25.71
782.909	26.7
783.087	26.63
783.265	26.34
783.443	26.13
783.621	26.43
783.799	26.53
783.977	26.76
784.155	26.75
784.333	26.19
784.511	25.51
784.689	25.16
784.867	24.34
785.045	24.53
785.223	25.54
785.4	25.98
785.578	25.74
785.756	24.86
785.934	24.97
786.112	24.86
786.289	25.12
786.467	24.53
786.645	24.98
786.823	23.27
787	23.87
787.178	23.66
787.356	23.58
787.533	23.96
787.711	25.27
787.889	25.83
788.066	26.32
788.244	25.97
788.421	24.57
788.599	24.47
788.776	25.93
788.954	25.2
789.131	25.51
789.309	26.07
789.486	25.62
789.664	26.23
789.841	25.34
790.019	25.6
790.196	26.13
790.373	27.24
790.551	27.37
790.728	27.49
790.906	27.59
791.083	27.08
791.26	26.29
791.437	26.2
791.615	25.08
791.792	25.52
791.969	24.77
792.146	24.28
792.324	24.64
792.501	24.52
792.678	23.9
792.855	23.93
793.032	23.71
793.209	23.69
793.387	24.53
793.564	24.63
793.741	24.87
793.918	24.83
794.095	24.53
794.272	24.82
794.449	24.88
794.626	24.68
794.803	24.74
794.98	24.46
795.157	23.77
795.334	23.56
795.511	23.48
795.688	22.69
795.864	22.22
796.041	23.5
796.218	21.91
796.395	22.1
796.572	22.7
796.749	22.18
796.925	22.64
797.102	22.88
797.279	22.52
797.456	23.1
797.632	24.75
797.809	25.31
797.986	24.07
798.162	25.33
798.339	26.01
798.516	26.2
798.692	26.86
798.869	27.11
799.046	27.53
799.222	27.31
799.399	27.44
799.575	25.54
799.752	25.16
799.928	25.52
800.105	25.06
800.281	24.21
800.458	24.68
800.634	24.73
800.811	24.45
800.987	24.48
801.163	24.66
801.34	24.97
801.516	25.57
801.692	25.48
801.869	25.86
802.045	26.81
802.221	27.12
802.398	26.68
802.574	26.19
802.75	26.05
802.926	25.77
803.103	26.31
803.279	26.05
803.455	25.37
803.631	25.78
803.807	26.61
803.983	25.81
804.16	24.74
804.336	23.61
804.512	22.81
804.688	22.78
804.864	24.33
805.04	23.45
805.216	22.55
805.392	25.14
805.568	23.97
805.744	23.38
805.92	24.04
806.096	25.19
806.272	25
806.448	25.33
806.623	25.69
806.799	25.03
806.975	25.27
807.151	25.65
807.327	23.54
807.503	23.91
807.678	24.68
807.854	24.02
808.03	24.5
808.206	25.63
808.381	26.62
808.557	25.93
808.733	25.28
808.908	24.67
809.084	24.86
809.26	25.42
809.435	26.89
809.611	26.27
809.787	25.9
809.962	25.52
810.138	24.89
810.313	24.32
810.489	25.64
810.664	25.75
810.84	25.39
811.015	25.03
811.191	25.08
811.366	23.15
811.542	22.38
811.717	22.41
811.892	23.24
812.068	23.39
812.243	23.09
812.419	22.6
812.594	22.68
812.769	23.2
812.944	24.05
813.12	24.29
813.295	24.3
813.47	24.96
813.645	25.95
813.821	24.34
813.996	23.62
814.171	24.55
814.346	24.21
814.521	23.32
814.697	23.13
814.872	21.22
815.047	20.45
815.222	21.81
815.397	21.32
815.572	21.15
815.747	21.31
815.922	22.06
816.097	20.19
816.272	21.54
816.447	21.71
816.622	22.19
816.797	23.27
816.972	23.14
817.147	23.41
817.322	22.42
817.496	20.46
817.671	20.09
817.846	21.11
818.021	22.69
818.196	19.97
818.371	20.27
818.545	20.7
818.72	20.76
818.895	20.8
819.069	19.86
819.244	20.53
819.419	22.2
819.594	23
819.768	22.52
819.943	22.85
820.117	24.12
820.292	23.84
820.467	23.62
820.641	23.8
820.816	24.08
820.99	24.19
821.165	24.42
821.339	23.94
821.514	23.73
821.688	23.65
821.863	23.64
822.037	23.61
822.212	23.89
822.386	23.92
822.56	23.82
822.735	23.68
822.909	23.83
823.084	23.68
823.258	23.82
823.432	23.93
823.606	23.96
823.781	23.83
823.955	23.94
824.129	23.65
824.303	23.87
824.478	24.09
824.652	24.21
824.826	24.46
825	24.19
825.174	24.14
825.348	24.37
825.523	24.49
825.697	24.34
825.871	24.4
826.045	24.76
826.219	24.6
826.393	24.11
826.567	24.13
826.741	24.02
826.915	24.48
827.089	24.36
827.263	23.56
827.437	23.55
827.611	23.49
827.784	22.95
827.958	22.57
828.132	22.03
828.306	22.34
828.48	22.39
828.654	22.15
828.827	22.58
829.001	22.35
829.175	23.24
829.349	23.16
829.522	23.27
829.696	24.19
829.87	24.67
830.044	25.45
830.217	25.38
830.391	25.44
830.565	25.55
830.738	25.11
830.912	25.53
831.085	25.53
831.259	24.8
831.432	24.77
831.606	24.45
831.779	24.08
831.953	23.41
832.126	22.42
832.3	22.67
832.473	23.15
832.647	23
832.82	22.52
832.994	21.88
833.167	23.23
833.34	23.4
833.514	23.13
833.687	23.08
833.86	22.77
834.034	23.15
834.207	23.19
834.38	22.05
834.553	21.97
834.727	22.5
834.9	22.8
835.073	22.23
835.246	22.36
835.419	21.91
835.593	22.07
835.766	23.03
835.939	23.44
836.112	23.91
836.285	24.79
836.458	24.9
836.631	24.76
836.804	24.86
836.977	24.61
837.15	23.1
837.323	23.76
837.496	22.87
837.669	21.1
837.842	20.31
838.015	19.68
838.188	19.22
838.361	17.37
838.533	18.37
838.706	19.16
838.879	20.6
839.052	23.14
839.225	24.54
839.398	25.03
839.57	27.46
839.743	26.76
839.916	27.37
840.088	28.19
840.261	30.81
840.434	29.83
840.607	28.7
840.779	27.35
840.952	27.07
841.124	24.59
841.297	26.44
841.47	24.2
841.642	25.84
841.815	24.78
841.987	23.65
842.16	22.29
842.332	23.99
842.505	22.92
842.677	22.92
842.85	23.9
843.022	25.41
843.194	24.42
843.367	25.02
843.539	22.27
843.712	21.91
843.884	20.99
844.056	23.76
844.229	25.31
844.401	27.07
844.573	28.43
844.745	30.7
844.918	30.9
845.09	31.15
845.262	30.75
845.434	31.47
845.606	30.49
845.779	33.94
845.951	30.87
846.123	27.56
846.295	26.19
846.467	25.92
846.639	20.66
846.811	20.45
846.983	19.61
847.155	20.17
847.327	24.34
847.499	25.02
847.671	24.82
847.843	26.35
848.015	27.22
848.187	32.2
848.359	30.57
848.531	32.55
848.703	33.55
848.875	33.55
849.047	32.4
849.218	32.19
849.39	33.27
849.562	30.93
849.734	27.01
849.905	26.69
850.077	22.62
850.249	23.85
850.421	25.38
850.592	24.01
850.764	22.9
850.936	24.94
851.107	23.74
851.279	25.09
851.451	28.13
851.622	30.61
851.794	30.75
851.965	30.59
852.137	32.93
852.308	32.06
852.48	32.52
852.651	35.35
852.823	36.96
852.994	35.14
853.166	30.18
853.337	30.38
853.509	29.14
853.68	29.37
853.851	26.99
854.023	21.49
854.194	20.72
854.365	22.97
854.537	18.99
854.708	16.88
854.879	16.98
855.05	20.88
855.222	15.6
855.393	18.75
855.564	17.65
855.735	18.59
855.906	22.66
856.078	21.9
856.249	17.1
856.42	19.3
856.591	20.77
856.762	22.63
856.933	21.44
857.104	23.14
857.275	22.09
857.446	23.01
857.617	23.97
857.788	24.63
857.959	23.22
858.13	25.18
858.301	21.97
858.472	20.12
858.643	21.34
858.814	19.03
858.985	17.38
859.155	16.97
859.326	14.24
859.497	15.13
859.668	15.01
859.839	16.32
860.009	15.05
860.18	18.25
860.351	17.56
860.522	14.69
860.692	15.39
860.863	15.19
861.034	17.84
861.204	17.53
861.375	17.04
861.546	18.03
861.716	17.8
861.887	22.07
862.057	20.25
862.228	19.11
862.398	15.34
862.569	24.83
862.739	31.07
862.91	29.02
863.08	30.98
863.251	35.11
863.421	30.93
863.592	33.29
863.762	30.83
863.932	31.69
864.103	29.74
864.273	32.45
864.443	25.51
864.614	20.92
864.784	20.08
864.954	16.64
865.125	8.79
865.295	10.92
865.465	1.13
865.635	5.57
865.805	7.58
865.976	14.52
866.146	17.74
866.316	15.16
866.486	17.51
866.656	18.82
866.826	22.56
866.996	25.52
867.166	26.08
867.336	28.71
867.506	28.08
867.676	27.92
867.846	27.22
868.016	28.24
868.186	30.47
868.356	24.53
868.526	27.06
868.696	28.59
868.866	24.19
869.036	26.22
869.206	26.67
869.376	24.91
869.545	25.56
869.715	24.75
869.885	17.54
870.055	15.19
870.224	19.63
870.394	15.07
870.564	14.1
870.734	19.7
870.903	17.08
871.073	18.2
871.243	20.16
871.412	22.04
871.582	26.71
871.751	32.02
871.921	31.78
872.091	30.25
872.26	30.73
872.43	24.77
872.599	23
872.769	26.82
872.938	24.68
873.108	23.73
873.277	18.38
873.446	13.22
873.616	13.82
873.785	17.19
873.955	20.85
874.124	22.44
874.293	26.47
874.463	27.23
874.632	27.15
874.801	34.17
874.971	34.38
875.14	34.81
875.309	33.51
875.478	29.68
875.647	28.46
875.817	31.05
875.986	29.78
876.155	30.57
876.324	29.17
876.493	27.44
876.662	23.19
876.831	24.25
877	23.78
877.17	25
877.339	26.57
877.508	28.54
877.677	24.82
877.846	28.74
878.015	29.45
878.184	30.77
878.352	29.7
878.521	30.64
878.69	28.73
878.859	30.14
879.028	29.16
879.197	27.51
879.366	26.66
879.534	22.18
879.703	19.87
879.872	18.89
880.041	18.03
880.21	18.23
880.378	18.34
880.547	20.09
880.716	21.33
880.884	21.74
881.053	21.3
881.222	21.45
881.39	22.25
881.559	22.13
881.727	22.73
881.896	23.68
882.065	23.64
882.233	23.96
882.402	23.73
882.57	22.84
882.739	22.49
882.907	23.17
883.076	23.38
883.244	23.54
883.412	23.99
883.581	23.26
883.749	22.38
883.918	22.31
884.086	22.04
884.254	21.9
884.423	22.53
884.591	22.92
884.759	22.25
884.927	22.28
885.096	22.84
885.264	23.05
885.432	24.13
885.6	23.57
885.769	24.01
885.937	23.74
886.105	23.71
886.273	23.09
886.441	22.76
886.609	24.52
886.777	23.77
886.945	25.38
887.113	24.93
887.281	26.43
887.449	29.28
887.617	30.54
887.785	31.51
887.953	32.22
888.121	33.55
888.289	34.6
888.457	34.43
888.625	35.86
888.793	31.42
888.961	32.99
889.129	27.34
889.296	28.02
889.464	26.52
889.632	26.1
889.8	24.44
889.967	23.79
890.135	26.53
