Data from 2938833__Reflection_01.txt Node
Date: Thu Mar 12 11:48:08 EDT 2015
User: robert
Spectrometer: USB4E03002
Autoset integration time: false
Trigger mode: 4
Integration Time (sec): 1.000000E-1
Scans to average: 10
Electric dark correction enabled: false
Nonlinearity correction enabled: false
Boxcar width: 5
Stray light correction enabled: false
XAxis mode: Wavelengths
Stop averaging: false
Number of Pixels in Spectrum: 3648
>>>>>Begin Spectral Data<<<<<
177.575	117.7
177.794	143.05
178.014	154.79
178.233	143.57
178.452	123.78
178.672	121.82
178.891	132.53
179.11	125.3
179.33	105.16
179.549	54.11
179.768	71.27
179.987	76.51
180.207	26.45
180.426	-31.94
180.645	-132.03
180.864	919.05
181.084	-252.24
181.303	-33.55
181.522	-45.15
181.741	-47.6
181.96	-38.34
182.179	-94.97
182.398	-138.51
182.618	-94.97
182.837	-361.25
183.056	-27.79
183.275	-43.15
183.494	-46.15
183.713	-50.88
183.932	-15.38
184.151	21.6
184.37	8.22
184.589	-2.71
184.808	1.45
185.027	31.36
185.246	40.52
185.465	19.97
185.684	42.11
185.903	50.76
186.122	55.33
186.341	65.92
186.56	67.82
186.779	102.48
186.998	111.44
187.216	114.49
187.435	98.8
187.654	88.02
187.873	120.82
188.092	56.58
188.311	63.37
188.53	63.52
188.748	75.7
188.967	61.28
189.186	-15.03
189.405	-31.9
189.623	1.09
189.842	-5.23
190.061	17.69
190.28	16.61
190.498	13.82
190.717	-6.43
190.936	1.76
191.154	-16.9
191.373	-17.21
191.592	-21.15
191.81	25.1
192.029	-10.49
192.248	-5.88
192.466	-51.97
192.685	11
192.904	-32.67
193.122	-29.34
193.341	-35.77
193.559	-47.03
193.778	-26.75
193.996	-7.6
194.215	-22.56
194.433	-15.32
194.652	-23.38
194.87	-19.11
195.089	-23.18
195.307	-5.82
195.526	5.4
195.744	-23.33
195.963	20.09
196.181	6.82
196.399	-64.61
196.618	-50
196.836	330.3
197.055	-216.88
197.273	-224.77
197.491	-255.56
197.71	-124.5
197.928	-128.57
198.146	-6.09
198.365	-34.5
198.583	-28.23
198.801	0.28
199.019	2.56
199.238	11.5
199.456	-8.27
199.674	-18.22
199.892	12.64
200.111	27.8
200.329	23.44
200.547	15.03
200.765	1.37
200.983	4.15
201.202	-31
201.42	-13.7
201.638	2.6
201.856	-7.08
202.074	-7.94
202.292	-53.44
202.51	-502.84
202.728	-173.41
202.946	-121.85
203.165	-107.74
203.383	-72.36
203.601	-17.17
203.819	-75.14
204.037	-63.92
204.255	-51.42
204.473	-28.36
204.691	-26.15
204.909	1.22
205.127	0.95
205.345	-10.86
205.562	-10.57
205.78	-48.21
205.998	-50.84
206.216	-29.12
206.434	-35.82
206.652	-32.93
206.87	-35.01
207.088	-4.34
207.306	4.22
207.523	7.2
207.741	6.81
207.959	7.02
208.177	14.64
208.395	8.56
208.612	30.53
208.83	31.11
209.048	25.57
209.266	33.33
209.483	34.84
209.701	30.72
209.919	30.66
210.136	7.56
210.354	24.53
210.572	40.85
210.79	51.66
211.007	21.92
211.225	17.44
211.442	16.43
211.66	17.41
211.878	-4.88
212.095	79.95
212.313	64.99
212.53	78.67
212.748	69.06
212.966	69.07
213.183	68.82
213.401	68.06
213.618	82.41
213.836	87.96
214.053	87.51
214.271	87.32
214.488	8.73
214.705	12.52
214.923	-10.46
215.14	-12.45
215.358	-34.79
215.575	-37.98
215.793	-32.72
216.01	-42.93
216.227	-54.89
216.445	-75.6
216.662	-83.79
216.879	-78.83
217.097	-81.54
217.314	-55
217.531	-32.05
217.749	-20.27
217.966	-30.43
218.183	-18.56
218.4	-18.93
218.618	-8.01
218.835	4.13
219.052	0
219.269	-11.85
219.487	-3.04
219.704	9.28
219.921	-13.44
220.138	-4.28
220.355	3.24
220.572	10.42
220.79	13.56
221.007	5.61
221.224	16.12
221.441	16.43
221.658	27.25
221.875	17.4
222.092	6.79
222.309	17.77
222.526	16.68
222.743	16.06
222.96	13.42
223.177	12.81
223.394	15.64
223.611	10.86
223.828	9.56
224.045	1.44
224.262	5.92
224.479	12.58
224.696	7.83
224.913	10.77
225.13	8.4
225.347	7.11
225.564	5.52
225.781	2.64
225.997	0.78
226.214	1.52
226.431	2.21
226.648	3.27
226.865	5
227.082	5.05
227.298	3.02
227.515	3.07
227.732	3.46
227.949	4.73
228.165	5.9
228.382	6.31
228.599	5.69
228.816	5.13
229.032	4.69
229.249	3.31
229.466	3.33
229.682	3.88
229.899	4.16
230.116	3.86
230.332	3.33
230.549	2.58
230.765	3.05
230.982	3.73
231.199	4.01
231.415	3.05
231.632	4.45
231.848	3.77
232.065	2.53
232.281	2.27
232.498	3.61
232.714	3.91
232.931	3.37
233.147	0.86
233.364	0.71
233.58	0.8
233.797	-0.63
234.013	-1.22
234.23	0.78
234.446	3.02
234.662	2.68
234.879	1.18
235.095	0.54
235.312	2.95
235.528	2.85
235.744	2.11
235.961	2.97
236.177	5.24
236.393	4.72
236.61	3.66
236.826	2.34
237.042	1.68
237.258	2.82
237.475	3.04
237.691	-0.02
237.907	0.85
238.123	0.88
238.339	1.62
238.556	2.19
238.772	2.74
238.988	3.02
239.204	3.71
239.42	4.57
239.636	2.46
239.853	2.32
240.069	2.32
240.285	2.08
240.501	1.63
240.717	2.18
240.933	1.1
241.149	1.47
241.365	1.27
241.581	1.07
241.797	1.41
242.013	1.84
242.229	1.94
242.445	2.48
242.661	3.51
242.877	3.96
243.093	3.44
243.309	3.93
243.525	4
243.741	4.22
243.957	4.01
244.173	3.82
244.388	3.62
244.604	3.52
244.82	3.08
245.036	1.54
245.252	1.81
245.468	2.14
245.683	2.01
245.899	1.87
246.115	1.71
246.331	1.72
246.547	2.35
246.762	2.99
246.978	3.13
247.194	3.32
247.409	3.58
247.625	3.3
247.841	3.27
248.057	3.26
248.272	3.08
248.488	3.19
248.703	3.42
248.919	3.25
249.135	2.99
249.35	3.34
249.566	3.17
249.782	2.72
249.997	2.82
250.213	2.87
250.428	2.67
250.644	2.34
250.859	2.95
251.075	2.98
251.29	2.66
251.506	2.38
251.721	1.74
251.937	1.38
252.152	2.04
252.368	2.6
252.583	2.07
252.798	2.18
253.014	2.99
253.229	2.5
253.445	2.2
253.66	2.02
253.875	1.61
254.091	1.12
254.306	1.33
254.521	1.07
254.737	0.6
254.952	0.84
255.167	1.37
255.383	1.91
255.598	2.59
255.813	2.76
256.028	1.82
256.244	2.79
256.459	2.35
256.674	2.64
256.889	3
257.104	3.44
257.32	3.66
257.535	4
257.75	2.52
257.965	2.39
258.18	2.54
258.395	2.69
258.61	2.48
258.826	2.88
259.041	3
259.256	2.55
259.471	2.24
259.686	2.08
259.901	2.03
260.116	2.3
260.331	1.98
260.546	2.07
260.761	2.12
260.976	1.84
261.191	1.62
261.406	1.46
261.621	1.76
261.836	2.15
262.05	2.17
262.265	1.81
262.48	1.73
262.695	2.36
262.91	2.18
263.125	2.33
263.34	3.18
263.555	3.2
263.769	3.06
263.984	2.67
264.199	2.18
264.414	1.87
264.629	2.48
264.843	2.94
265.058	2.32
265.273	1.88
265.488	1.74
265.702	1.19
265.917	1.29
266.132	2.06
266.346	2.26
266.561	2.25
266.776	2.31
266.99	2.4
267.205	1.94
267.42	2.1
267.634	2.25
267.849	2.66
268.063	2.82
268.278	2.92
268.492	2.59
268.707	2.26
268.922	2.04
269.136	2.63
269.351	2.68
269.565	2.78
269.78	2.64
269.994	2.98
270.209	3.06
270.423	2.8
270.637	2.76
270.852	2.56
271.066	2.58
271.281	2.92
271.495	2.73
271.709	2.15
271.924	2.15
272.138	2.14
272.353	1.66
272.567	1
272.781	0.85
272.996	1.27
273.21	1.38
273.424	1.73
273.638	1.15
273.853	0.85
274.067	1.06
274.281	1.1
274.495	0.81
274.71	1.65
274.924	2.32
275.138	3
275.352	2.04
275.566	1.66
275.781	0.84
275.995	1.55
276.209	1.75
276.423	1.84
276.637	1.41
276.851	1.7
277.065	1.37
277.279	0.71
277.493	0.51
277.707	1.19
277.921	0.89
278.135	0.96
278.349	0.43
278.563	0.66
278.777	-0
278.991	0.55
279.205	0.64
279.419	0.26
279.633	0.35
279.847	0.12
280.061	-0.37
280.275	-0.06
280.489	0.24
280.703	0.56
280.917	0.15
281.131	0.72
281.344	0.6
281.558	0.72
281.772	1.07
281.986	1.62
282.2	1.47
282.414	2.23
282.627	2.2
282.841	2.14
283.055	2.2
283.269	2.34
283.482	2.22
283.696	2.1
283.91	1.79
284.123	2.16
284.337	1.95
284.551	2.09
284.764	1.73
284.978	1.93
285.192	2.04
285.405	1.91
285.619	2.17
285.833	2.01
286.046	2.15
286.26	2.37
286.473	2.02
286.687	1.67
286.9	1.69
287.114	1.42
287.327	1.54
287.541	1.57
287.754	1.41
287.968	1.34
288.181	1.54
288.395	1.53
288.608	1.88
288.822	1.92
289.035	2.36
289.248	2.39
289.462	2.69
289.675	2.61
289.889	3.08
290.102	3.31
290.315	2.92
290.529	2.88
290.742	2.79
290.955	2.6
291.169	2.45
291.382	2.45
291.595	2.35
291.808	2.39
292.022	2.42
292.235	1.89
292.448	1.97
292.661	2.28
292.875	2.48
293.088	2.82
293.301	3.13
293.514	3.46
293.727	3.56
293.94	3.5
294.153	3.36
294.367	3.24
294.58	3.59
294.793	3.47
295.006	3.25
295.219	3.13
295.432	3.13
295.645	2.93
295.858	2.86
296.071	2.98
296.284	3.2
296.497	3.34
296.71	3.62
296.923	3.49
297.136	3.67
297.349	3.81
297.562	3.94
297.775	3.79
297.988	3.66
298.201	3.67
298.414	3.71
298.626	3.88
298.839	3.74
299.052	3.81
299.265	4.06
299.478	3.92
299.691	4.25
299.903	4.42
300.116	4.71
300.329	5
300.542	5.17
300.755	5.35
300.967	5.48
301.18	5.71
301.393	5.94
301.605	5.68
301.818	5.82
302.031	5.63
302.243	5.93
302.456	5.63
302.669	5.66
302.881	5.85
303.094	5.8
303.307	5.69
303.519	5.85
303.732	5.26
303.944	5.29
304.157	4.87
304.37	4.94
304.582	4.86
304.795	5.13
305.007	5.24
305.22	4.94
305.432	4.81
305.645	5.27
305.857	5.26
306.069	5.61
306.282	5.51
306.494	6.28
306.707	6.6
306.919	6.46
307.132	6.49
307.344	6.16
307.556	6.08
307.769	6.23
307.981	5.84
308.193	5.52
308.406	5.51
308.618	5.85
308.83	5.54
309.043	5.41
309.255	5.35
309.467	5.2
309.679	5.44
309.892	5.67
310.104	5.78
310.316	5.71
310.528	6.09
310.74	6.18
310.953	6.05
311.165	6.15
311.377	6.3
311.589	6.46
311.801	6.72
312.013	6.43
312.225	6.64
312.437	6.55
312.649	6.69
312.862	6.83
313.074	6.77
313.286	7.17
313.498	7.21
313.71	7.43
313.922	7.17
314.134	7.19
314.346	7.72
314.558	7.39
314.77	7.16
314.982	7.6
315.193	7.2
315.405	7.18
315.617	7.07
315.829	7.16
316.041	6.93
316.253	6.98
316.465	7.03
316.677	6.77
316.888	7.09
317.1	7.21
317.312	7.17
317.524	7.31
317.736	6.97
317.947	6.66
318.159	6.78
318.371	6.75
318.583	6.82
318.794	6.83
319.006	7.04
319.218	6.81
319.43	6.64
319.641	6.37
319.853	7.07
320.064	7.28
320.276	7.24
320.488	7.24
320.699	7.25
320.911	7.59
321.123	7.45
321.334	7.38
321.546	8.01
321.757	8.18
321.969	8.09
322.18	7.58
322.392	7.78
322.603	8.04
322.815	8.2
323.026	8.27
323.238	8.36
323.449	8.81
323.661	8.74
323.872	7.94
324.083	8.21
324.295	8.56
324.506	8.58
324.718	8.83
324.929	8.95
325.14	9.01
325.352	9
325.563	9.25
325.774	9.29
325.986	9.35
326.197	9.75
326.408	9.72
326.62	9.64
326.831	9.96
327.042	10.03
327.253	9.96
327.464	10.26
327.676	10.61
327.887	10.49
328.098	10.38
328.309	10.72
328.52	10.91
328.732	11.11
328.943	11.12
329.154	11.23
329.365	11.36
329.576	11.48
329.787	11.19
329.998	11.17
330.209	11.45
330.42	11.65
330.631	12.24
330.842	12.48
331.053	12.59
331.264	13.05
331.475	13.12
331.686	13.17
331.897	13.02
332.108	13.22
332.319	13.55
332.53	13.48
332.741	13.77
332.952	13.68
333.163	13.68
333.374	13.78
333.585	13.72
333.795	13.69
334.006	14.19
334.217	14.89
334.428	15.07
334.639	15.01
334.849	14.91
335.06	14.65
335.271	14.42
335.482	14.26
335.692	14.13
335.903	13.85
336.114	14.13
336.325	13.79
336.535	13.21
336.746	13.08
336.957	12.92
337.167	13.01
337.378	13.36
337.589	13.49
337.799	13.47
338.01	13.51
338.22	13.83
338.431	13.48
338.642	13.66
338.852	14.17
339.063	14.13
339.273	14.32
339.484	14.26
339.694	14.18
339.905	14.09
340.115	14.34
340.326	14.55
340.536	14.45
340.746	14.56
340.957	14.12
341.167	13.98
341.378	14.11
341.588	14
341.799	13.93
342.009	14.03
342.219	13.98
342.43	13.8
342.64	13.73
342.85	13.93
343.061	13.85
343.271	14.12
343.481	13.8
343.691	13.4
343.902	13.05
344.112	13.13
344.322	12.78
344.532	13.12
344.743	13.09
344.953	13.22
345.163	13
345.373	12.98
345.583	12.9
345.793	13.09
346.004	13.27
346.214	13.29
346.424	13.34
346.634	13.67
346.844	13.31
347.054	13.85
347.264	13.71
347.474	13.72
347.684	13.69
347.894	13.72
348.104	13.99
348.314	13.86
348.524	14.02
348.734	13.84
348.944	13.62
349.154	13.7
349.364	13.01
349.574	12.83
349.784	12.63
349.994	12.73
350.204	12.82
350.413	12.8
350.623	12.93
350.833	12.99
351.043	12.89
351.253	12.86
351.463	12.85
351.672	13.04
351.882	13.31
352.092	13.45
352.302	13.33
352.511	13.29
352.721	13.17
352.931	13.34
353.141	13.36
353.35	13.41
353.56	13.43
353.77	13.4
353.979	13.51
354.189	13.41
354.399	13.36
354.608	13.3
354.818	13.22
355.027	13.28
355.237	13.08
355.447	13.11
355.656	13.55
355.866	13.23
356.075	13.28
356.285	13.14
356.494	13.05
356.704	12.92
356.913	13.11
357.123	13.01
357.332	13.05
357.542	13.14
357.751	12.99
357.96	12.57
358.17	12.57
358.379	12.46
358.589	12.39
358.798	12.28
359.007	12.19
359.217	12.05
359.426	12.08
359.635	11.92
359.845	11.82
360.054	11.97
360.263	11.97
360.472	12.19
360.682	12.45
360.891	12.57
361.1	12.61
361.309	12.73
361.519	12.68
361.728	12.6
361.937	12.58
362.146	12.56
362.355	12.58
362.564	12.78
362.774	12.77
362.983	12.45
363.192	12.35
363.401	12.28
363.61	12.47
363.819	12.48
364.028	12.65
364.237	12.65
364.446	12.61
364.655	12.37
364.864	12.04
365.073	12.13
365.282	12.28
365.491	12.29
365.7	12.37
365.909	12.04
366.118	12.16
366.327	11.92
366.536	11.81
366.745	11.89
366.954	11.93
367.162	11.96
367.371	11.59
367.58	11.54
367.789	11.43
367.998	11.45
368.207	11.3
368.415	11.1
368.624	11.2
368.833	11.23
369.042	11.22
369.25	11.04
369.459	11.2
369.668	11.21
369.877	11.01
370.085	11.1
370.294	11.08
370.503	11.07
370.711	10.99
370.92	10.91
371.129	10.82
371.337	10.69
371.546	10.82
371.754	10.69
371.963	10.65
372.171	10.55
372.38	10.29
372.589	10.08
372.797	10.28
373.006	10.26
373.214	10.43
373.423	10.6
373.631	10.44
373.84	10.65
374.048	10.6
374.256	10.77
374.465	10.77
374.673	10.91
374.882	11.1
375.09	10.76
375.298	10.67
375.507	10.48
375.715	10.29
375.923	10.38
376.132	9.73
376.34	9.73
376.548	9.53
376.757	9.63
376.965	9.66
377.173	9.48
377.381	9.59
377.59	9.5
377.798	9.43
378.006	9.27
378.214	9.22
378.423	9.65
378.631	9.75
378.839	9.72
379.047	9.62
379.255	9.46
379.463	9.43
379.671	9.38
379.879	9.46
380.088	9.44
380.296	9.37
380.504	9.25
380.712	9
380.92	8.95
381.128	9.29
381.336	9.04
381.544	8.99
381.752	8.78
381.96	8.63
382.168	8.59
382.376	8.33
382.584	8.31
382.791	8.47
382.999	8.58
383.207	8.53
383.415	8.21
383.623	8.59
383.831	8.59
384.039	8.64
384.247	8.69
384.454	8.64
384.662	8.75
384.87	8.97
385.078	8.8
385.285	8.62
385.493	8.33
385.701	8.09
385.909	7.69
386.116	7.54
386.324	7.5
386.532	7.49
386.739	7.54
386.947	7.39
387.155	7.25
387.362	7.11
387.57	7.25
387.778	7.5
387.985	7.53
388.193	7.47
388.4	7.48
388.608	7.67
388.816	7.64
389.023	7.58
389.231	7.89
389.438	7.9
389.646	8.18
389.853	7.86
390.061	7.7
390.268	7.83
390.475	8.02
390.683	8.19
390.89	7.96
391.098	7.98
391.305	7.89
391.512	7.77
391.72	7.55
391.927	7.36
392.135	7.62
392.342	7.68
392.549	7.49
392.756	7.36
392.964	7.12
393.171	7.07
393.378	6.9
393.586	6.96
393.793	6.91
394	7.06
394.207	7.11
394.414	7.08
394.622	6.97
394.829	7.1
395.036	7.21
395.243	7.24
395.45	7.27
395.657	7.32
395.864	7.46
396.072	7.47
396.279	7.45
396.486	7.38
396.693	7.37
396.9	7.34
397.107	7.49
397.314	7.53
397.521	7.59
397.728	7.65
397.935	7.57
398.142	7.4
398.349	7.34
398.556	7.26
398.763	7.34
398.97	7.21
399.177	7.25
399.383	6.93
399.59	6.71
399.797	6.56
400.004	6.38
400.211	6.36
400.418	6.22
400.625	6.14
400.831	6.11
401.038	6.16
401.245	5.99
401.452	5.99
401.658	6.01
401.865	6.02
402.072	6.12
402.279	6.28
402.485	6.41
402.692	6.47
402.899	6.47
403.105	6.46
403.312	6.12
403.519	6.22
403.725	6.23
403.932	6.29
404.138	6.23
404.345	6.07
404.552	6.06
404.758	5.98
404.965	5.9
405.171	5.8
405.378	5.78
405.584	6
405.791	6.12
405.997	6.06
406.204	6.06
406.41	6.18
406.617	6.19
406.823	6.08
407.029	6.16
407.236	6.16
407.442	6.17
407.649	6.18
407.855	5.86
408.061	5.85
408.268	5.68
408.474	5.69
408.68	5.75
408.887	5.84
409.093	6.01
409.299	5.86
409.505	5.88
409.712	5.9
409.918	5.9
410.124	6.06
410.33	5.88
410.537	6.01
410.743	5.96
410.949	5.86
411.155	6.06
411.361	5.99
411.567	6.01
411.773	6
411.98	6.12
412.186	6.13
412.392	6.32
412.598	6.38
412.804	6.27
413.01	6.36
413.216	6.42
413.422	6.27
413.628	6.29
413.834	6.42
414.04	6.59
414.246	6.55
414.452	6.51
414.658	6.32
414.864	6.33
415.07	6.44
415.275	6.45
415.481	6.35
415.687	6.49
415.893	6.45
416.099	6.39
416.305	6.19
416.511	6.13
416.716	6.14
416.922	6.15
417.128	6.16
417.334	6.11
417.539	6.02
417.745	6
417.951	5.7
418.157	5.72
418.362	5.8
418.568	5.82
418.774	5.92
418.979	5.97
419.185	5.95
419.391	5.94
419.596	5.96
419.802	6.01
420.008	5.96
420.213	6.06
420.419	6.1
420.624	6.05
420.83	6.05
421.035	6
421.241	5.93
421.446	5.96
421.652	5.85
421.857	5.93
422.063	5.91
422.268	5.98
422.474	6.02
422.679	5.93
422.885	5.91
423.09	5.94
423.295	6.01
423.501	5.99
423.706	5.96
423.911	6.02
424.117	5.9
424.322	5.98
424.527	5.99
424.733	6.02
424.938	6.03
425.143	6.07
425.349	6.05
425.554	5.96
425.759	6.03
425.964	6.01
426.169	6.04
426.375	6.1
426.58	5.92
426.785	5.88
426.99	5.82
427.195	5.86
427.4	5.84
427.605	5.89
427.811	5.87
428.016	5.8
428.221	6.02
428.426	6.02
428.631	6
428.836	6.15
429.041	6.24
429.246	6.13
429.451	6.19
429.656	6.12
429.861	6.17
430.066	6.28
430.271	6.24
430.476	6.11
430.681	6.14
430.886	6.19
431.09	6.25
431.295	6.24
431.5	6.25
431.705	6.15
431.91	6.12
432.115	6.02
432.32	6.04
432.524	6.08
432.729	6.1
432.934	6.14
433.139	6.14
433.343	6.15
433.548	6.13
433.753	6.2
433.958	6.3
434.162	6.3
434.367	6.32
434.572	6.31
434.776	6.42
434.981	6.37
435.186	6.35
435.39	6.31
435.595	6.19
435.799	6.2
436.004	6.33
436.209	6.26
436.413	6.33
436.618	6.43
436.822	6.45
437.027	6.39
437.231	6.48
437.436	6.44
437.64	6.52
437.845	6.61
438.049	6.64
438.253	6.54
438.458	6.51
438.662	6.55
438.867	6.49
439.071	6.54
439.275	6.6
439.48	6.52
439.684	6.62
439.888	6.55
440.093	6.55
440.297	6.58
440.501	6.61
440.706	6.63
440.91	6.56
441.114	6.59
441.318	6.52
441.523	6.55
441.727	6.58
441.931	6.49
442.135	6.55
442.339	6.45
442.543	6.41
442.748	6.34
442.952	6.3
443.156	6.39
443.36	6.34
443.564	6.34
443.768	6.2
443.972	6.21
444.176	6.25
444.38	6.17
444.584	6.26
444.788	6.26
444.992	6.33
445.196	6.42
445.4	6.38
445.604	6.41
445.808	6.37
446.012	6.39
446.216	6.41
446.42	6.4
446.624	6.36
446.828	6.3
447.032	6.29
447.235	6.21
447.439	6.19
447.643	6.29
447.847	6.3
448.051	6.3
448.254	6.34
448.458	6.33
448.662	6.37
448.866	6.43
449.069	6.44
449.273	6.48
449.477	6.59
449.681	6.66
449.884	6.52
450.088	6.55
450.292	6.61
450.495	6.65
450.699	6.62
450.902	6.47
451.106	6.53
451.31	6.57
451.513	6.53
451.717	6.41
451.92	6.38
452.124	6.38
452.327	6.24
452.531	6.2
452.734	6.14
452.938	6.21
453.141	6.33
453.345	6.26
453.548	6.25
453.752	6.27
453.955	6.33
454.158	6.36
454.362	6.39
454.565	6.45
454.769	6.4
454.972	6.38
455.175	6.26
455.379	6.22
455.582	6.22
455.785	6.22
455.988	6.17
456.192	6.13
456.395	6.06
456.598	6.19
456.801	6.18
457.005	6.26
457.208	6.22
457.411	6.28
457.614	6.29
457.817	6.39
458.021	6.49
458.224	6.51
458.427	6.49
458.63	6.44
458.833	6.25
459.036	6.3
459.239	6.2
459.442	6.31
459.645	6.33
459.848	6.29
460.051	6.26
460.254	6.23
460.457	6.15
460.66	6.17
460.863	6.19
461.066	6.23
461.269	6.21
461.472	6.22
461.675	6.14
461.878	6.1
462.081	6.2
462.284	6.2
462.486	6.11
462.689	6.18
462.892	6.23
463.095	6.3
463.298	6.4
463.5	6.46
463.703	6.61
463.906	6.67
464.109	6.72
464.311	6.67
464.514	6.64
464.717	6.57
464.92	6.55
465.122	6.55
465.325	6.57
465.528	6.52
465.73	6.43
465.933	6.43
466.135	6.36
466.338	6.42
466.541	6.42
466.743	6.38
466.946	6.54
467.148	6.64
467.351	6.58
467.553	6.55
467.756	6.55
467.958	6.59
468.161	6.61
468.363	6.67
468.566	6.6
468.768	6.53
468.971	6.61
469.173	6.68
469.375	6.63
469.578	6.7
469.78	6.71
469.983	6.72
470.185	6.74
470.387	6.74
470.59	6.77
470.792	6.9
470.994	6.93
471.196	7.04
471.399	6.92
471.601	6.83
471.803	6.81
472.005	6.79
472.208	6.82
472.41	6.78
472.612	6.63
472.814	6.54
473.016	6.42
473.218	6.48
473.421	6.35
473.623	6.41
473.825	6.51
474.027	6.42
474.229	6.46
474.431	6.48
474.633	6.51
474.835	6.59
475.037	6.63
475.239	6.64
475.441	6.62
475.643	6.68
475.845	6.55
476.047	6.55
476.249	6.63
476.451	6.65
476.653	6.75
476.855	6.81
477.057	6.75
477.258	6.78
477.46	6.86
477.662	6.89
477.864	6.87
478.066	6.95
478.268	6.92
478.469	6.86
478.671	6.86
478.873	6.79
479.075	6.8
479.276	6.83
479.478	6.86
479.68	6.76
479.882	6.76
480.083	6.82
480.285	6.77
480.487	6.81
480.688	6.86
480.89	6.83
481.091	6.8
481.293	6.79
481.495	6.81
481.696	6.72
481.898	6.74
482.099	6.73
482.301	6.64
482.502	6.68
482.704	6.63
482.905	6.64
483.107	6.61
483.308	6.59
483.51	6.6
483.711	6.6
483.913	6.59
484.114	6.59
484.315	6.56
484.517	6.57
484.718	6.55
484.92	6.58
485.121	6.56
485.322	6.59
485.524	6.59
485.725	6.56
485.926	6.54
486.127	6.59
486.329	6.58
486.53	6.58
486.731	6.57
486.932	6.55
487.134	6.5
487.335	6.51
487.536	6.49
487.737	6.47
487.938	6.46
488.139	6.48
488.341	6.48
488.542	6.5
488.743	6.49
488.944	6.52
489.145	6.56
489.346	6.63
489.547	6.62
489.748	6.6
489.949	6.66
490.15	6.67
490.351	6.65
490.552	6.61
490.753	6.59
490.954	6.62
491.155	6.64
491.356	6.59
491.557	6.56
491.758	6.59
491.959	6.6
492.159	6.56
492.36	6.57
492.561	6.58
492.762	6.59
492.963	6.61
493.164	6.59
493.364	6.58
493.565	6.61
493.766	6.63
493.967	6.62
494.167	6.66
494.368	6.71
494.569	6.77
494.769	6.81
494.97	6.86
495.171	6.8
495.371	6.8
495.572	6.93
495.773	7.04
495.973	7.05
496.174	7.1
496.375	7.11
496.575	7.16
496.776	7.07
496.976	7.1
497.177	7.08
497.377	7.12
497.578	7.22
497.778	7.14
497.979	7.14
498.179	7.14
498.38	7.11
498.58	7.17
498.78	7.22
498.981	7.32
499.181	7.38
499.382	7.49
499.582	7.46
499.782	7.57
499.983	7.63
500.183	7.7
500.383	7.82
500.584	7.93
500.784	8.03
500.984	8.04
501.184	8.09
501.385	8.09
501.585	8.05
501.785	8.17
501.985	8.11
502.185	8.11
502.386	8.03
502.586	8.06
502.786	8.02
502.986	7.97
503.186	7.99
503.386	8.01
503.586	8.05
503.786	8.11
503.987	8.19
504.187	8.24
504.387	8.32
504.587	8.41
504.787	8.38
504.987	8.41
505.187	8.5
505.387	8.52
505.587	8.57
505.786	8.64
505.986	8.74
506.186	8.78
506.386	8.92
506.586	8.97
506.786	9.05
506.986	9.06
507.186	9.21
507.386	9.32
507.585	9.4
507.785	9.45
507.985	9.49
508.185	9.55
508.384	9.61
508.584	9.68
508.784	9.74
508.984	9.8
509.183	9.93
509.383	10
509.583	9.94
509.782	10.03
509.982	10.11
510.182	10.18
510.381	10.22
510.581	10.28
510.781	10.3
510.98	10.42
511.18	10.51
511.379	10.57
511.579	10.63
511.778	10.83
511.978	10.91
512.177	11.05
512.377	11.16
512.576	11.3
512.776	11.44
512.975	11.6
513.175	11.64
513.374	11.81
513.573	11.97
513.773	12.17
513.972	12.25
514.172	12.42
514.371	12.54
514.57	12.69
514.77	12.81
514.969	12.83
515.168	12.95
515.367	13.14
515.567	13.24
515.766	13.4
515.965	13.45
516.164	13.63
516.364	13.72
516.563	13.81
516.762	14.04
516.961	14.18
517.16	14.35
517.359	14.47
517.559	14.54
517.758	14.6
517.957	14.6
518.156	14.63
518.355	14.68
518.554	14.75
518.753	14.91
518.952	14.94
519.151	15.03
519.35	15.16
519.549	15.24
519.748	15.33
519.947	15.47
520.146	15.67
520.345	15.87
520.544	16
520.743	16.13
520.942	16.22
521.141	16.32
521.339	16.4
521.538	16.49
521.737	16.66
521.936	16.85
522.135	17.03
522.333	17.15
522.532	17.29
522.731	17.52
522.93	17.72
523.129	17.88
523.327	18.03
523.526	18.21
523.725	18.37
523.923	18.46
524.122	18.6
524.321	18.68
524.519	18.86
524.718	18.94
524.917	19.05
525.115	19.15
525.314	19.25
525.512	19.42
525.711	19.49
525.909	19.62
526.108	19.67
526.306	19.83
526.505	19.96
526.703	20.09
526.902	20.23
527.1	20.33
527.299	20.46
527.497	20.6
527.696	20.69
527.894	20.84
528.092	20.94
528.291	21.04
528.489	21.08
528.688	21.16
528.886	21.2
529.084	21.29
529.283	21.35
529.481	21.43
529.679	21.5
529.877	21.51
530.076	21.53
530.274	21.61
530.472	21.73
530.67	21.83
530.869	21.94
531.067	22.12
531.265	22.28
531.463	22.42
531.661	22.56
531.859	22.66
532.057	22.81
532.255	22.92
532.454	23.03
532.652	23.08
532.85	23.15
533.048	23.19
533.246	23.27
533.444	23.33
533.642	23.39
533.84	23.43
534.038	23.53
534.236	23.64
534.434	23.78
534.632	23.83
534.83	24.02
535.027	24.2
535.225	24.37
535.423	24.43
535.621	24.51
535.819	24.65
536.017	24.77
536.215	24.86
536.412	24.95
536.61	24.99
536.808	25.06
537.006	25.05
537.203	25.05
537.401	25.04
537.599	25.16
537.797	25.21
537.994	25.25
538.192	25.25
538.39	25.3
538.587	25.48
538.785	25.65
538.983	25.79
539.18	25.97
539.378	26.09
539.575	26.28
539.773	26.33
539.97	26.47
540.168	26.58
540.366	26.62
540.563	26.64
540.761	26.68
540.958	26.65
541.155	26.68
541.353	26.69
541.55	26.74
541.748	26.75
541.945	26.81
542.143	26.85
542.34	26.86
542.537	26.95
542.735	27.1
542.932	27.12
543.129	27.24
543.327	27.32
543.524	27.45
543.721	27.58
543.919	27.77
544.116	27.88
544.313	28
544.51	28.23
544.708	28.49
544.905	28.6
545.102	28.73
545.299	28.87
545.496	29.02
545.693	29.03
545.891	28.99
546.088	28.93
546.285	28.94
546.482	28.85
546.679	28.74
546.876	28.62
547.073	28.57
547.27	28.55
547.467	28.52
547.664	28.44
547.861	28.48
548.058	28.55
548.255	28.65
548.452	28.68
548.649	28.8
548.846	28.86
549.043	28.76
549.24	28.79
549.437	28.74
549.633	28.77
549.83	28.92
550.027	28.9
550.224	28.91
550.421	28.78
550.618	28.75
550.814	28.8
551.011	28.82
551.208	28.94
551.405	28.9
551.601	28.98
551.798	28.94
551.995	28.76
552.191	28.75
552.388	28.84
552.585	28.92
552.781	28.98
552.978	28.93
553.175	28.81
553.371	28.83
553.568	28.92
553.764	28.91
553.961	28.96
554.157	29.05
554.354	29.11
554.55	29.01
554.747	28.99
554.943	28.93
555.14	28.93
555.336	29.02
555.533	28.96
555.729	28.91
555.926	28.98
556.122	29.06
556.318	29.16
556.515	29.25
556.711	29.38
556.907	29.33
557.104	29.42
557.3	29.4
557.496	29.4
557.693	29.5
557.889	29.54
558.085	29.49
558.281	29.42
558.478	29.33
558.674	29.22
558.87	29.04
559.066	29.21
559.262	29.26
559.459	29.3
559.655	29.32
559.851	29.33
560.047	29.37
560.243	29.4
560.439	29.44
560.635	29.45
560.831	29.54
561.027	29.63
561.223	29.52
561.419	29.54
561.615	29.56
561.811	29.59
562.007	29.77
562.203	29.73
562.399	29.71
562.595	29.64
562.791	29.64
562.987	29.62
563.183	29.68
563.379	29.71
563.575	29.7
563.771	29.72
563.966	29.72
564.162	29.65
564.358	29.59
564.554	29.62
564.75	29.63
564.945	29.74
565.141	29.82
565.337	29.8
565.533	29.77
565.728	29.79
565.924	29.79
566.12	29.88
566.315	29.77
566.511	29.88
566.707	29.84
566.902	29.89
567.098	29.92
567.293	29.97
567.489	30.09
567.684	30.09
567.88	30.12
568.076	30.16
568.271	30.14
568.467	30.13
568.662	30.13
568.858	30.15
569.053	30.22
569.248	30.15
569.444	30.01
569.639	29.91
569.835	30.08
570.03	30.01
570.225	30.02
570.421	30.02
570.616	30.03
570.812	30.02
571.007	30.02
571.202	30.02
571.397	30
571.593	29.93
571.788	30.02
571.983	29.93
572.178	29.98
572.374	30.03
572.569	30.12
572.764	30.2
572.959	30.21
573.154	30.21
573.35	30.26
573.545	30.23
573.74	30.36
573.935	30.24
574.13	30.33
574.325	30.37
574.52	30.4
574.715	30.39
574.91	30.4
575.105	30.44
575.3	30.45
575.495	30.55
575.69	30.69
575.885	30.82
576.08	31.02
576.275	30.95
576.47	31.02
576.665	31.2
576.86	31.25
577.055	31.4
577.25	31.49
577.444	31.62
577.639	31.67
577.834	31.76
578.029	31.79
578.224	31.8
578.418	31.9
578.613	31.92
578.808	31.75
579.003	31.67
579.197	31.66
579.392	31.6
579.587	31.8
579.781	31.65
579.976	31.56
580.171	31.54
580.365	31.54
580.56	31.58
580.755	31.62
580.949	31.62
581.144	31.63
581.338	31.42
581.533	31.58
581.727	31.53
581.922	31.65
582.116	31.81
582.311	31.89
582.505	31.86
582.7	32.05
582.894	32.21
583.089	32.22
583.283	32.28
583.478	32.42
583.672	32.42
583.866	32.37
584.061	32.37
584.255	32.35
584.449	32.33
584.644	32.37
584.838	32.26
585.032	32.17
585.226	32.27
585.421	32.37
585.615	32.46
585.809	32.51
586.003	32.56
586.198	32.53
586.392	32.5
586.586	32.45
586.78	32.49
586.974	32.56
587.168	32.45
587.363	32.38
587.557	32.33
587.751	32.41
587.945	32.36
588.139	32.28
588.333	32.23
588.527	32.24
588.721	32.25
588.915	32.12
589.109	31.98
589.303	31.87
589.497	31.86
589.691	31.84
589.885	31.59
590.079	31.59
590.273	31.63
590.466	31.73
590.66	31.67
590.854	31.8
591.048	32.09
591.242	32.16
591.436	32.27
591.629	32.38
591.823	32.49
592.017	32.81
592.211	32.76
592.404	32.8
592.598	32.91
592.792	33.02
592.986	32.99
593.179	32.83
593.373	32.82
593.567	32.86
593.76	32.78
593.954	32.73
594.147	32.45
594.341	32.33
594.535	32.32
594.728	32.24
594.922	32.27
595.115	32.14
595.309	32.06
595.502	32
595.696	31.99
595.889	32.05
596.083	32.01
596.276	32.07
596.47	32.28
596.663	32.26
596.856	32.22
597.05	32.17
597.243	32.19
597.437	32.15
597.63	32.34
597.823	32.33
598.017	32.34
598.21	32.46
598.403	32.59
598.596	32.58
598.79	32.6
598.983	32.64
599.176	32.63
599.369	32.66
599.563	32.92
599.756	32.8
599.949	32.85
600.142	32.9
600.335	32.83
600.528	32.82
600.722	32.82
600.915	32.91
601.108	32.96
601.301	33.02
601.494	33.19
601.687	33.27
601.88	33.39
602.073	33.44
602.266	33.34
602.459	33.43
602.652	33.37
602.845	33.4
603.038	33.35
603.231	33.29
603.424	33.25
603.617	33.04
603.809	32.84
604.002	32.6
604.195	32.52
604.388	32.48
604.581	32.46
604.774	32.45
604.966	32.42
605.159	32.42
605.352	32.5
605.545	32.49
605.737	32.65
605.93	32.74
606.123	33.05
606.316	33.1
606.508	33.19
606.701	33.22
606.894	33.37
607.086	33.29
607.279	33.52
607.471	33.55
607.664	33.65
607.857	33.82
608.049	34.06
608.242	34.23
608.434	34.76
608.627	35.15
608.819	35.63
609.012	36.2
609.204	36.83
609.397	37.39
609.589	37.93
609.782	38.75
609.974	39.52
610.166	40.22
610.359	40.88
610.551	41.43
610.743	41.97
610.936	42.49
611.128	42.8
611.32	43.06
611.513	43.06
611.705	43.15
611.897	42.93
612.09	42.64
612.282	42.32
612.474	41.9
612.666	41.52
612.858	41.35
613.051	40.78
613.243	40.41
613.435	40.22
613.627	40.05
613.819	39.8
614.011	39.53
614.203	39.02
614.395	38.8
614.588	38.46
614.78	38.08
614.972	37.68
615.164	37.52
615.356	37.2
615.548	36.69
615.74	36.49
615.932	36.28
616.124	36.09
616.315	36.06
616.507	35.82
616.699	35.85
616.891	35.72
617.083	35.68
617.275	35.47
617.467	35.27
617.659	35.33
617.85	35.05
618.042	34.78
618.234	34.71
618.426	34.69
618.618	34.75
618.809	34.65
619.001	34.72
619.193	34.55
619.384	34.71
619.576	34.93
619.768	34.82
619.959	34.96
620.151	35.06
620.343	35.12
620.534	35.19
620.726	35.15
620.917	35.21
621.109	35.2
621.301	35.25
621.492	35.19
621.684	35.26
621.875	35.31
622.067	35.33
622.258	35.54
622.45	35.63
622.641	35.63
622.832	35.56
623.024	35.48
623.215	35.53
623.407	35.69
623.598	35.73
623.789	35.65
623.981	35.55
624.172	35.73
624.363	35.52
624.555	35.3
624.746	35.17
624.937	35.25
625.129	35.32
625.32	35.1
625.511	34.95
625.702	34.93
625.893	34.86
626.085	34.79
626.276	34.63
626.467	34.69
626.658	34.84
626.849	34.78
627.04	34.74
627.231	34.69
627.422	34.89
627.614	34.81
627.805	34.86
627.996	34.9
628.187	35.14
628.378	35.17
628.569	35.22
628.76	35.14
628.951	35.54
629.142	35.58
629.332	35.47
629.523	35.39
629.714	35.62
629.905	35.66
630.096	35.69
630.287	35.77
630.478	35.84
630.669	35.74
630.859	35.78
631.05	35.62
631.241	35.6
631.432	35.89
631.623	35.88
631.813	35.85
632.004	35.76
632.195	35.61
632.385	35.44
632.576	35.4
632.767	35.4
632.957	35.27
633.148	35.06
633.339	35
633.529	34.83
633.72	34.84
633.91	34.77
634.101	34.63
634.292	34.55
634.482	34.52
634.673	34.61
634.863	34.74
635.054	34.8
635.244	34.87
635.435	34.83
635.625	34.97
635.815	34.87
636.006	34.55
636.196	34.49
636.387	34.69
636.577	34.81
636.767	34.67
636.958	34.57
637.148	34.62
637.338	34.57
637.529	34.61
637.719	34.5
637.909	34.67
638.099	34.81
638.29	34.91
638.48	34.71
638.67	34.8
638.86	34.73
639.05	34.68
639.241	34.8
639.431	34.79
639.621	34.8
639.811	34.83
640.001	34.66
640.191	34.96
640.381	35.06
640.571	35.09
640.761	34.98
640.951	34.79
641.141	34.9
641.331	34.71
641.521	34.9
641.711	34.78
641.901	34.49
642.091	34.66
642.281	34.29
642.471	34.31
642.661	34.46
642.851	34.48
643.041	34.54
643.231	34.44
643.42	34.6
643.61	34.5
643.8	34.66
643.99	34.86
644.18	34.87
644.369	34.99
644.559	34.91
644.749	34.99
644.939	34.83
645.128	35.18
645.318	35.34
645.508	35.12
645.697	35.17
645.887	35.2
646.076	35.26
646.266	35.06
646.456	35.1
646.645	35.23
646.835	35.13
647.024	35.16
647.214	34.84
647.403	34.56
647.593	34.7
647.782	34.81
647.972	34.9
648.161	34.89
648.351	35.04
648.54	35.24
648.73	35.13
648.919	35.22
649.108	35.23
649.298	35.24
649.487	35.49
649.677	35.6
649.866	35.36
650.055	35.24
650.244	35.21
650.434	34.91
650.623	34.86
650.812	34.77
651.002	34.7
651.191	34.76
651.38	34.82
651.569	35.14
651.758	35.08
651.947	35.09
652.137	35.16
652.326	35.23
652.515	35.55
652.704	35.44
652.893	35.45
653.082	35.59
653.271	35.59
653.46	35.69
653.649	35.31
653.838	35.22
654.027	35.3
654.216	35.19
654.405	35.08
654.594	35.16
654.783	35.43
654.972	35.37
655.161	35.2
655.35	35.29
655.539	35.1
655.728	35.09
655.916	35.31
656.105	35.27
656.294	35.51
656.483	35.59
656.672	35.58
656.86	35.33
657.049	35.33
657.238	35.38
657.427	35.3
657.615	35.36
657.804	35.27
657.993	35.18
658.181	35.19
658.37	34.96
658.559	34.96
658.747	34.76
658.936	34.78
659.125	35.05
659.313	34.85
659.502	34.77
659.69	34.95
659.879	35.09
660.067	35.07
660.256	35.11
660.444	35.37
660.633	35.53
660.821	35.65
661.01	35.7
661.198	35.74
661.387	36.11
661.575	36.27
661.763	36.16
661.952	36.08
662.14	36.28
662.328	36.33
662.517	36.1
662.705	35.97
662.893	36.05
663.082	36.08
663.27	35.82
663.458	35.83
663.646	35.88
663.834	36.17
664.023	36.32
664.211	36.26
664.399	36.13
664.587	36.02
664.775	36.04
664.963	35.98
665.152	36.08
665.34	36.18
665.528	35.99
665.716	35.84
665.904	35.73
666.092	35.73
666.28	35.75
666.468	35.73
666.656	35.85
666.844	35.98
667.032	36.08
667.22	36.24
667.408	36.42
667.596	36.43
667.784	36.59
667.971	36.43
668.159	36.31
668.347	36.18
668.535	36.36
668.723	36.44
668.911	36.36
669.098	36.32
669.286	36.11
669.474	36.03
669.662	36.16
669.849	36.14
670.037	36.18
670.225	36.29
670.413	36.56
670.6	36.41
670.788	36.52
670.976	36.3
671.163	36.49
671.351	36.56
671.538	36.51
671.726	36.45
671.913	36.52
672.101	36.36
672.289	36.39
672.476	36.49
672.664	36.65
672.851	36.63
673.039	36.65
673.226	36.48
673.413	36.53
673.601	36.55
673.788	36.59
673.976	36.48
674.163	36.72
674.35	36.62
674.538	36.66
674.725	36.85
674.912	36.71
675.1	37.03
675.287	37.14
675.474	37.04
675.662	37.22
675.849	36.92
676.036	37.03
676.223	36.77
676.411	36.56
676.598	36.03
676.785	35.97
676.972	35.79
677.159	35.66
677.346	35.67
677.533	35.53
677.721	35.25
677.908	35.56
678.095	35.27
678.282	35.32
678.469	35.57
678.656	35.85
678.843	35.65
679.03	35.81
679.217	35.87
679.404	35.7
679.591	35.74
679.778	35.65
679.964	35.64
680.151	35.77
680.338	36.06
680.525	36.02
680.712	36.32
680.899	36.26
681.086	36.54
681.272	36.38
681.459	36.26
681.646	36.26
681.833	36.44
682.02	36.52
682.206	36.76
682.393	36.63
682.58	36.64
682.766	36.17
682.953	36.33
683.14	35.86
683.326	35.95
683.513	36.33
683.7	36.4
683.886	36.57
684.073	36.33
684.259	35.89
684.446	36.16
684.632	36.26
684.819	36.36
685.005	36.43
685.192	36.67
685.378	36.86
685.565	36.68
685.751	36.81
685.938	36.85
686.124	37.1
686.31	37.49
686.497	37.22
686.683	36.91
686.87	36.96
687.056	36.67
687.242	36.91
687.429	36.87
687.615	36.92
687.801	36.73
687.987	36.79
688.174	36.91
688.36	36.91
688.546	36.71
688.732	37.05
688.918	37.17
689.105	37.42
689.291	37.24
689.477	37.14
689.663	37.11
689.849	37.45
690.035	37.23
690.221	36.89
690.407	36.87
690.593	37.2
690.779	37.12
690.965	36.85
691.151	36.94
691.337	36.85
691.523	36.77
691.709	36.82
691.895	36.69
692.081	36.57
692.267	36.83
692.453	36.9
692.639	36.74
692.825	36.72
693.011	37
693.196	36.79
693.382	36.93
693.568	36.89
693.754	36.72
693.94	36.86
694.125	36.89
694.311	37.1
694.497	36.87
694.682	37
694.868	36.98
695.054	36.84
695.239	37.26
695.425	37.25
695.611	37.4
695.796	37.44
695.982	37.06
696.168	36.96
696.353	36.61
696.539	36.62
696.724	36.64
696.91	36.66
697.095	36.65
697.281	36.32
697.466	36.37
697.652	36.31
697.837	36.09
698.023	36.18
698.208	36.22
698.393	36.33
698.579	36.19
698.764	36.01
698.949	36.05
699.135	35.93
699.32	35.8
699.505	35.79
699.691	35.68
699.876	35.97
700.061	36.09
700.246	36.23
700.432	36.18
700.617	36.4
700.802	36.64
700.987	36.69
701.172	36.63
701.358	37.13
701.543	37.17
701.728	37.4
701.913	37.17
702.098	37.2
702.283	37.15
702.468	37.18
702.653	36.92
702.838	36.91
703.023	36.75
703.208	37.04
703.393	36.9
703.578	37.04
703.763	37.33
703.948	37.52
704.133	37.57
704.318	37.68
704.503	37.89
704.688	38.46
704.873	38.46
705.057	38.9
705.242	39.17
705.427	39.37
705.612	39.75
705.797	39.73
705.981	40.17
706.166	40.25
706.351	40.46
706.536	40.59
706.72	40.63
706.905	40.8
707.09	40.86
707.274	41.04
707.459	40.87
707.644	40.3
707.828	40.24
708.013	40.04
708.197	40.28
708.382	39.97
708.567	40
708.751	39.74
708.936	39.87
709.12	39.87
709.305	39.54
709.489	39.72
709.673	39.83
709.858	39.79
710.042	39.84
710.227	39.65
710.411	39.47
710.596	39.34
710.78	39.68
710.964	39.52
711.149	39.55
711.333	39.83
711.517	39.81
711.702	39.74
711.886	39.63
712.07	39.63
712.254	39.35
712.438	39.46
712.623	39.14
712.807	38.97
712.991	38.52
713.175	38.2
713.359	37.65
713.544	37.61
713.728	37.81
713.912	37.68
714.096	37.34
714.28	37.26
714.464	37.03
714.648	37.1
714.832	36.98
715.016	37.18
715.2	36.92
715.384	37.07
715.568	36.64
715.752	36.4
715.936	36.59
716.12	36.46
716.304	36.56
716.488	36.79
716.671	36.47
716.855	36.47
717.039	36.2
717.223	36.31
717.407	36.29
717.59	36.61
717.774	36.71
717.958	36.4
718.142	36.55
718.325	36.55
718.509	36.68
718.693	37.02
718.877	36.86
719.06	36.88
719.244	36.81
719.428	36.75
719.611	36.65
719.795	36.52
719.978	35.93
720.162	36.16
720.345	36.5
720.529	36.19
720.713	35.89
720.896	35.9
721.08	36.34
721.263	36.3
721.446	36.48
721.63	36.47
721.813	36.79
721.997	37.15
722.18	36.81
722.364	36.71
722.547	36.72
722.73	36.44
722.914	36.44
723.097	36.21
723.28	36.47
723.464	36.11
723.647	35.85
723.83	35.06
724.013	35.44
724.197	35.52
724.38	35.29
724.563	35.15
724.746	35.32
724.929	35.23
725.112	35.14
725.296	35.17
725.479	35.41
725.662	35.27
725.845	35.77
726.028	35.8
726.211	35.98
726.394	35.83
726.577	35.76
726.76	35.83
726.943	35.62
727.126	35.97
727.309	35.94
727.492	35.79
727.675	35.83
727.858	35.69
728.041	35.98
728.224	35.71
728.407	36.05
728.589	36.67
728.772	37.07
728.955	37.33
729.138	37.17
729.321	36.76
729.503	36.44
729.686	36.73
729.869	36.81
730.052	36.37
730.234	36.37
730.417	36.18
730.6	36.08
730.782	35.83
730.965	35.9
731.148	36.01
731.33	36.38
731.513	36.63
731.695	36.7
731.878	36.38
732.061	36.55
732.243	36.34
732.426	36.47
732.608	36.09
732.791	36.93
732.973	36.92
733.156	36.6
733.338	36.39
733.52	36.55
733.703	36.43
733.885	36.65
734.068	36.88
734.25	37.29
734.432	37.3
734.615	37.72
734.797	36.86
734.979	36.67
735.162	36.64
735.344	37
735.526	36.75
735.708	37.03
735.891	37.34
736.073	37.25
736.255	37.82
736.437	37.47
736.619	37.21
736.802	37.49
736.984	37.43
737.166	37.77
737.348	37.62
737.53	38.08
737.712	37.7
737.894	37.74
738.076	38.01
738.258	37.96
738.44	38.11
738.622	38.01
738.804	37.92
738.986	38.5
739.168	38.32
739.35	37.86
739.532	37.66
739.714	37.62
739.896	37.25
740.078	36.85
740.259	36.2
740.441	36.09
740.623	36.18
740.805	36.5
740.987	36.48
741.168	36.55
741.35	36.94
741.532	37.2
741.714	37.47
741.895	38.02
742.077	37.8
742.259	38.13
742.44	38.92
742.622	38.77
742.804	37.96
742.985	38
743.167	38.14
743.348	38.63
743.53	38.89
743.711	38.69
743.893	38.42
744.075	38.89
744.256	38.99
744.438	38.78
744.619	38.96
744.8	39.79
744.982	39.05
745.163	39.01
745.345	39.23
745.526	38.89
745.707	39.07
745.889	39.18
746.07	38.91
746.252	38.97
746.433	38.99
746.614	39.81
746.795	39.9
746.977	39.42
747.158	39.49
747.339	38.47
747.52	38.77
747.702	39.5
747.883	39.13
748.064	39.28
748.245	38.86
748.426	38.66
748.607	38.17
748.788	37.65
748.97	38.39
749.151	38.3
749.332	38.76
749.513	38.22
749.694	37.4
749.875	37.64
750.056	38.06
750.237	38.55
750.418	38.01
750.599	38.12
750.78	37.96
750.96	38.07
751.141	39.1
751.322	38.54
751.503	38.18
751.684	38.39
751.865	39.11
752.046	38.67
752.226	38.35
752.407	39.38
752.588	39.57
752.769	39.87
752.949	39.85
753.13	38.92
753.311	39.9
753.492	40.28
753.672	40.41
753.853	39.49
754.034	39.37
754.214	39.41
754.395	38.96
754.575	37.96
754.756	38.07
754.937	38.26
755.117	38.32
755.298	37.87
755.478	37.92
755.659	37.49
755.839	37.69
756.02	37.58
756.2	36.73
756.381	36.82
756.561	37.38
756.741	37.23
756.922	37.33
757.102	37.52
757.283	37.36
757.463	37.06
757.643	36.89
757.823	36.17
758.004	35.74
758.184	35.62
758.364	35.02
758.545	34.6
758.725	34.39
758.905	33.92
759.085	33.08
759.265	32.88
759.446	32.36
759.626	32.84
759.806	32.45
759.986	32.3
760.166	32.3
760.346	32.11
760.526	31.87
760.706	31.92
760.886	31.92
761.066	32.24
761.246	32.86
761.426	33.67
761.606	32.79
761.786	33.54
761.966	33.66
762.146	34.4
762.326	34.5
762.506	34.84
762.686	34.69
762.866	34.51
763.046	34.37
763.225	33.59
763.405	33.34
763.585	33.68
763.765	33.45
763.945	33.04
764.124	32.93
764.304	33.15
764.484	32.69
764.664	32.79
764.843	33.28
765.023	33.66
765.203	33.99
765.382	34.36
765.562	34.52
765.741	34.64
765.921	35.84
766.101	36.09
766.28	36.35
766.46	37.21
766.639	37.54
766.819	37.15
766.998	36.78
767.178	37.15
767.357	36.73
767.537	37.16
767.716	37.46
767.896	36.71
768.075	36.2
768.254	36.7
768.434	37.05
768.613	36.53
768.792	37.09
768.972	37.49
769.151	37.29
769.33	37.81
769.51	37.98
769.689	37.91
769.868	38.13
770.047	38.72
770.226	38.06
770.406	37.16
770.585	36.97
770.764	36.13
770.943	36.7
771.122	36.7
771.301	36.32
771.48	35.83
771.66	36.39
771.839	37.37
772.018	37.1
772.197	37.6
772.376	38.1
772.555	38.85
772.734	39.72
772.913	39.03
773.092	38.96
773.271	38.71
773.449	38.61
773.628	38.22
773.807	38.1
773.986	39.12
774.165	39.52
774.344	39.68
774.523	39.46
774.701	39.21
774.88	39.35
775.059	39.43
775.238	40.74
775.417	41.59
775.595	42
775.774	41.36
775.953	41.21
776.131	39.47
776.31	39
776.489	40.19
776.667	40
776.846	39.88
777.025	40.33
777.203	39.92
777.382	39.29
777.56	38.8
777.739	40.42
777.917	39.13
778.096	39.97
778.274	40.66
778.453	40.46
778.631	40.83
778.81	41.07
778.988	41.41
779.166	41.12
779.345	41.4
779.523	42.01
779.702	40.96
779.88	41.86
780.058	42.25
780.237	41.81
780.415	40.65
780.593	40.96
780.771	40.72
780.95	40.21
781.128	39.53
781.306	38.39
781.484	38.42
781.662	37.82
781.841	37.27
782.019	36.53
782.197	37.06
782.375	37.22
782.553	36.62
782.731	37.08
782.909	36.39
783.087	37.54
783.265	37.62
783.443	37.41
783.621	37.8
783.799	38.57
783.977	38.54
784.155	37.73
784.333	37.79
784.511	38.3
784.689	38.18
784.867	39.58
785.045	37.97
785.223	38.37
785.4	38.71
785.578	37.95
785.756	38.11
785.934	37.72
786.112	38.05
786.289	38.36
786.467	37.49
786.645	37.47
786.823	36.47
787	37.36
787.178	37.41
787.356	36.66
787.533	37.7
787.711	36.88
787.889	37.67
788.066	37.31
788.244	36.68
788.421	36.8
788.599	36.27
788.776	36.22
788.954	36.32
789.131	36.85
789.309	37.08
789.486	36.72
789.664	36.64
789.841	36.96
790.019	38.15
790.196	39.39
790.373	39.4
790.551	40.31
790.728	40.75
790.906	40.68
791.083	40.24
791.26	40.1
791.437	39.42
791.615	39.58
791.792	39.36
791.969	38.32
792.146	37.17
792.324	37.28
792.501	35.99
792.678	35.5
792.855	35.63
793.032	35.65
793.209	35.95
793.387	35.51
793.564	35.95
793.741	36
793.918	36.29
794.095	36
794.272	35.49
794.449	36.91
794.626	37.71
794.803	37.74
794.98	38.04
795.157	37.46
795.334	38.78
795.511	38.42
795.688	37.59
795.864	37.3
796.041	37.63
796.218	38.27
796.395	37.63
796.572	37.62
796.749	37.88
796.925	37.28
797.102	37.75
797.279	37.33
797.456	37.58
797.632	38.36
797.809	38.58
797.986	38.71
798.162	38
798.339	37.83
798.516	37.26
798.692	37.38
798.869	38.03
799.046	37.44
799.222	37.44
799.399	37.17
799.575	36.58
799.752	36.11
799.928	36.77
800.105	36.54
800.281	36.7
800.458	37.53
800.634	36.78
800.811	36.76
800.987	38.1
801.163	38.32
801.34	39.26
801.516	39.43
801.692	39.38
801.869	38.71
802.045	39.6
802.221	40.17
802.398	39.18
802.574	39.83
802.75	39.98
802.926	39.4
803.103	39.34
803.279	38.48
803.455	38.99
803.631	39.52
803.807	39.29
803.983	40.04
804.16	39.83
804.336	39.91
804.512	38.91
804.688	39
804.864	38.59
805.04	37.75
805.216	39.09
805.392	38.85
805.568	38.91
805.744	39.48
805.92	39.12
806.096	38.23
806.272	38.93
806.448	39.16
806.623	39.22
806.799	38.87
806.975	39.93
807.151	37.1
807.327	36.7
807.503	35.9
807.678	35.86
807.854	35.76
808.03	36.24
808.206	34.95
808.381	34.54
808.557	33.69
808.733	35.12
808.908	35.86
809.084	38.25
809.26	38.12
809.435	38.66
809.611	38.34
809.787	38.8
809.962	38.39
810.138	39.11
810.313	39.46
810.489	39.62
810.664	39.23
810.84	39.09
811.015	37.74
811.191	38.14
811.366	38.83
811.542	38.11
811.717	36.41
811.892	36.91
812.068	36.66
812.243	37.04
812.419	37.21
812.594	35.62
812.769	34.58
812.944	34.14
813.12	33.18
813.295	32.32
813.47	32.02
813.645	33.09
813.821	32.39
813.996	32.03
814.171	31.02
814.346	30.1
814.521	30.87
814.697	30.57
814.872	32.98
815.047	33.11
815.222	32.79
815.397	32.67
815.572	31.97
815.747	32.67
815.922	33.75
816.097	33.6
816.272	34.25
816.447	34.48
816.622	33.8
816.797	32.94
816.972	32.9
817.147	34.07
817.322	34.51
817.496	34.59
817.671	34.08
817.846	33.8
818.021	34.53
818.196	33.84
818.371	33.88
818.545	34.37
818.72	33.08
818.895	33.7
819.069	34.03
819.244	33.41
819.419	34.32
819.594	33.99
819.768	33.49
819.943	33.57
820.117	33.27
820.292	32.44
820.467	32.72
820.641	32.63
820.816	31.93
820.99	30.93
821.165	30.71
821.339	30.37
821.514	30.22
821.688	30.09
821.863	29.86
822.037	30.18
822.212	29.85
822.386	29.36
822.56	29.33
822.735	29.09
822.909	28.91
823.084	28.9
823.258	28.7
823.432	28.67
823.606	28.39
823.781	28.24
823.955	28.04
824.129	28.27
824.303	28.63
824.478	28.68
824.652	28.67
824.826	28.65
825	28.57
825.174	28.57
825.348	28.22
825.523	28.63
825.697	28.32
825.871	28.18
826.045	28.13
826.219	27.73
826.393	27.5
826.567	27.98
826.741	28.01
826.915	28.24
827.089	28.03
827.263	28.46
827.437	28.67
827.611	28.9
827.784	28.26
827.958	28.36
828.132	28.54
828.306	28.56
828.48	28.22
828.654	28.85
828.827	28.73
829.001	28.96
829.175	28.29
829.349	27.26
829.522	27.85
829.696	29.16
829.87	29.28
830.044	29.38
830.217	29.62
830.391	29.36
830.565	28.51
830.738	28.55
830.912	28.81
831.085	28.8
831.259	31.22
831.432	29.18
831.606	27.87
831.779	28.06
831.953	28.24
832.126	28.02
832.3	28.35
832.473	28.61
832.647	28.85
832.82	27.81
832.994	28.03
833.167	27.2
833.34	28.04
833.514	28.53
833.687	28.71
833.86	28.75
834.034	28.12
834.207	28.66
834.38	29.05
834.553	29.43
834.727	30.51
834.9	30.83
835.073	30.79
835.246	31.13
835.419	30.81
835.593	30.53
835.766	30.04
835.939	30.72
836.112	30.12
836.285	29.22
836.458	28.1
836.631	27.21
836.804	26.13
836.977	26.32
837.15	25.58
837.323	26.03
837.496	26.04
837.669	26.34
837.842	27.29
838.015	27.26
838.188	27.9
838.361	29
838.533	28.82
838.706	31.57
838.879	31.2
839.052	32.08
839.225	33.08
839.398	31.61
839.57	31.92
839.743	31.94
839.916	32.16
840.088	32.76
840.261	33.04
840.434	33.66
840.607	34.56
840.779	36.82
840.952	36.13
841.124	34.42
841.297	36.47
841.47	36.11
841.642	36.27
841.815	37.74
841.987	38.46
842.16	38.42
842.332	38.07
842.505	35.26
842.677	35.51
842.85	35.36
843.022	38.18
843.194	37.99
843.367	41.86
843.539	42.12
843.712	40.91
843.884	42.62
844.056	42.81
844.229	42.25
844.401	44.46
844.573	43.5
844.745	46.17
844.918	46
845.09	43.01
845.262	36.11
845.434	33.88
845.606	35.52
845.779	33.31
845.951	33.23
846.123	36.02
846.295	33.71
846.467	33.61
846.639	32.95
846.811	32.31
846.983	35.47
847.155	38.94
847.327	41.5
847.499	42.17
847.671	41.03
847.843	39.57
848.015	36.31
848.187	38.27
848.359	37.64
848.531	37.62
848.703	37.62
848.875	39.42
849.047	40.73
849.218	42.15
849.39	42.51
849.562	41.18
849.734	42.55
849.905	44.8
850.077	42.14
850.249	41.91
850.421	43.4
850.592	43.77
850.764	43.27
850.936	41.98
851.107	39.75
851.279	40.26
851.451	42.06
851.622	39.25
851.794	37.84
851.965	38.48
852.137	38.59
852.308	38.33
852.48	37.92
852.651	36.29
852.823	34.51
852.994	33.2
853.166	33.35
853.337	32.97
853.509	37.48
853.68	35
853.851	37.55
854.023	36.24
854.194	33.92
854.365	31.35
854.537	34
854.708	35.44
854.879	34.25
855.05	33.59
855.222	33.76
855.393	31.47
855.564	33.6
855.735	32.41
855.906	32.27
856.078	31.43
856.249	32.49
856.42	29.94
856.591	30.38
856.762	32.84
856.933	32.25
857.104	31.96
857.275	34.31
857.446	35.85
857.617	34.94
857.788	34
857.959	29.46
858.13	31.44
858.301	29.31
858.472	28.54
858.643	29.3
858.814	27.41
858.985	31.52
859.155	28.37
859.326	32.01
859.497	34.82
859.668	33.52
859.839	40.12
860.009	37.78
860.18	40.13
860.351	41.24
860.522	41.69
860.692	41.84
860.863	37.24
861.034	39.39
861.204	39.24
861.375	37.93
861.546	39.53
861.716	37.34
861.887	38.13
862.057	38.8
862.228	38.76
862.398	35.24
862.569	38.19
862.739	40.36
862.91	36.19
863.08	29.99
863.251	28.6
863.421	30.02
863.592	30.11
863.762	30.93
863.932	28.48
864.103	31.06
864.273	30.82
864.443	27.32
864.614	23.9
864.784	28.52
864.954	32.4
865.125	33.49
865.295	34.45
865.465	34.44
865.635	35.17
865.805	34.03
865.976	28.55
866.146	29.95
866.316	32.05
866.486	34.04
866.656	33.49
866.826	34.17
866.996	33.52
867.166	32.58
867.336	32.07
867.506	33.42
867.676	35.98
867.846	33.19
868.016	33.56
868.186	31
868.356	30.23
868.526	32.75
868.696	34.5
868.866	34.44
869.036	35.37
869.206	36.87
869.376	33.87
869.545	30.37
869.715	36.67
869.885	33.85
870.055	38
870.224	39.36
870.394	37.92
870.564	36.67
870.734	37.67
870.903	33.95
871.073	36.47
871.243	37.81
871.412	40.59
871.582	43.27
871.751	47.18
871.921	42.39
872.091	41.53
872.26	41.72
872.43	37.03
872.599	35.36
872.769	38.14
872.938	34.05
873.108	32.75
873.277	33.27
873.446	28.42
873.616	27.41
873.785	29.73
873.955	27.64
874.124	27.29
874.293	27.62
874.463	27.94
874.632	25.27
874.801	27.85
874.971	32.44
875.14	30.48
875.309	29.49
875.478	29.84
875.647	33.02
875.817	34.2
875.986	34.75
876.155	39.34
876.324	40.33
876.493	41.11
876.662	39.05
876.831	33.49
877	32.3
877.17	33.08
877.339	33.63
877.508	29.52
877.677	33.48
877.846	28.91
878.015	25.16
878.184	21.94
878.352	20.86
878.521	21.67
878.69	23.93
878.859	25.99
879.028	28.78
879.197	29.41
879.366	26.39
879.534	25.45
879.703	28.07
879.872	27.79
880.041	30.73
880.21	30.04
880.378	29.44
880.547	28.08
880.716	26.93
880.884	26.6
881.053	26.15
881.222	27.52
881.39	25.67
881.559	25.06
881.727	25.35
881.896	24.47
882.065	24.56
882.233	24.64
882.402	24.41
882.57	25.18
882.739	24.52
882.907	24.76
883.076	24.18
883.244	24.87
883.412	24.92
883.581	24.79
883.749	24.49
883.918	24.55
884.086	24.38
884.254	23.61
884.423	22.5
884.591	22.28
884.759	20.94
884.927	21.8
885.096	21.49
885.264	20.96
885.432	19.95
885.6	21.56
885.769	20.42
885.937	18.6
886.105	20.26
886.273	20.63
886.441	22.1
886.609	22.42
886.777	20.58
886.945	22.83
887.113	23.44
887.281	25.03
887.449	23.35
887.617	22.48
887.785	22.56
887.953	24.15
888.121	25.62
888.289	24.55
888.457	23.36
888.625	23.09
888.793	22.18
888.961	20.8
889.129	18.63
889.296	17.45
889.464	20.01
889.632	23.13
889.8	22.75
889.967	20.83
890.135	21.96
