Data from 2938823__Reflection_03.txt Node
Date: Thu Mar 12 14:13:03 EDT 2015
User: robert
Spectrometer: USB4E03002
Autoset integration time: false
Trigger mode: 4
Integration Time (sec): 1.000000E-1
Scans to average: 10
Electric dark correction enabled: false
Nonlinearity correction enabled: false
Boxcar width: 5
Stray light correction enabled: false
XAxis mode: Wavelengths
Stop averaging: false
Number of Pixels in Spectrum: 3648
>>>>>Begin Spectral Data<<<<<
177.575	56.62
177.794	84.27
178.014	92.05
178.233	91.08
178.452	89.5
178.672	108.33
178.891	114.29
179.11	172.73
179.33	181.6
179.549	237.94
179.768	302.43
179.987	408.75
180.207	467.54
180.426	326.83
180.645	439.34
180.864	587.63
181.084	373.86
181.303	605.29
181.522	534.89
181.741	739.1
181.96	611.6
182.179	328.93
182.398	285.82
182.618	218.53
182.837	277.18
183.056	242.48
183.275	293.64
183.494	237.02
183.713	172.89
183.932	175.55
184.151	184.99
184.37	227.33
184.589	255.18
184.808	305.16
185.027	410.86
185.246	362.3
185.465	431.58
185.684	342.95
185.903	489.77
186.122	711.03
186.341	347.97
186.56	357.75
186.779	617.82
186.998	604.6
187.216	339.18
187.435	185.61
187.654	265.03
187.873	268.91
188.092	420.3
188.311	3273.68
188.53	-5007.14
188.748	-2500
188.967	-21450
189.186	618.18
189.405	376.44
189.623	798.97
189.842	-522.88
190.061	-623.53
190.28	-746.08
190.498	87500
190.717	724.48
190.936	18640
191.154	1712.9
191.373	964.08
191.592	-2093.75
191.81	813.61
192.029	1492
192.248	748.87
192.466	550.75
192.685	425.27
192.904	437.7
193.122	330.41
193.341	230.95
193.559	166.42
193.778	159.97
193.996	122.47
194.215	115.82
194.433	93.24
194.652	91
194.87	116.02
195.089	153.51
195.307	127.25
195.526	154.29
195.744	136.34
195.963	274.76
196.181	-11060
196.399	452.44
196.618	454.64
196.836	509.09
197.055	6900
197.273	402.93
197.491	290.93
197.71	383.23
197.928	372.47
198.146	606.85
198.365	430.43
198.583	403.31
198.801	461.89
199.019	578.18
199.238	511.33
199.456	300.87
199.674	412.2
199.892	551.25
200.111	259.75
200.329	251.02
200.547	256.5
200.765	272.26
200.983	194.88
201.202	195.02
201.42	162.52
201.638	162.55
201.856	160.95
202.074	130.98
202.292	135.5
202.51	164.16
202.728	166.67
202.946	160.38
203.165	131.11
203.383	121.98
203.601	122.36
203.819	131.52
204.037	181.99
204.255	134.22
204.473	138.35
204.691	128.95
204.909	100.17
205.127	94.15
205.345	82.8
205.562	76.24
205.78	84.01
205.998	91.48
206.216	88.82
206.434	86.77
206.652	96.36
206.87	108.94
207.088	122.77
207.306	138.03
207.523	129.45
207.741	121.18
207.959	137.35
208.177	145.03
208.395	138.82
208.612	129.62
208.83	144.59
209.048	184.53
209.266	182.59
209.483	132.01
209.701	135.48
209.919	155.29
210.136	181.13
210.354	177.16
210.572	171.23
210.79	165.06
211.007	167.65
211.225	137.8
211.442	141.62
211.66	97.3
211.878	146.67
212.095	116.38
212.313	118.26
212.53	123.93
212.748	121.95
212.966	115.94
213.183	87.97
213.401	129.06
213.618	138.02
213.836	114.72
214.053	155.08
214.271	118.18
214.488	137.22
214.705	132.32
214.923	104.47
215.14	96.07
215.358	107.76
215.575	128.33
215.793	106.49
216.01	108.07
216.227	111.53
216.445	88.11
216.662	95.37
216.879	78.19
217.097	73.17
217.314	69.99
217.531	66.07
217.749	60.41
217.966	52.14
218.183	77.94
218.4	75.3
218.618	58.91
218.835	57.33
219.052	40.08
219.269	43.92
219.487	48.78
219.704	56.82
219.921	49.96
220.138	43.55
220.355	35.55
220.572	26.28
220.79	24.5
221.007	42.46
221.224	49.15
221.441	55.43
221.658	46.38
221.875	43.98
222.092	46.49
222.309	50.82
222.526	51.43
222.743	54.88
222.96	53.37
223.177	50.89
223.394	42.44
223.611	40.82
223.828	36.58
224.045	40.02
224.262	39.98
224.479	32.9
224.696	32.22
224.913	33.31
225.13	33.7
225.347	33.55
225.564	33.05
225.781	35.15
225.997	30.22
226.214	28.11
226.431	25.56
226.648	22.32
226.865	22.12
227.082	16.11
227.298	13.18
227.515	11.7
227.732	9.71
227.949	9.27
228.165	7.82
228.382	8.21
228.599	8.35
228.816	8.85
229.032	9.18
229.249	8.71
229.466	9.27
229.682	10.04
229.899	9.99
230.116	11.1
230.332	11.92
230.549	11.78
230.765	11.74
230.982	12.01
231.199	11.51
231.415	11.88
231.632	12.28
231.848	13.28
232.065	13.21
232.281	13.77
232.498	14.14
232.714	12.85
232.931	14.38
233.147	15.18
233.364	15.14
233.58	14.87
233.797	14.64
234.013	15.43
234.23	15.09
234.446	14.28
234.662	14.69
234.879	14.2
235.095	13.93
235.312	13.84
235.528	15.13
235.744	14.2
235.961	15.91
236.177	16.04
236.393	15.5
236.61	16.91
236.826	18.77
237.042	19.42
237.258	18.15
237.475	18.41
237.691	17.62
237.907	16.8
238.123	17.22
238.339	15.3
238.556	13.78
238.772	15.15
238.988	14.51
239.204	13.77
239.42	12.09
239.636	12.53
239.853	13.13
240.069	13.59
240.285	13.04
240.501	12.38
240.717	12.33
240.933	12.21
241.149	10.56
241.365	10.52
241.581	10.12
241.797	9.94
242.013	9.16
242.229	9.23
242.445	9.08
242.661	9.57
242.877	9.58
243.093	8.93
243.309	8.94
243.525	9.81
243.741	9.65
243.957	9.96
244.173	9.74
244.388	10.7
244.604	10.27
244.82	9.57
245.036	8.97
245.252	8.67
245.468	9.04
245.683	8.92
245.899	8.21
246.115	8.02
246.331	7.55
246.547	7.61
246.762	7.02
246.978	6.94
247.194	7.08
247.409	6.92
247.625	7.37
247.841	7.74
248.057	7.85
248.272	8.02
248.488	7.83
248.703	7.77
248.919	7.83
249.135	8.17
249.35	8.44
249.566	8.64
249.782	8.81
249.997	8.34
250.213	7.56
250.428	7.74
250.644	7.74
250.859	7.98
251.075	7.49
251.29	7.18
251.506	7.52
251.721	7.29
251.937	6.76
252.152	6.53
252.368	6.36
252.583	6.12
252.798	6.01
253.014	6.1
253.229	6.55
253.445	7.37
253.66	7.93
253.875	8.23
254.091	9.26
254.306	10.05
254.521	10.32
254.737	10.27
254.952	10.73
255.167	9.74
255.383	8.8
255.598	8.4
255.813	8.73
256.028	8.41
256.244	7.56
256.459	6.3
256.674	6.39
256.889	6.23
257.104	7.18
257.32	6.9
257.535	7.11
257.75	7.48
257.965	6.94
258.18	6.27
258.395	5.78
258.61	5.85
258.826	5.71
259.041	4.96
259.256	5.03
259.471	4.88
259.686	4.97
259.901	5.17
260.116	4.99
260.331	4.77
260.546	4.74
260.761	4.69
260.976	4.38
261.191	4.53
261.406	5.14
261.621	5.06
261.836	4.92
262.05	4.61
262.265	4.12
262.48	4.28
262.695	5.16
262.91	5.97
263.125	6.52
263.34	6.69
263.555	6.34
263.769	6.19
263.984	6.36
264.199	6.44
264.414	7.34
264.629	7.89
264.843	7.38
265.058	7.03
265.273	6.04
265.488	5.64
265.702	6.06
265.917	6.82
266.132	6.9
266.346	6.8
266.561	7.15
266.776	6.78
266.99	6.59
267.205	6.58
267.42	6.56
267.634	6.53
267.849	6.43
268.063	6.31
268.278	5.64
268.492	5.5
268.707	5.84
268.922	5.65
269.136	5.21
269.351	5.04
269.565	5
269.78	4.86
269.994	4.81
270.209	5.16
270.423	4.86
270.637	4.92
270.852	4.92
271.066	4.43
271.281	4.3
271.495	4.45
271.709	4.42
271.924	4.8
272.138	5.03
272.353	5.23
272.567	5.03
272.781	5.28
272.996	5.52
273.21	5.62
273.424	6.04
273.638	6.18
273.853	6.26
274.067	6.4
274.281	6.14
274.495	5.61
274.71	5.58
274.924	5.74
275.138	5.76
275.352	5.34
275.566	5.77
275.781	5.93
275.995	5.69
276.209	5.85
276.423	5.34
276.637	5.6
276.851	5.66
277.065	6.09
277.279	5.83
277.493	5.96
277.707	6.2
277.921	5.43
278.135	4.94
278.349	5.02
278.563	4.84
278.777	5.17
278.991	4.86
279.205	5.01
279.419	4.68
279.633	5.42
279.847	5.19
280.061	5.41
280.275	6.01
280.489	6.07
280.703	5.99
280.917	6.05
281.131	6.16
281.344	6.51
281.558	6.6
281.772	6.77
281.986	6.34
282.2	6.42
282.414	6.19
282.627	5.91
282.841	6.15
283.055	6.08
283.269	5.93
283.482	5.97
283.696	5.53
283.91	5.72
284.123	5.59
284.337	5.55
284.551	5.42
284.764	5.09
284.978	5.13
285.192	4.58
285.405	4.52
285.619	4.74
285.833	4.46
286.046	4.52
286.26	4.19
286.473	4
286.687	4.43
286.9	4.59
287.114	5.01
287.327	4.96
287.541	5.41
287.754	5.61
287.968	5.49
288.181	5.55
288.395	5.79
288.608	5.69
288.822	5.99
289.035	5.47
289.248	5.26
289.462	4.99
289.675	4.6
289.889	4.47
290.102	4.17
290.315	4.37
290.529	4.6
290.742	4.6
290.955	4.71
291.169	4.4
291.382	4.63
291.595	4.92
291.808	5.24
292.022	5.18
292.235	5.17
292.448	5.48
292.661	5.33
292.875	5.35
293.088	5.18
293.301	5.27
293.514	5.21
293.727	5.11
293.94	4.69
294.153	4.41
294.367	4.82
294.58	4.64
294.793	4.74
295.006	4.72
295.219	4.72
295.432	4.81
295.645	4.99
295.858	5.12
296.071	5.15
296.284	5.43
296.497	5.47
296.71	5.57
296.923	5.69
297.136	5.78
297.349	5.98
297.562	6.01
297.775	5.89
297.988	5.93
298.201	5.99
298.414	6.07
298.626	6.06
298.839	5.99
299.052	6.06
299.265	5.95
299.478	5.94
299.691	5.78
299.903	5.88
300.116	6.18
300.329	6.07
300.542	5.88
300.755	6.06
300.967	5.98
301.18	6.21
301.393	6.22
301.605	6.58
301.818	6.28
302.031	6.38
302.243	6.24
302.456	6.26
302.669	6.79
302.881	7.06
303.094	6.92
303.307	7.4
303.519	7.55
303.732	7.6
303.944	7.65
304.157	8.14
304.37	8.11
304.582	8.15
304.795	7.87
305.007	7.62
305.22	7.87
305.432	8.18
305.645	7.52
305.857	7.41
306.069	7.52
306.282	7.55
306.494	7.02
306.707	7.16
306.919	7.56
307.132	7.7
307.344	7.96
307.556	8.07
307.769	7.71
307.981	7.99
308.193	7.86
308.406	7.89
308.618	7.9
308.83	8.12
309.043	8.33
309.255	7.9
309.467	7.81
309.679	7.55
309.892	7.06
310.104	7.4
310.316	7.44
310.528	7.5
310.74	7.27
310.953	7.38
311.165	7.5
311.377	7.24
311.589	7.54
311.801	7.65
312.013	7.62
312.225	7.93
312.437	7.84
312.649	7.76
312.862	7.92
313.074	8.18
313.286	8.33
313.498	8.28
313.71	8.59
313.922	8.45
314.134	8.44
314.346	8.37
314.558	8.26
314.77	8.23
314.982	8.59
315.193	8.83
315.405	8.52
315.617	8.19
315.829	8.25
316.041	7.92
316.253	7.98
316.465	8.24
316.677	8.46
316.888	8.55
317.1	8.94
317.312	8.54
317.524	8.54
317.736	8.97
317.947	8.93
318.159	8.25
318.371	8.5
318.583	8.55
318.794	7.97
319.006	8.36
319.218	8.39
319.43	8.06
319.641	8.68
319.853	8.69
320.064	8.32
320.276	8.7
320.488	9.41
320.699	9.3
320.911	9.65
321.123	10.13
321.334	9.3
321.546	9.43
321.757	9.87
321.969	9.79
322.18	9.88
322.392	10.22
322.603	10.1
322.815	10.19
323.026	10.38
323.238	9.82
323.449	10.14
323.661	10.16
323.872	10.24
324.083	9.44
324.295	9.16
324.506	8.9
324.718	8.77
324.929	8.51
325.14	8.3
325.352	8.52
325.563	8.88
325.774	8.63
325.986	9.04
326.197	8.59
326.408	8.96
326.62	8.97
326.831	9.16
327.042	9.06
327.253	8.87
327.464	8.94
327.676	8.26
327.887	8.15
328.098	8.53
328.309	7.94
328.52	8.1
328.732	8.15
328.943	8.49
329.154	8.52
329.365	8.81
329.576	9.54
329.787	9.84
329.998	10.28
330.209	10.28
330.42	10.26
330.631	10.83
330.842	10.86
331.053	10.72
331.264	10.71
331.475	10.98
331.686	11.14
331.897	10.6
332.108	10.5
332.319	10.66
332.53	10.82
332.741	10.55
332.952	10.49
333.163	10.75
333.374	11.13
333.585	10.54
333.795	10.48
334.006	10.24
334.217	10.62
334.428	10.97
334.639	10.79
334.849	10.58
335.06	10.61
335.271	10.82
335.482	11.01
335.692	10.29
335.903	10.65
336.114	10.33
336.325	10.68
336.535	10.38
336.746	10.15
336.957	10.06
337.167	10.09
337.378	10.06
337.589	9.86
337.799	9.64
338.01	10.19
338.22	10.05
338.431	10.07
338.642	9.94
338.852	9.89
339.063	10.04
339.273	10.28
339.484	10.4
339.694	10.5
339.905	10.41
340.115	10.27
340.326	10.02
340.536	10.13
340.746	10.12
340.957	9.72
341.167	10.02
341.378	9.74
341.588	9.68
341.799	9.65
342.009	9.43
342.219	9.47
342.43	9.72
342.64	10.14
342.85	10.18
343.061	10.27
343.271	10.55
343.481	10.41
343.691	10.5
343.902	10.25
344.112	10.12
344.322	10.23
344.532	9.97
344.743	9.83
344.953	9.41
345.163	9.54
345.373	9.43
345.583	9.23
345.793	9.08
346.004	8.82
346.214	9.08
346.424	9.25
346.634	9.05
346.844	9.09
347.054	9.28
347.264	9.44
347.474	9.22
347.684	9.6
347.894	9.82
348.104	9.98
348.314	10.2
348.524	10.42
348.734	10.18
348.944	10.36
349.154	10.64
349.364	10.45
349.574	10.26
349.784	10.14
349.994	9.82
350.204	9.58
350.413	9.66
350.623	9.6
350.833	9.4
351.043	9.69
351.253	9.85
351.463	10.05
351.672	10.02
351.882	10.29
352.092	10.39
352.302	10.47
352.511	11.02
352.721	11.12
352.931	11.3
353.141	10.96
353.35	10.87
353.56	10.63
353.77	10.37
353.979	10.29
354.189	10.12
354.399	10.12
354.608	10.06
354.818	9.72
355.027	9.43
355.237	9.23
355.447	9.28
355.656	9.26
355.866	9.33
356.075	9.39
356.285	9.58
356.494	9.54
356.704	9.53
356.913	9.49
357.123	9.27
357.332	9.49
357.542	9.63
357.751	10.01
357.96	10.09
358.17	9.91
358.379	9.98
358.589	9.86
358.798	9.93
359.007	10.14
359.217	10.28
359.426	10.38
359.635	10.12
359.845	9.99
360.054	9.45
360.263	8.92
360.472	8.93
360.682	8.68
360.891	8.57
361.1	8.44
361.309	8.33
361.519	8.28
361.728	8.19
361.937	8.12
362.146	8.12
362.355	8.2
362.564	8.48
362.774	8.37
362.983	8.45
363.192	8.33
363.401	8.26
363.61	8.26
363.819	8.14
364.028	8.03
364.237	7.93
364.446	7.69
364.655	7.82
364.864	7.88
365.073	8.24
365.282	8.13
365.491	8.42
365.7	8.62
365.909	8.29
366.118	8.16
366.327	8.45
366.536	8.74
366.745	8.98
366.954	9
367.162	8.76
367.371	8.34
367.58	8.4
367.789	8.43
367.998	8.51
368.207	8.58
368.415	8.51
368.624	8.49
368.833	8.48
369.042	8.42
369.25	8.38
369.459	8.24
369.668	8.56
369.877	8.56
370.085	8.31
370.294	8.05
370.503	8.17
370.711	8.41
370.92	8.49
371.129	8.16
371.337	7.88
371.546	7.85
371.754	7.97
371.963	7.75
372.171	7.69
372.38	7.64
372.589	7.64
372.797	7.56
373.006	7.27
373.214	6.99
373.423	7.13
373.631	7.1
373.84	6.98
374.048	7.09
374.256	6.84
374.465	6.79
374.673	6.64
374.882	6.72
375.09	6.59
375.298	6.59
375.507	6.65
375.715	6.44
375.923	6.57
376.132	6.42
376.34	6.34
376.548	6.46
376.757	6.55
376.965	6.78
377.173	6.77
377.381	6.93
377.59	6.99
377.798	6.71
378.006	6.85
378.214	6.67
378.423	6.67
378.631	6.69
378.839	6.7
379.047	6.66
379.255	6.49
379.463	6.46
379.671	6.28
379.879	6.2
380.088	6.32
380.296	6.45
380.504	6.64
380.712	6.68
380.92	6.47
381.128	6.45
381.336	6.49
381.544	6.53
381.752	6.44
381.96	6.52
382.168	6.42
382.376	6.24
382.584	6.05
382.791	5.87
382.999	5.96
383.207	6
383.415	6.18
383.623	6.02
383.831	5.85
384.039	5.83
384.247	5.94
384.454	5.99
384.662	6.04
384.87	5.98
385.078	6.21
385.285	6.14
385.493	6.11
385.701	5.89
385.909	5.83
386.116	5.87
386.324	5.64
386.532	5.27
386.739	5.15
386.947	5.18
387.155	5.23
387.362	4.96
387.57	4.77
387.778	4.76
387.985	4.89
388.193	4.91
388.4	4.87
388.608	5.04
388.816	5.33
389.023	5.41
389.231	5.66
389.438	5.71
389.646	5.78
389.853	5.94
390.061	5.7
390.268	5.42
390.475	5.41
390.683	5.5
390.89	5.24
391.098	4.94
391.305	4.83
391.512	4.61
391.72	4.63
391.927	4.67
392.135	4.63
392.342	4.76
392.549	4.98
392.756	4.77
392.964	4.77
393.171	4.91
393.378	5.08
393.586	5.36
393.793	5.36
394	5.42
394.207	5.38
394.414	5.24
394.622	5.23
394.829	5.31
395.036	5.41
395.243	5.3
395.45	5.31
395.657	5.39
395.864	5.14
396.072	5.05
396.279	4.74
396.486	4.71
396.693	4.83
396.9	4.83
397.107	4.53
397.314	4.53
397.521	4.56
397.728	4.57
397.935	4.34
398.142	4.2
398.349	4.24
398.556	4.32
398.763	4.32
398.97	4.13
399.177	4.25
399.383	4.3
399.59	4.31
399.797	4.21
400.004	4.1
400.211	4.2
400.418	4.28
400.625	4.31
400.831	4.18
401.038	4.12
401.245	4.38
401.452	4.26
401.658	4.23
401.865	4.12
402.072	4.13
402.279	4.12
402.485	4.06
402.692	3.89
402.899	3.89
403.105	4.02
403.312	4.01
403.519	3.72
403.725	3.72
403.932	3.64
404.138	3.63
404.345	3.58
404.552	3.54
404.758	3.58
404.965	3.79
405.171	3.65
405.378	3.62
405.584	3.48
405.791	3.64
405.997	3.74
406.204	3.97
406.41	4.12
406.617	4.14
406.823	4.1
407.029	4.1
407.236	4.07
407.442	4.26
407.649	4.34
407.855	4.54
408.061	4.41
408.268	4.28
408.474	4.1
408.68	4.01
408.887	4.12
409.093	4.31
409.299	4.24
409.505	4.23
409.712	4.11
409.918	4.03
410.124	4.1
410.33	4.07
410.537	4.07
410.743	4.15
410.949	4.02
411.155	3.85
411.361	3.77
411.567	3.78
411.773	3.6
411.98	3.66
412.186	3.51
412.392	3.24
412.598	3.29
412.804	3.07
413.01	2.86
413.216	3.03
413.422	3.1
413.628	3.19
413.834	3.36
414.04	3.28
414.246	3.24
414.452	3.28
414.658	3.35
414.864	3.38
415.07	3.47
415.275	3.63
415.481	3.41
415.687	3.45
415.893	3.39
416.099	3.08
416.305	3.09
416.511	3.05
416.716	2.98
416.922	3.06
417.128	3.1
417.334	3.11
417.539	3.04
417.745	3.06
417.951	3.03
418.157	2.9
418.362	2.97
418.568	3.04
418.774	3
418.979	2.96
419.185	2.8
419.391	2.75
419.596	2.67
419.802	2.7
420.008	2.76
420.213	2.75
420.419	2.8
420.624	2.74
420.83	2.74
421.035	2.74
421.241	2.78
421.446	2.73
421.652	2.7
421.857	2.8
422.063	2.72
422.268	2.68
422.474	2.61
422.679	2.61
422.885	2.6
423.09	2.56
423.295	2.59
423.501	2.56
423.706	2.62
423.911	2.61
424.117	2.53
424.322	2.57
424.527	2.61
424.733	2.63
424.938	2.59
425.143	2.69
425.349	2.7
425.554	2.64
425.759	2.72
425.964	2.74
426.169	2.77
426.375	2.79
426.58	2.88
426.785	2.89
426.99	2.95
427.195	2.97
427.4	2.84
427.605	2.89
427.811	2.88
428.016	2.8
428.221	2.89
428.426	2.87
428.631	2.83
428.836	2.85
429.041	2.82
429.246	2.84
429.451	2.86
429.656	2.94
429.861	2.85
430.066	2.91
430.271	2.97
430.476	2.92
430.681	2.88
430.886	3
431.09	2.94
431.295	3.02
431.5	3.02
431.705	2.98
431.91	3.08
432.115	3.14
432.32	3.1
432.524	3.05
432.729	3.06
432.934	3.04
433.139	2.99
433.343	3.04
433.548	2.8
433.753	2.69
433.958	2.64
434.162	2.47
434.367	2.41
434.572	2.49
434.776	2.49
434.981	2.39
435.186	2.47
435.39	2.44
435.595	2.43
435.799	2.64
436.004	2.8
436.209	2.77
436.413	2.78
436.618	2.78
436.822	2.69
437.027	2.67
437.231	2.7
437.436	2.71
437.64	2.7
437.845	2.56
438.049	2.46
438.253	2.39
438.458	2.47
438.662	2.5
438.867	2.59
439.071	2.61
439.275	2.6
439.48	2.6
439.684	2.62
439.888	2.6
440.093	2.65
440.297	2.65
440.501	2.63
440.706	2.69
440.91	2.69
441.114	2.64
441.318	2.6
441.523	2.57
441.727	2.65
441.931	2.6
442.135	2.67
442.339	2.55
442.543	2.53
442.748	2.58
442.952	2.47
443.156	2.42
443.36	2.41
443.564	2.56
443.768	2.66
443.972	2.53
444.176	2.51
444.38	2.54
444.584	2.68
444.788	2.77
444.992	2.75
445.196	2.82
445.4	2.87
445.604	2.87
445.808	2.83
446.012	2.73
446.216	2.79
446.42	2.8
446.624	2.73
446.828	2.68
447.032	2.61
447.235	2.48
447.439	2.43
447.643	2.49
447.847	2.55
448.051	2.6
448.254	2.64
448.458	2.62
448.662	2.61
448.866	2.64
449.069	2.6
449.273	2.63
449.477	2.78
449.681	2.83
449.884	2.81
450.088	2.79
450.292	2.68
450.495	2.66
450.699	2.62
450.902	2.61
451.106	2.54
451.31	2.71
451.513	2.75
451.717	2.73
451.92	2.68
452.124	2.6
452.327	2.42
452.531	2.33
452.734	2.34
452.938	2.29
453.141	2.24
453.345	2.24
453.548	2.07
453.752	2.14
453.955	2.16
454.158	2.25
454.362	2.25
454.565	2.31
454.769	2.43
454.972	2.49
455.175	2.56
455.379	2.62
455.582	2.66
455.785	2.73
455.988	2.65
456.192	2.58
456.395	2.46
456.598	2.54
456.801	2.54
457.005	2.47
457.208	2.46
457.411	2.45
457.614	2.49
457.817	2.43
458.021	2.39
458.224	2.35
458.427	2.35
458.63	2.33
458.833	2.28
459.036	2.31
459.239	2.28
459.442	2.28
459.645	2.29
459.848	2.25
460.051	2.26
460.254	2.31
460.457	2.3
460.66	2.35
460.863	2.31
461.066	2.29
461.269	2.3
461.472	2.43
461.675	2.38
461.878	2.37
462.081	2.39
462.284	2.48
462.486	2.38
462.689	2.41
462.892	2.3
463.095	2.48
463.298	2.55
463.5	2.6
463.703	2.54
463.906	2.66
464.109	2.72
464.311	2.65
464.514	2.58
464.717	2.62
464.92	2.7
465.122	2.82
465.325	2.64
465.528	2.65
465.73	2.67
465.933	2.68
466.135	2.58
466.338	2.61
466.541	2.69
466.743	2.78
466.946	2.85
467.148	2.82
467.351	2.73
467.553	2.82
467.756	2.91
467.958	2.86
468.161	2.74
468.363	2.76
468.566	2.77
468.768	2.67
468.971	2.58
469.173	2.57
469.375	2.48
469.578	2.53
469.78	2.51
469.983	2.45
470.185	2.3
470.387	2.34
470.59	2.34
470.792	2.41
470.994	2.58
471.196	2.59
471.399	2.65
471.601	2.57
471.803	2.55
472.005	2.64
472.208	2.59
472.41	2.72
472.612	2.73
472.814	2.78
473.016	2.63
473.218	2.58
473.421	2.61
473.623	2.55
473.825	2.61
474.027	2.64
474.229	2.58
474.431	2.59
474.633	2.63
474.835	2.68
475.037	2.68
475.239	2.69
475.441	2.79
475.643	2.69
475.845	2.65
476.047	2.71
476.249	2.71
476.451	2.66
476.653	2.62
476.855	2.47
477.057	2.42
477.258	2.37
477.46	2.37
477.662	2.2
477.864	2.33
478.066	2.41
478.268	2.35
478.469	2.44
478.671	2.47
478.873	2.55
479.075	2.62
479.276	2.65
479.478	2.64
479.68	2.61
479.882	2.69
480.083	2.62
480.285	2.55
480.487	2.59
480.688	2.55
480.89	2.59
481.091	2.5
481.293	2.48
481.495	2.4
481.696	2.35
481.898	2.31
482.099	2.25
482.301	2.26
482.502	2.21
482.704	2.21
482.905	2.17
483.107	2.08
483.308	2.05
483.51	2.04
483.711	2.06
483.913	2.08
484.114	2.09
484.315	2.09
484.517	2.1
484.718	2.13
484.92	2.09
485.121	2.11
485.322	2.16
485.524	2.17
485.725	2.19
485.926	2.18
486.127	2.18
486.329	2.19
486.53	2.22
486.731	2.21
486.932	2.19
487.134	2.22
487.335	2.23
487.536	2.21
487.737	2.24
487.938	2.21
488.139	2.22
488.341	2.24
488.542	2.25
488.743	2.25
488.944	2.26
489.145	2.3
489.346	2.33
489.547	2.33
489.748	2.32
489.949	2.33
490.15	2.31
490.351	2.32
490.552	2.28
490.753	2.28
490.954	2.29
491.155	2.25
491.356	2.18
491.557	2.19
491.758	2.16
491.959	2.17
492.159	2.17
492.36	2.28
492.561	2.31
492.762	2.33
492.963	2.41
493.164	2.41
493.364	2.46
493.565	2.53
493.766	2.55
493.967	2.63
494.167	2.68
494.368	2.77
494.569	2.74
494.769	2.75
494.97	2.82
495.171	2.73
495.371	2.76
495.572	2.77
495.773	2.76
495.973	2.68
496.174	2.71
496.375	2.72
496.575	2.68
496.776	2.7
496.976	2.7
497.177	2.65
497.377	2.62
497.578	2.67
497.778	2.66
497.979	2.7
498.179	2.73
498.38	2.71
498.58	2.73
498.78	2.67
498.981	2.58
499.181	2.6
499.382	2.64
499.582	2.67
499.782	2.66
499.983	2.71
500.183	2.73
500.383	2.76
500.584	2.81
500.784	2.82
500.984	2.97
501.184	3.1
501.385	3.12
501.585	3.29
501.785	3.36
501.985	3.43
502.185	3.39
502.386	3.4
502.586	3.45
502.786	3.47
502.986	3.55
503.186	3.48
503.386	3.44
503.586	3.47
503.786	3.34
503.987	3.31
504.187	3.42
504.387	3.46
504.587	3.51
504.787	3.62
504.987	3.67
505.187	3.71
505.387	3.76
505.587	3.77
505.786	3.83
505.986	3.91
506.186	3.93
506.386	3.79
506.586	3.89
506.786	3.85
506.986	3.8
507.186	3.76
507.386	3.74
507.585	3.77
507.785	3.84
507.985	3.9
508.185	3.89
508.384	3.96
508.584	3.94
508.784	4.02
508.984	4.08
509.183	4.17
509.383	4.25
509.583	4.3
509.782	4.37
509.982	4.48
510.182	4.48
510.381	4.46
510.581	4.53
510.781	4.63
510.98	4.6
511.18	4.72
511.379	4.79
511.579	4.84
511.778	4.91
511.978	4.88
512.177	4.89
512.377	4.93
512.576	5.05
512.776	5.12
512.975	5.2
513.175	5.23
513.374	5.22
513.573	5.3
513.773	5.37
513.972	5.42
514.172	5.58
514.371	5.71
514.57	5.79
514.77	5.92
514.969	5.98
515.168	6.07
515.367	6.18
515.567	6.29
515.766	6.25
515.965	6.28
516.164	6.38
516.364	6.49
516.563	6.47
516.762	6.54
516.961	6.56
517.16	6.67
517.359	6.73
517.559	6.76
517.758	6.8
517.957	6.87
518.156	6.94
518.355	6.98
518.554	7.05
518.753	7.12
518.952	7.18
519.151	7.27
519.35	7.25
519.549	7.35
519.748	7.42
519.947	7.53
520.146	7.61
520.345	7.72
520.544	7.69
520.743	7.74
520.942	7.86
521.141	7.95
521.339	7.97
521.538	8.1
521.737	8.04
521.936	8.2
522.135	8.21
522.333	8.27
522.532	8.31
522.731	8.46
522.93	8.53
523.129	8.57
523.327	8.64
523.526	8.71
523.725	8.75
523.923	8.93
524.122	8.99
524.321	9.13
524.519	9.19
524.718	9.3
524.917	9.42
525.115	9.46
525.314	9.5
525.512	9.55
525.711	9.64
525.909	9.71
526.108	9.78
526.306	9.78
526.505	9.8
526.703	9.91
526.902	9.99
527.1	10.05
527.299	10.13
527.497	10.24
527.696	10.3
527.894	10.34
528.092	10.35
528.291	10.36
528.489	10.4
528.688	10.48
528.886	10.53
529.084	10.55
529.283	10.56
529.481	10.57
529.679	10.59
529.877	10.65
530.076	10.69
530.274	10.79
530.472	10.83
530.67	10.88
530.869	10.97
531.067	11.05
531.265	11.14
531.463	11.24
531.661	11.35
531.859	11.4
532.057	11.5
532.255	11.6
532.454	11.69
532.652	11.76
532.85	11.86
533.048	11.9
533.246	11.94
533.444	11.97
533.642	12.05
533.84	12.1
534.038	12.17
534.236	12.2
534.434	12.27
534.632	12.37
534.83	12.51
535.027	12.63
535.225	12.7
535.423	12.78
535.621	12.87
535.819	12.97
536.017	13.06
536.215	13.16
536.412	13.22
536.61	13.25
536.808	13.28
537.006	13.31
537.203	13.32
537.401	13.34
537.599	13.41
537.797	13.5
537.994	13.57
538.192	13.74
538.39	13.84
538.587	13.97
538.785	14.12
538.983	14.25
539.18	14.43
539.378	14.61
539.575	14.76
539.773	14.89
539.97	14.98
540.168	15
540.366	15.01
540.563	15.06
540.761	15.1
540.958	15.17
541.155	15.2
541.353	15.18
541.55	15.21
541.748	15.24
541.945	15.28
542.143	15.33
542.34	15.41
542.537	15.49
542.735	15.55
542.932	15.63
543.129	15.65
543.327	15.75
543.524	15.93
543.721	16.01
543.919	16.19
544.116	16.34
544.313	16.48
544.51	16.61
544.708	16.75
544.905	16.89
545.102	17
545.299	17.2
545.496	17.35
545.693	17.38
545.891	17.5
546.088	17.49
546.285	17.45
546.482	17.42
546.679	17.49
546.876	17.53
547.073	17.54
547.27	17.63
547.467	17.65
547.664	17.62
547.861	17.7
548.058	17.74
548.255	17.82
548.452	17.89
548.649	18.05
548.846	18.06
549.043	18.02
549.24	18.04
549.437	18.1
549.633	18.13
549.83	18.12
550.027	18.16
550.224	18.24
550.421	18.29
550.618	18.4
550.814	18.45
551.011	18.52
551.208	18.55
551.405	18.71
551.601	18.75
551.798	18.74
551.995	18.81
552.191	18.93
552.388	18.92
552.585	18.92
552.781	18.9
552.978	18.77
553.175	18.85
553.371	18.95
553.568	18.85
553.764	18.82
553.961	18.86
554.157	18.97
554.354	18.94
554.55	18.99
554.747	19.03
554.943	19.2
555.14	19.36
555.336	19.33
555.533	19.44
555.729	19.66
555.926	19.85
556.122	19.9
556.318	20
556.515	20.14
556.711	20.28
556.907	20.39
557.104	20.35
557.3	20.43
557.496	20.41
557.693	20.38
557.889	20.38
558.085	20.3
558.281	20.39
558.478	20.42
558.674	20.46
558.87	20.51
559.066	20.71
559.262	20.8
559.459	20.82
559.655	20.91
559.851	21.05
560.047	21.16
560.243	21.34
560.439	21.35
560.635	21.34
560.831	21.26
561.027	21.17
561.223	21.07
561.419	21.15
561.615	21.36
561.811	21.5
562.007	21.47
562.203	21.46
562.399	21.39
562.595	21.57
562.791	21.59
562.987	21.67
563.183	21.84
563.379	21.84
563.575	21.91
563.771	21.93
563.966	22
564.162	22.15
564.358	22.08
564.554	22.1
564.75	22.2
564.945	22.45
565.141	22.51
565.337	22.58
565.533	22.63
565.728	22.64
565.924	22.6
566.12	22.55
566.315	22.59
566.511	22.73
566.707	22.78
566.902	22.73
567.098	22.58
567.293	22.59
567.489	22.47
567.684	22.46
567.88	22.5
568.076	22.52
568.271	22.5
568.467	22.52
568.662	22.43
568.858	22.39
569.053	22.49
569.248	22.62
569.444	22.8
569.639	22.85
569.835	22.89
570.03	22.94
570.225	23.07
570.421	23.19
570.616	23.25
570.812	23.44
571.007	23.52
571.202	23.48
571.397	23.53
571.593	23.42
571.788	23.49
571.983	23.53
572.178	23.66
572.374	23.71
572.569	23.8
572.764	23.8
572.959	23.8
573.154	23.93
573.35	23.94
573.545	23.9
573.74	23.95
573.935	24.08
574.13	24.19
574.325	24.04
574.52	24.05
574.715	24.02
574.91	23.99
575.105	24.01
575.3	23.98
575.495	24.05
575.69	24.12
575.885	24.31
576.08	24.3
576.275	24.4
576.47	24.58
576.665	24.55
576.86	24.76
577.055	24.92
577.25	25.18
577.444	25.28
577.639	25.5
577.834	25.61
578.029	25.66
578.224	25.8
578.418	25.87
578.613	25.8
578.808	25.78
579.003	25.8
579.197	25.93
579.392	25.69
579.587	25.78
579.781	25.78
579.976	25.77
580.171	25.89
580.365	25.88
580.56	25.9
580.755	26.02
580.949	26.28
581.144	26.42
581.338	26.32
581.533	26.44
581.727	26.46
581.922	26.33
582.116	26.43
582.311	26.32
582.505	26.51
582.7	26.53
582.894	26.58
583.089	26.45
583.283	26.35
583.478	26.53
583.672	26.62
583.866	26.7
584.061	26.91
584.255	26.93
584.449	26.96
584.644	26.84
584.838	26.8
585.032	26.92
585.226	27.12
585.421	27.17
585.615	27.13
585.809	27.2
586.003	27.37
586.198	27.43
586.392	27.46
586.586	27.55
586.78	27.52
586.974	27.62
587.168	27.68
587.363	27.69
587.557	27.61
587.751	27.7
587.945	27.56
588.139	27.5
588.333	27.5
588.527	27.37
588.721	27.16
588.915	27.15
589.109	27.01
589.303	26.89
589.497	26.87
589.691	26.8
589.885	26.63
590.079	26.81
590.273	26.68
590.466	26.74
590.66	26.87
590.854	27.11
591.048	27.19
591.242	27.5
591.436	27.55
591.629	27.65
591.823	27.81
592.017	27.85
592.211	27.84
592.404	27.99
592.598	27.9
592.792	27.92
592.986	27.88
593.179	27.93
593.373	27.62
593.567	27.67
593.76	27.68
593.954	27.66
594.147	27.73
594.341	27.55
594.535	27.44
594.728	27.37
594.922	27.3
595.115	27.3
595.309	27.29
595.502	27.29
595.696	27.24
595.889	27.21
596.083	27.12
596.276	27.03
596.47	27.17
596.663	27.25
596.856	27.21
597.05	27.29
597.243	27.33
597.437	27.4
597.63	27.57
597.823	27.69
598.017	27.72
598.21	27.82
598.403	27.98
598.596	28.08
598.79	28.13
598.983	28.32
599.176	28.29
599.369	28.26
599.563	28.23
599.756	28.26
599.949	28.16
600.142	28.1
600.335	28.07
600.528	28.16
600.722	28.24
600.915	28.19
601.108	28.17
601.301	28.19
601.494	28.18
601.687	28.32
601.88	28.24
602.073	28.33
602.266	28.33
602.459	28.27
602.652	28.13
602.845	27.95
603.038	27.97
603.231	28.01
603.424	27.93
603.617	27.97
603.809	27.81
604.002	27.83
604.195	27.81
604.388	27.83
604.581	27.91
604.774	27.99
604.966	28.02
605.159	28.01
605.352	27.93
605.545	28.05
605.737	27.97
605.93	28.12
606.123	28.18
606.316	28.17
606.508	28.25
606.701	28.28
606.894	28.39
607.086	28.48
607.279	28.57
607.471	28.73
607.664	29.04
607.857	29.28
608.049	29.59
608.242	29.76
608.434	30.09
608.627	30.51
608.819	31.22
609.012	31.86
609.204	32.52
609.397	33.34
609.589	34.31
609.782	35.17
609.974	36.15
610.166	36.93
610.359	37.88
610.551	38.75
610.743	39.46
610.936	39.88
611.128	40.27
611.32	40.6
611.513	40.66
611.705	40.52
611.897	40.2
612.09	39.85
612.282	39.49
612.474	39.22
612.666	38.89
612.858	38.41
613.051	37.99
613.243	37.49
613.435	36.96
613.627	36.79
613.819	36.37
614.011	36.37
614.203	36.16
614.395	35.75
614.588	35.38
614.78	35.04
614.972	34.85
615.164	34.48
615.356	34.11
615.548	33.84
615.74	33.33
615.932	33.03
616.124	32.29
616.315	32.04
616.507	31.86
616.699	31.51
616.891	31.37
617.083	31.07
617.275	30.91
617.467	30.63
617.659	30.76
617.85	30.65
618.042	30.84
618.234	30.94
618.426	30.72
618.618	30.59
618.809	30.51
619.001	30.3
619.193	30.22
619.384	30.38
619.576	30.62
619.768	30.49
619.959	30.64
620.151	30.3
620.343	30.31
620.534	30.32
620.726	30.54
620.917	30.67
621.109	30.74
621.301	30.85
621.492	30.7
621.684	30.71
621.875	30.67
622.067	30.7
622.258	30.7
622.45	30.78
622.641	30.76
622.832	30.8
623.024	30.69
623.215	30.84
623.407	30.78
623.598	30.76
623.789	30.88
623.981	30.82
624.172	30.71
624.363	30.8
624.555	30.86
624.746	30.9
624.937	30.76
625.129	30.91
625.32	30.83
625.511	30.71
625.702	30.87
625.893	30.69
626.085	30.72
626.276	30.62
626.467	30.62
626.658	30.56
626.849	30.53
627.04	30.72
627.231	30.61
627.422	30.48
627.614	30.62
627.805	30.65
627.996	30.77
628.187	30.9
628.378	30.99
628.569	31
628.76	30.97
628.951	31.18
629.142	30.96
629.332	31.2
629.523	31.4
629.714	31.67
629.905	31.63
630.096	31.76
630.287	31.8
630.478	31.79
630.669	31.78
630.859	32.06
631.05	31.93
631.241	31.96
631.432	31.83
631.623	31.62
631.813	31.22
632.004	31.04
632.195	30.92
632.385	30.69
632.576	30.85
632.767	30.91
632.957	30.73
633.148	30.62
633.339	30.54
633.529	30.48
633.72	30.41
633.91	30.33
634.101	30.29
634.292	30.26
634.482	30.37
634.673	30.22
634.863	30.26
635.054	30.13
635.244	30.17
635.435	30.35
635.625	30.37
635.815	30.41
636.006	30.56
636.196	30.66
636.387	30.67
636.577	30.73
636.767	30.7
636.958	30.52
637.148	30.5
637.338	30.5
637.529	30.47
637.719	30.46
637.909	30.43
638.099	30.4
638.29	30.27
638.48	30.23
638.67	30.09
638.86	30.11
639.05	30.09
639.241	30.03
639.431	30.04
639.621	30.04
639.811	30.02
640.001	30.17
640.191	30.2
640.381	30.47
640.571	30.39
640.761	30.45
640.951	30.63
641.141	30.81
641.331	30.99
641.521	31.02
641.711	30.76
641.901	30.72
642.091	30.83
642.281	30.98
642.471	30.89
642.661	30.88
642.851	30.96
643.041	30.68
643.231	30.71
643.42	30.58
643.61	30.48
643.8	30.54
643.99	30.53
644.18	30.45
644.369	30.33
644.559	30.58
644.749	30.8
644.939	30.71
645.128	30.97
645.318	30.77
645.508	30.71
645.697	30.87
645.887	31.04
646.076	31.17
646.266	31.14
646.456	31.29
646.645	31.02
646.835	30.77
647.024	30.76
647.214	30.79
647.403	31.01
647.593	31.21
647.782	30.99
647.972	31.01
648.161	31.02
648.351	30.93
648.54	31
648.73	31.19
648.919	31.36
649.108	31.4
649.298	31.43
649.487	31.45
649.677	31.6
649.866	31.82
650.055	31.79
650.244	31.81
650.434	32
650.623	31.78
650.812	31.86
651.002	31.91
651.191	32.18
651.38	31.99
651.569	31.95
651.758	31.84
651.947	31.87
652.137	31.99
652.326	32.04
652.515	31.91
652.704	31.98
652.893	31.71
653.082	31.67
653.271	31.61
653.46	31.85
653.649	31.93
653.838	31.85
654.027	31.74
654.216	31.8
654.405	31.73
654.594	31.77
654.783	31.72
654.972	31.98
655.161	32.16
655.35	32.16
655.539	32.24
655.728	32.4
655.916	32.46
656.105	32.63
656.294	32.41
656.483	32.45
656.672	32.41
656.86	32.42
657.049	32.32
657.238	32.24
657.427	32.08
657.615	31.85
657.804	31.56
657.993	31.62
658.181	31.5
658.37	31.62
658.559	31.58
658.747	31.47
658.936	31.61
659.125	31.47
659.313	31.4
659.502	31.46
659.69	31.47
659.879	31.58
660.067	31.57
660.256	31.57
660.444	31.37
660.633	31.44
660.821	31.79
661.01	31.87
661.198	31.98
661.387	32.01
661.575	32.1
661.763	32.49
661.952	32.2
662.14	32.39
662.328	32.65
662.517	32.92
662.705	33.05
662.893	32.81
663.082	32.69
663.27	32.77
663.458	32.73
663.646	32.85
663.834	32.66
664.023	33.14
664.211	32.72
664.399	32.54
664.587	32.52
664.775	32.55
664.963	32.51
665.152	32.57
665.34	32.5
665.528	32.78
665.716	32.34
665.904	32.25
666.092	32.29
666.28	32.62
666.468	32.5
666.656	32.59
666.844	32.59
667.032	32.9
667.22	32.85
667.408	32.9
667.596	32.6
667.784	33.1
667.971	32.94
668.159	32.88
668.347	32.69
668.535	32.89
668.723	32.99
668.911	33.13
669.098	32.8
669.286	32.6
669.474	32.61
669.662	32.68
669.849	32.5
670.037	32.74
670.225	32.52
670.413	32.55
670.6	32.42
670.788	32.34
670.976	32.02
671.163	32.38
671.351	32.85
671.538	32.8
671.726	32.86
671.913	33.02
672.101	32.6
672.289	32.98
672.476	32.8
672.664	32.91
672.851	32.81
673.039	32.66
673.226	32.86
673.413	32.53
673.601	32.66
673.788	32.64
673.976	32.46
674.163	32.66
674.35	32.47
674.538	32.89
674.725	32.69
674.912	32.69
675.1	32.71
675.287	32.46
675.474	32.77
675.662	32.84
675.849	32.87
676.036	33.09
676.223	33.07
676.411	33.2
676.598	33.08
676.785	33.1
676.972	33.05
677.159	33.12
677.346	33.17
677.533	32.96
677.721	32.78
677.908	32.88
678.095	32.69
678.282	32.87
678.469	32.6
678.656	32.71
678.843	32.87
679.03	33.06
679.217	33.23
679.404	33.07
679.591	32.95
679.778	32.81
679.964	32.87
680.151	33.01
680.338	32.83
680.525	32.87
680.712	32.67
680.899	32.73
681.086	32.81
681.272	32.92
681.459	33.02
681.646	33.19
681.833	33.35
682.02	33.3
682.206	33.13
682.393	33.24
682.58	33.79
682.766	34.07
682.953	34.06
683.14	33.82
683.326	33.78
683.513	33.76
683.7	33.73
683.886	33.93
684.073	33.81
684.259	33.89
684.446	34.01
684.632	33.58
684.819	33.48
685.005	33.55
685.192	33.79
685.378	33.91
685.565	33.9
685.751	33.94
685.938	33.92
686.124	34.01
686.31	34.15
686.497	34.21
686.683	34.01
686.87	33.93
687.056	34.1
687.242	34.14
687.429	33.88
687.615	33.93
687.801	33.83
687.987	33.72
688.174	33.63
688.36	33.47
688.546	33.43
688.732	33.81
688.918	34.14
689.105	33.9
689.291	33.77
689.477	33.85
689.663	34.22
689.849	34.27
690.035	34.29
690.221	34.45
690.407	34.34
690.593	34.11
690.779	34.22
690.965	34.25
691.151	34.46
691.337	34.54
691.523	34.37
691.709	33.83
691.895	33.97
692.081	34.16
692.267	34.23
692.453	34.62
692.639	34.98
692.825	34.63
693.011	34.49
693.196	34.25
693.382	34.21
693.568	34.46
693.754	34.81
693.94	34.99
694.125	35.19
694.311	35.16
694.497	35.04
694.682	34.62
694.868	34.47
695.054	34.38
695.239	34.44
695.425	34.54
695.611	34.18
695.796	33.85
695.982	33.67
696.168	33.39
696.353	33.43
696.539	33.32
696.724	33.47
696.91	33.63
697.095	33.86
697.281	33.96
697.466	33.67
697.652	34.03
697.837	33.82
698.023	33.71
698.208	33.55
698.393	33.33
698.579	33.21
698.764	33.19
698.949	33.19
699.135	32.95
699.32	32.77
699.505	32.91
699.691	32.62
699.876	32.8
700.061	33.04
700.246	33.13
700.432	33.39
700.617	33.69
700.802	33.55
700.987	33.58
701.172	33.7
701.358	33.92
701.543	33.94
701.728	34.59
701.913	34.9
702.098	34.99
702.283	34.92
702.468	34.81
702.653	34.94
702.838	35.59
703.023	36.24
703.208	36.31
703.393	36.29
703.578	36.28
703.763	35.88
703.948	35.92
704.133	35.64
704.318	36.14
704.503	36.36
704.688	36.5
704.873	36.57
705.057	36.74
705.242	36.79
705.427	37.46
705.612	37.6
705.797	37.94
705.981	38.09
706.166	38.44
706.351	38.54
706.536	38.83
706.72	38.82
706.905	38.68
707.09	38.34
707.274	38.62
707.459	38.34
707.644	38.6
707.828	38.77
708.013	38.98
708.197	39.06
708.382	39.24
708.567	39.26
708.751	39.21
708.936	39.42
709.12	39.67
709.305	39.47
709.489	39.21
709.673	38.99
709.858	38.57
710.042	38.64
710.227	38.15
710.411	37.8
710.596	37.61
710.78	37.75
710.964	37.47
711.149	37.09
711.333	36.97
711.517	37.18
711.702	37.12
711.886	36.76
712.07	36.66
712.254	37.05
712.438	37.23
712.623	37.1
712.807	36.67
712.991	36.69
713.175	36.51
713.359	36.53
713.544	35.93
713.728	35.58
713.912	35.75
714.096	35.4
714.28	35.04
714.464	34.68
714.648	34.43
714.832	34.52
715.016	34.35
715.2	34.47
715.384	34.23
715.568	34.38
715.752	34.74
715.936	35.08
716.12	34.89
716.304	34.9
716.488	34.77
716.671	34.73
716.855	34.53
717.039	34.51
717.223	34.16
717.407	34.17
717.59	34.26
717.774	33.98
717.958	33.79
718.142	33.57
718.325	33.42
718.509	33.54
718.693	33.78
718.877	33.89
719.06	34.23
719.244	34.06
719.428	34.17
719.611	34.65
719.795	34.68
719.978	34.67
720.162	35.26
720.345	35.83
720.529	36.08
720.713	36.41
720.896	35.89
721.08	35.63
721.263	36.09
721.446	36.86
721.63	36.57
721.813	36.54
721.997	35.99
722.18	35.47
722.364	35.03
722.547	34.39
722.73	34.18
722.914	34.36
723.097	34.2
723.28	34.19
723.464	33.77
723.647	34.2
723.83	34.51
724.013	35.29
724.197	35.51
724.38	35.41
724.563	36.05
724.746	36.07
724.929	36.38
725.112	36.3
725.296	35.75
725.479	35.64
725.662	35.43
725.845	35.09
726.028	35.07
726.211	35.31
726.394	35.61
726.577	35.36
726.76	35.51
726.943	35.52
727.126	36.03
727.309	36.81
727.492	36.66
727.675	35.98
727.858	36.36
728.041	36.47
728.224	36.78
728.407	36.85
728.589	37.04
728.772	36.65
728.955	36.59
729.138	36.23
729.321	36.01
729.503	36.06
729.686	36.45
729.869	36.07
730.052	35.65
730.234	35.41
730.417	35.26
730.6	35.55
730.782	35.66
730.965	35.8
731.148	36.05
731.33	36.16
731.513	36.26
731.695	35.76
731.878	36.27
732.061	36.25
732.243	36.41
732.426	36.26
732.608	36.17
732.791	36.23
732.973	36.14
733.156	35.91
733.338	35.85
733.52	35.64
733.703	35.76
733.885	35.36
734.068	35.54
734.25	35.47
734.432	35.8
734.615	35.57
734.797	35.63
734.979	35.73
735.162	35.62
735.344	35.71
735.526	35.87
735.708	36.27
735.891	36.44
736.073	36.29
736.255	36.9
736.437	36.56
736.619	36.4
736.802	36.44
736.984	35.82
737.166	36.42
737.348	36.13
737.53	36.29
737.712	36.17
737.894	36.27
738.076	36.35
738.258	35.47
738.44	35.82
738.622	35.58
738.804	35.15
738.986	36.19
739.168	35.86
739.35	36.16
739.532	35.73
739.714	35.91
739.896	35.81
740.078	35.38
740.259	35.45
740.441	35.55
740.623	35.98
740.805	36.19
740.987	35.73
741.168	35.41
741.35	35.4
741.532	35.64
741.714	35.75
741.895	36.13
742.077	36.96
742.259	37.39
742.44	37.25
742.622	37.04
742.804	37.17
742.985	37.27
743.167	37.49
743.348	37.54
743.53	37.37
743.711	38.14
743.893	38.28
744.075	38.24
744.256	38.12
744.438	38.25
744.619	38.56
744.8	38.85
744.982	39.18
745.163	39.56
745.345	39.63
745.526	40.15
745.707	39.41
745.889	39.36
746.07	38.98
746.252	39.1
746.433	38.83
746.614	38.94
746.795	38.29
746.977	38.46
747.158	38.62
747.339	38.61
747.52	38.14
747.702	38
747.883	37.99
748.064	38.4
748.245	38.5
748.426	39.09
748.607	39.01
748.788	39.19
748.97	38.65
749.151	38.32
749.332	37.87
749.513	37.88
749.694	37.62
749.875	37.07
750.056	37.19
750.237	36.71
750.418	36.9
750.599	36.34
750.78	37.1
750.96	37.52
751.141	37.74
751.322	37.62
751.503	37.99
751.684	38.55
751.865	39.17
752.046	38.67
752.226	39.26
752.407	38.67
752.588	39.15
752.769	38.72
752.949	38.29
753.13	37.95
753.311	38.48
753.492	38.25
753.672	38.5
753.853	37.46
754.034	37.7
754.214	37.74
754.395	38.1
754.575	38.54
754.756	38.64
754.937	39.36
755.117	39.87
755.298	40.47
755.478	39.99
755.659	40.12
755.839	40.38
756.02	39.62
756.2	39.28
756.381	38.81
756.561	38.31
756.741	38.67
756.922	38.17
757.102	37.87
757.283	38.12
757.463	38.64
757.643	37.61
757.823	38.2
758.004	38.8
758.184	38.48
758.364	37.66
758.545	37.84
758.725	37.22
758.905	37.1
759.085	37.46
759.265	35.54
759.446	35.76
759.626	35.6
759.806	35.34
759.986	35.33
760.166	35.55
760.346	35.59
760.526	35.53
760.706	34.99
760.886	35.09
761.066	34.62
761.246	35.03
761.426	34.64
761.606	35.04
761.786	34.82
761.966	34.52
762.146	34.21
762.326	34.63
762.506	34.08
762.686	34.5
762.866	34.01
763.046	33.9
763.225	34.28
763.405	34.57
763.585	34.56
763.765	34.42
763.945	34.15
764.124	33.85
764.304	33.83
764.484	34.08
764.664	34.08
764.843	33.91
765.023	33.92
765.203	34.32
765.382	34.09
765.562	34.07
765.741	34.04
765.921	34.66
766.101	35.55
766.28	35.75
766.46	36.19
766.639	36.2
766.819	36.88
766.998	36.81
767.178	36.53
767.357	37.19
767.537	36.94
767.716	37.72
767.896	38.12
768.075	37.54
768.254	37.72
768.434	38.28
768.613	38.61
768.792	39.17
768.972	39.84
769.151	39.74
769.33	39.38
769.51	39.92
769.689	40
769.868	40.1
770.047	40.89
770.226	40.93
770.406	39.7
770.585	39.94
770.764	39.31
770.943	39.86
771.122	40.19
771.301	40.4
771.48	40.17
771.66	40
771.839	39.46
772.018	39.16
772.197	38.67
772.376	40.07
772.555	39.69
772.734	40.13
772.913	38.81
773.092	39.28
773.271	38.77
773.449	39.26
773.628	39.33
773.807	38.54
773.986	38.45
774.165	39.74
774.344	38.47
774.523	39.51
774.701	39.4
774.88	40.24
775.059	39.16
775.238	39.4
775.417	39.36
775.595	39.42
775.774	39.78
775.953	39.01
776.131	37.66
776.31	37.58
776.489	37.06
776.667	37.16
776.846	37.1
777.025	37.62
777.203	37.04
777.382	37.38
777.56	37.71
777.739	39.17
777.917	40.26
778.096	40.91
778.274	41.45
778.453	41.38
778.631	41.2
778.81	40.6
778.988	40.48
779.166	41.22
779.345	41.59
779.523	41.54
779.702	41.05
779.88	40.73
780.058	39.89
780.237	39.81
780.415	39.76
780.593	40.29
780.771	40.59
780.95	40.51
781.128	40.22
781.306	39.54
781.484	38.89
781.662	38.22
781.841	39.01
782.019	39.4
782.197	38.84
782.375	38.92
782.553	38.87
782.731	39.68
782.909	40.45
783.087	40.56
783.265	40.48
783.443	40.57
783.621	40.64
783.799	39.85
783.977	39.7
784.155	40.81
784.333	41.07
784.511	39.91
784.689	38.78
784.867	38.61
785.045	39.94
785.223	39.52
785.4	39.71
785.578	41.15
785.756	40.92
785.934	40.57
786.112	40.3
786.289	39.97
786.467	40.36
786.645	40.83
786.823	40.96
787	39.12
787.178	39.39
787.356	39.74
787.533	37.91
787.711	37.93
787.889	37.9
788.066	37.89
788.244	37.23
788.421	37.51
788.599	38.13
788.776	37.6
788.954	37.63
789.131	37.34
789.309	37.24
789.486	38.3
789.664	38.76
789.841	39.06
790.019	39.1
790.196	39.57
790.373	40.44
790.551	39.89
790.728	40.12
790.906	41.24
791.083	40.64
791.26	41.05
791.437	40.25
791.615	40.7
791.792	41.61
791.969	41.99
792.146	41.94
792.324	42.01
792.501	41.92
792.678	41.67
792.855	41.33
793.032	42.89
793.209	42
793.387	42.95
793.564	42.79
793.741	42.74
793.918	40.81
794.095	40.83
794.272	39.92
794.449	40.05
794.626	40.46
794.803	41.65
794.98	41.31
795.157	40.97
795.334	40.42
795.511	39.84
795.688	40.45
795.864	41.15
796.041	41.13
796.218	40.72
796.395	41.31
796.572	41.39
796.749	40.12
796.925	39.38
797.102	40.23
797.279	41
797.456	40.21
797.632	39.69
797.809	39.61
797.986	39.17
798.162	40.31
798.339	40.28
798.516	40.64
798.692	40.69
798.869	41.51
799.046	40.82
799.222	41
799.399	41.2
799.575	40.09
799.752	40.38
799.928	40.72
800.105	40.38
800.281	39.24
800.458	38.7
800.634	37.6
800.811	37.73
800.987	38.06
801.163	36.56
801.34	37.99
801.516	38.89
801.692	39.33
801.869	38.97
802.045	39.42
802.221	39.42
802.398	38.92
802.574	39.58
802.75	38.98
802.926	40
803.103	40.52
803.279	39.14
803.455	38.42
803.631	38.9
803.807	39.69
803.983	39.22
804.16	39.25
804.336	40.58
804.512	41.14
804.688	41.44
804.864	40.78
805.04	40.68
805.216	42.3
805.392	43.82
805.568	43.3
805.744	42.29
805.92	42.44
806.096	44.02
806.272	43.66
806.448	43.97
806.623	44.66
806.799	44.12
806.975	43.63
807.151	44.36
807.327	42.77
807.503	43.44
807.678	44.98
807.854	44.47
808.03	42.96
808.206	41.85
808.381	42.35
808.557	41.29
808.733	40.75
808.908	42
809.084	40.62
809.26	42.24
809.435	41.97
809.611	40.8
809.787	40.71
809.962	41.93
810.138	43.72
810.313	43.85
810.489	43.85
810.664	45.31
810.84	44.71
811.015	44.77
811.191	43.94
811.366	45.36
811.542	45.68
811.717	46.33
811.892	45.71
812.068	44.7
812.243	43.95
812.419	44.29
812.594	43.88
812.769	43.54
812.944	44.27
813.12	43.65
813.295	41
813.47	41.95
813.645	41.03
813.821	40.4
813.996	40.68
814.171	41.46
814.346	41.22
814.521	41.3
814.697	42.34
814.872	40.85
815.047	41.74
815.222	41.88
815.397	40.43
815.572	41.2
815.747	42.39
815.922	41.64
816.097	40.13
816.272	40.7
816.447	39.69
816.622	39.01
816.797	40.01
816.972	39.53
817.147	39.43
817.322	40.1
817.496	38.67
817.671	38.08
817.846	37.47
818.021	36.89
818.196	37.05
818.371	36.96
818.545	37.29
818.72	37.68
818.895	37.85
819.069	38.08
819.244	37.53
819.419	38.36
819.594	38.08
819.768	38.23
819.943	38.37
820.117	37.48
820.292	37.35
820.467	35.78
820.641	34.57
820.816	34.21
820.99	33.43
821.165	32.83
821.339	32.36
821.514	32.04
821.688	31.22
821.863	30.94
822.037	30.44
822.212	30.3
822.386	30
822.56	29.9
822.735	29.58
822.909	29.66
823.084	29.74
823.258	29.52
823.432	29.53
823.606	29.92
823.781	29.75
823.955	29.94
824.129	29.74
824.303	30.12
824.478	29.95
824.652	30.09
824.826	30.11
825	30.43
825.174	30.63
825.348	30.49
825.523	30.31
825.697	30.82
825.871	31.27
826.045	31.31
826.219	31.73
826.393	31.73
826.567	31.25
826.741	30.91
826.915	30.51
827.089	31.01
827.263	31.29
827.437	31.22
827.611	30.71
827.784	30.78
827.958	30.7
828.132	30.23
828.306	30.16
828.48	30.26
828.654	30.99
828.827	30.79
829.001	30.6
829.175	30.37
829.349	31.15
829.522	32.15
829.696	32.35
829.87	33.44
830.044	33.64
830.217	35.76
830.391	36.77
830.565	36.54
830.738	37.17
830.912	38.07
831.085	38.5
831.259	37.87
831.432	37.45
831.606	37.06
831.779	36.86
831.953	35.47
832.126	34.76
832.3	34.69
832.473	34.34
832.647	34.07
832.82	32.38
832.994	32.07
833.167	31.83
833.34	31.73
833.514	31.94
833.687	31.94
833.86	33.01
834.034	32.61
834.207	33.03
834.38	33.59
834.553	34.25
834.727	34.3
834.9	34.88
835.073	35.51
835.246	35.29
835.419	34.91
835.593	34.37
835.766	35.09
835.939	35.3
836.112	34.42
836.285	34.26
836.458	32.53
836.631	34.36
836.804	34.99
836.977	33.91
837.15	35.11
837.323	35.53
837.496	36.68
837.669	35.93
837.842	37.85
838.015	41.75
838.188	42.31
838.361	45.24
838.533	44.4
838.706	45.2
838.879	46.07
839.052	45.61
839.225	46.6
839.398	46.77
839.57	46.37
839.743	45.33
839.916	43.55
840.088	43.75
840.261	42.7
840.434	43.72
840.607	42.2
840.779	44.41
840.952	46.93
841.124	46.87
841.297	47.38
841.47	47.8
841.642	47.69
841.815	47.83
841.987	49.25
842.16	50.7
842.332	50.15
842.505	52.59
842.677	50.94
842.85	50.53
843.022	50.53
843.194	53.73
843.367	55.77
843.539	58.14
843.712	58.57
843.884	56.96
844.056	57.47
844.229	57.93
844.401	55.45
844.573	55.37
844.745	55.33
844.918	53.32
845.09	52.48
845.262	51.77
845.434	51.62
845.606	51.53
845.779	49.79
845.951	50.29
846.123	50.53
846.295	51.53
846.467	54.09
846.639	52.69
846.811	54.89
846.983	52.7
847.155	50.56
847.327	49.34
847.499	50.9
847.671	51.33
847.843	49.74
848.015	51.01
848.187	48.45
848.359	47.34
848.531	45.62
848.703	48.18
848.875	46.95
849.047	49.24
849.218	47.86
849.39	47.09
849.562	48.87
849.734	50.52
849.905	48.47
850.077	51.59
850.249	53.86
850.421	57.16
850.592	59.16
850.764	62.66
850.936	60.71
851.107	62.72
851.279	61.8
851.451	59.83
851.622	61.49
851.794	58.52
851.965	55.24
852.137	54.44
852.308	53.03
852.48	49.04
852.651	48.47
852.823	53.86
852.994	50.01
853.166	48.57
853.337	49.98
853.509	48.93
853.68	52.41
853.851	53.65
854.023	49.93
854.194	50.84
854.365	53.43
854.537	52.07
854.708	50.31
854.879	54.24
855.05	56.99
855.222	61.94
855.393	61.7
855.564	58.6
855.735	62.66
855.906	67.86
856.078	66.81
856.249	62.91
856.42	62.32
856.591	63.12
856.762	65.99
856.933	64.95
857.104	64.11
857.275	66.3
857.446	68.9
857.617	68.9
857.788	63.47
857.959	65.26
858.13	68.93
858.301	71.83
858.472	68.86
858.643	69.42
858.814	69.41
858.985	67.52
859.155	66.97
859.326	65.89
859.497	63.9
859.668	67
859.839	63.06
860.009	61.67
860.18	59.57
860.351	60.01
860.522	54.62
860.692	53.75
860.863	55.39
861.034	52.89
861.204	53
861.375	50.93
861.546	51.4
861.716	52.06
861.887	52.46
862.057	50.57
862.228	51.32
862.398	54.59
862.569	58.92
862.739	58.35
862.91	59.45
863.08	59.41
863.251	61.9
863.421	62.88
863.592	66.79
863.762	64.22
863.932	65.36
864.103	63.44
864.273	61.43
864.443	57.4
864.614	59.4
864.784	60.56
864.954	61.24
865.125	60.52
865.295	66.58
865.465	62.67
865.635	64.34
865.805	61.31
865.976	61.51
866.146	64.6
866.316	63.93
866.486	62.27
866.656	63.44
866.826	63.39
866.996	61.68
867.166	54.35
867.336	56.35
867.506	56.15
867.676	58.34
867.846	56.04
868.016	55.12
868.186	56.58
868.356	53.49
868.526	53.33
868.696	54.67
868.866	54.43
869.036	51.99
869.206	49.14
869.376	47.21
869.545	43.68
869.715	46.99
869.885	47.53
870.055	47.47
870.224	49.66
870.394	49.79
870.564	48.78
870.734	48.9
870.903	53.59
871.073	53.6
871.243	57.98
871.412	62.5
871.582	64.93
871.751	64.36
871.921	63.8
872.091	65.33
872.26	57.7
872.43	59.84
872.599	56.17
872.769	53.22
872.938	55.71
873.108	51.01
873.277	49.53
873.446	48.97
873.616	50.1
873.785	53.05
873.955	49.92
874.124	57.09
874.293	59.28
874.463	62.3
874.632	61.65
874.801	59.27
874.971	59.94
875.14	58.04
875.309	59.59
875.478	58.09
875.647	56.7
875.817	55.75
875.986	55.52
876.155	52.23
876.324	55.62
876.493	58.32
876.662	57
876.831	60.56
877	61.47
877.17	55.64
877.339	56.49
877.508	53.4
877.677	57.2
877.846	53.85
878.015	54.95
878.184	53.5
878.352	51.81
878.521	47.62
878.69	46.59
878.859	46.74
879.028	47.83
879.197	47.9
879.366	48.72
879.534	44.9
879.703	41.64
879.872	40.58
880.041	38
880.21	36
880.378	38.2
880.547	34.65
880.716	34.34
880.884	33.97
881.053	32.29
881.222	31.07
881.39	31.28
881.559	32.38
881.727	30.89
881.896	30.9
882.065	30.71
882.233	29.55
882.402	29.75
882.57	29.21
882.739	29.19
882.907	29.15
883.076	29.21
883.244	28.96
883.412	28.81
883.581	29.91
883.749	30.91
883.918	30.87
884.086	32
884.254	33.44
884.423	34.16
884.591	35.42
884.759	36.09
884.927	36.77
885.096	37.76
885.264	37.28
885.432	37.7
885.6	36.4
885.769	38.36
885.937	38.61
886.105	37.42
886.273	39.22
886.441	38.37
886.609	38.52
886.777	40.48
886.945	41.89
887.113	43.46
887.281	40.93
887.449	42.74
887.617	44.72
887.785	46.37
887.953	49.06
888.121	48.64
888.289	47.83
888.457	52.45
888.625	51.76
888.793	50.81
888.961	51.27
889.129	53.19
889.296	50.47
889.464	47.79
889.632	48.57
889.8	46.28
889.967	46.24
890.135	48.3
