Data from 2938730__Reflection_02.txt Node
Date: Sun Mar 15 18:57:47 EDT 2015
User: robert
Spectrometer: USB4E03002
Autoset integration time: false
Trigger mode: 4
Integration Time (sec): 1.000000E-1
Scans to average: 10
Electric dark correction enabled: false
Nonlinearity correction enabled: false
Boxcar width: 5
Stray light correction enabled: false
XAxis mode: Wavelengths
Stop averaging: false
Number of Pixels in Spectrum: 3648
>>>>>Begin Spectral Data<<<<<
177.575	49.17
177.794	43.37
178.014	21.99
178.233	30.16
178.452	45.09
178.672	32.56
178.891	9.59
179.11	4.25
179.33	-47.92
179.549	-671.43
179.768	-46.67
179.987	-62.5
180.207	-74.27
180.426	-21.19
180.645	-94.8
180.864	-765.85
181.084	-58.82
181.303	-95.24
181.522	-197.65
181.741	-104.23
181.96	-22.77
182.179	-44
182.398	850
182.618	159.78
182.837	710.2
183.056	176.05
183.275	197.56
183.494	130.86
183.713	129.17
183.932	142.18
184.151	152.49
184.37	201.33
184.589	177.57
184.808	166.56
185.027	291.16
185.246	238.24
185.465	-1623.81
185.684	283.8
185.903	228.92
186.122	779.55
186.341	508.64
186.56	-200.62
186.779	-223.5
186.998	-158.8
187.216	-58
187.435	-56.89
187.654	-80.6
187.873	-142.33
188.092	-107.51
188.311	-115.48
188.53	-151.55
188.748	-210.92
188.967	3115.38
189.186	166.86
189.405	126.74
189.623	98.34
189.842	-7.31
190.061	40.45
190.28	33.67
190.498	-9.13
190.717	-28.38
190.936	-29.7
191.154	-237.1
191.373	238.46
191.592	137.5
191.81	87.27
192.029	33.17
192.248	196.05
192.466	13.29
192.685	19.64
192.904	75.38
193.122	73.58
193.341	35.26
193.559	39.66
193.778	32.91
193.996	35.56
194.215	-3.67
194.433	-10.14
194.652	-62.56
194.87	-32.14
195.089	-1.54
195.307	-115.87
195.526	-19.22
195.744	7.33
195.963	4.76
196.181	7.89
196.399	29.94
196.618	40.93
196.836	36.84
197.055	58.2
197.273	62.91
197.491	71.07
197.71	465.91
197.928	256.52
198.146	-168
198.365	-74.85
198.583	-180.12
198.801	-800
199.019	212.7
199.238	137.99
199.456	477.78
199.674	344.83
199.892	206.1
200.111	105.56
200.329	55.86
200.547	160.61
200.765	154.78
200.983	47.73
201.202	136.05
201.42	412.5
201.638	4750
201.856	7.89
202.074	-132.32
202.292	-39.48
202.51	4.19
202.728	-14.73
202.946	-62.1
203.165	-304.03
203.383	-70.23
203.601	-39.27
203.819	-95.35
204.037	-84.08
204.255	65.49
204.473	87.78
204.691	100.88
204.909	45.83
205.127	44.76
205.345	-1.57
205.562	-125
205.78	-45.24
205.998	-29.1
206.216	-63
206.434	-45.63
206.652	-27.7
206.87	-69.7
207.088	-101.6
207.306	-132.68
207.523	-235.06
207.741	-214.02
207.959	-156.02
208.177	-137.44
208.395	-350.88
208.612	-87.56
208.83	-130.06
209.048	-75
209.266	-65.57
209.483	-175.74
209.701	-86.57
209.919	-49.19
210.136	-66.56
210.354	-47.79
210.572	-99.48
210.79	-68.51
211.007	-155.4
211.225	-188.89
211.442	-182.81
211.66	-110.69
211.878	-7.91
212.095	11.25
212.313	26.73
212.53	16.14
212.748	9.18
212.966	45.01
213.183	56.54
213.401	42.86
213.618	18.27
213.836	-6.37
214.053	15.26
214.271	-6.51
214.488	-20.94
214.705	-18.33
214.923	-20.78
215.14	-46.57
215.358	-56.78
215.575	-106.47
215.793	-52.35
216.01	-28.6
216.227	-13.41
216.445	-60.32
216.662	-65.15
216.879	-48.17
217.097	-46.48
217.314	-10.21
217.531	-12.47
217.749	-12.38
217.966	6.78
218.183	-24.31
218.4	-14.47
218.618	-2.27
218.835	15.6
219.052	17.44
219.269	7.16
219.487	-1.12
219.704	-15.5
219.921	-11.26
220.138	-28.4
220.355	-31.39
220.572	-29.22
220.79	-40.62
221.007	-42.62
221.224	-74.74
221.441	-70.35
221.658	-69
221.875	-68.98
222.092	-80.6
222.309	-73.06
222.526	-56.88
222.743	-66.85
222.96	-60.41
223.177	-50.5
223.394	-73.79
223.611	-53.5
223.828	-47.69
224.045	-41.77
224.262	-45.09
224.479	-36.03
224.696	-20.07
224.913	-18.56
225.13	-8.74
225.347	-2.89
225.564	-0.08
225.781	3.35
225.997	5.28
226.214	0.63
226.431	-0.27
226.648	0.75
226.865	1.36
227.082	-1.36
227.298	0.21
227.515	-2.64
227.732	-3.69
227.949	-4.19
228.165	-3.91
228.382	-4.85
228.599	-2.99
228.816	-0.39
229.032	-0.14
229.249	0.94
229.466	0.88
229.682	-1.11
229.899	-0.95
230.116	-0.56
230.332	-1.38
230.549	-0.64
230.765	-0.64
230.982	-2.55
231.199	-4.89
231.415	-6.37
231.632	-7.91
231.848	-8.59
232.065	-6.19
232.281	-5.66
232.498	-8.29
232.714	-6.93
232.931	-9.23
233.147	-8.2
233.364	-8.28
233.58	-10.35
233.797	-9.54
234.013	-9.4
234.23	-8.32
234.446	-8.88
234.662	-6.92
234.879	-5.61
235.095	-5.38
235.312	-3.01
235.528	-2.42
235.744	-2.4
235.961	-1.69
236.177	-2.62
236.393	-1.18
236.61	-5.68
236.826	-5.14
237.042	-7.54
237.258	-9.35
237.475	-8.93
237.691	-11.86
237.907	-11.35
238.123	-9.24
238.339	-8.01
238.556	-7.63
238.772	-8.34
238.988	-3.23
239.204	-4.76
239.42	-5.04
239.636	-1.69
239.853	-3.4
240.069	-2.93
240.285	-3.23
240.501	-2.77
240.717	-2.96
240.933	-1.73
241.149	-1.71
241.365	-1.87
241.581	-1.01
241.797	-1.01
242.013	-1.61
242.229	-0.93
242.445	-1.28
242.661	-1.25
242.877	-1.13
243.093	-1.17
243.309	-1.32
243.525	-1.91
243.741	-2.08
243.957	-2.07
244.173	-1.08
244.388	-0.64
244.604	-0.29
244.82	-1.03
245.036	-1.2
245.252	-0.99
245.468	-0.35
245.683	-0.22
245.899	0.07
246.115	-0.31
246.331	-0.57
246.547	-0.84
246.762	-0.84
246.978	-0.28
247.194	0.51
247.409	0.54
247.625	0.53
247.841	0.42
248.057	0.76
248.272	0.69
248.488	1.61
248.703	1.56
248.919	1.95
249.135	1.62
249.35	1.04
249.566	0.57
249.782	1.06
249.997	0.79
250.213	0.79
250.428	-0.47
250.644	-0.54
250.859	-2.08
251.075	-1.43
251.29	-2.46
251.506	-1.57
251.721	-1.67
251.937	-1.14
252.152	-1.89
252.368	-2.43
252.583	-2.18
252.798	-2.31
253.014	-2.79
253.229	-2.96
253.445	-3.06
253.66	-2.94
253.875	-2.96
254.091	-3.32
254.306	-4.68
254.521	-3.87
254.737	-3.89
254.952	-4.15
255.167	-3.5
255.383	-2.21
255.598	-1.62
255.813	-2.17
256.028	-1.46
256.244	-0.87
256.459	-0.7
256.674	0.67
256.889	0.49
257.104	1.1
257.32	-0.01
257.535	-0.19
257.75	-0.46
257.965	-0.6
258.18	0.14
258.395	-0.2
258.61	-0.96
258.826	-0.75
259.041	-0.58
259.256	-0.47
259.471	-0.25
259.686	0.21
259.901	0.23
260.116	0.42
260.331	0.44
260.546	0.41
260.761	0.6
260.976	0.53
261.191	0.48
261.406	0.21
261.621	-0.21
261.836	-0.71
262.05	-1.6
262.265	-1.52
262.48	-2.47
262.695	-2.45
262.91	-2.75
263.125	-3.37
263.34	-2.46
263.555	-2.58
263.769	-3.09
263.984	-3.26
264.199	-2.91
264.414	-2.28
264.629	-2.15
264.843	-1.72
265.058	-1.68
265.273	-2.61
265.488	-2.04
265.702	-2.37
265.917	-2.13
266.132	-1.43
266.346	-0.5
266.561	-0.61
266.776	-0.79
266.99	-1.05
267.205	-0.4
267.42	-0.44
267.634	0.14
267.849	0.01
268.063	0.15
268.278	0
268.492	-0.12
268.707	-0.92
268.922	-0.67
269.136	-0.03
269.351	0.11
269.565	-0.4
269.78	-0.8
269.994	-1.16
270.209	-1.02
270.423	-0.88
270.637	-1.14
270.852	-1.13
271.066	-0.8
271.281	-1.03
271.495	-1.03
271.709	-0.75
271.924	-0.54
272.138	-0.02
272.353	0.22
272.567	0.49
272.781	0.19
272.996	0.63
273.21	0.25
273.424	0.38
273.638	0.43
273.853	0.52
274.067	0.25
274.281	-0.16
274.495	-0.72
274.71	-0.71
274.924	-1.43
275.138	-1.21
275.352	-1.51
275.566	-1.45
275.781	-1.66
275.995	-1.18
276.209	-1.36
276.423	-1.09
276.637	-0.9
276.851	-0.29
277.065	-0.43
277.279	-0.23
277.493	0.27
277.707	0.42
277.921	0.45
278.135	0.42
278.349	0.1
278.563	-0.06
278.777	-0.11
278.991	-0.01
279.205	-0.57
279.419	-1.15
279.633	-0.95
279.847	-2.08
280.061	-2.23
280.275	-1.84
280.489	-1.29
280.703	-2.03
280.917	-1.93
281.131	-2.19
281.344	-1.84
281.558	-1.98
281.772	-1.21
281.986	-1.27
282.2	-0.67
282.414	-0.27
282.627	-0.33
282.841	-1.07
283.055	-0.72
283.269	-0.51
283.482	-0.23
283.696	-0.09
283.91	-0.16
284.123	-0.58
284.337	-0.24
284.551	-0.23
284.764	-0.43
284.978	-0.37
285.192	-0.02
285.405	0.56
285.619	0.43
285.833	0.41
286.046	0.61
286.26	0.53
286.473	1.06
286.687	0.72
286.9	0.9
287.114	1.15
287.327	1.37
287.541	1.32
287.754	1
287.968	1.08
288.181	0.9
288.395	-0.07
288.608	0.52
288.822	-0.09
289.035	0.05
289.248	-0.06
289.462	0.01
289.675	-0.18
289.889	-0.1
290.102	-0.12
290.315	-0.32
290.529	-0.01
290.742	0.26
290.955	0.33
291.169	0.75
291.382	0.82
291.595	0.82
291.808	0.18
292.022	0.39
292.235	0.72
292.448	1.1
292.661	1.04
292.875	0.42
293.088	0.63
293.301	0.54
293.514	0.36
293.727	0.27
293.94	0.33
294.153	0.58
294.367	0.3
294.58	0.04
294.793	-0.17
295.006	-0.12
295.219	0.42
295.432	0.39
295.645	0.35
295.858	0.64
296.071	0.63
296.284	0.69
296.497	0.56
296.71	0.94
296.923	1
297.136	1.04
297.349	1.06
297.562	0.87
297.775	0.71
297.988	0.6
298.201	0.39
298.414	0.3
298.626	0.09
298.839	0.32
299.052	0.11
299.265	0.11
299.478	-0.24
299.691	-0.28
299.903	-0.32
300.116	-0.51
300.329	-0.91
300.542	-1.1
300.755	-1.1
300.967	-1.15
301.18	-1.32
301.393	-1.12
301.605	-1.16
301.818	-0.86
302.031	-0.59
302.243	-0.72
302.456	-0.25
302.669	0.2
302.881	0.42
303.094	0.85
303.307	1.01
303.519	1.36
303.732	0.74
303.944	0.85
304.157	0.86
304.37	1.01
304.582	1.12
304.795	1.18
305.007	1.35
305.22	2.09
305.432	2.05
305.645	2.04
305.857	2.3
306.069	2.74
306.282	2.62
306.494	2.34
306.707	2.05
306.919	2.1
307.132	1.83
307.344	1.92
307.556	1.49
307.769	1.49
307.981	1.27
308.193	1
308.406	0.69
308.618	0.31
308.83	0.57
309.043	0.69
309.255	1.05
309.467	1.17
309.679	0.88
309.892	0.61
310.104	0.12
310.316	0.1
310.528	0.14
310.74	0.09
310.953	0.29
311.165	0.54
311.377	0.63
311.589	0.38
311.801	0.62
312.013	0.81
312.225	0.7
312.437	0.68
312.649	0.95
312.862	1.01
313.074	1.55
313.286	1.57
313.498	1.49
313.71	1.3
313.922	1.29
314.134	0.94
314.346	0.87
314.558	1.07
314.77	1.24
314.982	1.23
315.193	1
315.405	0.95
315.617	1.12
315.829	0.78
316.041	0.77
316.253	0.82
316.465	1.45
316.677	1.45
316.888	1.88
317.1	2.33
317.312	2.16
317.524	2.12
317.736	2
317.947	1.89
318.159	1.69
318.371	2.32
318.583	2.58
318.794	1.91
319.006	1.71
319.218	1
319.43	1.17
319.641	1.61
319.853	1.76
320.064	1.96
320.276	2.34
320.488	2.96
320.699	2.69
320.911	2.48
321.123	2.27
321.334	2.36
321.546	2.89
321.757	2.36
321.969	2.29
322.18	2.19
322.392	1.45
322.603	1.9
322.815	2.09
323.026	2.03
323.238	2.6
323.449	2.87
323.661	3.61
323.872	3.29
324.083	3.87
324.295	3.79
324.506	4.72
324.718	5.62
324.929	5.7
325.14	5.62
325.352	5.81
325.563	5.72
325.774	6.09
325.986	6.28
326.197	6.86
326.408	6.78
326.62	7.3
326.831	6.9
327.042	7.06
327.253	6.6
327.464	6.87
327.676	7.22
327.887	7.66
328.098	7.37
328.309	7.19
328.52	7.62
328.732	8.06
328.943	8.17
329.154	8.5
329.365	8.55
329.576	9.23
329.787	9.91
329.998	10.49
330.209	10.26
330.42	11.31
330.631	11.68
330.842	11.83
331.053	11.89
331.264	11.51
331.475	11.28
331.686	10.38
331.897	10.5
332.108	9.92
332.319	9.45
332.53	9.93
332.741	9.87
332.952	9.88
333.163	9.62
333.374	9.79
333.585	10.17
333.795	10.62
334.006	11.69
334.217	11.7
334.428	12.18
334.639	12.49
334.849	12.37
335.06	12.3
335.271	11.92
335.482	12.19
335.692	11.82
335.903	12.19
336.114	12.1
336.325	12.11
336.535	12.37
336.746	12.22
336.957	12.36
337.167	12.4
337.378	12.37
337.589	13.09
337.799	13.45
338.01	13.93
338.22	13.71
338.431	13.9
338.642	13.9
338.852	13.76
339.063	13.65
339.273	13.86
339.484	13.86
339.694	14.01
339.905	13.91
340.115	13.37
340.326	13.18
340.536	13.52
340.746	13.58
340.957	13.31
341.167	13.46
341.378	13.64
341.588	13.34
341.799	13.28
342.009	13.27
342.219	13.47
342.43	13.55
342.64	13.97
342.85	13.6
343.061	13.53
343.271	13.79
343.481	13.75
343.691	13.54
343.902	13.69
344.112	13.96
344.322	13.88
344.532	13.35
344.743	13.13
344.953	12.64
345.163	12.6
345.373	12.63
345.583	12.35
345.793	12.23
346.004	12.34
346.214	12.41
346.424	12.08
346.634	12
346.844	11.88
347.054	11.66
347.264	12.09
347.474	12.31
347.684	12.37
347.894	12.79
348.104	13.01
348.314	13.25
348.524	13.11
348.734	13.21
348.944	13.8
349.154	14.18
349.364	14.59
349.574	14.26
349.784	14.02
349.994	13.96
350.204	13.84
350.413	13.73
350.623	13.32
350.833	13.22
351.043	13.22
351.253	12.97
351.463	12.65
351.672	12.8
351.882	12.88
352.092	12.85
352.302	12.98
352.511	12.96
352.721	12.9
352.931	12.88
353.141	12.49
353.35	12.46
353.56	12.21
353.77	12.17
353.979	12.08
354.189	12.34
354.399	12.57
354.608	12.41
354.818	12.37
355.027	12.25
355.237	12.21
355.447	12.27
355.656	12.15
355.866	12.14
356.075	12.28
356.285	12.36
356.494	11.92
356.704	11.7
356.913	11.46
357.123	11.54
357.332	11.71
357.542	12
357.751	12.16
357.96	12.24
358.17	12.32
358.379	12.23
358.589	12.33
358.798	12.6
359.007	12.92
359.217	13.05
359.426	13.21
359.635	13.49
359.845	13.49
360.054	13.3
360.263	13.05
360.472	13.06
360.682	13.18
360.891	12.93
361.1	12.76
361.309	12.55
361.519	12.54
361.728	12.56
361.937	12.19
362.146	12.09
362.355	12.25
362.564	12.34
362.774	12.5
362.983	12.5
363.192	12.38
363.401	12.53
363.61	12.53
363.819	12.33
364.028	12.09
364.237	11.92
364.446	11.83
364.655	11.83
364.864	11.92
365.073	11.58
365.282	11.66
365.491	11.88
365.7	11.55
365.909	11.76
366.118	12.18
366.327	12.17
366.536	12.47
366.745	12.67
366.954	12.39
367.162	12.39
367.371	12.31
367.58	11.78
367.789	11.73
367.998	11.88
368.207	11.76
368.415	11.47
368.624	11.53
368.833	11.55
369.042	11.46
369.25	11.8
369.459	11.54
369.668	11.67
369.877	11.74
370.085	11.58
370.294	11.56
370.503	11.51
370.711	11.55
370.92	11.29
371.129	10.93
371.337	10.85
371.546	10.64
371.754	10.62
371.963	10.39
372.171	10.58
372.38	10.7
372.589	10.73
372.797	10.79
373.006	10.79
373.214	10.57
373.423	11.05
373.631	11
373.84	10.87
374.048	10.84
374.256	11.15
374.465	11.13
374.673	11.22
374.882	11.06
375.09	10.78
375.298	10.7
375.507	10.98
375.715	10.61
375.923	10.58
376.132	10.64
376.34	11.02
376.548	10.81
376.757	10.68
376.965	10.74
377.173	10.69
377.381	10.7
377.59	10.81
377.798	10.83
378.006	11.14
378.214	11.17
378.423	11.17
378.631	11.22
378.839	10.99
379.047	11.13
379.255	10.79
379.463	10.97
379.671	11.35
379.879	11.21
380.088	11.38
380.296	11.23
380.504	11.31
380.712	11.52
380.92	11.5
381.128	11.67
381.336	11.88
381.544	11.8
381.752	11.79
381.96	11.53
382.168	11.4
382.376	11.43
382.584	11.65
382.791	11.22
382.999	11.18
383.207	10.89
383.415	10.88
383.623	10.83
383.831	10.84
384.039	10.93
384.247	10.75
384.454	10.91
384.662	10.93
384.87	10.81
385.078	11.32
385.285	11.3
385.493	11.47
385.701	11.51
385.909	11.57
386.116	11.76
386.324	11.7
386.532	11.78
386.739	11.67
386.947	11.62
387.155	11.21
387.362	11.08
387.57	11.2
387.778	11.21
387.985	11.23
388.193	11.21
388.4	11.33
388.608	11.23
388.816	11.19
389.023	11.3
389.231	11.16
389.438	11.47
389.646	11.81
389.853	11.4
390.061	11.42
390.268	11.36
390.475	11.3
390.683	11.14
390.89	11.06
391.098	11.34
391.305	11.24
391.512	11.19
391.72	11.08
391.927	10.87
392.135	11.08
392.342	10.94
392.549	11.02
392.756	10.78
392.964	10.9
393.171	11.14
393.378	10.96
393.586	11.27
393.793	11.32
394	11.39
394.207	11.19
394.414	11.07
394.622	11.15
394.829	11.31
395.036	11.68
395.243	11.67
395.45	11.53
395.657	11.57
395.864	11.37
396.072	11.28
396.279	11.16
396.486	10.97
396.693	11.2
396.9	11.22
397.107	11.24
397.314	11.08
397.521	10.97
397.728	11.02
397.935	10.92
398.142	10.84
398.349	10.8
398.556	11.16
398.763	11.45
398.97	11.43
399.177	11.38
399.383	11.28
399.59	11.22
399.797	11.26
400.004	11.22
400.211	11.22
400.418	11.29
400.625	11.48
400.831	11.21
401.038	11.37
401.245	11.47
401.452	11.5
401.658	11.4
401.865	11.49
402.072	11.56
402.279	11.67
402.485	11.79
402.692	11.75
402.899	11.64
403.105	11.72
403.312	11.67
403.519	11.63
403.725	11.67
403.932	11.77
404.138	11.76
404.345	11.82
404.552	11.8
404.758	11.82
404.965	11.93
405.171	12.08
405.378	12.24
405.584	12.21
405.791	12.15
405.997	12.22
406.204	12.33
406.41	12.4
406.617	12.35
406.823	12.4
407.029	12.44
407.236	12.32
407.442	12.27
407.649	12.03
407.855	12.04
408.061	12.02
408.268	12.01
408.474	11.97
408.68	12.09
408.887	12.11
409.093	12.11
409.299	12.05
409.505	12.1
409.712	12.27
409.918	12.46
410.124	12.49
410.33	12.55
410.537	12.6
410.743	12.59
410.949	12.55
411.155	12.58
411.361	12.4
411.567	12.36
411.773	12.34
411.98	12.37
412.186	12.44
412.392	12.69
412.598	12.5
412.804	12.4
413.01	12.31
413.216	12.13
413.422	12.02
413.628	12.32
413.834	12.27
414.04	12.47
414.246	12.38
414.452	12.25
414.658	11.87
414.864	12.02
415.07	11.96
415.275	11.99
415.481	12.12
415.687	12.15
415.893	12.25
416.099	12.34
416.305	12.27
416.511	12.18
416.716	12.16
416.922	12.4
417.128	12.47
417.334	12.53
417.539	12.52
417.745	12.49
417.951	12.53
418.157	12.46
418.362	12.55
418.568	12.5
418.774	12.54
418.979	12.59
419.185	12.46
419.391	12.51
419.596	12.45
419.802	12.43
420.008	12.35
420.213	12.43
420.419	12.3
420.624	12.25
420.83	12.24
421.035	12.18
421.241	12.1
421.446	12.2
421.652	12.16
421.857	12.19
422.063	12.2
422.268	12.21
422.474	12.16
422.679	12.2
422.885	12.15
423.09	12.23
423.295	12.34
423.501	12.29
423.706	12.3
423.911	12.25
424.117	12.27
424.322	12.37
424.527	12.41
424.733	12.39
424.938	12.38
425.143	12.46
425.349	12.47
425.554	12.37
425.759	12.46
425.964	12.4
426.169	12.5
426.375	12.53
426.58	12.42
426.785	12.54
426.99	12.55
427.195	12.65
427.4	12.62
427.605	12.59
427.811	12.87
428.016	12.95
428.221	12.91
428.426	12.92
428.631	13.11
428.836	13.28
429.041	13.18
429.246	13.34
429.451	13.32
429.656	13.45
429.861	13.61
430.066	13.38
430.271	13.48
430.476	13.58
430.681	13.58
430.886	13.51
431.09	13.4
431.295	13.52
431.5	13.37
431.705	13.37
431.91	13.23
432.115	13.13
432.32	13.15
432.524	13.13
432.729	13.32
432.934	13.38
433.139	13.4
433.343	13.55
433.548	13.61
433.753	13.85
433.958	14.04
434.162	14.23
434.367	14.42
434.572	14.68
434.776	14.73
434.981	14.77
435.186	15
435.39	15.06
435.595	15.05
435.799	14.98
436.004	14.83
436.209	14.93
436.413	14.95
436.618	14.77
436.822	14.57
437.027	14.57
437.231	14.35
437.436	14.1
437.64	14.12
437.845	14.01
438.049	13.94
438.253	13.83
438.458	13.63
438.662	13.53
438.867	13.51
439.071	13.65
439.275	13.54
439.48	13.49
439.684	13.49
439.888	13.34
440.093	13.33
440.297	13.32
440.501	13.42
440.706	13.37
440.91	13.25
441.114	13.29
441.318	13.18
441.523	13.19
441.727	13.24
441.931	13.31
442.135	13.39
442.339	13.39
442.543	13.42
442.748	13.48
442.952	13.51
443.156	13.69
443.36	13.63
443.564	13.61
443.768	13.58
443.972	13.68
444.176	13.56
444.38	13.46
444.584	13.45
444.788	13.39
444.992	13.3
445.196	13.29
445.4	13.28
445.604	13.27
445.808	13.25
446.012	13.31
446.216	13.22
446.42	13.23
446.624	13.29
446.828	13.27
447.032	13.35
447.235	13.32
447.439	13.32
447.643	13.25
447.847	13.26
448.051	13.34
448.254	13.28
448.458	13.32
448.662	13.36
448.866	13.46
449.069	13.55
449.273	13.59
449.477	13.69
449.681	13.61
449.884	13.66
450.088	13.73
450.292	13.71
450.495	13.85
450.699	13.89
450.902	13.83
451.106	13.72
451.31	13.67
451.513	13.59
451.717	13.62
451.92	13.81
452.124	13.81
452.327	13.87
452.531	13.82
452.734	13.71
452.938	13.76
453.141	13.75
453.345	13.68
453.548	13.74
453.752	13.72
453.955	13.73
454.158	13.73
454.362	13.71
454.565	13.61
454.769	13.65
454.972	13.67
455.175	13.67
455.379	13.69
455.582	13.75
455.785	13.75
455.988	13.69
456.192	13.66
456.395	13.69
456.598	13.78
456.801	13.85
457.005	13.86
457.208	13.84
457.411	13.77
457.614	13.7
457.817	13.76
458.021	13.67
458.224	13.8
458.427	13.75
458.63	13.72
458.833	13.7
459.036	13.69
459.239	13.65
459.442	13.61
459.645	13.55
459.848	13.53
460.051	13.44
460.254	13.46
460.457	13.41
460.66	13.41
460.863	13.4
461.066	13.35
461.269	13.31
461.472	13.36
461.675	13.37
461.878	13.48
462.081	13.53
462.284	13.62
462.486	13.7
462.689	13.79
462.892	13.9
463.095	13.88
463.298	14.04
463.5	14.12
463.703	13.97
463.906	13.98
464.109	13.93
464.311	13.92
464.514	13.8
464.717	13.79
464.92	13.7
465.122	13.73
465.325	13.75
465.528	13.65
465.73	13.71
465.933	13.79
466.135	13.91
466.338	13.89
466.541	13.95
466.743	14.21
466.946	14.16
467.148	14.14
467.351	14.05
467.553	14.03
467.756	14.02
467.958	14.09
468.161	14.06
468.363	13.99
468.566	14.04
468.768	14.2
468.971	14.09
469.173	14.17
469.375	14.31
469.578	14.3
469.78	14.38
469.983	14.41
470.185	14.28
470.387	14.48
470.59	14.43
470.792	14.34
470.994	14.19
471.196	14.22
471.399	14.17
471.601	14.05
471.803	13.98
472.005	13.81
472.208	13.87
472.41	13.78
472.612	13.73
472.814	13.83
473.016	13.91
473.218	13.88
473.421	13.81
473.623	13.77
473.825	13.85
474.027	13.95
474.229	14.12
474.431	14.09
474.633	14.13
474.835	14.15
475.037	14.11
475.239	14.11
475.441	14.14
475.643	14.07
475.845	14.08
476.047	14.12
476.249	14.08
476.451	13.97
476.653	14.03
476.855	14.07
477.057	14.05
477.258	14.05
477.46	13.95
477.662	14
477.864	14.09
478.066	14.04
478.268	14.01
478.469	13.94
478.671	13.95
478.873	13.92
479.075	13.86
479.276	13.78
479.478	13.79
479.68	13.87
479.882	13.84
480.083	13.87
480.285	13.91
480.487	13.89
480.688	13.95
480.89	14.03
481.091	13.93
481.293	13.93
481.495	13.97
481.696	13.93
481.898	13.89
482.099	13.86
482.301	13.73
482.502	13.74
482.704	13.71
482.905	13.66
483.107	13.6
483.308	13.62
483.51	13.57
483.711	13.57
483.913	13.58
484.114	13.57
484.315	13.59
484.517	13.64
484.718	13.62
484.92	13.66
485.121	13.69
485.322	13.75
485.524	13.79
485.725	13.87
485.926	13.87
486.127	13.9
486.329	13.96
486.53	13.96
486.731	13.97
486.932	14.01
487.134	13.95
487.335	14
487.536	13.93
487.737	13.91
487.938	13.91
488.139	13.93
488.341	13.91
488.542	13.89
488.743	13.88
488.944	13.93
489.145	13.98
489.346	14.06
489.547	14.07
489.748	14.16
489.949	14.17
490.15	14.17
490.351	14.18
490.552	14.2
490.753	14.2
490.954	14.23
491.155	14.16
491.356	14.12
491.557	14.12
491.758	14.07
491.959	14.07
492.159	14.07
492.36	14.09
492.561	14.14
492.762	14.19
492.963	14.15
493.164	14.2
493.364	14.29
493.565	14.36
493.766	14.37
493.967	14.45
494.167	14.48
494.368	14.53
494.569	14.49
494.769	14.46
494.97	14.45
495.171	14.47
495.371	14.45
495.572	14.43
495.773	14.41
495.973	14.37
496.174	14.32
496.375	14.39
496.575	14.47
496.776	14.51
496.976	14.48
497.177	14.52
497.377	14.64
497.578	14.6
497.778	14.54
497.979	14.51
498.179	14.52
498.38	14.53
498.58	14.43
498.78	14.41
498.981	14.49
499.181	14.57
499.382	14.58
499.582	14.46
499.782	14.55
499.983	14.62
500.183	14.7
500.383	14.75
500.584	14.83
500.784	14.9
500.984	14.87
501.184	14.82
501.385	14.73
501.585	14.72
501.785	14.76
501.985	14.74
502.185	14.75
502.386	14.74
502.586	14.82
502.786	14.84
502.986	14.75
503.186	14.85
503.386	14.82
503.586	14.8
503.786	14.79
503.987	14.77
504.187	14.87
504.387	14.95
504.587	14.98
504.787	14.97
504.987	14.91
505.187	15.08
505.387	14.88
505.587	14.9
505.786	14.96
505.986	15.08
506.186	15.17
506.386	15.11
506.586	15.04
506.786	15.08
506.986	15.01
507.186	15.1
507.386	15.05
507.585	15.23
507.785	15.2
507.985	15.29
508.185	15.22
508.384	15.2
508.584	15.22
508.784	15.25
508.984	15.22
509.183	15.22
509.383	15.21
509.583	15.15
509.782	15.18
509.982	15.3
510.182	15.23
510.381	15.25
510.581	15.3
510.781	15.26
510.98	15.39
511.18	15.35
511.379	15.42
511.579	15.35
511.778	15.43
511.978	15.31
512.177	15.26
512.377	15.35
512.576	15.33
512.776	15.36
512.975	15.43
513.175	15.31
513.374	15.44
513.573	15.46
513.773	15.5
513.972	15.54
514.172	15.58
514.371	15.64
514.57	15.67
514.77	15.77
514.969	15.74
515.168	15.75
515.367	15.73
515.567	15.53
515.766	15.59
515.965	15.59
516.164	15.57
516.364	15.7
516.563	15.69
516.762	15.66
516.961	15.62
517.16	15.62
517.359	15.55
517.559	15.65
517.758	15.73
517.957	15.64
518.156	15.67
518.355	15.65
518.554	15.62
518.753	15.54
518.952	15.55
519.151	15.56
519.35	15.54
519.549	15.6
519.748	15.61
519.947	15.59
520.146	15.63
520.345	15.67
520.544	15.74
520.743	15.75
520.942	15.83
521.141	15.89
521.339	16.01
521.538	16.12
521.737	16.15
521.936	16.15
522.135	16.27
522.333	16.31
522.532	16.34
522.731	16.38
522.93	16.51
523.129	16.51
523.327	16.44
523.526	16.35
523.725	16.26
523.923	16.2
524.122	16.15
524.321	16.12
524.519	16.16
524.718	16.12
524.917	16.15
525.115	16.07
525.314	16.06
525.512	16.06
525.711	16.03
525.909	16.14
526.108	16.19
526.306	16.22
526.505	16.23
526.703	16.21
526.902	16.23
527.1	16.2
527.299	16.18
527.497	16.2
527.696	16.22
527.894	16.27
528.092	16.18
528.291	16.19
528.489	16.22
528.688	16.26
528.886	16.28
529.084	16.25
529.283	16.26
529.481	16.28
529.679	16.3
529.877	16.29
530.076	16.25
530.274	16.33
530.472	16.36
530.67	16.36
530.869	16.38
531.067	16.45
531.265	16.54
531.463	16.57
531.661	16.61
531.859	16.66
532.057	16.74
532.255	16.83
532.454	16.89
532.652	16.92
532.85	16.93
533.048	16.97
533.246	17
533.444	17.07
533.642	17.09
533.84	17.09
534.038	17.14
534.236	17.16
534.434	17.13
534.632	17.16
534.83	17.14
535.027	17.14
535.225	17.17
535.423	17.19
535.621	17.22
535.819	17.24
536.017	17.38
536.215	17.47
536.412	17.51
536.61	17.7
536.808	17.75
537.006	17.91
537.203	18.04
537.401	18.13
537.599	18.29
537.797	18.47
537.994	18.71
538.192	18.94
538.39	19.21
538.587	19.56
538.785	19.83
538.983	20.25
539.18	20.56
539.378	20.89
539.575	21.27
539.773	21.5
539.97	21.75
540.168	21.94
540.366	22.09
540.563	22.22
540.761	22.33
540.958	22.36
541.155	22.46
541.353	22.51
541.55	22.59
541.748	22.66
541.945	22.74
542.143	22.84
542.34	22.99
542.537	23.1
542.735	23.21
542.932	23.34
543.129	23.68
543.327	24.05
543.524	24.66
543.721	25.37
543.919	26.11
544.116	27
544.313	27.91
544.51	28.77
544.708	29.82
544.905	30.77
545.102	31.8
545.299	32.53
545.496	33.07
545.693	33.28
545.891	33.2
546.088	32.95
546.285	32.54
546.482	32
546.679	31.43
546.876	30.75
547.073	30.04
547.27	29.39
547.467	28.68
547.664	27.89
547.861	27.36
548.058	26.92
548.255	26.53
548.452	26.16
548.649	25.84
548.846	25.62
549.043	25.37
549.24	25.2
549.437	24.73
549.633	24.46
549.83	24.38
550.027	24.05
550.224	23.73
550.421	23.49
550.618	23.09
550.814	22.83
551.011	22.57
551.208	22.18
551.405	21.88
551.601	21.76
551.798	21.59
551.995	21.37
552.191	21.14
552.388	21.06
552.585	20.9
552.781	20.93
552.978	20.74
553.175	20.67
553.371	20.68
553.568	20.78
553.764	20.68
553.961	20.69
554.157	20.57
554.354	20.59
554.55	20.57
554.747	20.37
554.943	20.36
555.14	20.56
555.336	20.42
555.533	20.42
555.729	20.29
555.926	20.29
556.122	20.31
556.318	20.29
556.515	20.31
556.711	20.38
556.907	20.41
557.104	20.24
557.3	20.11
557.496	20.13
557.693	20.19
557.889	20.07
558.085	20.16
558.281	20.12
558.478	20.03
558.674	19.9
558.87	19.79
559.066	19.91
559.262	19.92
559.459	19.84
559.655	19.92
559.851	19.86
560.047	20.05
560.243	19.97
560.439	19.9
560.635	20.04
560.831	20.07
561.027	19.97
561.223	19.93
561.419	19.83
561.615	19.78
561.811	19.8
562.007	19.85
562.203	19.67
562.399	19.74
562.595	19.76
562.791	19.61
562.987	19.81
563.183	19.81
563.379	19.86
563.575	20.05
563.771	20.11
563.966	20.08
564.162	20.06
564.358	20.16
564.554	20.01
564.75	20.04
564.945	20.12
565.141	19.98
565.337	20.02
565.533	20.03
565.728	19.98
565.924	20
566.12	20.01
566.315	19.98
566.511	19.98
566.707	20
566.902	20.01
567.098	20
567.293	20.04
567.489	20.07
567.684	20.06
567.88	20.19
568.076	20.19
568.271	20.18
568.467	20.13
568.662	20.13
568.858	20.24
569.053	20.14
569.248	20.21
569.444	20.14
569.639	20.18
569.835	20.14
570.03	20.06
570.225	20.08
570.421	20.05
570.616	20.16
570.812	20.13
571.007	20.09
571.202	20.18
571.397	20.13
571.593	20.17
571.788	20.06
571.983	20.06
572.178	20.07
572.374	20.02
572.569	19.99
572.764	19.9
572.959	19.9
573.154	19.88
573.35	19.86
573.545	19.93
573.74	19.95
573.935	20.05
574.13	20.21
574.325	20.22
574.52	20.42
574.715	20.64
574.91	20.86
575.105	21.13
575.3	21.49
575.495	21.84
575.69	22.03
575.885	22.36
576.08	22.66
576.275	23.02
576.47	23.36
576.665	23.74
576.86	23.88
577.055	24.08
577.25	24.26
577.444	24.41
577.639	24.64
577.834	24.97
578.029	25.32
578.224	25.59
578.418	25.66
578.613	25.85
578.808	25.9
579.003	26.17
579.197	26.28
579.392	26.25
579.587	26.25
579.781	25.97
579.976	25.7
580.171	25.44
580.365	25.27
580.56	25.36
580.755	25.18
580.949	25.09
581.144	25.18
581.338	25.27
581.533	25.43
581.727	25.41
581.922	25.58
582.116	25.86
582.311	25.9
582.505	25.98
582.7	25.88
582.894	26.06
583.089	26.04
583.283	26.01
583.478	25.86
583.672	25.79
583.866	25.77
584.061	25.74
584.255	25.75
584.449	25.8
584.644	25.89
584.838	25.99
585.032	26.09
585.226	26.4
585.421	26.59
585.615	27.11
585.809	27.34
586.003	27.72
586.198	27.93
586.392	28.22
586.586	28.62
586.78	28.81
586.974	28.93
587.168	28.93
587.363	28.77
587.557	28.44
587.751	27.84
587.945	27.7
588.139	27.21
588.333	26.84
588.527	26.34
588.721	25.76
588.915	25.33
589.109	25.02
589.303	24.87
589.497	24.72
589.691	24.58
589.885	24.65
590.079	24.66
590.273	24.8
590.466	25.06
590.66	25.19
590.854	25.56
591.048	26.02
591.242	26.3
591.436	26.5
591.629	26.84
591.823	27.22
592.017	27.58
592.211	27.88
592.404	28.15
592.598	28.19
592.792	28.25
592.986	28.09
593.179	27.75
593.373	27.51
593.567	27.21
593.76	26.77
593.954	26.44
594.147	26.06
594.341	25.52
594.535	25.23
594.728	24.9
594.922	24.67
595.115	24.45
595.309	24.25
595.502	24.07
595.696	23.92
595.889	23.93
596.083	23.94
596.276	23.84
596.47	23.88
596.663	23.76
596.856	23.82
597.05	23.95
597.243	24.1
597.437	24.21
597.63	24.42
597.823	24.84
598.017	24.97
598.21	25.19
598.403	25.48
598.596	25.7
598.79	25.87
598.983	26.15
599.176	26.1
599.369	26.26
599.563	26.26
599.756	26.21
599.949	25.91
600.142	25.84
600.335	25.75
600.528	25.52
600.722	25.42
600.915	25.36
601.108	25.03
601.301	24.9
601.494	24.66
601.687	24.65
601.88	24.66
602.073	24.53
602.266	24.25
602.459	23.95
602.652	23.8
602.845	23.69
603.038	23.57
603.231	23.58
603.424	23.51
603.617	23.52
603.809	23.43
604.002	23.38
604.195	23.36
604.388	23.5
604.581	23.67
604.774	23.83
604.966	23.84
605.159	23.92
605.352	24.08
605.545	24.26
605.737	24.38
605.93	24.5
606.123	24.65
606.316	25.04
606.508	25.35
606.701	25.75
606.894	26.04
607.086	26.57
607.279	27.1
607.471	27.66
607.664	28.38
607.857	29.29
608.049	30.58
608.242	32.09
608.434	33.93
608.627	36.31
608.819	39.21
609.012	42.64
609.204	46.4
609.397	50.46
609.589	55.03
609.782	59.93
609.974	64.72
610.166	69.78
610.359	74.56
610.551	78.94
610.743	82.73
610.936	85.77
611.128	87.97
611.32	89.45
611.513	90.15
611.705	89.58
611.897	88.34
612.09	86.71
612.282	84.55
612.474	81.9
612.666	78.97
612.858	76.02
613.051	73.15
613.243	70.4
613.435	67.84
613.627	65.49
613.819	63.46
614.011	61.37
614.203	59.24
614.395	57.05
614.588	54.89
614.78	52.94
614.972	51.02
615.164	49.03
615.356	47.49
615.548	46.14
615.74	44.57
615.932	43.1
616.124	41.69
616.315	40.31
616.507	38.73
616.699	37.62
616.891	36.58
617.083	35.49
617.275	34.79
617.467	33.74
617.659	32.74
617.85	32.07
618.042	31.63
618.234	31.08
618.426	30.7
618.618	30.41
618.809	30.23
619.001	30.19
619.193	30.03
619.384	29.96
619.576	30.1
619.768	29.98
619.959	29.96
620.151	29.95
620.343	29.95
620.534	29.99
620.726	30.23
620.917	30.25
621.109	30.1
621.301	30.27
621.492	30.4
621.684	30.4
621.875	30.38
622.067	30.5
622.258	30.56
622.45	30.83
622.641	31.18
622.832	31.39
623.024	31.46
623.215	31.74
623.407	31.73
623.598	31.65
623.789	31.85
623.981	32.05
624.172	32.03
624.363	32.19
624.555	32.05
624.746	31.92
624.937	31.8
625.129	31.83
625.32	31.68
625.511	31.58
625.702	31.41
625.893	31.18
626.085	31.01
626.276	30.83
626.467	30.74
626.658	30.61
626.849	30.44
627.04	30.45
627.231	30.45
627.422	30.46
627.614	30.63
627.805	30.7
627.996	30.96
628.187	31.26
628.378	31.65
628.569	31.91
628.76	32.35
628.951	32.95
629.142	33.32
629.332	33.9
629.523	34.42
629.714	34.99
629.905	35.75
630.096	36.31
630.287	36.71
630.478	36.76
630.669	36.71
630.859	36.74
631.05	36.35
631.241	35.97
631.432	35.37
631.623	34.76
631.813	34.13
632.004	33.28
632.195	32.52
632.385	31.61
632.576	31.06
632.767	30.54
632.957	29.68
633.148	29.44
633.339	29.04
633.529	28.58
633.72	28.14
633.91	27.72
634.101	27.61
634.292	27.31
634.482	27.06
634.673	26.8
634.863	26.5
635.054	26.69
635.244	26.37
635.435	26.5
635.625	26.38
635.815	26.36
636.006	26.29
636.196	25.86
636.387	25.79
636.577	25.77
636.767	25.79
636.958	25.9
637.148	25.69
637.338	25.7
637.529	25.54
637.719	25.52
637.909	25.68
638.099	25.86
638.29	25.8
638.48	25.76
638.67	25.78
638.86	25.79
639.05	25.8
639.241	25.9
639.431	26.07
639.621	26.15
639.811	26.31
640.001	26.31
640.191	26.3
640.381	26.45
640.571	26.39
640.761	26.64
640.951	26.79
641.141	26.71
641.331	26.72
641.521	26.56
641.711	26.38
641.901	26.41
642.091	26.39
642.281	26.13
642.471	26.21
642.661	26.21
642.851	26.25
643.041	26.28
643.231	26.45
643.42	26.29
643.61	26.2
643.8	26.25
643.99	26.16
644.18	26.13
644.369	26.33
644.559	26.61
644.749	26.65
644.939	26.6
645.128	26.28
645.318	26.2
645.508	26.5
645.697	26.72
645.887	26.8
646.076	26.96
646.266	26.96
646.456	27.09
646.645	26.85
646.835	26.79
647.024	26.64
647.214	27.01
647.403	27.03
647.593	27.13
647.782	26.93
647.972	27.1
648.161	27.59
648.351	27.62
648.54	27.72
648.73	28.09
648.919	28.51
649.108	28.77
649.298	29.02
649.487	29.52
649.677	29.75
649.866	30.06
650.055	30.14
650.244	29.84
650.434	30.12
650.623	29.91
650.812	29.85
651.002	29.87
651.191	29.65
651.38	29.66
651.569	29.49
651.758	29.31
651.947	29.22
652.137	29.01
652.326	28.94
652.515	28.92
652.704	29.09
652.893	28.93
653.082	28.61
653.271	28.47
653.46	28.17
653.649	27.88
653.838	27.68
654.027	27.5
654.216	27.47
654.405	27.46
654.594	27.1
654.783	26.9
654.972	26.9
655.161	26.89
655.35	27.12
655.539	27.02
655.728	27.08
655.916	27.09
656.105	27.29
656.294	27.27
656.483	27.13
656.672	27.22
656.86	27.37
657.049	27.24
657.238	27.19
657.427	27.06
657.615	27.03
657.804	26.98
657.993	26.98
658.181	26.88
658.37	26.84
658.559	26.67
658.747	26.72
658.936	26.57
659.125	26.58
659.313	26.59
659.502	26.8
659.69	26.82
659.879	26.97
660.067	26.87
660.256	26.81
660.444	26.89
660.633	27.29
660.821	27.35
661.01	27.81
661.198	28.15
661.387	28.45
661.575	28.29
661.763	28.44
661.952	28.42
662.14	28.69
662.328	28.96
662.517	29.06
662.705	29.06
662.893	29.08
663.082	28.74
663.27	28.56
663.458	28.48
663.646	28.68
663.834	28.64
664.023	28.49
664.211	28.45
664.399	28.45
664.587	28.46
664.775	28.41
664.963	28.02
665.152	27.84
665.34	27.85
665.528	27.7
665.716	27.86
665.904	28.09
666.092	28.19
666.28	28.13
666.468	28.01
666.656	27.83
666.844	27.7
667.032	28.02
667.22	28.72
667.408	28.97
667.596	29.12
667.784	29.02
667.971	28.78
668.159	28.59
668.347	28.6
668.535	28.39
668.723	28.38
668.911	28.42
669.098	28.44
669.286	27.89
669.474	27.35
669.662	27.26
669.849	27.2
670.037	27.35
670.225	27.27
670.413	27
670.6	27.14
670.788	27.64
670.976	27.74
671.163	27.69
671.351	27.77
671.538	27.87
671.726	27.88
671.913	27.96
672.101	28.11
672.289	28.25
672.476	28.72
672.664	28.92
672.851	28.54
673.039	28.53
673.226	28.87
673.413	28.75
673.601	28.92
673.788	28.92
673.976	28.71
674.163	28.6
674.35	28.62
674.538	28.25
674.725	28.34
674.912	28.29
675.1	28.19
675.287	27.72
675.474	27.74
675.662	27.44
675.849	27.55
676.036	27.67
676.223	27.43
676.411	27.71
676.598	27.8
676.785	27.57
676.972	27.74
677.159	27.72
677.346	27.6
677.533	27.82
677.721	28.22
677.908	28.15
678.095	28.2
678.282	28.1
678.469	27.98
678.656	27.99
678.843	27.81
679.03	27.58
679.217	27.62
679.404	27.84
679.591	27.87
679.778	27.97
679.964	28.09
680.151	27.74
680.338	28.19
680.525	28.14
680.712	28.36
680.899	28.48
681.086	28.7
681.272	28.71
681.459	28.86
681.646	28.54
681.833	28.61
682.02	28.47
682.206	28.81
682.393	28.56
682.58	28.65
682.766	28.7
682.953	28.92
683.14	28.96
683.326	29.08
683.513	28.96
683.7	29.51
683.886	29.31
684.073	29.11
684.259	29.03
684.446	29.27
684.632	29.63
684.819	29.52
685.005	29.46
685.192	29.53
685.378	29.5
685.565	29.69
685.751	29.6
685.938	29.79
686.124	30
686.31	30.42
686.497	30.55
686.683	30.28
686.87	30.73
687.056	31.03
687.242	31.38
687.429	31.76
687.615	31.89
687.801	31.91
687.987	31.93
688.174	32.31
688.36	32.11
688.546	31.98
688.732	31.86
688.918	31.56
689.105	31.42
689.291	30.94
689.477	30.52
689.663	30.34
689.849	30.2
690.035	29.97
690.221	29.81
690.407	29.53
690.593	29.16
690.779	29.23
690.965	29.14
691.151	28.62
691.337	28.9
691.523	29.13
691.709	29.29
691.895	29.54
692.081	29.48
692.267	29.56
692.453	30.16
692.639	30.71
692.825	31.09
693.011	31.29
693.196	31.95
693.382	32.14
693.568	32.07
693.754	32.13
693.94	31.81
694.125	32.07
694.311	32.06
694.497	32.05
694.682	31.64
694.868	31.43
695.054	31.28
695.239	30.95
695.425	30.57
695.611	30.49
695.796	30.44
695.982	30.43
696.168	30.3
696.353	30.12
696.539	29.68
696.724	29.62
696.91	29.19
697.095	28.78
697.281	28.64
697.466	28.46
697.652	28.33
697.837	28.15
698.023	28.03
698.208	27.8
698.393	27.78
698.579	27.87
698.764	27.67
698.949	27.78
699.135	28.02
699.32	27.96
699.505	28.07
699.691	28.35
699.876	28.39
700.061	28.52
700.246	28.87
700.432	28.75
700.617	28.96
700.802	29.36
700.987	29.51
701.172	29.86
701.358	29.82
701.543	29.85
701.728	29.46
701.913	29.61
702.098	29.81
702.283	29.82
702.468	30.36
702.653	30.26
702.838	30.4
703.023	30.82
703.208	30.62
703.393	31.43
703.578	31.91
703.763	32.41
703.948	32.75
704.133	33.06
704.318	33.79
704.503	34.42
704.688	35.33
704.873	35.87
705.057	36.63
705.242	37.44
705.427	38.54
705.612	39.1
705.797	40.03
705.981	40.55
706.166	41.37
706.351	42.16
706.536	42.74
706.72	42.93
706.905	43.47
707.09	43.27
707.274	43.66
707.459	43.47
707.644	43.53
707.828	43.72
708.013	44.24
708.197	44.26
708.382	43.58
708.567	43.23
708.751	42.67
708.936	42.02
709.12	41.81
709.305	41.34
709.489	40.8
709.673	40.56
709.858	39.83
710.042	39.24
710.227	38.9
710.411	39.05
710.596	38.77
710.78	39.21
710.964	39.46
711.149	39.27
711.333	39.5
711.517	39.81
711.702	39.99
711.886	40.16
712.07	39.56
712.254	39
712.438	38.3
712.623	38.14
712.807	37.21
712.991	36.6
713.175	35.75
713.359	34.85
713.544	33.83
713.728	32.62
713.912	32.03
714.096	31.83
714.28	31.43
714.464	31.08
714.648	30.11
714.832	29.68
715.016	29.75
715.2	30.01
715.384	29.81
715.568	29.51
715.752	29.24
715.936	28.78
716.12	28.65
716.304	28.9
716.488	28.9
716.671	29.13
716.855	29.52
717.039	29.29
717.223	29.23
717.407	29.09
717.59	29.46
717.774	29.91
717.958	30.57
718.142	30.66
718.325	30.07
718.509	30.55
718.693	30.6
718.877	30.36
719.06	29.89
719.244	29.86
719.428	30.28
719.611	30.01
719.795	30.05
719.978	29.63
720.162	29.59
720.345	29.83
720.529	29.38
720.713	29.49
720.896	29.52
721.08	30.23
721.263	29.95
721.446	29.69
721.63	30.09
721.813	30.49
721.997	30.37
722.18	30.43
722.364	30.16
722.547	30.45
722.73	30.1
722.914	30.37
723.097	29.74
723.28	29.82
723.464	30.21
723.647	29.92
723.83	29.6
724.013	29.42
724.197	28.88
724.38	29.24
724.563	28.69
724.746	29.07
724.929	29.35
725.112	28.95
725.296	29.39
725.479	28.72
725.662	28.53
725.845	28.51
726.028	29.04
726.211	29.66
726.394	29.9
726.577	29.81
726.76	29.86
726.943	29.12
727.126	29.52
727.309	29.46
727.492	29.68
727.675	29.64
727.858	29.63
728.041	28.94
728.224	28.72
728.407	28.17
728.589	28.33
728.772	28.41
728.955	28.93
729.138	29.08
729.321	28.67
729.503	28.44
729.686	28.97
729.869	28.95
730.052	29.27
730.234	29.36
730.417	29.72
730.6	29.41
730.782	29.35
730.965	29.12
731.148	29.34
731.33	30.03
731.513	30.26
731.695	30.35
731.878	30.31
732.061	30.4
732.243	30.94
732.426	30.76
732.608	31.09
732.791	31.12
732.973	31.21
733.156	31.18
733.338	30.87
733.52	31.08
733.703	30.18
733.885	30.11
734.068	29.97
734.25	29.2
734.432	29.39
734.615	29.45
734.797	29.14
734.979	29.16
735.162	29.42
735.344	29.57
735.526	29.38
735.708	30.01
735.891	29.69
736.073	30.1
736.255	30.17
736.437	30.61
736.619	30.84
736.802	31.57
736.984	31.38
737.166	31
737.348	31.2
737.53	31.22
737.712	31.51
737.894	31.96
738.076	31.65
738.258	31.07
738.44	30.92
738.622	30.65
738.804	30.21
738.986	30.58
739.168	30.1
739.35	29.65
739.532	29.59
739.714	29.69
739.896	29.96
740.078	30.56
740.259	31.5
740.441	31.56
740.623	31.71
740.805	30.96
740.987	30.9
741.168	31.1
741.35	30.99
741.532	31.39
741.714	31.23
741.895	30.99
742.077	30.41
742.259	30.42
742.44	30.29
742.622	30.8
742.804	31.26
742.985	30.97
743.167	31.8
743.348	32.27
743.53	32.34
743.711	32.31
743.893	32.82
744.075	32.78
744.256	32.25
744.438	32.75
744.619	32.52
744.8	32.65
744.982	32.97
745.163	32.07
745.345	31.74
745.526	31.34
745.707	31.93
745.889	31.1
746.07	31.92
746.252	32.59
746.433	31.81
746.614	32.16
746.795	31.68
746.977	31.73
747.158	32.45
747.339	32.57
747.52	32.99
747.702	31.79
747.883	32.45
748.064	32.74
748.245	32.43
748.426	32.34
748.607	31.97
748.788	32.66
748.97	32.64
749.151	32.07
749.332	32.14
749.513	32.14
749.694	32.88
749.875	32.07
750.056	31.61
750.237	32.05
750.418	32.31
750.599	31.54
750.78	31.29
750.96	31.39
751.141	31.54
751.322	31.27
751.503	30.53
751.684	30.49
751.865	31.16
752.046	31.09
752.226	31.21
752.407	30.73
752.588	30.89
752.769	30.82
752.949	31.56
753.13	31.82
753.311	32.33
753.492	33.62
753.672	33.44
753.853	33.37
754.034	32.48
754.214	32.79
754.395	33.28
754.575	34.06
754.756	34.32
754.937	33.07
755.117	32.32
755.298	31.79
755.478	31.28
755.659	31.22
755.839	30.88
756.02	31.41
756.2	30.77
756.381	30.82
756.561	29.78
756.741	29.34
756.922	29.63
757.102	30.31
757.283	30.36
757.463	29.72
757.643	30.02
757.823	30.15
758.004	29.99
758.184	29.44
758.364	29.83
758.545	30.53
758.725	30.67
758.905	30.65
759.085	30.04
759.265	29.43
759.446	29.53
759.626	29.24
759.806	28.91
759.986	29.17
760.166	29.14
760.346	28.97
760.526	28.76
760.706	29.36
760.886	29.45
761.066	29.5
761.246	29.86
761.426	30.01
761.606	29.51
761.786	29.65
761.966	30.1
762.146	30.46
762.326	29.82
762.506	29.92
762.686	28.98
762.866	28.91
763.046	29.24
763.225	29.09
763.405	29.21
763.585	29.67
763.765	29.47
763.945	28.77
764.124	28.31
764.304	28.33
764.484	28.23
764.664	28.56
764.843	28.3
765.023	28.48
765.203	28.41
765.382	28.69
765.562	28.35
765.741	28.61
765.921	28.9
766.101	28.87
766.28	29.21
766.46	29.83
766.639	29.81
766.819	30.66
766.998	30.26
767.178	31.2
767.357	31.3
767.537	31.63
767.716	31.75
767.896	31.54
768.075	32.93
768.254	33.27
768.434	32.93
768.613	32.69
768.792	32.5
768.972	33.61
769.151	33.22
769.33	33.4
769.51	33.29
769.689	32.75
769.868	33.43
770.047	32.17
770.226	32.22
770.406	32.75
770.585	33.24
770.764	32.69
770.943	31.16
771.122	31.54
771.301	31.16
771.48	31.24
771.66	32.34
771.839	31.87
772.018	32.75
772.197	31.96
772.376	31.09
772.555	31.44
772.734	31.56
772.913	32.42
773.092	32.73
773.271	32.11
773.449	31.85
773.628	31.65
773.807	32.49
773.986	32.1
774.165	32.76
774.344	33.83
774.523	35.32
774.701	35.57
774.88	35.8
775.059	34.63
775.238	34.72
775.417	35.36
775.595	35.39
775.774	34.73
775.953	34.48
776.131	34.45
776.31	33.66
776.489	32.83
776.667	31.45
776.846	31.15
777.025	32.31
777.203	32.41
777.382	32.03
777.56	32.7
777.739	33.45
777.917	33.97
778.096	33.77
778.274	33.24
778.453	33.05
778.631	33.31
778.81	33.28
778.988	32.38
779.166	32.94
779.345	33.47
779.523	31.56
779.702	31.07
779.88	30.82
780.058	31.49
780.237	31.49
780.415	30.39
780.593	31.99
780.771	32.48
780.95	32.55
781.128	33.14
781.306	33.2
781.484	34.73
781.662	34.16
781.841	34.18
782.019	34.29
782.197	34.28
782.375	34.71
782.553	34.01
782.731	33.27
782.909	32.45
783.087	30.52
783.265	29.41
783.443	29.26
783.621	29.63
783.799	30.43
783.977	29.29
784.155	28.39
784.333	27.79
784.511	27.69
784.689	28.43
784.867	29.21
785.045	30.32
785.223	30.87
785.4	30.39
785.578	30.77
785.756	29.66
785.934	28.76
786.112	29.83
786.289	30.25
786.467	31.37
786.645	30.48
786.823	30.97
787	30.26
787.178	30.24
787.356	30.31
787.533	29.71
787.711	29.87
787.889	31.37
788.066	30.47
788.244	30.4
788.421	28.88
788.599	29.11
788.776	28.18
788.954	28.98
789.131	28.06
789.309	27.84
789.486	28.92
789.664	29.3
789.841	29.32
790.019	30.55
790.196	30.6
790.373	31.82
790.551	32.11
790.728	33.43
790.906	32.69
791.083	34.18
791.26	33.9
791.437	33.14
791.615	32.24
791.792	31.79
791.969	29.74
792.146	31.43
792.324	31.6
792.501	30.06
792.678	29.35
792.855	28.39
793.032	27.32
793.209	27.83
793.387	26.76
793.564	27.17
793.741	28.6
793.918	30.73
794.095	29.35
794.272	28.03
794.449	30.31
794.626	31.33
794.803	32.64
794.98	33.14
795.157	32.13
795.334	32.17
795.511	32.87
795.688	31.83
795.864	31.22
796.041	31.34
796.218	30.89
796.395	29.17
796.572	27.28
796.749	27.37
796.925	27.98
797.102	28.99
797.279	29.39
797.456	28.46
797.632	27.13
797.809	27.93
797.986	26.04
798.162	26.99
798.339	25.77
798.516	26.16
798.692	25.19
798.869	25.19
799.046	25.19
799.222	25.24
799.399	25.89
799.575	26.7
799.752	25.96
799.928	28.37
800.105	29.26
800.281	31.39
800.458	32.22
800.634	33.06
800.811	31.22
800.987	31.56
801.163	31.01
801.34	31.31
801.516	32.44
801.692	32.03
801.869	30.11
802.045	28.3
802.221	29.43
802.398	28.33
802.574	27.95
802.75	28.52
802.926	27.26
803.103	27.76
803.279	27.19
803.455	26.15
803.631	25.11
803.807	26.73
803.983	27.24
804.16	27.35
804.336	26.67
804.512	27.01
804.688	27.81
804.864	29.11
805.04	29.11
805.216	29.82
805.392	29.7
805.568	32.27
805.744	33.47
805.92	33.34
806.096	31.62
806.272	32.99
806.448	32.58
806.623	31.84
806.799	31.26
806.975	31.32
807.151	29.93
807.327	30.45
807.503	28.34
807.678	26.54
807.854	27.79
808.03	27.14
808.206	27.32
808.381	26.5
808.557	26.02
808.733	25.75
808.908	25.88
809.084	26.67
809.26	26.3
809.435	28.02
809.611	27.58
809.787	27.28
809.962	27.97
810.138	26.74
810.313	28.27
810.489	28.56
810.664	29.02
810.84	29.89
811.015	29.96
811.191	31.12
811.366	29.77
811.542	30.15
811.717	29.96
811.892	30.12
812.068	31.87
812.243	30.66
812.419	30.17
812.594	30.06
812.769	29.64
812.944	28.89
813.12	27.1
813.295	27.96
813.47	28.46
813.645	25.73
813.821	24.04
813.996	22.47
814.171	22.24
814.346	22.69
814.521	22.33
814.697	21.31
814.872	21.67
815.047	21.83
815.222	21.08
815.397	19.89
815.572	22.11
815.747	22.74
815.922	23.99
816.097	23.91
816.272	23.25
816.447	23.67
816.622	24.34
816.797	23.3
816.972	22.81
817.147	23.64
817.322	24.6
817.496	25.85
817.671	26.35
817.846	25.79
818.021	24.97
818.196	25.96
818.371	26.82
818.545	26.81
818.72	27.51
818.895	27.69
819.069	27.11
819.244	27.48
819.419	26.28
819.594	25.83
819.768	25.74
819.943	26.61
820.117	25.41
820.292	24.84
820.467	24.02
820.641	24.67
820.816	25.19
820.99	24.93
821.165	24.67
821.339	24.55
821.514	24.23
821.688	24.39
821.863	24.4
822.037	24.72
822.212	24.46
822.386	24.45
822.56	24.2
822.735	24.11
822.909	24.15
823.084	24.2
823.258	24.17
823.432	24.41
823.606	24.33
823.781	24.22
823.955	24.2
824.129	24.05
824.303	23.95
824.478	24.08
824.652	23.94
824.826	24.16
825	24
825.174	24.14
825.348	23.84
825.523	24.08
825.697	23.96
825.871	23.48
826.045	24.09
826.219	24.86
826.393	24.75
826.567	24.95
826.741	24.56
826.915	24.35
827.089	24.47
827.263	25.06
827.437	24.87
827.611	25.43
827.784	26.12
827.958	26.3
828.132	26.39
828.306	26.41
828.48	25.83
828.654	26.52
828.827	27.23
829.001	26.55
829.175	26.79
829.349	27.24
829.522	26.76
829.696	27.03
829.87	26.59
830.044	25.88
830.217	26.3
830.391	27.01
830.565	26.45
830.738	26.81
830.912	28.64
831.085	27.14
831.259	27.57
831.432	27.35
831.606	27.43
831.779	26.48
831.953	27.99
832.126	27.46
832.3	28.2
832.473	27.99
832.647	26.6
832.82	26.54
832.994	27.29
833.167	25.53
833.34	25.69
833.514	24.03
833.687	25.07
833.86	24.4
834.034	24.11
834.207	23.13
834.38	22.75
834.553	22.73
834.727	22.39
834.9	21.55
835.073	21.22
835.246	21.61
835.419	22.82
835.593	22.59
835.766	22.83
835.939	22.96
836.112	24.68
836.285	24.88
836.458	24.84
836.631	25.23
836.804	25.49
836.977	25.18
837.15	26.58
837.323	26.55
837.496	25.44
837.669	25.11
837.842	25.45
838.015	24.42
838.188	24.31
838.361	26.26
838.533	25.83
838.706	27.48
838.879	29.91
839.052	26.36
839.225	23.77
839.398	23.69
839.57	23.75
839.743	22.05
839.916	22.29
840.088	22.55
840.261	21.89
840.434	20.53
840.607	20.85
840.779	21.63
840.952	20.71
841.124	21.92
841.297	22.78
841.47	24.01
841.642	25.26
841.815	23.69
841.987	22.48
842.16	22.88
842.332	25.53
842.505	22.45
842.677	21.57
842.85	21.8
843.022	24.69
843.194	25.26
843.367	21.53
843.539	23.95
843.712	24.37
843.884	25.52
844.056	22.87
844.229	22.89
844.401	26.03
844.573	23.71
844.745	27.89
844.918	21.31
845.09	21.72
845.262	26.22
845.434	20.4
845.606	18.09
845.779	22.53
845.951	19.68
846.123	17.32
846.295	14.92
846.467	15.94
846.639	16.01
846.811	17.5
846.983	17.97
847.155	18.49
847.327	23.17
847.499	25.31
847.671	18.52
847.843	25.61
848.015	27.67
848.187	29.01
848.359	31.03
848.531	28.05
848.703	29.66
848.875	27.84
849.047	24.49
849.218	23.14
849.39	21.3
849.562	21.69
849.734	21.25
849.905	19.59
850.077	17.29
850.249	18.98
850.421	18.67
850.592	18.23
850.764	17.14
850.936	16.03
851.107	13.38
851.279	16.25
851.451	21.94
851.622	20.72
851.794	20.02
851.965	21.15
852.137	18.23
852.308	15.57
852.48	15.63
852.651	15.83
852.823	19.08
852.994	22.31
853.166	23.57
853.337	25.15
853.509	23.75
853.68	24.4
853.851	25.48
854.023	24.1
854.194	22.33
854.365	25.44
854.537	28.47
854.708	28.41
854.879	25.65
855.05	23.06
855.222	14.32
855.393	8.89
855.564	9.43
855.735	12.63
855.906	10.94
856.078	16.79
856.249	15.13
856.42	15.8
856.591	20.08
856.762	15.89
856.933	15.36
857.104	17.7
857.275	22.65
857.446	24.14
857.617	22.63
857.788	24.72
857.959	27.21
858.13	27.27
858.301	25.01
858.472	20.8
858.643	29.49
858.814	26.99
858.985	26.6
859.155	22.54
859.326	23.94
859.497	25.49
859.668	25.61
859.839	27.3
860.009	26.82
860.18	28.69
860.351	28.35
860.522	22.08
860.692	28.61
860.863	31.39
861.034	36.9
861.204	34.2
861.375	31.63
861.546	33.07
861.716	30.5
861.887	30.88
862.057	31.8
862.228	29.73
862.398	32.91
862.569	31.98
862.739	25.35
862.91	25.02
863.08	28.49
863.251	24.89
863.421	27.45
863.592	26.39
863.762	26.19
863.932	25.06
864.103	25.28
864.273	26.12
864.443	21.8
864.614	23.91
864.784	25.95
864.954	26.56
865.125	25.69
865.295	21.24
865.465	24.64
865.635	20.7
865.805	17.86
865.976	13.81
866.146	8.55
866.316	8.72
866.486	10.48
866.656	10.37
866.826	5.17
866.996	13.04
867.166	16.1
867.336	6.21
867.506	4.81
867.676	8.83
867.846	15.4
868.016	14.36
868.186	19.34
868.356	15.56
868.526	10.14
868.696	11.47
868.866	9.49
869.036	4.8
869.206	10.98
869.376	17.4
869.545	8.18
869.715	2.8
869.885	6.71
870.055	1.56
870.224	15.22
870.394	19.41
870.564	23.21
870.734	25.52
870.903	23.83
871.073	21.24
871.243	24.44
871.412	27.34
871.582	28.44
871.751	30.75
871.921	32.83
872.091	27.04
872.26	27.06
872.43	20.8
872.599	21
872.769	22.29
872.938	29.61
873.108	25.83
873.277	23.98
873.446	21.29
873.616	18.71
873.785	17.66
873.955	13.18
874.124	11.78
874.293	21.53
874.463	18.44
874.632	21.12
874.801	15.04
874.971	12.93
875.14	13.18
875.309	8.08
875.478	12.03
875.647	11.13
875.817	16.16
875.986	15.09
876.155	3.46
876.324	6.32
876.493	1.02
876.662	3.21
876.831	5.51
877	3.69
877.17	12.43
877.339	10.71
877.508	10.86
877.677	10.31
877.846	14.68
878.015	14.92
878.184	16.6
878.352	19.08
878.521	19.43
878.69	17.91
878.859	23.23
879.028	21.93
879.197	18.88
879.366	16.44
879.534	17.27
879.703	15.52
879.872	15.04
880.041	15.62
880.21	16.6
880.378	18.33
880.547	17.92
880.716	17.37
880.884	17.83
881.053	18.66
881.222	20.57
881.39	20.87
881.559	21.57
881.727	22.66
881.896	22.35
882.065	22.61
882.233	22.28
882.402	22.77
882.57	22.58
882.739	22.72
882.907	22.5
883.076	21.94
883.244	22.35
883.412	22.73
883.581	22.53
883.749	22.26
883.918	22.53
884.086	21.88
884.254	22.68
884.423	22.82
884.591	22.82
884.759	23.16
884.927	23.19
885.096	23.36
885.264	19.53
885.432	20.35
885.6	19.4
885.769	18.22
885.937	19.33
886.105	17.46
886.273	18.38
886.441	19.73
886.609	19.62
886.777	19.47
886.945	16.66
887.113	19.5
887.281	14.34
887.449	16.47
887.617	15.19
887.785	16.64
887.953	14.91
888.121	11.87
888.289	9.84
888.457	12.11
888.625	9.25
888.793	15.34
888.961	15.33
889.129	18.19
889.296	20.62
889.464	22.15
889.632	19.47
889.8	20.83
889.967	24.83
890.135	23.06
