Data from 2938718__Reflection_02.txt Node
Date: Tue Mar 17 18:42:19 EDT 2015
User: robert
Spectrometer: USB4E03002
Autoset integration time: false
Trigger mode: 4
Integration Time (sec): 1.000000E-1
Scans to average: 10
Electric dark correction enabled: false
Nonlinearity correction enabled: false
Boxcar width: 5
Stray light correction enabled: false
XAxis mode: Wavelengths
Stop averaging: false
Number of Pixels in Spectrum: 3648
>>>>>Begin Spectral Data<<<<<
177.575	256.9
177.794	-173.53
178.014	-53.93
178.233	6.15
178.452	-14.91
178.672	-28.86
178.891	-34.33
179.11	-48.21
179.33	-42.65
179.549	-53.8
179.768	-78.52
179.987	-83.69
180.207	-167.99
180.426	-798.77
180.645	-976.56
180.864	-554.17
181.084	-1529.41
181.303	476.56
181.522	265.18
181.741	134.12
181.96	201.87
182.179	187
182.398	326.7
182.618	265.97
182.837	643.82
183.056	226
183.275	244.3
183.494	243.54
183.713	154.1
183.932	153.54
184.151	405.88
184.37	420
184.589	207.94
184.808	98.25
185.027	183.33
185.246	151.5
185.465	156.99
185.684	277.65
185.903	101.14
186.122	287.79
186.341	3166.67
186.56	5600
186.779	313.68
186.998	2776.92
187.216	-928.26
187.435	-645.1
187.654	-85.92
187.873	-632.08
188.092	-1784.62
188.311	-217.24
188.53	-193.78
188.748	-6325
188.967	565.93
189.186	422.44
189.405	420.11
189.623	688.24
189.842	592.91
190.061	413.1
190.28	-3284.21
190.498	-6300
190.717	-671.74
190.936	167.35
191.154	111.51
191.373	184.68
191.592	10100
191.81	285.98
192.029	142.55
192.248	110.95
192.466	76.79
192.685	-578.57
192.904	388.37
193.122	45.6
193.341	-12.63
193.559	27.38
193.778	13.06
193.996	19.21
194.215	38.75
194.433	-85.03
194.652	-302.33
194.87	-131.79
195.089	-169.71
195.307	-868.42
195.526	383.22
195.744	295.73
195.963	185.45
196.181	149.04
196.399	-1647.06
196.618	-131.98
196.836	-131.84
197.055	-146.7
197.273	-6371.43
197.491	410.29
197.71	213.99
197.928	304.21
198.146	509.6
198.365	443.33
198.583	336.41
198.801	297.45
199.019	219.17
199.238	135.5
199.456	137.59
199.674	200.7
199.892	208.55
200.111	-368.75
200.329	36.36
200.547	-88
200.765	-146.75
200.983	-303.55
201.202	-700
201.42	539.68
201.638	-553.12
201.856	296.71
202.074	189.52
202.292	245.74
202.51	261.09
202.728	257.36
202.946	166.67
203.165	98.27
203.383	97.91
203.601	100.4
203.819	94.6
204.037	103.2
204.255	122.18
204.473	137.18
204.691	112.92
204.909	108.03
205.127	112.5
205.345	123.48
205.562	140.92
205.78	126.29
205.998	128.09
206.216	119.93
206.434	137.24
206.652	123.09
206.87	133.52
207.088	214.6
207.306	285.93
207.523	526.44
207.741	285.71
207.959	208.26
208.177	314.94
208.395	-184.78
208.612	23.49
208.83	-36.79
209.048	13.64
209.266	3.64
209.483	565.22
209.701	-15.22
209.919	204.55
210.136	72.19
210.354	1.81
210.572	82.35
210.79	135.19
211.007	73.61
211.225	214.41
211.442	4550
211.66	218.67
211.878	-1003.7
212.095	-101.65
212.313	-305.26
212.53	-1213.33
212.748	-55.19
212.966	45.83
213.183	-31.29
213.401	48.89
213.618	62.28
213.836	67.29
214.053	11.23
214.271	70.31
214.488	39.89
214.705	46.64
214.923	64.77
215.14	57.12
215.358	45.97
215.575	62.23
215.793	67.2
216.01	55.95
216.227	77.93
216.445	78.28
216.662	59.28
216.879	60.93
217.097	40.48
217.314	43.13
217.531	42.15
217.749	42.06
217.966	34.98
218.183	20.61
218.4	19.77
218.618	19.38
218.835	27.51
219.052	39.45
219.269	39.06
219.487	52.36
219.704	46.5
219.921	42.43
220.138	42.38
220.355	46.53
220.572	46.16
220.79	46.93
221.007	45.49
221.224	38.2
221.441	31.87
221.658	29.87
221.875	15.59
222.092	13.05
222.309	8.52
222.526	14.75
222.743	17
222.96	11.33
223.177	12.09
223.394	7.72
223.611	15.04
223.828	17.8
224.045	20.05
224.262	14.25
224.479	14.88
224.696	17.3
224.913	15.18
225.13	9.65
225.347	11.79
225.564	9.99
225.781	11.4
225.997	5.39
226.214	3.09
226.431	3.94
226.648	10.02
226.865	8.87
227.082	7.24
227.298	6.06
227.515	7.99
227.732	7.87
227.949	8.25
228.165	7.75
228.382	7.85
228.599	8.3
228.816	6.85
229.032	6.93
229.249	6.47
229.466	6.65
229.682	6.64
229.899	5.92
230.116	5
230.332	4.87
230.549	4.82
230.765	4.57
230.982	3.79
231.199	4.87
231.415	4.14
231.632	4.26
231.848	5.22
232.065	4.4
232.281	4.68
232.498	6.12
232.714	6.93
232.931	8.4
233.147	10.28
233.364	10.96
233.58	9.71
233.797	8.56
234.013	7.94
234.23	5.77
234.446	7.21
234.662	5.77
234.879	4.67
235.095	4.52
235.312	4.04
235.528	2.12
235.744	0.94
235.961	1.14
236.177	0.86
236.393	1.42
236.61	2.51
236.826	1.88
237.042	1.88
237.258	2.21
237.475	2.18
237.691	2.5
237.907	3
238.123	5.53
238.339	6.21
238.556	7.23
238.772	7.35
238.988	7.13
239.204	7.34
239.42	7.79
239.636	6.88
239.853	6.07
240.069	4.72
240.285	5.32
240.501	4.72
240.717	4.99
240.933	4.51
241.149	5.32
241.365	4.83
241.581	4.47
241.797	4.99
242.013	5.33
242.229	5.13
242.445	4.73
242.661	4.22
242.877	4.3
243.093	3.89
243.309	3.65
243.525	3.07
243.741	3.27
243.957	3.4
244.173	2.71
244.388	2.9
244.604	3.21
244.82	3.9
245.036	4.39
245.252	4.1
245.468	3.8
245.683	3.53
245.899	3.98
246.115	3.88
246.331	4.02
246.547	4.23
246.762	3.64
246.978	3.61
247.194	3.55
247.409	3.47
247.625	3.33
247.841	3.55
248.057	3.75
248.272	3.25
248.488	3.2
248.703	3.18
248.919	3.13
249.135	3.39
249.35	3.43
249.566	3.31
249.782	3.14
249.997	3.45
250.213	3.52
250.428	3.71
250.644	4.24
250.859	3.96
251.075	3.63
251.29	3.97
251.506	4.18
251.721	4.02
251.937	3.96
252.152	3.95
252.368	3.84
252.583	3.08
252.798	2.82
253.014	2.96
253.229	2.82
253.445	3.41
253.66	2.96
253.875	3.46
254.091	3.52
254.306	3.76
254.521	3.79
254.737	3.69
254.952	3.91
255.167	4.53
255.383	4.71
255.598	5.16
255.813	4.66
256.028	5.11
256.244	3.99
256.459	3.78
256.674	3.12
256.889	2.65
257.104	2.72
257.32	2.35
257.535	2.61
257.75	2.49
257.965	2.67
258.18	2.42
258.395	2.06
258.61	2.69
258.826	2.53
259.041	2.76
259.256	3.06
259.471	2.9
259.686	2.88
259.901	2.78
260.116	2.64
260.331	2.53
260.546	2.78
260.761	2.76
260.976	2.64
261.191	2.61
261.406	2.76
261.621	2.65
261.836	2.96
262.05	3.76
262.265	3.85
262.48	3.87
262.695	3.9
262.91	3.73
263.125	3.88
263.34	3.48
263.555	4.13
263.769	3.81
263.984	3.9
264.199	3.06
264.414	2.12
264.629	1.83
264.843	1.56
265.058	1.86
265.273	1.31
265.488	1.41
265.702	1.73
265.917	1.5
266.132	1.77
266.346	1.85
266.561	2.02
266.776	2.72
266.99	2.55
267.205	3.1
267.42	3.2
267.634	3.24
267.849	3.3
268.063	3.41
268.278	3.71
268.492	3.62
268.707	3.71
268.922	4.01
269.136	3.61
269.351	3.93
269.565	3.7
269.78	3.8
269.994	4.22
270.209	3.85
270.423	3.85
270.637	3.54
270.852	3.58
271.066	3.28
271.281	3.4
271.495	3.15
271.709	3.14
271.924	3.23
272.138	3.32
272.353	2.92
272.567	2.88
272.781	2.76
272.996	3
273.21	2.72
273.424	3.11
273.638	2.92
273.853	3.11
274.067	3.27
274.281	3.55
274.495	3.6
274.71	3.82
274.924	3.85
275.138	3.39
275.352	3.01
275.566	3.11
275.781	3
275.995	2.94
276.209	2.78
276.423	2.4
276.637	2.03
276.851	1.26
277.065	1.22
277.279	1.47
277.493	2.14
277.707	2.38
277.921	2.5
278.135	2.51
278.349	2.22
278.563	2.46
278.777	2.34
278.991	2.46
279.205	2.66
279.419	2.64
279.633	2.63
279.847	2.19
280.061	1.94
280.275	1.86
280.489	1.63
280.703	2.08
280.917	1.91
281.131	2.02
281.344	1.77
281.558	1.81
281.772	1.94
281.986	2.14
282.2	2.17
282.414	2.28
282.627	2.14
282.841	2.27
283.055	2.18
283.269	1.97
283.482	1.61
283.696	1.86
283.91	2.11
284.123	1.91
284.337	1.54
284.551	1.41
284.764	1.3
284.978	1.29
285.192	1.28
285.405	1.18
285.619	1.44
285.833	1.55
286.046	1.6
286.26	1.15
286.473	1.28
286.687	1.44
286.9	1.72
287.114	1.75
287.327	2.07
287.541	2
287.754	1.96
287.968	2.05
288.181	2.35
288.395	2.02
288.608	2.38
288.822	2.28
289.035	2.26
289.248	2.35
289.462	2.58
289.675	2.33
289.889	2.49
290.102	2.69
290.315	2.53
290.529	2.65
290.742	2.87
290.955	2.92
291.169	2.97
291.382	3
291.595	2.98
291.808	2.68
292.022	2.55
292.235	2.34
292.448	2.49
292.661	2.59
292.875	2.41
293.088	2.3
293.301	2.36
293.514	2.43
293.727	2.38
293.94	2.64
294.153	2.93
294.367	2.96
294.58	3.21
294.793	3
295.006	3.05
295.219	3.02
295.432	2.95
295.645	2.93
295.858	2.94
296.071	2.98
296.284	2.64
296.497	2.37
296.71	2.42
296.923	2.39
297.136	2.44
297.349	2.43
297.562	2.35
297.775	2.55
297.988	2.55
298.201	2.46
298.414	2.48
298.626	2.71
298.839	2.88
299.052	2.99
299.265	2.46
299.478	2.48
299.691	2.43
299.903	2.64
300.116	2.39
300.329	2.29
300.542	2.35
300.755	2.28
300.967	2.43
301.18	2.41
301.393	2.28
301.605	2.9
301.818	2.8
302.031	3.02
302.243	3.18
302.456	3.3
302.669	3.57
302.881	3.93
303.094	3.99
303.307	3.47
303.519	3.68
303.732	3.79
303.944	3.84
304.157	4.06
304.37	4.06
304.582	3.81
304.795	3.78
305.007	3.46
305.22	3.37
305.432	3.44
305.645	3.74
305.857	3.57
306.069	3.52
306.282	3.34
306.494	3.45
306.707	3.31
306.919	3.41
307.132	3.73
307.344	3.88
307.556	3.81
307.769	3.89
307.981	3.78
308.193	3.95
308.406	4.28
308.618	4.38
308.83	4.28
309.043	4.41
309.255	4.36
309.467	4.01
309.679	4.18
309.892	4.1
310.104	3.89
310.316	3.98
310.528	4.24
310.74	4.12
310.953	4.16
311.165	4.14
311.377	4.32
311.589	4.47
311.801	4.48
312.013	4.64
312.225	4.81
312.437	4.94
312.649	4.92
312.862	4.39
313.074	4.31
313.286	4.17
313.498	4.16
313.71	3.76
313.922	3.61
314.134	3.83
314.346	3.5
314.558	2.99
314.77	2.97
314.982	2.94
315.193	3.36
315.405	3.44
315.617	3.77
315.829	4.1
316.041	4.43
316.253	4.47
316.465	4.29
316.677	4.47
316.888	5.22
317.1	5.49
317.312	5.61
317.524	5.17
317.736	5.55
317.947	5.58
318.159	5.28
318.371	5
318.583	5.13
318.794	5.53
319.006	5.29
319.218	4.88
319.43	5.08
319.641	5.02
319.853	5.33
320.064	4.95
320.276	4.62
320.488	4.64
320.699	4.97
320.911	5.22
321.123	4.89
321.334	4.87
321.546	4.88
321.757	4.82
321.969	4.74
322.18	4.69
322.392	4.88
322.603	5.09
322.815	4.97
323.026	4.53
323.238	4.09
323.449	4.53
323.661	5.02
323.872	5.16
324.083	5.23
324.295	5.09
324.506	5.09
324.718	4.94
324.929	5.01
325.14	5.04
325.352	5.56
325.563	5.96
325.774	5.72
325.986	5.39
326.197	5.39
326.408	5.28
326.62	6.05
326.831	6.16
327.042	6.43
327.253	6.38
327.464	6.61
327.676	6.35
327.887	6.53
328.098	6.62
328.309	7.07
328.52	7.33
328.732	7.58
328.943	7.43
329.154	7.79
329.365	7.7
329.576	8.32
329.787	8.7
329.998	9.44
330.209	9.12
330.42	9.7
330.631	9.36
330.842	9.28
331.053	8.84
331.264	8.81
331.475	8.77
331.686	9.01
331.897	8.7
332.108	8.49
332.319	7.97
332.53	7.62
332.741	7.41
332.952	7.43
333.163	7.37
333.374	7.62
333.585	7.64
333.795	7.49
334.006	7.3
334.217	7.24
334.428	6.99
334.639	7.24
334.849	7.76
335.06	7.81
335.271	7.65
335.482	7.62
335.692	7.67
335.903	7.28
336.114	7.38
336.325	7.53
336.535	7.66
336.746	7.91
336.957	7.73
337.167	7.74
337.378	7.69
337.589	7.87
337.799	7.94
338.01	7.74
338.22	7.91
338.431	8.16
338.642	8.23
338.852	8.37
339.063	8.31
339.273	8.19
339.484	8.04
339.694	8.01
339.905	8.39
340.115	8.56
340.326	8.74
340.536	9.21
340.746	9.08
340.957	8.74
341.167	8.48
341.378	8.36
341.588	8.71
341.799	8.74
342.009	8.64
342.219	8.22
342.43	8.16
342.64	8.38
342.85	8.02
343.061	7.88
343.271	8.48
343.481	8.44
343.691	8.62
343.902	8.12
344.112	8.13
344.322	8.33
344.532	8.28
344.743	8.23
344.953	8.1
345.163	7.98
345.373	7.85
345.583	7.37
345.793	7.18
346.004	7.11
346.214	7.55
346.424	7.61
346.634	7.44
346.844	7.53
347.054	7.16
347.264	7.33
347.474	7.4
347.684	7.54
347.894	7.52
348.104	7.48
348.314	7.65
348.524	7.26
348.734	7.13
348.944	6.97
349.154	7.17
349.364	7.5
349.574	7.34
349.784	7.67
349.994	7.75
350.204	7.86
350.413	8.16
350.623	8.28
350.833	8.21
351.043	8.19
351.253	8.55
351.463	8.57
351.672	8.51
351.882	8.43
352.092	8.21
352.302	7.86
352.511	7.9
352.721	7.75
352.931	7.39
353.141	7.45
353.35	7.38
353.56	6.85
353.77	6.83
353.979	7.07
354.189	7.08
354.399	6.91
354.608	7.1
354.818	7.13
355.027	7.04
355.237	7.05
355.447	7.09
355.656	7.47
355.866	7.45
356.075	7.33
356.285	7.04
356.494	7.17
356.704	7.22
356.913	7.15
357.123	7.05
357.332	7.05
357.542	7.06
357.751	7.02
357.96	6.86
358.17	6.99
358.379	6.95
358.589	7.09
358.798	7.11
359.007	7.02
359.217	7.01
359.426	7.08
359.635	7.1
359.845	7.15
360.054	7.29
360.263	7.25
360.472	7.37
360.682	7.55
360.891	7.56
361.1	7.61
361.309	7.73
361.519	7.82
361.728	7.72
361.937	7.77
362.146	7.74
362.355	7.81
362.564	7.78
362.774	7.69
362.983	7.44
363.192	7.37
363.401	7.3
363.61	7.14
363.819	7.03
364.028	6.94
364.237	7.03
364.446	7.06
364.655	6.87
364.864	6.83
365.073	6.87
365.282	6.98
365.491	6.91
365.7	6.62
365.909	6.87
366.118	6.89
366.327	7.19
366.536	7.23
366.745	6.94
366.954	7.08
367.162	7.17
367.371	7.07
367.58	7.23
367.789	7.23
367.998	7.32
368.207	7.31
368.415	7.41
368.624	7.3
368.833	7.21
369.042	7.34
369.25	7.27
369.459	7.4
369.668	7.45
369.877	7.6
370.085	7.6
370.294	7.65
370.503	7.49
370.711	7.42
370.92	7.29
371.129	7.17
371.337	7.22
371.546	7.18
371.754	7
371.963	6.83
372.171	6.61
372.38	6.48
372.589	6.28
372.797	6.26
373.006	6.21
373.214	6.29
373.423	6.27
373.631	6.43
373.84	6.49
374.048	6.34
374.256	6.53
374.465	6.15
374.673	6.43
374.882	6.6
375.09	6.48
375.298	6.41
375.507	6.3
375.715	6.44
375.923	6.26
376.132	6.02
376.34	6.04
376.548	5.95
376.757	6.1
376.965	5.9
377.173	5.93
377.381	5.84
377.59	5.86
377.798	5.94
378.006	5.68
378.214	5.55
378.423	5.57
378.631	5.54
378.839	5.8
379.047	5.84
379.255	5.88
379.463	5.73
379.671	5.75
379.879	5.72
380.088	5.67
380.296	6.02
380.504	6.14
380.712	6.24
380.92	6.54
381.128	6.5
381.336	6.56
381.544	6.64
381.752	6.68
381.96	6.88
382.168	6.83
382.376	6.83
382.584	6.61
382.791	6.44
382.999	6.41
383.207	6.04
383.415	5.9
383.623	5.97
383.831	5.93
384.039	5.87
384.247	5.58
384.454	5.53
384.662	5.35
384.87	5.31
385.078	5.27
385.285	5.27
385.493	5.37
385.701	5.04
385.909	4.86
386.116	4.84
386.324	4.94
386.532	5.04
386.739	5.04
386.947	5.13
387.155	5.16
387.362	5.46
387.57	5.42
387.778	5.54
387.985	5.65
388.193	5.79
388.4	5.63
388.608	5.54
388.816	5.62
389.023	5.52
389.231	5.43
389.438	5.4
389.646	5.11
389.853	5.21
390.061	5.1
390.268	5.24
390.475	5.05
390.683	5.24
390.89	5.23
391.098	5.11
391.305	5.26
391.512	5.18
391.72	5.21
391.927	5.17
392.135	5.1
392.342	5.06
392.549	4.96
392.756	5.11
392.964	5.07
393.171	5.15
393.378	5.09
393.586	5.1
393.793	5.27
394	5.23
394.207	5.37
394.414	5.29
394.622	5.45
394.829	5.39
395.036	5.37
395.243	5.25
395.45	5.33
395.657	5.39
395.864	5.45
396.072	5.39
396.279	5.52
396.486	5.39
396.693	5.57
396.9	5.47
397.107	5.66
397.314	5.71
397.521	5.68
397.728	5.41
397.935	5.55
398.142	5.6
398.349	5.61
398.556	5.4
398.763	5.45
398.97	5.18
399.177	5.11
399.383	4.88
399.59	4.95
399.797	4.98
400.004	5.19
400.211	4.99
400.418	4.76
400.625	4.71
400.831	4.69
401.038	4.57
401.245	4.64
401.452	4.79
401.658	4.94
401.865	4.74
402.072	4.72
402.279	4.65
402.485	4.62
402.692	4.69
402.899	4.73
403.105	4.92
403.312	5.04
403.519	5.06
403.725	5.02
403.932	5.01
404.138	4.96
404.345	4.97
404.552	5.04
404.758	5.08
404.965	5.22
405.171	5.14
405.378	4.95
405.584	4.97
405.791	4.95
405.997	4.97
406.204	4.89
406.41	5.05
406.617	5.07
406.823	4.92
407.029	5
407.236	4.96
407.442	5.03
407.649	5.21
407.855	5.16
408.061	5.05
408.268	4.99
408.474	5.03
408.68	4.91
408.887	4.97
409.093	4.93
409.299	4.84
409.505	4.83
409.712	4.76
409.918	4.71
410.124	4.7
410.33	4.76
410.537	4.76
410.743	4.76
410.949	4.77
411.155	4.76
411.361	4.8
411.567	4.93
411.773	4.88
411.98	4.76
412.186	4.72
412.392	4.65
412.598	4.77
412.804	4.74
413.01	4.66
413.216	4.61
413.422	4.62
413.628	4.71
413.834	4.64
414.04	4.62
414.246	4.84
414.452	4.7
414.658	4.81
414.864	4.72
415.07	4.74
415.275	4.84
415.481	4.79
415.687	4.7
415.893	4.55
416.099	4.54
416.305	4.59
416.511	4.61
416.716	4.72
416.922	4.66
417.128	4.72
417.334	4.77
417.539	4.86
417.745	4.88
417.951	5.01
418.157	5.13
418.362	5.14
418.568	5.09
418.774	5
418.979	5.01
419.185	5.04
419.391	5.05
419.596	4.99
419.802	4.89
420.008	4.96
420.213	4.82
420.419	4.8
420.624	4.74
420.83	4.72
421.035	4.73
421.241	4.74
421.446	4.76
421.652	4.72
421.857	4.66
422.063	4.63
422.268	4.53
422.474	4.55
422.679	4.56
422.885	4.61
423.09	4.61
423.295	4.61
423.501	4.59
423.706	4.55
423.911	4.53
424.117	4.57
424.322	4.62
424.527	4.68
424.733	4.75
424.938	4.73
425.143	4.64
425.349	4.62
425.554	4.66
425.759	4.57
425.964	4.52
426.169	4.61
426.375	4.67
426.58	4.65
426.785	4.59
426.99	4.6
427.195	4.55
427.4	4.66
427.605	4.8
427.811	4.81
428.016	4.91
428.221	5.12
428.426	5.05
428.631	4.96
428.836	4.93
429.041	4.88
429.246	4.87
429.451	4.94
429.656	5.03
429.861	5.05
430.066	4.95
430.271	5.01
430.476	4.9
430.681	4.86
430.886	4.94
431.09	5.1
431.295	5.15
431.5	5.21
431.705	5.17
431.91	5.14
432.115	5.09
432.32	5.17
432.524	5.22
432.729	5.22
432.934	5.3
433.139	5.21
433.343	5.12
433.548	5.14
433.753	5.16
433.958	5.19
434.162	5.25
434.367	5.13
434.572	5.17
434.776	5.14
434.981	5.17
435.186	5.23
435.39	5.42
435.595	5.44
435.799	5.45
436.004	5.37
436.209	5.42
436.413	5.37
436.618	5.48
436.822	5.46
437.027	5.4
437.231	5.39
437.436	5.33
437.64	5.28
437.845	5.3
438.049	5.4
438.253	5.41
438.458	5.34
438.662	5.38
438.867	5.32
439.071	5.36
439.275	5.34
439.48	5.29
439.684	5.32
439.888	5.25
440.093	5.26
440.297	5.28
440.501	5.24
440.706	5.3
440.91	5.26
441.114	5.29
441.318	5.23
441.523	5.18
441.727	5.21
441.931	5.11
442.135	5.07
442.339	5.05
442.543	5.05
442.748	5.03
442.952	4.94
443.156	4.91
443.36	4.97
443.564	5.02
443.768	5.03
443.972	5.02
444.176	5.04
444.38	5.06
444.584	5.03
444.788	5.01
444.992	5.08
445.196	5.07
445.4	5.07
445.604	5.03
445.808	5.06
446.012	5.09
446.216	5.08
446.42	5.11
446.624	5.18
446.828	5.16
447.032	5.11
447.235	5.05
447.439	5.04
447.643	5.12
447.847	5.12
448.051	5.06
448.254	5.09
448.458	5.09
448.662	5.09
448.866	5.08
449.069	5.06
449.273	5.06
449.477	5.16
449.681	5.21
449.884	5.13
450.088	5.13
450.292	5.17
450.495	5.19
450.699	5.21
450.902	5.3
451.106	5.26
451.31	5.37
451.513	5.29
451.717	5.24
451.92	5.21
452.124	5.24
452.327	5.26
452.531	5.2
452.734	5.27
452.938	5.25
453.141	5.24
453.345	5.29
453.548	5.22
453.752	5.29
453.955	5.32
454.158	5.35
454.362	5.31
454.565	5.32
454.769	5.34
454.972	5.29
455.175	5.42
455.379	5.38
455.582	5.36
455.785	5.42
455.988	5.44
456.192	5.4
456.395	5.43
456.598	5.38
456.801	5.29
457.005	5.29
457.208	5.35
457.411	5.17
457.614	5.17
457.817	5.09
458.021	4.93
458.224	4.98
458.427	4.92
458.63	4.95
458.833	4.95
459.036	4.98
459.239	4.99
459.442	4.92
459.645	5
459.848	4.96
460.051	5
460.254	5.09
460.457	5.02
460.66	5.07
460.863	5.03
461.066	5.04
461.269	5.04
461.472	5.05
461.675	5.05
461.878	5.09
462.081	5.13
462.284	5.16
462.486	5.15
462.689	5.23
462.892	5.32
463.095	5.29
463.298	5.32
463.5	5.29
463.703	5.29
463.906	5.32
464.109	5.29
464.311	5.28
464.514	5.26
464.717	5.25
464.92	5.25
465.122	5.28
465.325	5.39
465.528	5.37
465.73	5.49
465.933	5.44
466.135	5.4
466.338	5.42
466.541	5.38
466.743	5.49
466.946	5.45
467.148	5.45
467.351	5.4
467.553	5.27
467.756	5.3
467.958	5.23
468.161	5.32
468.363	5.47
468.566	5.51
468.768	5.48
468.971	5.44
469.173	5.6
469.375	5.56
469.578	5.51
469.78	5.55
469.983	5.54
470.185	5.56
470.387	5.47
470.59	5.4
470.792	5.38
470.994	5.45
471.196	5.47
471.399	5.39
471.601	5.4
471.803	5.45
472.005	5.47
472.208	5.52
472.41	5.49
472.612	5.48
472.814	5.45
473.016	5.37
473.218	5.37
473.421	5.33
473.623	5.33
473.825	5.4
474.027	5.41
474.229	5.39
474.431	5.32
474.633	5.28
474.835	5.43
475.037	5.38
475.239	5.35
475.441	5.42
475.643	5.37
475.845	5.34
476.047	5.31
476.249	5.33
476.451	5.35
476.653	5.42
476.855	5.52
477.057	5.45
477.258	5.46
477.46	5.56
477.662	5.52
477.864	5.58
478.066	5.52
478.268	5.45
478.469	5.45
478.671	5.36
478.873	5.32
479.075	5.26
479.276	5.3
479.478	5.27
479.68	5.17
479.882	5.13
480.083	5.12
480.285	5.11
480.487	5.1
480.688	5
480.89	5.09
481.091	5.09
481.293	5.04
481.495	4.92
481.696	4.9
481.898	4.9
482.099	4.9
482.301	4.85
482.502	4.88
482.704	4.91
482.905	4.93
483.107	4.89
483.308	4.87
483.51	4.86
483.711	4.87
483.913	4.89
484.114	4.89
484.315	4.9
484.517	4.93
484.718	4.94
484.92	4.92
485.121	4.91
485.322	4.93
485.524	4.96
485.725	5.02
485.926	5.05
486.127	5.01
486.329	5.03
486.53	5.01
486.731	4.96
486.932	4.95
487.134	4.93
487.335	4.96
487.536	4.95
487.737	4.95
487.938	4.9
488.139	4.89
488.341	4.92
488.542	4.9
488.743	4.94
488.944	4.98
489.145	5
489.346	5.03
489.547	5.01
489.748	5.02
489.949	4.99
490.15	5.02
490.351	5.03
490.552	5.02
490.753	5.01
490.954	4.97
491.155	4.98
491.356	4.97
491.557	4.98
491.758	4.98
491.959	5
492.159	5.04
492.36	5.11
492.561	5.14
492.762	5.16
492.963	5.23
493.164	5.3
493.364	5.35
493.565	5.39
493.766	5.43
493.967	5.49
494.167	5.54
494.368	5.66
494.569	5.59
494.769	5.54
494.97	5.57
495.171	5.55
495.371	5.62
495.572	5.6
495.773	5.59
495.973	5.59
496.174	5.61
496.375	5.64
496.575	5.49
496.776	5.55
496.976	5.58
497.177	5.62
497.377	5.62
497.578	5.58
497.778	5.54
497.979	5.5
498.179	5.48
498.38	5.55
498.58	5.53
498.78	5.6
498.981	5.63
499.181	5.68
499.382	5.7
499.582	5.67
499.782	5.69
499.983	5.8
500.183	5.92
500.383	6.07
500.584	5.99
500.784	6.03
500.984	6.16
501.184	6.12
501.385	6.2
501.585	6.17
501.785	6.24
501.985	6.28
502.185	6.3
502.386	6.32
502.586	6.19
502.786	6.23
502.986	6.21
503.186	6.15
503.386	6.15
503.586	6.13
503.786	6.16
503.987	6.14
504.187	6.13
504.387	6.12
504.587	6.16
504.787	6.24
504.987	6.34
505.187	6.44
505.387	6.45
505.587	6.55
505.786	6.6
505.986	6.65
506.186	6.83
506.386	6.8
506.586	6.83
506.786	6.82
506.986	6.9
507.186	6.9
507.386	6.82
507.585	6.81
507.785	6.79
507.985	6.71
508.185	6.73
508.384	6.68
508.584	6.69
508.784	6.68
508.984	6.71
509.183	6.66
509.383	6.62
509.583	6.69
509.782	6.69
509.982	6.71
510.182	6.8
510.381	6.79
510.581	6.83
510.781	6.9
510.98	7.01
511.18	7.09
511.379	7.18
511.579	7.24
511.778	7.29
511.978	7.4
512.177	7.47
512.377	7.46
512.576	7.59
512.776	7.57
512.975	7.64
513.175	7.63
513.374	7.66
513.573	7.75
513.773	7.78
513.972	7.82
514.172	7.83
514.371	7.91
514.57	7.93
514.77	7.97
514.969	8.06
515.168	8.06
515.367	8.11
515.567	8.06
515.766	8.05
515.965	8.08
516.164	8.09
516.364	8.11
516.563	8.12
516.762	8.29
516.961	8.33
517.16	8.32
517.359	8.45
517.559	8.48
517.758	8.56
517.957	8.49
518.156	8.62
518.355	8.65
518.554	8.76
518.753	8.78
518.952	8.78
519.151	8.82
519.35	8.88
519.549	8.89
519.748	8.92
519.947	9.03
520.146	9.19
520.345	9.26
520.544	9.43
520.743	9.43
520.942	9.53
521.141	9.51
521.339	9.57
521.538	9.67
521.737	9.72
521.936	9.83
522.135	9.8
522.333	9.79
522.532	9.79
522.731	9.79
522.93	9.92
523.129	9.94
523.327	10.12
523.526	10.15
523.725	10.18
523.923	10.17
524.122	10.23
524.321	10.3
524.519	10.36
524.718	10.37
524.917	10.45
525.115	10.48
525.314	10.53
525.512	10.53
525.711	10.6
525.909	10.68
526.108	10.79
526.306	10.82
526.505	10.91
526.703	10.95
526.902	10.99
527.1	11
527.299	11.03
527.497	11.06
527.696	11.1
527.894	11.11
528.092	11.13
528.291	11.15
528.489	11.22
528.688	11.24
528.886	11.26
529.084	11.31
529.283	11.35
529.481	11.38
529.679	11.44
529.877	11.53
530.076	11.62
530.274	11.71
530.472	11.8
530.67	11.89
530.869	11.96
531.067	12.12
531.265	12.19
531.463	12.28
531.661	12.39
531.859	12.47
532.057	12.46
532.255	12.51
532.454	12.53
532.652	12.55
532.85	12.58
533.048	12.64
533.246	12.66
533.444	12.74
533.642	12.79
533.84	12.8
534.038	12.86
534.236	12.98
534.434	13.04
534.632	13.13
534.83	13.15
535.027	13.19
535.225	13.29
535.423	13.35
535.621	13.4
535.819	13.47
536.017	13.58
536.215	13.58
536.412	13.55
536.61	13.61
536.808	13.6
537.006	13.67
537.203	13.72
537.401	13.76
537.599	13.77
537.797	13.8
537.994	13.83
538.192	13.81
538.39	13.96
538.587	14.08
538.785	14.15
538.983	14.27
539.18	14.31
539.378	14.32
539.575	14.28
539.773	14.35
539.97	14.41
540.168	14.42
540.366	14.47
540.563	14.48
540.761	14.47
540.958	14.52
541.155	14.59
541.353	14.67
541.55	14.72
541.748	14.8
541.945	14.83
542.143	14.87
542.34	14.95
542.537	15.05
542.735	15.12
542.932	15.2
543.129	15.27
543.327	15.28
543.524	15.31
543.721	15.38
543.919	15.48
544.116	15.65
544.313	15.73
544.51	15.78
544.708	15.81
544.905	15.89
545.102	15.98
545.299	16.06
545.496	16.15
545.693	16.24
545.891	16.3
546.088	16.29
546.285	16.2
546.482	16.17
546.679	16.24
546.876	16.24
547.073	16.18
547.27	16.2
547.467	16.17
547.664	16.12
547.861	16.15
548.058	16.17
548.255	16.16
548.452	16.22
548.649	16.33
548.846	16.34
549.043	16.38
549.24	16.43
549.437	16.44
549.633	16.42
549.83	16.46
550.027	16.38
550.224	16.34
550.421	16.39
550.618	16.48
550.814	16.46
551.011	16.41
551.208	16.34
551.405	16.42
551.601	16.41
551.798	16.39
551.995	16.35
552.191	16.33
552.388	16.32
552.585	16.35
552.781	16.3
552.978	16.28
553.175	16.24
553.371	16.36
553.568	16.37
553.764	16.41
553.961	16.46
554.157	16.55
554.354	16.68
554.55	16.79
554.747	16.79
554.943	16.83
555.14	16.9
555.336	17.01
555.533	16.95
555.729	16.98
555.926	16.94
556.122	17.01
556.318	17.01
556.515	17.04
556.711	17.04
556.907	17.11
557.104	17.04
557.3	17.04
557.496	17.14
557.693	17.13
557.889	17.1
558.085	17.03
558.281	16.95
558.478	17.04
558.674	16.95
558.87	17
559.066	16.98
559.262	16.99
559.459	17
559.655	16.94
559.851	17.06
560.047	17.1
560.243	17.13
560.439	17.2
560.635	17.12
560.831	17.16
561.027	17.1
561.223	17.08
561.419	17.19
561.615	17.27
561.811	17.25
562.007	17.24
562.203	17.26
562.399	17.37
562.595	17.33
562.791	17.32
562.987	17.32
563.183	17.41
563.379	17.47
563.575	17.51
563.771	17.46
563.966	17.38
564.162	17.44
564.358	17.44
564.554	17.42
564.75	17.42
564.945	17.55
565.141	17.52
565.337	17.5
565.533	17.54
565.728	17.56
565.924	17.64
566.12	17.73
566.315	17.66
566.511	17.61
566.707	17.64
566.902	17.81
567.098	17.79
567.293	17.89
567.489	17.95
567.684	17.91
567.88	17.79
568.076	17.8
568.271	17.89
568.467	17.97
568.662	18
568.858	17.92
569.053	17.85
569.248	17.81
569.444	17.71
569.639	17.69
569.835	17.67
570.03	17.71
570.225	17.62
570.421	17.59
570.616	17.57
570.812	17.62
571.007	17.72
571.202	17.67
571.397	17.72
571.593	17.82
571.788	17.82
571.983	17.85
572.178	17.9
572.374	17.92
572.569	17.86
572.764	17.87
572.959	17.81
573.154	17.83
573.35	17.94
573.545	17.83
573.74	17.85
573.935	17.85
574.13	17.81
574.325	17.9
574.52	17.94
574.715	18.03
574.91	17.9
575.105	18.09
575.3	18.09
575.495	18.07
575.69	18.18
575.885	18.19
576.08	18.23
576.275	18.37
576.47	18.41
576.665	18.47
576.86	18.54
577.055	18.7
577.25	18.64
577.444	18.74
577.639	18.84
577.834	18.96
578.029	19.03
578.224	19.05
578.418	19.08
578.613	19.1
578.808	19.13
579.003	19.14
579.197	19.32
579.392	19.36
579.587	19.32
579.781	19.29
579.976	19.33
580.171	19.37
580.365	19.48
580.56	19.5
580.755	19.4
580.949	19.54
581.144	19.62
581.338	19.59
581.533	19.66
581.727	19.84
581.922	19.84
582.116	19.78
582.311	19.83
582.505	19.71
582.7	19.63
582.894	19.75
583.089	19.53
583.283	19.5
583.478	19.56
583.672	19.52
583.866	19.22
584.061	19.18
584.255	19.19
584.449	19.2
584.644	19.21
584.838	19.27
585.032	19.44
585.226	19.64
585.421	19.56
585.615	19.5
585.809	19.44
586.003	19.63
586.198	19.7
586.392	19.72
586.586	19.67
586.78	19.83
586.974	19.89
587.168	19.66
587.363	19.6
587.557	19.65
587.751	19.74
587.945	19.75
588.139	19.76
588.333	19.72
588.527	19.73
588.721	19.75
588.915	19.75
589.109	19.81
589.303	19.79
589.497	19.78
589.691	19.77
589.885	19.74
590.079	19.79
590.273	19.8
590.466	19.78
590.66	19.76
590.854	19.79
591.048	19.57
591.242	19.45
591.436	19.42
591.629	19.5
591.823	19.49
592.017	19.39
592.211	19.4
592.404	19.35
592.598	19.37
592.792	19.38
592.986	19.35
593.179	19.45
593.373	19.5
593.567	19.66
593.76	19.48
593.954	19.58
594.147	19.66
594.341	19.6
594.535	19.65
594.728	19.61
594.922	19.66
595.115	19.58
595.309	19.65
595.502	19.54
595.696	19.42
595.889	19.55
596.083	19.44
596.276	19.36
596.47	19.3
596.663	19.3
596.856	19.3
597.05	19.26
597.243	19.33
597.437	19.27
597.63	19.43
597.823	19.47
598.017	19.41
598.21	19.49
598.403	19.55
598.596	19.62
598.79	19.7
598.983	19.74
599.176	19.75
599.369	19.83
599.563	20.01
599.756	19.98
599.949	19.91
600.142	20
600.335	20.06
600.528	20.03
600.722	20.05
600.915	19.99
601.108	20
601.301	20.03
601.494	20.02
601.687	20.04
601.88	19.98
602.073	20.07
602.266	19.94
602.459	19.9
602.652	20
602.845	20.02
603.038	20.06
603.231	20.03
603.424	19.97
603.617	19.83
603.809	19.68
604.002	19.69
604.195	19.72
604.388	19.71
604.581	19.6
604.774	19.55
604.966	19.57
605.159	19.52
605.352	19.58
605.545	19.6
605.737	19.71
605.93	19.81
606.123	19.87
606.316	19.94
606.508	20.08
606.701	20.28
606.894	20.25
607.086	20.35
607.279	20.41
607.471	20.56
607.664	20.68
607.857	20.73
608.049	20.78
608.242	20.88
608.434	20.94
608.627	21.2
608.819	21.53
609.012	22.03
609.204	22.2
609.397	22.59
609.589	23
609.782	23.42
609.974	23.91
610.166	24.32
610.359	24.9
610.551	25.55
610.743	25.88
610.936	26.16
611.128	26.3
611.32	26.58
611.513	26.71
611.705	26.66
611.897	26.6
612.09	26.5
612.282	26.45
612.474	26.05
612.666	25.5
612.858	25.3
613.051	25.02
613.243	24.89
613.435	24.72
613.627	24.59
613.819	24.42
614.011	24.26
614.203	24.11
614.395	23.98
614.588	23.81
614.78	23.68
614.972	23.49
615.164	23.25
615.356	22.87
615.548	22.77
615.74	22.44
615.932	22.12
616.124	22.09
616.315	21.84
616.507	21.64
616.699	21.63
616.891	21.52
617.083	21.39
617.275	21.25
617.467	21.21
617.659	21.25
617.85	21.24
618.042	21.37
618.234	21.2
618.426	21.26
618.618	21.36
618.809	21.34
619.001	21.38
619.193	21.41
619.384	21.45
619.576	21.43
619.768	21.33
619.959	21.42
620.151	21.23
620.343	21.28
620.534	21.3
620.726	21.2
620.917	21.3
621.109	21.37
621.301	21.42
621.492	21.4
621.684	21.61
621.875	21.46
622.067	21.28
622.258	21.39
622.45	21.38
622.641	21.38
622.832	21.45
623.024	21.24
623.215	21.27
623.407	21.26
623.598	21.35
623.789	21.11
623.981	21.17
624.172	21.29
624.363	21.34
624.555	21.19
624.746	21.18
624.937	21.08
625.129	21.2
625.32	20.96
625.511	21
625.702	20.91
625.893	20.92
626.085	21.08
626.276	21.06
626.467	21.03
626.658	21.18
626.849	21.23
627.04	21.31
627.231	21.32
627.422	21.5
627.614	21.46
627.805	21.53
627.996	21.68
628.187	21.62
628.378	21.75
628.569	21.9
628.76	22.08
628.951	22.13
629.142	22.21
629.332	22.33
629.523	22.37
629.714	22.41
629.905	22.55
630.096	22.5
630.287	22.38
630.478	22.4
630.669	22.34
630.859	22.23
631.05	22.14
631.241	22.02
631.432	21.83
631.623	21.72
631.813	21.51
632.004	21.28
632.195	21.27
632.385	21.43
632.576	21.22
632.767	21.27
632.957	21.04
633.148	20.97
633.339	20.99
633.529	21.1
633.72	21.29
633.91	21.23
634.101	21.38
634.292	21.14
634.482	21
634.673	21.13
634.863	21.01
635.054	21.06
635.244	20.87
635.435	20.89
635.625	20.86
635.815	20.68
636.006	20.82
636.196	20.71
636.387	20.93
636.577	20.92
636.767	20.76
636.958	20.88
637.148	20.69
637.338	20.85
637.529	20.74
637.719	20.76
637.909	20.66
638.099	20.72
638.29	20.91
638.48	20.86
638.67	21
638.86	21.24
639.05	21.11
639.241	21.31
639.431	21.31
639.621	21.31
639.811	21.17
640.001	21.24
640.191	21.11
640.381	21.18
640.571	21.21
640.761	21.39
640.951	21.15
641.141	21.16
641.331	21.13
641.521	21.11
641.711	21.19
641.901	21.27
642.091	21.45
642.281	21.46
642.471	21.18
642.661	21.25
642.851	21.14
643.041	21.03
643.231	21.16
643.42	21.16
643.61	21.16
643.8	21.21
643.99	21.23
644.18	21.09
644.369	21.29
644.559	21.37
644.749	21.29
644.939	21.12
645.128	21.33
645.318	21.14
645.508	21.26
645.697	21.49
645.887	21.25
646.076	21.02
646.266	21.05
646.456	21.05
646.645	21.04
646.835	21.1
647.024	21.12
647.214	21.26
647.403	21.48
647.593	21.41
647.782	21.22
647.972	21.44
648.161	21.62
648.351	21.52
648.54	21.52
648.73	21.75
648.919	21.76
649.108	21.86
649.298	21.77
649.487	21.84
649.677	21.94
649.866	22.1
650.055	21.97
650.244	21.96
650.434	22.1
650.623	22.2
650.812	22.11
651.002	22.15
651.191	22.09
651.38	22.1
651.569	21.95
651.758	21.96
651.947	21.9
652.137	22
652.326	21.96
652.515	21.91
652.704	21.83
652.893	21.76
653.082	21.78
653.271	21.89
653.46	21.78
653.649	21.78
653.838	21.85
654.027	21.7
654.216	21.79
654.405	21.91
654.594	21.99
654.783	21.78
654.972	21.93
655.161	21.84
655.35	21.75
655.539	21.74
655.728	21.84
655.916	21.95
656.105	22.01
656.294	21.93
656.483	22
656.672	22.09
656.86	22.28
657.049	22.1
657.238	22.07
657.427	21.85
657.615	21.86
657.804	21.66
657.993	21.42
658.181	21.6
658.37	21.52
658.559	21.47
658.747	21.31
658.936	21.31
659.125	21.58
659.313	21.61
659.502	21.82
659.69	21.74
659.879	21.82
660.067	22
660.256	21.93
660.444	22
660.633	21.99
660.821	21.91
661.01	21.87
661.198	21.64
661.387	21.68
661.575	21.67
661.763	21.78
661.952	21.83
662.14	21.77
662.328	21.87
662.517	21.93
662.705	21.91
662.893	22.32
663.082	22.43
663.27	22.48
663.458	22.5
663.646	22.49
663.834	22.63
664.023	22.74
664.211	22.77
664.399	22.56
664.587	22.88
664.775	23.25
664.963	23.27
665.152	23.35
665.34	23.4
665.528	23.52
665.716	23.69
665.904	23.98
666.092	23.84
666.28	23.69
666.468	23.89
666.656	23.7
666.844	23.63
667.032	23.39
667.22	23.22
667.408	23.07
667.596	22.91
667.784	22.69
667.971	22.36
668.159	22.35
668.347	22.38
668.535	22.34
668.723	22.41
668.911	22.26
669.098	22.32
669.286	22.47
669.474	22.45
669.662	22.51
669.849	22.61
670.037	22.5
670.225	22.42
670.413	22.61
670.6	22.63
670.788	22.38
670.976	22.6
671.163	22.53
671.351	22.46
671.538	22.37
671.726	22.47
671.913	22.38
672.101	22.63
672.289	22.92
672.476	22.65
672.664	22.41
672.851	22.75
673.039	22.8
673.226	22.91
673.413	22.97
673.601	23.25
673.788	23
673.976	23.12
674.163	23.02
674.35	22.93
674.538	23.05
674.725	23.26
674.912	23.11
675.1	22.75
675.287	22.94
675.474	22.89
675.662	22.99
675.849	23.41
676.036	23.19
676.223	23.15
676.411	23.24
676.598	23.28
676.785	23.36
676.972	23.41
677.159	23.62
677.346	23.41
677.533	23.35
677.721	23.25
677.908	22.97
678.095	23.51
678.282	23.65
678.469	23.74
678.656	23.59
678.843	23.54
679.03	23.55
679.217	23.18
679.404	23.16
679.591	23.02
679.778	22.87
679.964	22.76
680.151	22.46
680.338	22.33
680.525	22.02
680.712	22.36
680.899	22.33
681.086	22.27
681.272	22.47
681.459	22.39
681.646	22.61
681.833	22.68
682.02	22.84
682.206	22.87
682.393	22.95
682.58	23.11
682.766	22.97
682.953	23
683.14	23.07
683.326	23.08
683.513	23.08
683.7	23.18
683.886	23.25
684.073	23
684.259	22.8
684.446	22.85
684.632	22.92
684.819	22.77
685.005	22.84
685.192	22.71
685.378	22.78
685.565	22.94
685.751	23.07
685.938	23.08
686.124	23.2
686.31	23.41
686.497	23.36
686.683	23.46
686.87	23.55
687.056	23.5
687.242	23.4
687.429	23.51
687.615	23.18
687.801	22.89
687.987	23.02
688.174	22.92
688.36	22.83
688.546	23
688.732	23.13
688.918	23.31
689.105	23.13
689.291	23.16
689.477	23.2
689.663	23.42
689.849	23.53
690.035	23.71
690.221	24.08
690.407	24.4
690.593	24
690.779	23.77
690.965	23.62
691.151	23.75
691.337	24
691.523	23.64
691.709	23.88
691.895	24.04
692.081	23.8
692.267	23.64
692.453	23.64
692.639	23.95
692.825	24.1
693.011	24.19
693.196	24.28
693.382	24.37
693.568	24.35
693.754	24.31
693.94	24.1
694.125	23.71
694.311	23.72
694.497	23.63
694.682	23.61
694.868	23.47
695.054	23.54
695.239	23.33
695.425	23.06
695.611	23.06
695.796	23.13
695.982	23.19
696.168	23.26
696.353	23.35
696.539	23.1
696.724	22.89
696.91	22.81
697.095	22.65
697.281	22.69
697.466	22.64
697.652	22.87
697.837	22.92
698.023	22.73
698.208	23.02
698.393	22.94
698.579	23.06
698.764	23.26
698.949	23.28
699.135	23.16
699.32	23.47
699.505	23.59
699.691	23.7
699.876	23.32
700.061	23.36
700.246	23.3
700.432	23.41
700.617	23.42
700.802	23.44
700.987	23.69
701.172	23.92
701.358	23.63
701.543	23.87
701.728	23.59
701.913	23.82
702.098	24.02
702.283	24.03
702.468	23.99
702.653	23.89
702.838	24.03
703.023	23.89
703.208	23.68
703.393	23.75
703.578	23.35
703.763	23.78
703.948	24.16
704.133	24.64
704.318	24.75
704.503	24.85
704.688	25.23
704.873	25.08
705.057	25.53
705.242	26.14
705.427	26.27
705.612	26.74
705.797	26.26
705.981	26.37
706.166	26.03
706.351	26.32
706.536	26.26
706.72	25.86
706.905	26.17
707.09	25.75
707.274	25.6
707.459	25.49
707.644	25.21
707.828	25.82
708.013	25.88
708.197	26.36
708.382	25.86
708.567	25.8
708.751	25.89
708.936	25.65
709.12	25.63
709.305	25.51
709.489	25.58
709.673	25.82
709.858	25.72
710.042	25.47
710.227	25.18
710.411	25.44
710.596	25.73
710.78	26.17
710.964	26.37
711.149	26.54
711.333	26.42
711.517	26.54
711.702	26.47
711.886	26.35
712.07	26.37
712.254	26
712.438	26.07
712.623	25.77
712.807	25.41
712.991	25.24
713.175	25.17
713.359	25.32
713.544	25.09
713.728	25.01
713.912	24.83
714.096	24.87
714.28	24.8
714.464	24.44
714.648	24.39
714.832	24.26
715.016	24.19
715.2	24.03
715.384	23.82
715.568	24.05
715.752	23.72
715.936	23.8
716.12	23.7
716.304	23.94
716.488	24.13
716.671	24.2
716.855	24.47
717.039	24.41
717.223	24.64
717.407	24.65
717.59	24.55
717.774	24.54
717.958	24.5
718.142	24.42
718.325	24.32
718.509	24.06
718.693	24.11
718.877	23.96
719.06	23.85
719.244	23.75
719.428	23.75
719.611	23.91
719.795	24.32
719.978	24.33
720.162	24.48
720.345	24.52
720.529	24.65
720.713	24.72
720.896	24.33
721.08	24.32
721.263	24.46
721.446	24.41
721.63	24.02
721.813	23.75
721.997	23.6
722.18	23.81
722.364	23.78
722.547	23.66
722.73	23.6
722.914	24.28
723.097	24.8
723.28	24.59
723.464	24.74
723.647	24.79
723.83	24.91
724.013	24.56
724.197	23.74
724.38	23.2
724.563	22.87
724.746	22.73
724.929	22.65
725.112	22.57
725.296	22.41
725.479	22.38
725.662	22.92
725.845	23.09
726.028	23.41
726.211	24.25
726.394	24.46
726.577	24.94
726.76	24.89
726.943	24.65
727.126	23.82
727.309	24.07
727.492	24.1
727.675	23.93
727.858	23.6
728.041	23.82
728.224	23.65
728.407	23.91
728.589	24.08
728.772	24.18
728.955	24.28
729.138	24.98
729.321	24.88
729.503	24.95
729.686	24.63
729.869	24.7
730.052	24.62
730.234	24.38
730.417	24.37
730.6	24.26
730.782	24.09
730.965	23.9
731.148	23.63
731.33	23.24
731.513	23.54
731.695	23.58
731.878	23.83
732.061	23.57
732.243	23.5
732.426	23.45
732.608	23.36
732.791	23.46
732.973	23.26
733.156	23.32
733.338	23.73
733.52	23.45
733.703	23.59
733.885	23.84
734.068	24.1
734.25	24.37
734.432	24.87
734.615	24.78
734.797	25.08
734.979	25.33
735.162	25.64
735.344	25.49
735.526	25.01
735.708	24.94
735.891	24.6
736.073	24.71
736.255	24.9
736.437	23.87
736.619	24.45
736.802	24.38
736.984	24.44
737.166	24.39
737.348	24.51
737.53	24.58
737.712	24.31
737.894	24.52
738.076	24.58
738.258	24.37
738.44	24.89
738.622	24.35
738.804	24.77
738.986	24.89
739.168	24.99
739.35	24.53
739.532	25
739.714	25.57
739.896	25.31
740.078	25.05
740.259	24.84
740.441	25.18
740.623	25.12
740.805	24.36
740.987	24.68
741.168	24.33
741.35	24.54
741.532	24.67
741.714	24.12
741.895	24.27
742.077	24.51
742.259	25.08
742.44	24.8
742.622	24.95
742.804	24.91
742.985	24.69
743.167	24.95
743.348	25.51
743.53	25.1
743.711	25.28
743.893	25.67
744.075	25.5
744.256	25.33
744.438	25.69
744.619	25.95
744.8	26.27
744.982	26.11
745.163	26.17
745.345	26.25
745.526	26.41
745.707	26.62
745.889	26.39
746.07	26.86
746.252	26.44
746.433	26.16
746.614	26.18
746.795	25.85
746.977	26.76
747.158	26.04
747.339	25.83
747.52	26.43
747.702	26.35
747.883	26.31
748.064	25.92
748.245	25.73
748.426	25.5
748.607	25.77
748.788	26.23
748.97	25.71
749.151	25.69
749.332	25.67
749.513	25.18
749.694	25.42
749.875	25.39
750.056	26.01
750.237	25.93
750.418	26.03
750.599	25.28
750.78	25.5
750.96	24.72
751.141	24.77
751.322	24.88
751.503	25.26
751.684	25.17
751.865	25.32
752.046	24.95
752.226	25.62
752.407	25.46
752.588	25.88
752.769	26.23
752.949	26.75
753.13	27.36
753.311	27.2
753.492	26.34
753.672	26.03
753.853	25.59
754.034	25.38
754.214	25.8
754.395	25.87
754.575	25.8
754.756	24.54
754.937	24.85
755.117	24.79
755.298	24.84
755.478	25.97
755.659	26.02
755.839	25.81
756.02	25.5
756.2	24.41
756.381	24.67
756.561	24.91
756.741	25.67
756.922	25.59
757.102	24.94
757.283	25.23
757.463	24.68
757.643	24.87
757.823	25.22
758.004	25.28
758.184	25.96
758.364	25.87
758.545	25.44
758.725	24.85
758.905	24.77
759.085	25.63
759.265	25.44
759.446	25.05
759.626	25.37
759.806	24.92
759.986	24.77
760.166	24.4
760.346	24.7
760.526	24.29
760.706	24.52
760.886	24.19
761.066	23.99
761.246	23.87
761.426	24.53
761.606	24.27
761.786	24.67
761.966	24.69
762.146	24.42
762.326	24.08
762.506	24.77
762.686	25
762.866	24.92
763.046	24.8
763.225	24.58
763.405	24.58
763.585	24.03
763.765	24.06
763.945	24.31
764.124	24.41
764.304	24.61
764.484	24.4
764.664	24.16
764.843	24.11
765.023	24.09
765.203	24.15
765.382	23.8
765.562	24.04
765.741	23.83
765.921	23.9
766.101	24.24
766.28	24.23
766.46	24.32
766.639	24.74
766.819	24.82
766.998	24.81
767.178	24.6
767.357	24.55
767.537	24.3
767.716	23.9
767.896	23.66
768.075	23.77
768.254	23.4
768.434	23.32
768.613	22.24
768.792	22.58
768.972	22.3
769.151	22.52
769.33	22.52
769.51	22.81
769.689	23.63
769.868	23.96
770.047	23.48
770.226	24.05
770.406	23.93
770.585	25.34
770.764	24.69
770.943	24.93
771.122	25.98
771.301	26.61
771.48	26.8
771.66	26.66
771.839	25.82
772.018	26.2
772.197	26.06
772.376	26.27
772.555	25.12
772.734	25.94
772.913	26.16
773.092	24.55
773.271	24.36
773.449	24.23
773.628	24.24
773.807	24.53
773.986	24.13
774.165	24.02
774.344	24
774.523	25.16
774.701	24.47
774.88	25.16
775.059	26.59
775.238	25.99
775.417	26.27
775.595	26.84
775.774	27.52
775.953	28.16
776.131	28.33
776.31	28.11
776.489	27.82
776.667	28.16
776.846	27.78
777.025	27.27
777.203	27.02
777.382	27.69
777.56	27.38
777.739	26.99
777.917	26.86
778.096	26.99
778.274	27.45
778.453	26.89
778.631	26.68
778.81	26.84
778.988	27.41
779.166	27.65
779.345	28
779.523	27.78
779.702	26.85
779.88	26.29
780.058	25.52
780.237	24.65
780.415	25.1
780.593	25.53
780.771	24.46
780.95	23.91
781.128	24.25
781.306	23.56
781.484	22.6
781.662	23.24
781.841	23.29
782.019	23.14
782.197	23.35
782.375	23.4
782.553	23.12
782.731	23.18
782.909	22.2
783.087	22.03
783.265	21.39
783.443	22.54
783.621	22.85
783.799	22.33
783.977	22.73
784.155	22.89
784.333	22.45
784.511	21.55
784.689	22.47
784.867	23.48
785.045	23
785.223	24.15
785.4	24.45
785.578	24.74
785.756	25.51
785.934	25.14
786.112	24.84
786.289	25.6
786.467	27.38
786.645	27.17
786.823	26.45
787	26.63
787.178	25.12
787.356	24.23
787.533	23.82
787.711	23.81
787.889	24.38
788.066	24.45
788.244	23.93
788.421	22.55
788.599	22.71
788.776	22.94
788.954	22.75
789.131	23.1
789.309	23.48
789.486	23.97
789.664	23.81
789.841	23.53
790.019	24.35
790.196	24.79
790.373	25.36
790.551	24.18
790.728	24.73
790.906	25.54
791.083	26.2
791.26	26.01
791.437	25.61
791.615	25.89
791.792	26.41
791.969	25.59
792.146	24.84
792.324	24.9
792.501	25.97
792.678	25.84
792.855	25.88
793.032	25.1
793.209	24.53
793.387	24.24
793.564	23.57
793.741	23.38
793.918	24.05
794.095	24.21
794.272	25
794.449	24.39
794.626	24.36
794.803	23.48
794.98	24.86
795.157	26.17
795.334	27.1
795.511	26.92
795.688	26.87
795.864	25.93
796.041	25.54
796.218	25.04
796.395	26.36
796.572	25.89
796.749	26.08
796.925	25.41
797.102	25.6
797.279	25.06
797.456	25.66
797.632	25.62
797.809	26.26
797.986	26.33
798.162	25.55
798.339	23.77
798.516	23.29
798.692	24.35
798.869	24.78
799.046	24.16
799.222	24.29
799.399	24.19
799.575	23.92
799.752	24.02
799.928	25.12
800.105	26.32
800.281	27.82
800.458	29.24
800.634	27.97
800.811	27.29
800.987	27.93
801.163	27.44
801.34	28.13
801.516	28.34
801.692	28.33
801.869	27.62
802.045	27.89
802.221	27.49
802.398	27.12
802.574	28.22
802.75	26.75
802.926	26.22
803.103	27
803.279	26.4
803.455	26.67
803.631	26.6
803.807	26.7
803.983	26.43
804.16	26.54
804.336	25.73
804.512	24.71
804.688	27.02
804.864	26.37
805.04	25.99
805.216	26.07
805.392	25.49
805.568	24.29
805.744	24.88
805.92	24.21
806.096	23.48
806.272	22.62
806.448	22.6
806.623	21.46
806.799	22.36
806.975	22.77
807.151	22.98
807.327	22.99
807.503	23.93
807.678	22.81
807.854	23.3
808.03	22.83
808.206	24.93
808.381	25.41
808.557	26.01
808.733	25.27
808.908	25.18
809.084	24.49
809.26	25.67
809.435	25.9
809.611	26.32
809.787	26.47
809.962	27.71
810.138	27.11
810.313	26.37
810.489	27.89
810.664	27.77
810.84	27.15
811.015	27.8
811.191	25.94
811.366	25.76
811.542	25.9
811.717	25.48
811.892	24.87
812.068	24.1
812.243	23.32
812.419	22.12
812.594	21.99
812.769	22.49
812.944	22.76
813.12	22.11
813.295	23.08
813.47	22.87
813.645	22.42
813.821	21.54
813.996	22.73
814.171	25.46
814.346	24.85
814.521	26.28
814.697	25.82
814.872	25.86
815.047	28.18
815.222	27.47
815.397	26.72
815.572	28.2
815.747	30
815.922	30.89
816.097	30.1
816.272	29.29
816.447	27.85
816.622	28.75
816.797	28.5
816.972	28.21
817.147	27.42
817.322	27.77
817.496	27.35
817.671	26.47
817.846	25.89
818.021	25.71
818.196	25.75
818.371	26.03
818.545	25.6
818.72	25.15
818.895	25.61
819.069	26.03
819.244	26.68
819.419	26.78
819.594	26.79
819.768	26.61
819.943	25.48
820.117	25.07
820.292	25.71
820.467	24.5
820.641	24.59
820.816	23.57
820.99	22.61
821.165	22.19
821.339	21.65
821.514	21.57
821.688	21.26
821.863	21.55
822.037	21.47
822.212	21.15
822.386	21.35
822.56	21.24
822.735	21.51
822.909	21.68
823.084	21.69
823.258	21.79
823.432	21.83
823.606	22.03
823.781	22.04
823.955	22.23
824.129	22.31
824.303	22.3
824.478	22.21
824.652	22.07
824.826	22.22
825	22.24
825.174	21.79
825.348	21.91
825.523	21.59
825.697	21.83
825.871	21.82
826.045	21.52
826.219	21.48
826.393	21.51
826.567	21.2
826.741	20.98
826.915	20.92
827.089	21.15
827.263	21.13
827.437	21.11
827.611	21.06
827.784	21.13
827.958	21
828.132	20.98
828.306	21.55
828.48	22.37
828.654	23.43
828.827	23.68
829.001	23.74
829.175	23.66
829.349	24.21
829.522	23.85
829.696	23.96
829.87	24.99
830.044	25.86
830.217	25.06
830.391	23.67
830.565	23.11
830.738	23.86
830.912	24.78
831.085	25.06
831.259	25.32
831.432	25.66
831.606	25.32
831.779	24.25
831.953	23.49
832.126	23.35
832.3	24.52
832.473	24.6
832.647	23.42
832.82	23.75
832.994	23.44
833.167	23.04
833.34	22.12
833.514	22.57
833.687	23.01
833.86	22.9
834.034	22.83
834.207	22.68
834.38	22.24
834.553	22.97
834.727	22.41
834.9	22.42
835.073	22.21
835.246	23.15
835.419	23.56
835.593	23.54
835.766	24.01
835.939	25.05
836.112	24.85
836.285	25.03
836.458	24.99
836.631	25.01
836.804	25.21
836.977	26
837.15	27.02
837.323	24.95
837.496	24.67
837.669	25.2
837.842	23.53
838.015	22.69
838.188	21.44
838.361	20.26
838.533	21.48
838.706	20.57
838.879	21.09
839.052	20.55
839.225	23.31
839.398	22.4
839.57	21.87
839.743	23.91
839.916	23.46
840.088	24.98
840.261	25.71
840.434	27.07
840.607	27.87
840.779	26.82
840.952	26.73
841.124	25.84
841.297	27.88
841.47	26.19
841.642	25.88
841.815	27.27
841.987	28.5
842.16	27.56
842.332	25.84
842.505	27.28
842.677	28.44
842.85	26.71
843.022	29.18
843.194	29.18
843.367	28.86
843.539	28.19
843.712	28.37
843.884	26.28
844.056	27.4
844.229	26.7
844.401	28.04
844.573	26.97
844.745	30
844.918	26.17
845.09	26.26
845.262	30.47
845.434	29.33
845.606	29.29
845.779	29.56
845.951	29.35
846.123	30.73
846.295	31.11
846.467	29.68
846.639	28
846.811	30.18
846.983	30.61
847.155	30.58
847.327	34.34
847.499	35.46
847.671	36.62
847.843	38.58
848.015	41.37
848.187	38.43
848.359	41.36
848.531	41.61
848.703	40.68
848.875	42.79
849.047	39.83
849.218	38.86
849.39	36.62
849.562	37.83
849.734	35.6
849.905	33.83
850.077	32.52
850.249	29.1
850.421	29.12
850.592	29.43
850.764	28.53
850.936	32.37
851.107	30.35
851.279	29.1
851.451	29.65
851.622	32.55
851.794	29.61
851.965	31.78
852.137	36.11
852.308	35.86
852.48	35.4
852.651	30.62
852.823	30.7
852.994	31.3
853.166	36.39
853.337	32.78
853.509	32.62
853.68	32.73
853.851	28.2
854.023	24.83
854.194	25.41
854.365	23.93
854.537	25.47
854.708	23.66
854.879	26.52
855.05	25.3
855.222	21.83
855.393	23.13
855.564	23.08
855.735	24.39
855.906	27.14
856.078	26.14
856.249	27.83
856.42	28.31
856.591	30.47
856.762	29.36
856.933	30.59
857.104	38.09
857.275	33.98
857.446	35.26
857.617	40.19
857.788	39.79
857.959	40.66
858.13	39.86
858.301	41.39
858.472	38.4
858.643	36.33
858.814	37.24
858.985	33.17
859.155	36.49
859.326	35.04
859.497	32.43
859.668	30.6
859.839	30.32
860.009	32.89
860.18	31.2
860.351	33.15
860.522	34.79
860.692	28.06
860.863	28.17
861.034	29.88
861.204	31.96
861.375	29.41
861.546	31.34
861.716	28.54
861.887	31.58
862.057	32.01
862.228	29.67
862.398	28.32
862.569	34.96
862.739	32.6
862.91	30.86
863.08	28.53
863.251	31.29
863.421	33.6
863.592	37.42
863.762	36.16
863.932	36.3
864.103	34.87
864.273	33.46
864.443	29.62
864.614	34.71
864.784	31.2
864.954	33.56
865.125	32.77
865.295	25.81
865.465	27.06
865.635	27.44
865.805	25.8
865.976	26.75
866.146	28.35
866.316	31.21
866.486	30.33
866.656	33.37
866.826	32.07
866.996	29.89
867.166	29.74
867.336	30.21
867.506	28.63
867.676	33.59
867.846	36.41
868.016	38.17
868.186	37.06
868.356	34.34
868.526	33.49
868.696	36.89
868.866	39.28
869.036	38.92
869.206	37.59
869.376	37.05
869.545	31.96
869.715	29.88
869.885	32.84
870.055	32.93
870.224	34.54
870.394	35.71
870.564	33.68
870.734	31.39
870.903	34.6
871.073	32.45
871.243	34.66
871.412	35.52
871.582	35.98
871.751	34.17
871.921	34.3
872.091	34.03
872.26	32.67
872.43	29.85
872.599	29.11
872.769	28.24
872.938	31.02
873.108	28.44
873.277	28.72
873.446	32.98
873.616	28.12
873.785	27.37
873.955	28.65
874.124	30.22
874.293	30.36
874.463	32.55
874.632	34.55
874.801	33.58
874.971	34.45
875.14	32.83
875.309	25.18
875.478	27.17
875.647	24.36
875.817	18.65
875.986	23.6
876.155	23.63
876.324	23.7
876.493	22.74
876.662	19.46
876.831	20.46
877	21.8
877.17	23.29
877.339	26.81
877.508	31.61
877.677	30.15
877.846	21.54
878.015	27.25
878.184	26.16
878.352	24.77
878.521	28.58
878.69	25.4
878.859	29.54
879.028	29.3
879.197	25.93
879.366	25.25
879.534	26.2
879.703	25.57
879.872	24.05
880.041	24.61
880.21	24.12
880.378	22.74
880.547	23.64
880.716	21.88
880.884	22.02
881.053	22.19
881.222	20.45
881.39	21.14
881.559	21.61
881.727	21.63
881.896	21.3
882.065	21.54
882.233	20.84
882.402	21.11
882.57	20.75
882.739	20.27
882.907	20.12
883.076	20.55
883.244	20.97
883.412	20.73
883.581	20.24
883.749	20.33
883.918	20.48
884.086	20.82
884.254	21.15
884.423	21.56
884.591	22.3
884.759	23.52
884.927	24.39
885.096	23.5
885.264	23.67
885.432	24.31
885.6	23.68
885.769	23.48
885.937	23.12
886.105	21.13
886.273	21.04
886.441	18.86
886.609	16.25
886.777	15.91
886.945	17.59
887.113	19.42
887.281	17.14
887.449	18.91
887.617	18.73
887.785	23.1
887.953	23.38
888.121	21.42
888.289	22.82
888.457	24.8
888.625	25.6
888.793	23.34
888.961	24.27
889.129	23.77
889.296	24.7
889.464	24.72
889.632	20.66
889.8	20.99
889.967	24.87
890.135	28.98
