Data from 2938764__Reflection_03.txt Node
Date: Fri Mar 13 16:28:07 EDT 2015
User: robert
Spectrometer: USB4E03002
Autoset integration time: false
Trigger mode: 4
Integration Time (sec): 1.000000E-1
Scans to average: 10
Electric dark correction enabled: false
Nonlinearity correction enabled: false
Boxcar width: 5
Stray light correction enabled: false
XAxis mode: Wavelengths
Stop averaging: false
Number of Pixels in Spectrum: 3648
>>>>>Begin Spectral Data<<<<<
177.575	-450
177.794	-2069.23
178.014	-246.15
178.233	-115.58
178.452	-56.88
178.672	-67.63
178.891	15.68
179.11	15.79
179.33	43.5
179.549	-15.11
179.768	18.03
179.987	29.77
180.207	20.12
180.426	-34.41
180.645	-154.44
180.864	-985.71
181.084	287.64
181.303	458.62
181.522	107.52
181.741	334.25
181.96	465.96
182.179	229.2
182.398	272.31
182.618	201.09
182.837	142.2
183.056	177.44
183.275	195.06
183.494	136.13
183.713	97.5
183.932	89.84
184.151	36.56
184.37	35.64
184.589	49.39
184.808	41.05
185.027	47.85
185.246	30.78
185.465	20.51
185.684	23.51
185.903	3.64
186.122	3.89
186.341	-27.98
186.56	38.3
186.779	161.26
186.998	31.58
187.216	-18.18
187.435	-6.35
187.654	640
187.873	14
188.092	2183.33
188.311	224.51
188.53	100
188.748	121.24
188.967	143.5
189.186	67.37
189.405	72.71
189.623	87.5
189.842	126.05
190.061	260.78
190.28	154.28
190.498	91.01
190.717	71.07
190.936	184.32
191.154	215.72
191.373	199.56
191.592	214.39
191.81	165.55
192.029	275.33
192.248	331.62
192.466	121.41
192.685	108.44
192.904	133.63
193.122	149.85
193.341	152.8
193.559	131.96
193.778	272.86
193.996	1022.22
194.215	-951.22
194.433	1668.97
194.652	-778.87
194.87	-292.93
195.089	-2700
195.307	1135.71
195.526	-2317.65
195.744	570.3
195.963	330.62
196.181	178.01
196.399	136.99
196.618	124.37
196.836	80.3
197.055	39.66
197.273	53.69
197.491	109.24
197.71	87.92
197.928	99.6
198.146	100.31
198.365	84.38
198.583	92.45
198.801	78.03
199.019	93.17
199.238	111.84
199.456	115.53
199.674	114.16
199.892	106.67
200.111	120.24
200.329	116.85
200.547	103.1
200.765	101.08
200.983	120.43
201.202	156.9
201.42	141.27
201.638	108.85
201.856	84.41
202.074	59.71
202.292	100.29
202.51	86.88
202.728	73.64
202.946	87.33
203.165	105.83
203.383	102.86
203.601	96.37
203.819	87.71
204.037	56.03
204.255	129.65
204.473	142.55
204.691	75.16
204.909	63.59
205.127	80.3
205.345	68.45
205.562	61.81
205.78	56.76
205.998	71.52
206.216	130.8
206.434	114.39
206.652	77.17
206.87	146.02
207.088	148.31
207.306	517.46
207.523	234.78
207.741	321.21
207.959	246.07
208.177	345.45
208.395	151.76
208.612	73.96
208.83	87.65
209.048	119.52
209.266	85.04
209.483	78.02
209.701	69.22
209.919	107.59
210.136	103.5
210.354	138.92
210.572	118.36
210.79	120.78
211.007	132.08
211.225	114.67
211.442	124.83
211.66	130.95
211.878	107.61
212.095	103.55
212.313	76.93
212.53	74.5
212.748	46.31
212.966	49.76
213.183	48.81
213.401	56.59
213.618	53.34
213.836	46.95
214.053	42.74
214.271	50.1
214.488	63.1
214.705	77.36
214.923	79.13
215.14	71.92
215.358	46.1
215.575	44.95
215.793	67.05
216.01	62.86
216.227	42
216.445	43.85
216.662	39.85
216.879	32.33
217.097	28.32
217.314	15.06
217.531	20.92
217.749	24.44
217.966	19.9
218.183	12.79
218.4	21.92
218.618	10.75
218.835	15.7
219.052	18.62
219.269	31.45
219.487	33.9
219.704	45.22
219.921	59.52
220.138	64.85
220.355	66.76
220.572	53.37
220.79	51.56
221.007	64.65
221.224	63.08
221.441	61.6
221.658	48.84
221.875	54.24
222.092	52.44
222.309	53.68
222.526	68.03
222.743	59.08
222.96	55.15
223.177	51.92
223.394	46.25
223.611	42.41
223.828	39.31
224.045	41.07
224.262	31.52
224.479	27.59
224.696	20.03
224.913	9.28
225.13	12.43
225.347	17.44
225.564	15.38
225.781	11.09
225.997	8.22
226.214	8.69
226.431	11.63
226.648	12.25
226.865	13.42
227.082	13.57
227.298	11.32
227.515	9.96
227.732	8.06
227.949	7
228.165	7.56
228.382	6.94
228.599	6.97
228.816	6.72
229.032	6.86
229.249	5.79
229.466	5.94
229.682	6.86
229.899	7.17
230.116	6.22
230.332	7.21
230.549	7.42
230.765	7.87
230.982	7.36
231.199	7.6
231.415	8.4
231.632	9.64
231.848	9.3
232.065	9.87
232.281	10.88
232.498	12.17
232.714	11.49
232.931	10.4
233.147	11.19
233.364	10.13
233.58	6.84
233.797	4.5
234.013	4.36
234.23	2.43
234.446	1.79
234.662	1.55
234.879	2.55
235.095	1.81
235.312	2.32
235.528	0.67
235.744	2.06
235.961	4.64
236.177	5.47
236.393	5.71
236.61	7.1
236.826	8.04
237.042	8.12
237.258	8.01
237.475	11.37
237.691	11.32
237.907	11.42
238.123	11.37
238.339	10.33
238.556	11.13
238.772	10.17
238.988	10.24
239.204	10.03
239.42	9.2
239.636	7.12
239.853	4.45
240.069	4.89
240.285	5.77
240.501	5.49
240.717	6.4
240.933	6.37
241.149	6.19
241.365	6.12
241.581	5.42
241.797	5.67
242.013	6.25
242.229	6.06
242.445	5.46
242.661	5.73
242.877	6.07
243.093	5.44
243.309	5.09
243.525	4.89
243.741	5.44
243.957	5.94
244.173	5.63
244.388	5.57
244.604	6.34
244.82	7.08
245.036	6.79
245.252	6.12
245.468	5.76
245.683	6.22
245.899	6.61
246.115	6.29
246.331	6.21
246.547	6.1
246.762	5.94
246.978	6.17
247.194	5.92
247.409	5.88
247.625	5.84
247.841	6.14
248.057	5.59
248.272	5.12
248.488	4.85
248.703	4.74
248.919	4.67
249.135	4.36
249.35	3.81
249.566	3.97
249.782	3.39
249.997	3.17
250.213	3.44
250.428	4.21
250.644	5.73
250.859	5.66
251.075	4.98
251.29	5.05
251.506	5.69
251.721	5.66
251.937	5.58
252.152	6.24
252.368	6.35
252.583	5.99
252.798	6.2
253.014	5.35
253.229	5.81
253.445	6.16
253.66	6.95
253.875	6.5
254.091	6.55
254.306	6.56
254.521	6.53
254.737	6.48
254.952	5.48
255.167	4.72
255.383	4.88
255.598	4.72
255.813	4.38
256.028	4.36
256.244	4.25
256.459	4.08
256.674	4
256.889	4.29
257.104	4.67
257.32	5.24
257.535	4.93
257.75	4.21
257.965	3.66
258.18	3.89
258.395	4.04
258.61	4.01
258.826	4
259.041	3.75
259.256	3.55
259.471	3.49
259.686	3.58
259.901	4.04
260.116	4.23
260.331	4.1
260.546	4.07
260.761	3.84
260.976	3.92
261.191	3.81
261.406	4.21
261.621	4.21
261.836	4.28
262.05	3.99
262.265	3.3
262.48	3.12
262.695	3.61
262.91	3.79
263.125	3.37
263.34	3.87
263.555	3.77
263.769	3.82
263.984	3.54
264.199	3.1
264.414	3.8
264.629	4.18
264.843	4.2
265.058	4.48
265.273	4.76
265.488	5.14
265.702	4.75
265.917	5.18
266.132	5.07
266.346	5.63
266.561	5.81
266.776	5.5
266.99	5.34
267.205	5.44
267.42	4.83
267.634	4.71
267.849	4.35
268.063	4.65
268.278	4.22
268.492	4.28
268.707	3.91
268.922	3.6
269.136	3.85
269.351	3.9
269.565	3.72
269.78	3.91
269.994	3.54
270.209	3.82
270.423	3.66
270.637	3.78
270.852	3.45
271.066	3.39
271.281	3.56
271.495	3.31
271.709	3.16
271.924	3.13
272.138	3.17
272.353	3.07
272.567	2.97
272.781	3.05
272.996	2.81
273.21	3.1
273.424	3.04
273.638	2.99
273.853	2.84
274.067	3.17
274.281	3.61
274.495	3.64
274.71	3.41
274.924	3.21
275.138	2.7
275.352	2.63
275.566	2.11
275.781	2.22
275.995	2.13
276.209	2.39
276.423	2.12
276.637	2.04
276.851	2.31
277.065	2.65
277.279	2.53
277.493	2.43
277.707	3.03
277.921	2.99
278.135	2.94
278.349	2.9
278.563	3.07
278.777	3.23
278.991	3.02
279.205	2.59
279.419	2.48
279.633	2.99
279.847	3.45
280.061	3.57
280.275	3.64
280.489	3.65
280.703	3.93
280.917	3.58
281.131	3.31
281.344	3.14
281.558	3.14
281.772	3.45
281.986	3.03
282.2	3.07
282.414	2.67
282.627	2.83
282.841	2.98
283.055	2.64
283.269	2.56
283.482	2.64
283.696	2.83
283.91	2.75
284.123	2.51
284.337	2.62
284.551	2.56
284.764	2.64
284.978	2.85
285.192	2.63
285.405	2.85
285.619	2.98
285.833	2.77
286.046	2.81
286.26	2.61
286.473	2.52
286.687	2.52
286.9	2.56
287.114	2.52
287.327	2.08
287.541	2.06
287.754	2.12
287.968	2.05
288.181	2.43
288.395	2.1
288.608	2.86
288.822	3.05
289.035	2.83
289.248	2.7
289.462	2.83
289.675	2.76
289.889	2.94
290.102	2.56
290.315	2.69
290.529	2.52
290.742	2.69
290.955	2.2
291.169	2.08
291.382	2.4
291.595	2.04
291.808	2.14
292.022	2.32
292.235	2.14
292.448	2.62
292.661	2.41
292.875	2.38
293.088	2.38
293.301	2.41
293.514	2.62
293.727	2.53
293.94	2.59
294.153	2.79
294.367	2.65
294.58	2.76
294.793	2.49
295.006	2.56
295.219	2.54
295.432	2.65
295.645	2.69
295.858	2.67
296.071	2.64
296.284	3.01
296.497	2.96
296.71	3.24
296.923	3.24
297.136	3.53
297.349	3.71
297.562	3.82
297.775	3.79
297.988	3.9
298.201	3.94
298.414	4.17
298.626	4.36
298.839	4.16
299.052	3.84
299.265	3.79
299.478	3.53
299.691	3.68
299.903	3.66
300.116	3.62
300.329	3.55
300.542	3.42
300.755	3.04
300.967	2.78
301.18	3.05
301.393	3.58
301.605	3.62
301.818	3.43
302.031	3.19
302.243	3.19
302.456	3.32
302.669	3.58
302.881	3.76
303.094	4.05
303.307	3.92
303.519	3.84
303.732	3.62
303.944	3.75
304.157	4.01
304.37	4.06
304.582	4.03
304.795	3.98
305.007	4.13
305.22	4.09
305.432	3.76
305.645	4.01
305.857	4.29
306.069	4.27
306.282	4.32
306.494	4.69
306.707	4.66
306.919	4.58
307.132	4.59
307.344	4.53
307.556	4.85
307.769	5.59
307.981	5.29
308.193	4.87
308.406	4.85
308.618	4.75
308.83	4.65
309.043	4.36
309.255	4.62
309.467	4.48
309.679	4.31
309.892	4.24
310.104	4.04
310.316	4.37
310.528	4.52
310.74	4.57
310.953	4.69
311.165	4.65
311.377	4.9
311.589	4.75
311.801	4.98
312.013	4.82
312.225	4.97
312.437	5.29
312.649	5.34
312.862	5.34
313.074	5.33
313.286	5.43
313.498	5.54
313.71	5.29
313.922	5.46
314.134	5.12
314.346	5.28
314.558	5.19
314.77	5.16
314.982	4.6
315.193	4.45
315.405	4.44
315.617	4.19
315.829	3.95
316.041	4.6
316.253	4.35
316.465	4.95
316.677	5.05
316.888	5.27
317.1	5.06
317.312	5.56
317.524	5.54
317.736	5.47
317.947	5.6
318.159	5.82
318.371	5.64
318.583	6.29
318.794	5.91
319.006	6.26
319.218	5.91
319.43	5.62
319.641	5.5
319.853	6.05
320.064	6.6
320.276	7.14
320.488	7.18
320.699	7.06
320.911	6.93
321.123	6.96
321.334	6.81
321.546	7.1
321.757	7.8
321.969	8.14
322.18	8.23
322.392	7.92
322.603	7.32
322.815	7.53
323.026	7.22
323.238	6.84
323.449	7.16
323.661	7.1
323.872	7.54
324.083	7.05
324.295	6.9
324.506	6.73
324.718	6.73
324.929	6.93
325.14	6.9
325.352	7.92
325.563	7.91
325.774	8.16
325.986	8.17
326.197	7.91
326.408	7.88
326.62	7.87
326.831	8.04
327.042	8.34
327.253	8.39
327.464	8.47
327.676	8.16
327.887	8.75
328.098	8.71
328.309	9.01
328.52	8.9
328.732	9.29
328.943	9.56
329.154	9.27
329.365	9.64
329.576	10.19
329.787	10.5
329.998	10.73
330.209	10.61
330.42	10.67
330.631	10.64
330.842	10.81
331.053	11.02
331.264	11.08
331.475	11.68
331.686	11.36
331.897	11.33
332.108	11.23
332.319	10.99
332.53	11.08
332.741	10.95
332.952	11.05
333.163	11
333.374	10.93
333.585	11.11
333.795	11.23
334.006	11.51
334.217	11.49
334.428	11.63
334.639	11.78
334.849	11.55
335.06	11.61
335.271	11.88
335.482	11.98
335.692	12.01
335.903	12.04
336.114	11.83
336.325	11.84
336.535	11.46
336.746	11.08
336.957	11.04
337.167	11.42
337.378	11.72
337.589	11.56
337.799	11.34
338.01	11.23
338.22	11
338.431	10.86
338.642	10.51
338.852	11.14
339.063	11.48
339.273	11.61
339.484	11.4
339.694	11.15
339.905	11.04
340.115	11.1
340.326	11.01
340.536	11.17
340.746	11.5
340.957	11.85
341.167	11.46
341.378	11.52
341.588	11.33
341.799	11.42
342.009	11.52
342.219	11.67
342.43	11.67
342.64	11.7
342.85	11.63
343.061	11.35
343.271	10.9
343.481	10.86
343.691	10.82
343.902	10.86
344.112	10.86
344.322	11.04
344.532	10.93
344.743	11.06
344.953	11.12
345.163	10.98
345.373	11.09
345.583	11.51
345.793	11.43
346.004	11.28
346.214	11.26
346.424	11.24
346.634	11.04
346.844	11.04
347.054	10.85
347.264	10.67
347.474	10.73
347.684	10.65
347.894	10.1
348.104	10.16
348.314	10.1
348.524	9.8
348.734	9.81
348.944	9.65
349.154	9.68
349.364	9.95
349.574	10.11
349.784	10.19
349.994	10.07
350.204	10.36
350.413	10.07
350.623	10.18
350.833	10.43
351.043	10.67
351.253	10.69
351.463	10.13
351.672	9.93
351.882	9.82
352.092	9.64
352.302	9.81
352.511	9.73
352.721	9.92
352.931	9.94
353.141	9.95
353.35	9.74
353.56	9.84
353.77	10.08
353.979	10.27
354.189	10.38
354.399	10.76
354.608	11.03
354.818	11.08
355.027	11.22
355.237	11.2
355.447	11.04
355.656	11.13
355.866	11.26
356.075	11.43
356.285	11.4
356.494	11.36
356.704	10.99
356.913	10.68
357.123	10.59
357.332	10.29
357.542	10.23
357.751	10.46
357.96	10.2
358.17	9.89
358.379	10.08
358.589	9.85
358.798	9.9
359.007	9.97
359.217	9.84
359.426	10.03
359.635	10.05
359.845	10.07
360.054	9.91
360.263	9.75
360.472	9.68
360.682	9.49
360.891	9.46
361.1	9.25
361.309	9.31
361.519	9.59
361.728	9.35
361.937	9.44
362.146	9.22
362.355	9.18
362.564	9.34
362.774	9.45
362.983	9.41
363.192	9.63
363.401	9.71
363.61	9.58
363.819	9.49
364.028	9.42
364.237	9.4
364.446	9.7
364.655	9.57
364.864	9.51
365.073	9.32
365.282	9.29
365.491	8.98
365.7	9.02
365.909	9.23
366.118	9.14
366.327	9.18
366.536	9.25
366.745	8.99
366.954	9.23
367.162	9.45
367.371	9.56
367.58	9.67
367.789	9.99
367.998	10.11
368.207	9.97
368.415	9.72
368.624	9.83
368.833	9.73
369.042	9.86
369.25	9.65
369.459	9.44
369.668	9.47
369.877	9.39
370.085	9.1
370.294	8.91
370.503	9.01
370.711	9.09
370.92	8.87
371.129	9.16
371.337	9.04
371.546	8.97
371.754	8.98
371.963	8.94
372.171	8.91
372.38	8.86
372.589	8.94
372.797	8.8
373.006	8.73
373.214	8.91
373.423	8.91
373.631	9.03
373.84	9.11
374.048	9.05
374.256	9.04
374.465	8.78
374.673	8.85
374.882	8.76
375.09	8.79
375.298	8.71
375.507	8.64
375.715	8.29
375.923	8.37
376.132	8.36
376.34	8.43
376.548	8.55
376.757	8.45
376.965	8.58
377.173	8.34
377.381	8.38
377.59	8.4
377.798	8.7
378.006	8.68
378.214	8.46
378.423	8.42
378.631	8.39
378.839	8.46
379.047	8.73
379.255	8.91
379.463	9.2
379.671	9.16
379.879	9.09
380.088	8.75
380.296	8.8
380.504	8.63
380.712	8.84
380.92	8.9
381.128	8.72
381.336	8.67
381.544	8.39
381.752	8.24
381.96	8.14
382.168	8.24
382.376	8.25
382.584	8.22
382.791	8.22
382.999	8.03
383.207	8.14
383.415	7.97
383.623	7.94
383.831	7.78
384.039	8.05
384.247	8.14
384.454	8.02
384.662	7.93
384.87	7.85
385.078	7.84
385.285	7.62
385.493	7.43
385.701	7.25
385.909	7.07
386.116	7.21
386.324	7.06
386.532	6.89
386.739	7.08
386.947	7.19
387.155	7.03
387.362	7.12
387.57	7.17
387.778	7.17
387.985	7.36
388.193	7.47
388.4	7.4
388.608	7.16
388.816	7.1
389.023	7.04
389.231	7.04
389.438	7.19
389.646	7.06
389.853	6.94
390.061	7.13
390.268	7.03
390.475	7.13
390.683	7.22
390.89	7.21
391.098	7.33
391.305	7.15
391.512	7.24
391.72	7.24
391.927	7.38
392.135	7.47
392.342	7.18
392.549	7.23
392.756	7.09
392.964	6.96
393.171	7.03
393.378	6.9
393.586	7.05
393.793	6.79
394	7
394.207	7.01
394.414	7.13
394.622	7.1
394.829	7.17
395.036	7.21
395.243	7.24
395.45	7
395.657	7.13
395.864	7.08
396.072	7.02
396.279	6.85
396.486	6.79
396.693	6.67
396.9	6.79
397.107	6.75
397.314	6.81
397.521	6.46
397.728	6.73
397.935	6.5
398.142	6.52
398.349	6.61
398.556	6.37
398.763	6.56
398.97	6.58
399.177	6.48
399.383	6.46
399.59	6.46
399.797	6.73
400.004	6.6
400.211	6.58
400.418	6.48
400.625	6.51
400.831	6.65
401.038	6.16
401.245	6.17
401.452	6.21
401.658	6.25
401.865	6.01
402.072	6.03
402.279	6.08
402.485	6.1
402.692	6.38
402.899	6.28
403.105	6.27
403.312	6.49
403.519	6.36
403.725	6.35
403.932	6.33
404.138	6.43
404.345	6.31
404.552	6.37
404.758	6.4
404.965	6.09
405.171	6
405.378	5.88
405.584	5.92
405.791	5.96
405.997	5.82
406.204	5.73
406.41	5.69
406.617	5.63
406.823	5.54
407.029	5.61
407.236	5.61
407.442	5.7
407.649	5.99
407.855	5.88
408.061	6.05
408.268	6.24
408.474	6.23
408.68	6.34
408.887	6.51
409.093	6.59
409.299	6.67
409.505	6.71
409.712	6.7
409.918	6.5
410.124	6.56
410.33	6.24
410.537	5.97
410.743	6.05
410.949	6.04
411.155	5.95
411.361	5.92
411.567	5.72
411.773	5.8
411.98	5.97
412.186	6.07
412.392	6.14
412.598	6.09
412.804	6.24
413.01	6.17
413.216	6.12
413.422	6.35
413.628	6.31
413.834	6.4
414.04	6.31
414.246	6.17
414.452	6.07
414.658	5.8
414.864	5.85
415.07	5.81
415.275	5.87
415.481	5.84
415.687	5.72
415.893	5.67
416.099	5.65
416.305	5.52
416.511	5.41
416.716	5.38
416.922	5.5
417.128	5.52
417.334	5.57
417.539	5.54
417.745	5.66
417.951	5.58
418.157	5.49
418.362	5.55
418.568	5.71
418.774	5.79
418.979	5.74
419.185	5.74
419.391	5.76
419.596	5.7
419.802	5.67
420.008	5.63
420.213	5.56
420.419	5.61
420.624	5.5
420.83	5.42
421.035	5.37
421.241	5.33
421.446	5.33
421.652	5.37
421.857	5.37
422.063	5.35
422.268	5.28
422.474	5.33
422.679	5.3
422.885	5.15
423.09	5.09
423.295	4.99
423.501	5.04
423.706	5.07
423.911	5
424.117	5.01
424.322	4.99
424.527	4.98
424.733	4.94
424.938	4.96
425.143	5.11
425.349	5.2
425.554	5.3
425.759	5.3
425.964	5.27
426.169	5.33
426.375	5.33
426.58	5.33
426.785	5.37
426.99	5.53
427.195	5.56
427.4	5.57
427.605	5.48
427.811	5.5
428.016	5.53
428.221	5.5
428.426	5.45
428.631	5.44
428.836	5.42
429.041	5.41
429.246	5.33
429.451	5.24
429.656	5.27
429.861	5.29
430.066	5.31
430.271	5.29
430.476	5.3
430.681	5.32
430.886	5.39
431.09	5.46
431.295	5.45
431.5	5.44
431.705	5.53
431.91	5.45
432.115	5.44
432.32	5.41
432.524	5.32
432.729	5.31
432.934	5.32
433.139	5.28
433.343	5.09
433.548	5.07
433.753	4.99
433.958	5.04
434.162	5.13
434.367	5.19
434.572	5.09
434.776	5.25
434.981	5.24
435.186	5.21
435.39	5.28
435.595	5.48
435.799	5.37
436.004	5.44
436.209	5.33
436.413	5.19
436.618	5.16
436.822	5.23
437.027	5.27
437.231	5.27
437.436	5.31
437.64	5.15
437.845	5.14
438.049	5.21
438.253	5.26
438.458	5.35
438.662	5.48
438.867	5.47
439.071	5.5
439.275	5.36
439.48	5.42
439.684	5.48
439.888	5.52
440.093	5.49
440.297	5.52
440.501	5.48
440.706	5.41
440.91	5.37
441.114	5.37
441.318	5.42
441.523	5.45
441.727	5.41
441.931	5.31
442.135	5.36
442.339	5.37
442.543	5.32
442.748	5.34
442.952	5.38
443.156	5.43
443.36	5.46
443.564	5.47
443.768	5.52
443.972	5.54
444.176	5.66
444.38	5.65
444.584	5.64
444.788	5.58
444.992	5.56
445.196	5.52
445.4	5.52
445.604	5.5
445.808	5.49
446.012	5.51
446.216	5.47
446.42	5.45
446.624	5.46
446.828	5.48
447.032	5.55
447.235	5.53
447.439	5.56
447.643	5.56
447.847	5.61
448.051	5.59
448.254	5.53
448.458	5.53
448.662	5.5
448.866	5.41
449.069	5.46
449.273	5.51
449.477	5.56
449.681	5.47
449.884	5.42
450.088	5.25
450.292	5.17
450.495	5.14
450.699	5.16
450.902	5.16
451.106	5.23
451.31	5.2
451.513	5.2
451.717	5.2
451.92	5.33
452.124	5.42
452.327	5.49
452.531	5.6
452.734	5.61
452.938	5.58
453.141	5.59
453.345	5.54
453.548	5.49
453.752	5.45
453.955	5.38
454.158	5.33
454.362	5.24
454.565	5.18
454.769	5.12
454.972	5.13
455.175	5.16
455.379	5.11
455.582	5.11
455.785	5.14
455.988	5.19
456.192	5.15
456.395	5.13
456.598	5.17
456.801	5.26
457.005	5.34
457.208	5.36
457.411	5.32
457.614	5.37
457.817	5.46
458.021	5.42
458.224	5.36
458.427	5.41
458.63	5.43
458.833	5.47
459.036	5.49
459.239	5.47
459.442	5.38
459.645	5.46
459.848	5.39
460.051	5.32
460.254	5.31
460.457	5.34
460.66	5.42
460.863	5.4
461.066	5.33
461.269	5.3
461.472	5.32
461.675	5.49
461.878	5.44
462.081	5.57
462.284	5.66
462.486	5.69
462.689	5.72
462.892	5.61
463.095	5.67
463.298	5.79
463.5	5.7
463.703	5.63
463.906	5.47
464.109	5.45
464.311	5.41
464.514	5.33
464.717	5.36
464.92	5.3
465.122	5.38
465.325	5.37
465.528	5.32
465.73	5.4
465.933	5.39
466.135	5.58
466.338	5.59
466.541	5.64
466.743	5.7
466.946	5.7
467.148	5.73
467.351	5.68
467.553	5.56
467.756	5.62
467.958	5.69
468.161	5.62
468.363	5.55
468.566	5.5
468.768	5.45
468.971	5.45
469.173	5.47
469.375	5.38
469.578	5.44
469.78	5.51
469.983	5.36
470.185	5.4
470.387	5.44
470.59	5.37
470.792	5.47
470.994	5.58
471.196	5.64
471.399	5.62
471.601	5.68
471.803	5.63
472.005	5.75
472.208	5.81
472.41	5.78
472.612	5.81
472.814	5.88
473.016	5.84
473.218	5.69
473.421	5.63
473.623	5.66
473.825	5.65
474.027	5.53
474.229	5.47
474.431	5.43
474.633	5.4
474.835	5.4
475.037	5.41
475.239	5.44
475.441	5.47
475.643	5.51
475.845	5.43
476.047	5.46
476.249	5.59
476.451	5.61
476.653	5.69
476.855	5.71
477.057	5.79
477.258	5.76
477.46	5.7
477.662	5.71
477.864	5.63
478.066	5.56
478.268	5.54
478.469	5.57
478.671	5.57
478.873	5.4
479.075	5.33
479.276	5.28
479.478	5.24
479.68	5.33
479.882	5.27
480.083	5.33
480.285	5.36
480.487	5.35
480.688	5.35
480.89	5.26
481.091	5.32
481.293	5.34
481.495	5.35
481.696	5.4
481.898	5.34
482.099	5.38
482.301	5.37
482.502	5.38
482.704	5.31
482.905	5.27
483.107	5.28
483.308	5.29
483.51	5.31
483.711	5.29
483.913	5.28
484.114	5.27
484.315	5.25
484.517	5.24
484.718	5.24
484.92	5.29
485.121	5.31
485.322	5.32
485.524	5.31
485.725	5.31
485.926	5.32
486.127	5.29
486.329	5.36
486.53	5.35
486.731	5.35
486.932	5.35
487.134	5.35
487.335	5.37
487.536	5.37
487.737	5.41
487.938	5.38
488.139	5.4
488.341	5.43
488.542	5.4
488.743	5.43
488.944	5.43
489.145	5.45
489.346	5.48
489.547	5.45
489.748	5.49
489.949	5.45
490.15	5.44
490.351	5.44
490.552	5.45
490.753	5.43
490.954	5.45
491.155	5.45
491.356	5.48
491.557	5.42
491.758	5.46
491.959	5.43
492.159	5.44
492.36	5.47
492.561	5.51
492.762	5.53
492.963	5.58
493.164	5.52
493.364	5.53
493.565	5.49
493.766	5.57
493.967	5.58
494.167	5.62
494.368	5.64
494.569	5.62
494.769	5.57
494.97	5.55
495.171	5.52
495.371	5.61
495.572	5.63
495.773	5.69
495.973	5.74
496.174	5.79
496.375	5.72
496.575	5.67
496.776	5.73
496.976	5.82
497.177	5.83
497.377	5.92
497.578	5.92
497.778	6.02
497.979	6
498.179	5.92
498.38	5.94
498.58	6.05
498.78	6.15
498.981	6.24
499.181	6.17
499.382	6.16
499.582	6.17
499.782	6.25
499.983	6.23
500.183	6.28
500.383	6.37
500.584	6.37
500.784	6.46
500.984	6.46
501.184	6.45
501.385	6.51
501.585	6.58
501.785	6.58
501.985	6.53
502.185	6.59
502.386	6.67
502.586	6.76
502.786	6.9
502.986	6.87
503.186	6.97
503.386	6.95
503.586	6.96
503.786	7
503.987	7.07
504.187	7.2
504.387	7.22
504.587	7.17
504.787	7.15
504.987	7.11
505.187	7.12
505.387	7.17
505.587	7.23
505.786	7.31
505.986	7.39
506.186	7.41
506.386	7.41
506.586	7.43
506.786	7.48
506.986	7.44
507.186	7.51
507.386	7.63
507.585	7.62
507.785	7.68
507.985	7.69
508.185	7.69
508.384	7.74
508.584	7.78
508.784	7.83
508.984	7.93
509.183	8.08
509.383	8.14
509.583	8.13
509.782	8.12
509.982	8.1
510.182	8.19
510.381	8.27
510.581	8.29
510.781	8.33
510.98	8.35
511.18	8.41
511.379	8.38
511.579	8.44
511.778	8.57
511.978	8.68
512.177	8.74
512.377	8.8
512.576	8.86
512.776	8.93
512.975	8.98
513.175	9.03
513.374	9.06
513.573	9.17
513.773	9.13
513.972	9.09
514.172	9.11
514.371	9.24
514.57	9.23
514.77	9.31
514.969	9.35
515.168	9.43
515.367	9.52
515.567	9.59
515.766	9.69
515.965	9.87
516.164	9.96
516.364	10.04
516.563	10.09
516.762	10.24
516.961	10.22
517.16	10.3
517.359	10.35
517.559	10.42
517.758	10.53
517.957	10.5
518.156	10.57
518.355	10.63
518.554	10.73
518.753	10.78
518.952	10.79
519.151	10.91
519.35	10.99
519.549	11.04
519.748	11.08
519.947	11.06
520.146	11.14
520.345	11.08
520.544	11.17
520.743	11.23
520.942	11.28
521.141	11.33
521.339	11.4
521.538	11.49
521.737	11.59
521.936	11.7
522.135	11.81
522.333	11.99
522.532	12.07
522.731	12.13
522.93	12.21
523.129	12.29
523.327	12.49
523.526	12.59
523.725	12.65
523.923	12.7
524.122	12.81
524.321	12.92
524.519	12.95
524.718	13.15
524.917	13.24
525.115	13.25
525.314	13.36
525.512	13.34
525.711	13.4
525.909	13.45
526.108	13.49
526.306	13.51
526.505	13.57
526.703	13.61
526.902	13.62
527.1	13.64
527.299	13.72
527.497	13.75
527.696	13.79
527.894	13.8
528.092	13.84
528.291	13.93
528.489	13.96
528.688	13.96
528.886	13.99
529.084	14.02
529.283	14.06
529.481	14.08
529.679	14.11
529.877	14.15
530.076	14.22
530.274	14.24
530.472	14.25
530.67	14.34
530.869	14.49
531.067	14.6
531.265	14.67
531.463	14.76
531.661	14.88
531.859	15.01
532.057	15.15
532.255	15.24
532.454	15.34
532.652	15.41
532.85	15.48
533.048	15.48
533.246	15.55
533.444	15.61
533.642	15.6
533.84	15.6
534.038	15.61
534.236	15.57
534.434	15.62
534.632	15.68
534.83	15.68
535.027	15.71
535.225	15.73
535.423	15.77
535.621	15.87
535.819	16.02
536.017	16.06
536.215	16.14
536.412	16.21
536.61	16.25
536.808	16.3
537.006	16.35
537.203	16.42
537.401	16.55
537.599	16.64
537.797	16.63
537.994	16.68
538.192	16.85
538.39	16.87
538.587	17.03
538.785	17.11
538.983	17.3
539.18	17.56
539.378	17.68
539.575	17.78
539.773	17.83
539.97	17.98
540.168	18.05
540.366	18.13
540.563	18.29
540.761	18.34
540.958	18.4
541.155	18.42
541.353	18.45
541.55	18.5
541.748	18.53
541.945	18.59
542.143	18.66
542.34	18.73
542.537	18.79
542.735	18.79
542.932	18.89
543.129	19.04
543.327	19.15
543.524	19.29
543.721	19.46
543.919	19.74
544.116	19.92
544.313	20.11
544.51	20.47
544.708	20.73
544.905	21.06
545.102	21.33
545.299	21.54
545.496	21.7
545.693	21.85
545.891	21.9
546.088	21.86
546.285	21.89
546.482	21.86
546.679	21.67
546.876	21.59
547.073	21.41
547.27	21.22
547.467	20.96
547.664	20.9
547.861	20.86
548.058	20.74
548.255	20.62
548.452	20.55
548.649	20.48
548.846	20.47
549.043	20.36
549.24	20.44
549.437	20.51
549.633	20.59
549.83	20.54
550.027	20.35
550.224	20.44
550.421	20.47
550.618	20.43
550.814	20.53
551.011	20.51
551.208	20.56
551.405	20.61
551.601	20.5
551.798	20.55
551.995	20.47
552.191	20.48
552.388	20.48
552.585	20.47
552.781	20.5
552.978	20.47
553.175	20.48
553.371	20.47
553.568	20.4
553.764	20.41
553.961	20.36
554.157	20.45
554.354	20.45
554.55	20.53
554.747	20.64
554.943	20.7
555.14	20.69
555.336	20.72
555.533	20.73
555.729	20.79
555.926	20.84
556.122	20.96
556.318	20.93
556.515	21.07
556.711	20.91
556.907	20.94
557.104	21.06
557.3	21.06
557.496	21.14
557.693	21.23
557.889	21.24
558.085	21.3
558.281	21.33
558.478	21.45
558.674	21.4
558.87	21.47
559.066	21.49
559.262	21.32
559.459	21.33
559.655	21.34
559.851	21.38
560.047	21.39
560.243	21.42
560.439	21.36
560.635	21.26
560.831	21.21
561.027	21.33
561.223	21.41
561.419	21.54
561.615	21.62
561.811	21.61
562.007	21.51
562.203	21.59
562.399	21.64
562.595	21.75
562.791	21.94
562.987	22.09
563.183	21.99
563.379	21.91
563.575	21.94
563.771	22.02
563.966	22.1
564.162	22.15
564.358	22.1
564.554	22.17
564.75	22.19
564.945	22.13
565.141	22.17
565.337	22.3
565.533	22.47
565.728	22.47
565.924	22.43
566.12	22.51
566.315	22.6
566.511	22.6
566.707	22.58
566.902	22.63
567.098	22.68
567.293	22.67
567.489	22.7
567.684	22.7
567.88	22.7
568.076	22.76
568.271	22.79
568.467	22.87
568.662	23
568.858	22.99
569.053	22.98
569.248	22.92
569.444	23.01
569.639	23.01
569.835	22.93
570.03	22.96
570.225	22.95
570.421	22.88
570.616	22.95
570.812	22.92
571.007	23
571.202	23.08
571.397	23.13
571.593	23.09
571.788	23.06
571.983	23.12
572.178	23.11
572.374	23.22
572.569	23.22
572.764	23.15
572.959	23.23
573.154	23.29
573.35	23.21
573.545	23.25
573.74	23.33
573.935	23.27
574.13	23.32
574.325	23.48
574.52	23.4
574.715	23.55
574.91	23.67
575.105	23.71
575.3	23.71
575.495	23.89
575.69	23.97
575.885	24.11
576.08	24.34
576.275	24.45
576.47	24.58
576.665	24.87
576.86	24.99
577.055	25.14
577.25	25.27
577.444	25.53
577.639	25.68
577.834	25.93
578.029	25.98
578.224	26.12
578.418	26.17
578.613	26.25
578.808	26.27
579.003	26.35
579.197	26.35
579.392	26.39
579.587	26.43
579.781	26.46
579.976	26.35
580.171	26.4
580.365	26.5
580.56	26.6
580.755	26.56
580.949	26.59
581.144	26.56
581.338	26.6
581.533	26.52
581.727	26.36
581.922	26.41
582.116	26.52
582.311	26.62
582.505	26.68
582.7	26.76
582.894	26.83
583.089	26.83
583.283	26.99
583.478	27.07
583.672	27.24
583.866	27.43
584.061	27.36
584.255	27.3
584.449	27.23
584.644	27.18
584.838	27.13
585.032	27.17
585.226	27.24
585.421	27.17
585.615	27.16
585.809	27.26
586.003	27.33
586.198	27.44
586.392	27.58
586.586	27.76
586.78	27.74
586.974	27.9
587.168	28
587.363	27.93
587.557	27.81
587.751	27.8
587.945	27.66
588.139	27.56
588.333	27.39
588.527	27.33
588.721	27.2
588.915	27.15
589.109	26.87
589.303	26.86
589.497	26.81
589.691	26.93
589.885	26.93
590.079	27.05
590.273	27.08
590.466	27.35
590.66	27.4
590.854	27.48
591.048	27.56
591.242	27.81
591.436	27.89
591.629	28.14
591.823	28.21
592.017	28.37
592.211	28.33
592.404	28.35
592.598	28.3
592.792	28.42
592.986	28.29
593.179	28.33
593.373	28.2
593.567	27.94
593.76	27.77
593.954	27.79
594.147	27.51
594.341	27.43
594.535	27.44
594.728	27.2
594.922	27.13
595.115	27.07
595.309	27
595.502	27.02
595.696	27.12
595.889	27.15
596.083	27.12
596.276	27.31
596.47	27.32
596.663	27.22
596.856	27.37
597.05	27.44
597.243	27.65
597.437	27.71
597.63	27.71
597.823	27.66
598.017	27.69
598.21	27.75
598.403	27.76
598.596	27.95
598.79	28.13
598.983	28.15
599.176	28.05
599.369	27.87
599.563	28.02
599.756	28.07
599.949	28.08
600.142	28.21
600.335	28.14
600.528	28.09
600.722	28.09
600.915	27.94
601.108	27.92
601.301	27.98
601.494	28.04
601.687	27.96
601.88	27.96
602.073	28
602.266	27.84
602.459	27.91
602.652	27.86
602.845	27.72
603.038	27.68
603.231	27.64
603.424	27.57
603.617	27.65
603.809	27.52
604.002	27.47
604.195	27.44
604.388	27.56
604.581	27.43
604.774	27.41
604.966	27.55
605.159	27.6
605.352	27.7
605.545	27.78
605.737	27.67
605.93	27.65
606.123	27.78
606.316	27.99
606.508	28.09
606.701	28.43
606.894	28.57
607.086	28.69
607.279	28.88
607.471	29.12
607.664	29.46
607.857	30.02
608.049	30.68
608.242	31.27
608.434	32.13
608.627	33.06
608.819	33.98
609.012	35.36
609.204	36.68
609.397	38.18
609.589	39.72
609.782	41.34
609.974	43.06
610.166	44.86
610.359	46.47
610.551	47.81
610.743	48.92
610.936	50.07
611.128	50.89
611.32	51.5
611.513	51.86
611.705	51.89
611.897	51.6
612.09	50.99
612.282	50.15
612.474	49.48
612.666	48.52
612.858	47.74
613.051	46.78
613.243	45.74
613.435	44.9
613.627	44.07
613.819	43.38
614.011	42.85
614.203	42.16
614.395	41.49
614.588	40.66
614.78	39.81
614.972	39.21
615.164	38.61
615.356	37.93
615.548	37.09
615.74	36.52
615.932	35.73
616.124	34.94
616.315	34.42
616.507	34.01
616.699	33.62
616.891	33.52
617.083	32.93
617.275	32.7
617.467	32.44
617.659	32.16
617.85	31.93
618.042	31.88
618.234	31.75
618.426	31.75
618.618	31.8
618.809	31.81
619.001	31.62
619.193	31.54
619.384	31.32
619.576	31.21
619.768	31.19
619.959	31.12
620.151	31.02
620.343	30.99
620.534	30.83
620.726	30.66
620.917	30.7
621.109	30.68
621.301	30.87
621.492	30.79
621.684	31.14
621.875	31.41
622.067	31.43
622.258	31.5
622.45	31.62
622.641	31.83
622.832	31.99
623.024	31.85
623.215	31.96
623.407	31.8
623.598	32.09
623.789	31.79
623.981	31.62
624.172	31.59
624.363	31.5
624.555	31.4
624.746	31.1
624.937	30.8
625.129	30.88
625.32	30.77
625.511	30.88
625.702	30.54
625.893	30.53
626.085	30.55
626.276	30.58
626.467	30.63
626.658	30.67
626.849	30.8
627.04	30.97
627.231	30.88
627.422	30.86
627.614	30.91
627.805	31.17
627.996	31.26
628.187	31.41
628.378	31.45
628.569	31.6
628.76	31.71
628.951	32.1
629.142	32.12
629.332	32.35
629.523	32.68
629.714	33
629.905	33.14
630.096	33.3
630.287	33.31
630.478	33.41
630.669	33.4
630.859	33.45
631.05	33.16
631.241	33.18
631.432	33.06
631.623	32.71
631.813	32.39
632.004	31.96
632.195	31.71
632.385	31.42
632.576	31.2
632.767	31.01
632.957	30.7
633.148	30.56
633.339	30.31
633.529	30.09
633.72	30.03
633.91	29.93
634.101	29.87
634.292	29.87
634.482	29.86
634.673	29.76
634.863	29.8
635.054	29.75
635.244	29.58
635.435	29.66
635.625	29.68
635.815	29.57
636.006	29.27
636.196	29.26
636.387	29.23
636.577	29.16
636.767	29.2
636.958	29.04
637.148	29.17
637.338	29.44
637.529	29.35
637.719	29.31
637.909	29.34
638.099	29.34
638.29	29.39
638.48	29.33
638.67	29.36
638.86	29.42
639.05	29.44
639.241	29.47
639.431	29.32
639.621	29.26
639.811	29.35
640.001	29.52
640.191	29.87
640.381	29.9
640.571	30.05
640.761	30.25
640.951	30.17
641.141	30.2
641.331	30.16
641.521	30.28
641.711	30.44
641.901	30.4
642.091	30.44
642.281	30.4
642.471	30.43
642.661	30.32
642.851	30.26
643.041	30.17
643.231	30.39
643.42	30.7
643.61	30.53
643.8	30.34
643.99	30.5
644.18	30.31
644.369	30.26
644.559	30.25
644.749	30.25
644.939	29.97
645.128	30.11
645.318	29.95
645.508	29.67
645.697	29.63
645.887	29.7
646.076	29.52
646.266	29.63
646.456	29.57
646.645	29.57
646.835	29.87
647.024	30.05
647.214	29.82
647.403	29.96
647.593	30.19
647.782	30.17
647.972	30.3
648.161	30.31
648.351	30.38
648.54	30.59
648.73	30.53
648.919	30.35
649.108	30.39
649.298	30.81
649.487	30.74
649.677	30.84
649.866	30.98
650.055	30.94
650.244	30.83
650.434	30.67
650.623	30.64
650.812	30.71
651.002	30.62
651.191	30.72
651.38	30.53
651.569	30.51
651.758	30.29
651.947	30.29
652.137	30.41
652.326	30.63
652.515	30.76
652.704	30.68
652.893	30.64
653.082	30.66
653.271	30.75
653.46	30.74
653.649	30.7
653.838	30.64
654.027	30.66
654.216	30.43
654.405	30.17
654.594	30.15
654.783	30.15
654.972	30.05
655.161	29.86
655.35	29.63
655.539	29.49
655.728	29.46
655.916	29.31
656.105	29.29
656.294	29.26
656.483	29.56
656.672	29.66
656.86	29.58
657.049	29.77
657.238	29.93
657.427	29.97
657.615	30.27
657.804	30.27
657.993	30.31
658.181	30.27
658.37	30.36
658.559	30.13
658.747	30.01
658.936	29.89
659.125	29.99
659.313	29.88
659.502	29.91
659.69	29.7
659.879	29.75
660.067	30
660.256	30.03
660.444	30.02
660.633	30.31
660.821	30.34
661.01	30.54
661.198	30.47
661.387	30.55
661.575	30.44
661.763	30.59
661.952	30.56
662.14	30.45
662.328	30.7
662.517	30.81
662.705	30.65
662.893	30.78
663.082	30.82
663.27	30.82
663.458	31.14
663.646	31.32
663.834	31.39
664.023	31.43
664.211	31.46
664.399	31.12
664.587	31.02
664.775	30.99
664.963	31.06
665.152	31.17
665.34	31.07
665.528	30.69
665.716	30.75
665.904	30.71
666.092	30.82
666.28	30.56
666.468	30.44
666.656	30.65
666.844	30.87
667.032	30.78
667.22	30.69
667.408	30.57
667.596	30.99
667.784	30.93
667.971	30.74
668.159	30.58
668.347	30.72
668.535	30.97
668.723	30.62
668.911	30.46
669.098	30.33
669.286	30.4
669.474	30.73
669.662	30.54
669.849	30.56
670.037	30.49
670.225	30.63
670.413	30.56
670.6	30.53
670.788	30.7
670.976	30.64
671.163	30.64
671.351	30.93
671.538	30.59
671.726	30.44
671.913	30.49
672.101	30.9
672.289	30.97
672.476	31.19
672.664	31.2
672.851	31.19
673.039	31.33
673.226	31.48
673.413	30.91
673.601	31.23
673.788	31.35
673.976	31.22
674.163	31.08
674.35	30.79
674.538	30.74
674.725	30.67
674.912	30.88
675.1	31.11
675.287	31.01
675.474	31.25
675.662	31.17
675.849	31.2
676.036	31.26
676.223	31.23
676.411	31.58
676.598	31.33
676.785	31.41
676.972	31.41
677.159	31.2
677.346	31.13
677.533	31.19
677.721	30.98
677.908	31.03
678.095	30.91
678.282	31
678.469	30.7
678.656	30.94
678.843	31.01
679.03	30.75
679.217	30.66
679.404	30.94
679.591	30.66
679.778	30.71
679.964	30.42
680.151	30.37
680.338	30.26
680.525	30.22
680.712	30.04
680.899	29.98
681.086	30.03
681.272	30.03
681.459	29.8
681.646	29.85
681.833	30.01
682.02	30.31
682.206	30.3
682.393	30.06
682.58	30.22
682.766	30.18
682.953	29.94
683.14	29.87
683.326	30.01
683.513	30.16
683.7	30.5
683.886	30.47
684.073	30.51
684.259	30.68
684.446	30.93
684.632	31.05
684.819	31.07
685.005	31.36
685.192	31.72
685.378	31.75
685.565	31.59
685.751	31.34
685.938	31.3
686.124	31.01
686.31	31.23
686.497	31.48
686.683	31.43
686.87	31.59
687.056	31.46
687.242	31.13
687.429	30.85
687.615	30.88
687.801	31.16
687.987	31.43
688.174	31.44
688.36	31.38
688.546	31.14
688.732	31.08
688.918	30.79
689.105	31.1
689.291	31.4
689.477	31.43
689.663	31.63
689.849	31.47
690.035	31.24
690.221	31.46
690.407	31.54
690.593	31.69
690.779	31.74
690.965	31.89
691.151	31.24
691.337	31.23
691.523	31.66
691.709	31.57
691.895	31.75
692.081	31.75
692.267	31.84
692.453	31.77
692.639	31.78
692.825	31.83
693.011	31.93
693.196	32.43
693.382	32.23
693.568	31.97
693.754	31.92
693.94	31.78
694.125	31.62
694.311	31.46
694.497	31.34
694.682	31.01
694.868	30.9
695.054	30.81
695.239	30.75
695.425	30.65
695.611	30.68
695.796	30.44
695.982	30.12
696.168	29.98
696.353	29.86
696.539	29.71
696.724	29.94
696.91	30.02
697.095	30.12
697.281	30.13
697.466	30.07
697.652	29.93
697.837	30.06
698.023	30.02
698.208	30.07
698.393	29.96
698.579	29.9
698.764	29.6
698.949	29.45
699.135	29.36
699.32	29.22
699.505	29.17
699.691	29.14
699.876	29.1
700.061	29.24
700.246	29.34
700.432	29.22
700.617	29.3
700.802	29.37
700.987	29.34
701.172	29.48
701.358	29.72
701.543	29.96
701.728	30.2
701.913	30.28
702.098	30.38
702.283	30.32
702.468	30.61
702.653	30.68
702.838	31.25
703.023	31.53
703.208	31.41
703.393	31.76
703.578	31.87
703.763	32.09
703.948	32.24
704.133	32.63
704.318	32.75
704.503	33.76
704.688	34.51
704.873	34.73
705.057	35.53
705.242	36.31
705.427	36.22
705.612	36.61
705.797	36.95
705.981	37.34
706.166	37.42
706.351	38.44
706.536	38.39
706.72	38.14
706.905	38.33
707.09	38.03
707.274	37.88
707.459	38.22
707.644	38.35
707.828	38.4
708.013	38.67
708.197	38.44
708.382	37.79
708.567	37.37
708.751	37.71
708.936	37.26
709.12	37.14
709.305	36.83
709.489	36.42
709.673	36.13
709.858	35.77
710.042	35.53
710.227	35.82
710.411	35.88
710.596	36.08
710.78	35.7
710.964	36.16
711.149	36.22
711.333	36.43
711.517	36.7
711.702	36.77
711.886	36.79
712.07	36.84
712.254	36.51
712.438	36.33
712.623	35.8
712.807	35.78
712.991	35.19
713.175	34.71
713.359	34.49
713.544	34.09
713.728	33.68
713.912	33.38
714.096	32.75
714.28	32.34
714.464	31.7
714.648	31.94
714.832	31.41
715.016	31.12
715.2	31.25
715.384	30.76
715.568	30.31
715.752	29.86
715.936	29.85
716.12	29.72
716.304	29.8
716.488	30.11
716.671	29.84
716.855	29.68
717.039	29.77
717.223	29.31
717.407	29.39
717.59	29.62
717.774	29.73
717.958	29.6
718.142	29.5
718.325	29.42
718.509	29.31
718.693	29.12
718.877	29.26
719.06	29.01
719.244	29.22
719.428	29.54
719.611	29.64
719.795	30.06
719.978	30.17
720.162	30.14
720.345	30.04
720.529	30.14
720.713	30.28
720.896	30.15
721.08	30.38
721.263	30.53
721.446	30.34
721.63	30.28
721.813	30.16
721.997	30.06
722.18	30.19
722.364	30.42
722.547	30.59
722.73	30.98
722.914	31.61
723.097	31.28
723.28	31.28
723.464	30.87
723.647	30.85
723.83	30.65
724.013	30.48
724.197	30.51
724.38	30.64
724.563	30.72
724.746	30.41
724.929	29.84
725.112	29.91
725.296	29.99
725.479	30.34
725.662	30.62
725.845	30.97
726.028	31.23
726.211	31.51
726.394	31.15
726.577	30.42
726.76	30.14
726.943	30.47
727.126	30.69
727.309	31.01
727.492	31.08
727.675	31.09
727.858	31.25
728.041	30.96
728.224	30.53
728.407	30.61
728.589	31.37
728.772	31.77
728.955	32.12
729.138	32.58
729.321	32.32
729.503	32.12
729.686	31.99
729.869	31.79
730.052	32.07
730.234	32.63
730.417	32.64
730.6	32.53
730.782	32.46
730.965	31.92
731.148	31.44
731.33	31.11
731.513	31.28
731.695	31.03
731.878	31.12
732.061	30.92
732.243	30.94
732.426	30.96
732.608	30.84
732.791	30.99
732.973	31.14
733.156	31.14
733.338	31.68
733.52	31.7
733.703	31.86
733.885	31.72
734.068	32.01
734.25	31.63
734.432	31.69
734.615	32.08
734.797	32.05
734.979	32.23
735.162	32.48
735.344	32.13
735.526	32.26
735.708	31.9
735.891	31.98
736.073	31.86
736.255	31.89
736.437	31.67
736.619	31.3
736.802	30.63
736.984	30.61
737.166	30.65
737.348	30.81
737.53	31.14
737.712	31.53
737.894	31.55
738.076	31.65
738.258	31.66
738.44	32.12
738.622	31.76
738.804	32.43
738.986	32.43
739.168	32.12
739.35	32.08
739.532	31.56
739.714	31.91
739.896	31.45
740.078	31.83
740.259	32.33
740.441	32.31
740.623	32.52
740.805	32.15
740.987	32.34
741.168	33.12
741.35	33.24
741.532	33.32
741.714	33.35
741.895	33.96
742.077	33.73
742.259	33.54
742.44	33.51
742.622	33.8
742.804	34.35
742.985	33.77
743.167	33.29
743.348	33.27
743.53	34.12
743.711	33.84
743.893	33.29
744.075	32.89
744.256	32.53
744.438	32.37
744.619	32.23
744.8	32
744.982	32.71
745.163	32.81
745.345	32.78
745.526	31.8
745.707	31.94
745.889	32.51
746.07	32.98
746.252	32.66
746.433	32.99
746.614	33.16
746.795	33
746.977	32.58
747.158	32.63
747.339	32.54
747.52	32.87
747.702	32.94
747.883	33.11
748.064	32.98
748.245	33.8
748.426	34.5
748.607	34.75
748.788	34.88
748.97	34.59
749.151	34.48
749.332	34.7
749.513	35.01
749.694	34.7
749.875	34.55
750.056	34.24
750.237	33.86
750.418	33.12
750.599	32.77
750.78	32.85
750.96	33.36
751.141	33.28
751.322	33.14
751.503	32.63
751.684	33.31
751.865	33.26
752.046	33.58
752.226	34.42
752.407	35.21
752.588	35.36
752.769	35.44
752.949	35.52
753.13	35.68
753.311	36.36
753.492	36.77
753.672	36.53
753.853	36.91
754.034	36.97
754.214	36.9
754.395	35.84
754.575	35.74
754.756	36.09
754.937	36.2
755.117	36.63
755.298	35.81
755.478	35.91
755.659	35.55
755.839	34.86
756.02	34.96
756.2	34.79
756.381	35.16
756.561	35.52
756.741	35.64
756.922	35.21
757.102	35.05
757.283	34.73
757.463	33.84
757.643	33.63
757.823	33.27
758.004	32.7
758.184	31.67
758.364	31.37
758.545	30.7
758.725	29.98
758.905	30.34
759.085	29.92
759.265	29.97
759.446	29.77
759.626	29.76
759.806	29.58
759.986	29.8
760.166	29.82
760.346	30.06
760.526	30.49
760.706	30.53
760.886	29.53
761.066	29.87
761.246	29.34
761.426	29.44
761.606	28.98
761.786	29.53
761.966	29.27
762.146	29.7
762.326	29.24
762.506	28.77
762.686	28.42
762.866	28.62
763.046	27.78
763.225	28.03
763.405	28.66
763.585	28.35
763.765	28.24
763.945	28.04
764.124	27.98
764.304	28.22
764.484	28.46
764.664	28.74
764.843	29.11
765.023	29.66
765.203	29.56
765.382	29.03
765.562	30.16
765.741	30.26
765.921	30.95
766.101	30.85
766.28	31.3
766.46	30.93
766.639	30.64
766.819	30.83
766.998	30.98
767.178	31.72
767.357	32.14
767.537	31.67
767.716	31.94
767.896	31.8
768.075	32.07
768.254	32.05
768.434	32.83
768.613	33.67
768.792	34.43
768.972	34.58
769.151	34.91
769.33	35.35
769.51	36.67
769.689	36.85
769.868	36.98
770.047	37.99
770.226	37.43
770.406	37.24
770.585	37.44
770.764	37.07
770.943	37.04
771.122	37.14
771.301	36.83
771.48	36.27
771.66	36.08
771.839	36.3
772.018	35.53
772.197	35.68
772.376	36.04
772.555	35.47
772.734	34.44
772.913	34.13
773.092	33.73
773.271	33.71
773.449	33.25
773.628	33.15
773.807	33.42
773.986	33.2
774.165	32.93
774.344	32.56
774.523	32.31
774.701	32.32
774.88	33.51
775.059	34.2
775.238	34.37
775.417	33.94
775.595	34.18
775.774	34.25
775.953	34.46
776.131	35.46
776.31	35.15
776.489	34.86
776.667	35.35
776.846	34.66
777.025	34.27
777.203	34.68
777.382	35.42
777.56	35.25
777.739	34.02
777.917	33.82
778.096	33.83
778.274	34.56
778.453	35.72
778.631	36.01
778.81	36.1
778.988	35.92
779.166	35.95
779.345	35.71
779.523	36.35
779.702	37.05
779.88	37.37
780.058	36.45
780.237	36.86
780.415	36.61
780.593	36.76
780.771	36.74
780.95	36.72
781.128	36.33
781.306	36.61
781.484	36.19
781.662	36.51
781.841	36.44
782.019	36.77
782.197	37.11
782.375	36.62
782.553	36.18
782.731	35.78
782.909	35.5
783.087	35.48
783.265	34.9
783.443	35.07
783.621	34.84
783.799	35.15
783.977	34.22
784.155	32.76
784.333	32.7
784.511	32.89
784.689	33.01
784.867	32.54
785.045	33.1
785.223	32.35
785.4	31.71
785.578	31.84
785.756	30.75
785.934	31.71
786.112	31.69
786.289	31.94
786.467	31.96
786.645	32.28
786.823	33.76
787	33.54
787.178	34.7
787.356	34.89
787.533	34.79
787.711	35.38
787.889	35.54
788.066	35.28
788.244	35.52
788.421	34.34
788.599	33.48
788.776	31.42
788.954	31.41
789.131	30.3
789.309	30.05
789.486	29.68
789.664	29.42
789.841	29.1
790.019	30.1
790.196	29.2
790.373	29.97
790.551	31.62
790.728	33.52
790.906	33.35
791.083	34.21
791.26	34.86
791.437	35.45
791.615	35.42
791.792	35.23
791.969	34.39
792.146	36.4
792.324	37.32
792.501	35.19
792.678	34.56
792.855	34.36
793.032	35.58
793.209	34.78
793.387	34.34
793.564	35.96
793.741	35.83
793.918	36.49
794.095	35.11
794.272	33.35
794.449	35.3
794.626	35.83
794.803	35.69
794.98	34.43
795.157	34.46
795.334	35.75
795.511	33.6
795.688	33.45
795.864	32.65
796.041	33.4
796.218	34.05
796.395	32.94
796.572	32.55
796.749	32.29
796.925	31.54
797.102	32.62
797.279	31.54
797.456	32.54
797.632	33.31
797.809	33.84
797.986	34.18
798.162	33.91
798.339	33.85
798.516	33.63
798.692	34.16
798.869	36.14
799.046	35.59
799.222	35.99
799.399	35.78
799.575	35.91
799.752	35.84
799.928	34.61
800.105	35.6
800.281	36.32
800.458	35.99
800.634	36.11
800.811	35.3
800.987	34.93
801.163	34.81
801.34	35.57
801.516	35.69
801.692	35.6
801.869	35.34
802.045	35.12
802.221	33.58
802.398	34.53
802.574	34.49
802.75	33.38
802.926	32.84
803.103	33.03
803.279	32.5
803.455	32.7
803.631	32.57
803.807	33.07
803.983	33.1
804.16	34.29
804.336	33.91
804.512	33.1
804.688	33.75
804.864	34.37
805.04	33.74
805.216	33.04
805.392	31.03
805.568	31.63
805.744	31.32
805.92	30.41
806.096	30.61
806.272	32.77
806.448	32.43
806.623	32.57
806.799	32.84
806.975	32.93
807.151	33.6
807.327	34.88
807.503	33.38
807.678	33.93
807.854	34.4
808.03	33.98
808.206	30.96
808.381	30.8
808.557	32.13
808.733	32.11
808.908	31.7
809.084	30.87
809.26	30.55
809.435	31.91
809.611	30.79
809.787	30.79
809.962	31.28
810.138	31.87
810.313	32.57
810.489	31.65
810.664	32.57
810.84	32.89
811.015	33.59
811.191	33.87
811.366	33.5
811.542	34.45
811.717	35.08
811.892	35.46
812.068	36.18
812.243	35.62
812.419	36.47
812.594	34.72
812.769	34.07
812.944	33.06
813.12	33.02
813.295	32.99
813.47	33.19
813.645	33.65
813.821	32.6
813.996	31.99
814.171	31.73
814.346	30.4
814.521	30.93
814.697	30.97
814.872	32.08
815.047	31.31
815.222	30.46
815.397	30.01
815.572	29.78
815.747	30.6
815.922	29.94
816.097	30.37
816.272	30.81
816.447	31.68
816.622	32.31
816.797	32.32
816.972	32.75
817.147	33.07
817.322	33.81
817.496	33.44
817.671	33.09
817.846	32.74
818.021	32.57
818.196	32.26
818.371	31.36
818.545	31.83
818.72	31.79
818.895	32.01
819.069	31.45
819.244	30.98
819.419	30.59
819.594	30.25
819.768	29.79
819.943	29.78
820.117	28.62
820.292	28.74
820.467	27.58
820.641	27
820.816	27
820.99	27.05
821.165	26.86
821.339	26.5
821.514	26.37
821.688	26.35
821.863	26.49
822.037	26.71
822.212	26.6
822.386	26.81
822.56	26.91
822.735	26.75
822.909	26.9
823.084	26.76
823.258	26.68
823.432	26.61
823.606	26.69
823.781	26.2
823.955	26.32
824.129	26.22
824.303	26.07
824.478	25.84
824.652	25.86
824.826	25.5
825	25.36
825.174	25.96
825.348	26.29
825.523	26.46
825.697	27.56
825.871	27.41
826.045	27.72
826.219	27.52
826.393	27.63
826.567	27.75
826.741	28.12
826.915	28.5
827.089	28.04
827.263	28.17
827.437	27.95
827.611	27.61
827.784	27.83
827.958	27.3
828.132	27.28
828.306	27.53
828.48	27.36
828.654	26.83
828.827	26.72
829.001	26.74
829.175	26.35
829.349	26.64
829.522	26.27
829.696	25.94
829.87	26.15
830.044	26.54
830.217	25.86
830.391	26.19
830.565	27.76
830.738	28.97
830.912	29.24
831.085	30.58
831.259	30.9
831.432	31.68
831.606	30.72
831.779	31.07
831.953	31.27
832.126	31.28
832.3	31.34
832.473	29.33
832.647	28.39
832.82	28.01
832.994	26.93
833.167	27
833.34	27.12
833.514	27.17
833.687	27.3
833.86	27.41
834.034	27.79
834.207	27.42
834.38	28.25
834.553	27.44
834.727	27.96
834.9	28.06
835.073	28.37
835.246	28.24
835.419	28.55
835.593	28.43
835.766	27.83
835.939	27.2
836.112	26.78
836.285	26.19
836.458	26.84
836.631	25.6
836.804	26.12
836.977	25.58
837.15	25.58
837.323	27.12
837.496	27.09
837.669	27.82
837.842	29.05
838.015	30.23
838.188	30.54
838.361	30.51
838.533	31.11
838.706	29.61
838.879	29.57
839.052	30.27
839.225	29.07
839.398	30.21
839.57	32.05
839.743	31.05
839.916	31.04
840.088	33.05
840.261	32.93
840.434	32.68
840.607	33.28
840.779	33.03
840.952	32.39
841.124	32.22
841.297	30.46
841.47	28.44
841.642	28.18
841.815	29.01
841.987	27.36
842.16	29.42
842.332	29.32
842.505	30.34
842.677	30.45
842.85	31.47
843.022	33.08
843.194	33.93
843.367	36.62
843.539	36.58
843.712	36.43
843.884	37.07
844.056	36.26
844.229	38.48
844.401	39.48
844.573	42.12
844.745	41.1
844.918	39.67
845.09	38.46
845.262	36.47
845.434	39
845.606	37.74
845.779	38.01
845.951	39.05
846.123	38.34
846.295	37.65
846.467	35.45
846.639	34.37
846.811	34.34
846.983	36.73
847.155	37.38
847.327	33.65
847.499	36.13
847.671	35.04
847.843	36.05
848.015	38.9
848.187	39.34
848.359	41.39
848.531	42.86
848.703	41.69
848.875	43.22
849.047	43.38
849.218	47.57
849.39	43.94
849.562	44.6
849.734	41.23
849.905	40.64
850.077	39.65
850.249	39.13
850.421	38.4
850.592	40.37
850.764	37.31
850.936	36.01
851.107	31.76
851.279	32.52
851.451	32.82
851.622	33.86
851.794	34
851.965	33.87
852.137	34.87
852.308	34.01
852.48	35.96
852.651	38.01
852.823	38.34
852.994	40.03
853.166	39.86
853.337	38.43
853.509	38.91
853.68	38.65
853.851	39.3
854.023	37.12
854.194	40.7
854.365	40.36
854.537	42.64
854.708	47.36
854.879	45.48
855.05	47.23
855.222	46.09
855.393	42.86
855.564	39.14
855.735	36.89
855.906	37.43
856.078	36.44
856.249	36.3
856.42	33.06
856.591	31.31
856.762	36.68
856.933	35.97
857.104	38.14
857.275	40.63
857.446	44.36
857.617	48.95
857.788	50.25
857.959	52.96
858.13	52.98
858.301	58.12
858.472	60.1
858.643	56.66
858.814	60.25
858.985	60.22
859.155	59.67
859.326	60.53
859.497	59.86
859.668	61.57
859.839	59.03
860.009	57.15
860.18	56.88
860.351	54.11
860.522	51.02
860.692	46.45
860.863	45.87
861.034	50.14
861.204	50.96
861.375	46.23
861.546	42.2
861.716	40.39
861.887	41.57
862.057	37.66
862.228	32.73
862.398	36.88
862.569	37.56
862.739	34.8
862.91	29.91
863.08	26.95
863.251	28.75
863.421	27.08
863.592	27.12
863.762	25.81
863.932	28.81
864.103	29.52
864.273	28.69
864.443	27.45
864.614	29.36
864.784	31.76
864.954	31.01
865.125	33.04
865.295	36.87
865.465	34.94
865.635	32.21
865.805	29.8
865.976	32.99
866.146	31.87
866.316	34.65
866.486	36.63
866.656	39.01
866.826	42.91
866.996	44.31
867.166	44.09
867.336	46.36
867.506	49.57
867.676	49.28
867.846	50.66
868.016	53.22
868.186	50.53
868.356	46.43
868.526	43.78
868.696	41.6
868.866	40.9
869.036	42.55
869.206	43.66
869.376	42.12
869.545	43.38
869.715	36.44
869.885	37.26
870.055	39.83
870.224	42.09
870.394	46.93
870.564	47.02
870.734	41.4
870.903	40.61
871.073	38.77
871.243	41.58
871.412	43.31
871.582	47.96
871.751	46.19
871.921	45.36
872.091	44.11
872.26	40.99
872.43	41.89
872.599	42.08
872.769	41.64
872.938	42.98
873.108	42.82
873.277	41.21
873.446	36.46
873.616	34.82
873.785	39.63
873.955	39.67
874.124	38.68
874.293	38.44
874.463	36.67
874.632	36.46
874.801	32.87
874.971	35.9
875.14	33.91
875.309	35.32
875.478	34.74
875.647	30.99
875.817	31.89
875.986	32.84
876.155	28.31
876.324	32.3
876.493	29.88
876.662	34.78
876.831	30.34
877	30.55
877.17	33.31
877.339	40.45
877.508	39.99
877.677	37.53
877.846	40.48
878.015	41.84
878.184	39.59
878.352	39.1
878.521	36.87
878.69	35.16
878.859	32.59
879.028	29.83
879.197	27.82
879.366	26.46
879.534	27.44
879.703	22.83
879.872	23.3
880.041	27.4
880.21	26.7
880.378	26.52
880.547	27.11
880.716	28.8
880.884	29.09
881.053	27.93
881.222	27.65
881.39	26.97
881.559	27.03
881.727	26.66
881.896	25.49
882.065	25.89
882.233	25.59
882.402	25.05
882.57	24.15
882.739	23.86
882.907	23.69
883.076	23.76
883.244	23.69
883.412	23.7
883.581	23.34
883.749	23.54
883.918	23.19
884.086	23.33
884.254	23.89
884.423	24.24
884.591	24.38
884.759	23.68
884.927	24.3
885.096	25.1
885.264	25.91
885.432	26.79
885.6	28
885.769	27.82
885.937	28.23
886.105	27.76
886.273	29.95
886.441	30.6
886.609	32.92
886.777	31.89
886.945	31.62
887.113	31.56
887.281	30.06
887.449	27.24
887.617	30.65
887.785	29.42
887.953	30.14
888.121	26.76
888.289	28.29
888.457	29.13
888.625	30.19
888.793	30.21
888.961	27.38
889.129	30.55
889.296	32.52
889.464	29.59
889.632	31.02
889.8	30.6
889.967	34.31
890.135	30.77
