Data from 2938771__Reflection_08.txt Node
Date: Fri Mar 13 15:27:56 EDT 2015
User: robert
Spectrometer: USB4E03002
Autoset integration time: false
Trigger mode: 4
Integration Time (sec): 1.000000E-1
Scans to average: 10
Electric dark correction enabled: false
Nonlinearity correction enabled: false
Boxcar width: 5
Stray light correction enabled: false
XAxis mode: Wavelengths
Stop averaging: false
Number of Pixels in Spectrum: 3648
>>>>>Begin Spectral Data<<<<<
177.575	-280.56
177.794	-698.63
178.014	-2037.04
178.233	1083.58
178.452	2162.16
178.672	427.27
178.891	488.41
179.11	2956.52
179.33	-938.81
179.549	-467.46
179.768	-1636.67
179.987	873.13
180.207	1985.19
180.426	860
180.645	-1445.71
180.864	-808.06
181.084	-235.43
181.303	-246.73
181.522	-1397.87
181.741	4580
181.96	249.52
182.179	255.7
182.398	191.3
182.618	197.18
182.837	307.38
183.056	241.38
183.275	218.11
183.494	157.45
183.713	191.62
183.932	168.11
184.151	127.62
184.37	149.43
184.589	76.4
184.808	165.56
185.027	135.44
185.246	132.51
185.465	107.31
185.684	98.27
185.903	108.48
186.122	106.01
186.341	125.54
186.56	152.09
186.779	250
186.998	231.52
187.216	309.2
187.435	756.78
187.654	293.68
187.873	232.45
188.092	219.18
188.311	504.05
188.53	428.85
188.748	1185.94
188.967	-2479.17
189.186	478.26
189.405	609.35
189.623	280.43
189.842	240.34
190.061	289.18
190.28	390.55
190.498	271.19
190.717	202.22
190.936	197.97
191.154	181.27
191.373	198.46
191.592	197.57
191.81	128.8
192.029	135.23
192.248	145.93
192.466	135.55
192.685	133.89
192.904	161.27
193.122	146.7
193.341	245.88
193.559	352.5
193.778	221.51
193.996	247.76
194.215	2556
194.433	652.34
194.652	406.08
194.87	593.62
195.089	11640
195.307	2407.69
195.526	-561.68
195.744	1440.43
195.963	393.99
196.181	382.23
196.399	258.4
196.618	272.75
196.836	311.04
197.055	520.13
197.273	974.73
197.491	2314.71
197.71	1292.59
197.928	382.12
198.146	524.58
198.365	1017.33
198.583	915.15
198.801	-192.14
199.019	-118.62
199.238	-80.05
199.456	-57.8
199.674	-104.3
199.892	-131.71
200.111	-117.58
200.329	-71.69
200.547	-65.87
200.765	-140.76
200.983	-115.64
201.202	-324.3
201.42	-950
201.638	1582.61
201.856	508.25
202.074	778.05
202.292	235.26
202.51	304.65
202.728	251.06
202.946	413.42
203.165	761.9
203.383	45800
203.601	355.63
203.819	346.53
204.037	253.48
204.255	232.72
204.473	156.97
204.691	296.69
204.909	135.43
205.127	156.9
205.345	58.28
205.562	51.51
205.78	73.2
205.998	48.8
206.216	65.33
206.434	76.91
206.652	81.08
206.87	115.37
207.088	77.12
207.306	95.22
207.523	108.93
207.741	122.67
207.959	136.92
208.177	107.58
208.395	134.95
208.612	195.6
208.83	149.19
209.048	177.37
209.266	1083.33
209.483	-917.65
209.701	-1848
209.919	893.75
210.136	12540
210.354	-1258.33
210.572	-246.45
210.79	590.65
211.007	238.11
211.225	979.66
211.442	247.73
211.66	122.27
211.878	142.99
212.095	124.47
212.313	91.3
212.53	82.23
212.748	78.3
212.966	75.38
213.183	80
213.401	61.17
213.618	41.57
213.836	20.49
214.053	46.08
214.271	25.47
214.488	34.71
214.705	39.97
214.923	33.79
215.14	35.91
215.358	34.08
215.575	42.59
215.793	50.91
216.01	69.29
216.227	76.79
216.445	62.36
216.662	73.26
216.879	72.46
217.097	75
217.314	85.06
217.531	96.21
217.749	90.76
217.966	103.51
218.183	119.04
218.4	101.03
218.618	98.68
218.835	79.86
219.052	62.76
219.269	68.67
219.487	62.91
219.704	55.59
219.921	51.71
220.138	53.46
220.355	44.81
220.572	43.58
220.79	39.61
221.007	32.99
221.224	38.6
221.441	28.37
221.658	28.57
221.875	30.9
222.092	34.1
222.309	30.01
222.526	22.32
222.743	19.12
222.96	18.97
223.177	20.79
223.394	20.56
223.611	26.96
223.828	32.52
224.045	33.56
224.262	42.3
224.479	40.49
224.696	38.23
224.913	34.91
225.13	35.34
225.347	32.2
225.564	30.68
225.781	31.71
225.997	25.78
226.214	24.09
226.431	22.6
226.648	14.43
226.865	14.35
227.082	11.02
227.298	10.75
227.515	8.92
227.732	7.77
227.949	6.16
228.165	5.52
228.382	5.31
228.599	4.79
228.816	3.49
229.032	3.53
229.249	2.8
229.466	3.8
229.682	3.67
229.899	3.5
230.116	2.61
230.332	3.35
230.549	3.8
230.765	3.52
230.982	3.36
231.199	4.11
231.415	3.98
231.632	4.56
231.848	5.75
232.065	5.28
232.281	4.86
232.498	6.46
232.714	6.55
232.931	7.03
233.147	8.2
233.364	8.84
233.58	5.93
233.797	5.35
234.013	3.6
234.23	0.81
234.446	1.74
234.662	1.63
234.879	2.05
235.095	2.77
235.312	3.06
235.528	0.48
235.744	-0.51
235.961	3.75
236.177	3.32
236.393	4.54
236.61	5.38
236.826	5.32
237.042	5.69
237.258	4.78
237.475	2.94
237.691	2.37
237.907	4.13
238.123	6.02
238.339	5.67
238.556	6.42
238.772	6.24
238.988	6.52
239.204	5.84
239.42	6.29
239.636	6.96
239.853	7.9
240.069	7.32
240.285	6.94
240.501	5.83
240.717	5.71
240.933	5.13
241.149	4.31
241.365	3.68
241.581	3.33
241.797	3.13
242.013	2.81
242.229	2.88
242.445	2.7
242.661	2.61
242.877	2.75
243.093	2.76
243.309	3.26
243.525	3.48
243.741	3.48
243.957	4.16
244.173	4.26
244.388	4.59
244.604	3.58
244.82	3.9
245.036	3.53
245.252	2.85
245.468	1.99
245.683	1.53
245.899	1.17
246.115	1.56
246.331	1.29
246.547	1.4
246.762	1.4
246.978	1.88
247.194	1.73
247.409	1.82
247.625	1.77
247.841	1.58
248.057	1.7
248.272	1.79
248.488	1.95
248.703	2.25
248.919	2.04
249.135	1.67
249.35	1.56
249.566	2.07
249.782	1.79
249.997	2.28
250.213	3.03
250.428	3.09
250.644	3.18
250.859	2.5
251.075	2.19
251.29	1.97
251.506	3.01
251.721	2.48
251.937	1.55
252.152	2.13
252.368	2.38
252.583	2.3
252.798	2.48
253.014	2.84
253.229	3.14
253.445	2.99
253.66	3.24
253.875	2.86
254.091	2.64
254.306	2.5
254.521	2.48
254.737	1.64
254.952	1.37
255.167	0.68
255.383	0.16
255.598	-0.88
255.813	-0.26
256.028	0.02
256.244	-0.77
256.459	0.43
256.674	0.69
256.889	0.67
257.104	0.39
257.32	1.13
257.535	1.1
257.75	1.31
257.965	1.51
258.18	1.15
258.395	0.97
258.61	1.41
258.826	1.26
259.041	1.36
259.256	1.5
259.471	1.51
259.686	1.11
259.901	1.17
260.116	1.18
260.331	1.4
260.546	1.15
260.761	1.21
260.976	1.2
261.191	1.13
261.406	0.99
261.621	0.59
261.836	0.43
262.05	0.11
262.265	0.24
262.48	-0.22
262.695	-0.33
262.91	-0.31
263.125	-0.61
263.34	-1.12
263.555	-0.99
263.769	-0.86
263.984	-0.64
264.199	-0.67
264.414	0.2
264.629	0.46
264.843	0.8
265.058	0.87
265.273	1.63
265.488	2.09
265.702	3.01
265.917	2.84
266.132	2.84
266.346	3.04
266.561	3.43
266.776	3.17
266.99	2.64
267.205	2.52
267.42	2.4
267.634	2.27
267.849	2.33
268.063	2.01
268.278	2.09
268.492	2.18
268.707	2.08
268.922	1.84
269.136	2.21
269.351	2.13
269.565	2.18
269.78	2.17
269.994	2.03
270.209	1.72
270.423	1.79
270.637	1.89
270.852	1.48
271.066	1.55
271.281	1.89
271.495	1.44
271.709	1.44
271.924	1.31
272.138	1.4
272.353	1.42
272.567	1.76
272.781	1.68
272.996	1.52
273.21	1.83
273.424	1.79
273.638	1.33
273.853	1.78
274.067	1.69
274.281	1.89
274.495	1.6
274.71	1.85
274.924	1.97
275.138	1.65
275.352	1.82
275.566	1.64
275.781	1.39
275.995	1.79
276.209	1.94
276.423	1.54
276.637	1.22
276.851	1.46
277.065	1.55
277.279	1.04
277.493	1.29
277.707	1.08
277.921	0.91
278.135	0.88
278.349	0.46
278.563	0.38
278.777	1.07
278.991	1.5
279.205	1.91
279.419	1.46
279.633	1.61
279.847	1.54
280.061	1.29
280.275	1.27
280.489	1.66
280.703	1.9
280.917	1.57
281.131	1.02
281.344	0.68
281.558	-0
281.772	0.41
281.986	0.2
282.2	0.16
282.414	0.22
282.627	0.44
282.841	0.05
283.055	-0
283.269	-0.22
283.482	0.13
283.696	0.39
283.91	0.61
284.123	0.38
284.337	0.6
284.551	0.67
284.764	1.12
284.978	0.91
285.192	1.29
285.405	1.46
285.619	1.69
285.833	1.85
286.046	1.58
286.26	1.39
286.473	1.5
286.687	1.4
286.9	1.43
287.114	0.99
287.327	1.1
287.541	0.86
287.754	0.82
287.968	0.64
288.181	0.59
288.395	0.87
288.608	1.15
288.822	1.01
289.035	0.99
289.248	0.7
289.462	0.84
289.675	0.95
289.889	1.02
290.102	0.84
290.315	0.92
290.529	1.06
290.742	1.21
290.955	0.95
291.169	1.36
291.382	1.47
291.595	1.76
291.808	1.9
292.022	2.04
292.235	1.7
292.448	1.76
292.661	1.68
292.875	1.22
293.088	0.95
293.301	1.17
293.514	0.72
293.727	0.99
293.94	0.95
294.153	0.88
294.367	0.6
294.58	0.84
294.793	0.57
295.006	0.7
295.219	0.85
295.432	0.61
295.645	0.8
295.858	0.56
296.071	0.32
296.284	0.14
296.497	0.14
296.71	0.21
296.923	0.42
297.136	0.63
297.349	0.64
297.562	0.88
297.775	1.2
297.988	1.39
298.201	1.68
298.414	1.69
298.626	2.09
298.839	2.01
299.052	2.08
299.265	1.77
299.478	1.94
299.691	1.93
299.903	1.77
300.116	1.54
300.329	1.2
300.542	1.44
300.755	1.31
300.967	0.9
301.18	0.8
301.393	0.94
301.605	0.93
301.818	1.07
302.031	1.24
302.243	1.02
302.456	1.36
302.669	1.24
302.881	0.87
303.094	0.78
303.307	0.77
303.519	0.62
303.732	0.5
303.944	0.49
304.157	0.18
304.37	0.16
304.582	0.12
304.795	-0.11
305.007	0.18
305.22	0.28
305.432	0.14
305.645	-0.03
305.857	0.57
306.069	0.7
306.282	0.9
306.494	0.57
306.707	0.15
306.919	0.19
307.132	0.31
307.344	0.17
307.556	0.28
307.769	0.72
307.981	1.06
308.193	0.53
308.406	0.56
308.618	0.5
308.83	0.66
309.043	0.5
309.255	0.78
309.467	0.72
309.679	0.35
309.892	0.04
310.104	0.13
310.316	-0.13
310.528	0
310.74	0.04
310.953	0.08
311.165	0.14
311.377	0.46
311.589	0.25
311.801	0.18
312.013	0.51
312.225	0.77
312.437	0.53
312.649	0.68
312.862	0.83
313.074	0.58
313.286	0.88
313.498	0.59
313.71	0.74
313.922	1.06
314.134	1.22
314.346	1.23
314.558	1.16
314.77	1.33
314.982	1.44
315.193	1.76
315.405	2.28
315.617	2.12
315.829	2.75
316.041	2.7
316.253	2.1
316.465	2.23
316.677	2.15
316.888	2.49
317.1	2.52
317.312	2.72
317.524	2.48
317.736	2.23
317.947	2
318.159	2.08
318.371	1.86
318.583	2.34
318.794	2.37
319.006	2.18
319.218	1.83
319.43	1.47
319.641	1.55
319.853	1.6
320.064	1.58
320.276	2.06
320.488	1.61
320.699	1.98
320.911	2.2
321.123	2.09
321.334	2.09
321.546	2.16
321.757	2.43
321.969	1.91
322.18	2.19
322.392	2.06
322.603	1.83
322.815	1.85
323.026	2.01
323.238	1.66
323.449	1.95
323.661	1.91
323.872	1.76
324.083	1.86
324.295	2.5
324.506	2.52
324.718	2.71
324.929	2.67
325.14	2.64
325.352	2.48
325.563	2.86
325.774	2.28
325.986	2.49
326.197	3.11
326.408	3.41
326.62	2.93
326.831	2.94
327.042	3.15
327.253	3.23
327.464	3.8
327.676	4.04
327.887	4.11
328.098	4.86
328.309	4.76
328.52	4.91
328.732	5.15
328.943	6.01
329.154	5.9
329.365	5.74
329.576	5.54
329.787	5.6
329.998	5.59
330.209	5.94
330.42	6.04
330.631	6.74
330.842	6.73
331.053	6.77
331.264	6.24
331.475	6.31
331.686	6.61
331.897	7.39
332.108	7.5
332.319	7.85
332.53	7.43
332.741	7.6
332.952	7.23
333.163	7.02
333.374	6.57
333.585	6.85
333.795	6.94
334.006	6.85
334.217	6.91
334.428	6.57
334.639	6.58
334.849	6.48
335.06	6.23
335.271	6.43
335.482	6.34
335.692	6.72
335.903	6.78
336.114	7.15
336.325	7.15
336.535	6.92
336.746	7.31
336.957	7.14
337.167	7.61
337.378	7.7
337.589	7.97
337.799	8.15
338.01	8.22
338.22	8.38
338.431	7.99
338.642	7.86
338.852	7.75
339.063	7.71
339.273	7.71
339.484	7.6
339.694	7.53
339.905	7.33
340.115	7.44
340.326	7.15
340.536	7.09
340.746	7.3
340.957	7.7
341.167	7.79
341.378	7.37
341.588	7.18
341.799	7.06
342.009	7.04
342.219	7.14
342.43	7.03
342.64	7.5
342.85	7.4
343.061	7.31
343.271	7.18
343.481	7.29
343.691	7.49
343.902	7.85
344.112	7.97
344.322	7.84
344.532	8.02
344.743	8.59
344.953	8.48
345.163	8.48
345.373	8.57
345.583	8.42
345.793	8.25
346.004	8.4
346.214	8.2
346.424	8.51
346.634	8.89
346.844	8.61
347.054	8.05
347.264	8.01
347.474	8
347.684	8.01
347.894	8.18
348.104	8.39
348.314	8.34
348.524	8.26
348.734	7.82
348.944	7.68
349.154	8
349.364	7.91
349.574	7.96
349.784	8.2
349.994	8.23
350.204	8.26
350.413	8.23
350.623	8.45
350.833	8.46
351.043	8.54
351.253	8.74
351.463	8.74
351.672	8.76
351.882	9.19
352.092	9.12
352.302	9.17
352.511	9.45
352.721	9.25
352.931	9.36
353.141	9.31
353.35	9.27
353.56	9.25
353.77	8.95
353.979	9.14
354.189	8.68
354.399	8.41
354.608	8.3
354.818	8.09
355.027	8.17
355.237	7.89
355.447	8.06
355.656	8.01
355.866	7.75
356.075	7.84
356.285	7.82
356.494	7.86
356.704	7.93
356.913	8.11
357.123	8.11
357.332	8.26
357.542	8.31
357.751	8.27
357.96	8.47
358.17	8.53
358.379	8.48
358.589	8.58
358.798	8.67
359.007	8.6
359.217	8.68
359.426	8.92
359.635	8.86
359.845	8.88
360.054	8.89
360.263	8.93
360.472	9.03
360.682	9.12
360.891	9.02
361.1	9.09
361.309	9.04
361.519	8.95
361.728	8.9
361.937	8.97
362.146	8.97
362.355	9.02
362.564	8.97
362.774	9.1
362.983	9.12
363.192	9.09
363.401	9.22
363.61	9.52
363.819	9.56
364.028	9.33
364.237	9.44
364.446	9.31
364.655	9.52
364.864	9.72
365.073	9.79
365.282	10.01
365.491	10.13
365.7	10.13
365.909	10.12
366.118	10.47
366.327	10.69
366.536	10.91
366.745	11.22
366.954	11.07
367.162	11.09
367.371	11.02
367.58	11.12
367.789	11.04
367.998	10.93
368.207	11.03
368.415	10.77
368.624	10.64
368.833	10.55
369.042	10.79
369.25	11.08
369.459	11.37
369.668	11.29
369.877	10.88
370.085	11.16
370.294	11.18
370.503	11.53
370.711	11.68
370.92	11.94
371.129	11.7
371.337	11.59
371.546	11.41
371.754	11.37
371.963	11.31
372.171	11.62
372.38	11.56
372.589	11.62
372.797	11.25
373.006	10.99
373.214	10.58
373.423	10.56
373.631	10.7
373.84	10.65
374.048	10.41
374.256	10.49
374.465	10.45
374.673	10.41
374.882	10.54
375.09	10.57
375.298	10.94
375.507	11.27
375.715	11.27
375.923	10.99
376.132	11.25
376.34	10.96
376.548	11.32
376.757	11.22
376.965	11.29
377.173	10.87
377.381	10.91
377.59	10.8
377.798	10.91
378.006	10.93
378.214	11.02
378.423	10.8
378.631	11.05
378.839	10.71
379.047	10.58
379.255	10.47
379.463	10.68
379.671	10.61
379.879	10.62
380.088	10.38
380.296	10.62
380.504	10.44
380.712	10.53
380.92	10.37
381.128	10.38
381.336	10.35
381.544	10.36
381.752	10.16
381.96	10.11
382.168	10.06
382.376	10.15
382.584	10.12
382.791	9.93
382.999	9.8
383.207	9.99
383.415	9.97
383.623	10.14
383.831	10.27
384.039	10.5
384.247	10.52
384.454	10.62
384.662	10.64
384.87	10.5
385.078	10.79
385.285	10.86
385.493	10.85
385.701	10.87
385.909	10.77
386.116	10.84
386.324	10.84
386.532	10.88
386.739	10.72
386.947	10.68
387.155	10.76
387.362	10.79
387.57	10.92
387.778	11.18
387.985	11.56
388.193	11.87
388.4	11.87
388.608	12.13
388.816	12.15
389.023	12.36
389.231	12.59
389.438	12.66
389.646	12.8
389.853	12.81
390.061	12.73
390.268	12.58
390.475	12.35
390.683	12.2
390.89	11.97
391.098	12.01
391.305	11.95
391.512	11.72
391.72	11.57
391.927	11.47
392.135	11.39
392.342	11.2
392.549	11.1
392.756	11.11
392.964	11.11
393.171	11.03
393.378	10.95
393.586	11.04
393.793	11.19
394	11.34
394.207	11.45
394.414	11.43
394.622	11.54
394.829	11.63
395.036	11.8
395.243	11.74
395.45	11.91
395.657	12.15
395.864	12.13
396.072	12.24
396.279	12.34
396.486	12.25
396.693	12.66
396.9	12.9
397.107	13.04
397.314	13.24
397.521	13.69
397.728	14.11
397.935	14.31
398.142	14.6
398.349	14.9
398.556	15.19
398.763	15.5
398.97	15.57
399.177	15.71
399.383	15.84
399.59	15.99
399.797	16.21
400.004	16.23
400.211	16.4
400.418	16.6
400.625	16.81
400.831	16.97
401.038	17.29
401.245	17.52
401.452	17.88
401.658	17.97
401.865	18.07
402.072	18
402.279	18.02
402.485	18.03
402.692	17.84
402.899	17.65
403.105	17.62
403.312	17.4
403.519	17.35
403.725	17.03
403.932	16.96
404.138	16.99
404.345	16.93
404.552	16.8
404.758	16.71
404.965	16.73
405.171	16.65
405.378	16.35
405.584	16.36
405.791	16.16
405.997	16.17
406.204	16.21
406.41	16.24
406.617	16.23
406.823	16.53
407.029	16.69
407.236	16.75
407.442	16.98
407.649	17.31
407.855	17.33
408.061	17.44
408.268	17.4
408.474	17.26
408.68	17.04
408.887	17.18
409.093	16.87
409.299	16.66
409.505	16.52
409.712	16.32
409.918	16.23
410.124	16.38
410.33	16.57
410.537	16.74
410.743	16.94
410.949	17.16
411.155	17.23
411.361	17.4
411.567	17.68
411.773	17.9
411.98	17.98
412.186	17.96
412.392	17.89
412.598	17.65
412.804	17.74
413.01	17.68
413.216	17.75
413.422	17.56
413.628	17.5
413.834	17.32
414.04	17.22
414.246	17.22
414.452	17.24
414.658	17.23
414.864	17.24
415.07	17.14
415.275	17.06
415.481	16.73
415.687	16.66
415.893	16.5
416.099	16.36
416.305	16.14
416.511	15.94
416.716	15.8
416.922	15.52
417.128	15.28
417.334	14.95
417.539	14.73
417.745	14.55
417.951	14.38
418.157	14.18
418.362	14
418.568	13.92
418.774	13.77
418.979	13.67
419.185	13.64
419.391	13.47
419.596	13.42
419.802	13.38
420.008	13.23
420.213	13.19
420.419	13.21
420.624	13.01
420.83	12.97
421.035	12.91
421.241	12.84
421.446	12.73
421.652	12.73
421.857	12.76
422.063	12.73
422.268	12.84
422.474	12.8
422.679	12.74
422.885	12.81
423.09	12.73
423.295	12.74
423.501	12.69
423.706	12.71
423.911	12.72
424.117	12.7
424.322	12.72
424.527	12.65
424.733	12.72
424.938	12.76
425.143	12.84
425.349	12.87
425.554	12.91
425.759	13.02
425.964	13.19
426.169	13.38
426.375	13.32
426.58	13.41
426.785	13.51
426.99	13.53
427.195	13.73
427.4	13.87
427.605	14.08
427.811	14.2
428.016	14.2
428.221	14.04
428.426	13.91
428.631	14.06
428.836	14.05
429.041	14.04
429.246	13.96
429.451	13.88
429.656	13.77
429.861	13.7
430.066	13.67
430.271	13.65
430.476	13.78
430.681	14.05
430.886	13.99
431.09	14.12
431.295	14.44
431.5	14.5
431.705	14.43
431.91	14.44
432.115	14.57
432.32	14.61
432.524	14.64
432.729	14.74
432.934	14.57
433.139	14.73
433.343	14.82
433.548	14.77
433.753	15.05
433.958	15.41
434.162	15.8
434.367	16.12
434.572	16.36
434.776	16.74
434.981	16.99
435.186	17.4
435.39	17.63
435.595	17.72
435.799	17.84
436.004	17.88
436.209	17.77
436.413	17.63
436.618	17.35
436.822	17.14
437.027	16.86
437.231	16.5
437.436	16.17
437.64	15.88
437.845	15.62
438.049	15.42
438.253	15.06
438.458	14.81
438.662	14.53
438.867	14.42
439.071	14.21
439.275	14.12
439.48	14.04
439.684	13.99
439.888	13.94
440.093	13.89
440.297	13.83
440.501	13.84
440.706	13.88
440.91	13.96
441.114	13.97
441.318	14.2
441.523	14.3
441.727	14.45
441.931	14.49
442.135	14.7
442.339	14.88
442.543	15.02
442.748	15.19
442.952	15.25
443.156	15.24
443.36	15.32
443.564	15.23
443.768	15.22
443.972	15.17
444.176	15.06
444.38	14.89
444.584	14.8
444.788	14.69
444.992	14.51
445.196	14.35
445.4	14.41
445.604	14.27
445.808	14.21
446.012	14.06
446.216	14.03
446.42	14
446.624	13.95
446.828	13.95
447.032	13.96
447.235	14
447.439	14.09
447.643	14.06
447.847	14.18
448.051	14.22
448.254	14.45
448.458	14.54
448.662	14.8
448.866	14.99
449.069	15.21
449.273	15.32
449.477	15.55
449.681	15.78
449.884	15.95
450.088	16.14
450.292	16.42
450.495	16.49
450.699	16.44
450.902	16.51
451.106	16.57
451.31	16.56
451.513	16.61
451.717	16.51
451.92	16.35
452.124	16.21
452.327	16.11
452.531	16.01
452.734	15.94
452.938	16.06
453.141	16.02
453.345	15.98
453.548	15.9
453.752	16.04
453.955	16.19
454.158	16.36
454.362	16.57
454.565	16.74
454.769	16.75
454.972	16.77
455.175	16.87
455.379	17.01
455.582	17.16
455.785	17.18
455.988	16.95
456.192	16.97
456.395	16.93
456.598	16.84
456.801	16.72
457.005	16.75
457.208	16.66
457.411	16.47
457.614	16.13
457.817	15.79
458.021	15.63
458.224	15.53
458.427	15.3
458.63	15.09
458.833	14.91
459.036	14.6
459.239	14.38
459.442	14.25
459.645	14.16
459.848	14.09
460.051	14.1
460.254	14.05
460.457	14.13
460.66	14.09
460.863	14.22
461.066	14.36
461.269	14.65
461.472	14.92
461.675	15.2
461.878	15.43
462.081	15.73
462.284	15.96
462.486	16.34
462.689	16.51
462.892	16.78
463.095	16.9
463.298	17.09
463.5	17.25
463.703	17.34
463.906	17.41
464.109	17.48
464.311	17.45
464.514	17.68
464.717	17.55
464.92	17.58
465.122	17.54
465.325	17.56
465.528	17.48
465.73	17.34
465.933	17.25
466.135	17.3
466.338	17.3
466.541	17.4
466.743	17.22
466.946	17.27
467.148	17.27
467.351	17.32
467.553	17.32
467.756	17.33
467.958	17.37
468.161	17.47
468.363	17.5
468.566	17.43
468.768	17.43
468.971	17.49
469.173	17.58
469.375	17.62
469.578	17.71
469.78	17.79
469.983	17.83
470.185	18.03
470.387	18.08
470.59	18.06
470.792	18.18
470.994	18.21
471.196	18.26
471.399	18.3
471.601	18.36
471.803	18.41
472.005	18.49
472.208	18.58
472.41	18.56
472.612	18.55
472.814	18.66
473.016	18.75
473.218	18.88
473.421	18.91
473.623	18.99
473.825	19.06
474.027	19.15
474.229	19.16
474.431	19.22
474.633	19.29
474.835	19.27
475.037	19.33
475.239	19.42
475.441	19.43
475.643	19.38
475.845	19.34
476.047	19.28
476.249	19.27
476.451	19.21
476.653	19.13
476.855	19.04
477.057	19.1
477.258	19.08
477.46	19.02
477.662	19
477.864	19.06
478.066	19.02
478.268	19.09
478.469	19.03
478.671	19.07
478.873	19.09
479.075	19.06
479.276	19
479.478	18.96
479.68	18.93
479.882	18.86
480.083	18.79
480.285	18.75
480.487	18.63
480.688	18.45
480.89	18.27
481.091	17.96
481.293	17.67
481.495	17.31
481.696	16.79
481.898	16.28
482.099	15.66
482.301	15.1
482.502	14.57
482.704	14.13
482.905	13.74
483.107	13.38
483.308	13.12
483.51	12.86
483.711	12.66
483.913	12.52
484.114	12.41
484.315	12.4
484.517	12.43
484.718	12.47
484.92	12.55
485.121	12.63
485.322	12.76
485.524	12.91
485.725	13.01
485.926	13.11
486.127	13.25
486.329	13.33
486.53	13.36
486.731	13.38
486.932	13.39
487.134	13.37
487.335	13.41
487.536	13.43
487.737	13.42
487.938	13.54
488.139	13.73
488.341	13.86
488.542	14.03
488.743	14.25
488.944	14.5
489.145	14.75
489.346	14.96
489.547	15.18
489.748	15.3
489.949	15.42
490.15	15.43
490.351	15.33
490.552	15.23
490.753	15.15
490.954	15.02
491.155	14.88
491.356	14.75
491.557	14.71
491.758	14.68
491.959	14.69
492.159	14.83
492.36	14.97
492.561	15.24
492.762	15.53
492.963	15.83
493.164	16.22
493.364	16.59
493.565	17.03
493.766	17.4
493.967	17.8
494.167	18.28
494.368	18.64
494.569	18.99
494.769	19.12
494.97	19.28
495.171	19.36
495.371	19.32
495.572	19.44
495.773	19.45
495.973	19.43
496.174	19.39
496.375	19.34
496.575	19.27
496.776	19.24
496.976	19.21
497.177	19.17
497.377	19.13
497.578	19.15
497.778	19.13
497.979	19.12
498.179	19.25
498.38	19.31
498.58	19.33
498.78	19.36
498.981	19.44
499.181	19.55
499.382	19.63
499.582	19.68
499.782	19.79
499.983	19.85
500.183	19.96
500.383	19.93
500.584	20
500.784	20.07
500.984	20.16
501.184	20.3
501.385	20.28
501.585	20.31
501.785	20.44
501.985	20.55
502.185	20.62
502.386	20.66
502.586	20.71
502.786	20.65
502.986	20.6
503.186	20.51
503.386	20.34
503.586	20.37
503.786	20.32
503.987	20.34
504.187	20.24
504.387	20.22
504.587	20.18
504.787	20.2
504.987	20.28
505.187	20.48
505.387	20.52
505.587	20.6
505.786	20.67
505.986	20.64
506.186	20.54
506.386	20.59
506.586	20.57
506.786	20.49
506.986	20.43
507.186	20.32
507.386	20.1
507.585	20.04
507.785	19.83
507.985	19.75
508.185	19.73
508.384	19.69
508.584	19.53
508.784	19.49
508.984	19.49
509.183	19.36
509.383	19.37
509.583	19.39
509.782	19.35
509.982	19.5
510.182	19.47
510.381	19.57
510.581	19.59
510.781	19.65
510.98	19.59
511.18	19.65
511.379	19.78
511.579	19.72
511.778	19.72
511.978	19.75
512.177	19.71
512.377	19.82
512.576	19.82
512.776	19.9
512.975	19.93
513.175	20.09
513.374	20.07
513.573	20.12
513.773	20.3
513.972	20.46
514.172	20.62
514.371	20.81
514.57	20.79
514.77	20.79
514.969	20.77
515.168	20.76
515.367	20.59
515.567	20.62
515.766	20.46
515.965	20.22
516.164	19.92
516.364	19.66
516.563	19.28
516.762	19.02
516.961	18.73
517.16	18.48
517.359	18.27
517.559	18.11
517.758	17.93
517.957	17.84
518.156	17.81
518.355	17.8
518.554	17.77
518.753	17.83
518.952	17.97
519.151	18.11
519.35	18.29
519.549	18.49
519.748	18.71
519.947	18.91
520.146	19.21
520.345	19.42
520.544	19.64
520.743	19.87
520.942	20.15
521.141	20.32
521.339	20.51
521.538	20.65
521.737	20.86
521.936	20.96
522.135	21.08
522.333	21.17
522.532	21.22
522.731	21.31
522.93	21.28
523.129	21.3
523.327	21.25
523.526	21.05
523.725	20.86
523.923	20.59
524.122	20.41
524.321	20.17
524.519	19.78
524.718	19.54
524.917	19.28
525.115	19.09
525.314	18.78
525.512	18.52
525.711	18.41
525.909	18.19
526.108	18
526.306	17.75
526.505	17.49
526.703	17.28
526.902	17.01
527.1	16.7
527.299	16.47
527.497	16.24
527.696	16
527.894	15.78
528.092	15.61
528.291	15.47
528.489	15.39
528.688	15.33
528.886	15.34
529.084	15.41
529.283	15.53
529.481	15.63
529.679	15.83
529.877	16.07
530.076	16.3
530.274	16.62
530.472	16.95
530.67	17.29
530.869	17.64
531.067	17.9
531.265	18.07
531.463	18.11
531.661	18.17
531.859	18.1
532.057	18.06
532.255	18.04
532.454	17.98
532.652	17.89
532.85	17.79
533.048	17.72
533.246	17.65
533.444	17.63
533.642	17.74
533.84	17.81
534.038	17.97
534.236	18.14
534.434	18.3
534.632	18.49
534.83	18.7
535.027	18.86
535.225	19.07
535.423	19.38
535.621	19.55
535.819	19.71
536.017	19.87
536.215	19.97
536.412	20.1
536.61	20.26
536.808	20.43
537.006	20.62
537.203	20.9
537.401	21.18
537.599	21.42
537.797	21.78
537.994	22.02
538.192	22.44
538.39	22.83
538.587	23.13
538.785	23.44
538.983	23.71
539.18	23.78
539.378	23.74
539.575	23.63
539.773	23.46
539.97	23.26
540.168	23.18
540.366	22.96
540.563	22.78
540.761	22.63
540.958	22.53
541.155	22.37
541.353	22.35
541.55	22.38
541.748	22.49
541.945	22.61
542.143	22.82
542.34	23.04
542.537	23.31
542.735	23.61
542.932	23.95
543.129	24.39
543.327	24.98
543.524	25.66
543.721	26.49
543.919	27.38
544.116	28.38
544.313	29.31
544.51	30.28
544.708	31.23
544.905	32.21
545.102	33.14
545.299	33.81
545.496	34.35
545.693	34.67
545.891	34.62
546.088	34.43
546.285	34.07
546.482	33.83
546.679	33.36
546.876	33.04
547.073	32.62
547.27	32.18
547.467	31.85
547.664	31.53
547.861	31.27
548.058	31.23
548.255	31.2
548.452	31.3
548.649	31.34
548.846	31.5
549.043	31.5
549.24	31.55
549.437	31.63
549.633	31.56
549.83	31.5
550.027	31.51
550.224	31.49
550.421	31.41
550.618	31.05
550.814	30.76
551.011	30.42
551.208	30.14
551.405	29.7
551.601	29.29
551.798	29.09
551.995	28.73
552.191	28.33
552.388	28.08
552.585	27.89
552.781	27.77
552.978	27.67
553.175	27.68
553.371	27.58
553.568	27.78
553.764	27.93
553.961	27.99
554.157	28.04
554.354	28.25
554.55	28.29
554.747	28.43
554.943	28.45
555.14	28.47
555.336	28.43
555.533	28.66
555.729	28.68
555.926	28.54
556.122	28.55
556.318	28.74
556.515	28.68
556.711	28.56
556.907	28.35
557.104	28.53
557.3	28.48
557.496	28.45
557.693	28.34
557.889	28.31
558.085	28.37
558.281	28.16
558.478	28.06
558.674	27.98
558.87	28.01
559.066	28.1
559.262	28.01
559.459	27.95
559.655	27.87
559.851	27.75
560.047	27.63
560.243	27.61
560.439	27.66
560.635	27.7
560.831	27.71
561.027	27.77
561.223	27.78
561.419	27.67
561.615	27.73
561.811	27.87
562.007	27.85
562.203	27.95
562.399	27.97
562.595	27.97
562.791	27.88
562.987	27.79
563.183	27.7
563.379	27.74
563.575	27.73
563.771	27.51
563.966	27.32
564.162	27.27
564.358	26.95
564.554	26.6
564.75	26.42
564.945	26.19
565.141	26.01
565.337	25.7
565.533	25.39
565.728	25.17
565.924	25.15
566.12	25.08
566.315	24.93
566.511	25.03
566.707	25.07
566.902	25.09
567.098	24.98
567.293	25.03
567.489	25.23
567.684	25.24
567.88	25.26
568.076	25.29
568.271	25.33
568.467	25.37
568.662	25.23
568.858	25.17
569.053	25.11
569.248	25.15
569.444	25.12
569.639	24.96
569.835	24.89
570.03	24.83
570.225	24.61
570.421	24.38
570.616	24.08
570.812	24.06
571.007	24
571.202	23.89
571.397	23.78
571.593	23.58
571.788	23.47
571.983	23.41
572.178	23.43
572.374	23.48
572.569	23.44
572.764	23.58
572.959	23.51
573.154	23.51
573.35	23.58
573.545	23.57
573.74	23.69
573.935	23.7
574.13	23.73
574.325	23.71
574.52	23.82
574.715	24
574.91	24.11
575.105	24.27
575.3	24.55
575.495	24.8
575.69	25.12
575.885	25.51
576.08	25.93
576.275	26.32
576.47	26.83
576.665	27.2
576.86	27.53
577.055	27.99
577.25	28.3
577.444	28.69
577.639	28.97
577.834	29.37
578.029	29.56
578.224	29.88
578.418	30.17
578.613	30.54
578.808	30.63
579.003	30.99
579.197	30.97
579.392	31.18
579.587	31.2
579.781	31.24
579.976	31.24
580.171	31.38
580.365	31.27
580.56	31.24
580.755	31
580.949	31.07
581.144	31.14
581.338	31.4
581.533	31.45
581.727	31.6
581.922	31.73
582.116	31.73
582.311	31.62
582.505	31.8
582.7	31.74
582.894	31.8
583.089	31.92
583.283	31.88
583.478	31.69
583.672	31.68
583.866	31.54
584.061	31.5
584.255	31.55
584.449	31.67
584.644	31.63
584.838	31.82
585.032	31.97
585.226	32.04
585.421	32.11
585.615	32.28
585.809	32.43
586.003	32.75
586.198	32.84
586.392	32.96
586.586	32.95
586.78	32.88
586.974	32.68
587.168	32.35
587.363	31.87
587.557	31.37
587.751	30.9
587.945	30.41
588.139	29.59
588.333	29.04
588.527	28.59
588.721	27.98
588.915	27.54
589.109	27.19
589.303	26.91
589.497	26.82
589.691	26.74
589.885	26.75
590.079	26.69
590.273	26.86
590.466	27.11
590.66	27.4
590.854	27.67
591.048	27.94
591.242	28.19
591.436	28.58
591.629	29.02
591.823	29.31
592.017	29.62
592.211	30.04
592.404	30.26
592.598	30.23
592.792	30
592.986	29.91
593.179	29.84
593.373	29.85
593.567	29.52
593.76	29.14
593.954	28.9
594.147	28.6
594.341	28.03
594.535	27.67
594.728	27.32
594.922	27.08
595.115	26.8
595.309	26.45
595.502	25.99
595.696	25.67
595.889	25.41
596.083	25.16
596.276	24.9
596.47	24.9
596.663	24.74
596.856	24.62
597.05	24.64
597.243	24.68
597.437	24.91
597.63	25.23
597.823	25.6
598.017	25.95
598.21	26.2
598.403	26.53
598.596	26.81
598.79	27.28
598.983	27.8
599.176	27.98
599.369	28.28
599.563	28.33
599.756	28.33
599.949	28.15
600.142	28.09
600.335	28.1
600.528	28.16
600.722	27.95
600.915	27.68
601.108	27.54
601.301	27.29
601.494	27.04
601.687	26.91
601.88	26.63
602.073	26.53
602.266	26.16
602.459	25.82
602.652	25.29
602.845	25.03
603.038	24.8
603.231	24.32
603.424	24.14
603.617	23.98
603.809	23.71
604.002	23.66
604.195	23.58
604.388	23.6
604.581	23.62
604.774	23.86
604.966	23.94
605.159	24.09
605.352	24.48
605.545	24.75
605.737	25.09
605.93	25.58
606.123	25.82
606.316	26.18
606.508	26.56
606.701	27.03
606.894	27.46
607.086	28.1
607.279	28.65
607.471	29.03
607.664	29.62
607.857	30.21
608.049	30.93
608.242	32.13
608.434	33.51
608.627	35.37
608.819	37.45
609.012	39.82
609.204	42.5
609.397	45.34
609.589	48.65
609.782	52.2
609.974	55.82
610.166	59.69
610.359	63.39
610.551	66.82
610.743	69.75
610.936	72.46
611.128	74.54
611.32	75.9
611.513	76.9
611.705	77.47
611.897	77.32
612.09	76.54
612.282	75.3
612.474	73.62
612.666	71.99
612.858	70.25
613.051	68.34
613.243	66.35
613.435	64.63
613.627	62.92
613.819	60.98
614.011	59.35
614.203	57.77
614.395	56.13
614.588	54.4
614.78	52.78
614.972	50.98
615.164	49.39
615.356	47.95
615.548	46.44
615.74	44.94
615.932	43.88
616.124	42.53
616.315	41.45
616.507	40.39
616.699	39.53
616.891	38.52
617.083	37.63
617.275	36.97
617.467	36.21
617.659	35.68
617.85	35.31
618.042	34.69
618.234	34.37
618.426	34.23
618.618	33.94
618.809	33.8
619.001	33.72
619.193	33.79
619.384	33.58
619.576	33.35
619.768	33.32
619.959	33.28
620.151	33.03
620.343	32.93
620.534	32.71
620.726	32.69
620.917	32.54
621.109	32.74
621.301	32.72
621.492	32.81
621.684	33.06
621.875	33.12
622.067	33.1
622.258	33.5
622.45	33.69
622.641	33.75
622.832	33.82
623.024	33.99
623.215	33.85
623.407	33.84
623.598	33.71
623.789	33.74
623.981	33.7
624.172	33.71
624.363	33.53
624.555	33.25
624.746	33.02
624.937	32.68
625.129	32.4
625.32	32.09
625.511	31.79
625.702	31.6
625.893	31.49
626.085	31.3
626.276	30.97
626.467	30.74
626.658	30.62
626.849	30.59
627.04	30.52
627.231	30.65
627.422	30.64
627.614	30.82
627.805	30.89
627.996	30.86
628.187	31.16
628.378	31.61
628.569	32.17
628.76	32.59
628.951	33.16
629.142	33.87
629.332	34.28
629.523	34.96
629.714	35.45
629.905	36.08
630.096	36.58
630.287	36.83
630.478	36.97
630.669	36.94
630.859	37.07
631.05	36.58
631.241	36.19
631.432	35.66
631.623	35.1
631.813	34.54
632.004	33.92
632.195	33.25
632.385	32.5
632.576	31.96
632.767	31.33
632.957	30.5
633.148	30.16
633.339	29.86
633.529	29.46
633.72	29.02
633.91	28.68
634.101	28.47
634.292	28.16
634.482	28.16
634.673	27.92
634.863	27.74
635.054	27.75
635.244	27.8
635.435	27.57
635.625	27.67
635.815	27.67
636.006	27.56
636.196	27.64
636.387	27.62
636.577	27.41
636.767	27.46
636.958	27.44
637.148	27.2
637.338	27.23
637.529	27.23
637.719	27.29
637.909	27.49
638.099	27.49
638.29	27.38
638.48	27.35
638.67	27.47
638.86	27.46
639.05	27.61
639.241	27.89
639.431	27.85
639.621	27.96
639.811	27.96
640.001	27.97
640.191	28.22
640.381	28.13
640.571	28.35
640.761	28.38
640.951	28.42
641.141	28.6
641.331	28.72
641.521	28.76
641.711	29.27
641.901	29.12
642.091	29.23
642.281	29.13
642.471	29.29
642.661	29.38
642.851	29.62
643.041	29.77
643.231	29.56
643.42	29.44
643.61	29.24
643.8	28.88
643.99	28.98
644.18	28.64
644.369	28.66
644.559	28.52
644.749	28.42
644.939	27.96
645.128	27.72
645.318	27.82
645.508	27.79
645.697	27.92
645.887	27.92
646.076	27.84
646.266	27.82
646.456	27.69
646.645	27.83
646.835	27.83
647.024	28.03
647.214	28.06
647.403	27.99
647.593	27.95
647.782	27.92
647.972	27.71
648.161	27.84
648.351	27.85
648.54	28.12
648.73	28.12
648.919	28.29
649.108	28.41
649.298	28.64
649.487	28.84
649.677	28.9
649.866	29.02
650.055	29.36
650.244	29.45
650.434	29.67
650.623	29.49
650.812	29.44
651.002	29.11
651.191	29.1
651.38	28.82
651.569	28.63
651.758	28.67
651.947	28.85
652.137	28.56
652.326	28.5
652.515	28.45
652.704	28.69
652.893	28.85
653.082	29.13
653.271	29.11
653.46	29.14
653.649	29.03
653.838	29.12
654.027	28.71
654.216	28.42
654.405	28.18
654.594	27.84
654.783	27.57
654.972	27.23
655.161	26.95
655.35	26.69
655.539	26.72
655.728	26.77
655.916	26.57
656.105	26.21
656.294	26.47
656.483	26.63
656.672	26.53
656.86	26.38
657.049	26.25
657.238	26.17
657.427	25.92
657.615	25.55
657.804	25.39
657.993	25.04
658.181	25.11
658.37	24.82
658.559	24.5
658.747	24.63
658.936	24.43
659.125	24.17
659.313	24.31
659.502	24.33
659.69	24.42
659.879	24.47
660.067	24.95
660.256	25.14
660.444	25.47
660.633	25.84
660.821	25.94
661.01	26.31
661.198	26.88
661.387	27.11
661.575	27.59
661.763	28.17
661.952	28.61
662.14	28.64
662.328	29
662.517	29.19
662.705	29.18
662.893	29.35
663.082	29.44
663.27	29.34
663.458	29.39
663.646	29.46
663.834	29.34
664.023	29.11
664.211	29.21
664.399	29.08
664.587	28.71
664.775	28.86
664.963	28.85
665.152	28.83
665.34	28.93
665.528	28.7
665.716	28.73
665.904	28.55
666.092	28.33
666.28	28.07
666.468	27.8
666.656	28.28
666.844	28.17
667.032	28.04
667.22	28.1
667.408	28.01
667.596	28.06
667.784	27.66
667.971	27.74
668.159	27.85
668.347	27.95
668.535	27.94
668.723	27.52
668.911	27.51
669.098	27.58
669.286	27.51
669.474	27.85
669.662	27.89
669.849	28.1
670.037	28.14
670.225	28.31
670.413	28.36
670.6	28.71
670.788	28.94
670.976	28.85
671.163	29.08
671.351	29.05
671.538	28.54
671.726	28.46
671.913	28.49
672.101	28.39
672.289	28.34
672.476	28.18
672.664	28.17
672.851	28.36
673.039	28.52
673.226	28.5
673.413	28.65
673.601	28.9
673.788	29.06
673.976	28.94
674.163	29.12
674.35	29.25
674.538	29.29
674.725	29.2
674.912	28.86
675.1	28.81
675.287	29
675.474	29.03
675.662	29.22
675.849	28.88
676.036	29.05
676.223	28.78
676.411	28.65
676.598	28.73
676.785	28.85
676.972	28.98
677.159	29.02
677.346	28.78
677.533	28.67
677.721	28.52
677.908	28.64
678.095	28.27
678.282	28.19
678.469	27.76
678.656	27.55
678.843	27.38
679.03	27.31
679.217	26.9
679.404	26.62
679.591	26.43
679.778	26.33
679.964	26.09
680.151	26.26
680.338	26.04
680.525	26.03
680.712	26.02
680.899	26.13
681.086	26.1
681.272	26.28
681.459	26.42
681.646	26.48
681.833	26.47
682.02	26.82
682.206	26.85
682.393	27.2
682.58	27.38
682.766	27.54
682.953	27.53
683.14	27.83
683.326	28.1
683.513	28.37
683.7	28.44
683.886	28.35
684.073	28.45
684.259	28.45
684.446	28.92
684.632	29.27
684.819	29.33
685.005	29.04
685.192	28.81
685.378	28.73
685.565	28.8
685.751	28.87
685.938	28.73
686.124	28.9
686.31	28.8
686.497	28.34
686.683	28.08
686.87	28.2
687.056	28.33
687.242	28.13
687.429	28.05
687.615	27.55
687.801	27.33
687.987	27.67
688.174	27.13
688.36	27.27
688.546	27.03
688.732	27.09
688.918	26.89
689.105	26.83
689.291	27.08
689.477	27.08
689.663	27.23
689.849	27.09
690.035	26.96
690.221	27.19
690.407	27.2
690.593	27.61
690.779	27.62
690.965	27.37
691.151	27.43
691.337	27.48
691.523	27.29
691.709	27.51
691.895	27.98
692.081	28.12
692.267	28.23
692.453	28.41
692.639	28.12
692.825	28.2
693.011	28.59
693.196	28.87
693.382	28.49
693.568	29.01
693.754	28.82
693.94	29.01
694.125	28.94
694.311	28.63
694.497	28.24
694.682	28.21
694.868	28.14
695.054	28.04
695.239	27.85
695.425	28.35
695.611	27.92
695.796	27.66
695.982	27.01
696.168	26.58
696.353	26.3
696.539	25.97
696.724	26
696.91	25.55
697.095	25.25
697.281	24.96
697.466	24.66
697.652	24.18
697.837	24.24
698.023	24.1
698.208	23.96
698.393	23.93
698.579	23.8
698.764	23.58
698.949	23.54
699.135	23.49
699.32	23.38
699.505	23.19
699.691	23.49
699.876	23.35
700.061	23.49
700.246	23.57
700.432	23.83
700.617	24.2
700.802	24.53
700.987	25.28
701.172	25.55
701.358	26.14
701.543	26.43
701.728	26.85
701.913	27.31
702.098	27.67
702.283	28.23
702.468	28.36
702.653	28.87
702.838	29.24
703.023	29.12
703.208	29.56
703.393	29.65
703.578	30.27
703.763	30.87
703.948	31.49
704.133	32.18
704.318	33.13
704.503	33.99
704.688	34.8
704.873	35.46
705.057	36.18
705.242	36.91
705.427	37.84
705.612	38.22
705.797	39.13
705.981	39.75
706.166	40.15
706.351	40.55
706.536	41.14
706.72	41.1
706.905	41.43
707.09	41.8
707.274	42.34
707.459	42.08
707.644	42.68
707.828	42.35
708.013	42.33
708.197	42.37
708.382	42.01
708.567	41.68
708.751	41.37
708.936	40.76
709.12	40.6
709.305	39.63
709.489	39.42
709.673	38.74
709.858	38.4
710.042	38.04
710.227	37.96
710.411	37.69
710.596	37.37
710.78	37.49
710.964	37.61
711.149	37.51
711.333	37.67
711.517	37.62
711.702	37.8
711.886	37.79
712.07	37.47
712.254	36.93
712.438	36.8
712.623	36.19
712.807	35.69
712.991	35.44
713.175	34.9
713.359	34.35
713.544	33.84
713.728	32.92
713.912	32.17
714.096	31.52
714.28	31.04
714.464	30.75
714.648	30.47
714.832	29.69
715.016	28.6
715.2	27.54
715.384	26.88
715.568	26.45
715.752	25.9
715.936	25.33
716.12	25.13
716.304	24.85
716.488	24.3
716.671	24.13
716.855	24.04
717.039	24.21
717.223	24.49
717.407	24.85
717.59	24.77
717.774	24.91
717.958	24.77
718.142	24.3
718.325	24.06
718.509	23.96
718.693	23.73
718.877	23.76
719.06	23.8
719.244	23.92
719.428	24.02
719.611	24.19
719.795	24.25
719.978	24.4
720.162	25.24
720.345	25.53
720.529	25.7
720.713	26.35
720.896	26.79
721.08	27
721.263	26.92
721.446	26.7
721.63	27.07
721.813	27.03
721.997	27.27
722.18	26.87
722.364	26.82
722.547	26.49
722.73	26.11
722.914	25.99
723.097	26.13
723.28	26.16
723.464	25.82
723.647	25.46
723.83	25.38
724.013	25.58
724.197	25.47
724.38	26.11
724.563	26.59
724.746	26.63
724.929	26.39
725.112	26.08
725.296	26
725.479	25.88
725.662	25.9
725.845	26.28
726.028	25.85
726.211	25.87
726.394	25.52
726.577	25.3
726.76	24.66
726.943	24.92
727.126	24.66
727.309	24.72
727.492	24.52
727.675	24.24
727.858	23.96
728.041	23.88
728.224	23.98
728.407	23.59
728.589	23.65
728.772	24.18
728.955	24.01
729.138	23.84
729.321	23.68
729.503	24.27
729.686	24.1
729.869	24.32
730.052	24.24
730.234	24.16
730.417	24.39
730.6	24.11
730.782	23.78
730.965	23.79
731.148	24.07
731.33	24.09
731.513	23.54
731.695	24.22
731.878	24.02
732.061	24.36
732.243	25.1
732.426	25.21
732.608	25.73
732.791	26.67
732.973	26.97
733.156	27.41
733.338	27.75
733.52	28.8
733.703	28.61
733.885	28.91
734.068	29.02
734.25	28.32
734.432	28.52
734.615	28.57
734.797	28.28
734.979	28.08
735.162	27.97
735.344	27.76
735.526	27.46
735.708	27.82
735.891	27.71
736.073	28.04
736.255	28.24
736.437	28.28
736.619	28.2
736.802	28.2
736.984	28.32
737.166	28.74
737.348	29.42
737.53	29.29
737.712	29.1
737.894	29.47
738.076	29.28
738.258	29.44
738.44	28.93
738.622	28.93
738.804	29.12
738.986	29.18
739.168	29.13
739.35	28.43
739.532	28.49
739.714	28.43
739.896	28.36
740.078	28.33
740.259	28.33
740.441	28.7
740.623	28.84
740.805	28.71
740.987	28.99
741.168	28.62
741.35	28.96
741.532	29.08
741.714	29.26
741.895	29.36
742.077	30.4
742.259	30.22
742.44	30.6
742.622	31.01
742.804	31.07
742.985	31.59
743.167	31.88
743.348	31.97
743.53	32.29
743.711	32.19
743.893	32.15
744.075	31.95
744.256	32.53
744.438	32.52
744.619	32.3
744.8	32.72
744.982	31.78
745.163	32.09
745.345	32.62
745.526	32.58
745.707	33.26
745.889	33.11
746.07	32.84
746.252	32.64
746.433	32.99
746.614	33.62
746.795	33.61
746.977	34.73
747.158	34.18
747.339	33.76
747.52	33.36
747.702	32.66
747.883	33.07
748.064	32.98
748.245	33.25
748.426	32.57
748.607	32.4
748.788	32.37
748.97	31.98
749.151	31.99
749.332	32.26
749.513	32.74
749.694	32.74
749.875	32.96
750.056	32.4
750.237	32.19
750.418	32.6
750.599	31.91
750.78	31.59
750.96	31.11
751.141	31.63
751.322	31.3
751.503	31.01
751.684	31.02
751.865	31.48
752.046	31.17
752.226	31.23
752.407	30.33
752.588	30.81
752.769	30.85
752.949	30.89
753.13	30.6
753.311	30.66
753.492	30.63
753.672	31
753.853	30.13
754.034	30.78
754.214	31.17
754.395	31.51
754.575	31.11
754.756	30.79
754.937	30.09
755.117	30.7
755.298	30.57
755.478	30.58
755.659	30.14
755.839	30.99
756.02	31.43
756.2	31.14
756.381	31.25
756.561	30.49
756.741	31.05
756.922	31.62
757.102	30.77
757.283	31.04
757.463	30.99
757.643	30.92
757.823	29.44
758.004	28.54
758.184	27.89
758.364	27.74
758.545	27.72
758.725	26.48
758.905	25.95
759.085	25.49
759.265	24.19
759.446	23.26
759.626	23.02
759.806	23.32
759.986	23.24
760.166	22.93
760.346	22.98
760.526	22.91
760.706	22.6
760.886	22.62
761.066	22.6
761.246	23.13
761.426	22.77
761.606	22.24
761.786	21.22
761.966	20.96
762.146	20.93
762.326	20.73
762.506	20.76
762.686	21.2
762.866	21.1
763.046	20.7
763.225	20.29
763.405	20.35
763.585	20.31
763.765	20.64
763.945	20.82
764.124	21.17
764.304	21.24
764.484	21.34
764.664	21.23
764.843	22.09
765.023	22.48
765.203	22.94
765.382	23.41
765.562	24.2
765.741	24.73
765.921	24.73
766.101	24.6
766.28	24.96
766.46	25.49
766.639	26.42
766.819	25.98
766.998	26.3
767.178	26.96
767.357	27.52
767.537	27.84
767.716	28.23
767.896	29.27
768.075	30.2
768.254	30.07
768.434	30.44
768.613	30.18
768.792	29.78
768.972	31.27
769.151	30.72
769.33	31.31
769.51	31.43
769.689	32.12
769.868	31.78
770.047	31.41
770.226	31.64
770.406	30.8
770.585	31.58
770.764	32.67
770.943	31.9
771.122	33.19
771.301	34.35
771.48	34.5
771.66	34.21
771.839	34.93
772.018	36.14
772.197	36.47
772.376	37.99
772.555	37.55
772.734	38.09
772.913	37.61
773.092	36.86
773.271	35.04
773.449	35.46
773.628	35.39
773.807	35.31
773.986	34.42
774.165	34.75
774.344	33.8
774.523	33.4
774.701	32.23
774.88	32.42
775.059	32.72
775.238	33.42
775.417	32.96
775.595	32.73
775.774	32.3
775.953	31.77
776.131	31.21
776.31	31.51
776.489	31.55
776.667	31.76
776.846	32.31
777.025	33.32
777.203	33.42
777.382	34.41
777.56	35.28
777.739	35.72
777.917	35.81
778.096	35.76
778.274	35.68
778.453	35.96
778.631	36.61
778.81	35.51
778.988	34.8
779.166	34.89
779.345	34.05
779.523	33.16
779.702	33.01
779.88	32.95
780.058	33.18
780.237	33.05
780.415	33.57
780.593	33
780.771	33.74
780.95	34.03
781.128	33.58
781.306	33.46
781.484	33.78
781.662	33.73
781.841	34.26
782.019	33.69
782.197	34.23
782.375	33.93
782.553	34.71
782.731	35.3
782.909	34.63
783.087	34.99
783.265	35.04
783.443	34.61
783.621	34.58
783.799	34.95
783.977	36.05
784.155	35.92
784.333	36.09
784.511	35.59
784.689	35.82
784.867	36.24
785.045	36.2
785.223	36.56
785.4	36.81
785.578	36.8
785.756	36.88
785.934	36.88
786.112	35.42
786.289	35.55
786.467	34.81
786.645	34.79
786.823	33.82
787	33.33
787.178	32.51
787.356	32.19
787.533	32.12
787.711	31.35
787.889	30.53
788.066	30.83
788.244	29.86
788.421	29.74
788.599	29.11
788.776	29.51
788.954	29.97
789.131	29.67
789.309	30.46
789.486	29.92
789.664	29.72
789.841	30.4
790.019	30.68
790.196	30.98
790.373	32.11
790.551	32.28
790.728	32.38
790.906	32.46
791.083	32.79
791.26	32.6
791.437	32.38
791.615	32.1
791.792	32.28
791.969	33.03
792.146	33.88
792.324	33.79
792.501	34.02
792.678	34.03
792.855	32.59
793.032	33.36
793.209	32.94
793.387	33.97
793.564	34.61
793.741	34.76
793.918	34.36
794.095	33.44
794.272	32.95
794.449	31.8
794.626	32.2
794.803	32.6
794.98	32.02
795.157	31.18
795.334	30.8
795.511	30.22
795.688	29.09
795.864	29.54
796.041	30.19
796.218	29.7
796.395	30.22
796.572	29.88
796.749	30.3
796.925	29.52
797.102	29.77
797.279	28.94
797.456	28.71
797.632	29.54
797.809	28.53
797.986	28.24
798.162	28.65
798.339	28.15
798.516	28.32
798.692	28.24
798.869	29.43
799.046	29.82
799.222	31.09
799.399	31.35
799.575	31.69
799.752	32.71
799.928	33.57
800.105	33.1
800.281	34.23
800.458	33.95
800.634	34.46
800.811	33.12
800.987	33.88
801.163	33.29
801.34	34.04
801.516	32.58
801.692	31.61
801.869	31.79
802.045	31.41
802.221	31.61
802.398	30.21
802.574	30.27
802.75	31.82
802.926	31.23
803.103	32.06
803.279	32.23
803.455	32.51
803.631	33.07
803.807	31.5
803.983	33.65
804.16	33.05
804.336	35.12
804.512	35.15
804.688	34.87
804.864	36.04
805.04	35.87
805.216	34.83
805.392	35.48
805.568	35.23
805.744	35.56
805.92	34.03
806.096	34.2
806.272	34.36
806.448	33.46
806.623	33.8
806.799	32.35
806.975	32.33
807.151	32.14
807.327	32.45
807.503	31.34
807.678	30.7
807.854	30.89
808.03	30.74
808.206	30.78
808.381	31.75
808.557	29.85
808.733	29.62
808.908	29.79
809.084	29.61
809.26	29.14
809.435	31.21
809.611	32.12
809.787	34.37
809.962	33.77
810.138	33.34
810.313	32.44
810.489	34.19
810.664	34.89
810.84	34.95
811.015	36.72
811.191	37.92
811.366	36.92
811.542	36.05
811.717	34.37
811.892	35.47
812.068	35.4
812.243	35.5
812.419	35.76
812.594	34.56
812.769	34.18
812.944	32.9
813.12	32.88
813.295	33.89
813.47	32.98
813.645	32.78
813.821	32.49
813.996	32.21
814.171	32.88
814.346	32.6
814.521	33.32
814.697	32.34
814.872	32.16
815.047	30.31
815.222	28.71
815.397	29.46
815.572	29.26
815.747	27.98
815.922	28.02
816.097	26.6
816.272	27.28
816.447	27.77
816.622	30.46
816.797	30.83
816.972	31.61
817.147	32.13
817.322	31.59
817.496	30.44
817.671	30.04
817.846	29.28
818.021	29.87
818.196	28.28
818.371	26.98
818.545	24.8
818.72	24.72
818.895	24.06
819.069	23.09
819.244	23.41
819.419	23.53
819.594	24.17
819.768	23.97
819.943	23.98
820.117	24.12
820.292	24
820.467	23.41
820.641	22.36
820.816	21.75
820.99	20.86
821.165	19.98
821.339	19.3
821.514	18.58
821.688	18.01
821.863	17.39
822.037	16.94
822.212	16.46
822.386	16.41
822.56	15.97
822.735	15.92
822.909	15.81
823.084	15.77
823.258	15.84
823.432	15.93
823.606	15.79
823.781	16.17
823.955	16.11
824.129	16.55
824.303	16.53
824.478	16.92
824.652	17.39
824.826	18.27
825	18.31
825.174	18.47
825.348	18.92
825.523	19.52
825.697	19.17
825.871	19.71
826.045	19.89
826.219	19.5
826.393	19.39
826.567	18.69
826.741	17.99
826.915	18.26
827.089	18.05
827.263	17.36
827.437	17.3
827.611	17.61
827.784	17.27
827.958	16.65
828.132	17.18
828.306	17.15
828.48	17.65
828.654	17.71
828.827	17.92
829.001	19.05
829.175	19.8
829.349	20.5
829.522	20.12
829.696	20.55
829.87	22.07
830.044	22.7
830.217	24.06
830.391	23.98
830.565	25.81
830.738	26.56
830.912	25.11
831.085	24.87
831.259	25.79
831.432	25.48
831.606	27.08
831.779	25.91
831.953	25.38
832.126	24.68
832.3	24.81
832.473	23.91
832.647	23.32
832.82	23.43
832.994	23.06
833.167	22.68
833.34	22.61
833.514	21.38
833.687	21.52
833.86	20.75
834.034	21.05
834.207	20.41
834.38	19.65
834.553	19.49
834.727	19.62
834.9	19.83
835.073	18.51
835.246	18.74
835.419	20.14
835.593	20.36
835.766	21.62
835.939	22.88
836.112	23.69
836.285	24.92
836.458	25.6
836.631	25.54
836.804	26.23
836.977	29.18
837.15	29.76
837.323	29.08
837.496	31.02
837.669	32.02
837.842	30.48
838.015	30.52
838.188	29.83
838.361	29.89
838.533	32.39
838.706	32.77
838.879	31.35
839.052	31.8
839.225	31.58
839.398	29.71
839.57	27.47
839.743	27.39
839.916	27.22
840.088	27.19
840.261	27.6
840.434	25.21
840.607	25.11
840.779	25.36
840.952	25.72
841.124	26.44
841.297	26.94
841.47	26.72
841.642	27.69
841.815	29.03
841.987	32.69
842.16	31.34
842.332	32.49
842.505	33.62
842.677	36.5
842.85	39.07
843.022	38.59
843.194	38.81
843.367	42.48
843.539	42.34
843.712	41.44
843.884	40.75
844.056	44.59
844.229	48.79
844.401	50.34
844.573	49.67
844.745	48.73
844.918	50.51
845.09	49.73
845.262	46.56
845.434	43.49
845.606	46.07
845.779	44.35
845.951	44.96
846.123	43.58
846.295	45.05
846.467	42.95
846.639	43.98
846.811	43.57
846.983	45.67
847.155	47.35
847.327	48.75
847.499	45.17
847.671	46.2
847.843	43.63
848.015	44.38
848.187	40.87
848.359	38.93
848.531	38.32
848.703	37.63
848.875	38.31
849.047	38.47
849.218	39.57
849.39	41.75
849.562	39.94
849.734	38.94
849.905	38.36
850.077	42.7
850.249	43.5
850.421	41.74
850.592	44.21
850.764	41.61
850.936	41.07
851.107	42.35
851.279	41.6
851.451	42.52
851.622	46.71
851.794	45.35
851.965	40.93
852.137	38.77
852.308	37.43
852.48	38.14
852.651	42.08
852.823	42.89
852.994	43.72
853.166	45.38
853.337	45.47
853.509	47.23
853.68	45.17
853.851	46.02
854.023	49.96
854.194	54.35
854.365	51.07
854.537	49.9
854.708	49.53
854.879	49.21
855.05	54.94
855.222	56.31
855.393	55.11
855.564	61.49
855.735	61.96
855.906	62.02
856.078	57.7
856.249	60.93
856.42	54
856.591	54.09
856.762	54.36
856.933	46.89
857.104	47.77
857.275	46.08
857.446	46.04
857.617	45.39
857.788	47.04
857.959	47.44
858.13	46.31
858.301	53.83
858.472	49.61
858.643	52.06
858.814	54.11
858.985	51.75
859.155	48.8
859.326	45.5
859.497	44.88
859.668	45.74
859.839	48.08
860.009	45.58
860.18	42.76
860.351	49.27
860.522	45.55
860.692	47.48
860.863	48.39
861.034	49.56
861.204	50.12
861.375	54.01
861.546	50.11
861.716	49.25
861.887	49.8
862.057	53.82
862.228	50.24
862.398	51.96
862.569	52.51
862.739	53.43
862.91	53.01
863.08	51.13
863.251	51.38
863.421	54.56
863.592	54.17
863.762	55.82
863.932	50.63
864.103	50.92
864.273	47.9
864.443	44.83
864.614	42.91
864.784	44.17
864.954	46.48
865.125	45.93
865.295	44.81
865.465	41.4
865.635	41.24
865.805	42.57
865.976	41.22
866.146	45.84
866.316	48.97
866.486	50.98
866.656	52.18
866.826	47.46
866.996	45.9
867.166	44.92
867.336	46.25
867.506	45.46
867.676	47.73
867.846	45.33
868.016	45.98
868.186	42
868.356	40.76
868.526	40.35
868.696	37.86
868.866	34.44
869.036	37.86
869.206	37.87
869.376	40.05
869.545	38.03
869.715	40.84
869.885	39.31
870.055	42.78
870.224	45.94
870.394	47.84
870.564	55.58
870.734	58.79
870.903	59.73
871.073	61.77
871.243	62.59
871.412	60.26
871.582	64.2
871.751	58.69
871.921	57.46
872.091	57.28
872.26	54.51
872.43	49.84
872.599	47.78
872.769	42.18
872.938	41.85
873.108	39.92
873.277	40.42
873.446	41.29
873.616	41.23
873.785	41.27
873.955	35.75
874.124	33.78
874.293	35.79
874.463	35.41
874.632	41.43
874.801	42.43
874.971	39.65
875.14	36.87
875.309	34.33
875.478	36.43
875.647	35.67
875.817	37.16
875.986	40.39
876.155	38.44
876.324	39.56
876.493	39.92
876.662	36.37
876.831	39.16
877	41.91
877.17	42.12
877.339	40.27
877.508	41.01
877.677	41.09
877.846	38.96
878.015	38.7
878.184	38.39
878.352	33.66
878.521	33.83
878.69	32.36
878.859	31.34
879.028	32.02
879.197	31.17
879.366	31.02
879.534	28.66
879.703	28.28
879.872	28.81
880.041	28.01
880.21	27.82
880.378	27.47
880.547	25.82
880.716	23.83
880.884	22.74
881.053	21.2
881.222	19.15
881.39	19.1
881.559	18.04
881.727	17.2
881.896	16.26
882.065	15.06
882.233	15.08
882.402	15.46
882.57	15.46
882.739	15.53
882.907	16.55
883.076	17.16
883.244	16.83
883.412	17.11
883.581	17.84
883.749	18
883.918	19.23
884.086	18.83
884.254	18.72
884.423	19
884.591	18.31
884.759	17.06
884.927	17.29
885.096	17.78
885.264	18.8
885.432	18.93
885.6	20.02
885.769	19.79
885.937	20.57
886.105	21.97
886.273	22.74
886.441	24.55
886.609	28.38
886.777	29.68
886.945	32.94
887.113	34.71
887.281	33.87
887.449	35.29
887.617	33.47
887.785	33.77
887.953	35.05
888.121	37.14
888.289	37.6
888.457	36.56
888.625	37.37
888.793	34.86
888.961	31.07
889.129	33.75
889.296	33.43
889.464	36.78
889.632	38.44
889.8	37.44
889.967	35.27
890.135	34.19
