Data from 2938796__Reflection_01.txt Node
Date: Fri Mar 13 10:35:36 EDT 2015
User: robert
Spectrometer: USB4E03002
Autoset integration time: false
Trigger mode: 4
Integration Time (sec): 1.000000E-1
Scans to average: 10
Electric dark correction enabled: false
Nonlinearity correction enabled: false
Boxcar width: 5
Stray light correction enabled: false
XAxis mode: Wavelengths
Stop averaging: false
Number of Pixels in Spectrum: 3648
>>>>>Begin Spectral Data<<<<<
177.575	219.81
177.794	311.07
178.014	306.99
178.233	388.69
178.452	364.1
178.672	424.83
178.891	532.8
179.11	592.11
179.33	716.67
179.549	553.47
179.768	981.94
179.987	1637.84
180.207	531.3
180.426	5944.44
180.645	520.44
180.864	481.07
181.084	453.76
181.303	413.33
181.522	337.31
181.741	317.5
181.96	410.87
182.179	449.75
182.398	705.7
182.618	9253.33
182.837	373.99
183.056	491.11
183.275	455.8
183.494	513.18
183.713	423.23
183.932	1094.34
184.151	961.11
184.37	496.98
184.589	969.52
184.808	371.51
185.027	397.41
185.246	509.27
185.465	357.98
185.684	433.43
185.903	369.94
186.122	393.02
186.341	356.81
186.56	362.45
186.779	360.75
186.998	379.19
187.216	438.34
187.435	455.94
187.654	1230
187.873	3389.58
188.092	2919.15
188.311	17385.71
188.53	-900.88
188.748	-1117.86
188.967	-451.66
189.186	-1738.64
189.405	557.49
189.623	480.27
189.842	311.52
190.061	333.88
190.28	467.36
190.498	1108.16
190.717	496.33
190.936	703.95
191.154	585.39
191.373	550.67
191.592	924.09
191.81	1012.4
192.029	1050.96
192.248	2362.5
192.466	840.76
192.685	701.89
192.904	622.4
193.122	1486.05
193.341	516.06
193.559	2482
193.778	-3212.5
193.996	8025
194.215	6300
194.433	-2391.67
194.652	-8162.5
194.87	-1712.5
195.089	5758.33
195.307	907.41
195.526	1939.73
195.744	1002.61
195.963	506.54
196.181	391.52
196.399	418
196.618	551.92
196.836	491.94
197.055	456.23
197.273	307.21
197.491	593.42
197.71	687.03
197.928	478.36
198.146	553.99
198.365	519.27
198.583	543.62
198.801	359.68
199.019	298.2
199.238	259.02
199.456	292.18
199.674	460.1
199.892	223.45
200.111	216.91
200.329	223.36
200.547	194.36
200.765	215.97
200.983	195.57
201.202	204.05
201.42	176.85
201.638	185.99
201.856	233.28
202.074	206.43
202.292	219.73
202.51	226.03
202.728	236.91
202.946	282.73
203.165	278.87
203.383	303.45
203.601	329.79
203.819	501.34
204.037	541.98
204.255	543.31
204.473	650.42
204.691	459.72
204.909	644.96
205.127	695.17
205.345	805.75
205.562	1585.19
205.78	1593.75
205.998	659.09
206.216	451.92
206.434	381.7
206.652	237.19
206.87	274.79
207.088	361.31
207.306	320.72
207.523	294.98
207.741	300
207.959	290.26
208.177	264.3
208.395	389.7
208.612	416.5
208.83	433.33
209.048	1811.54
209.266	359.64
209.483	470.73
209.701	310.16
209.919	377.39
210.136	225.82
210.354	199.83
210.572	206.9
210.79	236.24
211.007	241.94
211.225	313.15
211.442	250.33
211.66	269.5
211.878	185.52
212.095	186
212.313	176.32
212.53	183.54
212.748	176.1
212.966	215.22
213.183	169.26
213.401	127.45
213.618	137.89
213.836	180.1
214.053	276.72
214.271	743.7
214.488	-418.93
214.705	-299.17
214.923	-247.06
215.14	-515.76
215.358	-762.61
215.575	-3280
215.793	-276.65
216.01	-656.1
216.227	-4204.55
216.445	506.28
216.662	360.45
216.879	259.18
217.097	192.2
217.314	188.1
217.531	180.08
217.749	194.28
217.966	208.32
218.183	212.34
218.4	162.49
218.618	130.61
218.835	132.58
219.052	136.36
219.269	136.35
219.487	137.41
219.704	131.72
219.921	139.13
220.138	140.33
220.355	135.19
220.572	125.17
220.79	134.61
221.007	128
221.224	108.13
221.441	83.02
221.658	72.12
221.875	67.3
222.092	62.96
222.309	57.61
222.526	50.47
222.743	51.55
222.96	44.46
223.177	38.78
223.394	40.85
223.611	48.32
223.828	51.04
224.045	49.24
224.262	50.66
224.479	50.56
224.696	49.04
224.913	46.82
225.13	44.14
225.347	45.51
225.564	44.14
225.781	42.12
225.997	37.05
226.214	34.69
226.431	32.41
226.648	28.61
226.865	25.65
227.082	24.01
227.298	22.78
227.515	20.81
227.732	18.49
227.949	16.76
228.165	16.58
228.382	14.67
228.599	14.82
228.816	13.62
229.032	12.71
229.249	13.2
229.466	13.68
229.682	12.49
229.899	12.87
230.116	13.21
230.332	13.09
230.549	13.15
230.765	15.16
230.982	13.97
231.199	14.93
231.415	15.96
231.632	16.13
231.848	16.37
232.065	18.15
232.281	17.74
232.498	17.26
232.714	20.35
232.931	20.98
233.147	20.2
233.364	21.44
233.58	22.77
233.797	21.68
234.013	21.64
234.23	19.97
234.446	19.05
234.662	18.8
234.879	18.63
235.095	16.69
235.312	15.78
235.528	15.27
235.744	15.05
235.961	14.8
236.177	15.86
236.393	14.96
236.61	14.51
236.826	15.43
237.042	15.27
237.258	15.5
237.475	15.9
237.691	13.62
237.907	15.41
238.123	17.25
238.339	16.91
238.556	18.12
238.772	18.17
238.988	17.64
239.204	17.04
239.42	16.98
239.636	16.79
239.853	16.37
240.069	16.94
240.285	15.48
240.501	13.32
240.717	11.2
240.933	10.11
241.149	9.02
241.365	9.61
241.581	9.32
241.797	9.66
242.013	9
242.229	8.38
242.445	8.45
242.661	8.71
242.877	9.15
243.093	9.41
243.309	9.34
243.525	9.97
243.741	10.08
243.957	11.05
244.173	10.35
244.388	10.75
244.604	11.43
244.82	10.91
245.036	10.36
245.252	10.18
245.468	9.85
245.683	9.54
245.899	9.3
246.115	8.45
246.331	7.76
246.547	8.17
246.762	8.15
246.978	7.98
247.194	8.09
247.409	7.94
247.625	7.59
247.841	7.68
248.057	7.85
248.272	7.38
248.488	7.47
248.703	7.41
248.919	7.09
249.135	7.08
249.35	7.26
249.566	7.14
249.782	8.01
249.997	8.92
250.213	9.15
250.428	9.04
250.644	10.21
250.859	10.72
251.075	11.27
251.29	11.08
251.506	10.69
251.721	10.64
251.937	10.51
252.152	9.98
252.368	9.34
252.583	9.35
252.798	9.52
253.014	9.28
253.229	8.73
253.445	8.49
253.66	8.9
253.875	9.58
254.091	9.69
254.306	9.49
254.521	8.54
254.737	9.75
254.952	10
255.167	9.83
255.383	9.45
255.598	10.02
255.813	9.45
256.028	9.82
256.244	9.47
256.459	9.29
256.674	9.78
256.889	9.87
257.104	8.83
257.32	8.03
257.535	8.08
257.75	8.07
257.965	7.52
258.18	7.47
258.395	6.5
258.61	6.38
258.826	6.07
259.041	6.01
259.256	5.99
259.471	5.74
259.686	5.83
259.901	5.45
260.116	5.59
260.331	5.61
260.546	5.61
260.761	5.89
260.976	5.81
261.191	6.11
261.406	6.36
261.621	6.67
261.836	6.81
262.05	6.93
262.265	7.53
262.48	7.44
262.695	8.08
262.91	8.28
263.125	8.51
263.34	8.49
263.555	7.91
263.769	7.73
263.984	7.63
264.199	8.06
264.414	8.1
264.629	8.06
264.843	8.14
265.058	7.56
265.273	7.19
265.488	6.8
265.702	7.1
265.917	7.79
266.132	7.07
266.346	6.69
266.561	6.72
266.776	6.65
266.99	6.24
267.205	6
267.42	6
267.634	5.79
267.849	6.52
268.063	6.62
268.278	6.53
268.492	6.99
268.707	7.57
268.922	7.42
269.136	7.45
269.351	7.51
269.565	7.39
269.78	7.5
269.994	7.73
270.209	7.04
270.423	6.99
270.637	6.98
270.852	7.02
271.066	6.61
271.281	6.66
271.495	6.52
271.709	6.5
271.924	6.89
272.138	6.52
272.353	6.68
272.567	6.93
272.781	6.85
272.996	6.27
273.21	6.19
273.424	6.58
273.638	6.56
273.853	6.76
274.067	6.8
274.281	6.72
274.495	7
274.71	7.03
274.924	6.55
275.138	6.7
275.352	7.13
275.566	7.01
275.781	6.53
275.995	6.6
276.209	6.91
276.423	7.23
276.637	7.17
276.851	7.23
277.065	7.29
277.279	7.14
277.493	6.81
277.707	7.1
277.921	7
278.135	7.28
278.349	7.05
278.563	6.44
278.777	6.53
278.991	6.3
279.205	6.03
279.419	5.57
279.633	6.13
279.847	5.71
280.061	4.84
280.275	5
280.489	4.48
280.703	4.47
280.917	4.81
281.131	4.59
281.344	4.53
281.558	4.81
281.772	4.67
281.986	4.75
282.2	5.51
282.414	5.95
282.627	5.74
282.841	6.09
283.055	6.28
283.269	6.23
283.482	6.23
283.696	6.14
283.91	6.37
284.123	6.7
284.337	6.6
284.551	6.41
284.764	6.27
284.978	6.47
285.192	6.21
285.405	6.11
285.619	5.96
285.833	5.99
286.046	6.09
286.26	6.02
286.473	5.6
286.687	5.63
286.9	5.36
287.114	5.45
287.327	5.32
287.541	5.44
287.754	5.52
287.968	5.57
288.181	5.48
288.395	5.8
288.608	5.45
288.822	5.67
289.035	5.48
289.248	5.6
289.462	5.74
289.675	6.12
289.889	5.98
290.102	6.11
290.315	6.15
290.529	6.11
290.742	6.01
290.955	6.02
291.169	6.31
291.382	6.41
291.595	6.55
291.808	6.31
292.022	5.71
292.235	5.91
292.448	5.53
292.661	5.95
292.875	5.94
293.088	5.77
293.301	5.79
293.514	5.51
293.727	5.47
293.94	5.25
294.153	5.42
294.367	5.5
294.58	5.25
294.793	5.46
295.006	5.3
295.219	5.67
295.432	5.94
295.645	6.26
295.858	6.34
296.071	6.46
296.284	6.8
296.497	6.81
296.71	6.91
296.923	7.18
297.136	7.25
297.349	6.92
297.562	6.79
297.775	6.76
297.988	6.75
298.201	6.9
298.414	6.91
298.626	6.89
298.839	7.2
299.052	7.15
299.265	7.12
299.478	7.23
299.691	7.8
299.903	7.93
300.116	8.06
300.329	8.06
300.542	8.31
300.755	8.33
300.967	8.22
301.18	8
301.393	8.35
301.605	8.56
301.818	8.52
302.031	8.38
302.243	8.42
302.456	8.37
302.669	8.45
302.881	8.48
303.094	8.63
303.307	8.72
303.519	8.65
303.732	8.49
303.944	8.12
304.157	8.27
304.37	8.12
304.582	7.97
304.795	7.97
305.007	7.92
305.22	7.74
305.432	7.28
305.645	7.39
305.857	7.72
306.069	7.91
306.282	8.16
306.494	7.97
306.707	8.17
306.919	8.4
307.132	8.22
307.344	8.08
307.556	8.07
307.769	8.74
307.981	8.55
308.193	8.26
308.406	7.99
308.618	8.1
308.83	7.97
309.043	7.82
309.255	7.85
309.467	8.31
309.679	8.56
309.892	8.68
310.104	8.3
310.316	8.65
310.528	8.83
310.74	9.23
310.953	9.1
311.165	9.33
311.377	9.44
311.589	9.33
311.801	9.09
312.013	9.03
312.225	9.01
312.437	9.24
312.649	8.98
312.862	9.07
313.074	8.89
313.286	9.19
313.498	9.12
313.71	9.28
313.922	9.27
314.134	9.57
314.346	9.68
314.558	9.59
314.77	9.55
314.982	9.56
315.193	9.32
315.405	9.22
315.617	8.8
315.829	8.98
316.041	8.68
316.253	8.72
316.465	8.75
316.677	8.84
316.888	8.84
317.1	8.68
317.312	8.81
317.524	8.96
317.736	9.21
317.947	9.53
318.159	9.43
318.371	9.73
318.583	10.02
318.794	9.98
319.006	9.72
319.218	9.93
319.43	9.98
319.641	10.23
319.853	10.11
320.064	10.41
320.276	10.26
320.488	10.57
320.699	10.22
320.911	10.22
321.123	9.95
321.334	9.89
321.546	9.72
321.757	10.17
321.969	10.37
322.18	10.74
322.392	10.46
322.603	10.65
322.815	10.11
323.026	10.28
323.238	9.72
323.449	9.63
323.661	9.8
323.872	9.73
324.083	9.61
324.295	9.12
324.506	9.15
324.718	8.98
324.929	9.3
325.14	9.63
325.352	9.71
325.563	10.27
325.774	10.55
325.986	10.35
326.197	10.8
326.408	10.66
326.62	10.77
326.831	10.59
327.042	10.69
327.253	10.54
327.464	10.33
327.676	10.37
327.887	10.19
328.098	10.07
328.309	10.47
328.52	10.6
328.732	10.88
328.943	10.89
329.154	10.83
329.365	10.99
329.576	11.01
329.787	11.24
329.998	11.62
330.209	11.58
330.42	11.73
330.631	11.91
330.842	11.46
331.053	11.13
331.264	11.25
331.475	11.85
331.686	12.26
331.897	12.49
332.108	12.67
332.319	12.41
332.53	12.5
332.741	12.42
332.952	12.4
333.163	11.98
333.374	12.36
333.585	12.3
333.795	12.12
334.006	11.67
334.217	11.19
334.428	11.12
334.639	11.4
334.849	11.45
335.06	11.38
335.271	11.27
335.482	11.69
335.692	11.71
335.903	11.85
336.114	11.73
336.325	11.58
336.535	11.8
336.746	12.02
336.957	11.4
337.167	11.47
337.378	11.17
337.589	10.78
337.799	10.77
338.01	10.35
338.22	10.01
338.431	9.81
338.642	10.07
338.852	9.96
339.063	9.47
339.273	9.62
339.484	9.57
339.694	9.84
339.905	10.37
340.115	10.4
340.326	10.44
340.536	10.67
340.746	10.64
340.957	10.14
341.167	9.96
341.378	10.16
341.588	9.93
341.799	10.21
342.009	10.26
342.219	9.88
342.43	9.64
342.64	9.65
342.85	9.46
343.061	9.44
343.271	9.96
343.481	10.14
343.691	10
343.902	10.06
344.112	9.41
344.322	9.26
344.532	9.47
344.743	9.53
344.953	9.84
345.163	9.84
345.373	9.81
345.583	9.44
345.793	9.63
346.004	9.61
346.214	10.07
346.424	10.41
346.634	10.52
346.844	10.38
347.054	10.3
347.264	9.88
347.474	10.12
347.684	10.16
347.894	10.02
348.104	9.47
348.314	9.37
348.524	9
348.734	8.9
348.944	8.42
349.154	8.45
349.364	8.5
349.574	8.68
349.784	8.46
349.994	8.51
350.204	8.76
350.413	9.03
350.623	8.95
350.833	9.27
351.043	9.38
351.253	10.02
351.463	10.02
351.672	10.14
351.882	9.98
352.092	10.22
352.302	10.12
352.511	10.13
352.721	10.1
352.931	10.28
353.141	10.14
353.35	10.16
353.56	9.93
353.77	9.7
353.979	9.64
354.189	9.88
354.399	9.87
354.608	10.03
354.818	10.35
355.027	10.47
355.237	10.29
355.447	10.01
355.656	10.01
355.866	10.05
356.075	10.17
356.285	10.06
356.494	10.04
356.704	10.28
356.913	10.15
357.123	10.02
357.332	9.98
357.542	10.09
357.751	10.23
357.96	10.11
358.17	9.94
358.379	9.82
358.589	9.91
358.798	9.84
359.007	9.46
359.217	9.46
359.426	9.42
359.635	9.18
359.845	9.1
360.054	9
360.263	8.9
360.472	8.93
360.682	8.87
360.891	8.69
361.1	8.69
361.309	8.43
361.519	8.48
361.728	8.38
361.937	8.45
362.146	8.31
362.355	8.27
362.564	8.3
362.774	8.4
362.983	8.53
363.192	8.44
363.401	8.27
363.61	8.6
363.819	8.42
364.028	8.3
364.237	8.28
364.446	8.32
364.655	8.54
364.864	8.66
365.073	8.49
365.282	8.57
365.491	8.76
365.7	8.92
365.909	8.96
366.118	9.11
366.327	9.19
366.536	9.18
366.745	9.39
366.954	9.17
367.162	9.13
367.371	9.01
367.58	8.94
367.789	8.76
367.998	8.64
368.207	8.47
368.415	8.36
368.624	8.25
368.833	8.2
369.042	8.13
369.25	8.28
369.459	8.44
369.668	8.5
369.877	8.38
370.085	8.63
370.294	8.63
370.503	8.37
370.711	8.48
370.92	8.52
371.129	8.56
371.337	8.37
371.546	7.96
371.754	7.49
371.963	7.53
372.171	7.67
372.38	7.5
372.589	7.61
372.797	7.9
373.006	7.64
373.214	7.58
373.423	7.46
373.631	7.55
373.84	7.78
374.048	7.92
374.256	7.88
374.465	7.61
374.673	7.53
374.882	7.43
375.09	7.29
375.298	7.43
375.507	7.22
375.715	7.29
375.923	7.47
376.132	7.38
376.34	7.31
376.548	7.22
376.757	7.36
376.965	7.41
377.173	7.29
377.381	7.23
377.59	7.1
377.798	7.31
378.006	7.25
378.214	6.99
378.423	7.18
378.631	7.19
378.839	7.28
379.047	7.34
379.255	7.48
379.463	7.49
379.671	7.55
379.879	7.73
380.088	7.79
380.296	7.77
380.504	7.67
380.712	7.77
380.92	7.77
381.128	7.73
381.336	7.54
381.544	7.47
381.752	7.44
381.96	7.22
382.168	6.84
382.376	6.62
382.584	6.67
382.791	6.77
382.999	6.44
383.207	6.38
383.415	6.26
383.623	6.16
383.831	6.06
384.039	6
384.247	6.32
384.454	6.51
384.662	6.64
384.87	6.55
385.078	6.56
385.285	6.59
385.493	6.47
385.701	6.55
385.909	6.6
386.116	6.53
386.324	6.37
386.532	6.04
386.739	5.97
386.947	5.9
387.155	6.09
387.362	5.99
387.57	6.14
387.778	6.28
387.985	6.28
388.193	6.22
388.4	6.35
388.608	6.6
388.816	6.72
389.023	6.92
389.231	6.99
389.438	6.8
389.646	6.92
389.853	6.73
390.061	6.62
390.268	6.54
390.475	6.56
390.683	6.75
390.89	6.72
391.098	6.83
391.305	6.64
391.512	6.57
391.72	6.47
391.927	6.42
392.135	6.49
392.342	6.67
392.549	6.59
392.756	6.57
392.964	6.19
393.171	6.11
393.378	5.9
393.586	5.78
393.793	5.83
394	5.75
394.207	5.68
394.414	5.66
394.622	5.53
394.829	5.55
395.036	5.51
395.243	5.71
395.45	5.8
395.657	5.89
395.864	5.9
396.072	5.75
396.279	5.9
396.486	6.15
396.693	6.03
396.9	6.02
397.107	6.04
397.314	6.03
397.521	5.91
397.728	5.85
397.935	5.8
398.142	5.81
398.349	5.88
398.556	5.81
398.763	5.52
398.97	5.53
399.177	5.54
399.383	5.59
399.59	5.67
399.797	5.65
400.004	5.64
400.211	5.58
400.418	5.67
400.625	5.74
400.831	5.82
401.038	6.07
401.245	6.08
401.452	5.89
401.658	5.82
401.865	5.59
402.072	5.59
402.279	5.52
402.485	5.56
402.692	5.53
402.899	5.44
403.105	5.35
403.312	5.15
403.519	5.32
403.725	5.3
403.932	5.34
404.138	5.42
404.345	5.45
404.552	5.41
404.758	5.37
404.965	5.43
405.171	5.49
405.378	5.4
405.584	5.42
405.791	5.26
405.997	5.39
406.204	5.47
406.41	5.38
406.617	5.33
406.823	5.34
407.029	5.6
407.236	5.57
407.442	5.5
407.649	5.7
407.855	5.58
408.061	5.51
408.268	5.48
408.474	5.45
408.68	5.51
408.887	5.64
409.093	5.5
409.299	5.19
409.505	4.87
409.712	4.9
409.918	4.72
410.124	4.85
410.33	4.87
410.537	4.78
410.743	4.93
410.949	4.89
411.155	4.86
411.361	4.91
411.567	4.98
411.773	5.17
411.98	5.11
412.186	5.22
412.392	5.22
412.598	5.26
412.804	5.37
413.01	5.04
413.216	5.14
413.422	5.04
413.628	5.23
413.834	5.3
414.04	5.24
414.246	5.28
414.452	5.26
414.658	5.17
414.864	5.3
415.07	5.25
415.275	5.29
415.481	5.3
415.687	5.3
415.893	5.3
416.099	5.28
416.305	5.3
416.511	5.28
416.716	5.24
416.922	5.23
417.128	5.19
417.334	5.24
417.539	5.15
417.745	5.05
417.951	5.03
418.157	4.81
418.362	4.77
418.568	4.81
418.774	4.78
418.979	4.84
419.185	4.83
419.391	4.84
419.596	4.76
419.802	4.8
420.008	4.89
420.213	4.41
420.419	4.53
420.624	4.51
420.83	4.45
421.035	4.4
421.241	4.33
421.446	4.33
421.652	4.24
421.857	4.21
422.063	4.17
422.268	4.09
422.474	4.5
422.679	4.44
422.885	4.48
423.09	4.49
423.295	4.52
423.501	4.48
423.706	4.5
423.911	4.48
424.117	4.51
424.322	4.51
424.527	4.52
424.733	4.54
424.938	4.53
425.143	4.49
425.349	4.54
425.554	4.53
425.759	4.61
425.964	4.6
426.169	4.61
426.375	4.71
426.58	4.77
426.785	4.77
426.99	4.81
427.195	4.85
427.4	4.92
427.605	4.9
427.811	4.98
428.016	4.99
428.221	4.9
428.426	4.97
428.631	4.93
428.836	5.06
429.041	5.06
429.246	5.09
429.451	5.05
429.656	5.02
429.861	4.98
430.066	4.99
430.271	4.87
430.476	5.04
430.681	5.05
430.886	4.96
431.09	4.83
431.295	4.86
431.5	4.73
431.705	4.85
431.91	4.91
432.115	4.97
432.32	4.93
432.524	4.97
432.729	4.92
432.934	4.92
433.139	5.07
433.343	5.17
433.548	5.18
433.753	5.23
433.958	5.07
434.162	4.99
434.367	4.89
434.572	4.87
434.776	4.87
434.981	4.76
435.186	4.68
435.39	4.59
435.595	4.5
435.799	4.47
436.004	4.48
436.209	4.48
436.413	4.46
436.618	4.49
436.822	4.48
437.027	4.56
437.231	4.69
437.436	4.65
437.64	4.62
437.845	4.53
438.049	4.6
438.253	4.55
438.458	4.6
438.662	4.66
438.867	4.63
439.071	4.64
439.275	4.59
439.48	4.57
439.684	4.65
439.888	4.59
440.093	4.64
440.297	4.58
440.501	4.59
440.706	4.61
440.91	4.59
441.114	4.62
441.318	4.57
441.523	4.58
441.727	4.59
441.931	4.56
442.135	4.6
442.339	4.57
442.543	4.61
442.748	4.48
442.952	4.5
443.156	4.45
443.36	4.47
443.564	4.51
443.768	4.53
443.972	4.54
444.176	4.53
444.38	4.52
444.584	4.55
444.788	4.52
444.992	4.69
445.196	4.66
445.4	4.66
445.604	4.67
445.808	4.69
446.012	4.59
446.216	4.54
446.42	4.53
446.624	4.55
446.828	4.5
447.032	4.47
447.235	4.43
447.439	4.41
447.643	4.48
447.847	4.45
448.051	4.43
448.254	4.54
448.458	4.57
448.662	4.6
448.866	4.68
449.069	4.73
449.273	4.76
449.477	4.81
449.681	4.81
449.884	4.88
450.088	4.89
450.292	4.85
450.495	4.75
450.699	4.71
450.902	4.7
451.106	4.64
451.31	4.69
451.513	4.72
451.717	4.59
451.92	4.67
452.124	4.55
452.327	4.56
452.531	4.57
452.734	4.67
452.938	4.71
453.141	4.64
453.345	4.6
453.548	4.51
453.752	4.54
453.955	4.61
454.158	4.44
454.362	4.37
454.565	4.33
454.769	4.37
454.972	4.37
455.175	4.25
455.379	4.33
455.582	4.32
455.785	4.34
455.988	4.33
456.192	4.32
456.395	4.49
456.598	4.53
456.801	4.63
457.005	4.62
457.208	4.61
457.411	4.67
457.614	4.63
457.817	4.58
458.021	4.56
458.224	4.51
458.427	4.53
458.63	4.49
458.833	4.5
459.036	4.46
459.239	4.45
459.442	4.49
459.645	4.5
459.848	4.45
460.051	4.47
460.254	4.55
460.457	4.61
460.66	4.62
460.863	4.55
461.066	4.69
461.269	4.63
461.472	4.7
461.675	4.72
461.878	4.66
462.081	4.82
462.284	4.87
462.486	4.77
462.689	4.75
462.892	4.8
463.095	4.95
463.298	4.76
463.5	4.81
463.703	4.67
463.906	4.6
464.109	4.65
464.311	4.6
464.514	4.58
464.717	4.56
464.92	4.54
465.122	4.56
465.325	4.57
465.528	4.68
465.73	4.7
465.933	4.8
466.135	4.8
466.338	4.87
466.541	4.83
466.743	4.74
466.946	4.8
467.148	4.8
467.351	4.72
467.553	4.62
467.756	4.54
467.958	4.63
468.161	4.65
468.363	4.64
468.566	4.58
468.768	4.58
468.971	4.72
469.173	4.64
469.375	4.61
469.578	4.59
469.78	4.59
469.983	4.52
470.185	4.45
470.387	4.38
470.59	4.28
470.792	4.26
470.994	4.32
471.196	4.28
471.399	4.3
471.601	4.21
471.803	4.34
472.005	4.37
472.208	4.47
472.41	4.47
472.612	4.54
472.814	4.71
473.016	4.72
473.218	4.8
473.421	4.72
473.623	4.79
473.825	5
474.027	4.92
474.229	4.85
474.431	4.82
474.633	4.8
474.835	4.82
475.037	4.83
475.239	4.91
475.441	4.75
475.643	4.9
475.845	4.94
476.047	4.85
476.249	4.83
476.451	4.99
476.653	5.02
476.855	5.03
477.057	4.96
477.258	4.9
477.46	4.87
477.662	4.9
477.864	4.85
478.066	4.8
478.268	4.72
478.469	4.77
478.671	4.74
478.873	4.74
479.075	4.72
479.276	4.65
479.478	4.55
479.68	4.45
479.882	4.39
480.083	4.35
480.285	4.35
480.487	4.42
480.688	4.35
480.89	4.28
481.091	4.23
481.293	4.23
481.495	4.26
481.696	4.26
481.898	4.28
482.099	4.29
482.301	4.26
482.502	4.24
482.704	4.18
482.905	4.16
483.107	4.14
483.308	4.12
483.51	4.11
483.711	4.11
483.913	4.1
484.114	4.11
484.315	4.1
484.517	4.11
484.718	4.14
484.92	4.12
485.121	4.12
485.322	4.14
485.524	4.15
485.725	4.15
485.926	4.14
486.127	4.16
486.329	4.11
486.53	4.1
486.731	4.08
486.932	4.04
487.134	4.08
487.335	4.11
487.536	4.09
487.737	4.11
487.938	4.11
488.139	4.15
488.341	4.17
488.542	4.18
488.743	4.23
488.944	4.26
489.145	4.29
489.346	4.32
489.547	4.33
489.748	4.34
489.949	4.34
490.15	4.36
490.351	4.31
490.552	4.31
490.753	4.34
490.954	4.32
491.155	4.36
491.356	4.31
491.557	4.31
491.758	4.31
491.959	4.33
492.159	4.38
492.36	4.37
492.561	4.42
492.762	4.43
492.963	4.41
493.164	4.41
493.364	4.36
493.565	4.41
493.766	4.43
493.967	4.43
494.167	4.44
494.368	4.38
494.569	4.37
494.769	4.34
494.97	4.34
495.171	4.39
495.371	4.44
495.572	4.48
495.773	4.5
495.973	4.47
496.174	4.53
496.375	4.58
496.575	4.59
496.776	4.63
496.976	4.69
497.177	4.68
497.377	4.7
497.578	4.65
497.778	4.69
497.979	4.75
498.179	4.71
498.38	4.71
498.58	4.73
498.78	4.76
498.981	4.75
499.181	4.73
499.382	4.79
499.582	4.81
499.782	4.85
499.983	4.85
500.183	4.85
500.383	4.96
500.584	5.04
500.784	4.99
500.984	5.13
501.184	5.19
501.385	5.28
501.585	5.35
501.785	5.34
501.985	5.38
502.185	5.4
502.386	5.26
502.586	5.29
502.786	5.26
502.986	5.29
503.186	5.19
503.386	5.28
503.586	5.22
503.786	5.21
503.987	5.29
504.187	5.26
504.387	5.29
504.587	5.47
504.787	5.37
504.987	5.44
505.187	5.47
505.387	5.53
505.587	5.5
505.786	5.55
505.986	5.54
506.186	5.5
506.386	5.57
506.586	5.62
506.786	5.59
506.986	5.75
507.186	5.72
507.386	5.79
507.585	5.73
507.785	5.67
507.985	5.71
508.185	5.76
508.384	5.75
508.584	5.76
508.784	5.78
508.984	5.79
509.183	5.8
509.383	5.8
509.583	5.8
509.782	5.89
509.982	6.01
510.182	5.98
510.381	6.05
510.581	6.14
510.781	6.17
510.98	6.17
511.18	6.22
511.379	6.22
511.579	6.33
511.778	6.33
511.978	6.37
512.177	6.37
512.377	6.44
512.576	6.42
512.776	6.47
512.975	6.55
513.175	6.65
513.374	6.68
513.573	6.78
513.773	6.82
513.972	6.94
514.172	6.98
514.371	7.05
514.57	7.11
514.77	7.14
514.969	7.21
515.168	7.15
515.367	7.15
515.567	7.3
515.766	7.24
515.965	7.28
516.164	7.33
516.364	7.4
516.563	7.51
516.762	7.58
516.961	7.74
517.16	7.76
517.359	7.87
517.559	7.9
517.758	7.9
517.957	8
518.156	7.98
518.355	8
518.554	8.05
518.753	8.03
518.952	8.06
519.151	8.06
519.35	8.1
519.549	8.11
519.748	8.22
519.947	8.29
520.146	8.36
520.345	8.42
520.544	8.53
520.743	8.57
520.942	8.7
521.141	8.78
521.339	8.82
521.538	8.89
521.737	8.98
521.936	9.06
522.135	9.09
522.333	9.18
522.532	9.32
522.731	9.4
522.93	9.45
523.129	9.54
523.327	9.65
523.526	9.71
523.725	9.85
523.923	9.84
524.122	9.9
524.321	9.9
524.519	9.89
524.718	10.02
524.917	10.08
525.115	10.16
525.314	10.15
525.512	10.19
525.711	10.29
525.909	10.32
526.108	10.48
526.306	10.52
526.505	10.64
526.703	10.71
526.902	10.67
527.1	10.71
527.299	10.76
527.497	10.81
527.696	10.89
527.894	10.94
528.092	11
528.291	11.03
528.489	11.1
528.688	11.17
528.886	11.26
529.084	11.36
529.283	11.43
529.481	11.51
529.679	11.62
529.877	11.63
530.076	11.7
530.274	11.79
530.472	11.92
530.67	11.98
530.869	12.03
531.067	12.1
531.265	12.18
531.463	12.3
531.661	12.35
531.859	12.42
532.057	12.53
532.255	12.63
532.454	12.69
532.652	12.72
532.85	12.84
533.048	12.91
533.246	12.94
533.444	13.01
533.642	13.02
533.84	13.14
534.038	13.21
534.236	13.29
534.434	13.35
534.632	13.45
534.83	13.48
535.027	13.54
535.225	13.66
535.423	13.77
535.621	13.86
535.819	14.01
536.017	14.06
536.215	14.07
536.412	14.18
536.61	14.23
536.808	14.28
537.006	14.42
537.203	14.48
537.401	14.57
537.599	14.7
537.797	14.73
537.994	14.72
538.192	14.73
538.39	14.89
538.587	14.95
538.785	15.06
538.983	15.06
539.18	15.17
539.378	15.18
539.575	15.26
539.773	15.27
539.97	15.34
540.168	15.4
540.366	15.54
540.563	15.56
540.761	15.56
540.958	15.63
541.155	15.71
541.353	15.77
541.55	15.81
541.748	15.82
541.945	15.91
542.143	15.94
542.34	16.02
542.537	16.03
542.735	16.14
542.932	16.23
543.129	16.22
543.327	16.27
543.524	16.29
543.721	16.43
543.919	16.5
544.116	16.51
544.313	16.63
544.51	16.71
544.708	16.77
544.905	16.81
545.102	16.87
545.299	16.95
545.496	17.05
545.693	17.11
545.891	17.18
546.088	17.22
546.285	17.27
546.482	17.34
546.679	17.41
546.876	17.45
547.073	17.48
547.27	17.61
547.467	17.71
547.664	17.79
547.861	17.86
548.058	17.89
548.255	18.02
548.452	18.16
548.649	18.16
548.846	18.23
549.043	18.36
549.24	18.52
549.437	18.61
549.633	18.68
549.83	18.68
550.027	18.71
550.224	18.88
550.421	18.9
550.618	18.99
550.814	19.09
551.011	19.16
551.208	19.21
551.405	19.22
551.601	19.14
551.798	19.28
551.995	19.46
552.191	19.57
552.388	19.53
552.585	19.58
552.781	19.58
552.978	19.7
553.175	19.6
553.371	19.64
553.568	19.73
553.764	19.82
553.961	19.72
554.157	19.79
554.354	19.78
554.55	19.87
554.747	19.93
554.943	19.98
555.14	20.01
555.336	20.25
555.533	20.27
555.729	20.26
555.926	20.4
556.122	20.49
556.318	20.33
556.515	20.44
556.711	20.43
556.907	20.58
557.104	20.6
557.3	20.68
557.496	20.65
557.693	20.68
557.889	20.82
558.085	20.91
558.281	20.98
558.478	21.18
558.674	21.25
558.87	21.25
559.066	21.26
559.262	21.4
559.459	21.34
559.655	21.52
559.851	21.6
560.047	21.57
560.243	21.53
560.439	21.54
560.635	21.55
560.831	21.59
561.027	21.73
561.223	21.77
561.419	21.75
561.615	21.92
561.811	21.77
562.007	21.75
562.203	21.76
562.399	21.81
562.595	21.85
562.791	21.96
562.987	21.93
563.183	21.97
563.379	21.95
563.575	22.02
563.771	22.01
563.966	22.09
564.162	22.14
564.358	22.27
564.554	22.28
564.75	22.35
564.945	22.21
565.141	22.25
565.337	22.27
565.533	22.26
565.728	22.28
565.924	22.28
566.12	22.33
566.315	22.43
566.511	22.43
566.707	22.51
566.902	22.55
567.098	22.66
567.293	22.72
567.489	22.75
567.684	22.89
567.88	22.99
568.076	23.03
568.271	23.09
568.467	23.24
568.662	23.26
568.858	23.18
569.053	23.23
569.248	23.38
569.444	23.43
569.639	23.41
569.835	23.29
570.03	23.31
570.225	23.32
570.421	23.34
570.616	23.35
570.812	23.42
571.007	23.55
571.202	23.57
571.397	23.58
571.593	23.6
571.788	23.61
571.983	23.63
572.178	23.64
572.374	23.74
572.569	23.78
572.764	23.71
572.959	23.79
573.154	23.79
573.35	23.73
573.545	23.76
573.74	23.82
573.935	23.85
574.13	23.95
574.325	24.01
574.52	23.97
574.715	23.99
574.91	23.98
575.105	23.9
575.3	23.94
575.495	24.08
575.69	24.15
575.885	24.32
576.08	24.49
576.275	24.5
576.47	24.51
576.665	24.64
576.86	24.73
577.055	24.83
577.25	24.91
577.444	24.95
577.639	24.98
577.834	24.93
578.029	24.83
578.224	24.79
578.418	24.8
578.613	24.86
578.808	24.77
579.003	24.77
579.197	24.77
579.392	24.87
579.587	24.95
579.781	25.08
579.976	25.23
580.171	25.32
580.365	25.42
580.56	25.45
580.755	25.54
580.949	25.69
581.144	25.73
581.338	25.78
581.533	25.88
581.727	25.9
581.922	25.86
582.116	25.77
582.311	25.68
582.505	25.63
582.7	25.8
582.894	25.81
583.089	25.88
583.283	25.79
583.478	25.96
583.672	25.98
583.866	26
584.061	26.07
584.255	26.2
584.449	26.33
584.644	26.47
584.838	26.37
585.032	26.28
585.226	26.31
585.421	26.49
585.615	26.47
585.809	26.34
586.003	26.37
586.198	26.3
586.392	26.31
586.586	26.25
586.78	26.15
586.974	26.26
587.168	26.27
587.363	26.29
587.557	26.19
587.751	26.14
587.945	26.16
588.139	26.12
588.333	26.23
588.527	26.1
588.721	26.14
588.915	26.1
589.109	26.13
589.303	26.18
589.497	26.16
589.691	26.21
589.885	26.25
590.079	26.39
590.273	26.47
590.466	26.42
590.66	26.66
590.854	26.73
591.048	26.77
591.242	26.88
591.436	26.79
591.629	26.72
591.823	26.85
592.017	26.98
592.211	26.99
592.404	26.89
592.598	26.94
592.792	26.91
592.986	26.93
593.179	26.88
593.373	26.67
593.567	26.78
593.76	26.89
593.954	26.88
594.147	26.84
594.341	26.69
594.535	26.64
594.728	26.55
594.922	26.4
595.115	26.43
595.309	26.44
595.502	26.53
595.696	26.44
595.889	26.42
596.083	26.42
596.276	26.46
596.47	26.61
596.663	26.68
596.856	26.74
597.05	26.84
597.243	26.79
597.437	26.8
597.63	26.91
597.823	27.01
598.017	26.95
598.21	26.99
598.403	26.97
598.596	26.88
598.79	26.9
598.983	26.93
599.176	26.95
599.369	27.1
599.563	27.3
599.756	27.18
599.949	27.2
600.142	27.3
600.335	27.31
600.528	27.25
600.722	27.26
600.915	27.42
601.108	27.35
601.301	27.29
601.494	27.25
601.687	27.21
601.88	27.16
602.073	27.09
602.266	27.07
602.459	26.93
602.652	26.91
602.845	26.88
603.038	26.73
603.231	26.77
603.424	26.79
603.617	26.83
603.809	26.81
604.002	27.01
604.195	27.02
604.388	27.02
604.581	26.98
604.774	27.02
604.966	27.07
605.159	27.13
605.352	27.09
605.545	27.14
605.737	26.98
605.93	27.04
606.123	26.94
606.316	27.19
606.508	27.36
606.701	27.57
606.894	27.7
607.086	27.72
607.279	27.82
607.471	27.97
607.664	28.15
607.857	28.34
608.049	28.44
608.242	28.53
608.434	28.6
608.627	28.72
608.819	29
609.012	29.23
609.204	29.64
609.397	29.92
609.589	30.3
609.782	30.49
609.974	30.94
610.166	31.32
610.359	31.68
610.551	32.09
610.743	32.38
610.936	32.64
611.128	32.89
611.32	33.03
611.513	33.21
611.705	33.27
611.897	33.37
612.09	33.19
612.282	33.11
612.474	33.05
612.666	32.8
612.858	32.7
613.051	32.43
613.243	32.18
613.435	32.13
613.627	31.89
613.819	31.68
614.011	31.78
614.203	31.8
614.395	31.68
614.588	31.63
614.78	31.45
614.972	31.23
615.164	31.16
615.356	30.98
615.548	30.64
615.74	30.58
615.932	30.77
616.124	30.3
616.315	30.23
616.507	30.05
616.699	29.91
616.891	30.03
617.083	30.05
617.275	30.02
617.467	30.08
617.659	30.17
617.85	29.94
618.042	29.7
618.234	29.76
618.426	29.55
618.618	29.51
618.809	29.53
619.001	29.37
619.193	29.27
619.384	29.3
619.576	29.39
619.768	29.25
619.959	29.49
620.151	29.41
620.343	29.29
620.534	29.44
620.726	29.35
620.917	29.23
621.109	29.18
621.301	29.2
621.492	29.12
621.684	28.95
621.875	29
622.067	28.92
622.258	28.88
622.45	29.04
622.641	28.97
622.832	29.27
623.024	29.45
623.215	29.6
623.407	29.69
623.598	29.74
623.789	29.88
623.981	30.04
624.172	30.14
624.363	30.23
624.555	30.05
624.746	29.94
624.937	29.79
625.129	29.62
625.32	29.54
625.511	29.61
625.702	29.51
625.893	29.36
626.085	29.32
626.276	29.24
626.467	29.07
626.658	29.04
626.849	29.08
627.04	29.09
627.231	29.13
627.422	29.29
627.614	29.1
627.805	29.25
627.996	29.32
628.187	29.28
628.378	29.39
628.569	29.82
628.76	30.19
628.951	30.45
629.142	30.51
629.332	30.5
629.523	30.54
629.714	30.86
629.905	30.89
630.096	31.06
630.287	31.18
630.478	31.17
630.669	30.89
630.859	30.65
631.05	30.53
631.241	30.54
631.432	30.65
631.623	30.34
631.813	30.24
632.004	30.14
632.195	30.07
632.385	29.82
632.576	29.83
632.767	29.73
632.957	29.8
633.148	29.69
633.339	29.62
633.529	29.49
633.72	29.48
633.91	29.14
634.101	29.07
634.292	28.89
634.482	28.99
634.673	28.86
634.863	28.95
635.054	29.01
635.244	29.02
635.435	29.06
635.625	29.1
635.815	29.07
636.006	29.25
636.196	29.19
636.387	29.27
636.577	29.16
636.767	29.29
636.958	29.35
637.148	29.25
637.338	29.17
637.529	29.22
637.719	29.22
637.909	29.34
638.099	29.43
638.29	29.44
638.48	29.55
638.67	29.83
638.86	29.83
639.05	29.78
639.241	29.86
639.431	29.98
639.621	29.81
639.811	29.83
640.001	29.85
640.191	29.86
640.381	30.04
640.571	30.1
640.761	29.96
640.951	29.84
641.141	29.99
641.331	30.09
641.521	30.03
641.711	30.23
641.901	30.23
642.091	30.48
642.281	30.61
642.471	30.69
642.661	30.65
642.851	30.75
643.041	30.87
643.231	30.97
643.42	30.92
643.61	30.86
643.8	31.09
643.99	31.13
644.18	30.81
644.369	30.55
644.559	30.62
644.749	30.64
644.939	30.42
645.128	30.4
645.318	30.14
645.508	30.03
645.697	30.28
645.887	29.87
646.076	29.78
646.266	29.92
646.456	30.07
646.645	29.97
646.835	30.02
647.024	30.12
647.214	30.19
647.403	30.39
647.593	30.32
647.782	30.23
647.972	30.23
648.161	30.4
648.351	30.16
648.54	30.19
648.73	30.13
648.919	29.99
649.108	30.12
649.298	29.96
649.487	29.87
649.677	29.97
649.866	30
650.055	30.05
650.244	30.05
650.434	30.4
650.623	30.49
650.812	30.45
651.002	30.59
651.191	30.42
651.38	30.63
651.569	30.6
651.758	30.68
651.947	30.78
652.137	30.94
652.326	30.95
652.515	30.78
652.704	30.9
652.893	30.94
653.082	30.83
653.271	31.02
653.46	30.83
653.649	30.53
653.838	30.42
654.027	30.35
654.216	30.27
654.405	30.26
654.594	30.29
654.783	30.05
654.972	30.1
655.161	30.35
655.35	30.18
655.539	30.13
655.728	30.61
655.916	30.66
656.105	30.76
656.294	30.76
656.483	30.78
656.672	30.86
656.86	30.85
657.049	30.7
657.238	30.41
657.427	30.44
657.615	30.54
657.804	30.29
657.993	30.37
658.181	30.08
658.37	30.17
658.559	30.01
658.747	29.95
658.936	30.1
659.125	30.02
659.313	29.93
659.502	29.79
659.69	29.62
659.879	29.79
660.067	29.59
660.256	29.8
660.444	29.65
660.633	29.77
660.821	29.87
661.01	29.77
661.198	29.77
661.387	30.1
661.575	30.34
661.763	30.58
661.952	30.59
662.14	30.64
662.328	30.59
662.517	30.75
662.705	30.87
662.893	30.68
663.082	30.79
663.27	30.98
663.458	30.93
663.646	31
663.834	30.87
664.023	30.64
664.211	30.89
664.399	30.9
664.587	30.82
664.775	30.71
664.963	30.73
665.152	30.58
665.34	30.81
665.528	30.77
665.716	30.69
665.904	30.82
666.092	30.95
666.28	30.81
666.468	30.77
666.656	30.75
666.844	31.01
667.032	31.13
667.22	31.05
667.408	30.88
667.596	30.56
667.784	30.32
667.971	30.44
668.159	30.41
668.347	30.7
668.535	30.91
668.723	31.15
668.911	31.2
669.098	31.17
669.286	31.47
669.474	31.36
669.662	31.57
669.849	31.78
670.037	31.67
670.225	31.92
670.413	31.66
670.6	31.69
670.788	31.36
670.976	31.08
671.163	31.11
671.351	31.04
671.538	31.25
671.726	31.41
671.913	31.44
672.101	31.46
672.289	31.37
672.476	31.55
672.664	31.51
672.851	31.67
673.039	31.68
673.226	31.84
673.413	31.72
673.601	31.78
673.788	31.5
673.976	31.52
674.163	31.53
674.35	31.36
674.538	31.27
674.725	31.23
674.912	31.28
675.1	31.38
675.287	31.1
675.474	30.96
675.662	30.92
675.849	31.13
676.036	31.06
676.223	31.42
676.411	31.59
676.598	31.54
676.785	31.81
676.972	31.82
677.159	31.97
677.346	31.89
677.533	32.2
677.721	32.16
677.908	32.28
678.095	32.31
678.282	32.01
678.469	32.02
678.656	32.05
678.843	31.59
679.03	31.66
679.217	31.68
679.404	31.84
679.591	31.76
679.778	31.87
679.964	31.73
680.151	31.73
680.338	31.76
680.525	31.66
680.712	31.75
680.899	31.93
681.086	31.68
681.272	31.73
681.459	31.59
681.646	31.53
681.833	31.38
682.02	31.39
682.206	31.55
682.393	31.56
682.58	31.69
682.766	31.64
682.953	31.69
683.14	32.03
683.326	32.01
683.513	32.2
683.7	32.4
683.886	32.47
684.073	32.69
684.259	32.51
684.446	32.35
684.632	32.34
684.819	32.31
685.005	32.37
685.192	32.52
685.378	32.18
685.565	32.15
685.751	32.14
685.938	31.94
686.124	31.95
686.31	32.08
686.497	32.39
686.683	32.32
686.87	32.26
687.056	31.94
687.242	31.76
687.429	32.29
687.615	32.34
687.801	32.43
687.987	32.55
688.174	32.21
688.36	32.21
688.546	32.1
688.732	32.47
688.918	32.6
689.105	32.71
689.291	32.49
689.477	32.57
689.663	32.61
689.849	32.5
690.035	32.58
690.221	32.97
690.407	32.98
690.593	32.87
690.779	32.55
690.965	32.55
691.151	32.92
691.337	33.08
691.523	32.77
691.709	32.52
691.895	32.46
692.081	32.44
692.267	32.1
692.453	32.15
692.639	32.24
692.825	32.32
693.011	32.22
693.196	31.95
693.382	32.12
693.568	32.25
693.754	32.61
693.94	32.76
694.125	32.65
694.311	32.92
694.497	32.95
694.682	33
694.868	32.8
695.054	32.64
695.239	32.82
695.425	32.88
695.611	32.31
695.796	32.48
695.982	31.98
696.168	32.16
696.353	32.03
696.539	31.78
696.724	31.57
696.91	31.77
697.095	31.61
697.281	31.44
697.466	31.14
697.652	31.28
697.837	30.96
698.023	31
698.208	30.58
698.393	30.6
698.579	30.49
698.764	30.44
698.949	30.36
699.135	30.57
699.32	30.38
699.505	30.39
699.691	30.27
699.876	30.27
700.061	30.52
700.246	31.18
700.432	31.02
700.617	31.26
700.802	31.56
700.987	31.68
701.172	32.46
701.358	32.72
701.543	33.21
701.728	33.71
701.913	33.92
702.098	34.09
702.283	33.89
702.468	34.04
702.653	34.35
702.838	34.35
703.023	34.6
703.208	34.03
703.393	34.36
703.578	33.92
703.763	33.92
703.948	34.2
704.133	34
704.318	34.17
704.503	34.9
704.688	35.03
704.873	35.34
705.057	35.16
705.242	35.09
705.427	35.22
705.612	35.68
705.797	35.98
705.981	36.06
706.166	36.57
706.351	36.61
706.536	36.44
706.72	36.35
706.905	35.97
707.09	36.22
707.274	36.13
707.459	35.97
707.644	35.91
707.828	35.67
708.013	35.18
708.197	34.64
708.382	34.74
708.567	34.85
708.751	34.65
708.936	34.96
709.12	34.54
709.305	34.4
709.489	34.55
709.673	34.26
709.858	34.39
710.042	34.72
710.227	35.05
710.411	34.86
710.596	34.63
710.78	34.83
710.964	34.78
711.149	34.92
711.333	35.08
711.517	35.07
711.702	35.42
711.886	35.35
712.07	35.22
712.254	35.11
712.438	35.11
712.623	35.01
712.807	35.03
712.991	34.88
713.175	34.84
713.359	34.78
713.544	34.57
713.728	34.34
713.912	34.2
714.096	34.05
714.28	33.81
714.464	33.9
714.648	33.53
714.832	33.38
715.016	33.29
715.2	33.49
715.384	33.4
715.568	33.03
715.752	33.07
715.936	32.75
716.12	32.73
716.304	32.5
716.488	32.31
716.671	32.53
716.855	32.62
717.039	32.53
717.223	32.21
717.407	32.01
717.59	32.3
717.774	31.69
717.958	31.75
718.142	32.31
718.325	32.87
718.509	32.76
718.693	33.02
718.877	32.74
719.06	33.17
719.244	33.4
719.428	33.67
719.611	34.07
719.795	34.79
719.978	35.17
720.162	34.84
720.345	34.84
720.529	35.06
720.713	34.92
720.896	35.2
721.08	34.45
721.263	34.47
721.446	34.54
721.63	34
721.813	34.22
721.997	34.16
722.18	34.01
722.364	33.4
722.547	33.38
722.73	32.91
722.914	32.72
723.097	33.51
723.28	33.59
723.464	33.66
723.647	33.99
723.83	33.49
724.013	33.3
724.197	33.38
724.38	33.99
724.563	33.47
724.746	34.12
724.929	34.2
725.112	34.03
725.296	33.67
725.479	33.46
725.662	33.26
725.845	33.59
726.028	33.44
726.211	33.14
726.394	32.96
726.577	33.71
726.76	33.59
726.943	33.42
727.126	32.83
727.309	33.03
727.492	33.55
727.675	33.83
727.858	33.49
728.041	33.65
728.224	34.02
728.407	34.07
728.589	33.49
728.772	33.3
728.955	33.46
729.138	33.86
729.321	33.84
729.503	33.55
729.686	33.08
729.869	32.86
730.052	32.99
730.234	33.06
730.417	33.11
730.6	33.2
730.782	33.13
730.965	33
731.148	33.28
731.33	33.04
731.513	32.59
731.695	32.62
731.878	33.18
732.061	33.02
732.243	33.25
732.426	33.06
732.608	33.08
732.791	33.48
732.973	33.62
733.156	33.45
733.338	33.76
733.52	34.57
733.703	34.96
733.885	34.93
734.068	35.03
734.25	34.6
734.432	34.85
734.615	34.98
734.797	34.64
734.979	34.53
735.162	34.52
735.344	34.19
735.526	33.97
735.708	33.68
735.891	33.49
736.073	33.28
736.255	33.87
736.437	33.93
736.619	33.73
736.802	34.05
736.984	34.17
737.166	33.8
737.348	34.27
737.53	34.09
737.712	34.66
737.894	35.45
738.076	36.24
738.258	36.15
738.44	36.25
738.622	37.11
738.804	37.02
738.986	37.08
739.168	37.58
739.35	37.43
739.532	37.12
739.714	37.04
739.896	35.88
740.078	35.47
740.259	35.55
740.441	35.69
740.623	35.55
740.805	35.82
740.987	36.04
741.168	35.73
741.35	35.91
741.532	36.14
741.714	36.06
741.895	36.62
742.077	36.85
742.259	37.05
742.44	37.77
742.622	37.14
742.804	36.55
742.985	36.58
743.167	36.81
743.348	36.94
743.53	37.12
743.711	37
743.893	36.84
744.075	36.76
744.256	35.95
744.438	34.77
744.619	35.2
744.8	35.24
744.982	35.31
745.163	35.37
745.345	35.43
745.526	35.88
745.707	35.91
745.889	36.49
746.07	36.27
746.252	37.58
746.433	37.85
746.614	37.58
746.795	38.48
746.977	38.43
747.158	38.73
747.339	39.22
747.52	38.82
747.702	38.97
747.883	38.56
748.064	39.06
748.245	37.82
748.426	37.79
748.607	38.36
748.788	38.34
748.97	38.3
749.151	37.89
749.332	37.48
749.513	37.6
749.694	37.59
749.875	37.56
750.056	37.16
750.237	37.19
750.418	37.67
750.599	38.35
750.78	38.2
750.96	37.99
751.141	38.55
751.322	37.94
751.503	37.97
751.684	37.64
751.865	37.35
752.046	37.62
752.226	37.88
752.407	37.08
752.588	36.09
752.769	35.99
752.949	35.97
753.13	35.83
753.311	36.09
753.492	36.35
753.672	36.42
753.853	36.71
754.034	36.36
754.214	36.24
754.395	36.62
754.575	36.57
754.756	36.62
754.937	36.72
755.117	36.53
755.298	36.55
755.478	36.39
755.659	36.65
755.839	36.68
756.02	36.87
756.2	37.35
756.381	37.61
756.561	37.88
756.741	37.41
756.922	37.58
757.102	37.59
757.283	37.46
757.463	37.13
757.643	37.29
757.823	37.95
758.004	38.13
758.184	37.95
758.364	37.7
758.545	37.12
758.725	37.6
758.905	37.07
759.085	36.52
759.265	36.82
759.446	36.84
759.626	37
759.806	36.31
759.986	35.65
760.166	34.91
760.346	34.34
760.526	34.66
760.706	34.09
760.886	34.24
761.066	34.64
761.246	34.65
761.426	34.66
761.606	33.99
761.786	33.69
761.966	34.03
762.146	34.44
762.326	34.25
762.506	33.56
762.686	33.75
762.866	33.48
763.046	33.31
763.225	32.63
763.405	32.33
763.585	31.99
763.765	31.81
763.945	31.57
764.124	31.4
764.304	31.37
764.484	31.68
764.664	31.72
764.843	32.01
765.023	32.22
765.203	32.91
765.382	33.27
765.562	34.28
765.741	34.73
765.921	35.36
766.101	35.52
766.28	36.63
766.46	37.32
766.639	37.13
766.819	37.22
766.998	37.2
767.178	37.19
767.357	37.08
767.537	36.96
767.716	36.82
767.896	36.59
768.075	36.84
768.254	36.16
768.434	36.16
768.613	36.83
768.792	37.17
768.972	37.19
769.151	36.82
769.33	37.68
769.51	37.29
769.689	37.92
769.868	38.09
770.047	38.14
770.226	38.37
770.406	38.15
770.585	38.33
770.764	38.49
770.943	39.07
771.122	39.24
771.301	38.87
771.48	39.76
771.66	40.25
771.839	40.19
772.018	40.46
772.197	40.8
772.376	41.53
772.555	41.35
772.734	41.75
772.913	41.18
773.092	41.33
773.271	41.27
773.449	40.86
773.628	40.17
773.807	40.19
773.986	40.4
774.165	40.23
774.344	39.63
774.523	39.64
774.701	38.42
774.88	38.22
775.059	38.84
775.238	39.17
775.417	38.51
775.595	39.23
775.774	38.85
775.953	38.89
776.131	39.26
776.31	39.04
776.489	39.16
776.667	40.11
776.846	40.71
777.025	39.9
777.203	39.41
777.382	39.84
777.56	39.61
777.739	40.7
777.917	39.95
778.096	40.12
778.274	40.63
778.453	40.95
778.631	41.47
778.81	41.57
778.988	41.75
779.166	42.16
779.345	41.99
779.523	42.21
779.702	41.75
779.88	42.95
780.058	42.59
780.237	42.63
780.415	42.14
780.593	42.46
780.771	43.65
780.95	44.92
781.128	44.17
781.306	44.79
781.484	43.82
781.662	43.79
781.841	42.9
782.019	42.04
782.197	42.2
782.375	42.17
782.553	41.23
782.731	40.73
782.909	39.67
783.087	40.35
783.265	40.56
783.443	41.2
783.621	41.66
783.799	41.56
783.977	42.77
784.155	42.41
784.333	41.77
784.511	41.82
784.689	40.64
784.867	40.68
785.045	40.8
785.223	40.33
785.4	40.07
785.578	39.97
785.756	39.59
785.934	40.17
786.112	39.95
786.289	40.54
786.467	40.18
786.645	40.06
786.823	40.37
787	39.97
787.178	39.53
787.356	39.59
787.533	40.17
787.711	40.62
787.889	39.49
788.066	39.61
788.244	38.89
788.421	38.24
788.599	38.43
788.776	37.91
788.954	38.03
789.131	38.06
789.309	38.41
789.486	36.67
789.664	37.24
789.841	37.4
790.019	37.96
790.196	38.51
790.373	39.64
790.551	39.73
790.728	39.89
790.906	39.7
791.083	41.7
791.26	41.31
791.437	42.35
791.615	41.51
791.792	41.79
791.969	41.3
792.146	41.88
792.324	41.56
792.501	41.44
792.678	41.76
792.855	42.1
793.032	41.11
793.209	40.42
793.387	40.22
793.564	40.69
793.741	40.6
793.918	40.59
794.095	39.42
794.272	40.27
794.449	40.17
794.626	39.46
794.803	39.37
794.98	38.35
795.157	38.79
795.334	38.91
795.511	39.06
795.688	39.29
795.864	39.04
796.041	39.05
796.218	38.26
796.395	38.63
796.572	38.82
796.749	37.75
796.925	37.85
797.102	37.93
797.279	38.04
797.456	38.08
797.632	38.57
797.809	38.58
797.986	39.2
798.162	39.64
798.339	39.19
798.516	39.77
798.692	42.29
798.869	43.1
799.046	43.17
799.222	42.78
799.399	42.23
799.575	41.79
799.752	41.35
799.928	41.92
800.105	41.64
800.281	41.78
800.458	41.72
800.634	39.98
800.811	39.31
800.987	39.77
801.163	39.45
801.34	39.74
801.516	39.96
801.692	41.25
801.869	40.6
802.045	39.73
802.221	39.59
802.398	40.03
802.574	40.57
802.75	41.11
802.926	40.82
803.103	41.05
803.279	42.45
803.455	42.3
803.631	42.15
803.807	42.39
803.983	43.58
804.16	45.25
804.336	44.93
804.512	44.31
804.688	44.71
804.864	45.08
805.04	45.2
805.216	44.09
805.392	43.84
805.568	44.37
805.744	45.1
805.92	44.42
806.096	44.07
806.272	42.71
806.448	43.54
806.623	42.35
806.799	42.33
806.975	42.99
807.151	42.42
807.327	42.11
807.503	40.56
807.678	40.37
807.854	40.73
808.03	40.61
808.206	42.11
808.381	40.83
808.557	39.85
808.733	39.32
808.908	39.83
809.084	39.92
809.26	39.85
809.435	40.5
809.611	39.6
809.787	39.92
809.962	39.45
810.138	39.87
810.313	41.33
810.489	43.24
810.664	43.49
810.84	41.38
811.015	40.76
811.191	40.99
811.366	41.36
811.542	42.01
811.717	41.61
811.892	40.99
812.068	39.84
812.243	39.73
812.419	39.9
812.594	39.37
812.769	41.2
812.944	41.63
813.12	40.7
813.295	39.83
813.47	39.29
813.645	38.96
813.821	39.35
813.996	39.3
814.171	37.8
814.346	38.49
814.521	39.56
814.697	39.86
814.872	40.2
815.047	41.36
815.222	40.41
815.397	40.55
815.572	41.53
815.747	42.75
815.922	42.84
816.097	43.63
816.272	41.87
816.447	41.07
816.622	40.87
816.797	40.36
816.972	42.08
817.147	42.44
817.322	43.3
817.496	43.13
817.671	40.78
817.846	40.07
818.021	39.88
818.196	40.1
818.371	40.28
818.545	39.36
818.72	39.64
818.895	37.83
819.069	37.93
819.244	36.81
819.419	36.57
819.594	36.52
819.768	35.85
819.943	34.81
820.117	34.06
820.292	33.21
820.467	33.05
820.641	31.86
820.816	31.55
820.99	31.05
821.165	31.12
821.339	30.52
821.514	30.18
821.688	29.83
821.863	29.73
822.037	29.55
822.212	29.4
822.386	28.75
822.56	29
822.735	29.01
822.909	29.05
823.084	28.72
823.258	28.6
823.432	28.58
823.606	28.81
823.781	29.03
823.955	29.23
824.129	29.4
824.303	29.96
824.478	29.95
824.652	29.95
824.826	29.76
825	30.06
825.174	30.47
825.348	30.79
825.523	30.75
825.697	30.34
825.871	30.37
826.045	30.67
826.219	30.77
826.393	31.02
826.567	31.28
826.741	31.34
826.915	31.14
827.089	31.55
827.263	31.61
827.437	32.02
827.611	32.27
827.784	31.92
827.958	31.81
828.132	32.05
828.306	32.07
828.48	31.42
828.654	31.71
828.827	32.33
829.001	31.92
829.175	32.63
829.349	32.48
829.522	33
829.696	34.3
829.87	35.21
830.044	35.57
830.217	35.92
830.391	37.48
830.565	38.86
830.738	39.1
830.912	39.64
831.085	38.9
831.259	40.11
831.432	40.55
831.606	39.41
831.779	39.31
831.953	38.32
832.126	38.09
832.3	37.76
832.473	36.88
832.647	36.34
832.82	35.89
832.994	35.96
833.167	35.38
833.34	34.89
833.514	34.74
833.687	33.92
833.86	33.51
834.034	32.58
834.207	32.86
834.38	32.52
834.553	32.84
834.727	32.45
834.9	32.3
835.073	32.02
835.246	31.63
835.419	32.18
835.593	32.42
835.766	32.67
835.939	34.58
836.112	33.95
836.285	33.8
836.458	33.94
836.631	34.41
836.804	35.3
836.977	36
837.15	37.68
837.323	39.4
837.496	40.33
837.669	40.67
837.842	40.08
838.015	41.88
838.188	44.53
838.361	44.04
838.533	45.31
838.706	46.12
838.879	45.48
839.052	44.7
839.225	44.69
839.398	42.85
839.57	44.91
839.743	44.46
839.916	44.2
840.088	43.11
840.261	44.88
840.434	44.06
840.607	42
840.779	42.99
840.952	42.71
841.124	40.2
841.297	41.75
841.47	40.98
841.642	42.19
841.815	40.62
841.987	41.68
842.16	43.1
842.332	44.38
842.505	45
842.677	46.5
842.85	48.7
843.022	52.68
843.194	53.19
843.367	54.78
843.539	55.73
843.712	58.05
843.884	58.22
844.056	56.38
844.229	55.56
844.401	58.53
844.573	57.46
844.745	57.43
844.918	55.89
845.09	58.03
845.262	55.97
845.434	55.47
845.606	54.88
845.779	58.25
845.951	58.22
846.123	58.82
846.295	59.31
846.467	63.53
846.639	65.53
846.811	64.94
846.983	64.26
847.155	62.76
847.327	61.08
847.499	64.22
847.671	62.3
847.843	59.95
848.015	64.11
848.187	63.15
848.359	59.39
848.531	55.71
848.703	56.26
848.875	58.11
849.047	64.55
849.218	67.2
849.39	70.55
849.562	70.18
849.734	74.24
849.905	74.92
850.077	74.86
850.249	74.23
850.421	76.06
850.592	74.25
850.764	71.45
850.936	65.6
851.107	63.43
851.279	58.88
851.451	55.67
851.622	50.2
851.794	48.71
851.965	51.84
852.137	52.08
852.308	51.55
852.48	56.45
852.651	57.99
852.823	60.34
852.994	61.27
853.166	61.52
853.337	65.47
853.509	72.87
853.68	72.72
853.851	71.31
854.023	72.35
854.194	74.64
854.365	72.13
854.537	76.94
854.708	78.23
854.879	80.91
855.05	80.39
855.222	83.1
855.393	81.06
855.564	81.65
855.735	83.34
855.906	85.65
856.078	84.81
856.249	84.7
856.42	80.59
856.591	81.67
856.762	80.16
856.933	81.06
857.104	79.01
857.275	74.48
857.446	75.63
857.617	72.59
857.788	68.68
857.959	68.59
858.13	70.34
858.301	69.08
858.472	69.72
858.643	72.47
858.814	71.1
858.985	68.95
859.155	72.47
859.326	73.39
859.497	75.26
859.668	79.1
859.839	83.28
860.009	80.58
860.18	82.52
860.351	84.91
860.522	79.8
860.692	82.11
860.863	83.73
861.034	84.76
861.204	78.21
861.375	79
861.546	77.61
861.716	72.31
861.887	73.51
862.057	66.02
862.228	65.24
862.398	68.62
862.569	69.89
862.739	70.12
862.91	70.07
863.08	71.08
863.251	69.18
863.421	70.89
863.592	72.81
863.762	69.18
863.932	77.06
864.103	74.18
864.273	72.05
864.443	70.05
864.614	68.41
864.784	67.78
864.954	72.06
865.125	73.59
865.295	72.59
865.465	79.18
865.635	81.95
865.805	82.77
865.976	82.19
866.146	83.43
866.316	83.46
866.486	85.54
866.656	82.73
866.826	79.7
866.996	81.66
867.166	78.61
867.336	74.38
867.506	76.62
867.676	78.12
867.846	76.41
868.016	68.75
868.186	68.24
868.356	68.72
868.526	72.67
868.696	71.79
868.866	72.41
869.036	71.71
869.206	72.51
869.376	69.61
869.545	67.85
869.715	66.44
869.885	70.67
870.055	73.7
870.224	73.31
870.394	72.55
870.564	73.97
870.734	66.99
870.903	73.89
871.073	72.95
871.243	73.46
871.412	69.46
871.582	70.77
871.751	76.73
871.921	72.77
872.091	74.46
872.26	70.38
872.43	68.99
872.599	72.95
872.769	70.36
872.938	66.95
873.108	69.8
873.277	71.58
873.446	73.96
873.616	71.59
873.785	76.05
873.955	71.46
874.124	73.36
874.293	75.84
874.463	72.16
874.632	69.95
874.801	68.58
874.971	64.88
875.14	64.8
875.309	66.96
875.478	64.98
875.647	59.27
875.817	64.74
875.986	65.64
876.155	69.3
876.324	70.88
876.493	74.58
876.662	77.08
876.831	76.56
877	74.26
877.17	71.65
877.339	72.18
877.508	73.52
877.677	72.39
877.846	73.9
878.015	67.45
878.184	69.44
878.352	66.18
878.521	65.11
878.69	67.03
878.859	66.45
879.028	64.9
879.197	63.19
879.366	63.86
879.534	64.1
879.703	58.79
879.872	56.1
880.041	50.19
880.21	47.25
880.378	43.59
880.547	41.48
880.716	38.72
880.884	38.1
881.053	36.57
881.222	33.66
881.39	32.06
881.559	32.72
881.727	32.27
881.896	32.38
882.065	31.82
882.233	31.82
882.402	31.01
882.57	31.6
882.739	30.95
882.907	31.39
883.076	31.49
883.244	30.73
883.412	30.58
883.581	31.18
883.749	31.9
883.918	32.58
884.086	32.91
884.254	33.82
884.423	33.94
884.591	34.82
884.759	35.18
884.927	36.93
885.096	38.49
885.264	38.68
885.432	38.83
885.6	39.09
885.769	40.29
885.937	42.13
886.105	42.27
886.273	44.93
886.441	45.99
886.609	47.42
886.777	50.11
886.945	50.18
887.113	51.56
887.281	51.82
887.449	55.34
887.617	56.98
887.785	60.35
887.953	58.93
888.121	56.64
888.289	55.72
888.457	56.53
888.625	55.47
888.793	59.32
888.961	60.7
889.129	64.75
889.296	64.41
889.464	62.72
889.632	60.5
889.8	66.28
889.967	68.61
890.135	73.09
