Data from 2938791__Reflection_02.txt Node
Date: Fri Mar 13 11:13:59 EDT 2015
User: robert
Spectrometer: USB4E03002
Autoset integration time: false
Trigger mode: 4
Integration Time (sec): 1.000000E-1
Scans to average: 10
Electric dark correction enabled: false
Nonlinearity correction enabled: false
Boxcar width: 5
Stray light correction enabled: false
XAxis mode: Wavelengths
Stop averaging: false
Number of Pixels in Spectrum: 3648
>>>>>Begin Spectral Data<<<<<
177.575	-627.5
177.794	-6892.86
178.014	-913.91
178.233	-668.68
178.452	-411.04
178.672	-288.72
178.891	-320
179.11	-334.94
179.33	-323.46
179.549	-392.7
179.768	-419.82
179.987	-702.94
180.207	-437.47
180.426	-725.74
180.645	-1341.03
180.864	-5273.17
181.084	1611.94
181.303	2400
181.522	1157.63
181.741	2533.78
181.96	1083.52
182.179	503.16
182.398	442.77
182.618	374.79
182.837	430.22
183.056	312.86
183.275	321.86
183.494	379.41
183.713	345.03
183.932	350.28
184.151	343.42
184.37	380.53
184.589	460.84
184.808	529.76
185.027	496.65
185.246	491.73
185.465	1817.09
185.684	940.25
185.903	1081.28
186.122	1211.17
186.341	4215.69
186.56	1876.72
186.779	2531.33
186.998	1291.95
187.216	-3132.81
187.435	-759.85
187.654	-829.08
187.873	-1084.09
188.092	-2794.2
188.311	14976.92
188.53	-2214.81
188.748	5453.13
188.967	-830.77
189.186	-1040.12
189.405	-472.29
189.623	-1768.63
189.842	4397.87
190.061	1536.15
190.28	2173.91
190.498	-1102.94
190.717	-872.48
190.936	-699.63
191.154	-446.38
191.373	-1259.06
191.592	-1048.26
191.81	-851.9
192.029	-730.8
192.248	-718.07
192.466	-2774.65
192.685	-14164.29
192.904	-734.88
193.122	-3529.09
193.341	884.8
193.559	523.56
193.778	627.06
193.996	465.7
194.215	528.21
194.433	528.31
194.652	443.56
194.87	803.24
195.089	621.35
195.307	326.07
195.526	347.69
195.744	406.25
195.963	330.45
196.181	285.7
196.399	324.55
196.618	267.39
196.836	291.91
197.055	348.49
197.273	374.33
197.491	435.31
197.71	380.4
197.928	559.71
198.146	557.88
198.365	5106.25
198.583	-3054.72
198.801	-1114.39
199.019	-1147.66
199.238	-2858
199.456	985.91
199.674	512.41
199.892	393.07
200.111	630.9
200.329	539.66
200.547	486.22
200.765	355.2
200.983	313.93
201.202	362.41
201.42	459.82
201.638	498.17
201.856	803.06
202.074	1041.4
202.292	-2582.26
202.51	10725
202.728	6162.07
202.946	-2144.16
203.165	-2228.75
203.383	3703.85
203.601	1343.7
203.819	3229.09
204.037	660.07
204.255	732
204.473	873.27
204.691	512.25
204.909	446.26
205.127	418.4
205.345	492.68
205.562	606.77
205.78	738.06
205.998	747.23
206.216	454.7
206.434	667.3
206.652	395
206.87	399.52
207.088	364.86
207.306	533.55
207.523	482.23
207.741	366.38
207.959	341.5
208.177	496.88
208.395	539.47
208.612	738.85
208.83	576.49
209.048	663.09
209.266	829.44
209.483	718.95
209.701	761.96
209.919	1109.09
210.136	804.48
210.354	633.71
210.572	428.04
210.79	313.98
211.007	318.25
211.225	343.27
211.442	389.11
211.66	281.34
211.878	319.33
212.095	-768.03
212.313	-2015.96
212.53	-1393.33
212.748	-1018.05
212.966	-1834.19
213.183	-1246.99
213.401	-1829.46
213.618	3972.73
213.836	-11717.65
214.053	-6700
214.271	8246.15
214.488	208.06
214.705	228.16
214.923	190.8
215.14	198.37
215.358	216.08
215.575	244.91
215.793	242.02
216.01	343.73
216.227	324.56
216.445	338.6
216.662	339.33
216.879	478.99
217.097	381.88
217.314	325.56
217.531	228.55
217.749	201.79
217.966	164.64
218.183	150.73
218.4	137.11
218.618	143.72
218.835	112.7
219.052	124.2
219.269	102.97
219.487	113.07
219.704	128.82
219.921	136.58
220.138	135.07
220.355	138.87
220.572	125.6
220.79	116.49
221.007	115.01
221.224	126.61
221.441	119.84
221.658	124.48
221.875	119.37
222.092	115.75
222.309	108.59
222.526	107.14
222.743	107.67
222.96	115.28
223.177	118.77
223.394	108.2
223.611	108.5
223.828	106.29
224.045	100.63
224.262	96.83
224.479	85.63
224.696	80.21
224.913	77.55
225.13	72.6
225.347	65.42
225.564	63.19
225.781	62.04
225.997	55.85
226.214	49.88
226.431	45.95
226.648	41.32
226.865	39.68
227.082	36.36
227.298	29.74
227.515	25.83
227.732	22.38
227.949	19.43
228.165	17.9
228.382	15.82
228.599	16.25
228.816	15.81
229.032	14.91
229.249	14.05
229.466	12.96
229.682	14.24
229.899	14.49
230.116	14.8
230.332	14.01
230.549	13.78
230.765	15.14
230.982	14.64
231.199	14.92
231.415	17.93
231.632	19.82
231.848	21.13
232.065	22.63
232.281	23.82
232.498	24.22
232.714	25.31
232.931	26.31
233.147	26
233.364	26.47
233.58	25.72
233.797	22.17
234.013	22.25
234.23	22.59
234.446	20.56
234.662	20.13
234.879	20.18
235.095	19.7
235.312	18.99
235.528	19.59
235.744	19.35
235.961	19.92
236.177	20.66
236.393	19.64
236.61	18.8
236.826	18.47
237.042	18.4
237.258	18.51
237.475	21.98
237.691	22.89
237.907	22.52
238.123	22.69
238.339	23.77
238.556	24.37
238.772	23.53
238.988	23.64
239.204	23.71
239.42	23.06
239.636	22.8
239.853	20.01
240.069	19.1
240.285	18.26
240.501	16.88
240.717	15.83
240.933	14.76
241.149	14.45
241.365	13.75
241.581	13.35
241.797	12.65
242.013	12.1
242.229	12.18
242.445	11.69
242.661	11.38
242.877	11.44
243.093	11.14
243.309	11.18
243.525	11.3
243.741	11.08
243.957	11.07
244.173	11.93
244.388	12.06
244.604	11.87
244.82	12.43
245.036	12.05
245.252	11.61
245.468	11.18
245.683	10.82
245.899	10.31
246.115	10.22
246.331	9.67
246.547	9.2
246.762	8.69
246.978	8.48
247.194	8.15
247.409	7.91
247.625	8.07
247.841	7.99
248.057	7.91
248.272	7.95
248.488	7.98
248.703	7.93
248.919	8.09
249.135	8.76
249.35	9.3
249.566	9.73
249.782	10.4
249.997	10.19
250.213	10.69
250.428	11.31
250.644	12.12
250.859	11.85
251.075	11.89
251.29	12.05
251.506	11.25
251.721	10.6
251.937	10.64
252.152	10.34
252.368	10.99
252.583	10.49
252.798	10.09
253.014	9.71
253.229	9.7
253.445	10.54
253.66	10.25
253.875	11.01
254.091	12.18
254.306	12.13
254.521	13.82
254.737	14.02
254.952	14.26
255.167	14.9
255.383	14.49
255.598	14.36
255.813	14.37
256.028	14.36
256.244	13.48
256.459	12.72
256.674	12.43
256.889	10.76
257.104	10.37
257.32	10.25
257.535	9.01
257.75	8.51
257.965	8.84
258.18	8.15
258.395	7.57
258.61	7.69
258.826	7.27
259.041	7.44
259.256	7.46
259.471	6.88
259.686	6.72
259.901	6.73
260.116	6.58
260.331	6.2
260.546	6.33
260.761	6.62
260.976	6.34
261.191	5.95
261.406	5.59
261.621	5.64
261.836	5.69
262.05	6.06
262.265	6.21
262.48	6.76
262.695	7.59
262.91	7.94
263.125	7.91
263.34	8.34
263.555	9.79
263.769	10.15
263.984	10.34
264.199	10.91
264.414	10.63
264.629	10.98
264.843	11.22
265.058	11.2
265.273	10.5
265.488	9.95
265.702	9.87
265.917	9.72
266.132	9.7
266.346	9.2
266.561	9.29
266.776	9.44
266.99	9.4
267.205	9.03
267.42	8.83
267.634	8.81
267.849	9.35
268.063	9.41
268.278	9.09
268.492	8.97
268.707	9.16
268.922	8.81
269.136	9.06
269.351	8.45
269.565	8.42
269.78	7.91
269.994	7.71
270.209	7.4
270.423	6.93
270.637	6.85
270.852	6.75
271.066	6.67
271.281	6.89
271.495	6.52
271.709	6.84
271.924	6.4
272.138	6.49
272.353	6.61
272.567	6.45
272.781	7.01
272.996	7.19
273.21	7.24
273.424	7.42
273.638	6.83
273.853	6.87
274.067	7.09
274.281	7.54
274.495	8.31
274.71	8.79
274.924	9.11
275.138	9.09
275.352	8.83
275.566	8.84
275.781	8.34
275.995	9.2
276.209	9.24
276.423	8.64
276.637	9.05
276.851	8.74
277.065	8.26
277.279	8.28
277.493	7.73
277.707	7.81
277.921	7.73
278.135	7.86
278.349	7.34
278.563	7.41
278.777	7.82
278.991	7.62
279.205	7.75
279.419	7.97
279.633	7.57
279.847	7.82
280.061	8.02
280.275	7.17
280.489	7.47
280.703	7.67
280.917	7.63
281.131	7.7
281.344	7.55
281.558	6.98
281.772	7.23
281.986	7.61
282.2	7.58
282.414	7.46
282.627	7.91
282.841	7.75
283.055	7.86
283.269	7.72
283.482	7.38
283.696	7.36
283.91	7.24
284.123	6.4
284.337	6.03
284.551	5.88
284.764	5.87
284.978	5.61
285.192	5.51
285.405	5.47
285.619	5.39
285.833	5.69
286.046	5.54
286.26	5.78
286.473	6.08
286.687	6.05
286.9	6.37
287.114	6.24
287.327	6.73
287.541	7.07
287.754	7.01
287.968	7.35
288.181	7.46
288.395	7.72
288.608	7.81
288.822	7.76
289.035	7.74
289.248	7.38
289.462	7.54
289.675	7.17
289.889	6.93
290.102	6.72
290.315	6.58
290.529	6.38
290.742	6.33
290.955	6.29
291.169	6.59
291.382	6.98
291.595	6.99
291.808	7.28
292.022	8.03
292.235	8.26
292.448	8.61
292.661	8.71
292.875	8.71
293.088	8.81
293.301	8.59
293.514	8.19
293.727	7.91
293.94	8.12
294.153	7.75
294.367	7.33
294.58	7.11
294.793	6.96
295.006	6.74
295.219	6.66
295.432	6.78
295.645	6.82
295.858	6.89
296.071	6.83
296.284	6.75
296.497	6.73
296.71	6.9
296.923	7.02
297.136	7.26
297.349	7.24
297.562	7.45
297.775	7.27
297.988	7.55
298.201	7.74
298.414	7.79
298.626	7.64
298.839	7.48
299.052	7.11
299.265	7.31
299.478	7.08
299.691	7.66
299.903	8.15
300.116	8.62
300.329	8.47
300.542	8.36
300.755	8.6
300.967	9.29
301.18	9.66
301.393	10.1
301.605	9.98
301.818	10.15
302.031	10.04
302.243	9.64
302.456	9.28
302.669	9.9
302.881	9.9
303.094	10.34
303.307	9.97
303.519	10.12
303.732	10.06
303.944	10.05
304.157	10.23
304.37	9.9
304.582	9.98
304.795	10.15
305.007	9.83
305.22	10.44
305.432	10.15
305.645	10.44
305.857	10.32
306.069	10.65
306.282	10.68
306.494	10.85
306.707	11.27
306.919	11.35
307.132	11.35
307.344	11
307.556	10.73
307.769	10.83
307.981	10.79
308.193	10.64
308.406	10.27
308.618	10.21
308.83	9.97
309.043	9.74
309.255	9.28
309.467	9.19
309.679	9.15
309.892	9.04
310.104	8.78
310.316	8.56
310.528	8.74
310.74	8.92
310.953	8.82
311.165	8.73
311.377	8.83
311.589	9.24
311.801	9.44
312.013	9.36
312.225	9.37
312.437	9.41
312.649	9.71
312.862	9.78
313.074	10.03
313.286	10.23
313.498	10.61
313.71	10.57
313.922	10.47
314.134	10.16
314.346	10.47
314.558	10.57
314.77	10.76
314.982	10.67
315.193	10.95
315.405	11.11
315.617	11.25
315.829	11.18
316.041	11.52
316.253	11.52
316.465	11.96
316.677	12.12
316.888	11.81
317.1	12.02
317.312	12.46
317.524	12.32
317.736	12.16
317.947	12.67
318.159	12.93
318.371	12.78
318.583	12.9
318.794	12.86
319.006	12.69
319.218	12.92
319.43	13.07
319.641	12.79
319.853	12.82
320.064	12.76
320.276	11.99
320.488	11.77
320.699	11.69
320.911	12.03
321.123	11.97
321.334	11.84
321.546	12.22
321.757	12.42
321.969	12.43
322.18	12.52
322.392	12.41
322.603	13.04
322.815	12.67
323.026	12.98
323.238	12.57
323.449	12.31
323.661	12.72
323.872	12.77
324.083	12.29
324.295	12.33
324.506	12.23
324.718	11.98
324.929	11.98
325.14	12.28
325.352	12.07
325.563	12.51
325.774	12.68
325.986	12.39
326.197	12.12
326.408	12.52
326.62	12.34
326.831	12.23
327.042	13.05
327.253	13.28
327.464	13.59
327.676	13.6
327.887	13.22
328.098	13.53
328.309	13.87
328.52	14.09
328.732	13.88
328.943	14.16
329.154	14.48
329.365	13.89
329.576	13.81
329.787	13.72
329.998	14.14
330.209	14.3
330.42	14.06
330.631	14
330.842	13.79
331.053	14.06
331.264	13.81
331.475	13.83
331.686	13.99
331.897	13.91
332.108	13.75
332.319	13.6
332.53	13.62
332.741	13.7
332.952	13.75
333.163	13.68
333.374	13.96
333.585	14.11
333.795	14.13
334.006	14
334.217	13.73
334.428	13.75
334.639	13.79
334.849	13.89
335.06	13.83
335.271	13.71
335.482	14.35
335.692	13.79
335.903	14
336.114	13.63
336.325	13.59
336.535	13.46
336.746	13.19
336.957	13.22
337.167	13.26
337.378	13.43
337.589	13.56
337.799	13.09
338.01	13
338.22	12.68
338.431	13.13
338.642	13.17
338.852	13.26
339.063	13.57
339.273	13.29
339.484	13.1
339.694	12.88
339.905	12.79
340.115	12.77
340.326	12.68
340.536	12.83
340.746	12.38
340.957	12.43
341.167	12.5
341.378	12.4
341.588	12.33
341.799	12.51
342.009	12.46
342.219	12.34
342.43	12.49
342.64	12.78
342.85	12.79
343.061	13.09
343.271	13.42
343.481	13.23
343.691	13.15
343.902	13.38
344.112	13.09
344.322	12.84
344.532	13.03
344.743	12.61
344.953	12.36
345.163	12.16
345.373	11.76
345.583	11.32
345.793	11.51
346.004	11.51
346.214	11.08
346.424	11.17
346.634	11.5
346.844	11.56
347.054	11.99
347.264	11.79
347.474	11.72
347.684	12.04
347.894	11.89
348.104	11.84
348.314	11.55
348.524	11.89
348.734	12.04
348.944	11.87
349.154	11.56
349.364	11.48
349.574	11.64
349.784	11.77
349.994	11.82
350.204	12.14
350.413	11.92
350.623	12.28
350.833	12.22
351.043	12
351.253	11.92
351.463	11.77
351.672	11.84
351.882	11.85
352.092	11.59
352.302	11.19
352.511	11.1
352.721	11.36
352.931	11.23
353.141	11.13
353.35	10.7
353.56	10.62
353.77	10.61
353.979	10.32
354.189	10.45
354.399	10.6
354.608	10.74
354.818	10.53
355.027	10.52
355.237	10.3
355.447	10.61
355.656	11
355.866	11.17
356.075	11.23
356.285	11.45
356.494	11.33
356.704	11.41
356.913	11.42
357.123	11.54
357.332	11.51
357.542	11.62
357.751	11.26
357.96	11.38
358.17	11.2
358.379	11.2
358.589	11.12
358.798	11.18
359.007	11.39
359.217	11.21
359.426	10.89
359.635	10.48
359.845	10.53
360.054	10.25
360.263	9.97
360.472	9.88
360.682	9.64
360.891	9.53
361.1	9.21
361.309	8.89
361.519	9.21
361.728	9.25
361.937	9.49
362.146	9.38
362.355	9.64
362.564	9.79
362.774	9.92
362.983	9.94
363.192	9.84
363.401	10.25
363.61	10.25
363.819	10.2
364.028	10.28
364.237	10.24
364.446	10.16
364.655	10.12
364.864	9.86
365.073	9.84
365.282	10.12
365.491	10.19
365.7	9.93
365.909	9.97
366.118	9.85
366.327	10.05
366.536	10.06
366.745	10.17
366.954	10.24
367.162	10.36
367.371	10.33
367.58	10.37
367.789	10.38
367.998	10.44
368.207	10.3
368.415	10.14
368.624	10.24
368.833	10.32
369.042	10.28
369.25	10.22
369.459	10.32
369.668	10.24
369.877	10.01
370.085	9.86
370.294	9.91
370.503	10.11
370.711	10
370.92	9.59
371.129	9.58
371.337	9.56
371.546	9.48
371.754	9.42
371.963	9.2
372.171	9.22
372.38	9.38
372.589	9.36
372.797	9.36
373.006	9.4
373.214	9.38
373.423	9.19
373.631	8.96
373.84	8.93
374.048	8.78
374.256	9.16
374.465	9.33
374.673	9.35
374.882	9.25
375.09	9.22
375.298	9.1
375.507	9.22
375.715	9.13
375.923	9.24
376.132	9.23
376.34	9.22
376.548	9.06
376.757	8.84
376.965	8.79
377.173	8.66
377.381	8.43
377.59	8.76
377.798	8.7
378.006	8.75
378.214	8.67
378.423	8.72
378.631	8.67
378.839	8.52
379.047	8.59
379.255	8.56
379.463	8.77
379.671	8.89
379.879	8.65
380.088	8.49
380.296	8.34
380.504	8.46
380.712	8.2
380.92	8.31
381.128	8.57
381.336	8.46
381.544	8.19
381.752	8.2
381.96	7.96
382.168	7.94
382.376	8.06
382.584	8.19
382.791	8.13
382.999	8.04
383.207	7.97
383.415	7.81
383.623	7.81
383.831	7.88
384.039	7.54
384.247	7.82
384.454	7.77
384.662	7.73
384.87	7.62
385.078	7.64
385.285	7.75
385.493	7.6
385.701	7.61
385.909	7.66
386.116	7.8
386.324	7.73
386.532	7.5
386.739	7.4
386.947	7.44
387.155	7.43
387.362	7.25
387.57	6.99
387.778	6.96
387.985	6.84
388.193	6.68
388.4	6.56
388.608	6.83
388.816	6.88
389.023	6.97
389.231	6.8
389.438	6.64
389.646	6.69
389.853	6.97
390.061	6.97
390.268	7
390.475	6.95
390.683	6.91
390.89	6.75
391.098	6.63
391.305	6.6
391.512	6.55
391.72	6.65
391.927	6.62
392.135	6.55
392.342	6.64
392.549	6.56
392.756	6.56
392.964	6.57
393.171	6.74
393.378	6.58
393.586	6.43
393.793	6.38
394	6.33
394.207	6.37
394.414	6.44
394.622	6.36
394.829	6.37
395.036	6.32
395.243	6.27
395.45	6.16
395.657	6.37
395.864	6.42
396.072	6.44
396.279	6.52
396.486	6.58
396.693	6.5
396.9	6.48
397.107	6.55
397.314	6.68
397.521	6.58
397.728	6.47
397.935	6.3
398.142	6.31
398.349	6.54
398.556	6.46
398.763	6.27
398.97	6.2
399.177	6.14
399.383	6.07
399.59	6.08
399.797	6.13
400.004	6.07
400.211	6.3
400.418	6.28
400.625	6.13
400.831	6.18
401.038	6.29
401.245	6.44
401.452	6.53
401.658	6.63
401.865	6.62
402.072	6.66
402.279	6.71
402.485	6.58
402.692	6.6
402.899	6.54
403.105	6.43
403.312	6.35
403.519	6.14
403.725	6.17
403.932	5.91
404.138	5.75
404.345	5.77
404.552	5.74
404.758	5.77
404.965	5.61
405.171	5.67
405.378	5.51
405.584	5.44
405.791	5.56
405.997	5.45
406.204	5.71
406.41	5.75
406.617	5.7
406.823	5.8
407.029	5.77
407.236	5.91
407.442	5.9
407.649	6.23
407.855	6.43
408.061	6.36
408.268	6.45
408.474	6.44
408.68	6.37
408.887	6.34
409.093	6.31
409.299	6.32
409.505	6.38
409.712	6.39
409.918	6.28
410.124	6.12
410.33	6
410.537	5.93
410.743	5.84
410.949	6.01
411.155	6.05
411.361	5.97
411.567	5.97
411.773	5.73
411.98	5.59
412.186	5.49
412.392	5.63
412.598	5.84
412.804	5.75
413.01	5.87
413.216	5.73
413.422	5.56
413.628	5.59
413.834	5.58
414.04	5.73
414.246	5.71
414.452	5.64
414.658	5.55
414.864	5.35
415.07	5.37
415.275	5.2
415.481	5.17
415.687	5.23
415.893	5.23
416.099	5.2
416.305	5.13
416.511	5.21
416.716	5.2
416.922	5.13
417.128	5.08
417.334	4.99
417.539	5.01
417.745	4.85
417.951	4.77
418.157	4.76
418.362	4.76
418.568	4.71
418.774	4.53
418.979	4.55
419.185	4.54
419.391	4.56
419.596	4.47
419.802	4.35
420.008	4.42
420.213	4.44
420.419	4.41
420.624	4.3
420.83	4.31
421.035	4.37
421.241	4.35
421.446	4.3
421.652	4.26
421.857	4.21
422.063	4.29
422.268	4.32
422.474	4.32
422.679	4.3
422.885	4.29
423.09	4.31
423.295	4.26
423.501	4.24
423.706	4.3
423.911	4.32
424.117	4.44
424.322	4.34
424.527	4.3
424.733	4.27
424.938	4.28
425.143	4.24
425.349	4.22
425.554	4.19
425.759	4.2
425.964	4.21
426.169	4.24
426.375	4.23
426.58	4.34
426.785	4.39
426.99	4.4
427.195	4.43
427.4	4.53
427.605	4.56
427.811	4.7
428.016	4.74
428.221	4.83
428.426	4.76
428.631	4.77
428.836	4.71
429.041	4.71
429.246	4.71
429.451	4.6
429.656	4.68
429.861	4.76
430.066	4.65
430.271	4.62
430.476	4.53
430.681	4.69
430.886	4.73
431.09	4.76
431.295	4.79
431.5	4.93
431.705	4.96
431.91	4.93
432.115	4.83
432.32	4.9
432.524	4.79
432.729	4.81
432.934	4.77
433.139	4.65
433.343	4.65
433.548	4.57
433.753	4.54
433.958	4.56
434.162	4.54
434.367	4.57
434.572	4.53
434.776	4.61
434.981	4.55
435.186	4.59
435.39	4.71
435.595	4.71
435.799	4.7
436.004	4.66
436.209	4.66
436.413	4.73
436.618	4.69
436.822	4.71
437.027	4.75
437.231	4.74
437.436	4.75
437.64	4.78
437.845	4.83
438.049	4.87
438.253	4.86
438.458	4.85
438.662	4.76
438.867	4.79
439.071	4.8
439.275	4.73
439.48	4.73
439.684	4.62
439.888	4.56
440.093	4.56
440.297	4.47
440.501	4.46
440.706	4.45
440.91	4.45
441.114	4.42
441.318	4.4
441.523	4.4
441.727	4.41
441.931	4.46
442.135	4.43
442.339	4.39
442.543	4.52
442.748	4.38
442.952	4.5
443.156	4.47
443.36	4.46
443.564	4.49
443.768	4.57
443.972	4.55
444.176	4.53
444.38	4.52
444.584	4.5
444.788	4.41
444.992	4.47
445.196	4.36
445.4	4.35
445.604	4.39
445.808	4.37
446.012	4.31
446.216	4.31
446.42	4.26
446.624	4.29
446.828	4.22
447.032	4.2
447.235	4.26
447.439	4.24
447.643	4.29
447.847	4.26
448.051	4.28
448.254	4.3
448.458	4.33
448.662	4.36
448.866	4.36
449.069	4.45
449.273	4.52
449.477	4.54
449.681	4.57
449.884	4.64
450.088	4.79
450.292	4.74
450.495	4.81
450.699	4.79
450.902	4.76
451.106	4.68
451.31	4.8
451.513	4.9
451.717	4.79
451.92	4.75
452.124	4.68
452.327	4.51
452.531	4.51
452.734	4.45
452.938	4.45
453.141	4.56
453.345	4.71
453.548	4.66
453.752	4.52
453.955	4.64
454.158	4.76
454.362	4.78
454.565	4.79
454.769	4.83
454.972	4.84
455.175	4.88
455.379	4.84
455.582	4.72
455.785	4.59
455.988	4.61
456.192	4.57
456.395	4.44
456.598	4.43
456.801	4.53
457.005	4.42
457.208	4.44
457.411	4.43
457.614	4.39
457.817	4.35
458.021	4.36
458.224	4.37
458.427	4.36
458.63	4.39
458.833	4.35
459.036	4.26
459.239	4.24
459.442	4.17
459.645	4.11
459.848	4.1
460.051	4.17
460.254	4.27
460.457	4.28
460.66	4.35
460.863	4.41
461.066	4.42
461.269	4.49
461.472	4.68
461.675	4.73
461.878	4.86
462.081	4.98
462.284	5.01
462.486	4.94
462.689	4.92
462.892	4.86
463.095	4.69
463.298	4.83
463.5	4.93
463.703	4.76
463.906	4.77
464.109	4.69
464.311	4.64
464.514	4.65
464.717	4.73
464.92	4.68
465.122	4.73
465.325	4.93
465.528	4.83
465.73	4.81
465.933	4.89
466.135	4.92
466.338	4.84
466.541	4.8
466.743	4.77
466.946	4.72
467.148	4.84
467.351	4.86
467.553	4.88
467.756	4.89
467.958	4.72
468.161	4.75
468.363	4.72
468.566	4.77
468.768	4.82
468.971	4.91
469.173	4.86
469.375	4.86
469.578	4.95
469.78	4.92
469.983	4.95
470.185	5.01
470.387	5.05
470.59	5.06
470.792	5.14
470.994	5.16
471.196	5.05
471.399	5.07
471.601	5.06
471.803	4.84
472.005	4.8
472.208	4.77
472.41	4.85
472.612	4.74
472.814	4.79
473.016	4.79
473.218	4.86
473.421	4.82
473.623	4.81
473.825	4.9
474.027	4.97
474.229	4.94
474.431	4.98
474.633	4.94
474.835	5.06
475.037	5.05
475.239	5
475.441	4.97
475.643	5.11
475.845	5.05
476.047	5
476.249	4.96
476.451	5.08
476.653	4.93
476.855	4.98
477.057	4.87
477.258	4.82
477.46	4.78
477.662	4.68
477.864	4.62
478.066	4.74
478.268	4.65
478.469	4.61
478.671	4.44
478.873	4.5
479.075	4.4
479.276	4.39
479.478	4.46
479.68	4.48
479.882	4.54
480.083	4.51
480.285	4.36
480.487	4.45
480.688	4.46
480.89	4.49
481.091	4.44
481.293	4.44
481.495	4.37
481.696	4.24
481.898	4.16
482.099	4.1
482.301	4.06
482.502	4.05
482.704	4
482.905	3.97
483.107	3.92
483.308	3.89
483.51	3.84
483.711	3.85
483.913	3.84
484.114	3.84
484.315	3.83
484.517	3.83
484.718	3.81
484.92	3.79
485.121	3.79
485.322	3.82
485.524	3.86
485.725	3.89
485.926	3.88
486.127	3.9
486.329	3.93
486.53	3.91
486.731	3.91
486.932	3.9
487.134	3.91
487.335	3.91
487.536	3.89
487.737	3.86
487.938	3.87
488.139	3.91
488.341	3.96
488.542	3.95
488.743	3.95
488.944	3.96
489.145	4.02
489.346	4.05
489.547	4.06
489.748	4.11
489.949	4.16
490.15	4.14
490.351	4.12
490.552	4.08
490.753	4.07
490.954	4.07
491.155	4.08
491.356	4.04
491.557	4.02
491.758	4.04
491.959	4.03
492.159	4.03
492.36	4.04
492.561	4.03
492.762	4.05
492.963	4.08
493.164	4.08
493.364	4.06
493.565	4.16
493.766	4.19
493.967	4.17
494.167	4.26
494.368	4.31
494.569	4.33
494.769	4.41
494.97	4.46
495.171	4.5
495.371	4.58
495.572	4.6
495.773	4.57
495.973	4.61
496.174	4.7
496.375	4.67
496.575	4.67
496.776	4.79
496.976	4.75
497.177	4.76
497.377	4.74
497.578	4.78
497.778	4.84
497.979	4.89
498.179	4.9
498.38	4.86
498.58	4.9
498.78	4.88
498.981	4.81
499.181	4.83
499.382	4.85
499.582	4.94
499.782	4.99
499.983	5.05
500.183	5.06
500.383	5.03
500.584	5.07
500.784	4.99
500.984	5
501.184	5.07
501.385	5.16
501.585	5.14
501.785	5.14
501.985	5.14
502.185	5.13
502.386	5.09
502.586	5.14
502.786	5.2
502.986	5.35
503.186	5.37
503.386	5.39
503.586	5.45
503.786	5.6
503.987	5.6
504.187	5.57
504.387	5.57
504.587	5.64
504.787	5.64
504.987	5.68
505.187	5.63
505.387	5.69
505.587	5.68
505.786	5.56
505.986	5.46
506.186	5.54
506.386	5.6
506.586	5.67
506.786	5.73
506.986	5.77
507.186	5.75
507.386	5.74
507.585	5.78
507.785	5.81
507.985	5.88
508.185	5.95
508.384	5.91
508.584	5.89
508.784	5.85
508.984	5.96
509.183	6
509.383	6
509.583	6.13
509.782	6.11
509.982	6.14
510.182	6.11
510.381	6.12
510.581	6.21
510.781	6.24
510.98	6.27
511.18	6.21
511.379	6.21
511.579	6.3
511.778	6.24
511.978	6.31
512.177	6.37
512.377	6.42
512.576	6.43
512.776	6.43
512.975	6.58
513.175	6.66
513.374	6.69
513.573	6.79
513.773	6.92
513.972	7.06
514.172	7.13
514.371	7.34
514.57	7.43
514.77	7.54
514.969	7.53
515.168	7.56
515.367	7.64
515.567	7.7
515.766	7.85
515.965	7.77
516.164	7.74
516.364	7.74
516.563	7.56
516.762	7.64
516.961	7.59
517.16	7.72
517.359	7.74
517.559	7.73
517.758	7.81
517.957	7.73
518.156	7.76
518.355	7.85
518.554	7.79
518.753	7.87
518.952	7.89
519.151	7.96
519.35	8.01
519.549	8.04
519.748	8.06
519.947	8.1
520.146	8.19
520.345	8.29
520.544	8.3
520.743	8.47
520.942	8.56
521.141	8.6
521.339	8.76
521.538	8.77
521.737	8.87
521.936	8.98
522.135	8.97
522.333	9.02
522.532	9.07
522.731	9.13
522.93	9.15
523.129	9.2
523.327	9.2
523.526	9.22
523.725	9.29
523.923	9.33
524.122	9.4
524.321	9.52
524.519	9.57
524.718	9.52
524.917	9.57
525.115	9.6
525.314	9.63
525.512	9.72
525.711	9.72
525.909	9.75
526.108	9.74
526.306	9.74
526.505	9.78
526.703	9.82
526.902	9.88
527.1	9.89
527.299	9.92
527.497	9.94
527.696	9.96
527.894	9.97
528.092	9.98
528.291	10
528.489	10
528.688	9.99
528.886	10
529.084	10.02
529.283	10.09
529.481	10.14
529.679	10.19
529.877	10.28
530.076	10.34
530.274	10.42
530.472	10.51
530.67	10.64
530.869	10.73
531.067	10.85
531.265	10.96
531.463	11.02
531.661	11.05
531.859	11.07
532.057	11.03
532.255	11.07
532.454	11.11
532.652	11.11
532.85	11.13
533.048	11.18
533.246	11.21
533.444	11.27
533.642	11.29
533.84	11.31
534.038	11.39
534.236	11.5
534.434	11.57
534.632	11.59
534.83	11.74
535.027	11.78
535.225	11.8
535.423	11.81
535.621	11.87
535.819	11.9
536.017	11.96
536.215	12.01
536.412	12
536.61	12.04
536.808	12.05
537.006	12.07
537.203	12.12
537.401	12.22
537.599	12.29
537.797	12.3
537.994	12.4
538.192	12.5
538.39	12.55
538.587	12.61
538.785	12.69
538.983	12.86
539.18	12.85
539.378	12.9
539.575	12.91
539.773	12.98
539.97	12.99
540.168	13.05
540.366	13.04
540.563	13.04
540.761	13
540.958	12.98
541.155	12.98
541.353	13.02
541.55	13.01
541.748	13
541.945	12.98
542.143	13.02
542.34	13.04
542.537	13.08
542.735	13.16
542.932	13.22
543.129	13.34
543.327	13.34
543.524	13.47
543.721	13.54
543.919	13.66
544.116	13.77
544.313	13.84
544.51	13.83
544.708	13.99
544.905	14.1
545.102	14.28
545.299	14.3
545.496	14.43
545.693	14.41
545.891	14.47
546.088	14.51
546.285	14.59
546.482	14.64
546.679	14.73
546.876	14.69
547.073	14.61
547.27	14.55
547.467	14.51
547.664	14.49
547.861	14.53
548.058	14.6
548.255	14.61
548.452	14.54
548.649	14.62
548.846	14.68
549.043	14.65
549.24	14.88
549.437	15.03
549.633	15.17
549.83	15.39
550.027	15.45
550.224	15.45
550.421	15.46
550.618	15.52
550.814	15.46
551.011	15.51
551.208	15.64
551.405	15.52
551.601	15.51
551.798	15.41
551.995	15.34
552.191	15.32
552.388	15.34
552.585	15.4
552.781	15.43
552.978	15.49
553.175	15.51
553.371	15.51
553.568	15.49
553.764	15.42
553.961	15.53
554.157	15.48
554.354	15.55
554.55	15.52
554.747	15.6
554.943	15.66
555.14	15.76
555.336	15.76
555.533	15.8
555.729	15.96
555.926	16.04
556.122	16.1
556.318	16.2
556.515	16.2
556.711	16.21
556.907	16.23
557.104	16.19
557.3	16.15
557.496	16.05
557.693	16.06
557.889	16.02
558.085	16.06
558.281	16.06
558.478	16.11
558.674	16.17
558.87	16.3
559.066	16.36
559.262	16.5
559.459	16.43
559.655	16.5
559.851	16.42
560.047	16.52
560.243	16.62
560.439	16.65
560.635	16.67
560.831	16.53
561.027	16.61
561.223	16.47
561.419	16.41
561.615	16.55
561.811	16.67
562.007	16.77
562.203	16.89
562.399	16.83
562.595	16.88
562.791	16.86
562.987	17.03
563.183	16.92
563.379	16.96
563.575	16.99
563.771	17
563.966	16.98
564.162	17.03
564.358	16.83
564.554	16.88
564.75	16.89
564.945	16.85
565.141	16.82
565.337	16.81
565.533	16.88
565.728	16.81
565.924	16.78
566.12	16.7
566.315	16.66
566.511	16.71
566.707	16.61
566.902	16.5
567.098	16.53
567.293	16.5
567.489	16.57
567.684	16.58
567.88	16.53
568.076	16.51
568.271	16.65
568.467	16.67
568.662	16.61
568.858	16.72
569.053	16.73
569.248	16.78
569.444	16.83
569.639	16.77
569.835	16.82
570.03	17.01
570.225	16.95
570.421	16.88
570.616	16.96
570.812	16.99
571.007	16.97
571.202	17.01
571.397	17
571.593	16.98
571.788	17.09
571.983	17.13
572.178	17.03
572.374	17.17
572.569	17.28
572.764	17.32
572.959	17.41
573.154	17.43
573.35	17.49
573.545	17.53
573.74	17.57
573.935	17.48
574.13	17.31
574.325	17.37
574.52	17.44
574.715	17.5
574.91	17.45
575.105	17.44
575.3	17.48
575.495	17.52
575.69	17.45
575.885	17.52
576.08	17.57
576.275	17.69
576.47	17.81
576.665	17.86
576.86	17.76
577.055	17.75
577.25	17.83
577.444	17.88
577.639	18.05
577.834	18.22
578.029	18.21
578.224	18.3
578.418	18.42
578.613	18.46
578.808	18.38
579.003	18.55
579.197	18.6
579.392	18.56
579.587	18.51
579.781	18.38
579.976	18.45
580.171	18.53
580.365	18.43
580.56	18.4
580.755	18.37
580.949	18.35
581.144	18.28
581.338	18.3
581.533	18.47
581.727	18.65
581.922	18.66
582.116	18.61
582.311	18.6
582.505	18.69
582.7	18.74
582.894	18.79
583.089	18.9
583.283	18.92
583.478	18.93
583.672	18.83
583.866	18.75
584.061	18.74
584.255	18.71
584.449	18.74
584.644	18.8
584.838	18.87
585.032	18.8
585.226	18.78
585.421	18.87
585.615	19.03
585.809	19.06
586.003	19.01
586.198	19.08
586.392	19.19
586.586	19.27
586.78	19.23
586.974	19.14
587.168	19.08
587.363	19.11
587.557	18.94
587.751	18.73
587.945	18.66
588.139	18.66
588.333	18.63
588.527	18.54
588.721	18.57
588.915	18.53
589.109	18.45
589.303	18.47
589.497	18.28
589.691	18.31
589.885	18.37
590.079	18.4
590.273	18.5
590.466	18.4
590.66	18.38
590.854	18.49
591.048	18.55
591.242	18.72
591.436	18.83
591.629	19.09
591.823	19.32
592.017	19.39
592.211	19.35
592.404	19.34
592.598	19.35
592.792	19.45
592.986	19.18
593.179	19.13
593.373	19.06
593.567	19.02
593.76	18.83
593.954	18.59
594.147	18.55
594.341	18.64
594.535	18.79
594.728	18.92
594.922	18.78
595.115	18.8
595.309	18.78
595.502	18.79
595.696	18.74
595.889	18.77
596.083	18.75
596.276	18.73
596.47	18.77
596.663	18.61
596.856	18.49
597.05	18.6
597.243	18.59
597.437	18.76
597.63	18.76
597.823	18.82
598.017	18.81
598.21	18.91
598.403	18.99
598.596	19.03
598.79	19.14
598.983	19.3
599.176	19.31
599.369	19.4
599.563	19.31
599.756	19.45
599.949	19.42
600.142	19.51
600.335	19.51
600.528	19.42
600.722	19.42
600.915	19.43
601.108	19.29
601.301	19.24
601.494	19.31
601.687	19.21
601.88	19.15
602.073	19.18
602.266	19.19
602.459	19.21
602.652	19.2
602.845	19.04
603.038	18.89
603.231	19.04
603.424	19.04
603.617	18.94
603.809	19
604.002	18.9
604.195	18.83
604.388	18.86
604.581	18.7
604.774	18.72
604.966	18.78
605.159	18.86
605.352	18.76
605.545	18.86
605.737	18.91
605.93	18.96
606.123	19.05
606.316	19.19
606.508	19.28
606.701	19.51
606.894	19.57
607.086	19.63
607.279	19.71
607.471	19.75
607.664	19.57
607.857	19.65
608.049	19.81
608.242	19.9
608.434	19.89
608.627	19.91
608.819	19.96
609.012	20.12
609.204	20.33
609.397	20.7
609.589	21.17
609.782	21.72
609.974	22.14
610.166	22.38
610.359	22.69
610.551	23.07
610.743	23.34
610.936	23.52
611.128	23.85
611.32	24.04
611.513	24.03
611.705	24
611.897	23.85
612.09	23.69
612.282	23.66
612.474	23.63
612.666	23.68
612.858	23.78
613.051	23.92
613.243	23.64
613.435	23.49
613.627	23.23
613.819	22.95
614.011	22.92
614.203	22.85
614.395	22.54
614.588	22.15
614.78	21.97
614.972	21.65
615.164	21.54
615.356	21.54
615.548	21.33
615.74	21.3
615.932	21.38
616.124	21.36
616.315	21.27
616.507	21.56
616.699	21.61
616.891	21.32
617.083	21.27
617.275	21.03
617.467	20.93
617.659	21.07
617.85	21.11
618.042	21.01
618.234	20.83
618.426	20.67
618.618	20.4
618.809	20.43
619.001	20.59
619.193	20.58
619.384	20.79
619.576	21
619.768	20.81
619.959	20.84
620.151	20.75
620.343	20.75
620.534	20.88
620.726	20.91
620.917	21.05
621.109	21.16
621.301	21.2
621.492	21.08
621.684	20.94
621.875	20.86
622.067	20.79
622.258	21.06
622.45	21.15
622.641	21.03
622.832	21.01
623.024	20.95
623.215	20.76
623.407	20.72
623.598	20.74
623.789	20.6
623.981	20.74
624.172	20.76
624.363	20.62
624.555	20.6
624.746	20.55
624.937	20.55
625.129	20.51
625.32	20.5
625.511	20.54
625.702	20.4
625.893	20.58
626.085	20.73
626.276	20.71
626.467	20.74
626.658	20.66
626.849	20.67
627.04	20.66
627.231	20.66
627.422	20.75
627.614	20.75
627.805	20.83
627.996	20.76
628.187	20.72
628.378	20.59
628.569	20.61
628.76	20.66
628.951	20.8
629.142	21.05
629.332	21.12
629.523	21.11
629.714	21.24
629.905	21.45
630.096	21.52
630.287	21.55
630.478	21.73
630.669	21.79
630.859	21.88
631.05	22
631.241	21.73
631.432	21.78
631.623	21.86
631.813	21.69
632.004	21.54
632.195	21.18
632.385	21.15
632.576	21.22
632.767	21.17
632.957	21.27
633.148	21.06
633.339	21.06
633.529	20.93
633.72	20.72
633.91	20.68
634.101	20.81
634.292	20.98
634.482	21
634.673	20.96
634.863	20.87
635.054	20.66
635.244	20.71
635.435	20.68
635.625	20.61
635.815	20.67
636.006	20.93
636.196	20.72
636.387	20.78
636.577	20.72
636.767	20.65
636.958	20.67
637.148	20.63
637.338	20.73
637.529	21.04
637.719	21.25
637.909	21.32
638.099	21.02
638.29	21.05
638.48	21.33
638.67	21.42
638.86	21.51
639.05	21.66
639.241	21.96
639.431	21.97
639.621	21.76
639.811	21.84
640.001	21.93
640.191	22.06
640.381	22.24
640.571	22.03
640.761	21.94
640.951	21.97
641.141	21.72
641.331	21.55
641.521	21.52
641.711	21.54
641.901	21.51
642.091	21.49
642.281	21.61
642.471	21.62
642.661	21.73
642.851	21.73
643.041	21.94
643.231	22.04
643.42	22.04
643.61	22.03
643.8	22.25
643.99	22.2
644.18	22.25
644.369	22.06
644.559	21.97
644.749	22.06
644.939	22.06
645.128	21.88
645.318	21.88
645.508	21.86
645.697	21.66
645.887	21.53
646.076	21.57
646.266	21.47
646.456	21.66
646.645	21.66
646.835	21.6
647.024	21.7
647.214	21.74
647.403	21.94
647.593	21.9
647.782	22.15
647.972	22.15
648.161	21.99
648.351	22.23
648.54	22.1
648.73	22.1
648.919	22
649.108	21.96
649.298	22.03
649.487	21.92
649.677	22.07
649.866	21.94
650.055	21.86
650.244	21.87
650.434	21.6
650.623	21.61
650.812	21.74
651.002	21.65
651.191	21.61
651.38	21.43
651.569	21.48
651.758	21.32
651.947	21.58
652.137	21.68
652.326	21.8
652.515	21.71
652.704	21.66
652.893	21.67
653.082	21.65
653.271	21.73
653.46	21.98
653.649	22.15
653.838	22.18
654.027	22.01
654.216	21.85
654.405	21.84
654.594	21.99
654.783	22.05
654.972	21.96
655.161	22.08
655.35	21.94
655.539	21.91
655.728	21.78
655.916	21.77
656.105	21.6
656.294	21.89
656.483	21.74
656.672	21.67
656.86	21.62
657.049	21.55
657.238	21.45
657.427	21.57
657.615	21.22
657.804	21.07
657.993	21.03
658.181	21.01
658.37	20.82
658.559	21.16
658.747	21.23
658.936	21.28
659.125	21.28
659.313	21.43
659.502	21.46
659.69	21.6
659.879	21.6
660.067	21.78
660.256	22.07
660.444	22.18
660.633	22.11
660.821	22.02
661.01	22.22
661.198	22.26
661.387	22.15
661.575	22.24
661.763	22.27
661.952	22.36
662.14	22.45
662.328	22.22
662.517	22.32
662.705	22.37
662.893	22.6
663.082	22.46
663.27	22.71
663.458	22.92
663.646	23.04
663.834	23.31
664.023	23.37
664.211	23.27
664.399	23.59
664.587	23.51
664.775	23.41
664.963	23.4
665.152	23.6
665.34	23.43
665.528	23.79
665.716	23.69
665.904	23.46
666.092	23.66
666.28	23.68
666.468	23.37
666.656	23.44
666.844	23.34
667.032	23.48
667.22	23.36
667.408	23.57
667.596	23.14
667.784	23.13
667.971	23.03
668.159	22.57
668.347	22.47
668.535	22.45
668.723	22.33
668.911	22.27
669.098	22.16
669.286	22.17
669.474	21.96
669.662	22.18
669.849	22.16
670.037	22.4
670.225	22.79
670.413	22.9
670.6	23.14
670.788	23.25
670.976	23.32
671.163	23.35
671.351	23.48
671.538	23.47
671.726	23.28
671.913	23.01
672.101	23.04
672.289	23.07
672.476	22.97
672.664	22.95
672.851	23.26
673.039	23.45
673.226	23.44
673.413	23.13
673.601	23.19
673.788	23.63
673.976	23.72
674.163	23.54
674.35	23.58
674.538	23.58
674.725	23.73
674.912	23.53
675.1	23.29
675.287	23.35
675.474	23.39
675.662	23.58
675.849	23.32
676.036	23.51
676.223	23.65
676.411	23.7
676.598	23.96
676.785	23.77
676.972	23.71
677.159	23.81
677.346	23.85
677.533	24.09
677.721	23.84
677.908	23.56
678.095	23.28
678.282	23.23
678.469	22.71
678.656	22.46
678.843	22.34
679.03	22.23
679.217	22.38
679.404	22.36
679.591	22.24
679.778	22.14
679.964	22.2
680.151	22.24
680.338	22.28
680.525	22.64
680.712	22.61
680.899	22.86
681.086	23.01
681.272	22.94
681.459	22.93
681.646	23.1
681.833	23.47
682.02	23.59
682.206	23.92
682.393	23.75
682.58	23.73
682.766	23.93
682.953	23.96
683.14	23.74
683.326	24
683.513	24.28
683.7	24.08
683.886	23.93
684.073	24.03
684.259	23.69
684.446	24.17
684.632	24.17
684.819	24.36
685.005	24.23
685.192	24.57
685.378	24.47
685.565	24.21
685.751	24.23
685.938	24.33
686.124	24.36
686.31	24.59
686.497	24.37
686.683	24.27
686.87	24.11
687.056	24.22
687.242	23.93
687.429	23.76
687.615	23.83
687.801	23.68
687.987	23.71
688.174	23.59
688.36	23.63
688.546	23.85
688.732	23.85
688.918	23.55
689.105	23.76
689.291	24.06
689.477	24.3
689.663	24.15
689.849	24.56
690.035	24.41
690.221	24.7
690.407	24.58
690.593	24.49
690.779	24.51
690.965	24.67
691.151	24.36
691.337	24.37
691.523	24.32
691.709	24.52
691.895	24.75
692.081	25.01
692.267	25.03
692.453	25.46
692.639	25.42
692.825	25.85
693.011	25.99
693.196	25.82
693.382	25.48
693.568	25.43
693.754	25.4
693.94	25.04
694.125	24.84
694.311	24.66
694.497	24.62
694.682	24.33
694.868	24.32
695.054	24.52
695.239	24.92
695.425	25.1
695.611	25.09
695.796	24.99
695.982	24.64
696.168	24.48
696.353	24.29
696.539	24.04
696.724	24.05
696.91	23.97
697.095	23.67
697.281	23.67
697.466	23.53
697.652	23.62
697.837	23.39
698.023	23.58
698.208	23.42
698.393	23.47
698.579	23.45
698.764	23.44
698.949	23.42
699.135	23.44
699.32	23.53
699.505	23.65
699.691	23.6
699.876	23.75
700.061	23.89
700.246	24.28
700.432	24.43
700.617	24.5
700.802	24.52
700.987	24.53
701.172	24.5
701.358	24.56
701.543	24.74
701.728	24.57
701.913	24.99
702.098	25.1
702.283	25.2
702.468	24.91
702.653	25
702.838	25.62
703.023	25.84
703.208	26.2
703.393	26.25
703.578	26.19
703.763	26.85
703.948	26.79
704.133	26.73
704.318	26.47
704.503	26.87
704.688	27.18
704.873	27.38
705.057	27.37
705.242	27.62
705.427	27.37
705.612	27.93
705.797	27.69
705.981	27.42
706.166	27.72
706.351	28.08
706.536	28.4
706.72	28.07
706.905	27.8
707.09	27.67
707.274	27.79
707.459	27.8
707.644	27.52
707.828	27.55
708.013	28.22
708.197	27.75
708.382	27.74
708.567	27.38
708.751	27.49
708.936	27.24
709.12	27.14
709.305	26.73
709.489	26.69
709.673	26.4
709.858	26.18
710.042	26
710.227	26.46
710.411	26.49
710.596	26.31
710.78	26.8
710.964	26.87
711.149	27.42
711.333	27.45
711.517	27.68
711.702	27.93
711.886	27.95
712.07	27.7
712.254	27.67
712.438	27.57
712.623	28.27
712.807	27.66
712.991	27.72
713.175	27.35
713.359	27.33
713.544	27.12
713.728	27.04
713.912	27.15
714.096	26.81
714.28	26.36
714.464	26.39
714.648	25.81
714.832	25.85
715.016	25.89
715.2	25.83
715.384	26
715.568	26.15
715.752	26.13
715.936	25.94
716.12	26.31
716.304	26.67
716.488	26.29
716.671	26.62
716.855	26.83
717.039	26.63
717.223	26.82
717.407	26.32
717.59	26.02
717.774	25.82
717.958	26.05
718.142	26.23
718.325	25.96
718.509	26.37
718.693	25.98
718.877	25.78
719.06	25.93
719.244	25.9
719.428	26.75
719.611	26.98
719.795	27.47
719.978	27.67
720.162	27.27
720.345	27.37
720.529	27.41
720.713	27.64
720.896	27.66
721.08	27.58
721.263	27.81
721.446	27.39
721.63	27.67
721.813	27.67
721.997	27.85
722.18	28.24
722.364	28.52
722.547	28.26
722.73	28.18
722.914	28.34
723.097	28.37
723.28	27.83
723.464	28.43
723.647	28.63
723.83	28.34
724.013	27.55
724.197	27.71
724.38	27.71
724.563	27.97
724.746	28.02
724.929	28.02
725.112	27.81
725.296	27.74
725.479	27.81
725.662	27.6
725.845	27.53
726.028	27.92
726.211	27.48
726.394	27.3
726.577	27.2
726.76	27.33
726.943	27.15
727.126	27.11
727.309	27.29
727.492	26.84
727.675	26.87
727.858	26.75
728.041	26.39
728.224	26.16
728.407	26.62
728.589	26.74
728.772	26.8
728.955	27.13
729.138	27.35
729.321	27.09
729.503	27
729.686	26.58
729.869	26.8
730.052	27.01
730.234	27.04
730.417	26.99
730.6	26.93
730.782	26.74
730.965	26.61
731.148	26.23
731.33	26.32
731.513	26.07
731.695	26.44
731.878	26.48
732.061	26.61
732.243	27.28
732.426	27.18
732.608	27.19
732.791	27.12
732.973	27.05
733.156	27.55
733.338	27.68
733.52	28.17
733.703	28.16
733.885	28.18
734.068	28.16
734.25	28.1
734.432	27.84
734.615	28.06
734.797	27.94
734.979	27.88
735.162	27.82
735.344	27.79
735.526	27.96
735.708	28.19
735.891	28.24
736.073	28.12
736.255	27.81
736.437	27.76
736.619	27.67
736.802	28.25
736.984	28.69
737.166	29.82
737.348	30.35
737.53	30.03
737.712	29.65
737.894	30.09
738.076	30.21
738.258	30.05
738.44	30.19
738.622	30.38
738.804	29.81
738.986	30.06
739.168	29.1
739.35	29.25
739.532	29.77
739.714	29.91
739.896	29.44
740.078	29.76
740.259	29.96
740.441	30.31
740.623	30.23
740.805	30.82
740.987	29.9
741.168	30.25
741.35	30.13
741.532	29.35
741.714	29.55
741.895	29.77
742.077	30.21
742.259	30.53
742.44	30.06
742.622	29.98
742.804	29.58
742.985	30.69
743.167	30.17
743.348	29.68
743.53	30.55
743.711	30.57
743.893	30.74
744.075	30.26
744.256	30.15
744.438	30.16
744.619	30.64
744.8	30.93
744.982	30.81
745.163	31.33
745.345	31.42
745.526	31.42
745.707	31.28
745.889	31.42
746.07	31.59
746.252	31.7
746.433	32.22
746.614	32.07
746.795	31.34
746.977	31.38
747.158	30.97
747.339	31.85
747.52	31.6
747.702	32.41
747.883	32.42
748.064	32.51
748.245	32.78
748.426	32.33
748.607	33.33
748.788	33.71
748.97	33.4
749.151	33.93
749.332	33.23
749.513	33.22
749.694	32.57
749.875	32.11
750.056	31.65
750.237	31.59
750.418	32.24
750.599	30.88
750.78	31.3
750.96	31.5
751.141	31.32
751.322	31.6
751.503	31.19
751.684	30.84
751.865	31.12
752.046	30.9
752.226	30.4
752.407	29.62
752.588	29.54
752.769	29.23
752.949	29.68
753.13	29.48
753.311	28.81
753.492	29.81
753.672	30.03
753.853	30
754.034	31.21
754.214	31.46
754.395	31.78
754.575	32.65
754.756	33.34
754.937	33.14
755.117	33.29
755.298	34.27
755.478	34.09
755.659	33.72
755.839	33.53
756.02	33.38
756.2	33.33
756.381	33.21
756.561	32.36
756.741	32.28
756.922	32.17
757.102	32.18
757.283	31.93
757.463	31.82
757.643	32.28
757.823	32.36
758.004	31.63
758.184	31.7
758.364	32.25
758.545	32.5
758.725	31.72
758.905	31.45
759.085	31.61
759.265	31.56
759.446	31.33
759.626	31.25
759.806	31.47
759.986	31.28
760.166	31.37
760.346	30.84
760.526	30.58
760.706	30.82
760.886	30.47
761.066	30.42
761.246	30.32
761.426	29.77
761.606	29.71
761.786	29.25
761.966	28.93
762.146	28.33
762.326	28.21
762.506	28.66
762.686	28.51
762.866	28.45
763.046	28.38
763.225	28.25
763.405	28.1
763.585	27.89
763.765	28.07
763.945	28.15
764.124	27.66
764.304	27.33
764.484	27.1
764.664	27.16
764.843	27.08
765.023	26.98
765.203	27.35
765.382	28.08
765.562	28.14
765.741	27.94
765.921	28.6
766.101	29.71
766.28	30.49
766.46	30.42
766.639	30.95
766.819	31.99
766.998	31.81
767.178	32.01
767.357	31.81
767.537	32.02
767.716	32.98
767.896	33.08
768.075	33.06
768.254	33.1
768.434	33.43
768.613	33.36
768.792	32.87
768.972	33.08
769.151	32.84
769.33	32.59
769.51	32.61
769.689	32.21
769.868	32.17
770.047	32.05
770.226	32.13
770.406	32.14
770.585	32.08
770.764	32.51
770.943	32.79
771.122	32.38
771.301	32.97
771.48	33.24
771.66	33.03
771.839	32.88
772.018	32.73
772.197	32.31
772.376	32.09
772.555	32.57
772.734	32.38
772.913	32.54
773.092	32.65
773.271	33.01
773.449	33.69
773.628	34.37
773.807	34.22
773.986	34.79
774.165	35.66
774.344	35.64
774.523	35.68
774.701	36.1
774.88	36.82
775.059	37.99
775.238	36.74
775.417	36.33
775.595	36.71
775.774	37.13
775.953	36.82
776.131	36.91
776.31	37.22
776.489	36.38
776.667	35.79
776.846	34.4
777.025	33.69
777.203	34.36
777.382	34.51
777.56	33.92
777.739	33.84
777.917	33.92
778.096	34.25
778.274	34.08
778.453	34.85
778.631	35.61
778.81	36.43
778.988	35.8
779.166	35.78
779.345	35.84
779.523	35.58
779.702	35.98
779.88	37.3
780.058	36.76
780.237	37.62
780.415	37.5
780.593	36.97
780.771	37.32
780.95	37.26
781.128	38.85
781.306	39.3
781.484	39.45
781.662	38.68
781.841	38.53
782.019	38.08
782.197	38.09
782.375	37.44
782.553	37.09
782.731	37.17
782.909	37.96
783.087	36.34
783.265	36.12
783.443	36.02
783.621	36.96
783.799	36.32
783.977	37.12
784.155	37.46
784.333	38.36
784.511	37.99
784.689	38.05
784.867	38.42
785.045	38.65
785.223	38.57
785.4	39.21
785.578	38.47
785.756	38.67
785.934	38.77
786.112	38.22
786.289	38.4
786.467	38.63
786.645	39.18
786.823	38.32
787	37.6
787.178	35.72
787.356	34.32
787.533	33.96
787.711	34.67
787.889	34.71
788.066	34.86
788.244	34.16
788.421	33.94
788.599	32.66
788.776	33.72
788.954	34.61
789.131	35.67
789.309	37.15
789.486	38.92
789.664	38.36
789.841	37.55
790.019	37.26
790.196	38.15
790.373	39.23
790.551	40.52
790.728	39.51
790.906	39.74
791.083	40
791.26	38.72
791.437	37.63
791.615	36.62
791.792	38.93
791.969	38.77
792.146	38.51
792.324	39.02
792.501	38.32
792.678	39
792.855	38.67
793.032	38.8
793.209	40.07
793.387	39.98
793.564	40.61
793.741	39.48
793.918	40
794.095	39.71
794.272	39.22
794.449	39.56
794.626	39.34
794.803	39.42
794.98	40
795.157	39.93
795.334	38.89
795.511	39.31
795.688	38.94
795.864	38.31
796.041	38.68
796.218	39.35
796.395	38.55
796.572	37.68
796.749	37.57
796.925	37.45
797.102	36.59
797.279	37.42
797.456	36.17
797.632	36.55
797.809	36.88
797.986	36.66
798.162	35.95
798.339	36.13
798.516	37.43
798.692	38.1
798.869	37.55
799.046	37.97
799.222	38.79
799.399	39.06
799.575	39.66
799.752	40.2
799.928	41.17
800.105	41.08
800.281	41.47
800.458	41.66
800.634	40.93
800.811	41.1
800.987	41.63
801.163	39.88
801.34	40.73
801.516	39.79
801.692	38.66
801.869	37.73
802.045	37.32
802.221	37.68
802.398	36.89
802.574	37.01
802.75	38.25
802.926	37.47
803.103	38.71
803.279	38.7
803.455	39.12
803.631	39.91
803.807	39.95
803.983	40.63
804.16	40.48
804.336	40.97
804.512	41.3
804.688	41.48
804.864	41.15
805.04	41.41
805.216	40.58
805.392	41.21
805.568	42.68
805.744	43.15
805.92	43.53
806.096	43.58
806.272	43.6
806.448	44.24
806.623	43.06
806.799	43.8
806.975	43.6
807.151	43.04
807.327	43.62
807.503	42.5
807.678	42.29
807.854	41.65
808.03	41.73
808.206	42.95
808.381	42.05
808.557	41.77
808.733	42.2
808.908	42.88
809.084	44.28
809.26	42.17
809.435	43.3
809.611	43.81
809.787	43.27
809.962	42.92
810.138	41.75
810.313	43.24
810.489	42.97
810.664	43.03
810.84	42.19
811.015	42.19
811.191	42.51
811.366	42.06
811.542	42.15
811.717	42.62
811.892	43.38
812.068	43.74
812.243	43.49
812.419	44.5
812.594	44.27
812.769	45.33
812.944	45.36
813.12	44.85
813.295	44.19
813.47	42.98
813.645	42.6
813.821	42.5
813.996	42.05
814.171	41.62
814.346	41.08
814.521	41.79
814.697	42.09
814.872	42.44
815.047	43.56
815.222	43.32
815.397	42.94
815.572	44.56
815.747	44.71
815.922	43.31
816.097	43.43
816.272	43.05
816.447	43
816.622	43.31
816.797	42.8
816.972	42.5
817.147	43.46
817.322	44.84
817.496	43.99
817.671	43.59
817.846	45.56
818.021	44.61
818.196	44.64
818.371	43.71
818.545	42.13
818.72	42.43
818.895	42.6
819.069	40.42
819.244	39.63
819.419	38.44
819.594	37.46
819.768	34.73
819.943	34.01
820.117	32.84
820.292	32.19
820.467	31.61
820.641	30.77
820.816	28.75
820.99	28.2
821.165	27.25
821.339	26.46
821.514	25.82
821.688	25.69
821.863	25.26
822.037	25
822.212	24.64
822.386	24.08
822.56	23.74
822.735	24.12
822.909	24.3
823.084	24.39
823.258	24.55
823.432	24.75
823.606	24.72
823.781	24.84
823.955	25.09
824.129	25.25
824.303	25.83
824.478	26.19
824.652	26.58
824.826	26.47
825	26.85
825.174	27.47
825.348	27.61
825.523	28.21
825.697	28.8
825.871	29.09
826.045	29.25
826.219	29.14
826.393	28.87
826.567	28.41
826.741	29.13
826.915	28.76
827.089	28.41
827.263	28.05
827.437	28.23
827.611	28.21
827.784	28.25
827.958	28.38
828.132	28.31
828.306	28.88
828.48	29.24
828.654	29.32
828.827	30.27
829.001	30.91
829.175	32.9
829.349	33.76
829.522	34.23
829.696	34.95
829.87	35.61
830.044	37.5
830.217	38.21
830.391	38.42
830.565	38.54
830.738	38.55
830.912	39.97
831.085	38.46
831.259	39.01
831.432	39.8
831.606	39.45
831.779	39.72
831.953	39.25
832.126	38.3
832.3	37.7
832.473	36
832.647	35.15
832.82	34.25
832.994	33.99
833.167	33.16
833.34	32.14
833.514	31.89
833.687	31.82
833.86	30.97
834.034	30.95
834.207	31.28
834.38	31.85
834.553	32.17
834.727	32.11
834.9	32.1
835.073	32.48
835.246	32.34
835.419	33.25
835.593	33.46
835.766	34.42
835.939	35.07
836.112	35.52
836.285	35.86
836.458	36.7
836.631	37.92
836.804	39.31
836.977	40.22
837.15	42.32
837.323	42.08
837.496	43.49
837.669	43.42
837.842	43.81
838.015	45.1
838.188	46.92
838.361	47.87
838.533	46.95
838.706	46.29
838.879	45.9
839.052	46.42
839.225	46.7
839.398	45.77
839.57	47.03
839.743	46.52
839.916	46.68
840.088	44.27
840.261	43.22
840.434	43.83
840.607	43.62
840.779	43.89
840.952	42.17
841.124	42.42
841.297	41.72
841.47	40.94
841.642	42.2
841.815	42.5
841.987	44.02
842.16	46.87
842.332	46.97
842.505	50.61
842.677	50.65
842.85	54.02
843.022	53.36
843.194	58.03
843.367	59.98
843.539	61.33
843.712	61.35
843.884	62.28
844.056	59.18
844.229	59.45
844.401	57.46
844.573	61.75
844.745	63.21
844.918	65.47
845.09	61.8
845.262	63.65
845.434	67.51
845.606	69.99
845.779	73.04
845.951	75.12
846.123	74.9
846.295	76.86
846.467	72.3
846.639	73.22
846.811	73.32
846.983	74.14
847.155	72.05
847.327	71.23
847.499	69.24
847.671	69.17
847.843	68.77
848.015	71.98
848.187	69.23
848.359	70.72
848.531	70.71
848.703	70.33
848.875	71.19
849.047	72.43
849.218	71.38
849.39	71.83
849.562	72.35
849.734	70.97
849.905	68.19
850.077	69.82
850.249	75.34
850.421	75.1
850.592	78.5
850.764	81.74
850.936	83.12
851.107	83.64
851.279	81.72
851.451	81.75
851.622	79.64
851.794	84.02
851.965	86.63
852.137	85.28
852.308	81.66
852.48	79.5
852.651	74.93
852.823	74.56
852.994	67.99
853.166	69.73
853.337	69.2
853.509	73.26
853.68	71.96
853.851	65.01
854.023	64.05
854.194	61.91
854.365	59
854.537	61.25
854.708	60.42
854.879	67.62
855.05	70.12
855.222	70.11
855.393	70.7
855.564	67.97
855.735	73.91
855.906	71.98
856.078	70.77
856.249	74.8
856.42	71.33
856.591	72.14
856.762	72.35
856.933	71.1
857.104	73.69
857.275	74.51
857.446	78.27
857.617	76.77
857.788	77.08
857.959	79.39
858.13	82.1
858.301	84.87
858.472	81.26
858.643	77.07
858.814	77.46
858.985	79.46
859.155	79.42
859.326	82.06
859.497	80.92
859.668	78.91
859.839	85.11
860.009	83.68
860.18	84.32
860.351	87.37
860.522	92.25
860.692	89.25
860.863	82.33
861.034	84.92
861.204	79.73
861.375	84.82
861.546	89.01
861.716	89.57
861.887	88.4
862.057	86.39
862.228	86.8
862.398	81.42
862.569	85.75
862.739	90.54
862.91	88.26
863.08	86.12
863.251	81.32
863.421	79
863.592	73.52
863.762	75.26
863.932	73.56
864.103	73.18
864.273	76.64
864.443	74.47
864.614	70.21
864.784	70.45
864.954	73.81
865.125	75.13
865.295	74.53
865.465	79
865.635	78.59
865.805	84.29
865.976	82.96
866.146	81.32
866.316	79.98
866.486	84.03
866.656	84.14
866.826	86.63
866.996	89.13
867.166	91.2
867.336	90.64
867.506	91.08
867.676	88.81
867.846	93.18
868.016	93.14
868.186	89.97
868.356	86.1
868.526	85.42
868.696	87.17
868.866	87.74
869.036	90.87
869.206	91.36
869.376	88.84
869.545	90.41
869.715	86.19
869.885	87.66
870.055	91.84
870.224	93.92
870.394	93.51
870.564	88.8
870.734	88.88
870.903	86.18
871.073	88.68
871.243	88.36
871.412	85.24
871.582	88.77
871.751	87.88
871.921	88.31
872.091	86.54
872.26	85.84
872.43	88.68
872.599	83.02
872.769	82.31
872.938	79.37
873.108	79.1
873.277	77.05
873.446	73.48
873.616	75.68
873.785	76.45
873.955	75.46
874.124	79.06
874.293	75.28
874.463	77.49
874.632	80.12
874.801	79.76
874.971	78.47
875.14	81.99
875.309	81.63
875.478	83.82
875.647	80.37
875.817	83.64
875.986	77.56
876.155	82.09
876.324	78.97
876.493	76.33
876.662	75.14
876.831	77.53
877	76.92
877.17	79.16
877.339	79.28
877.508	81.7
877.677	81.65
877.846	84.73
878.015	79.75
878.184	84.58
878.352	86.15
878.521	83.48
878.69	80.35
878.859	78.49
879.028	77.95
879.197	70.75
879.366	68.02
879.534	64.71
879.703	60.1
879.872	56.5
880.041	50.45
880.21	46.83
880.378	45.34
880.547	42.58
880.716	41.04
880.884	38.26
881.053	37.09
881.222	35.12
881.39	32.9
881.559	31.5
881.727	30.41
881.896	30.5
882.065	30.33
882.233	29.43
882.402	29.52
882.57	29.71
882.739	29.72
882.907	29.75
883.076	30.2
883.244	31.26
883.412	31.55
883.581	32.26
883.749	32.24
883.918	31.85
884.086	33.14
884.254	34.15
884.423	33.66
884.591	34.63
884.759	36.09
884.927	36.12
885.096	35.48
885.264	36.71
885.432	36.83
885.6	38.34
885.769	40.06
885.937	41.33
886.105	42.73
886.273	45.74
886.441	49.68
886.609	50.81
886.777	54.8
886.945	59.31
887.113	61.76
887.281	65.33
887.449	70.13
887.617	74.19
887.785	76.19
887.953	76.6
888.121	76.5
888.289	77.13
888.457	77.26
888.625	77.69
888.793	77.22
888.961	78.41
889.129	82.67
889.296	80.84
889.464	79.28
889.632	79.35
889.8	77.95
889.967	82.65
890.135	79.85
