Data from 2938830__Reflection_02.txt Node
Date: Thu Mar 12 12:36:06 EDT 2015
User: robert
Spectrometer: USB4E03002
Autoset integration time: false
Trigger mode: 4
Integration Time (sec): 1.000000E-1
Scans to average: 10
Electric dark correction enabled: false
Nonlinearity correction enabled: false
Boxcar width: 5
Stray light correction enabled: false
XAxis mode: Wavelengths
Stop averaging: false
Number of Pixels in Spectrum: 3648
>>>>>Begin Spectral Data<<<<<
177.575	110.22
177.794	138.03
178.014	152.97
178.233	162.85
178.452	151.16
178.672	146.62
178.891	198.59
179.11	269.94
179.33	469.03
179.549	301.45
179.768	316.57
179.987	207.05
180.207	116.57
180.426	102.58
180.645	157.03
180.864	-857.14
181.084	610.45
181.303	166.78
181.522	145.15
181.741	139.22
181.96	164.86
182.179	159.8
182.398	198.76
182.618	324.12
182.837	762.5
183.056	225.5
183.275	176.68
183.494	180
183.713	242.4
183.932	253.85
184.151	196.86
184.37	235.33
184.589	249.71
184.808	249.64
185.027	237.86
185.246	202.11
185.465	189.48
185.684	217.56
185.903	199.3
186.122	176.18
186.341	176.3
186.56	205.59
186.779	175.62
186.998	200.7
187.216	229.4
187.435	217.4
187.654	214.83
187.873	340.52
188.092	241.58
188.311	240.24
188.53	283.02
188.748	227.88
188.967	223.6
189.186	183.57
189.405	147.67
189.623	126.57
189.842	118.79
190.061	116.22
190.28	120.62
190.498	116.47
190.717	128.1
190.936	130.74
191.154	125.84
191.373	134.41
191.592	200.66
191.81	230.28
192.029	358.8
192.248	795.59
192.466	419.65
192.685	508.61
192.904	522.28
193.122	310.78
193.341	246.1
193.559	243.32
193.778	165.71
193.996	134.73
194.215	110.69
194.433	95.53
194.652	78.09
194.87	106.04
195.089	81.75
195.307	87.05
195.526	120.78
195.744	154.28
195.963	190.49
196.181	364.99
196.399	653.37
196.618	938.41
196.836	-1886.36
197.055	1723.38
197.273	1083.49
197.491	1460.49
197.71	803.31
197.928	464.76
198.146	268.98
198.365	168.76
198.583	121.49
198.801	113.99
199.019	106.57
199.238	83.73
199.456	59.37
199.674	75.09
199.892	64.62
200.111	64.98
200.329	72.12
200.547	79.43
200.765	98.45
200.983	71.41
201.202	60.26
201.42	75.58
201.638	89.47
201.856	86.06
202.074	105.33
202.292	134.74
202.51	400
202.728	187.53
202.946	164.68
203.165	138.49
203.383	194.95
203.601	152.49
203.819	132.96
204.037	114.24
204.255	164.02
204.473	140.11
204.691	140.98
204.909	118.1
205.127	120.7
205.345	118.81
205.562	102.76
205.78	106.09
205.998	91.51
206.216	110.73
206.434	115.33
206.652	115.01
206.87	93.95
207.088	76.18
207.306	73.33
207.523	99.12
207.741	97.23
207.959	131.04
208.177	119.74
208.395	138.45
208.612	138.94
208.83	154.62
209.048	116.1
209.266	151.06
209.483	159.62
209.701	145.35
209.919	148.52
210.136	147.26
210.354	145.53
210.572	117.84
210.79	96.68
211.007	80.21
211.225	72.74
211.442	90.08
211.66	77.36
211.878	80.93
212.095	100.72
212.313	83.78
212.53	84.28
212.748	74.7
212.966	83.12
213.183	72.97
213.401	57.77
213.618	70.08
213.836	72.93
214.053	72.09
214.271	80.43
214.488	70.35
214.705	69.61
214.923	67.73
215.14	89.69
215.358	96.92
215.575	100.12
215.793	94.21
216.01	97.91
216.227	92.48
216.445	74.73
216.662	61.76
216.879	54.29
217.097	46.36
217.314	74.88
217.531	73.19
217.749	72.3
217.966	70.58
218.183	83.39
218.4	81.6
218.618	76.58
218.835	89.9
219.052	87.28
219.269	88.85
219.487	93.2
219.704	74.05
219.921	67.12
220.138	64.79
220.355	65.98
220.572	75.13
220.79	65.51
221.007	55.46
221.224	42.4
221.441	40.73
221.658	42.99
221.875	43.05
222.092	40.51
222.309	39.34
222.526	35.61
222.743	33.19
222.96	25.03
223.177	29.23
223.394	33.47
223.611	38.63
223.828	39.11
224.045	34.23
224.262	31.88
224.479	32.75
224.696	23.76
224.913	25.45
225.13	28.93
225.347	27.68
225.564	20.75
225.781	20.05
225.997	17.53
226.214	17.7
226.431	20
226.648	20.03
226.865	17.38
227.082	17.73
227.298	14.6
227.515	12.68
227.732	11.08
227.949	9.99
228.165	8.25
228.382	7.33
228.599	6.05
228.816	5.01
229.032	5.01
229.249	5.29
229.466	5.35
229.682	6.1
229.899	6.2
230.116	7.64
230.332	8.86
230.549	10.82
230.765	12.17
230.982	14.41
231.199	16.1
231.415	15.36
231.632	14.96
231.848	15.8
232.065	15.8
232.281	14.57
232.498	14.7
232.714	14.35
232.931	11.06
233.147	9.9
233.364	7.84
233.58	6.17
233.797	5.68
234.013	7.17
234.23	7.36
234.446	7.74
234.662	9.74
234.879	7.36
235.095	8.08
235.312	10.28
235.528	9.78
235.744	9.6
235.961	11.2
236.177	12.73
236.393	13.46
236.61	13.41
236.826	13.81
237.042	12.76
237.258	14.49
237.475	15.99
237.691	13.77
237.907	14.32
238.123	14.1
238.339	12.69
238.556	11.77
238.772	9.8
238.988	10.3
239.204	9.78
239.42	10.21
239.636	8.91
239.853	6.31
240.069	7
240.285	6.02
240.501	5.48
240.717	6.24
240.933	5.89
241.149	6.3
241.365	5.41
241.581	5.34
241.797	5.53
242.013	5.4
242.229	5.02
242.445	5.29
242.661	6.14
242.877	6.64
243.093	6.21
243.309	6.72
243.525	6.33
243.741	6.16
243.957	5.62
244.173	5.41
244.388	5.7
244.604	5.87
244.82	5.27
245.036	4.41
245.252	3.93
245.468	4.18
245.683	3.58
245.899	3.49
246.115	3.84
246.331	3.99
246.547	3.89
246.762	3.83
246.978	3.9
247.194	4.25
247.409	4
247.625	3.83
247.841	3.73
248.057	3.91
248.272	4.04
248.488	4.08
248.703	4.19
248.919	4.64
249.135	4.66
249.35	5.28
249.566	4.5
249.782	4.95
249.997	5.23
250.213	5.43
250.428	5.4
250.644	5.09
250.859	5.95
251.075	5.72
251.29	5.51
251.506	6.03
251.721	5.69
251.937	5.82
252.152	5.39
252.368	5.41
252.583	5.21
252.798	5.7
253.014	6.09
253.229	5.07
253.445	5.55
253.66	5.8
253.875	5.3
254.091	5.15
254.306	5.7
254.521	6.49
254.737	6.61
254.952	6.84
255.167	7.38
255.383	7.25
255.598	7.57
255.813	7.8
256.028	6.05
256.244	6.06
256.459	6.17
256.674	6.04
256.889	6.86
257.104	7.17
257.32	6.39
257.535	5.04
257.75	4.19
257.965	3.87
258.18	3.59
258.395	3.72
258.61	3.1
258.826	2.82
259.041	2.86
259.256	2.21
259.471	2.16
259.686	1.91
259.901	2.28
260.116	2.6
260.331	2.55
260.546	2.47
260.761	2.5
260.976	2.76
261.191	2.73
261.406	2.85
261.621	3.3
261.836	3.68
262.05	4.19
262.265	3.91
262.48	3.96
262.695	4.19
262.91	4.41
263.125	5.22
263.34	5.55
263.555	6.11
263.769	5.84
263.984	5.72
264.199	5.37
264.414	5.59
264.629	5.82
264.843	5.99
265.058	6.43
265.273	5.92
265.488	5.41
265.702	5.71
265.917	5.39
266.132	5.38
266.346	5.46
266.561	5.37
266.776	4.75
266.99	5.03
267.205	4.7
267.42	4.14
267.634	4.17
267.849	3.92
268.063	3.36
268.278	3.25
268.492	3.59
268.707	3.12
268.922	3.08
269.136	3.84
269.351	4.12
269.565	4.26
269.78	4.08
269.994	4.05
270.209	4.32
270.423	4.27
270.637	4
270.852	3.4
271.066	3.46
271.281	3.41
271.495	3.28
271.709	2.62
271.924	2.58
272.138	2.9
272.353	2.74
272.567	2.13
272.781	2.34
272.996	2.74
273.21	3.23
273.424	3.31
273.638	3.18
273.853	3.16
274.067	3.32
274.281	3.47
274.495	3.18
274.71	4.15
274.924	4.38
275.138	4.49
275.352	3.87
275.566	3.74
275.781	3.71
275.995	4.04
276.209	4.12
276.423	4.02
276.637	3.57
276.851	3.44
277.065	2.89
277.279	3.15
277.493	3.11
277.707	4.02
277.921	3.91
278.135	3.66
278.349	3.47
278.563	4.23
278.777	4.21
278.991	4.62
279.205	5.05
279.419	4.71
279.633	4.56
279.847	4.17
280.061	3.95
280.275	3.61
280.489	3.92
280.703	3.86
280.917	2.86
281.131	3.16
281.344	3.08
281.558	3.14
281.772	3.29
281.986	3.49
282.2	2.98
282.414	2.91
282.627	2.93
282.841	3.03
283.055	3.14
283.269	3.7
283.482	3.39
283.696	3.39
283.91	3.25
284.123	3.66
284.337	3.72
284.551	4.33
284.764	4.16
284.978	4.22
285.192	3.85
285.405	3.86
285.619	3.81
285.833	3.8
286.046	3.85
286.26	3.92
286.473	3.51
286.687	2.96
286.9	2.91
287.114	3.13
287.327	3.04
287.541	3.27
287.754	3.33
287.968	3.19
288.181	3.67
288.395	3.55
288.608	3.49
288.822	3.79
289.035	3.97
289.248	4.03
289.462	3.63
289.675	3.54
289.889	3.74
290.102	3.48
290.315	3.24
290.529	2.82
290.742	2.78
290.955	2.91
291.169	2.47
291.382	3.04
291.595	2.98
291.808	3.13
292.022	3.66
292.235	3.37
292.448	3.5
292.661	3.84
292.875	4.15
293.088	4.19
293.301	4.31
293.514	4.67
293.727	4.41
293.94	4.23
294.153	4.48
294.367	4.25
294.58	4.57
294.793	4.85
295.006	4.73
295.219	4.38
295.432	4.31
295.645	4.49
295.858	4.37
296.071	4.54
296.284	4.8
296.497	4.85
296.71	4.98
296.923	4.79
297.136	4.76
297.349	4.75
297.562	5.07
297.775	5.3
297.988	5.18
298.201	5.26
298.414	5.33
298.626	5.54
298.839	5.57
299.052	5.55
299.265	5.88
299.478	5.52
299.691	5.89
299.903	6.15
300.116	6.05
300.329	6.07
300.542	6.19
300.755	6.19
300.967	6.18
301.18	5.94
301.393	6.15
301.605	6.15
301.818	6.42
302.031	6.31
302.243	6.15
302.456	6.04
302.669	6.25
302.881	6.47
303.094	6.55
303.307	6.78
303.519	6.95
303.732	6.8
303.944	6.66
304.157	6.43
304.37	6.49
304.582	6.85
304.795	7.02
305.007	6.6
305.22	6.38
305.432	6.27
305.645	6.26
305.857	6.61
306.069	6.69
306.282	6.98
306.494	7.51
306.707	7.64
306.919	7.37
307.132	7.72
307.344	7.93
307.556	8.15
307.769	8.17
307.981	7.8
308.193	7.43
308.406	7.66
308.618	7.47
308.83	7.65
309.043	7.45
309.255	7.39
309.467	7.2
309.679	7.43
309.892	7.54
310.104	7.66
310.316	7.73
310.528	7.93
310.74	8.04
310.953	8.19
311.165	7.67
311.377	7.74
311.589	7.66
311.801	7.8
312.013	7.53
312.225	7.42
312.437	7.69
312.649	8.01
312.862	8.04
313.074	7.86
313.286	7.91
313.498	8.39
313.71	8.55
313.922	8.54
314.134	8.3
314.346	8.65
314.558	8.87
314.77	8.41
314.982	8.27
315.193	8.09
315.405	8.19
315.617	7.94
315.829	7.92
316.041	8.22
316.253	8.51
316.465	8.93
316.677	9.4
316.888	9.61
317.1	9.62
317.312	9.16
317.524	9.08
317.736	8.9
317.947	9.33
318.159	9.42
318.371	8.9
318.583	8.77
318.794	8.43
319.006	7.81
319.218	7.76
319.43	7.87
319.641	8.4
319.853	9.04
320.064	9.4
320.276	9.29
320.488	9.44
320.699	10.01
320.911	10.33
321.123	10.76
321.334	10.83
321.546	11
321.757	10.9
321.969	10.83
322.18	10.58
322.392	10.4
322.603	10.21
322.815	10.14
323.026	9.89
323.238	9.74
323.449	9.87
323.661	9.7
323.872	9.52
324.083	9.84
324.295	9.9
324.506	10.07
324.718	10.15
324.929	10.17
325.14	10.34
325.352	10.43
325.563	10.68
325.774	10.87
325.986	11.07
326.197	11.09
326.408	11.01
326.62	10.79
326.831	11.11
327.042	11.25
327.253	11.57
327.464	11.59
327.676	11.75
327.887	11.85
328.098	11.69
328.309	12.19
328.52	12.7
328.732	12.97
328.943	13.89
329.154	13.95
329.365	14.51
329.576	14.85
329.787	14.99
329.998	15.39
330.209	15.64
330.42	15.87
330.631	16
330.842	15.65
331.053	15.76
331.264	16.03
331.475	15.85
331.686	15.86
331.897	15.7
332.108	15.9
332.319	15.81
332.53	16.08
332.741	16.29
332.952	16.28
333.163	16.53
333.374	16.93
333.585	16.61
333.795	16.92
334.006	16.91
334.217	17.37
334.428	17.53
334.639	17.6
334.849	17.2
335.06	17.19
335.271	16.83
335.482	17.04
335.692	17.11
335.903	17.22
336.114	17.42
336.325	17.39
336.535	17.08
336.746	16.96
336.957	16.88
337.167	17.01
337.378	17.16
337.589	17.8
337.799	17.59
338.01	17.55
338.22	17.61
338.431	17.31
338.642	17.13
338.852	17.6
339.063	17.87
339.273	18.28
339.484	18.52
339.694	18.53
339.905	18.54
340.115	18.42
340.326	18.19
340.536	17.93
340.746	17.96
340.957	18.08
341.167	17.91
341.378	18.12
341.588	18.04
341.799	17.78
342.009	17.74
342.219	17.52
342.43	17.63
342.64	17.96
342.85	18.19
343.061	18.25
343.271	18.43
343.481	18.31
343.691	17.77
343.902	17.25
344.112	17.28
344.322	17.21
344.532	17.49
344.743	17.63
344.953	17.7
345.163	17.68
345.373	17.74
345.583	17.67
345.793	17.59
346.004	17.79
346.214	17.9
346.424	18.18
346.634	18.17
346.844	18.01
347.054	18.11
347.264	17.74
347.474	17.63
347.684	17.65
347.894	17.68
348.104	17.75
348.314	17.61
348.524	17.8
348.734	17.41
348.944	17.2
349.154	17.34
349.364	16.89
349.574	16.87
349.784	16.72
349.994	16.29
350.204	16.41
350.413	16.23
350.623	16.24
350.833	16.35
351.043	16.42
351.253	16.73
351.463	16.39
351.672	16.92
351.882	16.95
352.092	16.84
352.302	17.11
352.511	16.87
352.721	16.91
352.931	16.74
353.141	16.48
353.35	16.35
353.56	16.23
353.77	16.13
353.979	15.52
354.189	15.45
354.399	15.87
354.608	15.77
354.818	15.79
355.027	15.8
355.237	15.98
355.447	16.25
355.656	16.47
355.866	16.37
356.075	16.44
356.285	16.66
356.494	16.4
356.704	16.1
356.913	16.21
357.123	16.17
357.332	16.26
357.542	16.26
357.751	16.24
357.96	15.98
358.17	15.92
358.379	15.89
358.589	15.93
358.798	16.15
359.007	16.05
359.217	15.73
359.426	15.55
359.635	15.36
359.845	15.13
360.054	14.72
360.263	14.88
360.472	14.91
360.682	14.98
360.891	14.96
361.1	14.96
361.309	15.2
361.519	15.36
361.728	15.33
361.937	15.42
362.146	15.39
362.355	15.58
362.564	15.67
362.774	15.61
362.983	15.4
363.192	15.31
363.401	15.32
363.61	15.16
363.819	15.24
364.028	15.35
364.237	15.21
364.446	15.26
364.655	15.23
364.864	14.95
365.073	15.23
365.282	15.23
365.491	15.35
365.7	15.3
365.909	15.21
366.118	15.04
366.327	14.92
366.536	14.82
366.745	14.9
366.954	15.04
367.162	15.22
367.371	15.01
367.58	15.23
367.789	15.02
367.998	14.81
368.207	14.78
368.415	14.77
368.624	14.81
368.833	15.27
369.042	15.16
369.25	14.84
369.459	14.8
369.668	14.58
369.877	14.46
370.085	14.54
370.294	14.69
370.503	14.62
370.711	14.38
370.92	14.42
371.129	14.21
371.337	14.28
371.546	14.5
371.754	14.34
371.963	14.39
372.171	14.38
372.38	14.4
372.589	14.38
372.797	14.44
373.006	14.61
373.214	14.38
373.423	14.33
373.631	14.2
373.84	14.15
374.048	14.25
374.256	14.41
374.465	14.44
374.673	14.38
374.882	14.63
375.09	14.4
375.298	14.33
375.507	14.32
375.715	14.12
375.923	13.99
376.132	13.76
376.34	13.66
376.548	13.36
376.757	13.18
376.965	13.31
377.173	12.97
377.381	12.89
377.59	12.92
377.798	12.9
378.006	12.87
378.214	12.94
378.423	13.04
378.631	13.15
378.839	13.17
379.047	13.15
379.255	13.07
379.463	12.77
379.671	13
379.879	12.86
380.088	12.93
380.296	12.97
380.504	12.9
380.712	12.62
380.92	12.32
381.128	12.39
381.336	12.15
381.544	11.88
381.752	12.03
381.96	11.96
382.168	12.02
382.376	11.85
382.584	11.82
382.791	12.03
382.999	12.1
383.207	12.13
383.415	12.35
383.623	12.51
383.831	12.52
384.039	12.54
384.247	12.45
384.454	12.46
384.662	12.66
384.87	12.47
385.078	12.29
385.285	12.45
385.493	12.37
385.701	12.01
385.909	11.88
386.116	11.9
386.324	11.78
386.532	11.73
386.739	11.67
386.947	11.31
387.155	11.47
387.362	11.38
387.57	11.35
387.778	11.4
387.985	11.49
388.193	11.46
388.4	11.51
388.608	11.62
388.816	11.65
389.023	11.54
389.231	11.79
389.438	11.78
389.646	11.89
389.853	11.56
390.061	11.63
390.268	11.71
390.475	11.78
390.683	11.75
390.89	11.59
391.098	11.37
391.305	11.28
391.512	11.27
391.72	11.11
391.927	10.97
392.135	11.23
392.342	11.1
392.549	10.78
392.756	10.64
392.964	10.56
393.171	10.65
393.378	10.85
393.586	10.92
393.793	10.72
394	10.82
394.207	10.68
394.414	10.59
394.622	10.58
394.829	10.78
395.036	10.97
395.243	10.72
395.45	10.77
395.657	10.7
395.864	10.59
396.072	10.84
396.279	10.91
396.486	11.14
396.693	11.18
396.9	11.26
397.107	11.26
397.314	11.23
397.521	11.56
397.728	11.47
397.935	11.42
398.142	11.59
398.349	11.4
398.556	11.22
398.763	11.28
398.97	11.09
399.177	10.9
399.383	10.69
399.59	10.66
399.797	10.62
400.004	10.56
400.211	10.47
400.418	10.45
400.625	10.44
400.831	10.31
401.038	10.26
401.245	10.37
401.452	10.54
401.658	10.55
401.865	10.43
402.072	10.25
402.279	10.37
402.485	10.53
402.692	10.31
402.899	10.32
403.105	10.43
403.312	10.25
403.519	10.29
403.725	10.31
403.932	10.36
404.138	10.2
404.345	10.16
404.552	10.06
404.758	9.94
404.965	9.97
405.171	9.91
405.378	9.93
405.584	10.19
405.791	10.18
405.997	10.1
406.204	10.06
406.41	10.35
406.617	10.27
406.823	10.2
407.029	10.4
407.236	10.35
407.442	10.38
407.649	10.26
407.855	10.04
408.061	9.72
408.268	9.61
408.474	9.73
408.68	9.62
408.887	9.7
409.093	9.84
409.299	9.62
409.505	9.63
409.712	9.54
409.918	9.75
410.124	9.62
410.33	9.89
410.537	10.04
410.743	9.82
410.949	9.71
411.155	9.78
411.361	9.76
411.567	9.66
411.773	9.72
411.98	9.58
412.186	9.34
412.392	9.48
412.598	9.53
412.804	9.41
413.01	9.57
413.216	9.73
413.422	9.71
413.628	9.76
413.834	9.91
414.04	10.01
414.246	10.11
414.452	10.11
414.658	10.02
414.864	9.8
415.07	9.73
415.275	9.53
415.481	9.42
415.687	9.42
415.893	9.26
416.099	9.23
416.305	9.02
416.511	9.07
416.716	9.06
416.922	9.1
417.128	9.17
417.334	9.19
417.539	9.31
417.745	9.22
417.951	9.02
418.157	9.08
418.362	9.12
418.568	9.15
418.774	9.13
418.979	9.06
419.185	8.99
419.391	8.92
419.596	8.79
419.802	8.81
420.008	8.87
420.213	8.91
420.419	8.88
420.624	8.81
420.83	8.8
421.035	8.75
421.241	8.77
421.446	8.69
421.652	8.6
421.857	8.75
422.063	8.72
422.268	8.69
422.474	8.75
422.679	8.73
422.885	8.74
423.09	8.72
423.295	8.76
423.501	8.79
423.706	8.93
423.911	8.98
424.117	8.9
424.322	8.92
424.527	8.94
424.733	8.92
424.938	8.96
425.143	8.97
425.349	9
425.554	8.94
425.759	8.96
425.964	8.86
426.169	8.91
426.375	8.9
426.58	8.87
426.785	8.77
426.99	8.76
427.195	8.65
427.4	8.57
427.605	8.53
427.811	8.57
428.016	8.56
428.221	8.71
428.426	8.65
428.631	8.7
428.836	8.72
429.041	8.88
429.246	8.86
429.451	8.95
429.656	8.98
429.861	9.08
430.066	9.04
430.271	8.86
430.476	8.78
430.681	8.8
430.886	8.74
431.09	8.7
431.295	8.63
431.5	8.59
431.705	8.53
431.91	8.5
432.115	8.36
432.32	8.39
432.524	8.38
432.729	8.5
432.934	8.61
433.139	8.67
433.343	8.74
433.548	8.8
433.753	8.92
433.958	9
434.162	9.06
434.367	9.07
434.572	9.21
434.776	9.42
434.981	9.21
435.186	9.21
435.39	9.23
435.595	9.08
435.799	9.05
436.004	9.05
436.209	9.01
436.413	9
436.618	9.12
436.822	9.02
437.027	8.92
437.231	9.06
437.436	9.01
437.64	9.13
437.845	9.23
438.049	9.2
438.253	9.22
438.458	9.17
438.662	9.17
438.867	9.13
439.071	9.21
439.275	9.27
439.48	9.15
439.684	9.13
439.888	9.06
440.093	9.08
440.297	9.19
440.501	9.13
440.706	9.16
440.91	9.12
441.114	9.17
441.318	9.08
441.523	9.1
441.727	9.24
441.931	9.21
442.135	9.17
442.339	9.07
442.543	9.03
442.748	8.99
442.952	8.85
443.156	8.88
443.36	8.82
443.564	8.87
443.768	8.84
443.972	8.77
444.176	8.85
444.38	8.85
444.584	8.87
444.788	8.89
444.992	9.03
445.196	9.12
445.4	9.09
445.604	9.1
445.808	9.07
446.012	9.08
446.216	9.06
446.42	8.97
446.624	9.03
446.828	9.04
447.032	9.02
447.235	8.88
447.439	8.88
447.643	8.95
447.847	8.97
448.051	8.93
448.254	8.91
448.458	8.94
448.662	9.01
448.866	8.89
449.069	8.9
449.273	8.84
449.477	8.97
449.681	9.04
449.884	8.97
450.088	8.99
450.292	9
450.495	8.99
450.699	8.98
450.902	8.87
451.106	8.92
451.31	9.05
451.513	9.07
451.717	8.91
451.92	8.86
452.124	8.97
452.327	8.87
452.531	8.9
452.734	8.93
452.938	9.08
453.141	9.19
453.345	9.14
453.548	8.97
453.752	9
453.955	9.09
454.158	9.18
454.362	9.11
454.565	9.09
454.769	9.05
454.972	9.05
455.175	8.89
455.379	8.95
455.582	8.96
455.785	9.04
455.988	9.01
456.192	9
456.395	8.88
456.598	9.02
456.801	9.04
457.005	9.08
457.208	9.13
457.411	9.06
457.614	8.97
457.817	9.08
458.021	9.09
458.224	9.06
458.427	9.08
458.63	9.04
458.833	8.91
459.036	8.9
459.239	8.89
459.442	8.85
459.645	8.86
459.848	8.86
460.051	8.77
460.254	8.76
460.457	8.68
460.66	8.7
460.863	8.7
461.066	8.72
461.269	8.74
461.472	8.7
461.675	8.71
461.878	8.73
462.081	8.76
462.284	8.76
462.486	8.66
462.689	8.87
462.892	8.75
463.095	8.89
463.298	8.96
463.5	9.1
463.703	9.26
463.906	9.24
464.109	9.31
464.311	9.18
464.514	9.32
464.717	9.47
464.92	9.34
465.122	9.52
465.325	9.44
465.528	9.38
465.73	9.17
465.933	9.06
466.135	9
466.338	9
466.541	9.09
466.743	8.97
466.946	8.95
467.148	9.01
467.351	8.95
467.553	9
467.756	9.04
467.958	9.08
468.161	9.12
468.363	9.24
468.566	9.13
468.768	9.17
468.971	9.19
469.173	9.22
469.375	9.19
469.578	9.14
469.78	9.07
469.983	9.04
470.185	9.17
470.387	9.22
470.59	9.15
470.792	9.32
470.994	9.28
471.196	9.47
471.399	9.45
471.601	9.4
471.803	9.37
472.005	9.37
472.208	9.46
472.41	9.41
472.612	9.34
472.814	9.25
473.016	9.11
473.218	9.17
473.421	9
473.623	9.1
473.825	9.12
474.027	9.14
474.229	9.16
474.431	9.08
474.633	9.08
474.835	9.15
475.037	9.27
475.239	9.29
475.441	9.18
475.643	9.19
475.845	9.01
476.047	9.01
476.249	8.99
476.451	9.02
476.653	9.04
476.855	9.05
477.057	8.99
477.258	8.92
477.46	8.97
477.662	9.09
477.864	9.12
478.066	9.2
478.268	9.19
478.469	9.2
478.671	9.18
478.873	9.23
479.075	9.17
479.276	9.18
479.478	9.32
479.68	9.24
479.882	9.14
480.083	9.15
480.285	9.06
480.487	9.06
480.688	9.06
480.89	9.09
481.091	9.04
481.293	9.05
481.495	9
481.696	8.9
481.898	8.85
482.099	8.83
482.301	8.75
482.502	8.77
482.704	8.75
482.905	8.72
483.107	8.7
483.308	8.7
483.51	8.7
483.711	8.72
483.913	8.69
484.114	8.73
484.315	8.75
484.517	8.76
484.718	8.75
484.92	8.77
485.121	8.78
485.322	8.78
485.524	8.78
485.725	8.76
485.926	8.71
486.127	8.75
486.329	8.69
486.53	8.66
486.731	8.68
486.932	8.67
487.134	8.64
487.335	8.68
487.536	8.66
487.737	8.64
487.938	8.65
488.139	8.68
488.341	8.7
488.542	8.72
488.743	8.74
488.944	8.75
489.145	8.78
489.346	8.82
489.547	8.76
489.748	8.75
489.949	8.76
490.15	8.71
490.351	8.72
490.552	8.71
490.753	8.72
490.954	8.73
491.155	8.74
491.356	8.71
491.557	8.72
491.758	8.76
491.959	8.79
492.159	8.8
492.36	8.88
492.561	8.9
492.762	8.9
492.963	8.94
493.164	8.95
493.364	8.99
493.565	9.07
493.766	9.11
493.967	9.09
494.167	9.1
494.368	9.08
494.569	9.06
494.769	9.08
494.97	9.13
495.171	9.14
495.371	9.18
495.572	9.18
495.773	9.22
495.973	9.22
496.174	9.39
496.375	9.46
496.575	9.51
496.776	9.47
496.976	9.51
497.177	9.52
497.377	9.52
497.578	9.52
497.778	9.5
497.979	9.5
498.179	9.51
498.38	9.41
498.58	9.35
498.78	9.42
498.981	9.57
499.181	9.56
499.382	9.54
499.582	9.57
499.782	9.68
499.983	9.67
500.183	9.69
500.383	9.73
500.584	9.75
500.784	9.84
500.984	9.83
501.184	9.72
501.385	9.86
501.585	9.96
501.785	9.98
501.985	9.95
502.185	9.97
502.386	9.9
502.586	9.83
502.786	9.83
502.986	9.81
503.186	9.83
503.386	9.9
503.586	9.91
503.786	9.87
503.987	9.85
504.187	9.87
504.387	9.92
504.587	10.02
504.787	10.08
504.987	10.14
505.187	10.23
505.387	10.24
505.587	10.36
505.786	10.37
505.986	10.42
506.186	10.49
506.386	10.53
506.586	10.61
506.786	10.61
506.986	10.65
507.186	10.73
507.386	10.72
507.585	10.77
507.785	10.68
507.985	10.72
508.185	10.77
508.384	10.85
508.584	10.91
508.784	10.89
508.984	11.02
509.183	11.02
509.383	11.08
509.583	11.05
509.782	11.08
509.982	11.24
510.182	11.3
510.381	11.3
510.581	11.31
510.781	11.31
510.98	11.4
511.18	11.43
511.379	11.53
511.579	11.53
511.778	11.61
511.978	11.67
512.177	11.65
512.377	11.66
512.576	11.73
512.776	11.77
512.975	11.95
513.175	12.03
513.374	12.07
513.573	12.16
513.773	12.19
513.972	12.32
514.172	12.4
514.371	12.46
514.57	12.53
514.77	12.61
514.969	12.67
515.168	12.59
515.367	12.67
515.567	12.78
515.766	12.81
515.965	12.86
516.164	12.97
516.364	13.02
516.563	13.14
516.762	13.22
516.961	13.28
517.16	13.27
517.359	13.33
517.559	13.35
517.758	13.34
517.957	13.34
518.156	13.36
518.355	13.37
518.554	13.41
518.753	13.37
518.952	13.43
519.151	13.47
519.35	13.6
519.549	13.69
519.748	13.69
519.947	13.81
520.146	13.93
520.345	14.11
520.544	14.14
520.743	14.19
520.942	14.29
521.141	14.3
521.339	14.31
521.538	14.32
521.737	14.38
521.936	14.51
522.135	14.52
522.333	14.63
522.532	14.6
522.731	14.75
522.93	14.81
523.129	14.86
523.327	14.9
523.526	15.03
523.725	15.06
523.923	15.08
524.122	15.11
524.321	15.15
524.519	15.21
524.718	15.25
524.917	15.27
525.115	15.34
525.314	15.42
525.512	15.51
525.711	15.58
525.909	15.69
526.108	15.72
526.306	15.78
526.505	15.85
526.703	15.84
526.902	15.88
527.1	15.92
527.299	15.97
527.497	15.98
527.696	16
527.894	16.04
528.092	16.06
528.291	16.12
528.489	16.16
528.688	16.2
528.886	16.25
529.084	16.34
529.283	16.38
529.481	16.41
529.679	16.48
529.877	16.53
530.076	16.55
530.274	16.61
530.472	16.65
530.67	16.69
530.869	16.72
531.067	16.77
531.265	16.8
531.463	16.87
531.661	16.92
531.859	16.93
532.057	16.91
532.255	16.93
532.454	16.95
532.652	16.96
532.85	17
533.048	17.05
533.246	17.1
533.444	17.14
533.642	17.22
533.84	17.27
534.038	17.33
534.236	17.43
534.434	17.49
534.632	17.52
534.83	17.6
535.027	17.65
535.225	17.7
535.423	17.73
535.621	17.79
535.819	17.77
536.017	17.85
536.215	17.87
536.412	17.94
536.61	18.02
536.808	18.15
537.006	18.19
537.203	18.23
537.401	18.24
537.599	18.27
537.797	18.29
537.994	18.35
538.192	18.3
538.39	18.42
538.587	18.49
538.785	18.61
538.983	18.65
539.18	18.79
539.378	18.93
539.575	18.99
539.773	19.11
539.97	19.15
540.168	19.27
540.366	19.37
540.563	19.38
540.761	19.41
540.958	19.41
541.155	19.45
541.353	19.48
541.55	19.49
541.748	19.58
541.945	19.63
542.143	19.72
542.34	19.74
542.537	19.83
542.735	19.89
542.932	19.96
543.129	20.06
543.327	20.18
543.524	20.33
543.721	20.56
543.919	20.71
544.116	20.88
544.313	21.04
544.51	21.25
544.708	21.52
544.905	21.73
545.102	21.94
545.299	22.06
545.496	22.14
545.693	22.14
545.891	22.04
546.088	22.06
546.285	22.05
546.482	21.99
546.679	21.84
546.876	21.66
547.073	21.59
547.27	21.52
547.467	21.51
547.664	21.46
547.861	21.45
548.058	21.47
548.255	21.47
548.452	21.51
548.649	21.53
548.846	21.68
549.043	21.6
549.24	21.5
549.437	21.45
549.633	21.32
549.83	21.27
550.027	21.26
550.224	21.19
550.421	21.06
550.618	20.8
550.814	20.68
551.011	20.49
551.208	20.46
551.405	20.47
551.601	20.55
551.798	20.54
551.995	20.38
552.191	20.27
552.388	20.27
552.585	20.23
552.781	20.17
552.978	20.19
553.175	20.17
553.371	20.11
553.568	20.15
553.764	20.07
553.961	20.17
554.157	20.27
554.354	20.31
554.55	20.34
554.747	20.36
554.943	20.49
555.14	20.48
555.336	20.61
555.533	20.73
555.729	20.68
555.926	20.74
556.122	20.65
556.318	20.73
556.515	20.76
556.711	20.76
556.907	20.73
557.104	20.56
557.3	20.47
557.496	20.37
557.693	20.29
557.889	20.31
558.085	20.34
558.281	20.27
558.478	20.22
558.674	20.09
558.87	20.03
559.066	20.14
559.262	20.4
559.459	20.51
559.655	20.45
559.851	20.44
560.047	20.46
560.243	20.25
560.439	20.33
560.635	20.36
560.831	20.42
561.027	20.56
561.223	20.46
561.419	20.37
561.615	20.38
561.811	20.51
562.007	20.6
562.203	20.64
562.399	20.93
562.595	20.89
562.791	20.95
562.987	20.99
563.183	20.88
563.379	21
563.575	21.03
563.771	21.09
563.966	21.03
564.162	20.97
564.358	20.9
564.554	20.71
564.75	20.74
564.945	20.69
565.141	20.64
565.337	20.64
565.533	20.56
565.728	20.55
565.924	20.53
566.12	20.57
566.315	20.65
566.511	20.75
566.707	20.83
566.902	20.92
567.098	21.05
567.293	21.18
567.489	21.25
567.684	21.22
567.88	21.18
568.076	21.21
568.271	21.21
568.467	21.21
568.662	21.11
568.858	21.13
569.053	21.1
569.248	20.95
569.444	20.87
569.639	20.79
569.835	20.92
570.03	20.97
570.225	21.08
570.421	21.12
570.616	21.09
570.812	21.13
571.007	21.16
571.202	21.26
571.397	21.31
571.593	21.29
571.788	21.4
571.983	21.45
572.178	21.52
572.374	21.48
572.569	21.47
572.764	21.65
572.959	21.68
573.154	21.58
573.35	21.48
573.545	21.52
573.74	21.73
573.935	21.68
574.13	21.67
574.325	21.76
574.52	21.82
574.715	21.89
574.91	21.83
575.105	21.93
575.3	22.03
575.495	22.21
575.69	22.31
575.885	22.31
576.08	22.49
576.275	22.55
576.47	22.6
576.665	22.7
576.86	22.79
577.055	22.87
577.25	23
577.444	23.25
577.639	23.44
577.834	23.51
578.029	23.62
578.224	23.81
578.418	23.94
578.613	24.1
578.808	24.01
579.003	24.04
579.197	24.18
579.392	24.14
579.587	24.08
579.781	23.85
579.976	23.83
580.171	23.94
580.365	23.87
580.56	23.89
580.755	23.89
580.949	24.04
581.144	24.03
581.338	23.96
581.533	24.05
581.727	24.14
581.922	24.27
582.116	24.35
582.311	24.36
582.505	24.43
582.7	24.62
582.894	24.72
583.089	24.71
583.283	24.97
583.478	25.16
583.672	25.14
583.866	25.22
584.061	25.19
584.255	25.11
584.449	25.01
584.644	25.01
584.838	25.08
585.032	25.04
585.226	25.19
585.421	25.15
585.615	25.05
585.809	25.27
586.003	25.3
586.198	25.48
586.392	25.69
586.586	25.86
586.78	25.73
586.974	25.64
587.168	25.59
587.363	25.72
587.557	25.71
587.751	25.87
587.945	25.74
588.139	25.82
588.333	25.64
588.527	25.54
588.721	25.49
588.915	25.62
589.109	25.5
589.303	25.4
589.497	25.23
589.691	25.23
589.885	25.03
590.079	24.95
590.273	24.81
590.466	25.13
590.66	25.23
590.854	25.35
591.048	25.39
591.242	25.51
591.436	25.64
591.629	25.75
591.823	25.9
592.017	26.09
592.211	26.2
592.404	26.41
592.598	26.3
592.792	26.41
592.986	26.39
593.179	26.37
593.373	26.35
593.567	26.3
593.76	26.32
593.954	26.26
594.147	26.03
594.341	25.96
594.535	25.79
594.728	25.71
594.922	25.66
595.115	25.5
595.309	25.5
595.502	25.5
595.696	25.65
595.889	25.64
596.083	25.66
596.276	25.81
596.47	25.84
596.663	25.84
596.856	25.84
597.05	25.88
597.243	26.14
597.437	26.18
597.63	26.34
597.823	26.31
598.017	26.27
598.21	26.37
598.403	26.53
598.596	26.7
598.79	26.84
598.983	26.97
599.176	27.02
599.369	26.93
599.563	27.06
599.756	26.99
599.949	27.23
600.142	27.4
600.335	27.39
600.528	27.43
600.722	27.46
600.915	27.38
601.108	27.44
601.301	27.42
601.494	27.44
601.687	27.28
601.88	27.3
602.073	27.18
602.266	27.05
602.459	26.99
602.652	26.9
602.845	26.87
603.038	26.94
603.231	26.9
603.424	26.91
603.617	26.95
603.809	27.02
604.002	26.98
604.195	26.9
604.388	26.98
604.581	27.1
604.774	27.12
604.966	27.2
605.159	27.21
605.352	27.37
605.545	27.48
605.737	27.52
605.93	27.72
606.123	27.97
606.316	28.16
606.508	28.18
606.701	28.14
606.894	28.47
607.086	28.67
607.279	29.03
607.471	29.07
607.664	29.26
607.857	29.5
608.049	29.66
608.242	29.92
608.434	30.5
608.627	31.2
608.819	32.07
609.012	32.93
609.204	33.95
609.397	34.96
609.589	36.13
609.782	37.35
609.974	38.66
610.166	40.02
610.359	41.35
610.551	42.59
610.743	43.64
610.936	44.6
611.128	45.28
611.32	45.78
611.513	45.98
611.705	46
611.897	45.89
612.09	45.77
612.282	45.32
612.474	44.81
612.666	44.03
612.858	43.52
613.051	42.72
613.243	41.95
613.435	41.17
613.627	40.53
613.819	40.01
614.011	39.57
614.203	38.91
614.395	38.54
614.588	38.03
614.78	37.48
614.972	36.83
615.164	36.46
615.356	35.87
615.548	35.48
615.74	35.2
615.932	34.69
616.124	34.11
616.315	33.58
616.507	33.16
616.699	32.79
616.891	32.65
617.083	32.41
617.275	31.89
617.467	31.72
617.659	31.58
617.85	31.28
618.042	31.25
618.234	31.27
618.426	31.05
618.618	30.86
618.809	30.75
619.001	30.62
619.193	30.51
619.384	30.53
619.576	30.75
619.768	30.41
619.959	30.47
620.151	30.56
620.343	30.41
620.534	30.57
620.726	30.61
620.917	30.77
621.109	30.79
621.301	30.89
621.492	31.02
621.684	30.99
621.875	31.27
622.067	31.29
622.258	31.19
622.45	31.29
622.641	31.49
622.832	31.67
623.024	31.56
623.215	31.59
623.407	31.74
623.598	31.62
623.789	31.51
623.981	31.54
624.172	31.66
624.363	31.77
624.555	31.72
624.746	31.53
624.937	31.53
625.129	31.67
625.32	31.64
625.511	31.51
625.702	31.62
625.893	31.58
626.085	31.58
626.276	31.46
626.467	31.41
626.658	31.55
626.849	31.51
627.04	31.44
627.231	31.43
627.422	31.55
627.614	31.63
627.805	31.72
627.996	31.78
628.187	31.71
628.378	31.88
628.569	32.04
628.76	32.08
628.951	32.45
629.142	32.66
629.332	32.63
629.523	32.83
629.714	32.96
629.905	33.26
630.096	33.56
630.287	33.84
630.478	33.75
630.669	33.67
630.859	33.74
631.05	33.6
631.241	33.43
631.432	33.55
631.623	33.37
631.813	33.33
632.004	32.97
632.195	32.54
632.385	32.35
632.576	32.25
632.767	32
632.957	31.82
633.148	31.57
633.339	31.29
633.529	31.09
633.72	30.99
633.91	30.83
634.101	30.76
634.292	30.6
634.482	30.4
634.673	30.41
634.863	30.5
635.054	30.45
635.244	30.49
635.435	30.84
635.625	30.87
635.815	30.62
636.006	30.44
636.196	30.36
636.387	30.74
636.577	30.92
636.767	31.01
636.958	31.08
637.148	31.08
637.338	31
637.529	30.65
637.719	30.61
637.909	30.81
638.099	30.95
638.29	30.98
638.48	30.72
638.67	30.59
638.86	30.66
639.05	30.75
639.241	30.89
639.431	31.01
639.621	31.12
639.811	30.86
640.001	30.81
640.191	30.93
640.381	31.17
640.571	31.3
640.761	31.46
640.951	31.22
641.141	31.09
641.331	30.9
641.521	31.08
641.711	31.1
641.901	31.31
642.091	31.39
642.281	31.21
642.471	31.23
642.661	31.25
642.851	31.25
643.041	31.26
643.231	31.21
643.42	31.31
643.61	31.37
643.8	31.39
643.99	31.39
644.18	31.26
644.369	31.37
644.559	31.35
644.749	31.56
644.939	31.43
645.128	31.46
645.318	31.45
645.508	31.18
645.697	30.92
645.887	30.94
646.076	31.18
646.266	31.22
646.456	31.27
646.645	31.21
646.835	31.12
647.024	31.23
647.214	31.24
647.403	31.28
647.593	31.49
647.782	31.45
647.972	31.36
648.161	31.4
648.351	31.42
648.54	31.71
648.73	31.85
648.919	31.77
649.108	31.92
649.298	32.07
649.487	32.29
649.677	32.48
649.866	32.84
650.055	32.91
650.244	32.91
650.434	32.94
650.623	32.73
650.812	32.68
651.002	32.72
651.191	32.57
651.38	32.55
651.569	32.82
651.758	32.86
651.947	32.61
652.137	32.76
652.326	32.75
652.515	32.91
652.704	32.93
652.893	32.76
653.082	32.79
653.271	32.81
653.46	32.64
653.649	32.35
653.838	32.01
654.027	31.95
654.216	31.91
654.405	31.79
654.594	31.73
654.783	31.79
654.972	31.76
655.161	31.8
655.35	31.71
655.539	31.58
655.728	31.65
655.916	31.9
656.105	31.86
656.294	31.81
656.483	32
656.672	32.07
656.86	31.81
657.049	31.86
657.238	31.57
657.427	31.69
657.615	31.95
657.804	31.72
657.993	31.54
658.181	31.54
658.37	31.46
658.559	31.16
658.747	31.01
658.936	31.15
659.125	31.19
659.313	31.17
659.502	31.16
659.69	31.18
659.879	31.29
660.067	31.36
660.256	31.54
660.444	31.87
660.633	32.22
660.821	32.29
661.01	32.36
661.198	32.34
661.387	32.55
661.575	32.59
661.763	32.65
661.952	32.68
662.14	32.89
662.328	33.03
662.517	32.6
662.705	32.6
662.893	32.71
663.082	32.62
663.27	32.76
663.458	33.02
663.646	33.08
663.834	33.09
664.023	33.21
664.211	33.06
664.399	32.98
664.587	33.06
664.775	32.89
664.963	32.72
665.152	32.94
665.34	33.12
665.528	32.77
665.716	32.64
665.904	32.75
666.092	32.75
666.28	32.81
666.468	32.97
666.656	33.03
666.844	32.98
667.032	33.26
667.22	33.04
667.408	32.89
667.596	33.01
667.784	32.98
667.971	32.84
668.159	32.61
668.347	32.72
668.535	32.46
668.723	32.56
668.911	32.67
669.098	32.53
669.286	32.39
669.474	32.64
669.662	32.89
669.849	33.26
670.037	33.44
670.225	33.82
670.413	33.6
670.6	33.66
670.788	33.68
670.976	33.73
671.163	34.02
671.351	34.33
671.538	34.08
671.726	34.02
671.913	33.76
672.101	33.35
672.289	32.84
672.476	33.14
672.664	33.26
672.851	33.04
673.039	32.88
673.226	32.73
673.413	32.51
673.601	32.59
673.788	32.39
673.976	32.36
674.163	32.85
674.35	33.14
674.538	33.27
674.725	33.19
674.912	33.39
675.1	33.42
675.287	33.45
675.474	33.34
675.662	33.48
675.849	33.55
676.036	33.94
676.223	33.5
676.411	33.53
676.598	33.21
676.785	33.31
676.972	33.28
677.159	33.12
677.346	33.12
677.533	33.4
677.721	33.22
677.908	33.51
678.095	33.14
678.282	33.35
678.469	33.36
678.656	33.52
678.843	33.51
679.03	33.73
679.217	33.98
679.404	33.86
679.591	33.56
679.778	33.58
679.964	33.4
680.151	33.56
680.338	33.44
680.525	33.49
680.712	33.45
680.899	33.4
681.086	33.32
681.272	33.23
681.459	33.23
681.646	33.54
681.833	33.6
682.02	33.95
682.206	33.93
682.393	34.14
682.58	33.86
682.766	33.92
682.953	33.83
683.14	33.65
683.326	33.98
683.513	34.23
683.7	34.19
683.886	34.14
684.073	33.63
684.259	33.69
684.446	33.88
684.632	34.13
684.819	34.15
685.005	34.37
685.192	34.65
685.378	34.45
685.565	34.36
685.751	34.59
685.938	34.91
686.124	35.38
686.31	35.48
686.497	35.33
686.683	35.41
686.87	35.4
687.056	35.06
687.242	34.97
687.429	34.72
687.615	34.81
687.801	34.6
687.987	34.62
688.174	34.39
688.36	34.22
688.546	34.08
688.732	34.08
688.918	33.95
689.105	34.27
689.291	34.54
689.477	34.93
689.663	34.82
689.849	34.91
690.035	34.39
690.221	34.39
690.407	34.45
690.593	34.61
690.779	34.61
690.965	34.76
691.151	34.64
691.337	34.37
691.523	34.43
691.709	34.17
691.895	34.41
692.081	34.53
692.267	34.63
692.453	34.74
692.639	35.03
692.825	35.13
693.011	35.37
693.196	35.41
693.382	35.63
693.568	35.45
693.754	35.66
693.94	35.87
694.125	35.95
694.311	36.39
694.497	36.45
694.682	36.18
694.868	36.15
695.054	35.73
695.239	35.98
695.425	35.62
695.611	35.7
695.796	35.63
695.982	34.99
696.168	34.98
696.353	34.62
696.539	34.34
696.724	34.03
696.91	34.04
697.095	34.14
697.281	33.81
697.466	33.97
697.652	33.95
697.837	34.09
698.023	34.3
698.208	34.25
698.393	33.96
698.579	33.87
698.764	33.98
698.949	33.91
699.135	34.04
699.32	34.07
699.505	34.04
699.691	34.02
699.876	33.81
700.061	33.88
700.246	33.74
700.432	33.85
700.617	34.08
700.802	34.21
700.987	34.23
701.172	33.84
701.358	34.11
701.543	34.14
701.728	34.37
701.913	34.57
702.098	34.35
702.283	34.5
702.468	34.44
702.653	34.34
702.838	34.56
703.023	34.55
703.208	34.93
703.393	34.91
703.578	34.77
703.763	34.93
703.948	35.34
704.133	35.77
704.318	36.42
704.503	36.63
704.688	37.12
704.873	37.21
705.057	37.58
705.242	38.03
705.427	38.49
705.612	39.41
705.797	39.27
705.981	39.56
706.166	39.73
706.351	39.84
706.536	40.39
706.72	40.49
706.905	40.61
707.09	40.61
707.274	40.58
707.459	40.64
707.644	40.17
707.828	40.54
708.013	40.13
708.197	40.05
708.382	40.08
708.567	39.94
708.751	40.05
708.936	40.18
709.12	40.48
709.305	40.52
709.489	40.38
709.673	40.27
709.858	40.28
710.042	40.6
710.227	40.66
710.411	40.42
710.596	40.32
710.78	40.18
710.964	40.04
711.149	39.84
711.333	39.85
711.517	39.72
711.702	39.77
711.886	39.29
712.07	39.17
712.254	39.5
712.438	39.36
712.623	38.99
712.807	38.44
712.991	37.93
713.175	37.5
713.359	36.86
713.544	36.64
713.728	36.23
713.912	35.89
714.096	35.19
714.28	34.43
714.464	34.57
714.648	34.96
714.832	35.01
715.016	35.08
715.2	35.11
715.384	35.19
715.568	35.22
715.752	35.41
715.936	35.88
716.12	36.21
716.304	36.39
716.488	35.91
716.671	35.45
716.855	35.7
717.039	35.66
717.223	35.71
717.407	35.69
717.59	35.75
717.774	36.04
717.958	35.96
718.142	35.94
718.325	36.06
718.509	36.63
718.693	36.99
718.877	36.9
719.06	37.13
719.244	37.23
719.428	37.6
719.611	37.42
719.795	36.97
719.978	36.96
720.162	37.11
720.345	37.17
720.529	36.86
720.713	36.76
720.896	36.64
721.08	36.87
721.263	36.77
721.446	36.8
721.63	36.65
721.813	36.68
721.997	36.4
722.18	36.31
722.364	36.24
722.547	35.82
722.73	35.07
722.914	35.08
723.097	35.3
723.28	35.18
723.464	34.79
723.647	34.69
723.83	34.87
724.013	35.24
724.197	35.42
724.38	35.45
724.563	35.98
724.746	36.77
724.929	36.99
725.112	36.37
725.296	36.68
725.479	36.74
725.662	36.8
725.845	36.92
726.028	36.86
726.211	36.69
726.394	36.53
726.577	36.01
726.76	35.97
726.943	35.58
727.126	35.74
727.309	35.84
727.492	35.91
727.675	36.35
727.858	36.4
728.041	35.9
728.224	35.49
728.407	35.68
728.589	36.07
728.772	36.04
728.955	36.36
729.138	35.98
729.321	35.73
729.503	35.91
729.686	35.72
729.869	35.87
730.052	36.06
730.234	36.26
730.417	35.93
730.6	36.05
730.782	35.84
730.965	35.92
731.148	36.38
731.33	36.71
731.513	36.26
731.695	36.38
731.878	35.97
732.061	36.24
732.243	35.89
732.426	35.93
732.608	35.76
732.791	36.56
732.973	36.31
733.156	36.21
733.338	35.89
733.52	36.08
733.703	35.54
733.885	35.62
734.068	35.34
734.25	36.08
734.432	36.21
734.615	36.37
734.797	35.6
734.979	36.24
735.162	36.04
735.344	35.89
735.526	35.7
735.708	36.29
735.891	36.67
736.073	36.86
736.255	36.71
736.437	36.37
736.619	36.29
736.802	36.55
736.984	35.88
737.166	36.4
737.348	36.6
737.53	37.16
737.712	37.47
737.894	36.88
738.076	36.9
738.258	37.01
738.44	37.22
738.622	37.45
738.804	37.13
738.986	37.39
739.168	37.2
739.35	37.05
739.532	37.22
739.714	36.71
739.896	36.97
740.078	36.47
740.259	36.16
740.441	36.18
740.623	36.04
740.805	36.66
740.987	36.93
741.168	37.25
741.35	37.46
741.532	37.24
741.714	37.43
741.895	38.2
742.077	38.37
742.259	38.66
742.44	38.81
742.622	38.5
742.804	38.16
742.985	37.86
743.167	37.33
743.348	37.87
743.53	37.73
743.711	38.06
743.893	37.4
744.075	38.02
744.256	38.17
744.438	37.97
744.619	38.56
744.8	38.9
744.982	38.94
745.163	39.42
745.345	39.67
745.526	39.84
745.707	39.67
745.889	40.34
746.07	39.83
746.252	39.8
746.433	40.04
746.614	39.93
746.795	39.89
746.977	39.7
747.158	39.65
747.339	38.8
747.52	38.34
747.702	38.76
747.883	38.01
748.064	38.44
748.245	37.93
748.426	37.8
748.607	37.71
748.788	36.98
748.97	37.06
749.151	36.64
749.332	37.11
749.513	37.04
749.694	36.28
749.875	37.08
750.056	37.52
750.237	38.11
750.418	37.92
750.599	38.41
750.78	38.83
750.96	38.7
751.141	38.9
751.322	38.54
751.503	39.33
751.684	39.69
751.865	38.91
752.046	38.61
752.226	38.28
752.407	39.45
752.588	38.7
752.769	39.03
752.949	39.28
753.13	39.79
753.311	39.45
753.492	39.36
753.672	39.03
753.853	38.77
754.034	38.63
754.214	38.32
754.395	36.92
754.575	36.97
754.756	36.95
754.937	37.41
755.117	36.94
755.298	37.76
755.478	37.1
755.659	36.87
755.839	37.46
756.02	36.85
756.2	36.8
756.381	36.96
756.561	37.35
756.741	36.99
756.922	37.23
757.102	36.71
757.283	36.01
757.463	35.95
757.643	35.92
757.823	35.55
758.004	35.91
758.184	35.65
758.364	36.23
758.545	35.46
758.725	35.49
758.905	35.06
759.085	35.16
759.265	35.21
759.446	35.15
759.626	35.84
759.806	35.53
759.986	35.5
760.166	35.72
760.346	35.5
760.526	35.69
760.706	36.04
760.886	35.93
761.066	36.25
761.246	36.36
761.426	36.29
761.606	35.71
761.786	35.91
761.966	36.01
762.146	36.38
762.326	36.02
762.506	36.24
762.686	35.91
762.866	35.63
763.046	35.13
763.225	34.88
763.405	34.87
763.585	34.9
763.765	34.47
763.945	34.52
764.124	34.51
764.304	34.97
764.484	34.42
764.664	34.51
764.843	34.63
765.023	35.25
765.203	35.38
765.382	35.85
765.562	36.06
765.741	36.36
765.921	36.51
766.101	36.56
766.28	36.63
766.46	37.74
766.639	37.53
766.819	37.5
766.998	37.15
767.178	37.59
767.357	37.53
767.537	37.38
767.716	38.02
767.896	37.65
768.075	37.2
768.254	37.53
768.434	37.31
768.613	37.32
768.792	37.02
768.972	37.1
769.151	36.34
769.33	36.61
769.51	37.26
769.689	36.73
769.868	36.32
770.047	36.06
770.226	35.25
770.406	34.96
770.585	35.11
770.764	35.15
770.943	36.06
771.122	36.78
771.301	36.44
771.48	36.31
771.66	36.33
771.839	37.2
772.018	37.56
772.197	38.1
772.376	38.22
772.555	38.87
772.734	39.24
772.913	37.81
773.092	37.78
773.271	37.48
773.449	37.06
773.628	37.89
773.807	37.66
773.986	38.49
774.165	37.83
774.344	37.61
774.523	37
774.701	37.59
774.88	37.86
775.059	37.1
775.238	37.4
775.417	37.33
775.595	37.19
775.774	37.53
775.953	37.11
776.131	37
776.31	37.2
776.489	37.33
776.667	36.99
776.846	36.98
777.025	37.45
777.203	37.12
777.382	37.55
777.56	37.56
777.739	37.92
777.917	37.43
778.096	37.85
778.274	37.98
778.453	38.6
778.631	38.84
778.81	39.25
778.988	39.96
779.166	40.13
779.345	40.44
779.523	40.24
779.702	39.44
779.88	40.51
780.058	40.81
780.237	40.76
780.415	40
780.593	39.32
780.771	38.87
780.95	39.16
781.128	38.73
781.306	38.51
781.484	38.65
781.662	38.97
781.841	38.48
782.019	38.46
782.197	39.14
782.375	39.07
782.553	39.85
782.731	41.03
782.909	39.65
783.087	40.46
783.265	40.16
783.443	39.87
783.621	39.95
783.799	40.7
783.977	40.49
784.155	39.9
784.333	39.67
784.511	39.32
784.689	38.28
784.867	39.81
785.045	39.82
785.223	39.62
785.4	39.29
785.578	38.93
785.756	38.85
785.934	39.39
786.112	40.13
786.289	41.37
786.467	41.52
786.645	42.59
786.823	41.43
787	40.95
787.178	40.55
787.356	41.37
787.533	41.81
787.711	40.7
787.889	40.55
788.066	39.94
788.244	38.84
788.421	38.96
788.599	37.95
788.776	37.99
788.954	38.02
789.131	38.63
789.309	38.08
789.486	38.3
789.664	39.37
789.841	38.94
790.019	39.46
790.196	39.85
790.373	39.81
790.551	40.55
790.728	40.98
790.906	42.04
791.083	42.61
791.26	42.68
791.437	41.59
791.615	40.46
791.792	39.65
791.969	38.32
792.146	38.64
792.324	38.86
792.501	38.09
792.678	38.05
792.855	36.92
793.032	35.82
793.209	35.61
793.387	36
793.564	37.09
793.741	37.99
793.918	39.83
794.095	38.82
794.272	37.57
794.449	38.91
794.626	38.29
794.803	39.18
794.98	40.42
795.157	40.09
795.334	40.83
795.511	40.43
795.688	40.41
795.864	39.17
796.041	38.91
796.218	39.53
796.395	38.51
796.572	39.34
796.749	38.48
796.925	37.53
797.102	38.47
797.279	36.94
797.456	37.74
797.632	37.53
797.809	37.87
797.986	39.77
798.162	39.63
798.339	39.3
798.516	38.87
798.692	39.73
798.869	40.52
799.046	39.7
799.222	40.32
799.399	39.22
799.575	38.98
799.752	38.5
799.928	38.5
800.105	38.12
800.281	38.27
800.458	39.73
800.634	39.09
800.811	38.13
800.987	39.99
801.163	40.09
801.34	40.54
801.516	41.02
801.692	41.61
801.869	40.22
802.045	40.12
802.221	40.45
802.398	38.39
802.574	38.87
802.75	40
802.926	38.38
803.103	38.64
803.279	38.23
803.455	38.5
803.631	38.75
803.807	39.2
803.983	40.3
804.16	39.99
804.336	40.58
804.512	40.36
804.688	40.19
804.864	40.73
805.04	41.47
805.216	40.35
805.392	40.18
805.568	39.43
805.744	39.85
805.92	38.46
806.096	38.95
806.272	40.16
806.448	40.98
806.623	39.87
806.799	39.54
806.975	39.44
807.151	39.35
807.327	38.25
807.503	37.06
807.678	36.4
807.854	36.76
808.03	36.57
808.206	34.4
808.381	34.65
808.557	34.62
808.733	34.78
808.908	34.47
809.084	36.5
809.26	37.8
809.435	39.84
809.611	39.4
809.787	40.6
809.962	40.85
810.138	41.91
810.313	41.06
810.489	42.04
810.664	42.51
810.84	42.15
811.015	40.82
811.191	39.84
811.366	38.51
811.542	38.69
811.717	38.17
811.892	38.18
812.068	37.91
812.243	38.27
812.419	37.68
812.594	36.83
812.769	36.75
812.944	37.31
813.12	37.08
813.295	37.57
813.47	37.93
813.645	38.35
813.821	37.47
813.996	37.86
814.171	38.2
814.346	37.88
814.521	39.02
814.697	38.6
814.872	38.55
815.047	39.34
815.222	39.05
815.397	39
815.572	38.05
815.747	40.25
815.922	39.9
816.097	39.26
816.272	39.92
816.447	38.69
816.622	38.3
816.797	39.14
816.972	39.05
817.147	39.38
817.322	39.44
817.496	39.2
817.671	37.2
817.846	37.51
818.021	37.74
818.196	37.62
818.371	36.34
818.545	37.21
818.72	35.96
818.895	36.14
819.069	36.57
819.244	35.89
819.419	36.92
819.594	36.29
819.768	34.71
819.943	33.91
820.117	32.82
820.292	32.77
820.467	32.03
820.641	32.04
820.816	31.41
820.99	30.7
821.165	30.7
821.339	29.88
821.514	30.15
821.688	30.46
821.863	30.08
822.037	30.39
822.212	30.36
822.386	30.43
822.56	30.43
822.735	30.38
822.909	30.33
823.084	30.29
823.258	30.57
823.432	30.47
823.606	30.34
823.781	30.64
823.955	30.53
824.129	30.77
824.303	30.82
824.478	30.75
824.652	30.76
824.826	31.22
825	31.3
825.174	31.23
825.348	31.62
825.523	32.31
825.697	32.18
825.871	32.76
826.045	32.97
826.219	32.94
826.393	33.13
826.567	33.5
826.741	32.68
826.915	32.33
827.089	32.08
827.263	31.83
827.437	31.44
827.611	31.74
827.784	30.9
827.958	30.39
828.132	30.66
828.306	30.87
828.48	30.29
828.654	30.66
828.827	31.18
829.001	31.22
829.175	31.12
829.349	30.64
829.522	30.44
829.696	31.66
829.87	32.5
830.044	32.32
830.217	32.69
830.391	34.68
830.565	35.07
830.738	34.73
830.912	35.87
831.085	36.26
831.259	38.06
831.432	37.84
831.606	37.75
831.779	36.97
831.953	37.64
832.126	36.57
832.3	35.16
832.473	35.47
832.647	35.54
832.82	34.42
832.994	33.68
833.167	33.47
833.34	33.42
833.514	32.75
833.687	32.68
833.86	32.38
834.034	32.12
834.207	32.69
834.38	32.21
834.553	32.45
834.727	33.08
834.9	33.4
835.073	32.6
835.246	32.66
835.419	32.75
835.593	32.61
835.766	32.22
835.939	32.2
836.112	31.84
836.285	32.07
836.458	32.26
836.631	32.23
836.804	33.3
836.977	34.04
837.15	35.18
837.323	35.95
837.496	36.59
837.669	36.58
837.842	37.21
838.015	36.46
838.188	36.33
838.361	35.96
838.533	35.85
838.706	37.27
838.879	38.41
839.052	37.84
839.225	37.85
839.398	38.41
839.57	39.3
839.743	40.43
839.916	41.7
840.088	40.94
840.261	41.22
840.434	41.04
840.607	40.26
840.779	40.9
840.952	40.59
841.124	40.05
841.297	40.63
841.47	40.95
841.642	38.94
841.815	39.27
841.987	41.22
842.16	42
842.332	41.13
842.505	38.42
842.677	37.67
842.85	36.77
843.022	36.28
843.194	34.21
843.367	36.74
843.539	40.36
843.712	36.89
843.884	38.12
844.056	36.86
844.229	37.76
844.401	39.89
844.573	38.11
844.745	41.16
844.918	41.41
845.09	43.43
845.262	40.32
845.434	37.34
845.606	46.21
845.779	44.38
845.951	47.59
846.123	50.3
846.295	51.24
846.467	52.16
846.639	51.79
846.811	55.19
846.983	55.26
847.155	54.29
847.327	55.91
847.499	53.67
847.671	53.15
847.843	51.37
848.015	47.65
848.187	46.9
848.359	48.76
848.531	50.39
848.703	47.19
848.875	48.52
849.047	49.65
849.218	50.76
849.39	50.19
849.562	50.93
849.734	52.03
849.905	51.42
850.077	50.87
850.249	51.16
850.421	50.05
850.592	53.81
850.764	54.64
850.936	56.55
851.107	55.01
851.279	52.42
851.451	52.27
851.622	47.26
851.794	49.45
851.965	49.51
852.137	50.36
852.308	50.11
852.48	46.1
852.651	46.13
852.823	44.76
852.994	43.14
853.166	44.91
853.337	43.9
853.509	51.33
853.68	51.36
853.851	52.37
854.023	49.1
854.194	48.86
854.365	51.14
854.537	51.27
854.708	54.69
854.879	55.69
855.05	55.96
855.222	58.71
855.393	57.72
855.564	57.51
855.735	55.94
855.906	55.12
856.078	57.13
856.249	56.81
856.42	53.22
856.591	50
856.762	51.53
856.933	52.92
857.104	52.5
857.275	50.67
857.446	51.19
857.617	53.78
857.788	59.41
857.959	51.81
858.13	50.83
858.301	51.21
858.472	50.16
858.643	50.02
858.814	44.45
858.985	46.18
859.155	44.56
859.326	43.33
859.497	42.26
859.668	38.4
859.839	44.99
860.009	46.32
860.18	46.66
860.351	48.47
860.522	47
860.692	50.99
860.863	48.48
861.034	50.77
861.204	52.94
861.375	53.18
861.546	55.07
861.716	53.14
861.887	51.39
862.057	56.51
862.228	56.4
862.398	61.16
862.569	60.81
862.739	61.3
862.91	61.7
863.08	59.89
863.251	55.46
863.421	57.08
863.592	55.14
863.762	59.23
863.932	52.06
864.103	52.91
864.273	50.26
864.443	49.82
864.614	48.72
864.784	46.78
864.954	48.66
865.125	53.14
865.295	50.24
865.465	53.71
865.635	48.51
865.805	47.76
865.976	43.55
866.146	43.61
866.316	43.73
866.486	48.22
866.656	50.66
866.826	51.43
866.996	52.23
867.166	53.48
867.336	54.09
867.506	61.02
867.676	64.07
867.846	64.89
868.016	62.17
868.186	62.46
868.356	58.01
868.526	58.41
868.696	59.35
868.866	55.87
869.036	56.16
869.206	50.6
869.376	44
869.545	41.84
869.715	45.59
869.885	44.62
870.055	43.53
870.224	46.67
870.394	46.7
870.564	47.71
870.734	48.48
870.903	48.57
871.073	57.26
871.243	59.94
871.412	61.26
871.582	59.79
871.751	62.41
871.921	63.7
872.091	63.63
872.26	58.74
872.43	54.85
872.599	54.06
872.769	52.84
872.938	51.11
873.108	52.2
873.277	53.15
873.446	54.64
873.616	56.08
873.785	55.39
873.955	52.98
874.124	54.81
874.293	55.18
874.463	55.41
874.632	53.28
874.801	53.9
874.971	54.27
875.14	50.71
875.309	47.77
875.478	46.6
875.647	47.43
875.817	47.17
875.986	48.63
876.155	47.61
876.324	50.02
876.493	55.17
876.662	51.81
876.831	47.44
877	48.71
877.17	48.84
877.339	48.94
877.508	45.2
877.677	48.38
877.846	43.4
878.015	44.01
878.184	43.09
878.352	39.81
878.521	39.6
878.69	40.17
878.859	39.15
879.028	39.16
879.197	38.84
879.366	39.46
879.534	38.46
879.703	39.53
879.872	38.82
880.041	38.94
880.21	37.88
880.378	36.81
880.547	35.74
880.716	35.47
880.884	33.92
881.053	32.35
881.222	31.89
881.39	31.09
881.559	31.14
881.727	30.83
881.896	29.96
882.065	29.84
882.233	29.49
882.402	29.51
882.57	29.45
882.739	29.02
882.907	30.03
883.076	30.46
883.244	30.29
883.412	29.59
883.581	28.97
883.749	29.08
883.918	28.74
884.086	28.78
884.254	29.1
884.423	29.2
884.591	30.62
884.759	30.33
884.927	29.73
885.096	29.79
885.264	30.3
885.432	32.33
885.6	34.02
885.769	34.85
885.937	34.52
886.105	33.67
886.273	35.8
886.441	36.81
886.609	37.88
886.777	38.03
886.945	39.77
887.113	40.93
887.281	41.36
887.449	41.01
887.617	43.68
887.785	44.35
887.953	44.5
888.121	43.3
888.289	43.76
888.457	40.02
888.625	42.37
888.793	42.96
888.961	45.24
889.129	45.44
889.296	46.01
889.464	44.95
889.632	48.77
889.8	52.95
889.967	54.16
890.135	52.58
