Data from 2938845__Reflection_02.txt Node
Date: Wed Mar 11 14:14:55 EDT 2015
User: robert
Spectrometer: USB4E03002
Autoset integration time: false
Trigger mode: 4
Integration Time (sec): 1.000000E-1
Scans to average: 10
Electric dark correction enabled: false
Nonlinearity correction enabled: false
Boxcar width: 5
Stray light correction enabled: false
XAxis mode: Wavelengths
Stop averaging: false
Number of Pixels in Spectrum: 3648
>>>>>Begin Spectral Data<<<<<
177.575	507.41
177.794	-308.33
178.014	-68.49
178.233	-239.71
178.452	-112.41
178.672	-5.18
178.891	-0.74
179.11	40.52
179.33	21.51
179.549	50.31
179.768	51.44
179.987	41.55
180.207	112.2
180.426	113.9
180.645	184.32
180.864	171.52
181.084	143.62
181.303	357.14
181.522	86.73
181.741	106.51
181.96	46.1
182.179	160.34
182.398	181.18
182.618	108.79
182.837	95.38
183.056	363.83
183.275	78.57
183.494	-33.74
183.713	-58.18
183.932	22.51
184.151	25.78
184.37	-38.1
184.589	-92.05
184.808	-108.03
185.027	566.67
185.246	253.33
185.465	149.82
185.684	93.46
185.903	80.31
186.122	91.74
186.341	64.23
186.56	61.7
186.779	22.9
186.998	30.3
187.216	23.63
187.435	36.3
187.654	61.99
187.873	62.74
188.092	66.04
188.311	70.58
188.53	62.96
188.748	84.5
188.967	80.02
189.186	93.26
189.405	112.27
189.623	124.89
189.842	109.31
190.061	99.32
190.28	98.63
190.498	93.82
190.717	85.8
190.936	96.5
191.154	59.34
191.373	54.88
191.592	65.86
191.81	45.03
192.029	28.25
192.248	62.54
192.466	86.82
192.685	19
192.904	-16.32
193.122	26.36
193.341	14.69
193.559	14.67
193.778	50.62
193.996	-44.03
194.215	-4.88
194.433	5.83
194.652	1.12
194.87	-38.13
195.089	-34.39
195.307	-22.42
195.526	-42.9
195.744	-3.71
195.963	13.78
196.181	25.32
196.399	51.69
196.618	53.68
196.836	71.22
197.055	77.45
197.273	72.38
197.491	74.75
197.71	83.3
197.928	61.4
198.146	48.38
198.365	58.08
198.583	42.55
198.801	35.01
199.019	32.28
199.238	26.67
199.456	32.79
199.674	31.83
199.892	64.3
200.111	53.63
200.329	46.14
200.547	76.9
200.765	61.84
200.983	77.92
201.202	93.82
201.42	110.97
201.638	100.24
201.856	82.21
202.074	77.49
202.292	60.03
202.51	92.31
202.728	135.19
202.946	116.84
203.165	107.84
203.383	117.95
203.601	116.03
203.819	76.66
204.037	60.07
204.255	31.97
204.473	40.38
204.691	44.96
204.909	49.39
205.127	43.65
205.345	6.03
205.562	26.54
205.78	28.45
205.998	7.05
206.216	-11.71
206.434	19.21
206.652	31.54
206.87	46.23
207.088	57.97
207.306	36.52
207.523	27.51
207.741	35.06
207.959	23.51
208.177	25.39
208.395	39.95
208.612	63.72
208.83	90.42
209.048	126.72
209.266	89.16
209.483	88.68
209.701	99.57
209.919	123.67
210.136	150.93
210.354	198.99
210.572	159.72
210.79	123.36
211.007	103.17
211.225	63.81
211.442	49.32
211.66	49.34
211.878	59.8
212.095	53.52
212.313	47.38
212.53	42.67
212.748	26.13
212.966	26.11
213.183	28.41
213.401	36.66
213.618	28.75
213.836	32.61
214.053	36.31
214.271	37.11
214.488	35.16
214.705	20
214.923	6.44
215.14	-5.4
215.358	-3.87
215.575	-1.85
215.793	-10.63
216.01	1.09
216.227	0.94
216.445	3.49
216.662	-8.27
216.879	-5.7
217.097	9.94
217.314	13.98
217.531	18.25
217.749	16.8
217.966	17.54
218.183	27.44
218.4	20.33
218.618	21.83
218.835	19.32
219.052	18.76
219.269	22.04
219.487	14.4
219.704	15.99
219.921	21.9
220.138	24.11
220.355	26.48
220.572	26.98
220.79	32.78
221.007	22.79
221.224	18.6
221.441	17.95
221.658	18.32
221.875	21.91
222.092	19.25
222.309	10.99
222.526	7.05
222.743	4.25
222.96	-0.49
223.177	-2.11
223.394	-0.32
223.611	5.46
223.828	9.91
224.045	9.27
224.262	12.05
224.479	16.61
224.696	20.61
224.913	24.31
225.13	26.3
225.347	21.44
225.564	21.69
225.781	20.34
225.997	20.65
226.214	17.97
226.431	18.2
226.648	13.52
226.865	11.68
227.082	10.15
227.298	8.5
227.515	6.95
227.732	8
227.949	7.02
228.165	6.1
228.382	4.84
228.599	5.43
228.816	4.96
229.032	5.1
229.249	5.02
229.466	4.61
229.682	4.16
229.899	4.38
230.116	4.54
230.332	4.32
230.549	5.05
230.765	4.52
230.982	4.24
231.199	3.8
231.415	3.65
231.632	3.05
231.848	2.84
232.065	3.84
232.281	2.84
232.498	2.26
232.714	1.85
232.931	2.02
233.147	3.24
233.364	1.95
233.58	2.91
233.797	3.48
234.013	4.09
234.23	4.27
234.446	4.81
234.662	4.32
234.879	3.42
235.095	4.55
235.312	4.88
235.528	3.37
235.744	4.07
235.961	2.89
236.177	2.27
236.393	3.44
236.61	4.05
236.826	3.62
237.042	4.44
237.258	3.33
237.475	1.69
237.691	0.81
237.907	2.87
238.123	3.36
238.339	5.04
238.556	5.49
238.772	4.38
238.988	4.41
239.204	3.91
239.42	4.01
239.636	5.77
239.853	6.32
240.069	6.09
240.285	6.33
240.501	6
240.717	5.46
240.933	4.71
241.149	4.74
241.365	4.77
241.581	4.82
241.797	4.54
242.013	4.74
242.229	5.04
242.445	4.94
242.661	4.7
242.877	4.48
243.093	4.29
243.309	4.52
243.525	5.02
243.741	4.86
243.957	4.63
244.173	4.99
244.388	4.9
244.604	4.63
244.82	4.15
245.036	3.77
245.252	3.76
245.468	4.31
245.683	4.76
245.899	4.45
246.115	4.76
246.331	4.82
246.547	4.57
246.762	4.35
246.978	4.23
247.194	4.36
247.409	4.4
247.625	4.71
247.841	4.18
248.057	4.14
248.272	4.03
248.488	3.81
248.703	4.2
248.919	4.22
249.135	4.22
249.35	4.32
249.566	4.35
249.782	4.46
249.997	4.32
250.213	4.9
250.428	5.13
250.644	4.92
250.859	5.02
251.075	4.57
251.29	5
251.506	5.03
251.721	5.17
251.937	5.56
252.152	5.97
252.368	5.94
252.583	5.99
252.798	5.44
253.014	5.86
253.229	5.58
253.445	5.32
253.66	5.12
253.875	5.73
254.091	4.96
254.306	5.33
254.521	4.99
254.737	5.36
254.952	5.14
255.167	5.77
255.383	5.2
255.598	5.18
255.813	5.54
256.028	5.37
256.244	5.4
256.459	6.35
256.674	5.69
256.889	5.3
257.104	4.26
257.32	3.95
257.535	2.96
257.75	3.3
257.965	3.22
258.18	3.17
258.395	3.45
258.61	3.16
258.826	2.88
259.041	2.87
259.256	3.04
259.471	3.12
259.686	3.21
259.901	3.37
260.116	3.36
260.331	3.47
260.546	3.72
260.761	3.57
260.976	3.44
261.191	3.47
261.406	3.58
261.621	3.48
261.836	3.6
262.05	3.52
262.265	3.59
262.48	3.56
262.695	3.08
262.91	2.24
263.125	2.15
263.34	2.38
263.555	2.37
263.769	2.14
263.984	1.86
264.199	1.48
264.414	1.64
264.629	0.94
264.843	0.99
265.058	1.57
265.273	1.39
265.488	1.1
265.702	1.18
265.917	1.74
266.132	1.87
266.346	2.23
266.561	2.66
266.776	2.74
266.99	3.43
267.205	2.91
267.42	2.89
267.634	3.23
267.849	3.79
268.063	3.33
268.278	2.93
268.492	3.24
268.707	3.28
268.922	3.05
269.136	2.85
269.351	2.65
269.565	2.93
269.78	2.94
269.994	2.96
270.209	2.96
270.423	3.08
270.637	3.11
270.852	2.84
271.066	2.92
271.281	3.05
271.495	3.07
271.709	2.62
271.924	2.87
272.138	2.56
272.353	2.53
272.567	2.47
272.781	2.68
272.996	2.47
273.21	2.58
273.424	2.75
273.638	2.62
273.853	2.71
274.067	3.37
274.281	3.79
274.495	4.15
274.71	4.28
274.924	4.3
275.138	4.66
275.352	5.34
275.566	5.06
275.781	4.75
275.995	4.53
276.209	4.57
276.423	4.53
276.637	3.68
276.851	3.95
277.065	3.72
277.279	3.61
277.493	3.43
277.707	3.21
277.921	3.65
278.135	3.5
278.349	3.85
278.563	3.57
278.777	3.52
278.991	3.92
279.205	3.53
279.419	3.89
279.633	3.88
279.847	3.8
280.061	3.71
280.275	3.52
280.489	3.23
280.703	3.19
280.917	3.52
281.131	3.5
281.344	3.32
281.558	3.49
281.772	3.05
281.986	3.06
282.2	3.21
282.414	3.26
282.627	3.05
282.841	3.33
283.055	3.2
283.269	3.24
283.482	2.98
283.696	2.76
283.91	2.74
284.123	2.92
284.337	2.94
284.551	2.67
284.764	2.68
284.978	2.65
285.192	2.73
285.405	2.58
285.619	2.56
285.833	2.82
286.046	2.98
286.26	2.94
286.473	2.93
286.687	2.66
286.9	2.9
287.114	2.87
287.327	3.01
287.541	3.05
287.754	3.33
287.968	3.09
288.181	3.14
288.395	2.99
288.608	2.94
288.822	2.86
289.035	3.07
289.248	2.81
289.462	2.93
289.675	2.85
289.889	2.67
290.102	2.52
290.315	2.55
290.529	2.66
290.742	2.92
290.955	2.99
291.169	2.84
291.382	3.06
291.595	3.2
291.808	3.07
292.022	2.89
292.235	2.7
292.448	2.89
292.661	3.2
292.875	2.87
293.088	2.94
293.301	3.23
293.514	3.47
293.727	3.36
293.94	3.2
294.153	2.97
294.367	3.43
294.58	3.89
294.793	3.77
295.006	3.67
295.219	3.91
295.432	3.75
295.645	3.65
295.858	3.72
296.071	3.66
296.284	3.79
296.497	3.73
296.71	3.66
296.923	3.5
297.136	3.41
297.349	3.22
297.562	3.19
297.775	3.46
297.988	3.56
298.201	3.61
298.414	3.8
298.626	3.66
298.839	3.83
299.052	3.81
299.265	3.98
299.478	4.36
299.691	4.66
299.903	4.73
300.116	4.53
300.329	4.48
300.542	4.34
300.755	4.19
300.967	4.4
301.18	4.67
301.393	4.72
301.605	4.96
301.818	4.83
302.031	5.16
302.243	5.41
302.456	5.51
302.669	5.39
302.881	5.66
303.094	5.69
303.307	5.61
303.519	5.63
303.732	5.73
303.944	5.47
304.157	5.4
304.37	5.11
304.582	4.57
304.795	4.51
305.007	4.24
305.22	4.36
305.432	4.54
305.645	4.79
305.857	4.45
306.069	4.27
306.282	4.14
306.494	4.6
306.707	4.73
306.919	5.14
307.132	5.2
307.344	5.87
307.556	5.56
307.769	5.39
307.981	5.42
308.193	5.8
308.406	5.99
308.618	6.04
308.83	5.94
309.043	5.88
309.255	6.02
309.467	5.83
309.679	5.66
309.892	5.93
310.104	6.16
310.316	6.1
310.528	6.02
310.74	6.11
310.953	6.17
311.165	5.93
311.377	6.1
311.589	6.04
311.801	6.14
312.013	6.05
312.225	5.89
312.437	5.79
312.649	5.93
312.862	6
313.074	6.05
313.286	5.85
313.498	6.12
313.71	6.11
313.922	5.93
314.134	6.19
314.346	6.25
314.558	6.41
314.77	6.13
314.982	5.99
315.193	6
315.405	5.66
315.617	5.67
315.829	5.42
316.041	5.36
316.253	5.25
316.465	4.99
316.677	4.88
316.888	4.78
317.1	5.22
317.312	5.28
317.524	5.41
317.736	5.22
317.947	5.83
318.159	6.1
318.371	5.98
318.583	6.21
318.794	6.57
319.006	6.94
319.218	7.35
319.43	7.11
319.641	6.85
319.853	6.52
320.064	6.92
320.276	6.43
320.488	6.09
320.699	6.24
320.911	6.95
321.123	6.66
321.334	6.39
321.546	6.34
321.757	6.44
321.969	6.94
322.18	7.16
322.392	7.41
322.603	8.01
322.815	8.34
323.026	8.47
323.238	7.75
323.449	7.94
323.661	8
323.872	7.79
324.083	7.83
324.295	7.84
324.506	7.88
324.718	7.68
324.929	7.33
325.14	7.33
325.352	7.06
325.563	7.43
325.774	7.34
325.986	7.1
326.197	7
326.408	6.86
326.62	6.84
326.831	6.98
327.042	7.37
327.253	7.66
327.464	7.76
327.676	8.06
327.887	8.04
328.098	8.38
328.309	8.74
328.52	8.75
328.732	8.82
328.943	9.02
329.154	9.35
329.365	9.04
329.576	9.07
329.787	9.07
329.998	8.87
330.209	9.01
330.42	9.02
330.631	9.08
330.842	9.27
331.053	9.51
331.264	9.37
331.475	9.4
331.686	9.6
331.897	9.67
332.108	9.53
332.319	9.94
332.53	10.11
332.741	10
332.952	9.84
333.163	10.02
333.374	10.27
333.585	10.31
333.795	10.39
334.006	10.42
334.217	10.43
334.428	10.69
334.639	10.55
334.849	10.23
335.06	10.28
335.271	10.22
335.482	10.33
335.692	10.41
335.903	10.48
336.114	10.34
336.325	10.25
336.535	10.1
336.746	10.19
336.957	10.12
337.167	10.11
337.378	9.97
337.589	10.44
337.799	10.3
338.01	9.86
338.22	9.73
338.431	9.51
338.642	9.52
338.852	9.58
339.063	9.42
339.273	9.19
339.484	9.23
339.694	9.41
339.905	9.34
340.115	9.31
340.326	9.46
340.536	9.57
340.746	9.55
340.957	9.48
341.167	9.46
341.378	9.71
341.588	10.01
341.799	10.25
342.009	10.4
342.219	10.05
342.43	10.07
342.64	10.23
342.85	9.75
343.061	9.74
343.271	9.8
343.481	9.76
343.691	9.62
343.902	9.72
344.112	9.5
344.322	9.33
344.532	9.81
344.743	9.79
344.953	9.69
345.163	9.99
345.373	10.05
345.583	10.15
345.793	10.1
346.004	10.18
346.214	9.96
346.424	10.08
346.634	9.97
346.844	9.75
347.054	9.79
347.264	9.69
347.474	9.8
347.684	10.1
347.894	9.88
348.104	9.98
348.314	9.63
348.524	9.59
348.734	9.58
348.944	9.6
349.154	9.52
349.364	9.56
349.574	9.41
349.784	9.22
349.994	8.91
350.204	9.2
350.413	9.14
350.623	9.28
350.833	9.26
351.043	8.87
351.253	8.8
351.463	8.85
351.672	8.84
351.882	9.15
352.092	9.49
352.302	9.34
352.511	9.22
352.721	9.14
352.931	9.26
353.141	9.45
353.35	9.57
353.56	9.71
353.77	9.76
353.979	9.47
354.189	9.46
354.399	9.17
354.608	9.55
354.818	9.51
355.027	9.71
355.237	9.51
355.447	9.49
355.656	9.64
355.866	9.39
356.075	9.34
356.285	9.67
356.494	9.64
356.704	10.02
356.913	10
357.123	9.91
357.332	10
357.542	10.2
357.751	10.19
357.96	10.16
358.17	10.34
358.379	10.37
358.589	10.21
358.798	10.07
359.007	9.84
359.217	9.69
359.426	9.82
359.635	9.5
359.845	9.37
360.054	9.38
360.263	9.4
360.472	9.49
360.682	9.34
360.891	9.37
361.1	9.4
361.309	9.28
361.519	9.27
361.728	9.18
361.937	9.23
362.146	9.31
362.355	9.34
362.564	9.26
362.774	9.2
362.983	9.31
363.192	9.26
363.401	9.32
363.61	9.29
363.819	9.24
364.028	9.26
364.237	9.29
364.446	9.29
364.655	9.14
364.864	9.07
365.073	9.08
365.282	8.94
365.491	8.86
365.7	8.82
365.909	8.87
366.118	8.84
366.327	8.91
366.536	8.91
366.745	8.66
366.954	8.8
367.162	9.01
367.371	8.8
367.58	8.71
367.789	9
367.998	8.98
368.207	8.89
368.415	8.86
368.624	8.75
368.833	8.73
369.042	8.92
369.25	8.72
369.459	8.57
369.668	8.75
369.877	8.78
370.085	8.34
370.294	8.36
370.503	8.52
370.711	8.33
370.92	8.27
371.129	8.36
371.337	8.2
371.546	8.24
371.754	8.21
371.963	8.28
372.171	8.29
372.38	8.59
372.589	8.4
372.797	8.23
373.006	8.45
373.214	8.55
373.423	8.44
373.631	8.48
373.84	8.41
374.048	8.38
374.256	8.23
374.465	8.32
374.673	8.03
374.882	8.09
375.09	8.04
375.298	7.87
375.507	7.77
375.715	7.58
375.923	7.27
376.132	7.27
376.34	7.4
376.548	7.23
376.757	7.19
376.965	7.25
377.173	7.25
377.381	7.57
377.59	7.47
377.798	7.56
378.006	7.66
378.214	7.94
378.423	8.09
378.631	7.89
378.839	7.96
379.047	7.75
379.255	7.78
379.463	7.74
379.671	7.49
379.879	7.55
380.088	7.53
380.296	7.52
380.504	7.51
380.712	7.32
380.92	7.27
381.128	7.19
381.336	7.37
381.544	7.52
381.752	7.47
381.96	7.35
382.168	7.4
382.376	7.1
382.584	7.22
382.791	7.12
382.999	6.88
383.207	7.05
383.415	7.07
383.623	7
383.831	6.75
384.039	6.81
384.247	6.69
384.454	6.75
384.662	6.83
384.87	6.61
385.078	6.59
385.285	6.68
385.493	6.48
385.701	6.43
385.909	6.42
386.116	6.44
386.324	6.4
386.532	6.49
386.739	6.25
386.947	6.32
387.155	6.41
387.362	6.49
387.57	6.5
387.778	6.57
387.985	6.47
388.193	6.54
388.4	6.23
388.608	6.29
388.816	6.35
389.023	6.42
389.231	6.36
389.438	6.34
389.646	6.32
389.853	6.35
390.061	6.37
390.268	6.42
390.475	6.28
390.683	6.57
390.89	6.51
391.098	6.41
391.305	6.4
391.512	6.42
391.72	6.46
391.927	6.17
392.135	6.21
392.342	6.09
392.549	6.08
392.756	6.07
392.964	5.98
393.171	6.04
393.378	6.18
393.586	6.16
393.793	6.07
394	5.94
394.207	6.18
394.414	6.25
394.622	6.21
394.829	6.15
395.036	6.1
395.243	6.06
395.45	5.96
395.657	5.92
395.864	5.76
396.072	5.73
396.279	5.74
396.486	5.52
396.693	5.25
396.9	5.24
397.107	5.17
397.314	5.28
397.521	5.15
397.728	4.99
397.935	5.08
398.142	5.18
398.349	5.29
398.556	5.28
398.763	5.19
398.97	5.25
399.177	5.3
399.383	5.4
399.59	5.37
399.797	5.64
400.004	5.74
400.211	5.75
400.418	5.9
400.625	6.07
400.831	6.03
401.038	6.05
401.245	6.16
401.452	6.1
401.658	6.18
401.865	6.08
402.072	5.99
402.279	5.96
402.485	5.61
402.692	5.53
402.899	5.31
403.105	5.46
403.312	5.63
403.519	5.75
403.725	5.81
403.932	5.75
404.138	5.72
404.345	5.72
404.552	5.67
404.758	5.64
404.965	5.66
405.171	5.64
405.378	5.66
405.584	5.64
405.791	5.55
405.997	5.56
406.204	5.6
406.41	5.7
406.617	5.75
406.823	5.91
407.029	6.05
407.236	5.96
407.442	6.01
407.649	5.79
407.855	5.68
408.061	5.58
408.268	5.59
408.474	5.5
408.68	5.51
408.887	5.27
409.093	5.23
409.299	5.22
409.505	5.21
409.712	5.09
409.918	5.1
410.124	5.25
410.33	5.21
410.537	5.25
410.743	5.37
410.949	5.43
411.155	5.47
411.361	5.41
411.567	5.39
411.773	5.41
411.98	5.5
412.186	5.42
412.392	5.48
412.598	5.7
412.804	5.64
413.01	5.58
413.216	5.46
413.422	5.57
413.628	5.48
413.834	5.46
414.04	5.44
414.246	5.36
414.452	5.56
414.658	5.42
414.864	5.34
415.07	5.29
415.275	5.36
415.481	5.41
415.687	5.56
415.893	5.65
416.099	5.52
416.305	5.55
416.511	5.59
416.716	5.39
416.922	5.36
417.128	5.25
417.334	5.29
417.539	5.25
417.745	5.28
417.951	5.21
418.157	5.13
418.362	5.25
418.568	5.22
418.774	5.23
418.979	5.32
419.185	5.37
419.391	5.37
419.596	5.41
419.802	5.43
420.008	5.4
420.213	5.45
420.419	5.44
420.624	5.42
420.83	5.38
421.035	5.35
421.241	5.35
421.446	5.33
421.652	5.33
421.857	5.24
422.063	5.14
422.268	5.11
422.474	5.01
422.679	5.04
422.885	5.02
423.09	5.06
423.295	5.13
423.501	5.05
423.706	5.01
423.911	4.98
424.117	5.02
424.322	5.12
424.527	5.22
424.733	5.3
424.938	5.32
425.143	5.33
425.349	5.32
425.554	5.25
425.759	5.31
425.964	5.29
426.169	5.38
426.375	5.31
426.58	5.2
426.785	5.14
426.99	5.06
427.195	5.1
427.4	5.11
427.605	5.06
427.811	5.04
428.016	5.12
428.221	5.25
428.426	5.11
428.631	5.25
428.836	5.32
429.041	5.3
429.246	5.32
429.451	5.35
429.656	5.41
429.861	5.49
430.066	5.48
430.271	5.48
430.476	5.46
430.681	5.48
430.886	5.43
431.09	5.37
431.295	5.29
431.5	5.31
431.705	5.22
431.91	5.13
432.115	5.22
432.32	5.29
432.524	5.24
432.729	5.18
432.934	5.26
433.139	5.14
433.343	5.26
433.548	5.28
433.753	5.21
433.958	5.21
434.162	5.23
434.367	5.09
434.572	5.12
434.776	5.13
434.981	5.15
435.186	5.14
435.39	5.35
435.595	5.29
435.799	5.21
436.004	5.22
436.209	5.26
436.413	5.2
436.618	5.16
436.822	5.17
437.027	5.14
437.231	5.18
437.436	5.2
437.64	5.11
437.845	5.1
438.049	5.14
438.253	5.11
438.458	5.05
438.662	5.18
438.867	5.19
439.071	5.15
439.275	5.24
439.48	5.21
439.684	5.21
439.888	5.2
440.093	5.22
440.297	5.23
440.501	5.21
440.706	5.19
440.91	5.15
441.114	5.18
441.318	5.14
441.523	5.12
441.727	5.12
441.931	5.12
442.135	5.09
442.339	5.06
442.543	5.09
442.748	5.11
442.952	5.18
443.156	5.17
443.36	5.21
443.564	5.28
443.768	5.25
443.972	5.3
444.176	5.27
444.38	5.27
444.584	5.25
444.788	5.18
444.992	5.25
445.196	5.28
445.4	5.28
445.604	5.28
445.808	5.33
446.012	5.33
446.216	5.23
446.42	5.27
446.624	5.25
446.828	5.17
447.032	5.22
447.235	5.19
447.439	5.16
447.643	5.13
447.847	5.12
448.051	5.01
448.254	4.95
448.458	4.99
448.662	4.94
448.866	5.02
449.069	5.13
449.273	5.12
449.477	5.08
449.681	5.11
449.884	5.09
450.088	5.06
450.292	5.23
450.495	5.32
450.699	5.35
450.902	5.38
451.106	5.35
451.31	5.31
451.513	5.39
451.717	5.51
451.92	5.45
452.124	5.54
452.327	5.46
452.531	5.33
452.734	5.2
452.938	5.12
453.141	5.11
453.345	5.08
453.548	5.05
453.752	4.91
453.955	4.75
454.158	4.77
454.362	4.75
454.565	4.88
454.769	4.91
454.972	4.93
455.175	5.11
455.379	5.09
455.582	5.18
455.785	5.19
455.988	5.31
456.192	5.46
456.395	5.52
456.598	5.51
456.801	5.51
457.005	5.46
457.208	5.61
457.411	5.5
457.614	5.63
457.817	5.54
458.021	5.57
458.224	5.39
458.427	5.34
458.63	5.23
458.833	5.21
459.036	5.2
459.239	5.19
459.442	5.13
459.645	5.06
459.848	4.96
460.051	4.91
460.254	4.88
460.457	4.96
460.66	4.93
460.863	4.94
461.066	4.98
461.269	4.97
461.472	5.08
461.675	5.06
461.878	5.07
462.081	5.13
462.284	5.21
462.486	5.24
462.689	5.31
462.892	5.3
463.095	5.23
463.298	5.23
463.5	5.23
463.703	5.15
463.906	5.1
464.109	5.14
464.311	5.1
464.514	4.99
464.717	4.94
464.92	4.87
465.122	4.94
465.325	5.09
465.528	5.05
465.73	5.07
465.933	4.96
466.135	5.02
466.338	5.07
466.541	5.1
466.743	5.12
466.946	5.09
467.148	5.14
467.351	5.14
467.553	5.08
467.756	5.08
467.958	5.08
468.161	5.14
468.363	5.19
468.566	5.12
468.768	5.02
468.971	4.99
469.173	5.02
469.375	4.94
469.578	4.92
469.78	4.95
469.983	5.02
470.185	4.92
470.387	4.93
470.59	4.84
470.792	4.92
470.994	5.03
471.196	5.09
471.399	5.11
471.601	5.15
471.803	5.17
472.005	5.18
472.208	5.13
472.41	5.18
472.612	5.21
472.814	5.26
473.016	5.3
473.218	5.18
473.421	5.23
473.623	5.23
473.825	5.27
474.027	5.3
474.229	5.27
474.431	5.28
474.633	5.33
474.835	5.34
475.037	5.28
475.239	5.27
475.441	5.38
475.643	5.39
475.845	5.42
476.047	5.37
476.249	5.34
476.451	5.38
476.653	5.38
476.855	5.29
477.057	5.2
477.258	5.19
477.46	5.14
477.662	5.12
477.864	5.12
478.066	5.08
478.268	5.15
478.469	5.16
478.671	5.13
478.873	5.11
479.075	5.18
479.276	5.24
479.478	5.27
479.68	5.24
479.882	5.28
480.083	5.25
480.285	5.26
480.487	5.16
480.688	5.12
480.89	5.15
481.091	5.14
481.293	5.08
481.495	5.05
481.696	5.07
481.898	5.08
482.099	5.08
482.301	5.08
482.502	5.13
482.704	5.17
482.905	5.19
483.107	5.17
483.308	5.19
483.51	5.18
483.711	5.2
483.913	5.2
484.114	5.23
484.315	5.2
484.517	5.2
484.718	5.17
484.92	5.15
485.121	5.13
485.322	5.11
485.524	5.1
485.725	5.1
485.926	5.08
486.127	5.07
486.329	5.03
486.53	5.04
486.731	5.06
486.932	5.04
487.134	5.05
487.335	5.08
487.536	5.1
487.737	5.09
487.938	5.1
488.139	5.08
488.341	5.06
488.542	5.11
488.743	5.13
488.944	5.13
489.145	5.15
489.346	5.18
489.547	5.17
489.748	5.21
489.949	5.22
490.15	5.26
490.351	5.31
490.552	5.35
490.753	5.32
490.954	5.31
491.155	5.31
491.356	5.33
491.557	5.32
491.758	5.35
491.959	5.32
492.159	5.33
492.36	5.3
492.561	5.28
492.762	5.26
492.963	5.25
493.164	5.31
493.364	5.32
493.565	5.37
493.766	5.36
493.967	5.36
494.167	5.39
494.368	5.38
494.569	5.45
494.769	5.46
494.97	5.54
495.171	5.6
495.371	5.59
495.572	5.58
495.773	5.55
495.973	5.57
496.174	5.51
496.375	5.56
496.575	5.62
496.776	5.62
496.976	5.67
497.177	5.61
497.377	5.63
497.578	5.56
497.778	5.55
497.979	5.54
498.179	5.51
498.38	5.57
498.58	5.56
498.78	5.55
498.981	5.54
499.181	5.47
499.382	5.52
499.582	5.5
499.782	5.56
499.983	5.63
500.183	5.64
500.383	5.69
500.584	5.74
500.784	5.75
500.984	5.79
501.184	5.86
501.385	5.93
501.585	6.03
501.785	6.07
501.985	6.13
502.185	6.18
502.386	6.22
502.586	6.27
502.786	6.27
502.986	6.29
503.186	6.3
503.386	6.38
503.586	6.49
503.786	6.52
503.987	6.53
504.187	6.47
504.387	6.52
504.587	6.51
504.787	6.6
504.987	6.7
505.187	6.74
505.387	6.8
505.587	6.77
505.786	6.72
505.986	6.74
506.186	6.82
506.386	6.84
506.586	6.9
506.786	6.93
506.986	6.82
507.186	6.81
507.386	6.84
507.585	6.87
507.785	6.96
507.985	7
508.185	7.04
508.384	7.12
508.584	7.27
508.784	7.18
508.984	7.23
509.183	7.31
509.383	7.31
509.583	7.4
509.782	7.42
509.982	7.42
510.182	7.5
510.381	7.57
510.581	7.63
510.781	7.65
510.98	7.7
511.18	7.8
511.379	7.89
511.579	8.02
511.778	8.08
511.978	8.14
512.177	8.2
512.377	8.28
512.576	8.33
512.776	8.33
512.975	8.47
513.175	8.58
513.374	8.69
513.573	8.77
513.773	8.78
513.972	8.83
514.172	8.87
514.371	9.01
514.57	9.01
514.77	9.04
514.969	9.07
515.168	9.1
515.367	9.18
515.567	9.26
515.766	9.33
515.965	9.41
516.164	9.56
516.364	9.69
516.563	9.79
516.762	9.97
516.961	10.01
517.16	10.17
517.359	10.23
517.559	10.38
517.758	10.42
517.957	10.47
518.156	10.58
518.355	10.59
518.554	10.64
518.753	10.67
518.952	10.69
519.151	10.77
519.35	10.83
519.549	10.87
519.748	10.93
519.947	11
520.146	11.13
520.345	11.21
520.544	11.3
520.743	11.41
520.942	11.5
521.141	11.61
521.339	11.74
521.538	11.83
521.737	11.97
521.936	11.98
522.135	12.07
522.333	12.15
522.532	12.25
522.731	12.38
522.93	12.48
523.129	12.64
523.327	12.78
523.526	12.94
523.725	12.96
523.923	13.02
524.122	13.2
524.321	13.36
524.519	13.5
524.718	13.63
524.917	13.77
525.115	13.86
525.314	13.92
525.512	13.99
525.711	14.08
525.909	14.26
526.108	14.42
526.306	14.53
526.505	14.69
526.703	14.8
526.902	14.92
527.1	15.01
527.299	15.12
527.497	15.26
527.696	15.33
527.894	15.43
528.092	15.53
528.291	15.64
528.489	15.71
528.688	15.73
528.886	15.8
529.084	15.84
529.283	15.91
529.481	15.96
529.679	16.04
529.877	16.12
530.076	16.21
530.274	16.27
530.472	16.3
530.67	16.43
530.869	16.53
531.067	16.61
531.265	16.74
531.463	16.85
531.661	17.01
531.859	17.11
532.057	17.27
532.255	17.39
532.454	17.49
532.652	17.61
532.85	17.67
533.048	17.77
533.246	17.87
533.444	17.95
533.642	18
533.84	18.02
534.038	18.09
534.236	18.12
534.434	18.16
534.632	18.23
534.83	18.34
535.027	18.4
535.225	18.47
535.423	18.56
535.621	18.68
535.819	18.8
536.017	18.98
536.215	19.02
536.412	19.15
536.61	19.23
536.808	19.38
537.006	19.42
537.203	19.54
537.401	19.58
537.599	19.65
537.797	19.74
537.994	19.86
538.192	19.93
538.39	20.1
538.587	20.19
538.785	20.29
538.983	20.36
539.18	20.45
539.378	20.56
539.575	20.78
539.773	20.92
539.97	21.04
540.168	21.13
540.366	21.19
540.563	21.23
540.761	21.34
540.958	21.48
541.155	21.51
541.353	21.58
541.55	21.64
541.748	21.69
541.945	21.72
542.143	21.75
542.34	21.79
542.537	21.86
542.735	21.93
542.932	22.02
543.129	22.03
543.327	22.17
543.524	22.28
543.721	22.39
543.919	22.46
544.116	22.58
544.313	22.66
544.51	22.8
544.708	22.99
544.905	23.18
545.102	23.16
545.299	23.25
545.496	23.33
545.693	23.37
545.891	23.41
546.088	23.44
546.285	23.47
546.482	23.56
546.679	23.58
546.876	23.52
547.073	23.46
547.27	23.59
547.467	23.54
547.664	23.53
547.861	23.55
548.058	23.59
548.255	23.73
548.452	23.74
548.649	23.75
548.846	23.75
549.043	23.82
549.24	23.88
549.437	23.82
549.633	23.92
549.83	23.96
550.027	24.04
550.224	24.05
550.421	23.99
550.618	24.04
550.814	24.15
551.011	24.25
551.208	24.3
551.405	24.32
551.601	24.4
551.798	24.4
551.995	24.42
552.191	24.43
552.388	24.48
552.585	24.48
552.781	24.53
552.978	24.53
553.175	24.49
553.371	24.53
553.568	24.57
553.764	24.5
553.961	24.47
554.157	24.5
554.354	24.54
554.55	24.48
554.747	24.6
554.943	24.67
555.14	24.6
555.336	24.71
555.533	24.69
555.729	24.7
555.926	24.72
556.122	24.8
556.318	24.87
556.515	24.91
556.711	25.02
556.907	24.91
557.104	24.94
557.3	24.94
557.496	24.97
557.693	25.06
557.889	25.14
558.085	25.26
558.281	25.31
558.478	25.3
558.674	25.34
558.87	25.34
559.066	25.4
559.262	25.32
559.459	25.52
559.655	25.54
559.851	25.48
560.047	25.5
560.243	25.52
560.439	25.68
560.635	25.67
560.831	25.65
561.027	25.73
561.223	25.77
561.419	25.81
561.615	25.71
561.811	25.64
562.007	25.59
562.203	25.58
562.399	25.63
562.595	25.54
562.791	25.73
562.987	25.73
563.183	25.62
563.379	25.62
563.575	25.65
563.771	25.64
563.966	25.71
564.162	25.78
564.358	25.81
564.554	25.83
564.75	25.91
564.945	25.84
565.141	25.89
565.337	25.94
565.533	25.98
565.728	26.12
565.924	26.21
566.12	26.21
566.315	26.27
566.511	26.28
566.707	26.29
566.902	26.24
567.098	26.24
567.293	26.23
567.489	26.24
567.684	26.2
567.88	26.11
568.076	26.17
568.271	26.22
568.467	26.21
568.662	26.28
568.858	26.29
569.053	26.29
569.248	26.29
569.444	26.41
569.639	26.39
569.835	26.5
570.03	26.55
570.225	26.59
570.421	26.72
570.616	26.73
570.812	26.61
571.007	26.71
571.202	26.73
571.397	26.72
571.593	26.74
571.788	26.86
571.983	26.8
572.178	26.76
572.374	26.74
572.569	26.72
572.764	26.66
572.959	26.69
573.154	26.62
573.35	26.7
573.545	26.81
573.74	26.81
573.935	26.89
574.13	26.97
574.325	27.08
574.52	27.1
574.715	26.98
574.91	27.06
575.105	27.2
575.3	27.37
575.495	27.29
575.69	27.26
575.885	27.19
576.08	27.17
576.275	27.24
576.47	27.28
576.665	27.3
576.86	27.3
577.055	27.3
577.25	27.22
577.444	27.09
577.639	27.26
577.834	27.35
578.029	27.41
578.224	27.43
578.418	27.52
578.613	27.59
578.808	27.63
579.003	27.84
579.197	27.96
579.392	28.15
579.587	28.31
579.781	28.34
579.976	28.28
580.171	28.38
580.365	28.46
580.56	28.31
580.755	28.22
580.949	28.25
581.144	28.19
581.338	28.24
581.533	28.21
581.727	28.18
581.922	28.21
582.116	28.23
582.311	28.24
582.505	28.21
582.7	28.25
582.894	28.26
583.089	28.21
583.283	28.28
583.478	28.23
583.672	28.17
583.866	28.08
584.061	28.07
584.255	28.11
584.449	28.08
584.644	28.13
584.838	28.13
585.032	28.2
585.226	28.31
585.421	28.31
585.615	28.2
585.809	28.3
586.003	28.5
586.198	28.47
586.392	28.53
586.586	28.59
586.78	28.67
586.974	28.87
587.168	28.91
587.363	28.86
587.557	28.85
587.751	29.03
587.945	28.97
588.139	28.94
588.333	28.88
588.527	28.89
588.721	28.82
588.915	28.69
589.109	28.59
589.303	28.61
589.497	28.66
589.691	28.7
589.885	28.72
590.079	28.68
590.273	28.64
590.466	28.76
590.66	28.79
590.854	29.03
591.048	29.12
591.242	29.09
591.436	29.11
591.629	29.25
591.823	29.33
592.017	29.37
592.211	29.5
592.404	29.48
592.598	29.43
592.792	29.38
592.986	29.14
593.179	29.06
593.373	29.09
593.567	29.13
593.76	28.9
593.954	28.84
594.147	28.84
594.341	28.77
594.535	28.74
594.728	28.86
594.922	29.05
595.115	29.14
595.309	29.15
595.502	29.2
595.696	29.16
595.889	29.18
596.083	29.19
596.276	29.11
596.47	29.14
596.663	29.2
596.856	29.07
597.05	28.96
597.243	28.99
597.437	29.08
597.63	29.02
597.823	29.04
598.017	29.14
598.21	29.18
598.403	29.18
598.596	29.27
598.79	29.29
598.983	29.51
599.176	29.54
599.369	29.61
599.563	29.54
599.756	29.71
599.949	29.76
600.142	29.65
600.335	29.67
600.528	29.67
600.722	29.63
600.915	29.58
601.108	29.41
601.301	29.44
601.494	29.35
601.687	29.38
601.88	29.29
602.073	29.01
602.266	29.08
602.459	28.93
602.652	29
602.845	28.97
603.038	28.9
603.231	29.01
603.424	29.04
603.617	29.02
603.809	29.07
604.002	29.1
604.195	29.32
604.388	29.35
604.581	29.51
604.774	29.56
604.966	29.61
605.159	29.78
605.352	29.73
605.545	29.74
605.737	29.75
605.93	29.75
606.123	29.72
606.316	29.7
606.508	29.67
606.701	29.74
606.894	29.89
607.086	29.93
607.279	30.02
607.471	30.1
607.664	30.16
607.857	30.28
608.049	30.45
608.242	30.75
608.434	30.95
608.627	31.32
608.819	31.47
609.012	31.65
609.204	32.01
609.397	32.4
609.589	32.67
609.782	33.14
609.974	33.67
610.166	34.05
610.359	34.32
610.551	34.8
610.743	35.11
610.936	35.37
611.128	35.45
611.32	35.43
611.513	35.4
611.705	35.71
611.897	35.54
612.09	35.31
612.282	35.08
612.474	34.97
612.666	34.69
612.858	34.37
613.051	34.24
613.243	34.16
613.435	34.06
613.627	33.93
613.819	33.6
614.011	33.54
614.203	33.4
614.395	33.16
614.588	33.09
614.78	32.88
614.972	32.69
615.164	32.28
615.356	32.09
615.548	32.1
615.74	31.86
615.932	31.74
616.124	31.57
616.315	31.53
616.507	31.61
616.699	31.37
616.891	31.25
617.083	31.31
617.275	31.45
617.467	31.46
617.659	31.28
617.85	31.33
618.042	31.13
618.234	31.13
618.426	31
618.618	30.92
618.809	30.9
619.001	31
619.193	30.98
619.384	31.07
619.576	31.35
619.768	31.33
619.959	31.35
620.151	31.43
620.343	31.35
620.534	31.33
620.726	31.36
620.917	31.3
621.109	31.22
621.301	31.23
621.492	31.18
621.684	30.78
621.875	30.88
622.067	30.76
622.258	30.72
622.45	30.85
622.641	30.84
622.832	30.96
623.024	31.27
623.215	31.33
623.407	31.31
623.598	31.24
623.789	31.26
623.981	31.21
624.172	31.14
624.363	31.26
624.555	31.2
624.746	31.24
624.937	31.07
625.129	30.93
625.32	30.86
625.511	30.85
625.702	30.97
625.893	31.18
626.085	31.19
626.276	31.38
626.467	31.42
626.658	31.41
626.849	31.46
627.04	31.48
627.231	31.35
627.422	31.41
627.614	31.44
627.805	31.35
627.996	31.36
628.187	31.42
628.378	31.5
628.569	31.58
628.76	31.74
628.951	31.71
629.142	31.88
629.332	31.97
629.523	32.07
629.714	31.98
629.905	32.12
630.096	31.99
630.287	32.14
630.478	32.16
630.669	32.01
630.859	31.93
631.05	31.97
631.241	32.03
631.432	32.07
631.623	31.93
631.813	32.2
632.004	32.08
632.195	32.21
632.385	31.99
632.576	31.82
632.767	31.87
632.957	31.84
633.148	31.75
633.339	31.58
633.529	31.49
633.72	31.39
633.91	31.2
634.101	31.08
634.292	31
634.482	31.09
634.673	31.01
634.863	30.88
635.054	30.93
635.244	31.06
635.435	31.17
635.625	31.23
635.815	31.33
636.006	31.27
636.196	31.35
636.387	31.4
636.577	31.28
636.767	31.22
636.958	31.33
637.148	31.29
637.338	31.11
637.529	30.91
637.719	30.88
637.909	30.97
638.099	31.06
638.29	30.99
638.48	31.02
638.67	31.07
638.86	31.37
639.05	31.48
639.241	31.25
639.431	31.57
639.621	31.59
639.811	31.61
640.001	31.56
640.191	31.5
640.381	31.63
640.571	31.44
640.761	31.56
640.951	31.31
641.141	31.22
641.331	31.37
641.521	31.29
641.711	31.11
641.901	31.14
642.091	31.19
642.281	31.37
642.471	31.5
642.661	31.64
642.851	31.59
643.041	31.64
643.231	31.64
643.42	31.81
643.61	31.88
643.8	32
643.99	32.14
644.18	32.03
644.369	32.2
644.559	32.18
644.749	32.25
644.939	32.27
645.128	32.45
645.318	32.22
645.508	32.28
645.697	32.24
645.887	32.3
646.076	32.27
646.266	32.3
646.456	32.35
646.645	32.25
646.835	32.2
647.024	32.18
647.214	32.19
647.403	32.24
647.593	32.06
647.782	31.96
647.972	32.17
648.161	32.05
648.351	31.99
648.54	31.58
648.73	31.63
648.919	31.86
649.108	31.84
649.298	31.84
649.487	32.19
649.677	32.25
649.866	32.2
650.055	32.2
650.244	32.24
650.434	32.27
650.623	32.51
650.812	32.61
651.002	32.26
651.191	32.41
651.38	32.22
651.569	32.12
651.758	32.25
651.947	32.53
652.137	32.48
652.326	32.65
652.515	32.87
652.704	32.89
652.893	32.87
653.082	33.2
653.271	33.07
653.46	33.24
653.649	33.28
653.838	33.15
654.027	32.82
654.216	32.78
654.405	32.59
654.594	32.38
654.783	32.33
654.972	32.38
655.161	32.16
655.35	32.15
655.539	32.17
655.728	32.12
655.916	31.89
656.105	31.97
656.294	32.04
656.483	32.17
656.672	32.29
656.86	32.21
657.049	32.31
657.238	32.41
657.427	32.46
657.615	32.38
657.804	32.31
657.993	32.59
658.181	32.6
658.37	32.68
658.559	32.66
658.747	32.64
658.936	32.54
659.125	32.2
659.313	32.27
659.502	32.19
659.69	32.34
659.879	32.39
660.067	32.33
660.256	32.45
660.444	32.11
660.633	32.24
660.821	32.23
661.01	32.39
661.198	32.66
661.387	32.68
661.575	32.81
661.763	32.64
661.952	32.51
662.14	32.5
662.328	32.51
662.517	32.95
662.705	32.67
662.893	32.79
663.082	33
663.27	33.22
663.458	33.21
663.646	33.33
663.834	33.31
664.023	33.45
664.211	33.45
664.399	33.44
664.587	33.15
664.775	33.41
664.963	33.42
665.152	33.15
665.34	32.95
665.528	32.84
665.716	32.49
665.904	32.79
666.092	32.99
666.28	33.1
666.468	33.04
666.656	33.35
666.844	33.15
667.032	33.11
667.22	33.23
667.408	33.24
667.596	33.35
667.784	33.78
667.971	33.74
668.159	33.51
668.347	33.38
668.535	33.33
668.723	33.52
668.911	33.55
669.098	33.34
669.286	33.32
669.474	33.33
669.662	33.33
669.849	33.37
670.037	33.46
670.225	33.62
670.413	33.72
670.6	33.82
670.788	33.24
670.976	33.41
671.163	33.6
671.351	33.43
671.538	33.37
671.726	33.29
671.913	33.13
672.101	32.92
672.289	32.97
672.476	32.9
672.664	32.78
672.851	33.22
673.039	33.13
673.226	33.04
673.413	33.24
673.601	33.03
673.788	32.69
673.976	32.54
674.163	32.82
674.35	32.79
674.538	32.98
674.725	33.17
674.912	33.03
675.1	32.93
675.287	32.91
675.474	32.76
675.662	33.17
675.849	33.37
676.036	33.49
676.223	33.13
676.411	33.23
676.598	33.18
676.785	32.9
676.972	32.82
677.159	33.08
677.346	33.3
677.533	33.37
677.721	33.07
677.908	33.37
678.095	33.33
678.282	33.24
678.469	33.11
678.656	33.09
678.843	33.25
679.03	33.28
679.217	33.22
679.404	33.2
679.591	33.33
679.778	33.51
679.964	33.27
680.151	33.2
680.338	33.42
680.525	33.41
680.712	33.21
680.899	33.28
681.086	33.39
681.272	33.36
681.459	33.31
681.646	33.13
681.833	33.18
682.02	33.18
682.206	33.27
682.393	33.24
682.58	33.25
682.766	33.43
682.953	33.5
683.14	33.35
683.326	33.3
683.513	33.33
683.7	33.46
683.886	33.37
684.073	33.54
684.259	33.77
684.446	34
684.632	34.1
684.819	34.16
685.005	33.87
685.192	33.99
685.378	34.16
685.565	34.03
685.751	34.14
685.938	34.1
686.124	33.94
686.31	33.73
686.497	33.63
686.683	33.49
686.87	33.45
687.056	33.58
687.242	33.76
687.429	33.41
687.615	33.55
687.801	33.35
687.987	33.3
688.174	33.39
688.36	33.49
688.546	33.27
688.732	33.24
688.918	33.17
689.105	33.18
689.291	33.19
689.477	33.73
689.663	33.79
689.849	34.16
690.035	34.27
690.221	34.13
690.407	34.28
690.593	34.31
690.779	34.47
690.965	34.58
691.151	34.6
691.337	34.42
691.523	34.15
691.709	34.2
691.895	34.22
692.081	34.2
692.267	34.41
692.453	34.37
692.639	34.25
692.825	34
693.011	33.94
693.196	34.06
693.382	33.89
693.568	33.99
693.754	34.06
693.94	33.78
694.125	33.92
694.311	34.14
694.497	34.2
694.682	34.64
694.868	34.88
695.054	35.19
695.239	35.28
695.425	35.41
695.611	35.33
695.796	35.27
695.982	35.42
696.168	35.15
696.353	34.92
696.539	34.7
696.724	34.76
696.91	34.82
697.095	34.65
697.281	34.49
697.466	34.53
697.652	34.43
697.837	34.19
698.023	34.05
698.208	34.28
698.393	34.53
698.579	34.55
698.764	34.5
698.949	34.47
699.135	34.31
699.32	34.37
699.505	34.31
699.691	34.43
699.876	34.49
700.061	34.4
700.246	34.52
700.432	34.26
700.617	34.23
700.802	34.02
700.987	33.91
701.172	34.25
701.358	34.14
701.543	34.34
701.728	34.54
701.913	34.83
702.098	34.89
702.283	34.82
702.468	34.98
702.653	34.9
702.838	35.11
703.023	35.01
703.208	35.1
703.393	35.16
703.578	35.01
703.763	34.84
703.948	34.81
704.133	35.13
704.318	35.18
704.503	35.19
704.688	35.49
704.873	35.69
705.057	36.13
705.242	36.13
705.427	36.11
705.612	36.62
705.797	36.52
705.981	36.73
706.166	36.93
706.351	36.9
706.536	36.79
706.72	37.06
706.905	36.85
707.09	36.87
707.274	36.92
707.459	37.23
707.644	37.02
707.828	37.34
708.013	37.28
708.197	37.24
708.382	37.23
708.567	37.48
708.751	37.42
708.936	37.35
709.12	37.3
709.305	37.05
709.489	37
709.673	36.97
709.858	36.76
710.042	36.39
710.227	36.17
710.411	35.91
710.596	35.52
710.78	35.17
710.964	35.09
711.149	34.89
711.333	35.01
711.517	35.27
711.702	35.27
711.886	35.31
712.07	35.48
712.254	35.33
712.438	35.47
712.623	35.66
712.807	35.59
712.991	35.63
713.175	35.59
713.359	35.66
713.544	35.09
713.728	34.78
713.912	34.67
714.096	34.85
714.28	34.9
714.464	34.65
714.648	34.68
714.832	34.86
715.016	34.75
715.2	34.89
715.384	34.59
715.568	34.63
715.752	34.9
715.936	34.89
716.12	34.39
716.304	34.53
716.488	34.82
716.671	34.35
716.855	34.06
717.039	33.96
717.223	33.58
717.407	33.77
717.59	33.98
717.774	33.69
717.958	33.43
718.142	33.61
718.325	33.75
718.509	33.41
718.693	33.61
718.877	33.74
719.06	33.85
719.244	34.47
719.428	34.13
719.611	33.88
719.795	33.93
719.978	34.13
720.162	34.18
720.345	34.03
720.529	33.85
720.713	33.99
720.896	34.37
721.08	34.71
721.263	34.33
721.446	34.45
721.63	34.9
721.813	34.82
721.997	35.26
722.18	35.24
722.364	35.04
722.547	35.6
722.73	35.59
722.914	35.39
723.097	34.91
723.28	35.23
723.464	35.42
723.647	35.04
723.83	35.07
724.013	34.82
724.197	34.5
724.38	34.76
724.563	34.34
724.746	34.59
724.929	34.83
725.112	35.18
725.296	35.03
725.479	34.9
725.662	35
725.845	35.21
726.028	34.95
726.211	35.11
726.394	35.33
726.577	35.69
726.76	35.64
726.943	35.31
727.126	35.35
727.309	35.02
727.492	35.13
727.675	35.1
727.858	34.76
728.041	35.09
728.224	35.37
728.407	34.83
728.589	34.98
728.772	35.13
728.955	35.57
729.138	35.36
729.321	35.65
729.503	35.41
729.686	35.46
729.869	35.6
730.052	35.27
730.234	34.92
730.417	34.94
730.6	34.69
730.782	34.33
730.965	33.98
731.148	33.85
731.33	34.02
731.513	34.17
731.695	33.93
731.878	33.52
732.061	33.93
732.243	34.24
732.426	34.29
732.608	34.24
732.791	34.59
732.973	34.2
733.156	34.32
733.338	34.18
733.52	34.13
733.703	34.27
733.885	34.97
734.068	34.83
734.25	34.56
734.432	34.7
734.615	34.94
734.797	34.59
734.979	34.91
735.162	34.95
735.344	34.89
735.526	34.99
735.708	34.84
735.891	34.69
736.073	34.68
736.255	34.52
736.437	34.93
736.619	34.95
736.802	34.99
736.984	34.71
737.166	34.75
737.348	35
737.53	35.25
737.712	35.82
737.894	35.65
738.076	35.49
738.258	36.27
738.44	35.8
738.622	35.21
738.804	35.36
738.986	35.69
739.168	35.76
739.35	35.33
739.532	35.12
739.714	34.72
739.896	34.79
740.078	34.71
740.259	34.41
740.441	34.59
740.623	35.2
740.805	35.29
740.987	35.16
741.168	35.31
741.35	35.65
741.532	35.46
741.714	35.65
741.895	35.72
742.077	36.36
742.259	36.62
742.44	36.39
742.622	36.11
742.804	36.03
742.985	36.16
743.167	35.97
743.348	35.62
743.53	36.03
743.711	36.28
743.893	36.5
744.075	36.47
744.256	35.95
744.438	36.26
744.619	36.36
744.8	36.37
744.982	36.78
745.163	37.14
745.345	37.67
745.526	38.06
745.707	38.38
745.889	38.24
746.07	37.85
746.252	38.12
746.433	38.32
746.614	38.36
746.795	38.52
746.977	37.66
747.158	38.16
747.339	37.94
747.52	37.16
747.702	36.61
747.883	36.82
748.064	36.25
748.245	36.58
748.426	36.34
748.607	36.53
748.788	36.45
748.97	36.99
749.151	36.14
749.332	35.92
749.513	36.11
749.694	36.47
749.875	36.05
750.056	36.64
750.237	36.54
750.418	36.45
750.599	35.84
750.78	35.76
750.96	35.38
751.141	35.49
751.322	35.63
751.503	35.66
751.684	35.34
751.865	35.43
752.046	35.41
752.226	34.81
752.407	34.72
752.588	34.78
752.769	35.21
752.949	35.87
753.13	35.36
753.311	35.64
753.492	35.36
753.672	35.44
753.853	35.65
754.034	35.69
754.214	36.27
754.395	36.42
754.575	36.75
754.756	36.19
754.937	36.31
755.117	37.07
755.298	37.33
755.478	37.28
755.659	37.22
755.839	37.71
756.02	37.69
756.2	37.75
756.381	37.98
756.561	37.95
756.741	38.18
756.922	38.16
757.102	38.02
757.283	37.29
757.463	37.51
757.643	37.58
757.823	37.22
758.004	36.96
758.184	36.55
758.364	36.32
758.545	36.05
758.725	35.53
758.905	34.84
759.085	34.37
759.265	34.72
759.446	34.4
759.626	33.34
759.806	32.81
759.986	32.81
760.166	32.99
760.346	32.53
760.526	32.63
760.706	32.97
760.886	33.45
761.066	33.9
761.246	33.23
761.426	33.52
761.606	33.9
761.786	33.89
761.966	33.79
762.146	33.26
762.326	32.84
762.506	32.85
762.686	32.86
762.866	32.45
763.046	31.92
763.225	32.42
763.405	32.36
763.585	32.61
763.765	33.01
763.945	33.14
764.124	33.24
764.304	33.88
764.484	33.93
764.664	34.04
764.843	34.26
765.023	34.76
765.203	34.88
765.382	35.32
765.562	35.08
765.741	35.2
765.921	35.52
766.101	35.73
766.28	35.63
766.46	36.02
766.639	36.13
766.819	36.27
766.998	36.31
767.178	36.22
767.357	35.96
767.537	36.76
767.716	36.06
767.896	35.93
768.075	36.44
768.254	36.86
768.434	37.15
768.613	37.05
768.792	36.87
768.972	36.44
769.151	36.22
769.33	35.64
769.51	35.28
769.689	35.55
769.868	35.52
770.047	35
770.226	34.15
770.406	33.32
770.585	33.82
770.764	34.28
770.943	34.33
771.122	34.69
771.301	35.93
771.48	35.58
771.66	36.2
771.839	35.96
772.018	36.77
772.197	37.35
772.376	37.94
772.555	37.43
772.734	36.89
772.913	37
773.092	37.38
773.271	36.94
773.449	37.21
773.628	36.79
773.807	37.11
773.986	36.74
774.165	37
774.344	37.48
774.523	37.47
774.701	37.67
774.88	38.21
775.059	38
775.238	38.18
775.417	38.44
775.595	38.78
775.774	38.37
775.953	37.96
776.131	37.96
776.31	37.6
776.489	37.39
776.667	37.42
776.846	36.91
777.025	36.64
777.203	36.14
777.382	35.49
777.56	35.34
777.739	35.68
777.917	36.08
778.096	36.05
778.274	35.37
778.453	35.44
778.631	36.28
778.81	36.4
778.988	36.32
779.166	37.47
779.345	38.11
779.523	38.33
779.702	38.27
779.88	38.53
780.058	38.23
780.237	38.15
780.415	38.28
780.593	37.95
780.771	38.77
780.95	39.59
781.128	38.46
781.306	38.7
781.484	38.5
781.662	38.88
781.841	38.03
782.019	37.6
782.197	37.69
782.375	37.43
782.553	36.53
782.731	35.94
782.909	35.28
783.087	36.21
783.265	36.98
783.443	37.11
783.621	35.93
783.799	36.75
783.977	38.09
784.155	38.2
784.333	38.77
784.511	39.67
784.689	39.08
784.867	39.49
785.045	38.69
785.223	37.45
785.4	36.63
785.578	37.63
785.756	36.68
785.934	36.09
786.112	36.24
786.289	35.76
786.467	34.84
786.645	35.98
786.823	35.65
787	35.46
787.178	35.82
787.356	35.59
787.533	35
787.711	35.5
787.889	35.3
788.066	35.52
788.244	35.2
788.421	35.94
788.599	36.04
788.776	35.47
788.954	35.16
789.131	35.07
789.309	35.37
789.486	35.76
789.664	36.36
789.841	36.37
790.019	35.87
790.196	36.06
790.373	36.52
790.551	35.84
790.728	36.45
790.906	37.1
791.083	36.57
791.26	35.96
791.437	35.95
791.615	36.08
791.792	36.37
791.969	36.2
792.146	35.8
792.324	34.38
792.501	34.46
792.678	34.54
792.855	35.25
793.032	35.96
793.209	36.24
793.387	36.34
793.564	35.36
793.741	35.2
793.918	35.03
794.095	35.67
794.272	37.28
794.449	36.7
794.626	35.98
794.803	34.76
794.98	34.85
795.157	34.77
795.334	35.31
795.511	35.28
795.688	35.93
795.864	35.83
796.041	35.71
796.218	34.3
796.395	34.99
796.572	35.7
796.749	37.04
796.925	36.86
797.102	37.66
797.279	36.33
797.456	36.71
797.632	35.8
797.809	36.09
797.986	36.19
798.162	36.41
798.339	36.98
798.516	36.24
798.692	34.69
798.869	34.14
799.046	34.25
799.222	34.51
799.399	33.87
799.575	33.7
799.752	34.92
799.928	35.13
800.105	35.74
800.281	35.02
800.458	35.76
800.634	36.48
800.811	37.45
800.987	36.86
801.163	37.02
801.34	37.69
801.516	38.04
801.692	37.6
801.869	36.9
802.045	36.96
802.221	37.67
802.398	37.51
802.574	37.24
802.75	37.44
802.926	37.34
803.103	37
803.279	36.27
803.455	36.34
803.631	36.67
803.807	38.89
803.983	38
804.16	37.64
804.336	37.23
804.512	38.25
804.688	36.72
804.864	37.92
805.04	38.32
805.216	38.06
805.392	38.48
805.568	37.65
805.744	36.05
805.92	36.46
806.096	34.99
806.272	35.32
806.448	34.13
806.623	35.7
806.799	35.5
806.975	36.28
807.151	37.02
807.327	36.4
807.503	35.99
807.678	35.62
807.854	34.59
808.03	35.72
808.206	34.82
808.381	34.97
808.557	34.39
808.733	33.62
808.908	33.47
809.084	32.98
809.26	32.69
809.435	34.02
809.611	33.19
809.787	34.56
809.962	33.87
810.138	35.74
810.313	36.69
810.489	36.08
810.664	35.98
810.84	35.41
811.015	36.18
811.191	35.72
811.366	34.7
811.542	36.31
811.717	35.84
811.892	36.99
812.068	36.4
812.243	35.2
812.419	35.15
812.594	35.95
812.769	36.76
812.944	36.49
813.12	36.4
813.295	35.54
813.47	35.47
813.645	36.11
813.821	36.04
813.996	36.19
814.171	36.81
814.346	37.4
814.521	36.44
814.697	35.5
814.872	34.97
815.047	35.98
815.222	37.66
815.397	36.41
815.572	35.61
815.747	34.21
815.922	31.87
816.097	30.98
816.272	30.03
816.447	30.11
816.622	30.42
816.797	29.4
816.972	28.02
817.147	26.08
817.322	26.36
817.496	25.93
817.671	26.55
817.846	27.62
818.021	27.4
818.196	27.15
818.371	27.68
818.545	27.91
818.72	29.79
818.895	30.95
819.069	31.07
819.244	31.21
819.419	30.93
819.594	30.81
819.768	30.28
819.943	30.41
820.117	31.33
820.292	31
820.467	30.83
820.641	29.88
820.816	29.64
820.99	29.87
821.165	30.2
821.339	30.52
821.514	30.63
821.688	31
821.863	30.89
822.037	30.71
822.212	30.75
822.386	30.83
822.56	30.96
822.735	31.25
822.909	31.38
823.084	31.35
823.258	31.28
823.432	31.23
823.606	31.09
823.781	31.15
823.955	31.25
824.129	31.43
824.303	31.24
824.478	31.63
824.652	31.33
824.826	31.4
825	31.66
825.174	32.03
825.348	31.99
825.523	32.07
825.697	32.21
825.871	32.29
826.045	32.08
826.219	32.34
826.393	32.16
826.567	32.36
826.741	32.16
826.915	31.85
827.089	31.65
827.263	31.59
827.437	31.74
827.611	31.94
827.784	31.8
827.958	32.21
828.132	32.05
828.306	31.7
828.48	31.68
828.654	31.56
828.827	31.52
829.001	31.7
829.175	32.08
829.349	31.83
829.522	31.81
829.696	31.64
829.87	30.89
830.044	30.38
830.217	31.01
830.391	31.21
830.565	31.59
830.738	32.04
830.912	32.3
831.085	30.73
831.259	30.62
831.432	30.61
831.606	31.13
831.779	31.59
831.953	33.05
832.126	32.63
832.3	32.36
832.473	32.73
832.647	32.33
832.82	31.8
832.994	32.72
833.167	33.83
833.34	33.42
833.514	33.85
833.687	33.47
833.86	33.19
834.034	32.66
834.207	32.98
834.38	33.03
834.553	32.91
834.727	33.6
834.9	32.74
835.073	31.96
835.246	31.56
835.419	31.03
835.593	31.17
835.766	30.82
835.939	31.6
836.112	31.38
836.285	30.09
836.458	30.13
836.631	29.13
836.804	28.76
836.977	29.48
837.15	31.58
837.323	32.37
837.496	32.47
837.669	32.04
837.842	30.89
838.015	30.39
838.188	32.22
838.361	31.09
838.533	30.46
838.706	34.76
838.879	34.73
839.052	35.22
839.225	34.24
839.398	35.34
839.57	35.92
839.743	37.25
839.916	37.29
840.088	37.91
840.261	38.17
840.434	40.16
840.607	39.02
840.779	39.02
840.952	37.86
841.124	37.75
841.297	36.88
841.47	38.51
841.642	38.05
841.815	37.81
841.987	37.2
842.16	38.02
842.332	38.26
842.505	39.56
842.677	40.42
842.85	38.88
843.022	41.27
843.194	39.17
843.367	38.29
843.539	39.19
843.712	39.94
843.884	39.14
844.056	39.06
844.229	36.64
844.401	33.37
844.573	31.36
844.745	32.82
844.918	29.41
845.09	30.53
845.262	30.36
845.434	28.77
845.606	28.09
845.779	32.14
845.951	32.85
846.123	37.41
846.295	39.37
846.467	40.81
846.639	42.08
846.811	42.89
846.983	45.77
847.155	46.74
847.327	47.18
847.499	47.65
847.671	44.53
847.843	44.9
848.015	42
848.187	40.69
848.359	42.35
848.531	41.31
848.703	37.21
848.875	34
849.047	32.14
849.218	31.96
849.39	32.83
849.562	31.12
849.734	32.41
849.905	30.58
850.077	30.01
850.249	28.7
850.421	25.19
850.592	29.2
850.764	31.08
850.936	30.21
851.107	28.75
851.279	28.82
851.451	30.95
851.622	30.37
851.794	32.14
851.965	32.96
852.137	29.38
852.308	31.08
852.48	30.33
852.651	32.14
852.823	35.62
852.994	38.44
853.166	39.06
853.337	37.82
853.509	38.59
853.68	39.37
853.851	40.14
854.023	40.89
854.194	42.59
854.365	43
854.537	39.3
854.708	36.89
854.879	37.31
855.05	34.4
855.222	35.65
855.393	34.91
855.564	31.66
855.735	30.46
855.906	32.19
856.078	34.13
856.249	35.17
856.42	38.85
856.591	43.48
856.762	42.29
856.933	43.29
857.104	43.28
857.275	44.28
857.446	45.23
857.617	43.03
857.788	42.4
857.959	40.29
858.13	38.5
858.301	36.01
858.472	29.98
858.643	27.61
858.814	29.85
858.985	29.21
859.155	28.22
859.326	30.23
859.497	36.09
859.668	36.01
859.839	35.89
860.009	39.69
860.18	40.72
860.351	42.17
860.522	43.6
860.692	41.2
860.863	42.16
861.034	41.79
861.204	39.26
861.375	36.99
861.546	36.86
861.716	36.01
861.887	34.95
862.057	39.62
862.228	40.8
862.398	41.39
862.569	42.03
862.739	40.56
862.91	39.8
863.08	39.24
863.251	35.67
863.421	35.11
863.592	34.96
863.762	33.93
863.932	32.02
864.103	29.76
864.273	28.23
864.443	29.06
864.614	30.22
864.784	30.76
864.954	33.16
865.125	36.77
865.295	36.98
865.465	37.19
865.635	39.96
865.805	35.36
865.976	38.17
866.146	40.33
866.316	42.4
866.486	40.42
866.656	36.88
866.826	34.47
866.996	34.53
867.166	36.8
867.336	33.36
867.506	30.12
867.676	31.21
867.846	28.37
868.016	27.96
868.186	24.95
868.356	23.65
868.526	27.92
868.696	30.01
868.866	30.37
869.036	27.66
869.206	33.41
869.376	37.5
869.545	38.77
869.715	42.86
869.885	42.18
870.055	45.57
870.224	45.72
870.394	44.21
870.564	44.15
870.734	45.25
870.903	47.16
871.073	46.16
871.243	36.98
871.412	31.3
871.582	27.51
871.751	25.37
871.921	24.25
872.091	27.07
872.26	27.53
872.43	26.59
872.599	23.82
872.769	23.83
872.938	22.57
873.108	27.77
873.277	32.4
873.446	32.35
873.616	36.02
873.785	36.16
873.955	37.4
874.124	36.05
874.293	34.18
874.463	37.24
874.632	36.54
874.801	38.16
874.971	35.36
875.14	36.98
875.309	39.32
875.478	36.13
875.647	36.29
875.817	34.74
875.986	32.74
876.155	35.14
876.324	35.1
876.493	36.85
876.662	33.18
876.831	38.23
877	36.2
877.17	36.17
877.339	37.3
877.508	33.76
877.677	30.93
877.846	32.86
878.015	32.34
878.184	28.96
878.352	27.34
878.521	24.62
878.69	22.97
878.859	17.42
879.028	15.93
879.197	17.86
879.366	19.9
879.534	21.28
879.703	21.18
879.872	24.65
880.041	24.77
880.21	25.85
880.378	26.93
880.547	26.3
880.716	29.2
880.884	29.34
881.053	29.94
881.222	29.92
881.39	29.92
881.559	30.41
881.727	30.33
881.896	30.7
882.065	30.36
882.233	30.38
882.402	30.73
882.57	30.53
882.739	30.32
882.907	29.63
883.076	29.18
883.244	29.12
883.412	28.61
883.581	27.99
883.749	27.64
883.918	27.26
884.086	26.7
884.254	26.54
884.423	26.06
884.591	26.55
884.759	27.57
884.927	28.77
885.096	28.45
885.264	29.82
885.432	29.56
885.6	29.44
885.769	31.06
885.937	33.08
886.105	33.22
886.273	35.88
886.441	34.65
886.609	33.1
886.777	31.78
886.945	32.26
887.113	31
887.281	31.53
887.449	33.42
887.617	33.8
887.785	34.48
887.953	35.97
888.121	32.53
888.289	34.29
888.457	35.79
888.625	36.38
888.793	40.34
888.961	40.55
889.129	43.49
889.296	44.16
889.464	44.2
889.632	43.13
889.8	42.02
889.967	44.5
890.135	44.47
