Data from JASIL_3078_Reflection_02.txt Node
Date: Mon Nov 09 11:50:25 EST 2015
User: Geneva
Spectrometer: USB4E03002
Autoset integration time: false
Trigger mode: 4
Integration Time (sec): 1.000000E-1
Scans to average: 10
Electric dark correction enabled: false
Nonlinearity correction enabled: false
Boxcar width: 5
Stray light correction enabled: false
XAxis mode: Wavelengths
Stop averaging: false
Number of Pixels in Spectrum: 3648
>>>>>Begin Spectral Data<<<<<
177.575	-248.82
177.794	2268.42
178.014	-865.31
178.233	-209.25
178.452	-293.48
178.672	-202.67
178.891	-80.31
179.11	-97.92
179.33	-24.02
179.549	24.7
179.768	36.98
179.987	53.19
180.207	53.09
180.426	59.17
180.645	74.93
180.864	50.87
181.084	69.59
181.303	15.17
181.522	-61.63
181.741	-2690.91
181.96	199.34
182.179	560
182.398	191.27
182.618	134.42
182.837	167.65
183.056	228.04
183.275	750
183.494	-161.59
183.713	-5850
183.932	-2600
184.151	-218.3
184.37	-84.32
184.589	-35
184.808	-12.65
185.027	14.03
185.246	9.19
185.465	21.6
185.684	16.42
185.903	-182.98
186.122	-666.04
186.341	-139.53
186.56	-165.79
186.779	101.41
186.998	166.29
187.216	1208
187.435	307.25
187.654	-7371.43
187.873	-1060.78
188.092	-511
188.311	-99.17
188.53	-51.3
188.748	-20.74
188.967	21.37
189.186	24.13
189.405	18.66
189.623	42.46
189.842	43.7
190.061	74.32
190.28	64.06
190.498	12.12
190.717	-77.44
190.936	17.5
191.154	-10.24
191.373	-93.91
191.592	-46.85
191.81	-143.68
192.029	-8.45
192.248	19.95
192.466	18.8
192.685	18.64
192.904	31.4
193.122	55.65
193.341	75.3
193.559	77.36
193.778	88.74
193.996	106.56
194.215	183.76
194.433	240.25
194.652	171.04
194.87	197.13
195.089	247.01
195.307	519.59
195.526	662.96
195.744	568.57
195.963	141.96
196.181	119.35
196.399	88.39
196.618	63.53
196.836	57.85
197.055	59.04
197.273	47.59
197.491	64.25
197.71	70.77
197.928	63.37
198.146	61.17
198.365	60.97
198.583	72.28
198.801	32.51
199.019	34.57
199.238	36.11
199.456	133.94
199.674	381.25
199.892	-1790.91
200.111	-111.69
200.329	7200
200.547	77.27
200.765	74.71
200.983	73.76
201.202	151.43
201.42	123.81
201.638	101.4
201.856	89.66
202.074	54.41
202.292	51.19
202.51	45.09
202.728	27.18
202.946	39.95
203.165	33.79
203.383	25.04
203.601	-3.97
203.819	-14.54
204.037	-56.68
204.255	-122.19
204.473	-91.51
204.691	-42.79
204.909	-50.72
205.127	-0.59
205.345	15.35
205.562	-8.48
205.78	25.29
205.998	33.45
206.216	69.09
206.434	82.73
206.652	64.22
206.87	77.87
207.088	74.51
207.306	80.7
207.523	109.75
207.741	125.06
207.959	1051.52
208.177	-159.38
208.395	378.13
208.612	-22.22
208.83	-12.2
209.048	152.43
209.266	-400
209.483	181.82
209.701	75.2
209.919	84.97
210.136	173.85
210.354	-191.94
210.572	-29.41
210.79	131.3
211.007	251.56
211.225	103.85
211.442	84.06
211.66	171.32
211.878	150.18
212.095	614.52
212.313	-438.46
212.53	-966.67
212.748	511.11
212.966	1037.14
213.183	-1708.33
213.401	209.79
213.618	204.07
213.836	473.83
214.053	316.54
214.271	501.92
214.488	161.21
214.705	146.39
214.923	173.7
215.14	241.3
215.358	198.49
215.575	201.55
215.793	214.34
216.01	183.21
216.227	136.59
216.445	92.62
216.662	165.7
216.879	154.49
217.097	175.84
217.314	179.46
217.531	-60.23
217.749	-365.62
217.966	2000
218.183	-10000
218.4	309.26
218.618	-82.35
218.835	482.35
219.052	101.97
219.269	194.47
219.487	163.07
219.704	480
219.921	92.42
220.138	25.44
220.355	58.06
220.572	81.69
220.79	116.54
221.007	110.84
221.224	120.9
221.441	102.49
221.658	89.23
221.875	78.3
222.092	67.59
222.309	69.14
222.526	74.95
222.743	56.99
222.96	32.7
223.177	5.64
223.394	-2.38
223.611	-12.42
223.828	-5.44
224.045	6.47
224.262	15.82
224.479	12.14
224.696	-3.01
224.913	-14.31
225.13	-35.23
225.347	-16.62
225.564	-10.33
225.781	-7.87
225.997	0.2
226.214	5.66
226.431	-2.39
226.648	-8.63
226.865	-5.99
227.082	-1.59
227.298	-2.65
227.515	-1.5
227.732	-9.01
227.949	-9.17
228.165	-3.71
228.382	0.15
228.599	-0.42
228.816	1.14
229.032	-1.07
229.249	-9.49
229.466	-9.48
229.682	-2.74
229.899	-2.2
230.116	3.87
230.332	2.71
230.549	-1.36
230.765	-5.17
230.982	-9.63
231.199	-26.16
231.415	-21.17
231.632	-6.09
231.848	-16.34
232.065	-11.5
232.281	-12.22
232.498	-17.1
232.714	-27.56
232.931	-26.89
233.147	-32.05
233.364	-28.51
233.58	2.1
233.797	-10.3
234.013	-14.42
234.23	-9.27
234.446	-20.82
234.662	-5.34
234.879	-13.37
235.095	-4.57
235.312	-4.9
235.528	-2.28
235.744	-9.75
235.961	-21.97
236.177	-0.9
236.393	-3.69
236.61	-6.34
236.826	-2.65
237.042	-22.68
237.258	-3.82
237.475	-1.17
237.691	7.52
237.907	8.47
238.123	14.9
238.339	12.78
238.556	5.06
238.772	6.25
238.988	6.36
239.204	3.56
239.42	4.97
239.636	5.08
239.853	2.45
240.069	2.54
240.285	4.8
240.501	5.73
240.717	8.74
240.933	9.37
241.149	9.99
241.365	10.18
241.581	13.56
241.797	16.29
242.013	12.28
242.229	14.42
242.445	8.44
242.661	7.89
242.877	6.41
243.093	1.34
243.309	-0.97
243.525	-5.59
243.741	-2.36
243.957	-7.07
244.173	-12.47
244.388	-3.62
244.604	-4.95
244.82	-0.65
245.036	1.01
245.252	1.86
245.468	1.12
245.683	0.52
245.899	4.45
246.115	4.83
246.331	3.8
246.547	2.97
246.762	-0.93
246.978	-1.04
247.194	-4.11
247.409	-8.94
247.625	-8.9
247.841	-10.49
248.057	-9.12
248.272	-12.14
248.488	-19.09
248.703	-25.17
248.919	-16.35
249.135	-9.71
249.35	-10.21
249.566	0.44
249.782	0.72
249.997	0.16
250.213	1.97
250.428	1.28
250.644	0.63
250.859	1.23
251.075	4.37
251.29	1.48
251.506	-1.11
251.721	-2.3
251.937	-3.23
252.152	1.93
252.368	-3.8
252.583	-0.34
252.798	1.72
253.014	-4.82
253.229	-6.96
253.445	-4.64
253.66	-6.4
253.875	-6.96
254.091	-9.99
254.306	-8.36
254.521	-11.99
254.737	-10.65
254.952	-20.18
255.167	-16.01
255.383	-12.88
255.598	-8.46
255.813	-6.07
256.028	-5.85
256.244	-5.01
256.459	-2.21
256.674	-8.13
256.889	-7.1
257.104	-2.59
257.32	1.81
257.535	-1.94
257.75	-3.46
257.965	-3.41
258.18	-5.92
258.395	-6.55
258.61	-6.05
258.826	-6.77
259.041	-5.18
259.256	-5.82
259.471	-4.87
259.686	-6.51
259.901	-5.06
260.116	-3.09
260.331	-2.77
260.546	-2.29
260.761	2.4
260.976	-0.46
261.191	1.14
261.406	1.74
261.621	5.09
261.836	5.31
262.05	3.78
262.265	5.56
262.48	7.26
262.695	5.17
262.91	9.36
263.125	7.45
263.34	7.41
263.555	5.16
263.769	2.31
263.984	-0.48
264.199	-1.83
264.414	6.25
264.629	2.82
264.843	3.51
265.058	3.94
265.273	2.56
265.488	-2.71
265.702	-1.14
265.917	3.52
266.132	7.1
266.346	8.87
266.561	9.88
266.776	9.51
266.99	6.74
267.205	2.52
267.42	1.76
267.634	1.96
267.849	4.13
268.063	0.98
268.278	-0.81
268.492	-4.64
268.707	-3.44
268.922	-8.2
269.136	-17.27
269.351	-12
269.565	-4.58
269.78	-4.27
269.994	-3.89
270.209	-2.96
270.423	2.15
270.637	2.25
270.852	2.64
271.066	0.2
271.281	0.85
271.495	3.49
271.709	1.98
271.924	-4.78
272.138	-2.59
272.353	-1.33
272.567	-0.3
272.781	-1.67
272.996	-3.01
273.21	-0.52
273.424	-0.58
273.638	0.48
273.853	1.64
274.067	0.2
274.281	1.4
274.495	-0.16
274.71	-0.58
274.924	-3.5
275.138	-2.93
275.352	-7.41
275.566	-14.91
275.781	-15.74
275.995	-12.09
276.209	-13.64
276.423	-10.75
276.637	-6.94
276.851	-9.99
277.065	-12.16
277.279	-11.22
277.493	-8.96
277.707	-4.96
277.921	-1.17
278.135	-0.63
278.349	-5.88
278.563	-3.68
278.777	-1.55
278.991	-4.87
279.205	-2.07
279.419	-6.44
279.633	-5.97
279.847	-9.29
280.061	-7.27
280.275	-7.41
280.489	-4.63
280.703	-4.89
280.917	-3.68
281.131	-5.83
281.344	-5.54
281.558	-8.46
281.772	-5.9
281.986	-8.63
282.2	-8.63
282.414	-10.79
282.627	-10.03
282.841	-12.69
283.055	-15.53
283.269	-18.46
283.482	-14.67
283.696	-12.55
283.91	-7.56
284.123	-7.12
284.337	-4.51
284.551	-4.08
284.764	-2.59
284.978	-2.94
285.192	-3.18
285.405	0.39
285.619	1.69
285.833	0.46
286.046	1.39
286.26	-3.56
286.473	-4.26
286.687	-3.05
286.9	-0.78
287.114	-1.82
287.327	-2.69
287.541	-1.81
287.754	-1.98
287.968	-0.83
288.181	-2.31
288.395	-2.25
288.608	0.05
288.822	0.78
289.035	-0.49
289.248	-2.09
289.462	-2.19
289.675	-1.64
289.889	-2.27
290.102	-3.05
290.315	-1.27
290.529	-3.07
290.742	-3.96
290.955	-4.36
291.169	-0.71
291.382	-0.62
291.595	-0.93
291.808	-2.56
292.022	-1.82
292.235	-0.23
292.448	1.13
292.661	-3.33
292.875	-1.79
293.088	0.21
293.301	2.24
293.514	0.19
293.727	0.93
293.94	2.95
294.153	5.97
294.367	5.08
294.58	4.18
294.793	3.35
295.006	3.82
295.219	5.08
295.432	3.44
295.645	2.33
295.858	0.47
296.071	1.48
296.284	0.44
296.497	-0.05
296.71	2.5
296.923	3
297.136	3.9
297.349	5.15
297.562	4.58
297.775	3.38
297.988	5.4
298.201	7.36
298.414	4.98
298.626	4.04
298.839	4.87
299.052	2.88
299.265	2
299.478	2.39
299.691	1.13
299.903	-0.31
300.116	2.13
300.329	0.11
300.542	-1.13
300.755	-2.01
300.967	-1.79
301.18	-3.89
301.393	-3.08
301.605	-0.74
301.818	-1.85
302.031	-1.59
302.243	0.69
302.456	-1.17
302.669	0.16
302.881	2.32
303.094	2.13
303.307	4.5
303.519	5.03
303.732	2.09
303.944	1.64
304.157	2.73
304.37	2.58
304.582	0.02
304.795	2.01
305.007	0.76
305.22	1.06
305.432	5.6
305.645	4.55
305.857	3.84
306.069	5.11
306.282	5.2
306.494	3.5
306.707	2.41
306.919	6.31
307.132	5.38
307.344	6.81
307.556	5.69
307.769	1.36
307.981	-0.39
308.193	2.44
308.406	1.94
308.618	1.11
308.83	2.44
309.043	3.51
309.255	1.05
309.467	1.25
309.679	-0.66
309.892	-2.46
310.104	1.89
310.316	2.03
310.528	-0.74
310.74	-1.35
310.953	-1.85
311.165	-2.4
311.377	-3.02
311.589	-2
311.801	-2.08
312.013	-1.45
312.225	0.96
312.437	-4.71
312.649	-2.17
312.862	-2.07
313.074	-2.42
313.286	-1.95
313.498	-1.69
313.71	0.89
313.922	0.27
314.134	0.86
314.346	2.78
314.558	3.1
314.77	7.79
314.982	6.4
315.193	6.56
315.405	8.16
315.617	6.93
315.829	7.65
316.041	6.69
316.253	7.47
316.465	6.93
316.677	7.16
316.888	4.42
317.1	3.54
317.312	3.98
317.524	6.2
317.736	7.31
317.947	9.9
318.159	9.83
318.371	10.58
318.583	12.11
318.794	12.75
319.006	14.64
319.218	17.9
319.43	17.07
319.641	17.02
319.853	13.95
320.064	14.52
320.276	12.14
320.488	10.09
320.699	8.78
320.911	5.08
321.123	4.29
321.334	1.86
321.546	1.88
321.757	0.59
321.969	-0.14
322.18	1.39
322.392	3.35
322.603	5.41
322.815	6.1
323.026	6.92
323.238	9.25
323.449	9.02
323.661	9.05
323.872	7.07
324.083	6.54
324.295	2.68
324.506	2.48
324.718	1.13
324.929	2.61
325.14	1.08
325.352	-1.56
325.563	-2.66
325.774	-1.73
325.986	-2.49
326.197	-2.19
326.408	0.11
326.62	3.03
326.831	4.45
327.042	5.57
327.253	5.36
327.464	7.78
327.676	11.5
327.887	11.59
328.098	11.55
328.309	11.31
328.52	13.24
328.732	9.81
328.943	14.12
329.154	12.74
329.365	8.08
329.576	5.21
329.787	1.19
329.998	-0.83
330.209	-1.16
330.42	-2.07
330.631	-0.41
330.842	-1.66
331.053	0.43
331.264	-3.36
331.475	-3
331.686	-0.18
331.897	2.9
332.108	2.48
332.319	3.09
332.53	4.45
332.741	4.93
332.952	3.13
333.163	4.13
333.374	5.63
333.585	5.74
333.795	6.86
334.006	4.15
334.217	2.85
334.428	5.88
334.639	5.86
334.849	6.84
335.06	5.68
335.271	6.4
335.482	3.96
335.692	1.99
335.903	1.52
336.114	2.04
336.325	3.26
336.535	0.68
336.746	2.36
336.957	0.68
337.167	-1.04
337.378	1.33
337.589	3.06
337.799	5.11
338.01	3.88
338.22	4.26
338.431	2.78
338.642	2.13
338.852	4.05
339.063	4.24
339.273	4.93
339.484	7.61
339.694	7.75
339.905	6.78
340.115	8.71
340.326	9.79
340.536	8.93
340.746	7.92
340.957	8.95
341.167	8.7
341.378	6.62
341.588	8.24
341.799	5.42
342.009	5.03
342.219	3.97
342.43	2.14
342.64	3.75
342.85	4.25
343.061	4.42
343.271	6.16
343.481	7.31
343.691	8.1
343.902	7.44
344.112	6.46
344.322	7.5
344.532	7.88
344.743	6.97
344.953	4.56
345.163	7.47
345.373	8.59
345.583	7.58
345.793	6.56
346.004	6.28
346.214	7.58
346.424	6.21
346.634	7.53
346.844	8.24
347.054	11.31
347.264	12.47
347.474	9.92
347.684	8.44
347.894	7.37
348.104	7.58
348.314	6.13
348.524	2.9
348.734	6.09
348.944	3.43
349.154	3.35
349.364	0.72
349.574	0.68
349.784	-0.94
349.994	0.45
350.204	0.97
350.413	0.38
350.623	0.35
350.833	2.5
351.043	1
351.253	2.25
351.463	2.07
351.672	2.18
351.882	4.11
352.092	6.23
352.302	5.16
352.511	5.8
352.721	5.68
352.931	6.54
353.141	5.7
353.35	3.96
353.56	3.41
353.77	2.75
353.979	2.82
354.189	1.31
354.399	1.67
354.608	1.46
354.818	1.88
355.027	3.9
355.237	3.61
355.447	4.93
355.656	7.1
355.866	7.17
356.075	7.25
356.285	8.2
356.494	8.37
356.704	9.13
356.913	8.97
357.123	8.23
357.332	6.67
357.542	6.77
357.751	4.58
357.96	4.28
358.17	3.79
358.379	4.17
358.589	5.07
358.798	6.51
359.007	5.05
359.217	6.34
359.426	5.73
359.635	6.81
359.845	8.59
360.054	8.62
360.263	8.96
360.472	8.01
360.682	7.61
360.891	6.29
361.1	5.19
361.309	4.98
361.519	6
361.728	6.26
361.937	5.74
362.146	4.65
362.355	5.4
362.564	4.95
362.774	5.93
362.983	7.96
363.192	9.36
363.401	9.23
363.61	10.17
363.819	9.24
364.028	9.8
364.237	9.07
364.446	8.13
364.655	8.36
364.864	8.74
365.073	9.78
365.282	8.27
365.491	6.37
365.7	5.83
365.909	5.05
366.118	3.75
366.327	4.25
366.536	5.16
366.745	5.58
366.954	5.17
367.162	5.32
367.371	3.17
367.58	2.43
367.789	3.4
367.998	3.73
368.207	4.21
368.415	3.9
368.624	2.29
368.833	2.05
369.042	0.59
369.25	0.85
369.459	0.38
369.668	1.72
369.877	1.09
370.085	-0.98
370.294	-1.7
370.503	-0.99
370.711	0.23
370.92	1.3
371.129	2.45
371.337	2.89
371.546	3.1
371.754	4.17
371.963	4.04
372.171	6.68
372.38	7.82
372.589	8.87
372.797	6.57
373.006	6.71
373.214	7.34
373.423	6.65
373.631	7.34
373.84	5.89
374.048	4.72
374.256	5.1
374.465	2.97
374.673	4.2
374.882	4.71
375.09	6.1
375.298	5.2
375.507	3.57
375.715	4.31
375.923	5.05
376.132	5.25
376.34	5.77
376.548	5.85
376.757	6.16
376.965	5.91
377.173	4.9
377.381	5.4
377.59	6.12
377.798	6.57
378.006	4.64
378.214	4.35
378.423	5.14
378.631	5.02
378.839	4.82
379.047	4.96
379.255	4.76
379.463	6.19
379.671	6.73
379.879	5.86
380.088	5.55
380.296	5.25
380.504	6.09
380.712	6.47
380.92	4.96
381.128	4.09
381.336	5.36
381.544	5.18
381.752	3.74
381.96	3.9
382.168	5.2
382.376	5.82
382.584	6.36
382.791	5.3
382.999	3.07
383.207	4.46
383.415	4.08
383.623	2.4
383.831	3.08
384.039	3.61
384.247	3.41
384.454	1.48
384.662	1.59
384.87	1.45
385.078	1.93
385.285	2.51
385.493	2.66
385.701	2.66
385.909	2.93
386.116	1.58
386.324	2.79
386.532	1.58
386.739	3.2
386.947	2.82
387.155	3.29
387.362	3.59
387.57	3.73
387.778	2.82
387.985	3.56
388.193	4.39
388.4	4.67
388.608	3.59
388.816	2.82
389.023	3.86
389.231	3.3
389.438	4.36
389.646	4.3
389.853	5
390.061	6.06
390.268	6.84
390.475	5.86
390.683	6.15
390.89	5.77
391.098	6.39
391.305	5.12
391.512	6.28
391.72	5.36
391.927	4.9
392.135	4.97
392.342	5.01
392.549	3.8
392.756	3.77
392.964	3.79
393.171	3.66
393.378	3.91
393.586	5.44
393.793	4.55
394	4.56
394.207	4.51
394.414	6.08
394.622	4.74
394.829	5
395.036	5.59
395.243	5.24
395.45	4.46
395.657	5.27
395.864	4.36
396.072	4.44
396.279	3.85
396.486	4.55
396.693	2.52
396.9	4.57
397.107	5.86
397.314	6.21
397.521	5.66
397.728	5.82
397.935	5.31
398.142	4.52
398.349	5.76
398.556	7.13
398.763	6.29
398.97	6.56
399.177	4.98
399.383	4.15
399.59	3.13
399.797	3.93
400.004	5.09
400.211	4.95
400.418	5.21
400.625	4.86
400.831	4.56
401.038	5.56
401.245	6.57
401.452	6.7
401.658	8.11
401.865	9.51
402.072	9.63
402.279	9.53
402.485	10.1
402.692	10.15
402.899	10.05
403.105	9.13
403.312	9.84
403.519	9.55
403.725	9.98
403.932	9.2
404.138	8.87
404.345	8.02
404.552	8.03
404.758	6.94
404.965	7.25
405.171	7.18
405.378	8.39
405.584	7.62
405.791	7.09
405.997	7.65
406.204	8.25
406.41	7.38
406.617	8.08
406.823	7.97
407.029	8.34
407.236	7.22
407.442	8.15
407.649	6.51
407.855	5.64
408.061	5.79
408.268	5.03
408.474	4.68
408.68	6.23
408.887	6.66
409.093	5.9
409.299	5.9
409.505	7.35
409.712	6.75
409.918	6.88
410.124	8.26
410.33	8.58
410.537	9.01
410.743	8.65
410.949	8.74
411.155	7.28
411.361	7.6
411.567	7.76
411.773	7.13
411.98	7.43
412.186	8.46
412.392	6.71
412.598	6.98
412.804	5.69
413.01	5.3
413.216	3.67
413.422	4.62
413.628	5.71
413.834	6.1
414.04	5.68
414.246	5.57
414.452	5.69
414.658	5.83
414.864	5.42
415.07	6.5
415.275	7.19
415.481	8.45
415.687	9.21
415.893	8.8
416.099	9.4
416.305	9.71
416.511	9.23
416.716	9.91
416.922	10.39
417.128	11.33
417.334	11.44
417.539	11.59
417.745	11.51
417.951	11.14
418.157	11.32
418.362	10.65
418.568	10.65
418.774	10.27
418.979	9.9
419.185	9.76
419.391	8.89
419.596	9.15
419.802	8.97
420.008	8.99
420.213	4.5
420.419	4.41
420.624	4.79
420.83	4.65
421.035	5.26
421.241	5.14
421.446	5.11
421.652	5.27
421.857	4.97
422.063	4.56
422.268	4.34
422.474	8.97
422.679	9.34
422.885	9.21
423.09	9.26
423.295	9.11
423.501	8.85
423.706	9.31
423.911	9
424.117	9.07
424.322	9.06
424.527	9.14
424.733	9.22
424.938	8.5
425.143	8.64
425.349	8.97
425.554	8.96
425.759	9.57
425.964	9.33
426.169	10.19
426.375	9.97
426.58	10.25
426.785	10.32
426.99	10.08
427.195	10.04
427.4	9.47
427.605	9.41
427.811	9.71
428.016	9.73
428.221	9.73
428.426	9.54
428.631	9.56
428.836	10.16
429.041	10.15
429.246	10.81
429.451	11.27
429.656	11.37
429.861	12.28
430.066	12.03
430.271	11.17
430.476	11.19
430.681	10.65
430.886	10.54
431.09	10.63
431.295	10.85
431.5	10.23
431.705	10.68
431.91	10.93
432.115	10.15
432.32	10.09
432.524	10.18
432.729	10.54
432.934	10.93
433.139	11.09
433.343	10.35
433.548	9.79
433.753	10.22
433.958	10.2
434.162	9.89
434.367	9.38
434.572	9.63
434.776	9.79
434.981	9.04
435.186	9.01
435.39	9.21
435.595	9.93
435.799	10.23
436.004	9.96
436.209	9.42
436.413	9.89
436.618	10.19
436.822	9.76
437.027	10.53
437.231	10.96
437.436	10.91
437.64	10.42
437.845	10.4
438.049	10.65
438.253	10.52
438.458	10.58
438.662	10.6
438.867	10.33
439.071	10.14
439.275	9.66
439.48	9.31
439.684	9.52
439.888	9.97
440.093	10.01
440.297	9.88
440.501	10.2
440.706	9.78
440.91	9.82
441.114	10.15
441.318	10.93
441.523	10.89
441.727	11.04
441.931	10.89
442.135	10.8
442.339	10.85
442.543	10.31
442.748	9.62
442.952	9.74
443.156	9.69
443.36	9.71
443.564	9.02
443.768	9.15
443.972	9.04
444.176	9.58
444.38	9.78
444.584	9.14
444.788	9.75
444.992	10.21
445.196	10.54
445.4	10.51
445.604	10.83
445.808	11.39
446.012	11.34
446.216	11.83
446.42	11.43
446.624	11.28
446.828	11.79
447.032	11.55
447.235	11.77
447.439	12.08
447.643	12.35
447.847	11.88
448.051	11.38
448.254	11.44
448.458	11.07
448.662	11.21
448.866	11.15
449.069	10.85
449.273	11.36
449.477	11.36
449.681	11.13
449.884	11.4
450.088	11.6
450.292	12.37
450.495	12.88
450.699	12.84
450.902	11.51
451.106	11.36
451.31	12.07
451.513	12.15
451.717	11.66
451.92	11.17
452.124	10.54
452.327	10.21
452.531	10.01
452.734	9.23
452.938	9.34
453.141	10.28
453.345	11
453.548	10.75
453.752	10.08
453.955	10.24
454.158	11.3
454.362	10.98
454.565	10.9
454.769	10.25
454.972	10.43
455.175	10.22
455.379	10.39
455.582	9.87
455.785	10.09
455.988	9.62
456.192	9.69
456.395	8.91
456.598	8.99
456.801	9.52
457.005	9.95
457.208	10.54
457.411	10.88
457.614	10.37
457.817	10.18
458.021	9.97
458.224	10.5
458.427	10.6
458.63	10.83
458.833	11.13
459.036	10.91
459.239	11.48
459.442	11.12
459.645	10.76
459.848	11.22
460.051	11.49
460.254	11.81
460.457	11.06
460.66	10.75
460.863	10.51
461.066	10.34
461.269	10.65
461.472	10.47
461.675	10.59
461.878	11.34
462.081	11.67
462.284	11.88
462.486	11.11
462.689	11.28
462.892	12.62
463.095	13.24
463.298	13.24
463.5	13.37
463.703	12.54
463.906	12.53
464.109	12.3
464.311	12.07
464.514	11.59
464.717	12.14
464.92	13.06
465.122	11.92
465.325	11.72
465.528	12.46
465.73	12.11
465.933	12.56
466.135	12.65
466.338	12.5
466.541	13.21
466.743	13.36
466.946	12.95
467.148	12.74
467.351	12.96
467.553	12.91
467.756	12.41
467.958	12.81
468.161	12.58
468.363	12.77
468.566	12.94
468.768	11.81
468.971	12.07
469.173	12.5
469.375	12.57
469.578	12.37
469.78	12.43
469.983	12.15
470.185	12.57
470.387	12.72
470.59	12.64
470.792	12.19
470.994	12.52
471.196	12.35
471.399	11.41
471.601	11.32
471.803	11.84
472.005	11.06
472.208	11.51
472.41	11.02
472.612	10.75
472.814	10.61
473.016	10.64
473.218	10.48
473.421	10.69
473.623	11.87
473.825	11.58
474.027	11.33
474.229	12.02
474.431	11.46
474.633	11.34
474.835	11.39
475.037	10.91
475.239	11.31
475.441	11.69
475.643	11.74
475.845	11.85
476.047	12.26
476.249	12.19
476.451	12.56
476.653	12.72
476.855	12.44
477.057	13.03
477.258	13.25
477.46	12.99
477.662	12.93
477.864	12.96
478.066	12.52
478.268	12.25
478.469	12.49
478.671	11.91
478.873	11.91
479.075	11.93
479.276	11.67
479.478	11.98
479.68	11.99
479.882	11.59
480.083	11.48
480.285	11.62
480.487	11.65
480.688	11.48
480.89	11.29
481.091	11.23
481.293	11.44
481.495	11.26
481.696	11.26
481.898	11.29
482.099	11.28
482.301	11.12
482.502	11.12
482.704	11.19
482.905	11.05
483.107	11.17
483.308	11.2
483.51	11.2
483.711	11.1
483.913	11.07
484.114	11.23
484.315	11.38
484.517	11.61
484.718	11.56
484.92	11.7
485.121	11.69
485.322	11.69
485.524	11.67
485.725	11.67
485.926	11.9
486.127	11.95
486.329	11.77
486.53	11.69
486.731	11.45
486.932	11.7
487.134	11.61
487.335	11.74
487.536	11.77
487.737	12
487.938	11.99
488.139	11.9
488.341	11.8
488.542	11.9
488.743	11.82
488.944	11.95
489.145	11.83
489.346	11.73
489.547	11.79
489.748	11.64
489.949	11.54
490.15	11.59
490.351	11.47
490.552	11.31
490.753	11.46
490.954	11.6
491.155	11.6
491.356	11.33
491.557	11.41
491.758	11.46
491.959	11.72
492.159	11.72
492.36	11.71
492.561	11.85
492.762	12.16
492.963	12.1
493.164	12.17
493.364	12.43
493.565	12.8
493.766	12.88
493.967	12.72
494.167	12.81
494.368	12.7
494.569	12.45
494.769	13.03
494.97	13.12
495.171	12.95
495.371	12.87
495.572	12.84
495.773	12.84
495.973	13.13
496.174	13.4
496.375	13.27
496.575	13.61
496.776	14.29
496.976	14.19
497.177	14.22
497.377	14.15
497.578	14.54
497.778	14.87
497.979	14.64
498.179	14.09
498.38	13.65
498.58	13.71
498.78	13.45
498.981	13.03
499.181	12.91
499.382	13.03
499.582	13.36
499.782	12.8
499.983	12.44
500.183	13
500.383	13.49
500.584	13.95
500.784	14.1
500.984	14.16
501.184	14.1
501.385	14.12
501.585	14.1
501.785	13.81
501.985	14.28
502.185	14.11
502.386	14.15
502.586	13.78
502.786	13.64
502.986	14.01
503.186	13.67
503.386	14.14
503.586	13.81
503.786	13.58
503.987	13.79
504.187	14.03
504.387	14.55
504.587	14.02
504.787	14.49
504.987	14.13
505.187	14.27
505.387	14.46
505.587	13.7
505.786	14.11
505.986	14.19
506.186	14.14
506.386	14.47
506.586	14.54
506.786	14.46
506.986	13.96
507.186	14.16
507.386	13.75
507.585	14.18
507.785	14.84
507.985	14.67
508.185	14.88
508.384	15
508.584	14.49
508.784	14.09
508.984	14.67
509.183	14.78
509.383	15.09
509.583	15.44
509.782	15.32
509.982	15.33
510.182	15.57
510.381	15.52
510.581	15.81
510.781	15.71
510.98	16.13
511.18	15.99
511.379	16.03
511.579	15.75
511.778	15.49
511.978	15.28
512.177	15.11
512.377	15.02
512.576	15.21
512.776	15
512.975	15.35
513.175	15.88
513.374	16.09
513.573	16.59
513.773	17.43
513.972	17.24
514.172	17.3
514.371	17.42
514.57	17.63
514.77	17.52
514.969	17.5
515.168	17.15
515.367	16.57
515.567	16.19
515.766	15.73
515.965	15.38
516.164	15.54
516.364	15.13
516.563	15.21
516.762	14.81
516.961	14.75
517.16	14.35
517.359	14.75
517.559	14.67
517.758	14.83
517.957	15.38
518.156	15.22
518.355	15.28
518.554	15.82
518.753	15.57
518.952	15.87
519.151	16.2
519.35	16.5
519.549	16.31
519.748	16.14
519.947	16.03
520.146	15.74
520.345	16.01
520.544	16.29
520.743	16.58
520.942	16.9
521.141	17.12
521.339	17.22
521.538	17.55
521.737	17.83
521.936	18.16
522.135	18.53
522.333	18.61
522.532	18.76
522.731	18.45
522.93	18.14
523.129	17.79
523.327	17.68
523.526	17.6
523.725	17.61
523.923	17.81
524.122	17.62
524.321	17.32
524.519	16.91
524.718	16.58
524.917	16.56
525.115	16.45
525.314	16.72
525.512	16.67
525.711	17.1
525.909	16.84
526.108	16.45
526.306	16.55
526.505	16.46
526.703	16.71
526.902	16.8
527.1	16.8
527.299	16.84
527.497	16.91
527.696	16.93
527.894	16.73
528.092	16.82
528.291	16.91
528.489	16.89
528.688	16.96
528.886	17.17
529.084	17.4
529.283	17.42
529.481	17.6
529.679	17.75
529.877	18.1
530.076	18
530.274	17.98
530.472	18.24
530.67	18.5
530.869	18.51
531.067	18.39
531.265	18.03
531.463	18.28
531.661	18.3
531.859	18.17
532.057	18.13
532.255	18.09
532.454	18.27
532.652	18.22
532.85	17.94
533.048	18.1
533.246	18.22
533.444	18.6
533.642	18.67
533.84	18.63
534.038	18.5
534.236	18.07
534.434	18.58
534.632	18.85
534.83	18.85
535.027	18.97
535.225	19.13
535.423	19.24
535.621	19.27
535.819	19.22
536.017	19.15
536.215	19.58
536.412	19.83
536.61	19.66
536.808	19.65
537.006	19.98
537.203	20.09
537.401	20.07
537.599	19.93
537.797	19.98
537.994	20.08
538.192	20.19
538.39	19.73
538.587	20.1
538.785	19.96
538.983	19.83
539.18	19.91
539.378	20
539.575	20.31
539.773	20.11
539.97	20.12
540.168	20.09
540.366	20.17
540.563	20.32
540.761	20.27
540.958	20.38
541.155	20.51
541.353	20.37
541.55	20.43
541.748	20.29
541.945	20.61
542.143	20.7
542.34	20.91
542.537	21.23
542.735	21.66
542.932	21.64
543.129	22.05
543.327	22.3
543.524	22.78
543.721	22.77
543.919	22.83
544.116	23.11
544.313	23.51
544.51	23.32
544.708	23.45
544.905	23.58
545.102	23.96
545.299	24.01
545.496	24.07
545.693	23.84
545.891	24.43
546.088	24.92
546.285	25.08
546.482	25.52
546.679	26.12
546.876	26.29
547.073	26.26
547.27	26.56
547.467	26.04
547.664	26.44
547.861	26.57
548.058	26.97
548.255	26.95
548.452	26.75
548.649	26.23
548.846	26.2
549.043	25.82
549.24	26.17
549.437	25.98
549.633	26.78
549.83	26.61
550.027	26.88
550.224	26.92
550.421	27.27
550.618	27.25
550.814	26.79
551.011	26.91
551.208	27.48
551.405	27.28
551.601	27.6
551.798	27.23
551.995	27.34
552.191	27.69
552.388	27.54
552.585	27.39
552.781	27.53
552.978	28.3
553.175	28.49
553.371	28.36
553.568	28.69
553.764	28.8
553.961	29.2
554.157	28.83
554.354	28.4
554.55	28.63
554.747	28.31
554.943	28.72
555.14	29.14
555.336	29.11
555.533	29.92
555.729	30.21
555.926	29.68
556.122	30.13
556.318	30.31
556.515	31.19
556.711	31.28
556.907	31.4
557.104	31.41
557.3	30.71
557.496	31.57
557.693	30.93
557.889	31.15
558.085	32.13
558.281	31.3
558.478	32.33
558.674	32.18
558.87	32.44
559.066	32.83
559.262	33.47
559.459	34.08
559.655	33.52
559.851	33.88
560.047	33.61
560.243	33.38
560.439	34.08
560.635	33.44
560.831	33.43
561.027	33.21
561.223	32.95
561.419	32.69
561.615	32.83
561.811	32.86
562.007	33.38
562.203	33.8
562.399	33.71
562.595	33.82
562.791	33.82
562.987	33.71
563.183	33.71
563.379	34.35
563.575	34.03
563.771	33.86
563.966	33.9
564.162	33.13
564.358	33.32
564.554	33.62
564.75	33.59
564.945	33.59
565.141	33.89
565.337	33.57
565.533	33.34
565.728	33.4
565.924	33.35
566.12	33.52
566.315	33.93
566.511	33.73
566.707	33.87
566.902	33.7
567.098	34.07
567.293	33.37
567.489	33.81
567.684	33.84
567.88	33.83
568.076	33.91
568.271	34.32
568.467	34.4
568.662	34.17
568.858	33.87
569.053	33.84
569.248	33.49
569.444	34.45
569.639	34.34
569.835	35.36
570.03	35.57
570.225	35.86
570.421	35.31
570.616	34.61
570.812	34.86
571.007	35.24
571.202	35.49
571.397	35.99
571.593	35.79
571.788	36.28
571.983	35.64
572.178	35.88
572.374	35.67
572.569	35.5
572.764	36.26
572.959	36.24
573.154	36.27
573.35	36.5
573.545	35.76
573.74	35.74
573.935	35.52
574.13	35.91
574.325	35.81
574.52	35.46
574.715	35.65
574.91	36.23
575.105	36.45
575.3	36.2
575.495	35.6
575.69	36.38
575.885	36.54
576.08	36.55
576.275	36.38
576.47	36.01
576.665	36.87
576.86	37.21
577.055	36.72
577.25	36.76
577.444	37.39
577.639	38.28
577.834	38.54
578.029	38.07
578.224	38.28
578.418	38.36
578.613	38.61
578.808	38.56
579.003	38.7
579.197	38.74
579.392	38.55
579.587	37.91
579.781	38.45
579.976	39.38
580.171	40.15
580.365	40.28
580.56	40.02
580.755	40.69
580.949	40.59
581.144	40.86
581.338	41.15
581.533	41
581.727	41.67
581.922	40.88
582.116	40.2
582.311	40.48
582.505	41.39
582.7	41.9
582.894	42.09
583.089	43.17
583.283	43.84
583.478	43.96
583.672	45.03
583.866	45.13
584.061	46
584.255	46.58
584.449	46.46
584.644	46.18
584.838	46.12
585.032	46.43
585.226	45.1
585.421	45.4
585.615	45.66
585.809	45.44
586.003	45.47
586.198	45.64
586.392	45.07
586.586	44.98
586.78	44.91
586.974	44.88
587.168	44.19
587.363	44.6
587.557	43.38
587.751	42.61
587.945	42.58
588.139	42.35
588.333	41.39
588.527	41.28
588.721	41.22
588.915	41.28
589.109	41.38
589.303	41.83
589.497	42.03
589.691	42.27
589.885	42.92
590.079	41.96
590.273	41.84
590.466	42.27
590.66	42.28
590.854	42.24
591.048	42.26
591.242	42.31
591.436	41.67
591.629	41.44
591.823	41.05
592.017	40.57
592.211	40.71
592.404	41.21
592.598	40.93
592.792	40.46
592.986	40.34
593.179	39.86
593.373	39.66
593.567	39.92
593.76	40.15
593.954	40.17
594.147	40.72
594.341	41.59
594.535	40.91
594.728	41.39
594.922	42.02
595.115	41.8
595.309	42.65
595.502	42.99
595.696	43.15
595.889	43.1
596.083	43.32
596.276	43.28
596.47	42.9
596.663	43.1
596.856	42.42
597.05	41.91
597.243	42.7
597.437	41.68
597.63	41.52
597.823	42.1
598.017	42.7
598.21	43.37
598.403	43.73
598.596	44.08
598.79	44.62
598.983	45.31
599.176	45.35
599.369	45.16
599.563	45.54
599.756	45.33
599.949	45.46
600.142	44.89
600.335	44.72
600.528	44.36
600.722	44.83
600.915	45.39
601.108	44.94
601.301	45.88
601.494	45.86
601.687	45.82
601.88	45.59
602.073	45.24
602.266	44.98
602.459	44.83
602.652	44.8
602.845	44.35
603.038	43.85
603.231	44.11
603.424	43.82
603.617	43.6
603.809	43.92
604.002	44.34
604.195	43.99
604.388	44.47
604.581	43.92
604.774	43.82
604.966	44.16
605.159	44.24
605.352	44.63
605.545	44.36
605.737	44.69
605.93	44.72
606.123	45.47
606.316	46.01
606.508	46.12
606.701	46.82
606.894	46.17
607.086	45.71
607.279	45.22
607.471	44.96
607.664	45.41
607.857	45.8
608.049	46.2
608.242	45.96
608.434	46.44
608.627	46.2
608.819	46.96
609.012	48.13
609.204	48.6
609.397	49.14
609.589	49.66
609.782	49.75
609.974	49.66
610.166	49.14
610.359	49.48
610.551	49.3
610.743	50.01
610.936	49.93
611.128	49.81
611.32	50.21
611.513	51.35
611.705	51.96
611.897	52.45
612.09	52.1
612.282	52.75
612.474	52.09
612.666	52.86
612.858	52.94
613.051	52.32
613.243	53.3
613.435	54.8
613.627	54.5
613.819	54.24
614.011	53.38
614.203	54.01
614.395	54.07
614.588	54.42
614.78	53.98
614.972	54.04
615.164	55.73
615.356	55.5
615.548	53.8
615.74	54.22
615.932	53.85
616.124	55.39
616.315	55.16
616.507	55.79
616.699	56.17
616.891	56.11
617.083	56.7
617.275	55.46
617.467	55.73
617.659	56.41
617.85	55.37
618.042	55.89
618.234	54.57
618.426	54.38
618.618	53.71
618.809	53.43
619.001	53.32
619.193	54.5
619.384	54.69
619.576	53.22
619.768	53.03
619.959	53.2
620.151	53.65
620.343	53.94
620.534	55.06
620.726	55.61
620.917	56.26
621.109	56.62
621.301	54.19
621.492	54.38
621.684	56.12
621.875	57.1
622.067	58.37
622.258	57.45
622.45	57.94
622.641	56.9
622.832	56.84
623.024	56.57
623.215	56.39
623.407	56.83
623.598	57.02
623.789	56.61
623.981	55.65
624.172	54.26
624.363	53.54
624.555	53.46
624.746	53.72
624.937	53.21
625.129	53.41
625.32	53.71
625.511	54.01
625.702	53.46
625.893	53.05
626.085	53.43
626.276	53.89
626.467	55.74
626.658	55.52
626.849	55.5
627.04	55.53
627.231	55.38
627.422	55.07
627.614	54.92
627.805	54.99
627.996	54.75
628.187	54.28
628.378	54.12
628.569	53.7
628.76	54.01
628.951	54.63
629.142	55.17
629.332	55.01
629.523	55.17
629.714	55.74
629.905	56.57
630.096	57.7
630.287	57.91
630.478	57.49
630.669	55.75
630.859	55.58
631.05	55.82
631.241	55.5
631.432	55.67
631.623	55.01
631.813	54.73
632.004	55.04
632.195	54.27
632.385	53.97
632.576	54.41
632.767	55.32
632.957	56.02
633.148	56.35
633.339	56.41
633.529	55.95
633.72	56.63
633.91	56.35
634.101	55.79
634.292	56.53
634.482	57.01
634.673	57.06
634.863	56.15
635.054	56.24
635.244	56.33
635.435	56.65
635.625	57.2
635.815	58.68
636.006	59.17
636.196	58.88
636.387	57.92
636.577	58.02
636.767	58.26
636.958	59.74
637.148	59.56
637.338	60.14
637.529	60.3
637.719	60.5
637.909	59.29
638.099	58.69
638.29	59
638.48	59.53
638.67	60.15
638.86	60.88
639.05	61.19
639.241	62.04
639.431	60.6
639.621	60.84
639.811	62.39
640.001	63
640.191	62.72
640.381	62.99
640.571	64.21
640.761	63.34
640.951	63.79
641.141	64.31
641.331	63.82
641.521	65.4
641.711	65.79
641.901	64.14
642.091	63.99
642.281	66.1
642.471	66.35
642.661	65.75
642.851	65.14
643.041	64.68
643.231	63.55
643.42	63.26
643.61	62.62
643.8	61.02
643.99	61.95
644.18	61.99
644.369	60.32
644.559	59.95
644.749	59.85
644.939	61.47
645.128	60.9
645.318	61.55
645.508	60.98
645.697	61.19
645.887	61.67
646.076	60.27
646.266	59.4
646.456	59.08
646.645	60.08
646.835	59.05
647.024	58.18
647.214	58.47
647.403	59.32
647.593	58.89
647.782	57.54
647.972	57.82
648.161	59.37
648.351	59.58
648.54	60.19
648.73	58.94
648.919	60.25
649.108	60.64
649.298	60.13
649.487	58.94
649.677	60.02
649.866	60.53
650.055	61.23
650.244	60.63
650.434	61.41
650.623	61.36
650.812	61.46
651.002	60.7
651.191	61.05
651.38	62.75
651.569	62.57
651.758	62.14
651.947	63.96
652.137	64.28
652.326	64.97
652.515	64.48
652.704	64.07
652.893	64.81
653.082	65.41
653.271	64.94
653.46	62.84
653.649	63.96
653.838	64.63
654.027	62.88
654.216	62.77
654.405	62.22
654.594	61.92
654.783	61.51
654.972	60.92
655.161	61.14
655.35	60.9
655.539	62.34
655.728	60.99
655.916	60.84
656.105	61.33
656.294	60.31
656.483	60.28
656.672	60.8
656.86	61.62
657.049	62.31
657.238	60.71
657.427	61.55
657.615	60.14
657.804	60.74
657.993	59.93
658.181	59.46
658.37	59.67
658.559	59.81
658.747	60.08
658.936	61
659.125	60.86
659.313	62.2
659.502	62.57
659.69	63.93
659.879	64.66
660.067	65.8
660.256	66.75
660.444	67.36
660.633	67.39
660.821	67.28
661.01	67.34
661.198	68.47
661.387	68.38
661.575	69.41
661.763	70.49
661.952	70.11
662.14	70.03
662.328	69.74
662.517	70.15
662.705	71.76
662.893	71.14
663.082	69.78
663.27	68.05
663.458	69.12
663.646	68.12
663.834	67.63
664.023	67.2
664.211	67.56
664.399	68.82
664.587	69.31
664.775	67.77
664.963	69.93
665.152	70.78
665.34	71.18
665.528	71.99
665.716	72.49
665.904	72.85
666.092	73.72
666.28	73.87
666.468	74
666.656	72.15
666.844	72.7
667.032	71.41
667.22	71.66
667.408	73.16
667.596	71.8
667.784	70.04
667.971	69.19
668.159	68.89
668.347	68.85
668.535	67.02
668.723	67.28
668.911	65.77
669.098	66.33
669.286	66.24
669.474	65.91
669.662	66.99
669.849	67.97
670.037	67.76
670.225	68.08
670.413	68.47
670.6	68.41
670.788	69.81
670.976	71.02
671.163	71.62
671.351	72.5
671.538	70.6
671.726	69.93
671.913	70.51
672.101	72.46
672.289	72
672.476	72
672.664	73.36
672.851	73.56
673.039	74.05
673.226	74.11
673.413	73.37
673.601	75.22
673.788	75.38
673.976	74.35
674.163	73.17
674.35	74.41
674.538	73.77
674.725	74.26
674.912	74.25
675.1	73.46
675.287	73.72
675.474	72.24
675.662	71.6
675.849	70.12
676.036	69.91
676.223	71.32
676.411	70.22
676.598	69.29
676.785	68.2
676.972	67.42
677.159	67.21
677.346	64.93
677.533	67.09
677.721	67.72
677.908	66.93
678.095	66.33
678.282	66.09
678.469	65.65
678.656	66.96
678.843	68.25
679.03	67.52
679.217	67.17
679.404	67.73
679.591	67.2
679.778	66.78
679.964	67
680.151	68.97
680.338	67.22
680.525	67.53
680.712	67.21
680.899	66.25
681.086	65.86
681.272	66.4
681.459	66.96
681.646	66.32
681.833	66.37
682.02	67.15
682.206	66.35
682.393	66.97
682.58	66.68
682.766	66.39
682.953	66.84
683.14	67.25
683.326	68.97
683.513	68.48
683.7	69.23
683.886	68.49
684.073	67.59
684.259	67.29
684.446	68.41
684.632	68.83
684.819	69.37
685.005	69.09
685.192	68.93
685.378	66.61
685.565	66.79
685.751	67.1
685.938	67.93
686.124	69.33
686.31	68.17
686.497	67.09
686.683	67.18
686.87	67.09
687.056	66.16
687.242	65.55
687.429	66.75
687.615	67.87
687.801	66.86
687.987	66.44
688.174	66.38
688.36	66.95
688.546	67.18
688.732	66.97
688.918	67.79
689.105	66.9
689.291	66.96
689.477	66.99
689.663	63.99
689.849	63.34
690.035	63.46
690.221	63.34
690.407	65.12
690.593	63.39
690.779	63.46
690.965	62.48
691.151	64.77
691.337	67.05
691.523	65.73
691.709	66.31
691.895	67.71
692.081	68.93
692.267	69.73
692.453	67.65
692.639	69.41
692.825	69.03
693.011	69.12
693.196	67.51
693.382	67.85
693.568	68.58
693.754	70.36
693.94	70.57
694.125	69.82
694.311	69.01
694.497	69.53
694.682	68.22
694.868	69.01
695.054	68.43
695.239	71.31
695.425	69.22
695.611	69.41
695.796	69.41
695.982	69.19
696.168	70
696.353	68.97
696.539	68.15
696.724	68.62
696.91	66.91
697.095	66.3
697.281	63.73
697.466	63.7
697.652	64.43
697.837	63.44
698.023	63.15
698.208	61.74
698.393	63.7
698.579	63.78
698.764	64.14
698.949	64.95
699.135	66.2
699.32	66.88
699.505	68.09
699.691	67.12
699.876	68.24
700.061	69.16
700.246	70.46
700.432	69.57
700.617	71.46
700.802	72.33
700.987	75.59
701.172	77.45
701.358	79.38
701.543	79.9
701.728	81.02
701.913	82.05
702.098	82.91
702.283	84.03
702.468	83.61
702.653	82.51
702.838	82.63
703.023	81.94
703.208	80.14
703.393	79.7
703.578	80.39
703.763	79.73
703.948	79.71
704.133	78.1
704.318	77.52
704.503	78.19
704.688	79.49
704.873	78.64
705.057	77.13
705.242	78.05
705.427	77.66
705.612	77.82
705.797	79.13
705.981	79.87
706.166	81.44
706.351	82.08
706.536	81.74
706.72	81.2
706.905	80.37
707.09	83.1
707.274	79.93
707.459	81.24
707.644	80.45
707.828	79.95
708.013	79.22
708.197	78.13
708.382	77.47
708.567	76.48
708.751	76.94
708.936	79.95
709.12	78.99
709.305	82.03
709.489	82.07
709.673	82.57
709.858	82.76
710.042	80.36
710.227	82.39
710.411	82.16
710.596	83.9
710.78	83.18
710.964	80.84
711.149	80.01
711.333	80.53
711.517	82
711.702	83.12
711.886	82.39
712.07	85.65
712.254	83.75
712.438	85.69
712.623	87.38
712.807	87.13
712.991	87.62
713.175	86.25
713.359	83.23
713.544	80.61
713.728	78.12
713.912	77.76
714.096	78.09
714.28	76.44
714.464	72.48
714.648	68.19
714.832	68.15
715.016	66.04
715.2	65.41
715.384	65.32
715.568	62.25
715.752	63.84
715.936	62.07
716.12	59.34
716.304	58.74
716.488	60.33
716.671	60.47
716.855	58.47
717.039	58.46
717.223	58.71
717.407	58.57
717.59	60.57
717.774	58.29
717.958	60.82
718.142	60.24
718.325	60.93
718.509	62.3
718.693	64.55
718.877	66.06
719.06	68.61
719.244	69.99
719.428	71.63
719.611	74.34
719.795	75.52
719.978	74.39
720.162	75.91
720.345	78
720.529	77.55
720.713	76.1
720.896	78.34
721.08	79.49
721.263	79.31
721.446	79.29
721.63	77.03
721.813	78.79
721.997	78.57
722.18	79.22
722.364	81.5
722.547	79.57
722.73	79.14
722.914	76.3
723.097	72.51
723.28	69.93
723.464	67.24
723.647	67.27
723.83	65.64
724.013	68.2
724.197	68.44
724.38	65.45
724.563	67.39
724.746	67.15
724.929	68.09
725.112	71.27
725.296	71.94
725.479	75.42
725.662	73.92
725.845	72.2
726.028	70.43
726.211	68.84
726.394	66.23
726.577	63.6
726.76	64.87
726.943	64.28
727.126	62.4
727.309	63.02
727.492	61.41
727.675	61.78
727.858	62.46
728.041	62.24
728.224	64.48
728.407	67.39
728.589	71.53
728.772	71.91
728.955	72.65
729.138	72.47
729.321	73.39
729.503	73.78
729.686	75.8
729.869	78.33
730.052	78.79
730.234	76.95
730.417	77.17
730.6	78.02
730.782	78.09
730.965	76.95
731.148	78.58
731.33	77.62
731.513	78.52
731.695	78.72
731.878	78.29
732.061	79.38
732.243	81
732.426	80.09
732.608	77.64
732.791	80.35
732.973	83.38
733.156	83.01
733.338	83.51
733.52	81.92
733.703	81.89
733.885	81.34
734.068	83.58
734.25	84.52
734.432	85.64
734.615	88.16
734.797	85.97
734.979	86.42
735.162	88.3
735.344	90.98
735.526	95.32
735.708	92.87
735.891	95.22
736.073	90.35
736.255	88.09
736.437	89.89
736.619	89.52
736.802	89.85
736.984	89.88
737.166	87.11
737.348	85.65
737.53	86.36
737.712	90.75
737.894	89.23
738.076	93.03
738.258	95
738.44	96.81
738.622	97.96
738.804	100.36
738.986	100.68
739.168	101.62
739.35	99.63
739.532	96.88
739.714	95.24
739.896	97.46
740.078	95.62
740.259	96.48
740.441	96.98
740.623	95.77
740.805	93.14
740.987	94.87
741.168	97.34
741.35	101.92
741.532	103.18
741.714	106.32
741.895	108.59
742.077	110.57
742.259	109.39
742.44	109.39
742.622	108.98
742.804	111.14
742.985	111.35
743.167	114.84
743.348	115.76
743.53	117.03
743.711	112.72
743.893	107.37
744.075	106.9
744.256	108.78
744.438	109.52
744.619	110.5
744.8	111.79
744.982	111.13
745.163	111.23
745.345	111.49
745.526	112.41
745.707	112.55
745.889	118.1
746.07	118.96
746.252	118.17
746.433	113.5
746.614	112.13
746.795	109.96
746.977	109.57
747.158	106.96
747.339	104.23
747.52	104.04
747.702	102.57
747.883	99.41
748.064	99.69
748.245	101.04
748.426	102.87
748.607	101.93
748.788	100.5
748.97	105.68
749.151	105.94
749.332	103.77
749.513	108.26
749.694	111.1
749.875	110.57
750.056	108.17
750.237	109.6
750.418	110.77
750.599	110.07
750.78	114.15
750.96	108.43
751.141	112.08
751.322	118.41
751.503	115.83
751.684	119.09
751.865	123.41
752.046	126.39
752.226	126.99
752.407	126.33
752.588	123.88
752.769	117.94
752.949	122.5
753.13	117.61
753.311	117.68
753.492	118.36
753.672	111.82
753.853	110.12
754.034	109.85
754.214	108.39
754.395	107.53
754.575	107.96
754.756	111.49
754.937	105.5
755.117	107.62
755.298	111.07
755.478	102.47
755.659	110.74
755.839	107.6
756.02	107.24
756.2	107.03
756.381	104.72
756.561	108.9
756.741	109.13
756.922	106.39
757.102	100.22
757.283	98.18
757.463	100.96
757.643	91.09
757.823	87.45
758.004	81.87
758.184	78.53
758.364	77.87
758.545	73.52
758.725	67.41
758.905	66.26
759.085	66.37
759.265	60.68
759.446	59.77
759.626	65.23
759.806	69.38
759.986	73.72
760.166	74.59
760.346	68.72
760.526	68.65
760.706	69.61
760.886	71.49
761.066	67.62
761.246	65.03
761.426	64.38
761.606	61.84
761.786	61.64
761.966	63.87
762.146	64.16
762.326	66.3
762.506	67.78
762.686	69.11
762.866	69.81
763.046	71.66
763.225	75.82
763.405	77.69
763.585	79.82
763.765	80.45
763.945	78.31
764.124	79.8
764.304	83.02
764.484	87.37
764.664	88.18
764.843	91.26
765.023	97.52
765.203	94.25
765.382	96.58
765.562	99.46
765.741	104.21
765.921	107.84
766.101	112.16
766.28	109.57
766.46	108.83
766.639	110.32
766.819	109.8
766.998	107.99
767.178	110.87
767.357	112.19
767.537	113.85
767.716	110.85
767.896	113.62
768.075	113.55
768.254	112.69
768.434	113.29
768.613	116.71
768.792	119.12
768.972	122
769.151	120.88
769.33	122.43
769.51	123.08
769.689	124.95
769.868	123.68
770.047	121.7
770.226	126.72
770.406	132.57
770.585	130.14
770.764	125.38
770.943	126.65
771.122	135.35
771.301	131.44
771.48	128.3
771.66	131.55
771.839	140.23
772.018	141.46
772.197	146.71
772.376	147.55
772.555	151.02
772.734	161.6
772.913	162.28
773.092	156.78
773.271	164.92
773.449	174.06
773.628	165.96
773.807	161.97
773.986	172.06
774.165	164.83
774.344	167.35
774.523	169.02
774.701	153.7
774.88	147.16
775.059	146.04
775.238	143.46
775.417	143.41
775.595	147.05
775.774	138.2
775.953	128.55
776.131	126.97
776.31	119.68
776.489	113.22
776.667	118.34
776.846	120.22
777.025	120.54
777.203	121.17
777.382	119.62
777.56	116.74
777.739	125.44
777.917	128.8
778.096	135.1
778.274	137.98
778.453	143.76
778.631	159.59
778.81	165.27
778.988	170.14
779.166	166.03
779.345	165.59
779.523	164.6
779.702	158.14
779.88	156.47
780.058	162.61
780.237	162.94
780.415	157.47
780.593	144.5
780.771	151.95
780.95	144.75
781.128	139.32
781.306	134.15
781.484	128.99
781.662	134.96
781.841	139.61
782.019	128
782.197	132.05
782.375	138.16
782.553	139.62
782.731	138.08
782.909	148.09
783.087	155.83
783.265	185.33
783.443	187.32
783.621	174.42
783.799	167.82
783.977	176.9
784.155	165.29
784.333	159.4
784.511	152.95
784.689	145.21
784.867	132.77
785.045	138.06
785.223	121.09
785.4	123.91
785.578	126.74
785.756	125.72
785.934	118.96
786.112	113.74
786.289	109.9
786.467	101.87
786.645	99.97
786.823	106.71
787	100.61
787.178	104.6
787.356	107.68
787.533	103.85
787.711	109.2
787.889	116.48
788.066	124.07
788.244	128.14
788.421	141.2
788.599	133.81
788.776	129.77
788.954	134.28
789.131	124.34
789.309	119.25
789.486	114.37
789.664	112.46
789.841	103.99
790.019	102.16
790.196	103.32
790.373	100
790.551	106.8
790.728	103.88
790.906	98.29
791.083	97.42
791.26	94.96
791.437	103.4
791.615	95.02
791.792	96.69
791.969	100.15
792.146	99.71
792.324	101.89
792.501	105.75
792.678	110.77
792.855	109.97
793.032	115.34
793.209	116.74
793.387	118.67
793.564	121.05
793.741	127.76
793.918	122.18
794.095	126.55
794.272	125.67
794.449	122.26
794.626	113.3
794.803	114.74
794.98	109.63
795.157	109.37
795.334	105.63
795.511	113.97
795.688	107.82
795.864	102.27
796.041	95.9
796.218	97.45
796.395	96.28
796.572	96.26
796.749	94.97
796.925	100.91
797.102	105.79
797.279	109.14
797.456	102.77
797.632	101.4
797.809	104.66
797.986	111.31
798.162	110.3
798.339	105.15
798.516	103.82
798.692	107.78
798.869	99.82
799.046	102.36
799.222	107.78
799.399	101.3
799.575	100.96
799.752	101.97
799.928	96.08
800.105	94.22
800.281	98.3
800.458	103.74
800.634	102.98
800.811	105.04
800.987	101.63
801.163	96.5
801.34	104.37
801.516	103.17
801.692	109.15
801.869	110.3
802.045	106.47
802.221	105.93
802.398	106.44
802.574	106.9
802.75	107.91
802.926	107.93
803.103	108.65
803.279	106.62
803.455	113.02
803.631	105.88
803.807	98.96
803.983	108.65
804.16	99.01
804.336	95.49
804.512	95.29
804.688	96.68
804.864	103.27
805.04	112.88
805.216	105.9
805.392	105.8
805.568	110.43
805.744	120.56
805.92	117.02
806.096	123.96
806.272	137.93
806.448	147.32
806.623	147.22
806.799	145.19
806.975	128.75
807.151	145.38
807.327	140.93
807.503	153.9
807.678	140.31
807.854	155.12
808.03	144.19
808.206	126.94
808.381	110.59
808.557	119.61
808.733	121.29
808.908	130.59
809.084	121.06
809.26	122.99
809.435	103.25
809.611	117.66
809.787	105.45
809.962	97.17
810.138	92.44
810.313	92.26
810.489	96.05
810.664	91.25
810.84	96.46
811.015	87.32
811.191	80.15
811.366	87.36
811.542	81.28
811.717	75.64
811.892	83.52
812.068	80.37
812.243	86
812.419	75.1
812.594	62.46
812.769	55.06
812.944	59.75
813.12	73.32
813.295	55.67
813.47	51.33
813.645	50.05
813.821	50.94
813.996	57.99
814.171	45.24
814.346	46.32
814.521	58.32
814.697	59.27
814.872	64.38
815.047	58.81
815.222	71.82
815.397	69.63
815.572	71.22
815.747	72.35
815.922	68.32
816.097	65.32
816.272	58.47
816.447	54.13
816.622	55
816.797	47.57
816.972	55.95
817.147	53.47
817.322	53.06
817.496	57.02
817.671	51.8
817.846	43.34
818.021	41.86
818.196	50.41
818.371	50.88
818.545	46.53
818.72	51.38
818.895	45.33
819.069	43.43
819.244	39.26
819.419	39.82
819.594	47.53
819.768	51.48
819.943	55.64
820.117	50.56
820.292	49.18
820.467	49.9
820.641	47.87
820.816	45.82
820.99	46
821.165	47.11
821.339	47.58
821.514	47.31
821.688	48.25
821.863	48.65
822.037	49.39
822.212	50.76
822.386	49.96
822.56	51.76
822.735	56.33
822.909	59.36
823.084	62.97
823.258	64.13
823.432	63.29
823.606	64.33
823.781	65.08
823.955	70.8
824.129	74.06
824.303	75.41
824.478	78.22
824.652	73.23
824.826	69.68
825	62.14
825.174	59.11
825.348	56.03
825.523	54.61
825.697	53.77
825.871	49.35
826.045	49.86
826.219	51.23
826.393	50.71
826.567	50.14
826.741	52.4
826.915	55.19
827.089	56.91
827.263	62.28
827.437	64.26
827.611	63.6
827.784	62.56
827.958	66.6
828.132	67.82
828.306	69.45
828.48	75.11
828.654	77.68
828.827	83.24
829.001	78.76
829.175	74.96
829.349	70.8
829.522	76.16
829.696	79.95
829.87	75.37
830.044	76.35
830.217	67.59
830.391	56.06
830.565	56.25
830.738	51.3
830.912	52.24
831.085	49.86
831.259	53.18
831.432	56.22
831.606	64.5
831.779	57.5
831.953	60.6
832.126	62.17
832.3	69.12
832.473	68.05
832.647	67
832.82	68.56
832.994	71.72
833.167	72.32
833.34	75.97
833.514	76.53
833.687	79.95
833.86	76.83
834.034	82.34
834.207	82.92
834.38	77.24
834.553	77.27
834.727	75.57
834.9	76.31
835.073	69.18
835.246	61.73
835.419	58.12
835.593	71.36
835.766	78.25
835.939	60.04
836.112	60.1
836.285	67.41
836.458	59.38
836.631	61.88
836.804	48.6
836.977	54.3
837.15	58.97
837.323	39.34
837.496	28.74
837.669	29.73
837.842	49.73
838.015	46.69
838.188	50.86
838.361	54.66
838.533	67.69
838.706	79.39
838.879	86.3
839.052	81.48
839.225	89.33
839.398	96.04
839.57	95.89
839.743	114.03
839.916	114.04
840.088	118.44
840.261	134.71
840.434	119.35
840.607	116.37
840.779	105.93
840.952	98.78
841.124	111.04
841.297	103.08
841.47	112.69
841.642	91.81
841.815	95.89
841.987	85.79
842.16	71.79
842.332	81.71
842.505	94.81
842.677	96.07
842.85	113.66
843.022	103.8
843.194	85.95
843.367	97.95
843.539	100.96
843.712	91.29
843.884	95.15
844.056	128.8
844.229	138.9
844.401	130.92
844.573	128.43
844.745	108.37
844.918	138.72
845.09	184.29
845.262	148.99
845.434	137.72
845.606	132.18
845.779	160.1
845.951	123.57
846.123	91.99
846.295	97.14
846.467	124.38
846.639	127.48
846.811	138.99
846.983	140.92
847.155	160
847.327	167.48
847.499	211.36
847.671	196.34
847.843	452.82
848.015	1654.84
848.187	-1155.56
848.359	1297.37
848.531	-888.89
848.703	8266.67
848.875	-224.47
849.047	413.83
849.218	196.93
849.39	165.85
849.562	220.28
849.734	203.47
849.905	359.9
850.077	278.87
850.249	265.47
850.421	823.53
850.592	396.02
850.764	413.48
850.936	2168
851.107	9316.67
851.279	528.35
851.451	235.83
851.622	204.93
851.794	170.95
851.965	183.89
852.137	185.6
852.308	171.66
852.48	196.64
852.651	194.46
852.823	186.6
852.994	165.75
853.166	181.91
853.337	147.58
853.509	142.47
853.68	135.58
853.851	127.58
854.023	109.11
854.194	94.5
854.365	97.18
854.537	84.57
854.708	87.96
854.879	127.08
855.05	124.77
855.222	127.77
855.393	168.46
855.564	110.09
855.735	141.77
855.906	188.26
856.078	160.88
856.249	149.88
856.42	122.47
856.591	126.63
856.762	91.6
856.933	127.18
857.104	152.2
857.275	156.98
857.446	179.52
857.617	114.07
857.788	98.01
857.959	90.96
858.13	133.17
858.301	146.32
858.472	124.68
858.643	113.88
858.814	114.69
858.985	127.8
859.155	125.35
859.326	158.46
859.497	489.08
859.668	195.37
859.839	221.88
860.009	185.58
860.18	164.17
860.351	222.73
860.522	258.3
860.692	235
860.863	190.64
861.034	155.49
861.204	147.03
861.375	93.98
861.546	105.69
861.716	107.16
861.887	109.3
862.057	154.4
862.228	125.79
862.398	163.43
862.569	158.29
862.739	151.51
862.91	130.3
863.08	178.73
863.251	296.15
863.421	277.39
863.592	244.49
863.762	329.07
863.932	450.55
864.103	-256.98
864.273	-92.86
864.443	10.83
864.614	55.76
864.784	38.87
864.954	213.33
865.125	600
865.295	-102.99
865.465	-80.7
865.635	-1675
865.805	389.87
865.976	-5066.67
866.146	-1234.09
866.316	-1900
866.486	1090.48
866.656	-213.16
866.826	-40.3
866.996	-384.62
867.166	272.73
867.336	350.65
867.506	260
867.676	78.07
867.846	66.92
868.016	-16.02
868.186	78.1
868.356	90.19
868.526	75.53
868.696	118.2
868.866	136.61
869.036	261.04
869.206	152.88
869.376	176.56
869.545	2068.42
869.715	1178.95
869.885	266.18
870.055	163.35
870.224	216.28
870.394	-157.14
870.564	-37.31
870.734	-87
870.903	12.62
871.073	78.88
871.243	59.71
871.412	51.09
871.582	37.52
871.751	3.27
871.921	-10.54
872.091	29.36
872.26	23.56
872.43	31.24
872.599	21.28
872.769	13.69
872.938	-0.14
873.108	6.71
873.277	-1.34
873.446	4.51
873.616	20.61
873.785	23.39
873.955	12.22
874.124	36.56
874.293	35.92
874.463	43.12
874.632	50.48
874.801	63.99
874.971	82.95
875.14	162.11
875.309	219.12
875.478	339.38
875.647	285.71
875.817	155.15
875.986	113.73
876.155	96.3
876.324	87.23
876.493	83.26
876.662	71.74
876.831	47.89
877	31.74
877.17	25.98
877.339	42.93
877.508	49.13
877.677	44.8
877.846	25.18
878.015	9.11
878.184	18.69
878.352	9.82
878.521	-27.87
878.69	18.2
878.859	-8.16
879.028	-12.59
879.197	-2.21
879.366	13.48
879.534	24.64
879.703	37.34
879.872	43.05
880.041	50.07
880.21	53.83
880.378	61.98
880.547	63.15
880.716	63.41
880.884	66.05
881.053	61.35
881.222	61.44
881.39	56.56
881.559	50.51
881.727	54.84
881.896	53.63
882.065	49.31
882.233	43.46
882.402	46.29
882.57	41.84
882.739	46.72
882.907	54.09
883.076	59.08
883.244	75.88
883.412	88.85
883.581	94.85
883.749	89.79
883.918	92.32
884.086	97.77
884.254	97.01
884.423	102.67
884.591	108.91
884.759	106.84
884.927	111.09
885.096	75.26
885.264	69.84
885.432	65.63
885.6	67.18
885.769	94.83
885.937	77.91
886.105	61.54
886.273	76.66
886.441	36.13
886.609	26.45
886.777	31.44
886.945	33.52
887.113	60.23
887.281	2450
887.449	4.94
887.617	0
887.785	-62.11
887.953	-47.16
888.121	-127.14
888.289	-113.69
888.457	-539.73
888.625	-14900
888.793	2325
888.961	4875
889.129	700
889.296	136.21
889.464	339.58
889.632	87.5
889.8	112.42
889.967	-20
890.135	9.7
