Data from JASIL_2995_Reflection_01.txt Node
Date: Mon Nov 09 09:52:49 EST 2015
User: Geneva
Spectrometer: USB4E03002
Autoset integration time: false
Trigger mode: 4
Integration Time (sec): 1.000000E-1
Scans to average: 10
Electric dark correction enabled: false
Nonlinearity correction enabled: false
Boxcar width: 5
Stray light correction enabled: false
XAxis mode: Wavelengths
Stop averaging: false
Number of Pixels in Spectrum: 3648
>>>>>Begin Spectral Data<<<<<
177.575	118.62
177.794	113.82
178.014	90.89
178.233	89.83
178.452	72.51
178.672	76.53
178.891	53.57
179.11	25.15
179.33	-13.91
179.549	-35.32
179.768	-69.25
179.987	-37.32
180.207	4.73
180.426	33.17
180.645	42.29
180.864	52.46
181.084	60.83
181.303	48.29
181.522	13.67
181.741	20.52
181.96	31.33
182.179	31.21
182.398	21.16
182.618	20.55
182.837	4.69
183.056	-14.44
183.275	-23.51
183.494	-10.17
183.713	5.97
183.932	45.05
184.151	43.99
184.37	17.04
184.589	0
184.808	8.92
185.027	-8.34
185.246	-46.84
185.465	2.26
185.684	17.08
185.903	-13.68
186.122	-7.68
186.341	-51.81
186.56	-144.88
186.779	-72.58
186.998	-18.33
187.216	-12.8
187.435	-4.42
187.654	1.21
187.873	-35.77
188.092	-69.97
188.311	-47.95
188.53	-37.13
188.748	23.62
188.967	18.53
189.186	36.4
189.405	36.76
189.623	47.35
189.842	95.48
190.061	165.2
190.28	173.45
190.498	115.94
190.717	145.99
190.936	74.91
191.154	30.33
191.373	49.6
191.592	-32.08
191.81	-4.56
192.029	-157.24
192.248	-358.11
192.466	-150.29
192.685	-158.84
192.904	-77.63
193.122	-149.14
193.341	-202.53
193.559	-211.11
193.778	-186.09
193.996	-10.27
194.215	-5.23
194.433	9.87
194.652	18.51
194.87	9.54
195.089	31.48
195.307	21.83
195.526	5.93
195.744	2.48
195.963	-6.78
196.181	-36.49
196.399	-78.96
196.618	-81.34
196.836	-73.33
197.055	-36.97
197.273	-35.84
197.491	-35.03
197.71	-23.4
197.928	-33.03
198.146	-8.57
198.365	-29.26
198.583	-28.38
198.801	-20.74
199.019	-51.11
199.238	-53.47
199.456	-82.63
199.674	-68.37
199.892	-38.52
200.111	-105.54
200.329	-64.18
200.547	-31.19
200.765	-14.16
200.983	10.07
201.202	28.7
201.42	173.95
201.638	93.03
201.856	195.77
202.074	-183.78
202.292	273.17
202.51	-73.4
202.728	-82.14
202.946	-156.49
203.165	-136.78
203.383	-138.71
203.601	-176.92
203.819	-268.6
204.037	-179.92
204.255	-101.37
204.473	-71.24
204.691	-78.33
204.909	-52.8
205.127	-73.67
205.345	-62.45
205.562	-120.22
205.78	-47.66
205.998	-15.24
206.216	-92.31
206.434	-161.62
206.652	-169.36
206.87	-129.11
207.088	-85.71
207.306	-82.43
207.523	-84.05
207.741	-87.42
207.959	-42.4
208.177	-34.39
208.395	10.6
208.612	36.18
208.83	60.71
209.048	75.6
209.266	59.9
209.483	68.5
209.701	112.71
209.919	85.78
210.136	64.45
210.354	17.9
210.572	-12.4
210.79	-59.88
211.007	-19.95
211.225	9.39
211.442	-6.12
211.66	-12.45
211.878	-39.92
212.095	-2.77
212.313	1.94
212.53	16.15
212.748	26.05
212.966	32.72
213.183	31.07
213.401	30.98
213.618	30.05
213.836	31.86
214.053	29.82
214.271	28.43
214.488	41.78
214.705	31.99
214.923	40.94
215.14	42.86
215.358	22.56
215.575	43.7
215.793	41.08
216.01	12.03
216.227	4
216.445	31.83
216.662	32.67
216.879	39.38
217.097	42.17
217.314	18.25
217.531	-3.49
217.749	-1.41
217.966	-3.04
218.183	-18.5
218.4	-50.7
218.618	-41.33
218.835	-41.97
219.052	-170
219.269	-587.72
219.487	-217.54
219.704	-693.65
219.921	1028.07
220.138	779.49
220.355	409.59
220.572	0
220.79	-1093.94
221.007	-209.09
221.224	-74.26
221.441	-14.48
221.658	-32.45
221.875	-35.74
222.092	-1.74
222.309	31.42
222.526	2.17
222.743	4.01
222.96	19.02
223.177	19.8
223.394	8.75
223.611	-12.92
223.828	-83.87
224.045	-72.79
224.262	-13.88
224.479	-25.8
224.696	-38.04
224.913	-45.84
225.13	-61.36
225.347	-60.66
225.564	-62.12
225.781	-45.84
225.997	-44.33
226.214	-18.01
226.431	-18.1
226.648	-28.26
226.865	-14.77
227.082	-17.06
227.298	-17.79
227.515	-17.61
227.732	-10.14
227.949	-11.38
228.165	-10.67
228.382	-3.3
228.599	-11.63
228.816	-4.82
229.032	-15.32
229.249	-24.02
229.466	-19.02
229.682	-17.15
229.899	-15.46
230.116	-36.1
230.332	-37.19
230.549	-28.95
230.765	-62.6
230.982	-47.75
231.199	-37.19
231.415	-11.34
231.632	-19.48
231.848	-9.8
232.065	-7.68
232.281	-18.32
232.498	-3.3
232.714	8.41
232.931	-5.63
233.147	1.93
233.364	13.55
233.58	7.67
233.797	-2.27
234.013	12.5
234.23	-8.2
234.446	-0.08
234.662	3.28
234.879	6.77
235.095	9.63
235.312	6.16
235.528	-0.83
235.744	-2.1
235.961	3.04
236.177	12.64
236.393	3.41
236.61	13.33
236.826	7.89
237.042	13.68
237.258	18.34
237.475	17.1
237.691	16.59
237.907	18.35
238.123	9.02
238.339	-1.08
238.556	-6.26
238.772	-7.95
238.988	-3.16
239.204	-3.87
239.42	0.9
239.636	2.55
239.853	7.53
240.069	7.19
240.285	8.27
240.501	12.12
240.717	13.27
240.933	11.15
241.149	13.64
241.365	13.75
241.581	11.18
241.797	8.69
242.013	5.42
242.229	-1.65
242.445	0.52
242.661	5.62
242.877	2.03
243.093	-4.53
243.309	-6.05
243.525	-13.05
243.741	-14.83
243.957	-6.89
244.173	-3.96
244.388	-2.53
244.604	5.17
244.82	3.12
245.036	0.7
245.252	5.65
245.468	8.48
245.683	7.45
245.899	9.21
246.115	8.81
246.331	6.91
246.547	4.2
246.762	4.41
246.978	3.08
247.194	2.56
247.409	-1.65
247.625	-7.73
247.841	-5.61
248.057	-0.23
248.272	-0.54
248.488	0.09
248.703	2.47
248.919	-0.21
249.135	-7.34
249.35	-8.58
249.566	-7.07
249.782	-6.59
249.997	0.11
250.213	-9.3
250.428	-7.2
250.644	-9.17
250.859	-7.92
251.075	-9.96
251.29	-6.55
251.506	-1.75
251.721	-3.66
251.937	-0.64
252.152	1.89
252.368	-2.4
252.583	3.25
252.798	-0.77
253.014	6.99
253.229	5.06
253.445	6.22
253.66	6.74
253.875	-3.87
254.091	-3.99
254.306	-8.99
254.521	3.82
254.737	7.72
254.952	9.22
255.167	3.8
255.383	-3.5
255.598	-5.66
255.813	-3.71
256.028	-4.89
256.244	1.16
256.459	0.8
256.674	4.88
256.889	0.52
257.104	-2.68
257.32	-1.34
257.535	2.13
257.75	1.1
257.965	3.74
258.18	2.11
258.395	4.19
258.61	3.86
258.826	2.82
259.041	1.38
259.256	-1.67
259.471	-0.22
259.686	-1.76
259.901	-3.49
260.116	-1.39
260.331	-8.36
260.546	-5.82
260.761	-8.49
260.976	-9.82
261.191	-7.36
261.406	-9.51
261.621	-0.6
261.836	-0.05
262.05	-2.65
262.265	-0.89
262.48	-2.11
262.695	2.02
262.91	0.35
263.125	2.39
263.34	0.43
263.555	-0.67
263.769	3.64
263.984	1.12
264.199	-6.16
264.414	-1.6
264.629	-0.27
264.843	-3.54
265.058	-2.6
265.273	-1.89
265.488	-4.17
265.702	-1.53
265.917	-0.85
266.132	-3.44
266.346	-5.77
266.561	-0.3
266.776	-0.15
266.99	-0.15
267.205	4.89
267.42	5.92
267.634	5.62
267.849	5.49
268.063	6.52
268.278	6.27
268.492	9.02
268.707	10.86
268.922	11.49
269.136	8.25
269.351	6.82
269.565	6.58
269.78	7.19
269.994	7.18
270.209	6.87
270.423	5.76
270.637	7.88
270.852	8.08
271.066	6.67
271.281	6.78
271.495	8.97
271.709	8.23
271.924	6.58
272.138	5.98
272.353	8.28
272.567	9.67
272.781	10.39
272.996	9.83
273.21	8.8
273.424	6.57
273.638	3.36
273.853	4.03
274.067	5.66
274.281	5.82
274.495	4.42
274.71	2.98
274.924	2.25
275.138	3.69
275.352	4.38
275.566	2.51
275.781	4.48
275.995	6.33
276.209	7.34
276.423	6.27
276.637	4.85
276.851	8.22
277.065	6.32
277.279	4.84
277.493	4.08
277.707	1.57
277.921	0.02
278.135	-2.88
278.349	-4.42
278.563	-11.25
278.777	-9.3
278.991	-6.89
279.205	-11.4
279.419	-11.34
279.633	-11.04
279.847	-13.13
280.061	-15.75
280.275	-8.89
280.489	-4.07
280.703	-2.98
280.917	-0.08
281.131	2.6
281.344	5.21
281.558	6.98
281.772	5.57
281.986	7.24
282.2	6.76
282.414	9.56
282.627	8.74
282.841	10.03
283.055	7.4
283.269	7.65
283.482	5.19
283.696	3.17
283.91	4.23
284.123	2.88
284.337	5.26
284.551	7.89
284.764	7.54
284.978	5.2
285.192	3.96
285.405	7.35
285.619	7.28
285.833	6.61
286.046	4.27
286.26	1.83
286.473	3.44
286.687	-0.67
286.9	-2.29
287.114	-1.8
287.327	-0.18
287.541	-1.95
287.754	-7.04
287.968	-5.85
288.181	-8.48
288.395	-6.74
288.608	-8.34
288.822	-7.25
289.035	-6.14
289.248	-4.78
289.462	-4.26
289.675	-3.92
289.889	-3.07
290.102	2.49
290.315	1.99
290.529	3.26
290.742	4.36
290.955	5.44
291.169	6.17
291.382	5.61
291.595	2.91
291.808	5.6
292.022	6.1
292.235	7.26
292.448	4.75
292.661	3.25
292.875	2.97
293.088	1.44
293.301	2.54
293.514	1.85
293.727	3.6
293.94	6.28
294.153	3.9
294.367	2.75
294.58	-0.17
294.793	-0.98
295.006	-0.06
295.219	1.53
295.432	2.92
295.645	3.33
295.858	3.28
296.071	1.92
296.284	0.7
296.497	-2.07
296.71	-0.64
296.923	1.85
297.136	1.35
297.349	3.52
297.562	4.42
297.775	3.65
297.988	5.31
298.201	7.04
298.414	8.11
298.626	10.7
298.839	11.84
299.052	10.97
299.265	9.82
299.478	10.66
299.691	9.54
299.903	9.13
300.116	8.25
300.329	6.26
300.542	5.19
300.755	6.13
300.967	5.45
301.18	8.52
301.393	6.93
301.605	9.86
301.818	8.95
302.031	9.49
302.243	8.28
302.456	10.1
302.669	12.02
302.881	12.09
303.094	11.52
303.307	9.88
303.519	6.89
303.732	8.11
303.944	6.03
304.157	6.94
304.37	4.95
304.582	5.6
304.795	5.36
305.007	6.88
305.22	6.34
305.432	5.96
305.645	7.01
305.857	8.67
306.069	7.94
306.282	9.28
306.494	8.89
306.707	5.54
306.919	7.39
307.132	6.96
307.344	1.28
307.556	0.84
307.769	0.56
307.981	-0.09
308.193	-2.24
308.406	0.47
308.618	-0.92
308.83	2.04
309.043	8.69
309.255	7.75
309.467	6.5
309.679	9.74
309.892	10.78
310.104	11.76
310.316	11.22
310.528	14.82
310.74	13.01
310.953	12.64
311.165	14.28
311.377	10.76
311.589	10.76
311.801	12.85
312.013	10.73
312.225	12.44
312.437	12.81
312.649	11.82
312.862	8.29
313.074	7.48
313.286	9.53
313.498	5.12
313.71	3.74
313.922	3.15
314.134	3.45
314.346	4.93
314.558	0.45
314.77	-1.79
314.982	2.39
315.193	6.74
315.405	8.36
315.617	6.62
315.829	6.99
316.041	9.92
316.253	9.75
316.465	9.36
316.677	8.7
316.888	11.64
317.1	13.08
317.312	11.37
317.524	11.74
317.736	14.59
317.947	17.09
318.159	15.23
318.371	16.69
318.583	16.33
318.794	15.04
319.006	16.1
319.218	13.78
319.43	12.2
319.641	14.32
319.853	10.23
320.064	5.86
320.276	1.96
320.488	4.34
320.699	2.07
320.911	1.72
321.123	4.02
321.334	3.56
321.546	4.7
321.757	4.69
321.969	1.85
322.18	3.38
322.392	3.43
322.603	2.41
322.815	6.17
323.026	8.85
323.238	9.06
323.449	8.19
323.661	7.33
323.872	5.81
324.083	5.23
324.295	4.32
324.506	1.84
324.718	3.56
324.929	6.5
325.14	2.94
325.352	1.38
325.563	5.15
325.774	3.53
325.986	2.75
326.197	4.2
326.408	4.79
326.62	4.8
326.831	7.14
327.042	4.24
327.253	2.08
327.464	2.59
327.676	3.29
327.887	0.38
328.098	2.53
328.309	5.54
328.52	5.47
328.732	4.9
328.943	4.05
329.154	0.85
329.365	4.84
329.576	6.46
329.787	8.1
329.998	7.63
330.209	7.52
330.42	7.43
330.631	2.32
330.842	1.36
331.053	3.32
331.264	5.35
331.475	7.62
331.686	5.37
331.897	6.23
332.108	4.22
332.319	5.75
332.53	3.78
332.741	4.76
332.952	8.9
333.163	9.95
333.374	9.37
333.585	9.51
333.795	8.95
334.006	12.89
334.217	12.03
334.428	12.15
334.639	9.8
334.849	11.05
335.06	10.38
335.271	8.76
335.482	8.72
335.692	8.33
335.903	8.83
336.114	8.31
336.325	7.27
336.535	5.7
336.746	7.2
336.957	7.99
337.167	7.04
337.378	8.1
337.589	8.73
337.799	9.22
338.01	8.78
338.22	8.08
338.431	5.84
338.642	4.02
338.852	3.15
339.063	-0.1
339.273	3.19
339.484	5.68
339.694	3.26
339.905	2.64
340.115	4.31
340.326	3.74
340.536	3.81
340.746	7.57
340.957	8.97
341.167	10.72
341.378	11.7
341.588	5.92
341.799	5.82
342.009	8.29
342.219	7.59
342.43	5.62
342.64	5.88
342.85	7.93
343.061	8.99
343.271	7.24
343.481	8.14
343.691	9.96
343.902	15.1
344.112	15.13
344.322	11.57
344.532	13.12
344.743	12.02
344.953	12.97
345.163	10.51
345.373	10.27
345.583	9.93
345.793	9.11
346.004	9
346.214	5.21
346.424	3.61
346.634	5.09
346.844	5.42
347.054	7.71
347.264	5.39
347.474	6.9
347.684	8.19
347.894	10.35
348.104	11.32
348.314	11.08
348.524	12.11
348.734	13.27
348.944	14.01
349.154	10.24
349.364	10.92
349.574	13
349.784	13.45
349.994	13.78
350.204	13.17
350.413	12.26
350.623	13.95
350.833	13.97
351.043	11.82
351.253	11.34
351.463	14.85
351.672	12.81
351.882	12.4
352.092	11.91
352.302	10.98
352.511	10.85
352.721	12.58
352.931	11.53
353.141	9.89
353.35	11.5
353.56	11.04
353.77	6.05
353.979	7.67
354.189	7.85
354.399	7.61
354.608	6.41
354.818	6.49
355.027	5.31
355.237	4.42
355.447	5.4
355.656	5.3
355.866	6.42
356.075	10.72
356.285	9.72
356.494	8.85
356.704	8.58
356.913	7.95
357.123	7.4
357.332	6.28
357.542	5.88
357.751	7.01
357.96	7.14
358.17	6.77
358.379	4.82
358.589	5.08
358.798	5.37
359.007	5.62
359.217	5.71
359.426	5.16
359.635	5.07
359.845	4.28
360.054	2.22
360.263	2.45
360.472	2.96
360.682	3.63
360.891	2.89
361.1	2.96
361.309	2.54
361.519	2.73
361.728	1.8
361.937	2.03
362.146	3.85
362.355	5.06
362.564	3.39
362.774	2.16
362.983	2.3
363.192	2.72
363.401	3.7
363.61	5.26
363.819	4.24
364.028	4.83
364.237	4.47
364.446	3.81
364.655	3.62
364.864	6.86
365.073	6.54
365.282	7.27
365.491	7.78
365.7	8.32
365.909	5.98
366.118	7.48
366.327	6.67
366.536	8.66
366.745	9.18
366.954	10.06
367.162	8.48
367.371	8.5
367.58	8.31
367.789	7.47
367.998	5.7
368.207	8.21
368.415	8.23
368.624	9.7
368.833	10.28
369.042	8.34
369.25	7.62
369.459	7.22
369.668	7.34
369.877	5.69
370.085	5.89
370.294	7.49
370.503	4.9
370.711	4.97
370.92	4.89
371.129	3.95
371.337	4.06
371.546	5
371.754	5.65
371.963	5.65
372.171	5.9
372.38	6.31
372.589	5.35
372.797	5.83
373.006	6.13
373.214	6.14
373.423	6.03
373.631	7.79
373.84	7.46
374.048	7.58
374.256	6.89
374.465	8.48
374.673	7.92
374.882	6.72
375.09	6.92
375.298	6.06
375.507	6.61
375.715	6.56
375.923	5.68
376.132	6.08
376.34	5.73
376.548	7.07
376.757	6.18
376.965	7.51
377.173	8.49
377.381	7.6
377.59	6.4
377.798	7.61
378.006	5.91
378.214	4.7
378.423	3.96
378.631	4.39
378.839	4.07
379.047	4.59
379.255	3.78
379.463	4.23
379.671	5.68
379.879	7.21
380.088	4.96
380.296	5.45
380.504	6.83
380.712	7.07
380.92	6.81
381.128	8.26
381.336	7.83
381.544	8.11
381.752	8.31
381.96	7.89
382.168	7.97
382.376	8.5
382.584	8.98
382.791	9.3
382.999	8.96
383.207	8.53
383.415	7.15
383.623	7.13
383.831	6.64
384.039	6.26
384.247	6.46
384.454	5.78
384.662	5.22
384.87	6.38
385.078	5.23
385.285	4.33
385.493	4.48
385.701	5.03
385.909	4.74
386.116	5.01
386.324	5.04
386.532	3.99
386.739	3.73
386.947	3.89
387.155	3.3
387.362	4.71
387.57	4.17
387.778	4.3
387.985	4.34
388.193	4.94
388.4	5.39
388.608	5.31
388.816	5.28
389.023	5.8
389.231	5.78
389.438	5.99
389.646	6.42
389.853	8.26
390.061	7.31
390.268	6.63
390.475	6.27
390.683	4.25
390.89	3.68
391.098	4.66
391.305	5.26
391.512	6.14
391.72	6.32
391.927	4.46
392.135	3.37
392.342	4.14
392.549	4.38
392.756	4.89
392.964	6.48
393.171	5.79
393.378	5.7
393.586	5.91
393.793	5.43
394	4.93
394.207	5.95
394.414	5.99
394.622	5.78
394.829	5.97
395.036	5.59
395.243	5.09
395.45	7.05
395.657	5.36
395.864	3.76
396.072	3.94
396.279	5.03
396.486	4.4
396.693	5.42
396.9	7.09
397.107	7.62
397.314	7.44
397.521	6.68
397.728	5.91
397.935	7.94
398.142	8.22
398.349	7.35
398.556	6.22
398.763	6.08
398.97	5.51
399.177	4.5
399.383	4.22
399.59	3.35
399.797	4.95
400.004	4.81
400.211	3.73
400.418	3.8
400.625	5.06
400.831	5.29
401.038	6.14
401.245	5.45
401.452	5.2
401.658	5.4
401.865	6.35
402.072	5.91
402.279	5.07
402.485	5.71
402.692	5.87
402.899	5.53
403.105	4.61
403.312	3.93
403.519	4.62
403.725	4.53
403.932	4.27
404.138	3.48
404.345	3.87
404.552	4.05
404.758	4.57
404.965	5.52
405.171	5.78
405.378	6.59
405.584	7.44
405.791	8.36
405.997	7.75
406.204	7.3
406.41	7.38
406.617	6.81
406.823	6.15
407.029	5.96
407.236	4.38
407.442	4.22
407.649	3.95
407.855	2.72
408.061	1.9
408.268	2.94
408.474	3.8
408.68	5.16
408.887	5.49
409.093	6.71
409.299	6.7
409.505	7.53
409.712	7.38
409.918	7.24
410.124	7.97
410.33	7.95
410.537	8.33
410.743	7.62
410.949	6.51
411.155	7.1
411.361	7.53
411.567	7.13
411.773	7.4
411.98	7.17
412.186	7.61
412.392	7.2
412.598	6.83
412.804	5.05
413.01	5
413.216	5.74
413.422	4.83
413.628	5.19
413.834	5.44
414.04	4.94
414.246	5.22
414.452	4.9
414.658	4.5
414.864	4.08
415.07	5
415.275	4.96
415.481	5.9
415.687	5.49
415.893	4.54
416.099	3.8
416.305	3.88
416.511	4.01
416.716	3.72
416.922	4.63
417.128	5.19
417.334	4.93
417.539	5.4
417.745	5.43
417.951	5.28
418.157	5.66
418.362	6.3
418.568	6.14
418.774	5.94
418.979	6.07
419.185	5.82
419.391	5.6
419.596	6.11
419.802	5.95
420.008	5.38
420.213	5.85
420.419	5.61
420.624	5.11
420.83	5.14
421.035	5.44
421.241	5.54
421.446	5.31
421.652	5.49
421.857	5.2
422.063	4.97
422.268	4.96
422.474	4.57
422.679	4.99
422.885	4.83
423.09	4.84
423.295	4.8
423.501	4.71
423.706	4.93
423.911	4.73
424.117	4.74
424.322	5.18
424.527	5.14
424.733	5.35
424.938	4.68
425.143	4.67
425.349	5.04
425.554	5.34
425.759	5.23
425.964	5.28
426.169	5.43
426.375	4.91
426.58	4.3
426.785	3.94
426.99	3.73
427.195	4.18
427.4	4.86
427.605	4.13
427.811	4.31
428.016	4.72
428.221	4.8
428.426	4.62
428.631	4.71
428.836	4.63
429.041	5.26
429.246	5.58
429.451	4.95
429.656	4.73
429.861	4.7
430.066	4.21
430.271	4.56
430.476	4.16
430.681	4.24
430.886	4.9
431.09	5.45
431.295	5.12
431.5	5.6
431.705	6.27
431.91	6.78
432.115	6.75
432.32	7.15
432.524	6.51
432.729	6.56
432.934	6.35
433.139	5.99
433.343	5.26
433.548	5.69
433.753	4.8
433.958	4.76
434.162	5.03
434.367	5.01
434.572	3.92
434.776	4.56
434.981	4.45
435.186	4.47
435.39	5.29
435.595	5.54
435.799	4.67
436.004	4.52
436.209	4.74
436.413	3.81
436.618	4.5
436.822	4.87
437.027	4.28
437.231	4.41
437.436	4.96
437.64	4.19
437.845	3.26
438.049	3.89
438.253	4.47
438.458	4.57
438.662	4.62
438.867	4.14
439.071	3.59
439.275	3.94
439.48	3.86
439.684	3.4
439.888	3.67
440.093	4.36
440.297	4.74
440.501	4.92
440.706	4.17
440.91	3.8
441.114	3.91
441.318	4.45
441.523	4.44
441.727	4.84
441.931	5.17
442.135	4.57
442.339	4.62
442.543	4.24
442.748	4.18
442.952	4.5
443.156	4.54
443.36	4.63
443.564	4.32
443.768	3.68
443.972	3.21
444.176	3.05
444.38	3.48
444.584	3.53
444.788	3.2
444.992	3.09
445.196	3.02
445.4	3.41
445.604	3.49
445.808	3.52
446.012	4.01
446.216	4.17
446.42	4.79
446.624	4.53
446.828	4.69
447.032	4.84
447.235	4.47
447.439	4.84
447.643	5.15
447.847	5
448.051	4.6
448.254	4.26
448.458	4.31
448.662	3.81
448.866	4.05
449.069	3.87
449.273	3.4
449.477	3.9
449.681	4.11
449.884	3.88
450.088	3.67
450.292	4.36
450.495	4.92
450.699	5.77
450.902	5.6
451.106	6.42
451.31	6.47
451.513	6.98
451.717	7.31
451.92	6.69
452.124	6.77
452.327	7.08
452.531	6.72
452.734	6.58
452.938	5.71
453.141	5.48
453.345	4.2
453.548	4.36
453.752	4.56
453.955	4.31
454.158	4.05
454.362	4.56
454.565	5.01
454.769	5.73
454.972	5.81
455.175	5.6
455.379	5.59
455.582	6.25
455.785	6.01
455.988	4.72
456.192	4.25
456.395	4.76
456.598	3.58
456.801	1.9
457.005	1.97
457.208	1.32
457.411	1.19
457.614	1.78
457.817	1.61
458.021	1.62
458.224	2.12
458.427	2.06
458.63	2.13
458.833	1.98
459.036	2.83
459.239	2.62
459.442	3.3
459.645	3.88
459.848	3.61
460.051	3.8
460.254	4.27
460.457	4.43
460.66	3.98
460.863	3.9
461.066	4.4
461.269	4.18
461.472	4.69
461.675	4.03
461.878	3.61
462.081	3.6
462.284	3.27
462.486	3.13
462.689	3.56
462.892	4.18
463.095	4.3
463.298	4.27
463.5	4.83
463.703	4.22
463.906	4.3
464.109	4.66
464.311	4.84
464.514	5.44
464.717	5.13
464.92	5.57
465.122	5.54
465.325	5.49
465.528	5.22
465.73	4.67
465.933	4.73
466.135	4.54
466.338	4.4
466.541	4.3
466.743	4.12
466.946	4.59
467.148	3.82
467.351	4.79
467.553	3.97
467.756	4.12
467.958	4.5
468.161	4.14
468.363	4.05
468.566	4.26
468.768	4.3
468.971	3.59
469.173	3.34
469.375	3.36
469.578	2.11
469.78	3.06
469.983	2.46
470.185	1.89
470.387	2.16
470.59	2.65
470.792	1.97
470.994	2.1
471.196	3.02
471.399	2.87
471.601	3.36
471.803	3.87
472.005	3.15
472.208	4.16
472.41	4.39
472.612	4.76
472.814	4.07
473.016	4.72
473.218	4.74
473.421	4.47
473.623	4.5
473.825	4.21
474.027	3.48
474.229	3.8
474.431	3.1
474.633	2.98
474.835	2.23
475.037	3.01
475.239	2.94
475.441	2.4
475.643	2.03
475.845	2.25
476.047	2.63
476.249	3.22
476.451	3.14
476.653	3.74
476.855	4.23
477.057	4.15
477.258	4
477.46	3.92
477.662	4.25
477.864	4.38
478.066	4.08
478.268	3.69
478.469	3.72
478.671	4.28
478.873	3.79
479.075	3.42
479.276	3.9
479.478	3.66
479.68	3.38
479.882	3.18
480.083	3.02
480.285	3.36
480.487	3.42
480.688	3.29
480.89	3.01
481.091	2.98
481.293	3.2
481.495	3.09
481.696	3.28
481.898	3.37
482.099	3.32
482.301	3.47
482.502	3.31
482.704	3.36
482.905	3.49
483.107	3.68
483.308	3.89
483.51	3.79
483.711	3.76
483.913	3.81
484.114	3.71
484.315	3.8
484.517	3.98
484.718	4.09
484.92	3.96
485.121	3.74
485.322	3.68
485.524	3.8
485.725	3.65
485.926	3.68
486.127	3.58
486.329	3.78
486.53	3.94
486.731	3.86
486.932	4.12
487.134	4.03
487.335	4.17
487.536	4
487.737	3.77
487.938	4.25
488.139	4.36
488.341	4.31
488.542	4.43
488.743	4.25
488.944	4.11
489.145	3.73
489.346	3.88
489.547	3.97
489.748	3.86
489.949	4.09
490.15	3.78
490.351	3.61
490.552	3.85
490.753	4.04
490.954	4.13
491.155	4.17
491.356	4.21
491.557	4.5
491.758	4.62
491.959	4.79
492.159	4.47
492.36	4.78
492.561	5.08
492.762	4.96
492.963	4.57
493.164	4.44
493.364	4.47
493.565	4.71
493.766	4.51
493.967	4.45
494.167	4.62
494.368	4.59
494.569	4.43
494.769	4.39
494.97	4.39
495.171	4.72
495.371	4.73
495.572	4.47
495.773	4.37
495.973	4.11
496.174	4.58
496.375	4.2
496.575	4.45
496.776	4.55
496.976	4.56
497.177	4.99
497.377	4.79
497.578	4.73
497.778	5.3
497.979	5.06
498.179	5.27
498.38	4.65
498.58	4.97
498.78	5.33
498.981	5.28
499.181	5.34
499.382	4.85
499.582	4.57
499.782	4.39
499.983	4.02
500.183	4.24
500.383	3.92
500.584	3.76
500.784	3.99
500.984	3.79
501.184	3.87
501.385	3.97
501.585	3.7
501.785	3.67
501.985	4.09
502.185	4.23
502.386	3.62
502.586	3.98
502.786	4.1
502.986	4.44
503.186	4.06
503.386	4.2
503.586	4.27
503.786	4.67
503.987	4.53
504.187	4.47
504.387	4.53
504.587	4.88
504.787	5.32
504.987	5.16
505.187	4.46
505.387	4.17
505.587	3.25
505.786	2.89
505.986	2.73
506.186	2.85
506.386	2.59
506.586	2.94
506.786	3.76
506.986	3.69
507.186	3.9
507.386	4
507.585	4.75
507.785	5.03
507.985	5.57
508.185	5.88
508.384	5.93
508.584	6.15
508.784	5.61
508.984	5.54
509.183	4.93
509.383	4.75
509.583	5.34
509.782	4.82
509.982	5.04
510.182	4.41
510.381	4.19
510.581	4.72
510.781	4.94
510.98	4.78
511.18	4.45
511.379	4.98
511.579	5.11
511.778	4.64
511.978	5.09
512.177	5.25
512.377	5.86
512.576	6.47
512.776	6.04
512.975	5.67
513.175	6.11
513.374	5.99
513.573	5.78
513.773	5.59
513.972	5.11
514.172	5.14
514.371	4.97
514.57	4.56
514.77	4.16
514.969	4.42
515.168	4.98
515.367	5.12
515.567	5.16
515.766	4.99
515.965	5.36
516.164	5.78
516.364	5.79
516.563	5.79
516.762	5.8
516.961	5.91
517.16	6.27
517.359	6.17
517.559	6.13
517.758	6.27
517.957	6.41
518.156	6.26
518.355	6.39
518.554	6.23
518.753	6.33
518.952	6.37
519.151	6.02
519.35	5.4
519.549	5.2
519.748	5.17
519.947	5.08
520.146	4.92
520.345	5.43
520.544	5.43
520.743	5
520.942	5.3
521.141	5.44
521.339	5.87
521.538	6.09
521.737	6.16
521.936	6.14
522.135	6.21
522.333	6.28
522.532	6.13
522.731	5.97
522.93	6.27
523.129	6.13
523.327	5.96
523.526	5.71
523.725	5.77
523.923	6.07
524.122	6.29
524.321	6.16
524.519	5.78
524.718	5.74
524.917	6.16
525.115	6.39
525.314	6.3
525.512	6.36
525.711	6.34
525.909	6.27
526.108	6.22
526.306	5.84
526.505	5.83
526.703	6.37
526.902	6.27
527.1	6.2
527.299	6.24
527.497	6.32
527.696	6.38
527.894	6.46
528.092	6.55
528.291	6.52
528.489	6.79
528.688	6.86
528.886	6.82
529.084	7.21
529.283	7.03
529.481	6.95
529.679	6.75
529.877	6.82
530.076	6.51
530.274	6.76
530.472	6.8
530.67	6.85
530.869	7.07
531.067	6.79
531.265	6.44
531.463	6.27
531.661	6.31
531.859	6.66
532.057	6.67
532.255	6.78
532.454	6.65
532.652	7
532.85	6.72
533.048	6.74
533.246	7.05
533.444	7.29
533.642	7.8
533.84	8.12
534.038	8.08
534.236	8.2
534.434	8.41
534.632	8.36
534.83	8.02
535.027	8.17
535.225	8.03
535.423	8.08
535.621	7.77
535.819	7.52
536.017	7.28
536.215	7.27
536.412	6.84
536.61	7.08
536.808	6.99
537.006	6.98
537.203	7.07
537.401	7.23
537.599	7.27
537.797	7.36
537.994	7.8
538.192	7.69
538.39	7.75
538.587	8.26
538.785	8.13
538.983	8.45
539.18	8.55
539.378	8.33
539.575	8.16
539.773	8.2
539.97	8.14
540.168	8.09
540.366	8.2
540.563	8.25
540.761	8.21
540.958	8.42
541.155	8.09
541.353	7.93
541.55	8.39
541.748	8.64
541.945	8.37
542.143	8.33
542.34	8.43
542.537	8.03
542.735	7.77
542.932	7.85
543.129	7.47
543.327	7.67
543.524	8.02
543.721	7.83
543.919	7.44
544.116	7.62
544.313	8.27
544.51	8.33
544.708	8.71
544.905	8.89
545.102	8.86
545.299	9.36
545.496	9.57
545.693	9.6
545.891	9.82
546.088	9.95
546.285	10.38
546.482	10.02
546.679	9.81
546.876	9.88
547.073	9.63
547.27	9.67
547.467	9.81
547.664	9.71
547.861	9.46
548.058	8.85
548.255	8.63
548.452	7.86
548.649	7.91
548.846	7.92
549.043	8.48
549.24	9.03
549.437	9.34
549.633	9.75
549.83	9.59
550.027	9.63
550.224	9.79
550.421	10.09
550.618	10.33
550.814	10.58
551.011	10.09
551.208	10.22
551.405	10.23
551.601	10.25
551.798	8.95
551.995	8.98
552.191	8.84
552.388	8.62
552.585	8.19
552.781	7.79
552.978	6.87
553.175	7.51
553.371	7.7
553.568	7.7
553.764	7.29
553.961	8.06
554.157	8.38
554.354	8.64
554.55	8.99
554.747	9.72
554.943	10.34
555.14	11.63
555.336	11.6
555.533	10.51
555.729	10.48
555.926	10.28
556.122	9.62
556.318	9.32
556.515	9.24
556.711	8.91
556.907	9.18
557.104	9.31
557.3	8.3
557.496	8.44
557.693	9.29
557.889	9.67
558.085	10.6
558.281	11.39
558.478	11.44
558.674	11.43
558.87	12.51
559.066	11.88
559.262	11.6
559.459	12.32
559.655	12.64
559.851	12.42
560.047	12.24
560.243	12.02
560.439	11.86
560.635	11.89
560.831	12.12
561.027	11.62
561.223	11.37
561.419	11.92
561.615	11.97
561.811	11.3
562.007	10.72
562.203	10.41
562.399	9.71
562.595	9.39
562.791	9.57
562.987	9.59
563.183	9.61
563.379	10.53
563.575	10.32
563.771	10.26
563.966	10.85
564.162	11.51
564.358	11.88
564.554	12.15
564.75	12.53
564.945	12.43
565.141	12.51
565.337	12.12
565.533	12.06
565.728	11.57
565.924	11.31
566.12	10.85
566.315	10.23
566.511	10.19
566.707	10.5
566.902	10.12
567.098	10.33
567.293	10.77
567.489	11.03
567.684	10.66
567.88	10.69
568.076	10.88
568.271	10.47
568.467	10.68
568.662	10.31
568.858	10.19
569.053	10.29
569.248	10.15
569.444	9.18
569.639	9.54
569.835	10.3
570.03	11.05
570.225	11.34
570.421	12.13
570.616	12.06
570.812	11.9
571.007	12.17
571.202	12.28
571.397	12.37
571.593	12.96
571.788	12.93
571.983	12.4
572.178	11.8
572.374	11.27
572.569	10.59
572.764	11.31
572.959	11.33
573.154	10.7
573.35	11
573.545	11.09
573.74	10.96
573.935	10.66
574.13	10.83
574.325	10.84
574.52	11.71
574.715	12.07
574.91	11.41
575.105	12.14
575.3	12.3
575.495	12.12
575.69	12.03
575.885	12.34
576.08	12.95
576.275	13.03
576.47	13.55
576.665	13.67
576.86	13.73
577.055	14.1
577.25	13.81
577.444	13.81
577.639	13.52
577.834	13.43
578.029	12.87
578.224	12.65
578.418	12.59
578.613	12.59
578.808	11.56
579.003	11.07
579.197	10.65
579.392	10.43
579.587	11.27
579.781	11.41
579.976	11.26
580.171	10.74
580.365	10.34
580.56	10.85
580.755	11.68
580.949	12.02
581.144	13.08
581.338	13.84
581.533	13.7
581.727	13.18
581.922	13.7
582.116	13.9
582.311	14.49
582.505	15.44
582.7	15.84
582.894	15.65
583.089	15.6
583.283	15.51
583.478	15.63
583.672	15.91
583.866	15.94
584.061	15.81
584.255	16.25
584.449	15.88
584.644	15.01
584.838	14.81
585.032	14.24
585.226	14.91
585.421	14.75
585.615	14.05
585.809	13.59
586.003	13.34
586.198	13.41
586.392	13.2
586.586	14.19
586.78	14.59
586.974	13.82
587.168	14.05
587.363	13.58
587.557	13.81
587.751	14.29
587.945	14.97
588.139	14.89
588.333	14.81
588.527	15.31
588.721	15.15
588.915	14.33
589.109	13.8
589.303	13.15
589.497	13.03
589.691	12.07
589.885	12.19
590.079	11.92
590.273	12.12
590.466	11.74
590.66	11.02
590.854	11.34
591.048	12.25
591.242	12.93
591.436	12.69
591.629	12.37
591.823	13.25
592.017	12.66
592.211	12.35
592.404	12.95
592.598	13.24
592.792	13.23
592.986	12.42
593.179	11.66
593.373	11.5
593.567	11.22
593.76	11.15
593.954	10.92
594.147	11.2
594.341	11.22
594.535	11.41
594.728	12.14
594.922	12.08
595.115	12.38
595.309	12.6
595.502	11.97
595.696	12.36
595.889	13.38
596.083	13.38
596.276	13.2
596.47	13.7
596.663	12.9
596.856	12.22
597.05	12.62
597.243	12.51
597.437	12.41
597.63	12.88
597.823	13.98
598.017	12.81
598.21	12.8
598.403	12.73
598.596	12.33
598.79	12.31
598.983	12.29
599.176	11.94
599.369	12.26
599.563	12.08
599.756	12.95
599.949	13.03
600.142	13.03
600.335	12.78
600.528	13.22
600.722	13.54
600.915	14.19
601.108	13.91
601.301	14.09
601.494	14.36
601.687	15.11
601.88	14.95
602.073	13.95
602.266	14.4
602.459	14.73
602.652	14.51
602.845	14.43
603.038	13.97
603.231	14.19
603.424	13.97
603.617	13.64
603.809	13
604.002	12.66
604.195	13.02
604.388	12.93
604.581	12.92
604.774	12.53
604.966	12.92
605.159	13.03
605.352	13.22
605.545	13.2
605.737	13.62
605.93	13.82
606.123	13.65
606.316	13.4
606.508	13.79
606.701	13
606.894	12.85
607.086	12.47
607.279	12.53
607.471	12.53
607.664	12.78
607.857	11.9
608.049	11.97
608.242	12.32
608.434	12.55
608.627	12.02
608.819	12.42
609.012	13.82
609.204	13.74
609.397	13.54
609.589	13.17
609.782	12.96
609.974	12.53
610.166	13.68
610.359	14.12
610.551	13.84
610.743	13.81
610.936	13.8
611.128	12.71
611.32	12.94
611.513	13.21
611.705	13.97
611.897	14.17
612.09	15.22
612.282	14.24
612.474	14.54
612.666	14.47
612.858	14.76
613.051	15.32
613.243	16.38
613.435	16.13
613.627	15.83
613.819	14.99
614.011	14.95
614.203	14.78
614.395	14.06
614.588	12.8
614.78	12.86
614.972	13.09
615.164	12.86
615.356	11.87
615.548	11.71
615.74	12.22
615.932	12.01
616.124	12.33
616.315	11.93
616.507	12.16
616.699	12.61
616.891	12.97
617.083	13.05
617.275	13.44
617.467	14.21
617.659	14.83
617.85	15.17
618.042	16.24
618.234	16.59
618.426	17.2
618.618	17.95
618.809	18.32
619.001	18.73
619.193	17.63
619.384	17.62
619.576	16.73
619.768	16.97
619.959	16.42
620.151	15.84
620.343	15.96
620.534	16.07
620.726	15.75
620.917	15.47
621.109	15.11
621.301	15.48
621.492	15.86
621.684	16.53
621.875	16.36
622.067	16.7
622.258	15.76
622.45	16.32
622.641	15.71
622.832	15.09
623.024	15.79
623.215	15.57
623.407	15.6
623.598	15.52
623.789	15.51
623.981	15.52
624.172	15.21
624.363	15.95
624.555	14.42
624.746	15.56
624.937	16.18
625.129	15.47
625.32	15.65
625.511	16.34
625.702	15.97
625.893	15.6
626.085	15.97
626.276	16.05
626.467	16.61
626.658	17.52
626.849	16.64
627.04	15.96
627.231	15.58
627.422	15.18
627.614	14.08
627.805	13.83
627.996	14.5
628.187	13.86
628.378	14.22
628.569	13.93
628.76	12.79
628.951	13.03
629.142	13.37
629.332	13.41
629.523	15.16
629.714	15.85
629.905	15.16
630.096	14.33
630.287	13.87
630.478	12.61
630.669	12.58
630.859	14.23
631.05	13.95
631.241	14.52
631.432	15.05
631.623	13.26
631.813	14.27
632.004	15.35
632.195	16.3
632.385	15.59
632.576	16.01
632.767	15.17
632.957	14.69
633.148	15.43
633.339	15.93
633.529	16.38
633.72	16.67
633.91	16.4
634.101	16.34
634.292	15.37
634.482	16.45
634.673	17.32
634.863	18.04
635.054	17.57
635.244	17.96
635.435	17.37
635.625	16.5
635.815	16.66
636.006	15.91
636.196	16.5
636.387	16.88
636.577	17.53
636.767	17.04
636.958	15.58
637.148	15.59
637.338	15.42
637.529	14.95
637.719	15.26
637.909	14.58
638.099	15.3
638.29	14.54
638.48	13.87
638.67	13.35
638.86	12.98
639.05	14.85
639.241	15.37
639.431	13.82
639.621	12.52
639.811	12.15
640.001	13.86
640.191	12.3
640.381	12.21
640.571	12.43
640.761	12.31
640.951	12.43
641.141	12.27
641.331	11.57
641.521	13.17
641.711	14.24
641.901	14.94
642.091	13.02
642.281	14.99
642.471	15.11
642.661	16.48
642.851	15.67
643.041	15.34
643.231	14.59
643.42	15.98
643.61	15.63
643.8	16.04
643.99	16.04
644.18	17.68
644.369	17.43
644.559	17.43
644.749	17.33
644.939	17.55
645.128	18.65
645.318	19.18
645.508	18
645.697	17.28
645.887	17.3
646.076	17.23
646.266	16.74
646.456	14.63
646.645	13.15
646.835	13.43
647.024	15.48
647.214	14.79
647.403	14.78
647.593	14.94
647.782	14.38
647.972	14
648.161	13.08
648.351	13.37
648.54	15.61
648.73	15.72
648.919	14.21
649.108	12.09
649.298	11.91
649.487	12.32
649.677	11.82
649.866	12.29
650.055	13.15
650.244	13.45
650.434	13.07
650.623	12.47
650.812	13.77
651.002	14.62
651.191	16.3
651.38	16.66
651.569	17.6
651.758	18.74
651.947	19.35
652.137	19.3
652.326	19.69
652.515	18.82
652.704	19.29
652.893	19.42
653.082	19.59
653.271	18.63
653.46	18.09
653.649	17.23
653.838	17.26
654.027	17.96
654.216	17.68
654.405	18.2
654.594	19.06
654.783	18.36
654.972	18.42
655.161	17.06
655.35	16.99
655.539	18.02
655.728	17.59
655.916	16.81
656.105	15.27
656.294	15.57
656.483	14.66
656.672	14.56
656.86	14.65
657.049	14.59
657.238	15.62
657.427	16.43
657.615	16.02
657.804	16.29
657.993	16.01
658.181	16.65
658.37	16.53
658.559	17.62
658.747	18.51
658.936	17.81
659.125	16.77
659.313	16.96
659.502	15.86
659.69	16.81
659.879	16.94
660.067	17.32
660.256	17.6
660.444	16.82
660.633	16.46
660.821	15.72
661.01	16.69
661.198	17.17
661.387	16.86
661.575	17.43
661.763	17.2
661.952	16.44
662.14	17.14
662.328	16.43
662.517	17.64
662.705	17.37
662.893	17.42
663.082	16.96
663.27	17.06
663.458	15.32
663.646	15.78
663.834	16.04
664.023	16.17
664.211	14.96
664.399	14.82
664.587	15.01
664.775	16.09
664.963	15.91
665.152	18.13
665.34	18.3
665.528	19.84
665.716	20.45
665.904	20.67
666.092	19.93
666.28	19.59
666.468	19.06
666.656	18.99
666.844	18.67
667.032	17.87
667.22	15.9
667.408	16.17
667.596	16.25
667.784	14.87
667.971	13.48
668.159	13.21
668.347	13.84
668.535	14.29
668.723	13.38
668.911	13.41
669.098	13.74
669.286	13.29
669.474	12.89
669.662	13.64
669.849	14.38
670.037	15.58
670.225	16.69
670.413	16.54
670.6	17.47
670.788	17.21
670.976	16.3
671.163	17.53
671.351	17.28
671.538	17.22
671.726	16
671.913	15.64
672.101	15.04
672.289	15.98
672.476	15.87
672.664	16.08
672.851	16.15
673.039	16
673.226	15.36
673.413	16.22
673.601	15.72
673.788	15.33
673.976	15.44
674.163	16
674.35	15.31
674.538	16.44
674.725	17.41
674.912	18.35
675.1	19.12
675.287	19.25
675.474	19.79
675.662	20.55
675.849	21.38
676.036	20.52
676.223	20.49
676.411	20.53
676.598	19.43
676.785	19.94
676.972	18.81
677.159	17.36
677.346	17.22
677.533	16.13
677.721	15.59
677.908	16.41
678.095	17.86
678.282	17.04
678.469	16.52
678.656	17.12
678.843	15.42
679.03	15.7
679.217	17.02
679.404	16.54
679.591	18.18
679.778	18.45
679.964	18.33
680.151	16.63
680.338	17.15
680.525	15.57
680.712	15.2
680.899	16.18
681.086	17.29
681.272	16.34
681.459	15.92
681.646	14.24
681.833	15.93
682.02	15.19
682.206	15.65
682.393	15.95
682.58	17.9
682.766	18.07
682.953	18.43
683.14	17.44
683.326	17.81
683.513	19.14
683.7	19.08
683.886	17.46
684.073	17.38
684.259	18.11
684.446	18.08
684.632	17.84
684.819	17.06
685.005	15.52
685.192	13.93
685.378	15.77
685.565	15.29
685.751	15.66
685.938	16.42
686.124	16.32
686.31	15.77
686.497	15.82
686.683	15.53
686.87	15.27
687.056	15.27
687.242	16.3
687.429	15.21
687.615	14.83
687.801	15.19
687.987	14.72
688.174	15.11
688.36	14.76
688.546	12.53
688.732	13.35
688.918	13.13
689.105	11.57
689.291	13.69
689.477	13.04
689.663	13.41
689.849	13.27
690.035	13.52
690.221	12.74
690.407	11.4
690.593	11.7
690.779	11.63
690.965	12.65
691.151	13.29
691.337	11.65
691.523	13.14
691.709	13.2
691.895	12.66
692.081	12.35
692.267	11.06
692.453	12.89
692.639	13.58
692.825	12.61
693.011	11.24
693.196	10.3
693.382	8.67
693.568	4.52
693.754	4.96
693.94	7.04
694.125	8.06
694.311	9.47
694.497	10.8
694.682	9.72
694.868	10.18
695.054	12.05
695.239	13.98
695.425	15.02
695.611	18.45
695.796	17.77
695.982	17.23
696.168	16.11
696.353	15.8
696.539	14.4
696.724	16.76
696.91	17.16
697.095	16.04
697.281	15.99
697.466	15.45
697.652	14.95
697.837	14.1
698.023	13.86
698.208	13.64
698.393	13.97
698.579	14.98
698.764	14.31
698.949	14.24
699.135	15.73
699.32	14.64
699.505	14.8
699.691	15.29
699.876	16.89
700.061	16.98
700.246	18.28
700.432	20.63
700.617	20.93
700.802	21.2
700.987	21.25
701.172	20.26
701.358	20.98
701.543	22.35
701.728	20.15
701.913	18
702.098	18.25
702.283	19.51
702.468	14.7
702.653	14.49
702.838	14.87
703.023	15.61
703.208	16.39
703.393	15.8
703.578	16.59
703.763	19.47
703.948	21.32
704.133	21.41
704.318	17.71
704.503	21.66
704.688	22.6
704.873	20.84
705.057	19.69
705.242	19.78
705.427	22.63
705.612	21.94
705.797	20.13
705.981	19.51
706.166	18.31
706.351	20.03
706.536	17.78
706.72	17.69
706.905	18.51
707.09	18.59
707.274	17.31
707.459	15.65
707.644	15.04
707.828	16.1
708.013	17.38
708.197	18.88
708.382	17.52
708.567	18.13
708.751	18.39
708.936	19.18
709.12	18.92
709.305	17.79
709.489	18.72
709.673	18.32
709.858	19.2
710.042	16.53
710.227	14.32
710.411	14.72
710.596	13.52
710.78	11.1
710.964	8.91
711.149	10.58
711.333	13.03
711.517	13.55
711.702	13.14
711.886	13.07
712.07	15.26
712.254	17.37
712.438	18.56
712.623	19.44
712.807	20.7
712.991	21.85
713.175	20.22
713.359	20.23
713.544	18.68
713.728	20.74
713.912	18.71
714.096	19.44
714.28	18.92
714.464	16.31
714.648	17.59
714.832	16.25
715.016	15.35
715.2	14.72
715.384	13.66
715.568	14.56
715.752	13.43
715.936	14.27
716.12	14.1
716.304	14.12
716.488	15.81
716.671	14.22
716.855	12.65
717.039	13.61
717.223	14.54
717.407	14.14
717.59	14.06
717.774	14.1
717.958	12.77
718.142	12.53
718.325	12.27
718.509	12.75
718.693	12.37
718.877	12.47
719.06	10.98
719.244	10.57
719.428	11.92
719.611	12.06
719.795	8.09
719.978	9.82
720.162	10.51
720.345	12.47
720.529	12.97
720.713	13
720.896	13.26
721.08	14.42
721.263	15.81
721.446	14.52
721.63	11.78
721.813	15.02
721.997	10.51
722.18	10.09
722.364	8.45
722.547	6.89
722.73	7.98
722.914	13.59
723.097	14.69
723.28	13.36
723.464	14.14
723.647	15.93
723.83	16.31
724.013	22.15
724.197	19.93
724.38	20.05
724.563	19.02
724.746	19.42
724.929	16.56
725.112	16.26
725.296	17.37
725.479	16.1
725.662	15.23
725.845	15.64
726.028	13.63
726.211	16.45
726.394	16.69
726.577	19.2
726.76	18.62
726.943	17.63
727.126	14.27
727.309	13.08
727.492	16.52
727.675	16.13
727.858	17.28
728.041	17.72
728.224	16.21
728.407	16.36
728.589	13.91
728.772	11.29
728.955	13.77
729.138	15.4
729.321	17.09
729.503	14.75
729.686	16.8
729.869	13.66
730.052	12.31
730.234	10.2
730.417	8.14
730.6	9.84
730.782	12.63
730.965	11.85
731.148	11.87
731.33	10.04
731.513	9.01
731.695	7.9
731.878	10.11
732.061	10.87
732.243	14.12
732.426	15.07
732.608	16.68
732.791	14.78
732.973	15.91
733.156	14.24
733.338	15.47
733.52	16.92
733.703	14.98
733.885	13.97
734.068	16.67
734.25	15.96
734.432	17.52
734.615	18.41
734.797	19.66
734.979	17.99
735.162	19.14
735.344	20.23
735.526	21.53
735.708	23.24
735.891	26.44
736.073	23.93
736.255	28.65
736.437	26.58
736.619	24.64
736.802	27.03
736.984	26.24
737.166	27.31
737.348	24.36
737.53	22.4
737.712	23.07
737.894	20.47
738.076	20.09
738.258	13.48
738.44	15.92
738.622	15.26
738.804	15.41
738.986	16.47
739.168	17.91
739.35	17.72
739.532	15.75
739.714	16.02
739.896	16.42
740.078	16.35
740.259	18.98
740.441	18.83
740.623	15.54
740.805	16.02
740.987	16.6
741.168	14.97
741.35	14.04
741.532	17.35
741.714	17.99
741.895	16.71
742.077	19.3
742.259	20.55
742.44	19.24
742.622	20.91
742.804	19.57
742.985	16.84
743.167	14.26
743.348	15.91
743.53	17.18
743.711	15.64
743.893	18.3
744.075	17.08
744.256	14.57
744.438	15.27
744.619	18.51
744.8	18.35
744.982	20.04
745.163	20.27
745.345	23.05
745.526	20.67
745.707	19.38
745.889	18.39
746.07	15.92
746.252	19.71
746.433	21.43
746.614	22.44
746.795	22.75
746.977	24.36
747.158	29.99
747.339	29.8
747.52	32.18
747.702	30.92
747.883	28.39
748.064	31.88
748.245	30.03
748.426	25.44
748.607	22.5
748.788	23.67
748.97	21.19
749.151	17.69
749.332	16.39
749.513	14.86
749.694	17.55
749.875	17.77
750.056	18.5
750.237	16.79
750.418	16.76
750.599	18.47
750.78	16.2
750.96	20.03
751.141	23.59
751.322	22.44
751.503	24.19
751.684	28.34
751.865	27.27
752.046	24.78
752.226	29.1
752.407	31.71
752.588	30.65
752.769	27.73
752.949	26.1
753.13	22.49
753.311	24.1
753.492	22.59
753.672	23.01
753.853	22.08
754.034	24.17
754.214	21.72
754.395	24.42
754.575	26.05
754.756	29.71
754.937	27.23
755.117	32.35
755.298	33.11
755.478	33.6
755.659	27.11
755.839	29.51
756.02	29.56
756.2	29.68
756.381	28.87
756.561	27.53
756.741	24.3
756.922	22.78
757.102	20.27
757.283	19.94
757.463	18.48
757.643	21.02
757.823	16.97
758.004	18.79
758.184	15.48
758.364	15.44
758.545	13.92
758.725	16.96
758.905	16.22
759.085	14.39
759.265	11.03
759.446	11.37
759.626	8.83
759.806	12.05
759.986	10.62
760.166	12.77
760.346	8.46
760.526	9.67
760.706	10.22
760.886	13
761.066	10.61
761.246	6.47
761.426	8.36
761.606	10.54
761.786	8.94
761.966	9.65
762.146	9.26
762.326	9.06
762.506	10.57
762.686	9.32
762.866	9.14
763.046	12.91
763.225	18.32
763.405	16.07
763.585	16.82
763.765	18.85
763.945	19.69
764.124	19.51
764.304	22.55
764.484	21.24
764.664	24.06
764.843	26.28
765.023	25.44
765.203	23.03
765.382	21.68
765.562	20.05
765.741	18.39
765.921	12.33
766.101	18.78
766.28	20.64
766.46	21.41
766.639	18.75
766.819	14.86
766.998	11.27
767.178	14.83
767.357	20.17
767.537	19.59
767.716	24.49
767.896	30.44
768.075	27.2
768.254	22.92
768.434	27.86
768.613	28.12
768.792	30.04
768.972	28.99
769.151	24.38
769.33	22.38
769.51	23.65
769.689	21.29
769.868	18.43
770.047	16.49
770.226	20.49
770.406	17.49
770.585	15.18
770.764	14.72
770.943	16.93
771.122	23.58
771.301	24.74
771.48	22.32
771.66	21.18
771.839	24.06
772.018	25.45
772.197	23.28
772.376	21.88
772.555	24.69
772.734	20.08
772.913	25.05
773.092	22.12
773.271	17.56
773.449	24.13
773.628	26.99
773.807	25.64
773.986	26.43
774.165	23.19
774.344	21.51
774.523	19.86
774.701	22.29
774.88	22.22
775.059	16.54
775.238	20.87
775.417	20.21
775.595	20.09
775.774	22.94
775.953	20.69
776.131	28.23
776.31	26.75
776.489	27.05
776.667	27.4
776.846	27.82
777.025	35.44
777.203	37.35
777.382	31.28
777.56	28.56
777.739	25.72
777.917	27.28
778.096	22.45
778.274	19.04
778.453	27.02
778.631	33.81
778.81	28.15
778.988	24.95
779.166	25.19
779.345	27.79
779.523	27.73
779.702	29.19
779.88	31.62
780.058	33.43
780.237	36.47
780.415	30.67
780.593	23.77
780.771	27.5
780.95	26.33
781.128	23.68
781.306	27.19
781.484	28
781.662	28.92
781.841	29.16
782.019	27.79
782.197	30.01
782.375	36.08
782.553	37.54
782.731	32.42
782.909	35.08
783.087	38.12
783.265	35.83
783.443	33.46
783.621	36.66
783.799	26.93
783.977	26.26
784.155	24.4
784.333	15.57
784.511	11.2
784.689	8.85
784.867	6.56
785.045	-0.09
785.223	-1.71
785.4	7.48
785.578	9.1
785.756	17.6
785.934	12.83
786.112	11.69
786.289	9.11
786.467	8.2
786.645	11.17
786.823	10.25
787	11.27
787.178	18.03
787.356	8.17
787.533	-4.98
787.711	-5.17
787.889	-5.62
788.066	1.23
788.244	7.92
788.421	15.76
788.599	21.27
788.776	20.82
788.954	21.16
789.131	15.7
789.309	21.96
789.486	26.15
789.664	22.03
789.841	26.19
790.019	24.06
790.196	25.65
790.373	24.56
790.551	23.44
790.728	28.72
790.906	27.66
791.083	30.69
791.26	29.34
791.437	33.25
791.615	31.22
791.792	34.48
791.969	34.23
792.146	30.48
792.324	25.62
792.501	23.24
792.678	8.64
792.855	11.04
793.032	16.88
793.209	11.43
793.387	7.29
793.564	12.26
793.741	11.72
793.918	6.9
794.095	6.91
794.272	7.97
794.449	11.02
794.626	18.67
794.803	20.2
794.98	17.7
795.157	21.2
795.334	29.33
795.511	29.36
795.688	31.27
795.864	41.07
796.041	50.54
796.218	48.86
796.395	51.15
796.572	49.98
796.749	52.73
796.925	45.35
797.102	43.26
797.279	39.41
797.456	39.18
797.632	28.59
797.809	21.61
797.986	14.05
798.162	13.93
798.339	1.84
798.516	0.29
798.692	6.24
798.869	7.99
799.046	15.5
799.222	12.88
799.399	14.15
799.575	16.18
799.752	20.77
799.928	18.05
800.105	21.13
800.281	29.62
800.458	28.09
800.634	19.42
800.811	20.79
800.987	24.1
801.163	29.27
801.34	26.78
801.516	28.26
801.692	25.03
801.869	38.43
802.045	46.01
802.221	42.45
802.398	42.31
802.574	43.47
802.75	38.66
802.926	31.62
803.103	35.65
803.279	34.63
803.455	38.68
803.631	28.16
803.807	18.65
803.983	11.15
804.16	11.63
804.336	8.73
804.512	7.67
804.688	9.9
804.864	3.52
805.04	-9.19
805.216	-8.2
805.392	-15.59
805.568	3.06
805.744	6.46
805.92	11.59
806.096	15.62
806.272	16.76
806.448	20.68
806.623	20.09
806.799	28.74
806.975	28.82
807.151	33.19
807.327	28.8
807.503	27.33
807.678	22.42
807.854	19
808.03	15.62
808.206	13.91
808.381	12.56
808.557	17.75
808.733	12.21
808.908	18.37
809.084	19.38
809.26	30.33
809.435	24.91
809.611	26.32
809.787	27.92
809.962	26.35
810.138	22.1
810.313	18.9
810.489	24.43
810.664	17.23
810.84	24.96
811.015	19.28
811.191	11.25
811.366	15.12
811.542	22.43
811.717	17.73
811.892	28.08
812.068	38.12
812.243	37.76
812.419	40.47
812.594	33.79
812.769	29.51
812.944	30.32
813.12	35.44
813.295	35.96
813.47	28.31
813.645	35.27
813.821	31.69
813.996	29.3
814.171	24.77
814.346	21.43
814.521	32.1
814.697	33.48
814.872	30.95
815.047	32.66
815.222	29.63
815.397	33.43
815.572	29.74
815.747	28.09
815.922	23.44
816.097	29.92
816.272	39.36
816.447	34.68
816.622	33.24
816.797	32.61
816.972	24.7
817.147	24.17
817.322	28.81
817.496	30.03
817.671	29.8
817.846	28.55
818.021	22.49
818.196	12.68
818.371	13.37
818.545	8.49
818.72	6.96
818.895	16.97
819.069	16
819.244	16.68
819.419	9.22
819.594	6.52
819.768	6.08
819.943	6.76
820.117	9.86
820.292	8.77
820.467	8.41
820.641	9.69
820.816	6.95
820.99	7.16
821.165	5.61
821.339	6.93
821.514	6.65
821.688	6.68
821.863	9.05
822.037	8.1
822.212	9.62
822.386	8.71
822.56	7.99
822.735	8.15
822.909	5.51
823.084	5.85
823.258	5.44
823.432	5.82
823.606	7.4
823.781	1.98
823.955	3.18
824.129	-0.54
824.303	6.18
824.478	3.94
824.652	3.04
824.826	9.81
825	9.25
825.174	9.42
825.348	8.75
825.523	8.61
825.697	8.09
825.871	6.71
826.045	9.97
826.219	6.35
826.393	7.48
826.567	8.09
826.741	6.71
826.915	7.25
827.089	6.01
827.263	8.51
827.437	6.58
827.611	8.56
827.784	9.29
827.958	4.44
828.132	4.08
828.306	3.29
828.48	-2.48
828.654	-4.56
828.827	-1.83
829.001	9.5
829.175	5.64
829.349	11.77
829.522	11.44
829.696	9.23
829.87	10.97
830.044	12.39
830.217	16.84
830.391	9.15
830.565	11.29
830.738	0.41
830.912	-12.58
831.085	-6.74
831.259	-15.03
831.432	-0.55
831.606	-3.94
831.779	4.59
831.953	0.89
832.126	3.88
832.3	16.81
832.473	16.81
832.647	22.49
832.82	18.67
832.994	18.6
833.167	21.6
833.34	14.92
833.514	23.82
833.687	18.44
833.86	24.11
834.034	25.97
834.207	24.82
834.38	20.54
834.553	16.89
834.727	17.68
834.9	11.89
835.073	7.47
835.246	10.05
835.419	1.74
835.593	0.11
835.766	-6.04
835.939	-14.21
836.112	-28.77
836.285	-26.43
836.458	-18.99
836.631	-12.61
836.804	4.01
836.977	12.04
837.15	11.31
837.323	6.73
837.496	-0.83
837.669	3.85
837.842	-1.34
838.015	13.64
838.188	21.53
838.361	5.62
838.533	17.65
838.706	1.56
838.879	-5.37
839.052	-16.67
839.225	1.5
839.398	10.53
839.57	14.71
839.743	8.72
839.916	10.41
840.088	19.67
840.261	21.88
840.434	-0.67
840.607	7.27
840.779	8.72
840.952	23.86
841.124	6.2
841.297	14.61
841.47	22.85
841.642	38.15
841.815	32.13
841.987	20.91
842.16	18.39
842.332	26.49
842.505	23.76
842.677	25.38
842.85	21.86
843.022	17.84
843.194	14.54
843.367	2.55
843.539	-0.62
843.712	12.09
843.884	11.28
844.056	10.02
844.229	4.74
844.401	-5.85
844.573	-2.38
844.745	6.09
844.918	15.79
845.09	5
845.262	-19.1
845.434	-29.92
845.606	-31.05
845.779	-62.74
845.951	-37.16
846.123	-56.46
846.295	-20.94
846.467	-46.27
846.639	-122.27
846.811	-230.68
846.983	-214.84
847.155	-82.89
847.327	-40.49
847.499	-99.32
847.671	-27.12
847.843	-86.14
848.015	-58.29
848.187	-92.98
848.359	-311.24
848.531	-341.98
848.703	-133.82
848.875	-250.81
849.047	-245.1
849.218	-183.9
849.39	-32.3
849.562	-242.31
849.734	-49.67
849.905	-60.23
850.077	-69.93
850.249	-10.53
850.421	-5.5
850.592	13.09
850.764	11.21
850.936	24.54
851.107	7.63
851.279	-12.37
851.451	21.84
851.622	29.03
851.794	38.86
851.965	32.31
852.137	24.2
852.308	3.58
852.48	-7.72
852.651	1.72
852.823	-36.51
852.994	-39.5
853.166	-6.66
853.337	-7.61
853.509	-5.7
853.68	-0.64
853.851	3.81
854.023	16.72
854.194	33.57
854.365	44.35
854.537	34.53
854.708	40.07
854.879	42.85
855.05	41.16
855.222	33.07
855.393	32.71
855.564	13.39
855.735	16
855.906	-21.65
856.078	-48.22
856.249	-139.57
856.42	-74.69
856.591	-35.33
856.762	-60.41
856.933	-73.93
857.104	-20.63
857.275	-77.78
857.446	-59.15
857.617	-93.72
857.788	-22.56
857.959	29.62
858.13	34.33
858.301	12.34
858.472	8.13
858.643	11.85
858.814	30.19
858.985	17.38
859.155	25.35
859.326	46.68
859.497	69.52
859.668	55.16
859.839	14.5
860.009	18.54
860.18	16.58
860.351	11.04
860.522	-3.47
860.692	-50.09
860.863	-65.94
861.034	-81.45
861.204	-88.35
861.375	-105.31
861.546	-138.78
861.716	-168.22
861.887	-115.37
862.057	-78.2
862.228	-49.34
862.398	-34.38
862.569	-13.52
862.739	-3.89
862.91	29.44
863.08	39.36
863.251	52.25
863.421	52.95
863.592	47.29
863.762	41.63
863.932	36.16
864.103	39.37
864.273	34.56
864.443	50.21
864.614	57.44
864.784	54.69
864.954	57.48
865.125	46.95
865.295	39.7
865.465	48.33
865.635	48.09
865.805	41.84
865.976	43.92
866.146	54.85
866.316	35.62
866.486	30.3
866.656	24.67
866.826	30.7
866.996	22.79
867.166	22.28
867.336	15.97
867.506	23.86
867.676	43.91
867.846	19.33
868.016	1.56
868.186	24.27
868.356	5.77
868.526	41.67
868.696	-13400
868.866	189.41
869.036	19.27
869.206	-241.94
869.376	-214.63
869.545	-72.22
869.715	22.45
869.885	2.92
870.055	57.93
870.224	22.4
870.394	-11.21
870.564	16.39
870.734	26.68
870.903	-34.91
871.073	36.11
871.243	29.71
871.412	65.62
871.582	-12.61
871.751	-54.26
871.921	-121.66
872.091	-60.53
872.26	-40.26
872.43	-50.85
872.599	2.79
872.769	11.12
872.938	-4.86
873.108	-20.09
873.277	-30.45
873.446	-26.27
873.616	-15.81
873.785	-20.22
873.955	-16.26
874.124	-12.38
874.293	-10.8
874.463	-16.88
874.632	-29.21
874.801	-15.07
874.971	-12.94
875.14	-22.93
875.309	-19.35
875.478	-17.75
875.647	-5.41
875.817	7.02
875.986	9.42
876.155	24.96
876.324	19.21
876.493	29.19
876.662	9.67
876.831	23.3
877	39.56
877.17	19.2
877.339	29.18
877.508	13.77
877.677	15.03
877.846	21.86
878.015	12.64
878.184	2.14
878.352	-1.24
878.521	-4.56
878.69	-10.4
878.859	-16.9
879.028	-0.95
879.197	-9.15
879.366	-2.6
879.534	-15.03
879.703	-31.41
879.872	-27.74
880.041	-15.96
880.21	-12.95
880.378	-2.62
880.547	1.96
880.716	4.86
880.884	2.81
881.053	2.85
881.222	5.75
881.39	7.01
881.559	13.04
881.727	18.75
881.896	18.16
882.065	20.34
882.233	14.39
882.402	10.2
882.57	3.2
882.739	1.52
882.907	0.77
883.076	-4.9
883.244	8.97
883.412	19.05
883.581	10.09
883.749	1.27
883.918	-3.45
884.086	7.55
884.254	8.08
884.423	5.48
884.591	13.83
884.759	5.07
884.927	-2.21
885.096	-35.18
885.264	-77.38
885.432	-109.26
885.6	-76.86
885.769	-74.26
885.937	-85.74
886.105	-58.08
886.273	-32.98
886.441	-63.36
886.609	-15.92
886.777	-2.61
886.945	-6.37
887.113	-8.61
887.281	15.37
887.449	3.5
887.617	12.61
887.785	-18.03
887.953	4.95
888.121	-1.98
888.289	-6.59
888.457	-8.92
888.625	-11.42
888.793	1.96
888.961	10.99
889.129	11.36
889.296	9.97
889.464	3.04
889.632	24.35
889.8	-18.85
889.967	-19.33
890.135	16.93
