Data from JASIL_3156_Reflection_2.txt Node
Date: Thu Nov 12 21:35:07 EST 2015
User: Geneva
Spectrometer: USB4E03002
Autoset integration time: false
Trigger mode: 4
Integration Time (sec): 1.000000E-1
Scans to average: 10
Electric dark correction enabled: true
Nonlinearity correction enabled: false
Boxcar width: 5
Stray light correction enabled: false
XAxis mode: Wavelengths
Stop averaging: false
Number of Pixels in Spectrum: 3648
>>>>>Begin Spectral Data<<<<<
177.575	103.6
177.794	111.4
178.014	123.37
178.233	10.39
178.452	-8852.17
178.672	-132.83
178.891	-146.49
179.11	389.64
179.33	177.26
179.549	51.16
179.768	285.04
179.987	98.15
180.207	2.09
180.426	32.2
180.645	15.16
180.864	13.21
181.084	22.83
181.303	5.89
181.522	33
181.741	44.61
181.96	44.72
182.179	24.83
182.398	10.36
182.618	2.08
182.837	-4.03
183.056	13.11
183.275	-25.02
183.494	-10.05
183.713	0.01
183.932	-14.54
184.151	-27.28
184.37	-63.99
184.589	-11.67
184.808	-8.23
185.027	-0.62
185.246	25.99
185.465	10.39
185.684	50.14
185.903	57.27
186.122	28.21
186.341	44.62
186.56	49.25
186.779	77.57
186.998	76.1
187.216	93.41
187.435	113.75
187.654	107.69
187.873	148.17
188.092	69.54
188.311	34.56
188.53	71.82
188.748	80.19
188.967	54.34
189.186	25.23
189.405	20.83
189.623	-21.87
189.842	-17.55
190.061	-65.93
190.28	-24.11
190.498	-8.9
190.717	3.01
190.936	-33.47
191.154	-58.06
191.373	14.02
191.592	-4.36
191.81	2.75
192.029	31.08
192.248	42.6
192.466	57.96
192.685	71.63
192.904	55.35
193.122	53.77
193.341	67.54
193.559	95.96
193.778	129.86
193.996	163.47
194.215	80.95
194.433	47.88
194.652	81.17
194.87	46.34
195.089	5.73
195.307	-2.44
195.526	-15.86
195.744	-12.92
195.963	-3.46
196.181	-5.16
196.399	-14.71
196.618	21.93
196.836	43.99
197.055	47.75
197.273	34.14
197.491	36.29
197.71	112.78
197.928	162.97
198.146	118.28
198.365	1052.54
198.583	-220.69
198.801	-374.89
199.019	-37.8
199.238	-54.21
199.456	-144.42
199.674	-73.3
199.892	-356.9
200.111	-2509.23
200.329	-6150.43
200.547	-285.08
200.765	-1505.84
200.983	1801.06
201.202	669.47
201.42	281.58
201.638	218.19
201.856	234.79
202.074	148.81
202.292	112.22
202.51	107.87
202.728	91.65
202.946	148.13
203.165	90.01
203.383	102.43
203.601	62.73
203.819	73.72
204.037	89.21
204.255	89.78
204.473	76.19
204.691	87.43
204.909	144.87
205.127	170.57
205.345	143.07
205.562	138.4
205.78	108.75
205.998	161.53
206.216	201.96
206.434	195.18
206.652	187.09
206.87	259.83
207.088	151.86
207.306	125.94
207.523	166.71
207.741	124.09
207.959	127.11
208.177	226.96
208.395	166.41
208.612	135.94
208.83	209.63
209.048	-131.83
209.266	3067.86
209.483	58.8
209.701	41.37
209.919	-1048.73
210.136	158.85
210.354	146.19
210.572	-4981.48
210.79	-3091.67
211.007	776.85
211.225	-30.09
211.442	-31.45
211.66	-7.9
211.878	-28.29
212.095	64.91
212.313	73.52
212.53	87.15
212.748	111.53
212.966	128.98
213.183	137.46
213.401	145.17
213.618	160.7
213.836	141.85
214.053	123.73
214.271	122.91
214.488	170.12
214.705	187.63
214.923	125.44
215.14	110.27
215.358	91.68
215.575	102.02
215.793	106.79
216.01	71.12
216.227	68.38
216.445	171.25
216.662	150.62
216.879	157.02
217.097	207.09
217.314	673.61
217.531	1290.23
217.749	924.28
217.966	227.96
218.183	157.69
218.4	136.86
218.618	265.81
218.835	266.45
219.052	232.42
219.269	407.5
219.487	26.48
219.704	19.62
219.921	17.25
220.138	30.79
220.355	80.36
220.572	119.06
220.79	126.92
221.007	109.56
221.224	100.62
221.441	111.02
221.658	116.77
221.875	102.41
222.092	113.16
222.309	232.75
222.526	227.13
222.743	198.09
222.96	103.54
223.177	141.79
223.394	163.01
223.611	380.49
223.828	194.96
224.045	1650.22
224.262	-323.34
224.479	-109.36
224.696	-159.55
224.913	-73.52
225.13	-133.85
225.347	-124.42
225.564	-53.95
225.781	24.64
225.997	15.23
226.214	26.86
226.431	19.09
226.648	6.07
226.865	-0.58
227.082	-37.64
227.298	18.58
227.515	21.29
227.732	24.06
227.949	10.05
228.165	3.02
228.382	21.08
228.599	10.41
228.816	16.06
229.032	14.01
229.249	9.1
229.466	20.25
229.682	-11.47
229.899	-3.13
230.116	-20.71
230.332	-24.99
230.549	-19.41
230.765	-22.52
230.982	-20.32
231.199	-22.87
231.415	-14.9
231.632	-18.48
231.848	-35.99
232.065	-16.08
232.281	-20.2
232.498	-25.67
232.714	-16.98
232.931	-28.36
233.147	-42.57
233.364	-36.78
233.58	-42.04
233.797	-53.92
234.013	-53.8
234.23	-45.6
234.446	-63.87
234.662	-77.28
234.879	-66.1
235.095	-35.71
235.312	-58.28
235.528	-32.24
235.744	-30.69
235.961	-82.83
236.177	-104.06
236.393	-169.56
236.61	-153.71
236.826	-102.07
237.042	-82.92
237.258	-113.63
237.475	-188.39
237.691	-165.37
237.907	-209.77
238.123	-178.18
238.339	-81.79
238.556	-40.32
238.772	1
238.988	21.7
239.204	30.3
239.42	8.93
239.636	15.22
239.853	25.87
240.069	24.71
240.285	7.89
240.501	7.59
240.717	3.99
240.933	-2.48
241.149	-0.08
241.365	-4.77
241.581	-8.68
241.797	-5.54
242.013	-5.69
242.229	-6.42
242.445	-4.51
242.661	3.7
242.877	1.49
243.093	2.03
243.309	1.23
243.525	7.23
243.741	7.56
243.957	9.17
244.173	11.02
244.388	6.77
244.604	6.16
244.82	0.76
245.036	-5.53
245.252	-0.24
245.468	4.78
245.683	3.19
245.899	0.47
246.115	2.6
246.331	0.91
246.547	-2.51
246.762	-0.49
246.978	-2.31
247.194	0.51
247.409	3.55
247.625	2.19
247.841	-2.32
248.057	0.17
248.272	-4.57
248.488	-7.36
248.703	-7.01
248.919	0.43
249.135	1.94
249.35	3.02
249.566	3.82
249.782	-0.92
249.997	-3.09
250.213	-4.03
250.428	-8.7
250.644	-12.55
250.859	-8.3
251.075	-13.79
251.29	-11.54
251.506	-10.33
251.721	-7.98
251.937	-8.29
252.152	-4.96
252.368	-9.43
252.583	-11.71
252.798	-8.38
253.014	-3.47
253.229	-2.79
253.445	1.77
253.66	-0.11
253.875	-7.65
254.091	-13.57
254.306	-10.56
254.521	-19.44
254.737	-12.73
254.952	-15.22
255.167	-20.93
255.383	-26.27
255.598	-32.62
255.813	-32.16
256.028	-35.31
256.244	-31.66
256.459	-25.37
256.674	-28
256.889	-24.54
257.104	-11.53
257.32	-3.42
257.535	0.26
257.75	-2.86
257.965	-1.77
258.18	-1.45
258.395	-3.49
258.61	-2.04
258.826	-0.29
259.041	0.62
259.256	-0.62
259.471	-5.29
259.686	-7.88
259.901	-8.12
260.116	-6.32
260.331	-6.15
260.546	-2.36
260.761	-0.76
260.976	0.73
261.191	-1.42
261.406	-0.81
261.621	-0.41
261.836	0.76
262.05	2.45
262.265	-1.18
262.48	5.02
262.695	8.29
262.91	4.47
263.125	2.74
263.34	3.1
263.555	4.13
263.769	-0.86
263.984	2.42
264.199	3.54
264.414	3.55
264.629	6.75
264.843	3.7
265.058	-4.34
265.273	-4.67
265.488	-5.13
265.702	-4.68
265.917	-5.59
266.132	-5.95
266.346	-4.22
266.561	-6.56
266.776	-8.98
266.99	-9.6
267.205	-10.8
267.42	-9.32
267.634	-7.98
267.849	-3.92
268.063	-5.05
268.278	-4.33
268.492	-5.05
268.707	-5.11
268.922	-2.35
269.136	0.54
269.351	2.59
269.565	3.77
269.78	6.61
269.994	4.99
270.209	5.95
270.423	6.1
270.637	7.74
270.852	13.15
271.066	11.09
271.281	12.96
271.495	11.67
271.709	9.09
271.924	7.39
272.138	7.06
272.353	3.82
272.567	1.13
272.781	-1.67
272.996	0.42
273.21	-3.09
273.424	-0.96
273.638	-1.13
273.853	-2.73
274.067	-1.45
274.281	-0.48
274.495	0.71
274.71	7.86
274.924	7.55
275.138	9.01
275.352	1.81
275.566	3.45
275.781	3.15
275.995	0.95
276.209	2.02
276.423	0.53
276.637	0.99
276.851	-0.5
277.065	-7.11
277.279	-7.23
277.493	-3.02
277.707	3.62
277.921	-1.59
278.135	-5.65
278.349	-1.06
278.563	0.5
278.777	2.36
278.991	2.27
279.205	0.97
279.419	2.75
279.633	1.64
279.847	-2.62
280.061	-5.46
280.275	-1.29
280.489	-1.96
280.703	-11.76
280.917	-8.6
281.131	-9.76
281.344	-14.19
281.558	-12.07
281.772	-13.24
281.986	-13.21
282.2	-10.38
282.414	-9.31
282.627	-10.59
282.841	-9.23
283.055	-1.28
283.269	-1.17
283.482	0.75
283.696	2.94
283.91	3.4
284.123	2.09
284.337	3.26
284.551	2.73
284.764	4.01
284.978	4.13
285.192	5.75
285.405	4.05
285.619	5.31
285.833	6.69
286.046	9.77
286.26	9.36
286.473	10.01
286.687	9.91
286.9	12.45
287.114	12.02
287.327	10.55
287.541	9.67
287.754	10.03
287.968	7.48
288.181	4.83
288.395	1.62
288.608	4.13
288.822	3.49
289.035	1.54
289.248	-0.95
289.462	-1.16
289.675	1.62
289.889	2.94
290.102	4.58
290.315	6.67
290.529	7.06
290.742	7.89
290.955	8.4
291.169	11.24
291.382	12.8
291.595	11.87
291.808	12.73
292.022	12.77
292.235	13.38
292.448	11.61
292.661	8.84
292.875	8.61
293.088	8.53
293.301	4.44
293.514	3.09
293.727	3.49
293.94	1.55
294.153	2.01
294.367	-3.4
294.58	-4.94
294.793	-6.46
295.006	-8.32
295.219	-8.93
295.432	-7.68
295.645	-7.14
295.858	-5.76
296.071	-7.93
296.284	-5.76
296.497	-5.08
296.71	-2.05
296.923	-0.76
297.136	0.31
297.349	-0.14
297.562	0.63
297.775	-0.47
297.988	-0.06
298.201	-0.89
298.414	2.34
298.626	4.45
298.839	3.27
299.052	4.81
299.265	2.75
299.478	3.32
299.691	2.64
299.903	0.71
300.116	2.41
300.329	4.98
300.542	4.45
300.755	2.98
300.967	0.99
301.18	0.4
301.393	-0.15
301.605	2.36
301.818	0.39
302.031	2.57
302.243	4.3
302.456	5.02
302.669	3.93
302.881	2.79
303.094	2.34
303.307	1.95
303.519	3.28
303.732	1.44
303.944	-2.01
304.157	-1.41
304.37	1.12
304.582	-0.12
304.795	-2.61
305.007	-2.72
305.22	0.37
305.432	-0.46
305.645	-0.81
305.857	-1.65
306.069	2.37
306.282	5.44
306.494	6.49
306.707	7.29
306.919	8.14
307.132	8.18
307.344	5.67
307.556	5.07
307.769	4.29
307.981	5.46
308.193	3.34
308.406	1.33
308.618	0.02
308.83	-0.49
309.043	-1.48
309.255	-1.88
309.467	-3.87
309.679	-0.31
309.892	0.94
310.104	1.88
310.316	2.14
310.528	5.33
310.74	5.3
310.953	5.93
311.165	7.15
311.377	6.89
311.589	8.82
311.801	9.15
312.013	6.51
312.225	4.56
312.437	5.11
312.649	3.84
312.862	3.31
313.074	2.22
313.286	3.72
313.498	5.96
313.71	4.45
313.922	4.65
314.134	5.47
314.346	5.13
314.558	6.01
314.77	7.39
314.982	8.35
315.193	7.71
315.405	4.46
315.617	2.59
315.829	-0.66
316.041	0.18
316.253	-0.29
316.465	-0.44
316.677	0.9
316.888	1.09
317.1	0.67
317.312	1.12
317.524	0.15
317.736	0.54
317.947	-3.32
318.159	-0.27
318.371	2.78
318.583	3.19
318.794	0.27
319.006	1.63
319.218	1.98
319.43	3.11
319.641	3.88
319.853	5.81
320.064	9.36
320.276	14.76
320.488	11.08
320.699	10.36
320.911	6.93
321.123	7.96
321.334	6.01
321.546	7.01
321.757	4.78
321.969	6.01
322.18	4.44
322.392	5.21
322.603	3.37
322.815	2.71
323.026	0.47
323.238	2.36
323.449	4.04
323.661	5.21
323.872	5.8
324.083	4.37
324.295	3.09
324.506	5.52
324.718	6.63
324.929	7.95
325.14	9.73
325.352	8.73
325.563	9.42
325.774	11.12
325.986	10.52
326.197	10.48
326.408	12.27
326.62	11.72
326.831	8.38
327.042	6.92
327.253	6.15
327.464	6.22
327.676	8.03
327.887	7.25
328.098	6.35
328.309	6.16
328.52	5.22
328.732	6.14
328.943	5.32
329.154	8.48
329.365	7.63
329.576	8.21
329.787	8.63
329.998	7.55
330.209	7.07
330.42	9.56
330.631	8.5
330.842	8.45
331.053	8.63
331.264	11.14
331.475	8.98
331.686	10.48
331.897	11.16
332.108	9.61
332.319	12.64
332.53	15.13
332.741	13.74
332.952	15.83
333.163	14.48
333.374	12.65
333.585	11.27
333.795	13.16
334.006	14.85
334.217	15.61
334.428	18.05
334.639	14.07
334.849	15.5
335.06	16.35
335.271	16.72
335.482	18.04
335.692	19.67
335.903	20.46
336.114	20.06
336.325	18.82
336.535	18.52
336.746	17.19
336.957	18.8
337.167	16.91
337.378	14.05
337.589	15.29
337.799	16
338.01	14.09
338.22	15.31
338.431	15.48
338.642	14.54
338.852	15.38
339.063	15.17
339.273	15.37
339.484	17.45
339.694	20.59
339.905	17.87
340.115	15.1
340.326	15.98
340.536	14.15
340.746	13.38
340.957	12.01
341.167	10.11
341.378	9.56
341.588	9.57
341.799	4.46
342.009	3.72
342.219	6.7
342.43	9.07
342.64	10.49
342.85	10.71
343.061	9.25
343.271	9
343.481	9.31
343.691	8.87
343.902	10.96
344.112	12.08
344.322	12.59
344.532	9.71
344.743	10.87
344.953	9.43
345.163	10.01
345.373	11.7
345.583	14.73
345.793	15.13
346.004	16.13
346.214	15.14
346.424	17.62
346.634	18.29
346.844	19.89
347.054	20.3
347.264	21.77
347.474	22.35
347.684	22.63
347.894	19.86
348.104	19.05
348.314	18.3
348.524	17.7
348.734	18.24
348.944	18.54
349.154	17.64
349.364	17.2
349.574	16.65
349.784	17.09
349.994	17.74
350.204	18.86
350.413	18.36
350.623	19.37
350.833	19.39
351.043	18.12
351.253	15.86
351.463	16.68
351.672	17.48
351.882	17.55
352.092	14.9
352.302	14.61
352.511	13.99
352.721	13.93
352.931	13.61
353.141	14.67
353.35	14.7
353.56	15.85
353.77	17.17
353.979	15.66
354.189	13.89
354.399	14.72
354.608	12.41
354.818	13.38
355.027	14.23
355.237	14.05
355.447	11.71
355.656	12.12
355.866	11.66
356.075	10.86
356.285	12.04
356.494	13.75
356.704	14.85
356.913	16.54
357.123	16.82
357.332	16.45
357.542	16.76
357.751	17.99
357.96	16.27
358.17	17.27
358.379	18.04
358.589	16.61
358.798	16.21
359.007	15.06
359.217	15.76
359.426	15.61
359.635	16.2
359.845	15.51
360.054	16.94
360.263	18.16
360.472	17.58
360.682	17.63
360.891	17.9
361.1	17.84
361.309	19.32
361.519	18.26
361.728	17.9
361.937	17.59
362.146	18.2
362.355	17.74
362.564	17.1
362.774	17.82
362.983	17.15
363.192	16.55
363.401	16.64
363.61	14.68
363.819	14.59
364.028	14.75
364.237	15.6
364.446	14.78
364.655	13.18
364.864	13.87
365.073	14.28
365.282	14.23
365.491	14.46
365.7	14.71
365.909	15
366.118	15.12
366.327	15.2
366.536	14.66
366.745	16.18
366.954	15.95
367.162	14.64
367.371	13.5
367.58	12.83
367.789	12.62
367.998	12.21
368.207	11.45
368.415	10.8
368.624	10.74
368.833	10.33
369.042	9.62
369.25	9.99
369.459	11.28
369.668	11.56
369.877	11.93
370.085	13.77
370.294	13.75
370.503	13.52
370.711	15.05
370.92	14.17
371.129	14.29
371.337	13.17
371.546	14.16
371.754	14.68
371.963	14.2
372.171	15
372.38	15.26
372.589	15.79
372.797	16.66
373.006	15.25
373.214	15
373.423	15.24
373.631	16.28
373.84	16.72
374.048	16.02
374.256	15.27
374.465	13.92
374.673	11.52
374.882	9.96
375.09	10.65
375.298	11.69
375.507	14.15
375.715	14.06
375.923	14.36
376.132	13.14
376.34	13.01
376.548	12.49
376.757	13.13
376.965	14.95
377.173	16.07
377.381	15.45
377.59	15.13
377.798	13.36
378.006	13.25
378.214	13.29
378.423	13.5
378.631	14.25
378.839	13.85
379.047	13.45
379.255	11.7
379.463	12.67
379.671	13.14
379.879	14.01
380.088	14.84
380.296	15.93
380.504	15.12
380.712	16.08
380.92	16.02
381.128	16.98
381.336	18.09
381.544	18.69
381.752	16.54
381.96	16.79
382.168	16.15
382.376	15.05
382.584	14.01
382.791	13.83
382.999	11.98
383.207	11.59
383.415	13.08
383.623	12.42
383.831	12.4
384.039	11.97
384.247	12.48
384.454	13.26
384.662	13.65
384.87	14.25
385.078	14.5
385.285	15.11
385.493	14.34
385.701	13.78
385.909	13.59
386.116	13.31
386.324	14.25
386.532	13.78
386.739	12.9
386.947	12.53
387.155	12.2
387.362	11.66
387.57	11.61
387.778	11.29
387.985	10.76
388.193	10.12
388.4	10.01
388.608	10.44
388.816	9.37
389.023	8.97
389.231	9.4
389.438	8.1
389.646	7.45
389.853	7.94
390.061	9.02
390.268	8.44
390.475	9.23
390.683	9.76
390.89	9.58
391.098	9.94
391.305	9.59
391.512	9.77
391.72	9.87
391.927	10.9
392.135	11.31
392.342	11.2
392.549	11.9
392.756	12.35
392.964	12.36
393.171	11.69
393.378	11.97
393.586	12.63
393.793	12.11
394	12.7
394.207	13.27
394.414	13.31
394.622	12.85
394.829	11.94
395.036	10.33
395.243	9.81
395.45	10.31
395.657	10.38
395.864	10.37
396.072	10.85
396.279	10.79
396.486	8.78
396.693	7.87
396.9	8.08
397.107	8.02
397.314	9.22
397.521	9.7
397.728	8.62
397.935	6.89
398.142	6.16
398.349	6.91
398.556	6.44
398.763	8.33
398.97	8.14
399.177	8.17
399.383	9.2
399.59	8.78
399.797	8.34
400.004	9.16
400.211	10.35
400.418	10.78
400.625	10.23
400.831	11.07
401.038	10.21
401.245	10.4
401.452	10.15
401.658	9.29
401.865	8.86
402.072	7.93
402.279	7.54
402.485	6.44
402.692	6.76
402.899	6.11
403.105	6.73
403.312	6.94
403.519	6.43
403.725	6.13
403.932	6.13
404.138	6.49
404.345	7.35
404.552	8.32
404.758	8.97
404.965	8.58
405.171	8.58
405.378	7.77
405.584	7.29
405.791	7.99
405.997	7.74
406.204	7.82
406.41	6.55
406.617	6.03
406.823	4.95
407.029	5.63
407.236	5.76
407.442	5.51
407.649	4.27
407.855	4.4
408.061	3.65
408.268	5.48
408.474	6.34
408.68	7.22
408.887	8.59
409.093	9.13
409.299	7.9
409.505	7.65
409.712	8.09
409.918	9.07
410.124	9.32
410.33	9.23
410.537	8.63
410.743	7.81
410.949	7.83
411.155	7.58
411.361	8.18
411.567	8.21
411.773	8.94
411.98	9.33
412.186	8.15
412.392	7.78
412.598	8.09
412.804	7.85
413.01	7.46
413.216	8.33
413.422	8.25
413.628	7.95
413.834	8.06
414.04	6.82
414.246	6.95
414.452	8.02
414.658	8.51
414.864	8.05
415.07	8.71
415.275	9.15
415.481	8.72
415.687	7.9
415.893	7.45
416.099	8.65
416.305	8.97
416.511	9.33
416.716	9.1
416.922	8.21
417.128	8.14
417.334	7.99
417.539	7.96
417.745	8.21
417.951	8.35
418.157	8.4
418.362	7.55
418.568	7.84
418.774	7.32
418.979	7.22
419.185	7.89
419.391	8.23
419.596	7.72
419.802	7.61
420.008	7.49
420.213	3.18
420.419	3.17
420.624	4.02
420.83	4.25
421.035	4.3
421.241	4.58
421.446	3.77
421.652	3.81
421.857	3.73
422.063	3.99
422.268	3.76
422.474	7.54
422.679	7.99
422.885	7.58
423.09	7.03
423.295	7.09
423.501	6.6
423.706	7.13
423.911	7.43
424.117	7.48
424.322	7.09
424.527	7
424.733	7.1
424.938	6.72
425.143	6.06
425.349	6.36
425.554	6.35
425.759	7.02
425.964	6.9
426.169	6.46
426.375	6.49
426.58	7.38
426.785	7.84
426.99	7.89
427.195	8.18
427.4	9.01
427.605	8.35
427.811	9.01
428.016	8.73
428.221	8.17
428.426	7.63
428.631	8.18
428.836	7.52
429.041	7.18
429.246	7.3
429.451	6.54
429.656	6.83
429.861	6.99
430.066	7.13
430.271	7.43
430.476	8.33
430.681	8.44
430.886	8.1
431.09	7.98
431.295	7.67
431.5	7.76
431.705	8.33
431.91	8.03
432.115	8.89
432.32	8.06
432.524	8.23
432.729	7.78
432.934	7.87
433.139	7.76
433.343	7.95
433.548	8.09
433.753	8.16
433.958	8.2
434.162	8.23
434.367	7.98
434.572	7.29
434.776	6.61
434.981	6.67
435.186	7.17
435.39	7.07
435.595	6.6
435.799	6.57
436.004	6.45
436.209	6.54
436.413	6.17
436.618	6.05
436.822	6.78
437.027	6.76
437.231	7.31
437.436	7.02
437.64	6.9
437.845	7.3
438.049	7.65
438.253	8.12
438.458	7.82
438.662	8.12
438.867	8.24
439.071	7.64
439.275	7.71
439.48	7.22
439.684	7.12
439.888	7.31
440.093	7.08
440.297	6.89
440.501	6.63
440.706	6.43
440.91	6.1
441.114	5.58
441.318	6.13
441.523	5.65
441.727	6.13
441.931	6.47
442.135	7.03
442.339	6.99
442.543	7.7
442.748	7.71
442.952	8.17
443.156	7.99
443.36	8.79
443.564	8.7
443.768	9.3
443.972	8.54
444.176	8.76
444.38	8.27
444.584	8.5
444.788	7.96
444.992	7.96
445.196	7.86
445.4	8.16
445.604	7.93
445.808	7.73
446.012	7.95
446.216	8.18
446.42	7.69
446.624	7.77
446.828	7.34
447.032	7.51
447.235	7.4
447.439	7.25
447.643	6.95
447.847	6.6
448.051	6.51
448.254	6.6
448.458	7.08
448.662	7.3
448.866	7.81
449.069	8.02
449.273	8.19
449.477	8.33
449.681	8.31
449.884	8.29
450.088	8.5
450.292	8.94
450.495	8.3
450.699	7.72
450.902	8.28
451.106	7.69
451.31	8.13
451.513	7.51
451.717	7.74
451.92	8.22
452.124	8.13
452.327	7.92
452.531	7.46
452.734	7.77
452.938	7.89
453.141	7.41
453.345	7.34
453.548	7.42
453.752	7.63
453.955	6.96
454.158	6.63
454.362	6.55
454.565	7.44
454.769	7.57
454.972	7.22
455.175	7.17
455.379	7.16
455.582	7.02
455.785	6.49
455.988	6.28
456.192	6.28
456.395	6.53
456.598	7.26
456.801	6.99
457.005	6.96
457.208	7.49
457.411	7.84
457.614	8.07
457.817	7.96
458.021	8.24
458.224	8.39
458.427	8.71
458.63	8.03
458.833	7.99
459.036	7.83
459.239	8.04
459.442	7.78
459.645	7.53
459.848	7.34
460.051	7.45
460.254	7.62
460.457	7.46
460.66	7.28
460.863	7.93
461.066	7.88
461.269	7.6
461.472	7.62
461.675	7.64
461.878	7.62
462.081	7.92
462.284	7.63
462.486	7.14
462.689	7.03
462.892	6.84
463.095	6.53
463.298	6.21
463.5	6.11
463.703	5.67
463.906	5.78
464.109	5.42
464.311	4.94
464.514	5.14
464.717	5.49
464.92	5.66
465.122	6.31
465.325	6.55
465.528	6.91
465.73	7.11
465.933	7.88
466.135	7.57
466.338	8.18
466.541	7.73
466.743	8.2
466.946	8.07
467.148	8.6
467.351	8.27
467.553	7.39
467.756	7.09
467.958	7.45
468.161	7.11
468.363	7.55
468.566	7.11
468.768	7.87
468.971	8.05
469.173	8.6
469.375	8.12
469.578	7.57
469.78	8.41
469.983	8.31
470.185	7.95
470.387	7.79
470.59	7.92
470.792	7.63
470.994	7.3
471.196	6.49
471.399	5.47
471.601	5.31
471.803	6.29
472.005	6.09
472.208	6.02
472.41	5.53
472.612	5.6
472.814	5.3
473.016	5.62
473.218	6.15
473.421	6.06
473.623	6.54
473.825	6.63
474.027	6.1
474.229	6.54
474.431	6.96
474.633	8.2
474.835	8.3
475.037	7.92
475.239	7.76
475.441	7.58
475.643	7.56
475.845	7.11
476.047	7.32
476.249	7.6
476.451	7.54
476.653	7.27
476.855	6.75
477.057	6.66
477.258	7.03
477.46	7.38
477.662	7.65
477.864	8.13
478.066	8.39
478.268	8.32
478.469	7.99
478.671	7.68
478.873	7.77
479.075	7.7
479.276	7.84
479.478	7.76
479.68	7.64
479.882	6.98
480.083	7.25
480.285	7.17
480.487	7.18
480.688	7.09
480.89	7.62
481.091	7.68
481.293	7.89
481.495	7.74
481.696	7.55
481.898	7.84
482.099	7.95
482.301	7.71
482.502	7.98
482.704	7.97
482.905	7.99
483.107	7.82
483.308	7.92
483.51	7.93
483.711	7.98
483.913	8.13
484.114	8.06
484.315	8.19
484.517	8.24
484.718	8.27
484.92	8.36
485.121	8.28
485.322	8.41
485.524	8.41
485.725	8.28
485.926	8.2
486.127	8.13
486.329	8.12
486.53	8.05
486.731	7.93
486.932	7.75
487.134	7.77
487.335	8.05
487.536	7.93
487.737	7.99
487.938	8
488.139	7.98
488.341	7.97
488.542	7.81
488.743	7.69
488.944	7.74
489.145	7.77
489.346	7.55
489.547	7.5
489.748	7.52
489.949	7.5
490.15	7.53
490.351	7.55
490.552	7.51
490.753	7.63
490.954	7.57
491.155	7.84
491.356	7.66
491.557	7.72
491.758	7.58
491.959	7.75
492.159	7.65
492.36	7.62
492.561	7.49
492.762	7.36
492.963	7.23
493.164	7.51
493.364	7.13
493.565	7.34
493.766	7.39
493.967	7.47
494.167	7.05
494.368	7.12
494.569	7.02
494.769	7.29
494.97	7.43
495.171	7.72
495.371	7.48
495.572	7.66
495.773	7.67
495.973	7.73
496.174	7.27
496.375	7.25
496.575	6.7
496.776	6.66
496.976	6.26
497.177	6.34
497.377	6.28
497.578	6.04
497.778	5.83
497.979	5.59
498.179	5.71
498.38	6.22
498.58	5.96
498.78	6.58
498.981	7.12
499.181	7.59
499.382	7.67
499.582	7.91
499.782	8.39
499.983	8.22
500.183	8.73
500.383	8.69
500.584	8.38
500.784	8.54
500.984	8.33
501.184	7.57
501.385	7.42
501.585	7.68
501.785	7.2
501.985	7.66
502.185	7.64
502.386	7.4
502.586	7.49
502.786	7.64
502.986	7.96
503.186	7.73
503.386	8.09
503.586	8.11
503.786	8.03
503.987	8.12
504.187	7.25
504.387	8.02
504.587	8.1
504.787	8.03
504.987	8.23
505.187	8.38
505.387	9.03
505.587	8.92
505.786	9.48
505.986	9.25
506.186	8.83
506.386	8.96
506.586	8.62
506.786	8.53
506.986	8.71
507.186	8.81
507.386	8.5
507.585	8.14
507.785	8.67
507.985	8.45
508.185	8.47
508.384	8.71
508.584	8.57
508.784	8.84
508.984	9.19
509.183	8.78
509.383	9.2
509.583	9.35
509.782	9.97
509.982	9.55
510.182	9.96
510.381	10.44
510.581	10.77
510.781	11.02
510.98	10.99
511.18	11.29
511.379	11.92
511.579	11.79
511.778	12.23
511.978	12.09
512.177	12.63
512.377	12.29
512.576	12.17
512.776	12.52
512.975	12.54
513.175	12.43
513.374	12.06
513.573	11.66
513.773	11.44
513.972	11.34
514.172	11.02
514.371	10.82
514.57	10.91
514.77	11.14
514.969	10.97
515.168	11.35
515.367	11.84
515.567	12.04
515.766	12.49
515.965	12.93
516.164	12.42
516.364	12.96
516.563	12.84
516.762	12.92
516.961	13.07
517.16	13.63
517.359	13.86
517.559	13.46
517.758	13.38
517.957	13.58
518.156	13.51
518.355	14.26
518.554	14.47
518.753	14.87
518.952	15.12
519.151	14.98
519.35	14.74
519.549	14.5
519.748	14.94
519.947	15.08
520.146	15.01
520.345	15.49
520.544	15.3
520.743	15.33
520.942	15.36
521.141	15.21
521.339	15.35
521.538	15.27
521.737	15.64
521.936	15.82
522.135	16.55
522.333	16.78
522.532	16.61
522.731	17.2
522.93	17.12
523.129	17.12
523.327	17.71
523.526	17.86
523.725	18.05
523.923	18.36
524.122	18.38
524.321	18.23
524.519	18.48
524.718	18.7
524.917	18.29
525.115	18.25
525.314	18.34
525.512	18.49
525.711	18.81
525.909	19.16
526.108	19.26
526.306	19.32
526.505	19.74
526.703	19.72
526.902	19.91
527.1	20.1
527.299	20.25
527.497	20.36
527.696	20.36
527.894	20.4
528.092	20.31
528.291	20.57
528.489	20.7
528.688	20.75
528.886	20.94
529.084	20.9
529.283	21.1
529.481	21.19
529.679	21.46
529.877	21.57
530.076	21.65
530.274	21.99
530.472	22
530.67	22.28
530.869	21.86
531.067	21.89
531.265	22.11
531.463	22.36
531.661	22.76
531.859	22.88
532.057	23.11
532.255	23.26
532.454	23.34
532.652	23.3
532.85	23.43
533.048	23.95
533.246	23.97
533.444	24.24
533.642	24.39
533.84	24.57
534.038	24.66
534.236	24.88
534.434	25.15
534.632	25.25
534.83	25.51
535.027	25.61
535.225	25.64
535.423	25.89
535.621	25.8
535.819	25.81
536.017	25.72
536.215	25.83
536.412	25.88
536.61	25.67
536.808	26.13
537.006	26.33
537.203	26.51
537.401	26.63
537.599	26.82
537.797	27.1
537.994	27.45
538.192	27.62
538.39	27.78
538.587	27.91
538.785	28.32
538.983	28.03
539.18	28.04
539.378	28.16
539.575	28.08
539.773	28.08
539.97	27.9
540.168	27.8
540.366	27.82
540.563	27.88
540.761	27.67
540.958	27.64
541.155	27.73
541.353	27.58
541.55	27.54
541.748	27.58
541.945	27.56
542.143	27.65
542.34	27.69
542.537	27.73
542.735	27.75
542.932	27.89
543.129	28.04
543.327	28.4
543.524	28.53
543.721	28.32
543.919	28.24
544.116	28.18
544.313	28.19
544.51	28.07
544.708	28.09
544.905	28.28
545.102	28.71
545.299	28.39
545.496	27.92
545.693	28.05
545.891	28.24
546.088	28.49
546.285	28.85
546.482	29.03
546.679	29.26
546.876	29.25
547.073	29.24
547.27	29.02
547.467	29.12
547.664	29.61
547.861	29.71
548.058	30.38
548.255	30.49
548.452	30.54
548.649	30.86
548.846	30.78
549.043	30.85
549.24	30.91
549.437	31.37
549.633	31.49
549.83	31.19
550.027	31.16
550.224	30.89
550.421	30.83
550.618	30.62
550.814	30.42
551.011	31.01
551.208	30.97
551.405	30.78
551.601	30.33
551.798	30.35
551.995	30.5
552.191	30.54
552.388	30.12
552.585	30.06
552.781	30.49
552.978	30.48
553.175	29.82
553.371	30.02
553.568	30.52
553.764	31.18
553.961	31.26
554.157	31.3
554.354	31.6
554.55	32
554.747	32.55
554.943	32.54
555.14	32.52
555.336	32.94
555.533	32.76
555.729	32.72
555.926	32.16
556.122	32.38
556.318	32.37
556.515	32.44
556.711	32.41
556.907	31.61
557.104	31.38
557.3	32.02
557.496	32.1
557.693	32.42
557.889	31.65
558.085	31.73
558.281	31.37
558.478	31.24
558.674	30.91
558.87	31.3
559.066	31.83
559.262	31.81
559.459	31.26
559.655	30.62
559.851	30.64
560.047	31.55
560.243	31.23
560.439	31.42
560.635	31.72
560.831	32.2
561.027	32.14
561.223	32.12
561.419	32.34
561.615	32.32
561.811	32.63
562.007	33.03
562.203	32.83
562.399	32.78
562.595	33.16
562.791	32.82
562.987	32.43
563.183	32.33
563.379	32.2
563.575	32
563.771	31.93
563.966	31.96
564.162	31.49
564.358	31.95
564.554	32.25
564.75	32.07
564.945	32.4
565.141	32.3
565.337	32
565.533	32.05
565.728	32.16
565.924	32.36
566.12	32.75
566.315	32.58
566.511	31.98
566.707	32.19
566.902	32.77
567.098	32.92
567.293	33.05
567.489	32.94
567.684	33.53
567.88	33.14
568.076	32.95
568.271	33.06
568.467	33.9
568.662	34.08
568.858	33.96
569.053	33.72
569.248	33.46
569.444	34
569.639	34.46
569.835	33.98
570.03	34.09
570.225	33.82
570.421	33.17
570.616	32.65
570.812	32.2
571.007	32.35
571.202	31.69
571.397	31.78
571.593	31.21
571.788	31.44
571.983	31.29
572.178	31.88
572.374	32.69
572.569	33.09
572.764	33.35
572.959	33.69
573.154	33.37
573.35	34.15
573.545	34.19
573.74	34.47
573.935	34
574.13	33.84
574.325	33.29
574.52	33.03
574.715	33.31
574.91	33.31
575.105	33.43
575.3	33.3
575.495	33.08
575.69	32.98
575.885	33.14
576.08	33.11
576.275	33.5
576.47	34.03
576.665	33.93
576.86	33.53
577.055	33.48
577.25	33.76
577.444	34.17
577.639	34.79
577.834	34.17
578.029	34.31
578.224	34.58
578.418	35.32
578.613	34.78
578.808	35.27
579.003	35.14
579.197	35.63
579.392	35.64
579.587	36.54
579.781	36.06
579.976	36.99
580.171	37.25
580.365	37.31
580.56	36.77
580.755	37.13
580.949	36.34
581.144	37
581.338	36.69
581.533	36.69
581.727	35.17
581.922	35.29
582.116	34.95
582.311	34.46
582.505	34.29
582.7	34.35
582.894	33.96
583.089	34.1
583.283	33.57
583.478	33.22
583.672	33.12
583.866	33.87
584.061	33.63
584.255	34.24
584.449	34.37
584.644	34.1
584.838	33.45
585.032	33.73
585.226	34.29
585.421	34.7
585.615	34.8
585.809	34.33
586.003	34.34
586.198	34.29
586.392	34.24
586.586	33.52
586.78	34.3
586.974	34.62
587.168	34.78
587.363	34.55
587.557	34.12
587.751	33.62
587.945	34.15
588.139	34.28
588.333	33.95
588.527	33.62
588.721	33.7
588.915	33.12
589.109	33.59
589.303	33.26
589.497	33.58
589.691	34.01
589.885	35.39
590.079	35.6
590.273	35.02
590.466	35.3
590.66	35.18
590.854	35.98
591.048	36.14
591.242	35.95
591.436	35.68
591.629	35.39
591.823	35.3
592.017	34.29
592.211	34.27
592.404	35.21
592.598	35.12
592.792	36.16
592.986	35.91
593.179	36.18
593.373	36.84
593.567	37.94
593.76	37.38
593.954	37.72
594.147	38.28
594.341	38.44
594.535	38.21
594.728	37.97
594.922	36.99
595.115	37.57
595.309	37.58
595.502	37.15
595.696	36.76
595.889	37.53
596.083	36.66
596.276	36.08
596.47	35.48
596.663	35.76
596.856	36.45
597.05	36.41
597.243	36.2
597.437	35.88
597.63	35.08
597.823	35.09
598.017	35.22
598.21	36.3
598.403	36.73
598.596	37.19
598.79	36.63
598.983	36.6
599.176	36.79
599.369	36.53
599.563	37.61
599.756	38.14
599.949	38.56
600.142	38.54
600.335	38.54
600.528	38.75
600.722	38.81
600.915	39.27
601.108	38.9
601.301	39.4
601.494	39.33
601.687	38.32
601.88	37.7
602.073	36.75
602.266	36.15
602.459	35.46
602.652	35.07
602.845	34.79
603.038	34.65
603.231	34.98
603.424	34.39
603.617	33.79
603.809	33.84
604.002	34.03
604.195	34.42
604.388	34.43
604.581	34.93
604.774	34.91
604.966	35.11
605.159	34.58
605.352	34.26
605.545	34.44
605.737	35.02
605.93	34.92
606.123	35.54
606.316	35.64
606.508	36.24
606.701	36.05
606.894	36.76
607.086	36.83
607.279	36.35
607.471	37.46
607.664	37.45
607.857	36.68
608.049	37.3
608.242	36.94
608.434	37.16
608.627	37.17
608.819	37.21
609.012	36.54
609.204	36.16
609.397	37.13
609.589	36.09
609.782	36.86
609.974	37.59
610.166	37.2
610.359	37.71
610.551	37.82
610.743	37.23
610.936	37.14
611.128	37.97
611.32	38.3
611.513	38.24
611.705	38.3
611.897	37.79
612.09	37.4
612.282	37.95
612.474	37.53
612.666	37.46
612.858	37.35
613.051	36.95
613.243	36.36
613.435	36.23
613.627	35.79
613.819	36.62
614.011	36.22
614.203	36.66
614.395	36.93
614.588	37.97
614.78	38.1
614.972	37.94
615.164	38.86
615.356	39
615.548	39.42
615.74	39.63
615.932	38.89
616.124	39.5
616.315	39.8
616.507	38.72
616.699	37.8
616.891	37.59
617.083	37.71
617.275	36.86
617.467	35.67
617.659	35.57
617.85	35.09
618.042	34.45
618.234	34.71
618.426	35.31
618.618	36.71
618.809	36.28
619.001	36.13
619.193	37.19
619.384	37.64
619.576	38.62
619.768	39.17
619.959	39.06
620.151	40.45
620.343	38.99
620.534	37.87
620.726	35.75
620.917	36.06
621.109	36.22
621.301	35.46
621.492	35.5
621.684	35.1
621.875	34.09
622.067	34.51
622.258	33.79
622.45	35.54
622.641	36.33
622.832	37.59
623.024	37.43
623.215	36.99
623.407	37.3
623.598	37.62
623.789	38.44
623.981	39.02
624.172	39.56
624.363	39.88
624.555	38.98
624.746	38.35
624.937	38.17
625.129	38.89
625.32	38.64
625.511	38.57
625.702	38.49
625.893	38.21
626.085	38.25
626.276	38.29
626.467	38.53
626.658	37.88
626.849	37.4
627.04	37.4
627.231	36.66
627.422	37.15
627.614	36.52
627.805	35.93
627.996	35.83
628.187	35.48
628.378	35
628.569	34.29
628.76	35.08
628.951	36.15
629.142	36.34
629.332	36.76
629.523	35.93
629.714	36.65
629.905	37.41
630.096	37.86
630.287	37.82
630.478	38.33
630.669	38.79
630.859	39.03
631.05	38.93
631.241	38.6
631.432	38.86
631.623	39.15
631.813	39.29
632.004	39.21
632.195	38.51
632.385	39.11
632.576	38.53
632.767	38.57
632.957	38.11
633.148	37.8
633.339	37.53
633.529	37.01
633.72	38.22
633.91	38.24
634.101	38.42
634.292	39.01
634.482	38.08
634.673	39.17
634.863	38.73
635.054	38.5
635.244	38.38
635.435	38.89
635.625	39.37
635.815	39.07
636.006	38.47
636.196	38.84
636.387	38.75
636.577	38.39
636.767	36.6
636.958	36.61
637.148	37.2
637.338	37.63
637.529	37.8
637.719	37.84
637.909	37.14
638.099	37.61
638.29	37.68
638.48	36.68
638.67	37.36
638.86	39.41
639.05	40
639.241	39.95
639.431	39.89
639.621	40.08
639.811	39.34
640.001	39.88
640.191	39.37
640.381	38.16
640.571	38.87
640.761	39.08
640.951	37.88
641.141	37.74
641.331	38.23
641.521	37.44
641.711	37.13
641.901	37.94
642.091	37.82
642.281	37.91
642.471	38.3
642.661	39.3
642.851	39.78
643.041	39.97
643.231	40.24
643.42	39.29
643.61	38.88
643.8	39.27
643.99	39.2
644.18	39.57
644.369	40.49
644.559	40.93
644.749	40.63
644.939	40.44
645.128	40.2
645.318	40.1
645.508	40.1
645.697	41.41
645.887	41.48
646.076	42.42
646.266	41.92
646.456	41.57
646.645	41.1
646.835	41.45
647.024	41.38
647.214	40.96
647.403	40.82
647.593	42.36
647.782	41.43
647.972	41.35
648.161	40.57
648.351	40.87
648.54	41.41
648.73	41.28
648.919	40.87
649.108	41.05
649.298	41.77
649.487	41.92
649.677	41.79
649.866	42.14
650.055	42.04
650.244	42.18
650.434	42.56
650.623	42.96
650.812	43.74
651.002	44.12
651.191	43.55
651.38	42.99
651.569	42.63
651.758	41.68
651.947	42.32
652.137	42.89
652.326	42.65
652.515	41.61
652.704	41
652.893	40.42
653.082	40
653.271	39.33
653.46	40.15
653.649	41.27
653.838	41.08
654.027	41.1
654.216	40.1
654.405	40.33
654.594	40.68
654.783	41.61
654.972	41.52
655.161	41.44
655.35	41.92
655.539	41.96
655.728	40.2
655.916	40.44
656.105	39.8
656.294	40.02
656.483	40.2
656.672	40.37
656.86	38.93
657.049	39.01
657.238	39.02
657.427	39.52
657.615	39.68
657.804	39.89
657.993	40.28
658.181	39.79
658.37	39.81
658.559	38.57
658.747	38.28
658.936	38.05
659.125	37.09
659.313	37.19
659.502	36.69
659.69	37.13
659.879	38.28
660.067	38.56
660.256	39.13
660.444	39.36
660.633	39.82
660.821	39.96
661.01	40.04
661.198	40.68
661.387	40.28
661.575	40.93
661.763	39.51
661.952	38.63
662.14	38.41
662.328	38.22
662.517	38.77
662.705	39.78
662.893	39.83
663.082	41.13
663.27	42.4
663.458	43.08
663.646	43.25
663.834	44.15
664.023	45.18
664.211	44.97
664.399	45.82
664.587	46.08
664.775	46.59
664.963	45.91
665.152	44.9
665.34	44.31
665.528	43.47
665.716	43.19
665.904	43.58
666.092	42.95
666.28	42.68
666.468	41.52
666.656	39.81
666.844	39.12
667.032	40.61
667.22	40.33
667.408	40.15
667.596	40.07
667.784	40.02
667.971	40.03
668.159	38.75
668.347	38.77
668.535	40.55
668.723	42.18
668.911	42.28
669.098	41.41
669.286	42.76
669.474	43.37
669.662	44.36
669.849	44.52
670.037	42.08
670.225	43.07
670.413	43.1
670.6	42.14
670.788	42.38
670.976	42.57
671.163	42.53
671.351	41.01
671.538	41.33
671.726	42.64
671.913	42.01
672.101	43.68
672.289	43.68
672.476	43.47
672.664	41.95
672.851	42.13
673.039	41.03
673.226	40.19
673.413	40.36
673.601	40.14
673.788	38.01
673.976	39.55
674.163	40.03
674.35	39.32
674.538	39.72
674.725	41.78
674.912	40.22
675.1	41.21
675.287	42.52
675.474	41.6
675.662	40.49
675.849	40.25
676.036	39.67
676.223	39.02
676.411	39.9
676.598	39.12
676.785	39.12
676.972	39.05
677.159	38.5
677.346	38.8
677.533	40.71
677.721	40.52
677.908	40.71
678.095	40.38
678.282	41.65
678.469	41.23
678.656	41.85
678.843	41.82
679.03	41.95
679.217	42.77
679.404	42.9
679.591	42.13
679.778	43.08
679.964	43.47
680.151	44.36
680.338	43.74
680.525	43.03
680.712	44.22
680.899	44.28
681.086	44.4
681.272	43.98
681.459	43.11
681.646	44.16
681.833	43.3
682.02	43.16
682.206	42.56
682.393	41.67
682.58	42.02
682.766	40.86
682.953	39.75
683.14	41
683.326	41.37
683.513	40.86
683.7	39.34
683.886	39.98
684.073	38.96
684.259	39.48
684.446	40.64
684.632	41.99
684.819	42.03
685.005	42.85
685.192	43.41
685.378	43.61
685.565	45.69
685.751	47.49
685.938	47.68
686.124	49.19
686.31	48.86
686.497	49.68
686.683	49.28
686.87	47.97
687.056	48.75
687.242	46.82
687.429	46.09
687.615	43.36
687.801	42.36
687.987	41.38
688.174	41.29
688.36	40.08
688.546	38.97
688.732	38.72
688.918	39.95
689.105	38.8
689.291	39.06
689.477	38.36
689.663	40.04
689.849	38.98
690.035	38.88
690.221	40.17
690.407	40.31
690.593	40.97
690.779	40.67
690.965	39.92
691.151	40.23
691.337	40.42
691.523	40.99
691.709	41.33
691.895	43.25
692.081	43.75
692.267	41.39
692.453	42.51
692.639	43.59
692.825	45.01
693.011	45.36
693.196	45.44
693.382	45.07
693.568	44.88
693.754	43.66
693.94	42.77
694.125	44.37
694.311	45.62
694.497	45.29
694.682	42.6
694.868	41.49
695.054	42.69
695.239	43.05
695.425	44.21
695.611	44.54
695.796	45.22
695.982	44.39
696.168	42.91
696.353	42.61
696.539	42.64
696.724	44.09
696.91	43.71
697.095	42.58
697.281	41.47
697.466	40.79
697.652	41.36
697.837	40.47
698.023	40.8
698.208	41.3
698.393	41.38
698.579	40.47
698.764	39.56
698.949	40.52
699.135	40.33
699.32	41.7
699.505	41.39
699.691	40.43
699.876	41.31
700.061	42.66
700.246	42.35
700.432	41.82
700.617	43.84
700.802	44.32
700.987	43.57
701.172	45.59
701.358	45.73
701.543	46.77
701.728	46.32
701.913	46.88
702.098	46.56
702.283	46.25
702.468	46.53
702.653	46.15
702.838	46.53
703.023	46.84
703.208	45.71
703.393	43.6
703.578	43.33
703.763	44.3
703.948	43.67
704.133	43.58
704.318	43.15
704.503	42.33
704.688	42.22
704.873	42.08
705.057	42.91
705.242	40.55
705.427	42.43
705.612	41.72
705.797	42.38
705.981	43.86
706.166	43.9
706.351	44.9
706.536	46.35
706.72	45.96
706.905	44.86
707.09	43.97
707.274	46.41
707.459	46.11
707.644	47.36
707.828	46.41
708.013	45.04
708.197	44.4
708.382	42.27
708.567	41.7
708.751	40.82
708.936	42.79
709.12	41.56
709.305	40.18
709.489	39.51
709.673	38.73
709.858	40.27
710.042	39.14
710.227	38
710.411	40.21
710.596	41.06
710.78	42.89
710.964	41.98
711.149	43.73
711.333	45.67
711.517	44.22
711.702	44.61
711.886	43.06
712.07	45.03
712.254	46.88
712.438	45.92
712.623	46.36
712.807	45.94
712.991	46.4
713.175	45.57
713.359	45.18
713.544	45.22
713.728	44.66
713.912	46.05
714.096	45.58
714.28	44.93
714.464	44.39
714.648	43.58
714.832	43
715.016	42.13
715.2	43.03
715.384	42.89
715.568	44.85
715.752	46.05
715.936	45.24
716.12	45.47
716.304	46.22
716.488	47.44
716.671	47.38
716.855	46.06
717.039	46.4
717.223	46.17
717.407	44.16
717.59	44.95
717.774	44
717.958	43.59
718.142	42.99
718.325	42.3
718.509	40.92
718.693	41.55
718.877	43.55
719.06	45.02
719.244	46.47
719.428	49.27
719.611	46.56
719.795	46.98
719.978	47.19
720.162	48.48
720.345	50.49
720.529	52.64
720.713	50.91
720.896	49.88
721.08	47.06
721.263	44.21
721.446	43.88
721.63	43.74
721.813	46.27
721.997	47.97
722.18	45.75
722.364	44.21
722.547	44.07
722.73	45.81
722.914	45.56
723.097	47.15
723.28	49.73
723.464	49.21
723.647	49.11
723.83	47.38
724.013	46.81
724.197	46.77
724.38	48.27
724.563	48.83
724.746	50.09
724.929	50.72
725.112	50.34
725.296	50.59
725.479	51.54
725.662	52.4
725.845	53.73
726.028	51.36
726.211	52.48
726.394	49.19
726.577	50.84
726.76	49.6
726.943	50.02
727.126	50.52
727.309	49.56
727.492	49.58
727.675	50.22
727.858	48.86
728.041	51.23
728.224	50.87
728.407	52.9
728.589	50.97
728.772	49.6
728.955	46.75
729.138	47.65
729.321	46.46
729.503	44.52
729.686	44.52
729.869	43.11
730.052	42.34
730.234	42.11
730.417	41.59
730.6	42.16
730.782	41.74
730.965	44.68
731.148	42.71
731.33	43.34
731.513	42.93
731.695	44.37
731.878	44.46
732.061	43.01
732.243	44.05
732.426	43.5
732.608	41.16
732.791	42.05
732.973	42.56
733.156	44.13
733.338	42.95
733.52	45.57
733.703	44.05
733.885	44.01
734.068	47.54
734.25	47.63
734.432	47.26
734.615	49.11
734.797	47.93
734.979	46.67
735.162	47.76
735.344	47.26
735.526	47.76
735.708	48
735.891	48.74
736.073	46.99
736.255	46.41
736.437	45.55
736.619	46.73
736.802	47.85
736.984	47.92
737.166	46.73
737.348	48.11
737.53	46.81
737.712	45.78
737.894	42.08
738.076	41.64
738.258	41.41
738.44	43.69
738.622	42.86
738.804	45.04
738.986	42.41
739.168	42.26
739.35	41.79
739.532	41.45
739.714	43.51
739.896	47.88
740.078	48.1
740.259	47.54
740.441	46.37
740.623	46.3
740.805	47.6
740.987	50.58
741.168	51.17
741.35	50.38
741.532	48.17
741.714	45.08
741.895	46.63
742.077	45.84
742.259	46.83
742.44	48.31
742.622	48.37
742.804	43.06
742.985	42.79
743.167	42.57
743.348	45.65
743.53	49.08
743.711	51.26
743.893	51.44
744.075	51.23
744.256	54.19
744.438	55.84
744.619	54.56
744.8	54.26
744.982	55.85
745.163	56.18
745.345	54.77
745.526	53.24
745.707	54.45
745.889	49.55
746.07	52.26
746.252	51.9
746.433	50.18
746.614	48.3
746.795	50.85
746.977	46.48
747.158	44.19
747.339	44.77
747.52	44.95
747.702	42.12
747.883	41.1
748.064	40.83
748.245	40.15
748.426	39.12
748.607	44.04
748.788	39.92
748.97	41.83
749.151	39.87
749.332	37.78
749.513	38.92
749.694	36.53
749.875	43.14
750.056	43.11
750.237	41.05
750.418	46.49
750.599	41.55
750.78	48
750.96	47.34
751.141	50.25
751.322	47.8
751.503	43.26
751.684	47.78
751.865	45.79
752.046	45.1
752.226	46.98
752.407	41.89
752.588	43.08
752.769	39.16
752.949	39.97
753.13	41.24
753.311	45.6
753.492	46.79
753.672	44.9
753.853	47.75
754.034	45.69
754.214	41.39
754.395	42.37
754.575	43.33
754.756	44.21
754.937	45.36
755.117	44.94
755.298	46.99
755.478	48.8
755.659	51.17
755.839	46.32
756.02	48.7
756.2	49.5
756.381	48.35
756.561	48.12
756.741	47.35
756.922	47.79
757.102	49.81
757.283	44.55
757.463	46.43
757.643	46.05
757.823	44.6
758.004	45.13
758.184	45.77
758.364	49.53
758.545	46.61
758.725	45.46
758.905	47.09
759.085	45.21
759.265	45.74
759.446	44.15
759.626	41.66
759.806	39.89
759.986	38.06
760.166	37.62
760.346	34.58
760.526	39.24
760.706	41.12
760.886	39.62
761.066	37.87
761.246	40.6
761.426	41.79
761.606	42.19
761.786	45.41
761.966	48.04
762.146	50.52
762.326	48.22
762.506	47.59
762.686	47.19
762.866	45.09
763.046	46.46
763.225	45.43
763.405	43.42
763.585	43.56
763.765	44.2
763.945	45.23
764.124	42.19
764.304	43.95
764.484	43.56
764.664	43.93
764.843	44.47
765.023	42.38
765.203	45.23
765.382	47.18
765.562	47.03
765.741	47.43
765.921	44.19
766.101	46.53
766.28	45.95
766.46	47.14
766.639	46.67
766.819	47.89
766.998	49.92
767.178	47.86
767.357	52.27
767.537	52.71
767.716	48.3
767.896	48.65
768.075	48.29
768.254	47.53
768.434	43.97
768.613	44.24
768.792	43.84
768.972	44.27
769.151	46.55
769.33	42.08
769.51	43.71
769.689	49.06
769.868	52.06
770.047	49
770.226	49.6
770.406	49.58
770.585	49.26
770.764	51.05
770.943	53.02
771.122	47.4
771.301	46.37
771.48	45.93
771.66	40.92
771.839	40.39
772.018	43.25
772.197	42.08
772.376	40.84
772.555	42.65
772.734	44.41
772.913	40.35
773.092	40.66
773.271	42.14
773.449	46.2
773.628	43.85
773.807	42.32
773.986	42.9
774.165	49.97
774.344	49.76
774.523	49.45
774.701	49.23
774.88	51.99
775.059	54.68
775.238	54.31
775.417	51.76
775.595	55.68
775.774	53.45
775.953	51.76
776.131	43.87
776.31	46.82
776.489	44.4
776.667	36.92
776.846	33.86
777.025	28.75
777.203	28.66
777.382	24.22
777.56	25.31
777.739	27
777.917	27.45
778.096	31.05
778.274	28.93
778.453	33.66
778.631	41.33
778.81	41.92
778.988	51.23
779.166	53.68
779.345	56.13
779.523	56.11
779.702	56.53
779.88	55.53
780.058	56.22
780.237	54.74
780.415	56.42
780.593	57.46
780.771	61.3
780.95	56.91
781.128	51.43
781.306	52.72
781.484	48.55
781.662	43.69
781.841	43.44
782.019	45.99
782.197	49.27
782.375	45.9
782.553	45.97
782.731	42.44
782.909	47.13
783.087	44.49
783.265	46.48
783.443	46.54
783.621	50.87
783.799	48.58
783.977	44.69
784.155	46.12
784.333	45.75
784.511	44.82
784.689	47.48
784.867	43.59
785.045	47.58
785.223	44.8
785.4	44.68
785.578	44.48
785.756	46.83
785.934	44.66
786.112	43.54
786.289	41.19
786.467	38.06
786.645	34.65
786.823	37.6
787	39.02
787.178	41.81
787.356	45.19
787.533	47.73
787.711	50.13
787.889	55.27
788.066	55.7
788.244	58.43
788.421	61.05
788.599	65.74
788.776	65.92
788.954	64.09
789.131	61.64
789.309	56.76
789.486	48.08
789.664	50.59
789.841	52.04
790.019	52.57
790.196	50.33
790.373	51.03
790.551	50.06
790.728	55.66
790.906	57.66
791.083	60.61
791.26	68.82
791.437	70.91
791.615	70.58
791.792	67.71
791.969	65.52
792.146	65.48
792.324	65.32
792.501	59.52
792.678	52.08
792.855	46.57
793.032	47.01
793.209	41.98
793.387	44.1
793.564	43.96
793.741	44.1
793.918	47.69
794.095	48.61
794.272	50.53
794.449	50.86
794.626	48.92
794.803	52.1
794.98	49.71
795.157	53.28
795.334	51.63
795.511	47.51
795.688	43.24
795.864	45.32
796.041	49.79
796.218	44.55
796.395	53.62
796.572	58.03
796.749	57.31
796.925	55.24
797.102	47.31
797.279	48.34
797.456	45.9
797.632	46.75
797.809	41.04
797.986	37.21
798.162	44.28
798.339	38.24
798.516	41.09
798.692	41.18
798.869	47.99
799.046	56.39
799.222	55.26
799.399	61.92
799.575	61.87
799.752	58.23
799.928	60.65
800.105	60.24
800.281	55.71
800.458	48.38
800.634	48.9
800.811	44.66
800.987	41.09
801.163	48.1
801.34	45.81
801.516	45.42
801.692	50.77
801.869	48.71
802.045	47.51
802.221	44.72
802.398	51.87
802.574	52.88
802.75	53.09
802.926	53.32
803.103	49.63
803.279	47.94
803.455	54.93
803.631	53.53
803.807	50.39
803.983	46.46
804.16	55.17
804.336	50.05
804.512	54.27
804.688	58.72
804.864	63.58
805.04	64.01
805.216	71.34
805.392	59.93
805.568	57.44
805.744	71.25
805.92	70.28
806.096	63.35
806.272	60.38
806.448	54.16
806.623	44.89
806.799	48.1
806.975	48.73
807.151	46.82
807.327	55.7
807.503	59.29
807.678	56.71
807.854	59.38
808.03	66.61
808.206	64.36
808.381	73.8
808.557	83.25
808.733	72.26
808.908	70.45
809.084	73.58
809.26	72.27
809.435	68.02
809.611	52.81
809.787	50.39
809.962	48.09
810.138	55.01
810.313	40.61
810.489	40.84
810.664	48.09
810.84	48.8
811.015	51.31
811.191	52.71
811.366	53.23
811.542	61.72
811.717	61.77
811.892	63.17
812.068	63.19
812.243	67.64
812.419	63.57
812.594	51.36
812.769	54.74
812.944	50.68
813.12	48.65
813.295	44.89
813.47	44.19
813.645	44.28
813.821	36.87
813.996	33.27
814.171	36.92
814.346	44.74
814.521	57.45
814.697	52.17
814.872	52.49
815.047	53.36
815.222	56.65
815.397	57.29
815.572	53.49
815.747	60.28
815.922	64.06
816.097	60.87
816.272	62.23
816.447	55.9
816.622	49.88
816.797	50.33
816.972	46.73
817.147	46.13
817.322	43.57
817.496	45.09
817.671	31.92
817.846	26.67
818.021	28.75
818.196	26.91
818.371	25.56
818.545	38.33
818.72	32.81
818.895	30.14
819.069	29.52
819.244	36.51
819.419	34.6
819.594	44.4
819.768	45.62
819.943	43.6
820.117	41.54
820.292	41.55
820.467	39.62
820.641	39.7
820.816	42.34
820.99	43.72
821.165	42.82
821.339	41.73
821.514	40.86
821.688	40.66
821.863	41.21
822.037	41.3
822.212	41.26
822.386	40.01
822.56	40.5
822.735	38.67
822.909	38.01
823.084	37.5
823.258	37.57
823.432	37.99
823.606	37.6
823.781	35.43
823.955	35.42
824.129	35.59
824.303	36.44
824.478	36.44
824.652	37.99
824.826	36.46
825	36.16
825.174	38.22
825.348	38.71
825.523	40.97
825.697	41.84
825.871	43.11
826.045	43.53
826.219	44
826.393	42.35
826.567	43.14
826.741	43.46
826.915	43.93
827.089	41.8
827.263	38.55
827.437	38.85
827.611	39.34
827.784	37.16
827.958	37.88
828.132	38.8
828.306	39.97
828.48	35.3
828.654	38.79
828.827	38.35
829.001	38.38
829.175	41.56
829.349	36.69
829.522	36.24
829.696	32.12
829.87	29.06
830.044	31.64
830.217	34.33
830.391	33.71
830.565	32.14
830.738	30.05
830.912	32.24
831.085	29.44
831.259	30.19
831.432	33.35
831.606	36.52
831.779	41.78
831.953	38.5
832.126	38.42
832.3	45.03
832.473	38.3
832.647	38.38
832.82	39.42
832.994	42.26
833.167	41.49
833.34	37.7
833.514	40.75
833.687	41.48
833.86	42.42
834.034	38.91
834.207	40.49
834.38	45.54
834.553	45.98
834.727	46.86
834.9	44.26
835.073	44.43
835.246	48.5
835.419	46.63
835.593	42.33
835.766	43.56
835.939	45.39
836.112	43
836.285	41.45
836.458	40.66
836.631	38.7
836.804	44.48
836.977	46.21
837.15	35.58
837.323	37.19
837.496	38.89
837.669	22.02
837.842	16.68
838.015	13.33
838.188	17.76
838.361	19.15
838.533	20.58
838.706	23.76
838.879	28.08
839.052	40.51
839.225	42.84
839.398	48.27
839.57	54.8
839.743	61.03
839.916	58.96
840.088	57.08
840.261	57.8
840.434	62.52
840.607	60.91
840.779	59.24
840.952	59.62
841.124	60.86
841.297	56.32
841.47	56.97
841.642	60.53
841.815	53.49
841.987	54.55
842.16	57.95
842.332	53.98
842.505	54.62
842.677	68.32
842.85	62.73
843.022	74.61
843.194	71.99
843.367	97.36
843.539	80.48
843.712	82.6
843.884	78.88
844.056	71.46
844.229	65.75
844.401	71.46
844.573	55.67
844.745	53.45
844.918	54.76
845.09	95.76
845.262	105.34
845.434	125.02
845.606	176.38
845.779	232.79
845.951	303.91
846.123	427.87
846.295	337
846.467	199.14
846.639	168.41
846.811	188.68
846.983	53.34
847.155	57.67
847.327	68.6
847.499	82.86
847.671	53.07
847.843	122.71
848.015	99.78
848.187	102.63
848.359	306.46
848.531	-538.02
848.703	677.14
848.875	-1730.87
849.047	1638.68
849.218	-614.72
849.39	-8.55
849.562	-27.76
849.734	57.32
849.905	75.93
850.077	105.94
850.249	14.99
850.421	-181.65
850.592	741.94
850.764	-233.43
850.936	-219.85
851.107	-44.52
851.279	0.47
851.451	18.59
851.622	15.77
851.794	22.66
851.965	1.11
852.137	-2.82
852.308	18.86
852.48	17.25
852.651	3.7
852.823	-4.98
852.994	-58.44
853.166	-80.28
853.337	-158.98
853.509	-171.78
853.68	5136.25
853.851	23.1
854.023	14.71
854.194	2.09
854.365	-10.63
854.537	51.56
854.708	70.94
854.879	70.31
855.05	61.6
855.222	80.74
855.393	174.22
855.564	357.03
855.735	-70.45
855.906	-668.6
856.078	38.03
856.249	-167.9
856.42	-9978.57
856.591	338.77
856.762	4309.21
856.933	401.9
857.104	527.29
857.275	132.86
857.446	80.92
857.617	70.95
857.788	55.54
857.959	81.63
858.13	90.35
858.301	74.54
858.472	68.88
858.643	39.14
858.814	1.93
858.985	28.7
859.155	18.81
859.326	-4.99
859.497	114.73
859.668	-16.72
859.839	38.76
860.009	73.92
860.18	-44.91
860.351	-39.84
860.522	-127.5
860.692	-104.24
860.863	-63.22
861.034	-130.28
861.204	-71.87
861.375	-48.62
861.546	-101.73
861.716	-19.9
861.887	-71.65
862.057	4418
862.228	162.96
862.398	309.72
862.569	266.04
862.739	367.69
862.91	162.2
863.08	137.23
863.251	96.71
863.421	73.79
863.592	82.65
863.762	85.61
863.932	84.99
864.103	90.14
864.273	40.33
864.443	-151.05
864.614	-2.22
864.784	39.6
864.954	44.44
865.125	86.97
865.295	122.91
865.465	152.47
865.635	69.14
865.805	74.8
865.976	35.11
866.146	70.87
866.316	85.57
866.486	88.34
866.656	101.72
866.826	91.96
866.996	98.03
867.166	117.56
867.336	162.14
867.506	530.63
867.676	63.73
867.846	42.53
868.016	48.52
868.186	74.07
868.356	64.76
868.526	101.85
868.696	95.19
868.866	109.65
869.036	104.92
869.206	109.95
869.376	85
869.545	57.83
869.715	61.25
869.885	40.2
870.055	44.72
870.224	47.9
870.394	75.5
870.564	74.5
870.734	74.07
870.903	59.28
871.073	62.88
871.243	44.17
871.412	36.81
871.582	36.52
871.751	67.84
871.921	43.75
872.091	35.91
872.26	17.79
872.43	-42.45
872.599	12.36
872.769	67.11
872.938	24.22
873.108	56.43
873.277	78.7
873.446	32.91
873.616	36.25
873.785	37.44
873.955	52.18
874.124	45.32
874.293	97.35
874.463	99.4
874.632	61.94
874.801	81.07
874.971	92.83
875.14	71.56
875.309	78.4
875.478	43.83
875.647	36.74
875.817	22.64
875.986	9.05
876.155	5.66
876.324	8.85
876.493	0.16
876.662	24.55
876.831	21.7
877	23.81
877.17	44.18
877.339	39.49
877.508	41.43
877.677	19.58
877.846	23.26
878.015	37.25
878.184	-21.81
878.352	17.08
878.521	-75.87
878.69	-50.38
878.859	-8.55
879.028	-6.95
879.197	4.15
879.366	7.32
879.534	6.38
879.703	20.33
879.872	20.83
880.041	25.76
880.21	19.46
880.378	32.56
880.547	27.98
880.716	27.26
880.884	29.84
881.053	24.35
881.222	27.26
881.39	31.71
881.559	33.91
881.727	33.91
881.896	34.56
882.065	30.69
882.233	29.35
882.402	30.9
882.57	28.76
882.739	32.84
882.907	36.53
883.076	36.11
883.244	34.31
883.412	31.72
883.581	30.59
883.749	35.98
883.918	37.97
884.086	36.58
884.254	40.36
884.423	43.24
884.591	37.47
884.759	38.08
884.927	30.57
885.096	39.13
885.264	41.78
885.432	43.12
885.6	24.15
885.769	30.98
885.937	30.17
886.105	12.85
886.273	12.06
886.441	10.81
886.609	1.59
886.777	15.24
886.945	4.16
887.113	5.42
887.281	-18.37
887.449	-20.14
887.617	-8.74
887.785	-21.6
887.953	-1.33
888.121	-67.49
888.289	-54
888.457	-113.41
888.625	-158.17
888.793	-222.82
888.961	-432.88
889.129	-62.21
889.296	-35.41
889.464	-58
889.632	-32.96
889.8	-42.08
889.967	14.84
890.135	-7.51
