Data from 2987_Reflection_02.txt Node
Date: Mon Nov 09 09:34:01 EST 2015
User: Geneva
Spectrometer: USB4E03002
Autoset integration time: false
Trigger mode: 4
Integration Time (sec): 1.000000E-1
Scans to average: 10
Electric dark correction enabled: false
Nonlinearity correction enabled: false
Boxcar width: 5
Stray light correction enabled: false
XAxis mode: Wavelengths
Stop averaging: false
Number of Pixels in Spectrum: 3648
>>>>>Begin Spectral Data<<<<<
177.575	-287.68
177.794	-249.45
178.014	-1291.03
178.233	-1992.59
178.452	830.77
178.672	3245.45
178.891	828.34
179.11	469.83
179.33	516.93
179.549	483.85
179.768	361.06
179.987	384.37
180.207	500.68
180.426	698.89
180.645	882.55
180.864	-1163.89
181.084	6289.47
181.303	-826.23
181.522	-417.49
181.741	-887.76
181.96	-410.34
182.179	-440
182.398	-1706.45
182.618	470.7
182.837	623.11
183.056	919.84
183.275	967.5
183.494	784.87
183.713	675.12
183.932	794.93
184.151	676.31
184.37	323.29
184.589	547.94
184.808	579.02
185.027	1326.27
185.246	2613.33
185.465	823.56
185.684	790.69
185.903	694.09
186.122	466.35
186.341	754.49
186.56	537.7
186.779	-3077.5
186.998	889.24
187.216	-9680
187.435	1920.73
187.654	931.33
187.873	-1377.78
188.092	-7681.25
188.311	-1463.16
188.53	-830.34
188.748	-726.14
188.967	-619.78
189.186	-757.24
189.405	-1262.79
189.623	-1532.81
189.842	-401.86
190.061	-285.99
190.28	-232.62
190.498	-323.05
190.717	-533.18
190.936	-391.42
191.154	-335.4
191.373	-346.67
191.592	-227.88
191.81	-206.19
192.029	-214.35
192.248	-381.88
192.466	-815.95
192.685	995.36
192.904	1149.57
193.122	990.76
193.341	2630
193.559	3291.43
193.778	-821.43
193.996	887.04
194.215	1027.78
194.433	716.54
194.652	-1941.03
194.87	-2877.78
195.089	-600
195.307	-394.92
195.526	-186.7
195.744	-405.56
195.963	-842.75
196.181	-1397.5
196.399	-261.97
196.618	-329.68
196.836	8800
197.055	1444.93
197.273	-1895.56
197.491	2093.48
197.71	923.53
197.928	311.88
198.146	394.42
198.365	342.95
198.583	353.11
198.801	241.18
199.019	289.65
199.238	412.29
199.456	391.64
199.674	555.74
199.892	497.39
200.111	560.08
200.329	682.56
200.547	848.39
200.765	-9709.09
200.983	1778.69
201.202	-6844.44
201.42	1286.73
201.638	-701.16
201.856	-755.75
202.074	4830.77
202.292	-1330.68
202.51	4527.59
202.728	-2912.77
202.946	1090.44
203.165	1229.41
203.383	744.65
203.601	589.82
203.819	5768
204.037	1107.58
204.255	727.86
204.473	1702.35
204.691	3727.03
204.909	-3517.65
205.127	-1741.27
205.345	-3912.12
205.562	-3680
205.78	-475.51
205.998	-431.95
206.216	-1149.51
206.434	-1253.06
206.652	-533.33
206.87	-476.21
207.088	-396.79
207.306	-724.4
207.523	-930.17
207.741	-536.98
207.959	-1988.46
208.177	-1333.63
208.395	-542.54
208.612	-390.96
208.83	-463.41
209.048	-1406.98
209.266	-3925.81
209.483	3445.71
209.701	-5509.52
209.919	970.23
210.136	-19616.67
210.354	-887.1
210.572	-2613.16
210.79	619.77
211.007	453.23
211.225	395.53
211.442	569.73
211.66	360.53
211.878	502.38
212.095	672.22
212.313	1127.27
212.53	804.69
212.748	1743.1
212.966	420.07
213.183	901.63
213.401	1096.87
213.618	-1175
213.836	-841.82
214.053	-278.5
214.271	-632.91
214.488	-584.95
214.705	-339.07
214.923	-622.41
215.14	1516.22
215.358	-735.48
215.575	-3223.08
215.793	-1417.98
216.01	3314.89
216.227	806.05
216.445	500.83
216.662	483.42
216.879	510
217.097	405.61
217.314	511.37
217.531	545.94
217.749	496.37
217.966	552.86
218.183	383.3
218.4	359.3
218.618	444.44
218.835	649.16
219.052	566.79
219.269	356.63
219.487	325.97
219.704	371.05
219.921	436.31
220.138	363.98
220.355	287.19
220.572	281.55
220.79	270.69
221.007	219.62
221.224	206.58
221.441	190.05
221.658	289.39
221.875	427.08
222.092	213.3
222.309	247.23
222.526	390.27
222.743	3071.05
222.96	3651.61
223.177	-1626.56
223.394	-498
223.611	-685.53
223.828	-416.92
224.045	-759.02
224.262	959.26
224.479	-3309.37
224.696	-2233.33
224.913	-21525
225.13	520.93
225.347	433.33
225.564	286.21
225.781	234.6
225.997	177.76
226.214	154.36
226.431	161.5
226.648	159.48
226.865	126.81
227.082	101.52
227.298	94.79
227.515	88.25
227.732	75.96
227.949	76.69
228.165	72.38
228.382	74.2
228.599	65.01
228.816	65.18
229.032	73.98
229.249	78.56
229.466	86.62
229.682	83.35
229.899	78.65
230.116	99.52
230.332	116.95
230.549	114.48
230.765	129.18
230.982	125.87
231.199	178.13
231.415	130.21
231.632	137.35
231.848	150.93
232.065	144.41
232.281	159.63
232.498	151.08
232.714	143.26
232.931	137.78
233.147	118.76
233.364	120.19
233.58	105.16
233.797	125.05
234.013	137.08
234.23	132.34
234.446	132.71
234.662	132.4
234.879	151.31
235.095	135.33
235.312	145.19
235.528	136.89
235.744	131
235.961	107.67
236.177	79.02
236.393	81.85
236.61	95.87
236.826	100.98
237.042	91.59
237.258	87.15
237.475	95.58
237.691	91.93
237.907	110.14
238.123	116.68
238.339	135.21
238.556	142.07
238.772	132.04
238.988	108.34
239.204	101.42
239.42	102.91
239.636	99.76
239.853	98.27
240.069	91.86
240.285	81.08
240.501	69.31
240.717	63.67
240.933	59.1
241.149	55.78
241.365	53.03
241.581	54.63
241.797	55.59
242.013	48.58
242.229	46.32
242.445	41.4
242.661	44.3
242.877	48.75
243.093	49.98
243.309	57.23
243.525	62.34
243.741	58.57
243.957	54.06
244.173	48.65
244.388	52.19
244.604	48.56
244.82	46.22
245.036	42.47
245.252	38.28
245.468	33.92
245.683	31.73
245.899	29.58
246.115	32.41
246.331	30.79
246.547	30.26
246.762	30.82
246.978	28.6
247.194	30.85
247.409	32.58
247.625	38.57
247.841	45.57
248.057	47.31
248.272	54.62
248.488	59.67
248.703	67.44
248.919	72.32
249.135	76.99
249.35	85.75
249.566	83.32
249.782	74.2
249.997	73.56
250.213	63.23
250.428	62.57
250.644	50
250.859	44.96
251.075	43.97
251.29	45.68
251.506	44.56
251.721	43.2
251.937	46.61
252.152	48.24
252.368	35.47
252.583	44.06
252.798	52
253.014	72.23
253.229	79.81
253.445	75.79
253.66	64.62
253.875	60.5
254.091	55.08
254.306	55.49
254.521	53.58
254.737	56.96
254.952	51.12
255.167	49.31
255.383	45.94
255.598	47.63
255.813	44.18
256.028	42.82
256.244	40.31
256.459	38.38
256.674	36.71
256.889	34.5
257.104	33.47
257.32	31.37
257.535	24.55
257.75	20.37
257.965	16.44
258.18	16.41
258.395	20.11
258.61	20.34
258.826	19.83
259.041	18.93
259.256	21.01
259.471	22.26
259.686	20.73
259.901	26.18
260.116	28.75
260.331	30.65
260.546	35.58
260.761	34.76
260.976	35.76
261.191	37.21
261.406	38.51
261.621	38.12
261.836	39.64
262.05	42.58
262.265	36.22
262.48	40.76
262.695	47.7
262.91	46.52
263.125	42.37
263.34	46.53
263.555	47.69
263.769	43.76
263.984	41.25
264.199	44.45
264.414	48.09
264.629	53.91
264.843	50.05
265.058	40.46
265.273	38.44
265.488	40.84
265.702	37.75
265.917	35.75
266.132	39.34
266.346	43.95
266.561	39.66
266.776	38.77
266.99	34.17
267.205	37.55
267.42	43.43
267.634	46.54
267.849	44.63
268.063	47.46
268.278	49.95
268.492	50.16
268.707	46.14
268.922	43.91
269.136	39.5
269.351	38.85
269.565	35.87
269.78	32.52
269.994	27.38
270.209	31.71
270.423	31.89
270.637	29.53
270.852	26.5
271.066	26.93
271.281	26.97
271.495	33.81
271.709	35.96
271.924	36.91
272.138	36.17
272.353	43.34
272.567	39.47
272.781	38.54
272.996	40.21
273.21	42.19
273.424	43.08
273.638	45.89
273.853	42.74
274.067	42.21
274.281	40.55
274.495	40.93
274.71	36.39
274.924	40.19
275.138	39.47
275.352	38.76
275.566	36.45
275.781	38.63
275.995	36.25
276.209	35.78
276.423	36.27
276.637	35.06
276.851	34.73
277.065	33.36
277.279	28.47
277.493	28.54
277.707	29.23
277.921	28.78
278.135	24.85
278.349	27.78
278.563	29.79
278.777	27.57
278.991	29.4
279.205	33.55
279.419	34.69
279.633	36.22
279.847	32.83
280.061	30.46
280.275	30.77
280.489	29.76
280.703	31.99
280.917	27.52
281.131	28.11
281.344	25.98
281.558	24.26
281.772	22.93
281.986	22.53
282.2	29.09
282.414	29.81
282.627	29.17
282.841	29.72
283.055	26.43
283.269	27.63
283.482	27.37
283.696	28.78
283.91	27.45
284.123	26.8
284.337	26.82
284.551	24.37
284.764	23.05
284.978	22.76
285.192	21.67
285.405	21.65
285.619	20.73
285.833	20.3
286.046	18.34
286.26	19.12
286.473	17.46
286.687	17.92
286.9	15.63
287.114	17.41
287.327	21.16
287.541	20.43
287.754	21.09
287.968	19.81
288.181	22
288.395	24.39
288.608	28.25
288.822	30.53
289.035	29.3
289.248	30.89
289.462	31.19
289.675	29.01
289.889	30.52
290.102	29.14
290.315	30.25
290.529	29.36
290.742	28.61
290.955	26.46
291.169	28.07
291.382	28.12
291.595	25.92
291.808	22.99
292.022	22.69
292.235	20.77
292.448	20.46
292.661	23.34
292.875	21.2
293.088	21.35
293.301	19.84
293.514	16.19
293.727	16.6
293.94	16.57
294.153	15.85
294.367	14.68
294.58	17.43
294.793	16.59
295.006	15.37
295.219	16.24
295.432	17.36
295.645	16.14
295.858	16.74
296.071	15.42
296.284	15.53
296.497	18.01
296.71	20.54
296.923	22.72
297.136	24.81
297.349	25.32
297.562	26.84
297.775	26.2
297.988	27.81
298.201	28.33
298.414	30.9
298.626	32.95
298.839	34.43
299.052	35.04
299.265	32.05
299.478	30.58
299.691	31.28
299.903	30.07
300.116	28.29
300.329	29.5
300.542	32.63
300.755	30.55
300.967	31.67
301.18	33.9
301.393	33.07
301.605	35.77
301.818	35.64
302.031	32.28
302.243	32.84
302.456	35.5
302.669	32.62
302.881	30.74
303.094	31.66
303.307	28.92
303.519	24.03
303.732	25.56
303.944	24.27
304.157	23.9
304.37	26.31
304.582	25.09
304.795	26.09
305.007	30.11
305.22	29.33
305.432	30.31
305.645	30.47
305.857	33.72
306.069	31.44
306.282	31.31
306.494	31.91
306.707	33.23
306.919	33.7
307.132	33.2
307.344	30.91
307.556	30.54
307.769	29.62
307.981	31.45
308.193	28.5
308.406	27.69
308.618	23.23
308.83	23.85
309.043	23.76
309.255	23.43
309.467	21
309.679	22.04
309.892	22.89
310.104	22.61
310.316	21.01
310.528	22
310.74	22.88
310.953	26.45
311.165	24.59
311.377	23.32
311.589	23.65
311.801	24.25
312.013	23.91
312.225	24.22
312.437	25.59
312.649	27.68
312.862	27.21
313.074	26.35
313.286	24.08
313.498	26.18
313.71	24.13
313.922	24.02
314.134	23.91
314.346	21.35
314.558	23.69
314.77	21.97
314.982	20.39
315.193	24.77
315.405	25.69
315.617	26.29
315.829	25.97
316.041	30.16
316.253	30.8
316.465	31.8
316.677	33.64
316.888	32.22
317.1	33.73
317.312	34.13
317.524	33.33
317.736	31.91
317.947	32.9
318.159	32.34
318.371	32.55
318.583	32.1
318.794	32.95
319.006	39.55
319.218	38.72
319.43	36.78
319.641	36.46
319.853	33.03
320.064	34.72
320.276	39.63
320.488	42.81
320.699	38.24
320.911	37.61
321.123	35.87
321.334	31.8
321.546	32.16
321.757	34.31
321.969	34.31
322.18	35.66
322.392	34.94
322.603	32.28
322.815	30.81
323.026	30.49
323.238	28.81
323.449	29.26
323.661	27
323.872	26.86
324.083	25.56
324.295	26.11
324.506	22.82
324.718	21.83
324.929	21.18
325.14	20.79
325.352	23.14
325.563	25.17
325.774	25.49
325.986	28.71
326.197	27.16
326.408	27.62
326.62	28.32
326.831	29.66
327.042	29.51
327.253	29.91
327.464	31.6
327.676	32.08
327.887	30.89
328.098	29.75
328.309	23.16
328.52	23.52
328.732	23.06
328.943	21.75
329.154	26.44
329.365	25.45
329.576	28.23
329.787	27.65
329.998	27.79
330.209	30.74
330.42	30.63
330.631	34.03
330.842	35.46
331.053	37.77
331.264	38.18
331.475	35.44
331.686	36.39
331.897	33.36
332.108	30.88
332.319	32.97
332.53	30.8
332.741	30.05
332.952	30.55
333.163	31.66
333.374	30.04
333.585	29.37
333.795	30.19
334.006	30.87
334.217	32.15
334.428	33.26
334.639	30.1
334.849	28.87
335.06	30.81
335.271	29.76
335.482	29.89
335.692	29.05
335.903	31.59
336.114	33.46
336.325	32.74
336.535	32.18
336.746	32.92
336.957	32.87
337.167	36.32
337.378	36.25
337.589	36.15
337.799	34.65
338.01	36.03
338.22	34.61
338.431	31.94
338.642	33.25
338.852	35.14
339.063	32.86
339.273	35.77
339.484	35.32
339.694	34.04
339.905	31.01
340.115	30.86
340.326	28.98
340.536	30.31
340.746	30.42
340.957	30.49
341.167	28.79
341.378	29.82
341.588	27.58
341.799	24.53
342.009	22.85
342.219	24.14
342.43	25.78
342.64	26.49
342.85	24.51
343.061	23.36
343.271	25.43
343.481	27.12
343.691	24.73
343.902	25.09
344.112	28.12
344.322	29.73
344.532	30.12
344.743	31.32
344.953	30.8
345.163	32.19
345.373	32.36
345.583	30.27
345.793	29.01
346.004	29.98
346.214	29.93
346.424	30.41
346.634	33.4
346.844	33.89
347.054	28.86
347.264	29.98
347.474	30.45
347.684	32.08
347.894	29.76
348.104	27.86
348.314	31.61
348.524	29.93
348.734	28.46
348.944	27.08
349.154	26.68
349.364	26.61
349.574	25.17
349.784	23.71
349.994	23
350.204	25.02
350.413	24.62
350.623	23.38
350.833	25.87
351.043	25.58
351.253	25.28
351.463	25.31
351.672	29.56
351.882	31.01
352.092	31.02
352.302	31.61
352.511	31.92
352.721	33.53
352.931	31.97
353.141	30.74
353.35	30.58
353.56	30.48
353.77	27.4
353.979	24.94
354.189	25.37
354.399	25.42
354.608	22.9
354.818	20.95
355.027	19.08
355.237	18.58
355.447	19.37
355.656	17.14
355.866	16.37
356.075	21.02
356.285	19.71
356.494	17.79
356.704	19.58
356.913	21.67
357.123	23.92
357.332	24.13
357.542	25.56
357.751	24.71
357.96	26.87
358.17	26.95
358.379	26.23
358.589	27.1
358.798	27.76
359.007	26.02
359.217	25.33
359.426	23.6
359.635	24.23
359.845	23.29
360.054	22.28
360.263	21.7
360.472	21.51
360.682	20.42
360.891	20.64
361.1	19.71
361.309	19.44
361.519	19.99
361.728	21.03
361.937	20.56
362.146	21.1
362.355	21.5
362.564	20.5
362.774	20.04
362.983	18.79
363.192	18.02
363.401	18.74
363.61	18.36
363.819	17.56
364.028	17.16
364.237	15.61
364.446	16.76
364.655	16.72
364.864	17.94
365.073	19.67
365.282	21.34
365.491	23.67
365.7	24.92
365.909	24.72
366.118	25.2
366.327	24.49
366.536	25.95
366.745	24.49
366.954	24.8
367.162	24.75
367.371	24.43
367.58	24.99
367.789	23.67
367.998	21.99
368.207	22.69
368.415	23.45
368.624	23.01
368.833	22.64
369.042	23.24
369.25	22.7
369.459	20.95
369.668	21.27
369.877	21.1
370.085	20.46
370.294	20.13
370.503	20.29
370.711	19.83
370.92	19.41
371.129	19.69
371.337	19.81
371.546	20.1
371.754	21.67
371.963	21.04
372.171	21.61
372.38	23.32
372.589	24.5
372.797	24.22
373.006	23.74
373.214	24.41
373.423	24.12
373.631	22.79
373.84	23.07
374.048	22.74
374.256	21.12
374.465	21.55
374.673	19.79
374.882	17.34
375.09	18.22
375.298	18.41
375.507	18.89
375.715	19.13
375.923	19.52
376.132	17.69
376.34	18.83
376.548	19.53
376.757	18.49
376.965	18.12
377.173	20.29
377.381	19.66
377.59	19.89
377.798	20.42
378.006	21.2
378.214	21.62
378.423	23.06
378.631	21.68
378.839	20.98
379.047	18.68
379.255	19.41
379.463	19.85
379.671	19.65
379.879	20
380.088	19.32
380.296	19.84
380.504	19.35
380.712	18.53
380.92	18.9
381.128	19.8
381.336	21.45
381.544	21
381.752	20.21
381.96	18.2
382.168	17.18
382.376	16.5
382.584	15.48
382.791	14.79
382.999	15.82
383.207	15.78
383.415	15.47
383.623	16.86
383.831	16.63
384.039	15.64
384.247	16.98
384.454	16.95
384.662	16.74
384.87	15.82
385.078	16.27
385.285	17.05
385.493	17.4
385.701	17.57
385.909	16.48
386.116	16.54
386.324	16.54
386.532	17.22
386.739	16.55
386.947	17.91
387.155	18.63
387.362	19.02
387.57	17.16
387.778	16.8
387.985	16.88
388.193	16.18
388.4	15.65
388.608	16.55
388.816	16.52
389.023	16.76
389.231	16.07
389.438	15.45
389.646	15.05
389.853	15.46
390.061	15.92
390.268	15.7
390.475	16.17
390.683	16.29
390.89	16.52
391.098	15.27
391.305	16.45
391.512	16.14
391.72	15.8
391.927	15.97
392.135	15.9
392.342	15.51
392.549	16.34
392.756	16.15
392.964	16.23
393.171	16.45
393.378	17.18
393.586	16.22
393.793	16.85
394	18.02
394.207	17.66
394.414	18.04
394.622	18.62
394.829	18.68
395.036	19.38
395.243	18.82
395.45	18.07
395.657	18.02
395.864	17.97
396.072	18.08
396.279	16.79
396.486	17.24
396.693	17.46
396.9	16.18
397.107	16.25
397.314	15.97
397.521	16.48
397.728	16.55
397.935	17.18
398.142	16.4
398.349	14.95
398.556	14.98
398.763	14.11
398.97	14.57
399.177	15.06
399.383	14.32
399.59	13.77
399.797	14.52
400.004	15.31
400.211	15.21
400.418	16.75
400.625	17.38
400.831	17.79
401.038	18.57
401.245	17.65
401.452	18.04
401.658	17.21
401.865	16.51
402.072	16.26
402.279	14.85
402.485	12.86
402.692	11.55
402.899	11.96
403.105	11.81
403.312	13.11
403.519	14.17
403.725	13.86
403.932	13.85
404.138	14.58
404.345	14.56
404.552	14.46
404.758	15.76
404.965	16.92
405.171	16.01
405.378	16.93
405.584	16.02
405.791	15.89
405.997	15.74
406.204	16.03
406.41	16.13
406.617	16.29
406.823	16.36
407.029	15.61
407.236	14.44
407.442	14.74
407.649	15.08
407.855	14.89
408.061	14.21
408.268	13.81
408.474	13.04
408.68	13.17
408.887	11.66
409.093	13.32
409.299	13.92
409.505	14.5
409.712	14.96
409.918	14.26
410.124	14.15
410.33	14.57
410.537	14.75
410.743	14.5
410.949	14.9
411.155	16.53
411.361	14.83
411.567	15.41
411.773	14.92
411.98	14.26
412.186	13.41
412.392	13.6
412.598	13.76
412.804	13.76
413.01	15.06
413.216	13.56
413.422	12.59
413.628	13.5
413.834	13.51
414.04	13.55
414.246	14.3
414.452	15.26
414.658	14.37
414.864	13.84
415.07	14.13
415.275	13.69
415.481	13.74
415.687	14.36
415.893	13.44
416.099	12.82
416.305	12.01
416.511	11.35
416.716	10.23
416.922	10.82
417.128	10.38
417.334	10.15
417.539	9.7
417.745	9.12
417.951	8.26
418.157	8.73
418.362	8.12
418.568	8.97
418.774	8.56
418.979	9.16
419.185	8.54
419.391	8.58
419.596	7.94
419.802	8.13
420.008	8.67
420.213	8.83
420.419	8.28
420.624	8.71
420.83	8.78
421.035	8.88
421.241	8.68
421.446	8.86
421.652	9
421.857	9.4
422.063	9.18
422.268	9.12
422.474	9.06
422.679	8.64
422.885	8.95
423.09	8.56
423.295	8.3
423.501	8.56
423.706	8.46
423.911	8.18
424.117	8.56
424.322	8.99
424.527	9.39
424.733	9.81
424.938	9.91
425.143	9.43
425.349	9.79
425.554	10.73
425.759	10.65
425.964	11.2
426.169	11.14
426.375	10.95
426.58	10.89
426.785	10.43
426.99	10.3
427.195	10.94
427.4	11.12
427.605	10.59
427.811	10.29
428.016	10.42
428.221	9.82
428.426	10.48
428.631	10.19
428.836	9.57
429.041	9.44
429.246	9.75
429.451	9.58
429.656	9.88
429.861	9.3
430.066	9.06
430.271	8.46
430.476	8.03
430.681	8.07
430.886	8.56
431.09	9.05
431.295	9.04
431.5	8.51
431.705	8.35
431.91	8.34
432.115	8.34
432.32	8.98
432.524	8.88
432.729	9.22
432.934	9
433.139	8.3
433.343	8.81
433.548	9
433.753	9.83
433.958	10.26
434.162	9.88
434.367	11.08
434.572	10.62
434.776	10.9
434.981	11.62
435.186	11.97
435.39	12.25
435.595	11.74
435.799	12.09
436.004	11.39
436.209	11.29
436.413	11.16
436.618	10.82
436.822	10.95
437.027	11.17
437.231	10.55
437.436	10.47
437.64	10.66
437.845	10.52
438.049	10.06
438.253	10.14
438.458	10.65
438.662	11.17
438.867	11.07
439.071	10.95
439.275	10.58
439.48	11.02
439.684	10.65
439.888	10.46
440.093	10.91
440.297	11.12
440.501	11.1
440.706	10.47
440.91	10.02
441.114	9.97
441.318	9.87
441.523	10.1
441.727	9.84
441.931	10.87
442.135	11.02
442.339	10.77
442.543	10.76
442.748	10.3
442.952	10.28
443.156	10.44
443.36	9.78
443.564	9.72
443.768	9.71
443.972	9.72
444.176	9.09
444.38	9.07
444.584	9.3
444.788	9.4
444.992	9.34
445.196	9.37
445.4	9.23
445.604	9.3
445.808	9.48
446.012	9.12
446.216	8.67
446.42	8.37
446.624	8.46
446.828	7.82
447.032	7.71
447.235	8.23
447.439	8.09
447.643	8.2
447.847	9.22
448.051	9.11
448.254	9.55
448.458	9.48
448.662	9.64
448.866	9.56
449.069	9.95
449.273	9.92
449.477	9.42
449.681	9.58
449.884	9.83
450.088	8.87
450.292	9.16
450.495	8.93
450.699	9.28
450.902	9.31
451.106	9.33
451.31	8.42
451.513	8.47
451.717	9.04
451.92	9.79
452.124	10.16
452.327	10.28
452.531	10.5
452.734	11.17
452.938	11.31
453.141	11.8
453.345	12.06
453.548	12.9
453.752	12.89
453.955	12.69
454.158	11.77
454.362	11.5
454.565	11.56
454.769	11.79
454.972	11.2
455.175	11.42
455.379	10.42
455.582	10.08
455.785	9.94
455.988	9.67
456.192	9.94
456.395	10.17
456.598	9.69
456.801	9.63
457.005	8.64
457.208	8.56
457.411	8.66
457.614	8.92
457.817	9.07
458.021	8.52
458.224	8.89
458.427	8.36
458.63	8.53
458.833	8.57
459.036	8.55
459.239	8.85
459.442	9
459.645	9.08
459.848	9.11
460.051	8.55
460.254	8.76
460.457	8.05
460.66	8.38
460.863	8.08
461.066	7.8
461.269	7.76
461.472	7.65
461.675	7.89
461.878	7.48
462.081	7.68
462.284	8.38
462.486	9.16
462.689	9.39
462.892	9.4
463.095	9.04
463.298	9.2
463.5	9.76
463.703	10.07
463.906	9.3
464.109	8.9
464.311	8.75
464.514	8.74
464.717	8.78
464.92	9.33
465.122	9.75
465.325	10.02
465.528	10.57
465.73	9.92
465.933	9.25
466.135	9.88
466.338	10.34
466.541	10.08
466.743	9.7
466.946	9.72
467.148	9.96
467.351	9.3
467.553	9.84
467.756	10.05
467.958	10.18
468.161	11.13
468.363	10.75
468.566	10.73
468.768	10.99
468.971	11.34
469.173	11.09
469.375	10.84
469.578	10.71
469.78	10.6
469.983	10.57
470.185	10.37
470.387	9.77
470.59	9.68
470.792	9.58
470.994	9.59
471.196	9.59
471.399	9.81
471.601	10.11
471.803	10.32
472.005	9.53
472.208	8.69
472.41	9.08
472.612	8.86
472.814	9.55
473.016	8.8
473.218	8.92
473.421	9.02
473.623	8.67
473.825	8.86
474.027	8.86
474.229	9.5
474.431	9.87
474.633	10.05
474.835	10.42
475.037	9.82
475.239	10.23
475.441	10.67
475.643	10.66
475.845	10.39
476.047	9.52
476.249	9.73
476.451	9.93
476.653	10.09
476.855	9.67
477.057	9.09
477.258	9.21
477.46	9.46
477.662	9.35
477.864	9.9
478.066	10.41
478.268	10.48
478.469	10.12
478.671	9.66
478.873	9.38
479.075	9.29
479.276	9.07
479.478	8.61
479.68	8.66
479.882	8.04
480.083	7.11
480.285	6.85
480.487	6.5
480.688	6.38
480.89	6.39
481.091	6.11
481.293	6.21
481.495	6.11
481.696	6.15
481.898	6.05
482.099	6.03
482.301	6.07
482.502	5.6
482.704	5.54
482.905	5.43
483.107	5.29
483.308	5.27
483.51	5.08
483.711	5.17
483.913	5.25
484.114	5.21
484.315	5.22
484.517	5.19
484.718	5.58
484.92	5.74
485.121	5.85
485.322	5.82
485.524	5.86
485.725	5.82
485.926	5.62
486.127	5.59
486.329	5.3
486.53	5.38
486.731	5.27
486.932	5.31
487.134	5.47
487.335	5.34
487.536	5.46
487.737	5.53
487.938	5.89
488.139	6.09
488.341	6.19
488.542	6.21
488.743	6.21
488.944	6.29
489.145	6.46
489.346	6.15
489.547	6.24
489.748	6.21
489.949	6.13
490.15	5.84
490.351	5.94
490.552	5.79
490.753	5.92
490.954	6.04
491.155	6.15
491.356	5.86
491.557	6.19
491.758	6.52
491.959	6.69
492.159	6.85
492.36	6.92
492.561	7.12
492.762	7.1
492.963	7.69
493.164	7.81
493.364	7.86
493.565	8.31
493.766	8.29
493.967	8.4
494.167	8.27
494.368	8.41
494.569	8.78
494.769	9.08
494.97	9.13
495.171	8.9
495.371	8.55
495.572	8.39
495.773	8.25
495.973	8.3
496.174	8.22
496.375	8.39
496.575	8.4
496.776	8.4
496.976	8.01
497.177	7.93
497.377	8.21
497.578	8.02
497.778	8.58
497.979	8.88
498.179	8.79
498.38	9.1
498.58	8.96
498.78	9.18
498.981	8.63
499.181	8.91
499.382	9.36
499.582	8.91
499.782	9.51
499.983	9.34
500.183	9.11
500.383	9.69
500.584	9.55
500.784	10.11
500.984	10.06
501.184	10.69
501.385	10.07
501.585	9.75
501.785	10
501.985	9.81
502.185	9.34
502.386	9.67
502.586	9.38
502.786	8.71
502.986	8.65
503.186	8.53
503.386	8.43
503.586	8.88
503.786	8.92
503.987	8.9
504.187	8.43
504.387	8.81
504.587	8.3
504.787	8.54
504.987	9.12
505.187	9.32
505.387	9.56
505.587	9.66
505.786	9.85
505.986	9.77
506.186	10.04
506.386	10.85
506.586	11.08
506.786	11.31
506.986	10.78
507.186	11.21
507.386	10.8
507.585	10.63
507.785	10.3
507.985	9.97
508.185	10.51
508.384	10.32
508.584	9.65
508.784	9.02
508.984	9.08
509.183	9.58
509.383	9.01
509.583	9.24
509.782	8.92
509.982	9.22
510.182	9.3
510.381	9.13
510.581	8.81
510.781	9.22
510.98	9.92
511.18	9.73
511.379	9.27
511.579	9.1
511.778	8.94
511.978	9.28
512.177	9.32
512.377	9.83
512.576	10.13
512.776	10.67
512.975	10.44
513.175	10.31
513.374	10.37
513.573	10.76
513.773	11.53
513.972	11.48
514.172	11.52
514.371	11.5
514.57	10.96
514.77	10.64
514.969	10.87
515.168	10.97
515.367	10.73
515.567	10.68
515.766	10.15
515.965	9.18
516.164	9.21
516.364	9.3
516.563	9.66
516.762	9.49
516.961	9.3
517.16	9.1
517.359	9.08
517.559	9.36
517.758	9.63
517.957	9.89
518.156	10.76
518.355	10.71
518.554	10.58
518.753	10.44
518.952	11.09
519.151	11.4
519.35	11.44
519.549	11.34
519.748	11.54
519.947	11.6
520.146	11.51
520.345	11.18
520.544	11.48
520.743	11.47
520.942	11.48
521.141	11.23
521.339	10.93
521.538	10.57
521.737	10.95
521.936	10.69
522.135	10.12
522.333	10.97
522.532	10.79
522.731	11.27
522.93	11.37
523.129	11.3
523.327	10.95
523.526	11.32
523.725	11.45
523.923	11.12
524.122	10.99
524.321	11.04
524.519	10.43
524.718	10.77
524.917	10.5
525.115	10.7
525.314	10.7
525.512	10.79
525.711	10.55
525.909	10.69
526.108	10.93
526.306	10.76
526.505	10.91
526.703	10.84
526.902	10.69
527.1	10.47
527.299	10.24
527.497	10.12
527.696	10.08
527.894	10.01
528.092	10.07
528.291	9.94
528.489	10.05
528.688	10.13
528.886	10.21
529.084	10.33
529.283	10.62
529.481	10.96
529.679	11.2
529.877	11.43
530.076	11.79
530.274	11.71
530.472	12.03
530.67	12.23
530.869	12.22
531.067	12.11
531.265	11.81
531.463	11.65
531.661	11.17
531.859	11.01
532.057	11.03
532.255	10.69
532.454	10.87
532.652	10.89
532.85	10.93
533.048	10.81
533.246	11.13
533.444	11.1
533.642	11.11
533.84	11.38
534.038	11.75
534.236	11.58
534.434	11.78
534.632	11.55
534.83	11.73
535.027	12.02
535.225	12.07
535.423	11.99
535.621	12.4
535.819	12.63
536.017	12.83
536.215	12.69
536.412	12.79
536.61	13.23
536.808	13.22
537.006	12.97
537.203	12.87
537.401	13.37
537.599	13.82
537.797	13.8
537.994	13.67
538.192	13.7
538.39	13.63
538.587	13.98
538.785	13.91
538.983	14.11
539.18	13.76
539.378	13.33
539.575	13.19
539.773	12.71
539.97	12.63
540.168	12.42
540.366	12.56
540.563	12.73
540.761	12.61
540.958	12.41
541.155	12.29
541.353	12.54
541.55	12.94
541.748	13
541.945	13.22
542.143	13.71
542.34	14.25
542.537	14.3
542.735	14.58
542.932	14.82
543.129	15.12
543.327	15.4
543.524	15.61
543.721	15.2
543.919	15.25
544.116	15.07
544.313	14.49
544.51	14.24
544.708	14.01
544.905	14.12
545.102	14.41
545.299	14.62
545.496	14.76
545.693	14.98
545.891	14.94
546.088	14.95
546.285	15.32
546.482	15.28
546.679	15.38
546.876	15.75
547.073	15.73
547.27	15.64
547.467	15.63
547.664	15.38
547.861	15.3
548.058	16.13
548.255	16.37
548.452	16.84
548.649	17.6
548.846	18.38
549.043	18.54
549.24	18.43
549.437	18.4
549.633	18.16
549.83	19.02
550.027	19.33
550.224	19.36
550.421	19.05
550.618	18.67
550.814	18.36
551.011	17.98
551.208	18.18
551.405	18.55
551.601	18.95
551.798	18.82
551.995	18.35
552.191	18.47
552.388	18.3
552.585	19.04
552.781	19.32
552.978	19.33
553.175	19.46
553.371	19.3
553.568	19.38
553.764	18.82
553.961	19.03
554.157	19.44
554.354	19.29
554.55	19.23
554.747	18.67
554.943	18.89
555.14	19.66
555.336	19.63
555.533	19.66
555.729	19.8
555.926	20.09
556.122	20.78
556.318	20.38
556.515	20.4
556.711	21.04
556.907	21.4
557.104	20.96
557.3	20.37
557.496	20.67
557.693	21.03
557.889	20.42
558.085	20.94
558.281	21.25
558.478	22.22
558.674	22.08
558.87	21.91
559.066	21.1
559.262	21.51
559.459	21.88
559.655	21.42
559.851	21.9
560.047	22.68
560.243	22.64
560.439	22.53
560.635	21.73
560.831	21.85
561.027	21.78
561.223	23.06
561.419	22.94
561.615	23.27
561.811	22.95
562.007	22.65
562.203	22.9
562.399	22.77
562.595	22.45
562.791	22.89
562.987	23.46
563.183	23.65
563.379	23.21
563.575	22.76
563.771	22.73
563.966	22.82
564.162	22.76
564.358	21.76
564.554	22.1
564.75	22.21
564.945	21.67
565.141	20.72
565.337	20.6
565.533	20.43
565.728	20.9
565.924	21.01
566.12	21.76
566.315	21.44
566.511	21.33
566.707	20.96
566.902	21.32
567.098	22
567.293	22.14
567.489	22.77
567.684	23.29
567.88	22.42
568.076	22.27
568.271	21.98
568.467	22.7
568.662	22.99
568.858	22.8
569.053	22.31
569.248	21.74
569.444	22.46
569.639	21.7
569.835	21.45
570.03	21.91
570.225	21.63
570.421	21.19
570.616	20.72
570.812	20.97
571.007	21.25
571.202	21.33
571.397	21.74
571.593	20.97
571.788	21.28
571.983	21.32
572.178	22.02
572.374	22.14
572.569	22.2
572.764	22.09
572.959	22.31
573.154	21.84
573.35	22.09
573.545	21.85
573.74	22.32
573.935	22.77
574.13	22.77
574.325	22.2
574.52	22.36
574.715	22.44
574.91	22.47
575.105	22.57
575.3	23.12
575.495	23.23
575.69	23.87
575.885	24.05
576.08	24
576.275	24.21
576.47	25.53
576.665	25.34
576.86	25.35
577.055	25.75
577.25	25.03
577.444	25.38
577.639	25.36
577.834	24.92
578.029	25.14
578.224	25.35
578.418	25.25
578.613	24.87
578.808	24.83
579.003	25.39
579.197	25.17
579.392	26.53
579.587	26.58
579.781	26.33
579.976	26.56
580.171	26.53
580.365	26.16
580.56	26.68
580.755	25.89
580.949	26.3
581.144	26.95
581.338	27.43
581.533	27.14
581.727	26.34
581.922	26.73
582.116	27.12
582.311	27.72
582.505	28.01
582.7	27.53
582.894	28.3
583.089	28.2
583.283	27.63
583.478	26.91
583.672	26.44
583.866	26.4
584.061	26.66
584.255	26.33
584.449	26.09
584.644	25.79
584.838	25.86
585.032	25.64
585.226	25.67
585.421	25.56
585.615	25.47
585.809	25.55
586.003	26.45
586.198	26.26
586.392	26.42
586.586	26.94
586.78	27.36
586.974	27.27
587.168	27.7
587.363	27.41
587.557	27.47
587.751	27.59
587.945	28.02
588.139	28.29
588.333	28.84
588.527	29.04
588.721	28.4
588.915	28.47
589.109	29.17
589.303	27.95
589.497	28.46
589.691	28.56
589.885	29.07
590.079	29.56
590.273	28.85
590.466	27.77
590.66	27.8
590.854	27.93
591.048	27.91
591.242	27.36
591.436	27.9
591.629	28.19
591.823	28.93
592.017	29.01
592.211	27.59
592.404	27.77
592.598	28.09
592.792	27.52
592.986	26.67
593.179	26.22
593.373	26.23
593.567	26.23
593.76	25.92
593.954	26.1
594.147	26.54
594.341	27.05
594.535	27.24
594.728	27.05
594.922	27.19
595.115	27.34
595.309	26.58
595.502	26.25
595.696	26.31
595.889	26.49
596.083	25.84
596.276	24.91
596.47	24.55
596.663	24.59
596.856	24.43
597.05	24.58
597.243	24.69
597.437	25.77
597.63	26.21
597.823	26.38
598.017	26.1
598.21	26.64
598.403	27.34
598.596	28.85
598.79	29.3
598.983	29.76
599.176	30.07
599.369	30.95
599.563	30.75
599.756	31.11
599.949	31.08
600.142	31.77
600.335	31.53
600.528	31.6
600.722	31.48
600.915	30.97
601.108	30.76
601.301	30.88
601.494	29.98
601.687	30.53
601.88	30.61
602.073	29.98
602.266	29.1
602.459	28.61
602.652	28.58
602.845	27.94
603.038	27.26
603.231	27.81
603.424	27.66
603.617	28.35
603.809	27.23
604.002	27.01
604.195	27.56
604.388	27.71
604.581	27.71
604.774	27.96
604.966	27.76
605.159	28.64
605.352	28.49
605.545	28.23
605.737	28.05
605.93	28.74
606.123	28.3
606.316	28.36
606.508	29.11
606.701	29.74
606.894	29.07
607.086	29.7
607.279	29.14
607.471	29.63
607.664	29.38
607.857	29.65
608.049	30.25
608.242	30.5
608.434	29.88
608.627	29.04
608.819	28.81
609.012	29.19
609.204	28.76
609.397	29.5
609.589	28.93
609.782	28.98
609.974	29.28
610.166	29.18
610.359	30.17
610.551	31.3
610.743	31.7
610.936	32.19
611.128	32.53
611.32	32.85
611.513	32.73
611.705	32.37
611.897	32.95
612.09	32.67
612.282	32.51
612.474	32.24
612.666	32.1
612.858	31.99
613.051	31.33
613.243	31.11
613.435	31.47
613.627	31.15
613.819	32.43
614.011	32.43
614.203	31.39
614.395	31.97
614.588	31.61
614.78	31.3
614.972	32.37
615.164	33.48
615.356	33.04
615.548	32.57
615.74	33.03
615.932	32.18
616.124	32.54
616.315	32.55
616.507	31.85
616.699	31.74
616.891	31.58
617.083	30.86
617.275	30.46
617.467	31.2
617.659	31.44
617.85	30.52
618.042	30.12
618.234	30.08
618.426	30.36
618.618	30.21
618.809	30.27
619.001	30.58
619.193	31.09
619.384	31.02
619.576	32.26
619.768	31.96
619.959	32.03
620.151	32.84
620.343	32.88
620.534	33.5
620.726	34.46
620.917	34.45
621.109	33.82
621.301	33.91
621.492	33.17
621.684	30.29
621.875	31.01
622.067	31.87
622.258	31.23
622.45	32.05
622.641	31.71
622.832	30.78
623.024	31.11
623.215	31.56
623.407	31.01
623.598	31.77
623.789	32.56
623.981	31.51
624.172	31.14
624.363	31.58
624.555	30.84
624.746	30.92
624.937	30.59
625.129	29.81
625.32	30.21
625.511	30.24
625.702	29.44
625.893	29.96
626.085	29.91
626.276	29.48
626.467	29.54
626.658	29.54
626.849	30.44
627.04	30.7
627.231	31.06
627.422	31.04
627.614	31.05
627.805	31.53
627.996	31.6
628.187	31.48
628.378	30.94
628.569	30.37
628.76	30.54
628.951	29.26
629.142	29.77
629.332	30.05
629.523	30.49
629.714	30.57
629.905	31.8
630.096	31.69
630.287	33.09
630.478	34.65
630.669	35.07
630.859	33.91
631.05	34.17
631.241	33.61
631.432	33.25
631.623	32.78
631.813	32.88
632.004	31.94
632.195	32.51
632.385	32.23
632.576	31.72
632.767	31.86
632.957	32.54
633.148	33.19
633.339	34.47
633.529	34.39
633.72	34.13
633.91	33.64
634.101	33.56
634.292	34.43
634.482	34.52
634.673	35.01
634.863	34.77
635.054	35.11
635.244	35.1
635.435	34.95
635.625	35.83
635.815	35.86
636.006	36.74
636.196	36.6
636.387	35.04
636.577	34.78
636.767	35.07
636.958	35.89
637.148	34.81
637.338	35.03
637.529	33.62
637.719	33.08
637.909	32.73
638.099	32.87
638.29	33.69
638.48	34.35
638.67	34.2
638.86	33.23
639.05	32.51
639.241	34.81
639.431	34.41
639.621	35.85
639.811	35.94
640.001	36.93
640.191	36.58
640.381	37.22
640.571	37.45
640.761	37.74
640.951	37.91
641.141	38.65
641.331	37.49
641.521	38.15
641.711	37.58
641.901	37.88
642.091	38.34
642.281	38.16
642.471	36.77
642.661	36.73
642.851	36.74
643.041	38.99
643.231	38.74
643.42	39.63
643.61	39.12
643.8	39.5
643.99	38.3
644.18	38.26
644.369	38.58
644.559	39.66
644.749	38.89
644.939	38.96
645.128	36.75
645.318	37.03
645.508	36.06
645.697	36
645.887	35.53
646.076	36.58
646.266	34.72
646.456	33.49
646.645	32.86
646.835	33.24
647.024	32.66
647.214	32.92
647.403	32.74
647.593	33.02
647.782	33.83
647.972	32.82
648.161	33.43
648.351	34.65
648.54	35.69
648.73	36.36
648.919	37.09
649.108	37.97
649.298	37.86
649.487	37.31
649.677	38.07
649.866	37.66
650.055	37.7
650.244	36.75
650.434	36.79
650.623	37.32
650.812	37.48
651.002	37.5
651.191	35.99
651.38	35.41
651.569	35.71
651.758	33.87
651.947	32.96
652.137	32.92
652.326	32.59
652.515	32.41
652.704	32.1
652.893	31.79
653.082	30.67
653.271	31.08
653.46	31.76
653.649	32.6
653.838	33.61
654.027	33.34
654.216	35.16
654.405	36.51
654.594	36.42
654.783	36.67
654.972	35.56
655.161	35.83
655.35	36.16
655.539	35.87
655.728	35.15
655.916	36.46
656.105	36.71
656.294	36.6
656.483	35.72
656.672	35.94
656.86	34.45
657.049	35.78
657.238	36.02
657.427	35.9
657.615	36.09
657.804	35.87
657.993	33.43
658.181	33.77
658.37	32.91
658.559	32.74
658.747	33.02
658.936	34.25
659.125	34.36
659.313	34.02
659.502	34.03
659.69	33.35
659.879	34.21
660.067	36.57
660.256	37.01
660.444	36.65
660.633	36.91
660.821	36.69
661.01	35.59
661.198	34.89
661.387	35.1
661.575	36.38
661.763	38.19
661.952	37.44
662.14	38.09
662.328	37.71
662.517	39.1
662.705	40.73
662.893	39.7
663.082	41.95
663.27	41.95
663.458	42.03
663.646	41.12
663.834	42.24
664.023	42.98
664.211	41.74
664.399	43.08
664.587	43.1
664.775	41.19
664.963	42.9
665.152	42.4
665.34	41.99
665.528	42.21
665.716	42.43
665.904	41.46
666.092	40.37
666.28	40.9
666.468	39.6
666.656	39.12
666.844	40.57
667.032	40.81
667.22	39.62
667.408	39.16
667.596	39.36
667.784	38.37
667.971	38.24
668.159	38.92
668.347	38.29
668.535	38.49
668.723	39.22
668.911	38.65
669.098	38.6
669.286	38.92
669.474	40.04
669.662	40.39
669.849	42.69
670.037	42.92
670.225	43.01
670.413	42.5
670.6	43.22
670.788	43.9
670.976	43.88
671.163	43.43
671.351	43.98
671.538	43.25
671.726	41.48
671.913	39.4
672.101	39.44
672.289	38.89
672.476	39.81
672.664	40.36
672.851	38.68
673.039	37.87
673.226	37.25
673.413	38.15
673.601	38.7
673.788	40.16
673.976	40.58
674.163	40.72
674.35	40.34
674.538	39.59
674.725	37.57
674.912	37.74
675.1	38.17
675.287	39.53
675.474	37.17
675.662	37.2
675.849	37.94
676.036	37.7
676.223	37.71
676.411	37.67
676.598	38.02
676.785	39.08
676.972	39.68
677.159	40.4
677.346	39.45
677.533	40.55
677.721	39.68
677.908	38.3
678.095	39.22
678.282	38.69
678.469	38.22
678.656	38
678.843	38.04
679.03	37.97
679.217	36.98
679.404	36.93
679.591	37.06
679.778	37.58
679.964	37.89
680.151	37
680.338	37.67
680.525	39.41
680.712	38.9
680.899	39.15
681.086	38.97
681.272	40.07
681.459	40.7
681.646	40.6
681.833	40.27
682.02	40.33
682.206	41.49
682.393	39.59
682.58	38.76
682.766	39.32
682.953	39.17
683.14	40.88
683.326	41.78
683.513	42.17
683.7	43.63
683.886	45.03
684.073	44.48
684.259	44.23
684.446	45.46
684.632	45.66
684.819	45.54
685.005	44.49
685.192	43.21
685.378	41.67
685.565	40.03
685.751	37.92
685.938	36.5
686.124	37.74
686.31	36.38
686.497	35.37
686.683	35.98
686.87	37.34
687.056	36.06
687.242	36.95
687.429	35.89
687.615	37.34
687.801	38.59
687.987	40.23
688.174	39.42
688.36	41.15
688.546	41.59
688.732	39.78
688.918	36.74
689.105	39.08
689.291	38.46
689.477	39.43
689.663	40.01
689.849	39.18
690.035	39.22
690.221	41.19
690.407	42.39
690.593	45.62
690.779	47.63
690.965	51.32
691.151	50.96
691.337	50.09
691.523	49.78
691.709	49.09
691.895	50.24
692.081	49.93
692.267	49.73
692.453	46.72
692.639	46.14
692.825	46.2
693.011	42.7
693.196	43.59
693.382	43.88
693.568	46.29
693.754	45.86
693.94	45.19
694.125	45.34
694.311	43.17
694.497	43.4
694.682	43.38
694.868	42.2
695.054	43.07
695.239	41.47
695.425	40.78
695.611	38.83
695.796	39.58
695.982	37.75
696.168	37.41
696.353	37.59
696.539	37.98
696.724	36.74
696.91	36.03
697.095	35.63
697.281	35.41
697.466	35.38
697.652	36.17
697.837	35.45
698.023	36.02
698.208	35.28
698.393	36.09
698.579	36.56
698.764	36.43
698.949	37.32
699.135	37.32
699.32	38.45
699.505	38.74
699.691	37.59
699.876	37.02
700.061	37.34
700.246	38.5
700.432	37.47
700.617	38.11
700.802	38.78
700.987	39.12
701.172	41.54
701.358	40.81
701.543	41.31
701.728	43.33
701.913	46
702.098	45.18
702.283	45.08
702.468	45.55
702.653	45.84
702.838	46.09
703.023	44.57
703.208	46.15
703.393	48.59
703.578	47.8
703.763	48.49
703.948	46.84
704.133	50.36
704.318	49.11
704.503	49.36
704.688	50.01
704.873	49.4
705.057	52.87
705.242	53.57
705.427	51.41
705.612	51.52
705.797	49.44
705.981	49.01
706.166	47.39
706.351	47.44
706.536	47.2
706.72	46.63
706.905	47.1
707.09	46.17
707.274	44.03
707.459	43.56
707.644	47.94
707.828	48.29
708.013	49.44
708.197	48.46
708.382	50.63
708.567	49.77
708.751	50.99
708.936	49.21
709.12	48.75
709.305	46.31
709.489	47.23
709.673	42.84
709.858	42.98
710.042	43.18
710.227	42.37
710.411	42.88
710.596	43.3
710.78	41.09
710.964	42.76
711.149	43.02
711.333	44.15
711.517	43.77
711.702	44.77
711.886	42.67
712.07	41.31
712.254	42.28
712.438	41.88
712.623	41.24
712.807	42.77
712.991	41.69
713.175	40.86
713.359	41.8
713.544	41.95
713.728	42.09
713.912	45.19
714.096	44.01
714.28	43.49
714.464	42.71
714.648	43.81
714.832	42.35
715.016	42.74
715.2	43.29
715.384	43.38
715.568	41.07
715.752	40.77
715.936	40.5
716.12	42.88
716.304	42.55
716.488	42.05
716.671	42.14
716.855	41.46
717.039	43.5
717.223	41.87
717.407	39.5
717.59	41.73
717.774	43.71
717.958	44.68
718.142	44.03
718.325	44.76
718.509	43.7
718.693	42.67
718.877	44.54
719.06	44.28
719.244	47.95
719.428	50.46
719.611	49.55
719.795	49.11
719.978	49.88
720.162	48.62
720.345	48.37
720.529	52
720.713	53.38
720.896	52.03
721.08	51.44
721.263	47.89
721.446	47.42
721.63	49.58
721.813	50.15
721.997	49.25
722.18	51.97
722.364	51.77
722.547	50.77
722.73	50.86
722.914	52.61
723.097	51.43
723.28	52.3
723.464	54.5
723.647	54.29
723.83	55.18
724.013	53.44
724.197	55.68
724.38	56.23
724.563	55.74
724.746	57.56
724.929	56.84
725.112	56.73
725.296	57.18
725.479	55.69
725.662	54.31
725.845	51.17
726.028	52.81
726.211	47.75
726.394	47.78
726.577	47.71
726.76	45.21
726.943	46.49
727.126	46.85
727.309	48.58
727.492	48
727.675	49.93
727.858	50.2
728.041	48.19
728.224	49.82
728.407	52.13
728.589	53.36
728.772	55.31
728.955	55.73
729.138	55.43
729.321	51.18
729.503	53.28
729.686	52.5
729.869	54.93
730.052	56.97
730.234	58.62
730.417	59.65
730.6	58.83
730.782	53.97
730.965	55
731.148	53.42
731.33	56.45
731.513	53.11
731.695	54.96
731.878	52.53
732.061	54
732.243	53.73
732.426	53.85
732.608	52.35
732.791	53.77
732.973	50.68
733.156	52.71
733.338	53.69
733.52	57.4
733.703	54.43
733.885	56.59
734.068	54.31
734.25	53.6
734.432	49.51
734.615	51.77
734.797	54.68
734.979	55.42
735.162	57.4
735.344	56.9
735.526	55.03
735.708	54.27
735.891	56.24
736.073	56.02
736.255	57.42
736.437	56.89
736.619	55.61
736.802	55.86
736.984	58.78
737.166	57.37
737.348	57.96
737.53	59.11
737.712	61.96
737.894	61.92
738.076	64.27
738.258	62.17
738.44	65.86
738.622	67.98
738.804	66.65
738.986	65.09
739.168	66.92
739.35	68.44
739.532	69.61
739.714	69.49
739.896	64.8
740.078	62.68
740.259	64.64
740.441	62.84
740.623	63.53
740.805	62.94
740.987	60.95
741.168	61.57
741.35	60.29
741.532	58.66
741.714	61.79
741.895	67.43
742.077	70.04
742.259	69.96
742.44	70.79
742.622	71.55
742.804	71.17
742.985	78.89
743.167	77.15
743.348	73
743.53	74.8
743.711	70.65
743.893	68.26
744.075	66.75
744.256	66.81
744.438	70.38
744.619	68.42
744.8	71.43
744.982	67.66
745.163	69.4
745.345	71.74
745.526	74.02
745.707	75.86
745.889	78.34
746.07	74.24
746.252	72.49
746.433	74.1
746.614	74.96
746.795	75.49
746.977	73.23
747.158	70.9
747.339	68.25
747.52	65.64
747.702	64.62
747.883	64.48
748.064	66.27
748.245	71.39
748.426	67.87
748.607	66.39
748.788	67.9
748.97	68.21
749.151	68.96
749.332	73.69
749.513	71.85
749.694	73.67
749.875	74.79
750.056	77.21
750.237	75.16
750.418	75.34
750.599	75.83
750.78	75.43
750.96	75.9
751.141	75.12
751.322	74.28
751.503	78.07
751.684	77.05
751.865	76.47
752.046	79.02
752.226	79.11
752.407	78.74
752.588	80.12
752.769	77.29
752.949	77.49
753.13	76.85
753.311	76.75
753.492	74.89
753.672	72.09
753.853	72.93
754.034	73.78
754.214	72.97
754.395	71.84
754.575	67.15
754.756	67.33
754.937	71.24
755.117	74.75
755.298	77.44
755.478	77.39
755.659	79.88
755.839	79.55
756.02	73.99
756.2	73.22
756.381	72.6
756.561	76.49
756.741	77.59
756.922	73
757.102	74.25
757.283	69.96
757.463	67.83
757.643	67.39
757.823	63.28
758.004	62.36
758.184	61.86
758.364	64.73
758.545	64.25
758.725	62.55
758.905	63.49
759.085	60.36
759.265	62.74
759.446	63.73
759.626	62.33
759.806	60.16
759.986	59.38
760.166	60.65
760.346	60.42
760.526	53.83
760.706	55.14
760.886	52.14
761.066	51.58
761.246	50.55
761.426	51.39
761.606	51.41
761.786	49.9
761.966	49.71
762.146	48.66
762.326	46.33
762.506	47.63
762.686	45.19
762.866	44.83
763.046	45.29
763.225	45.22
763.405	42.16
763.585	42.1
763.765	43.89
763.945	44.41
764.124	47.54
764.304	49.97
764.484	55.56
764.664	57.13
764.843	58.48
765.023	59.6
765.203	56.89
765.382	61.33
765.562	63.66
765.741	65.11
765.921	64.95
766.101	59.67
766.28	60.45
766.46	58.6
766.639	63.48
766.819	68.34
766.998	70.75
767.178	71.3
767.357	72.69
767.537	69.9
767.716	72.07
767.896	78.9
768.075	80.98
768.254	78.75
768.434	81.35
768.613	82.67
768.792	81.4
768.972	77.12
769.151	79.98
769.33	81.24
769.51	86.22
769.689	82.43
769.868	79.69
770.047	84.12
770.226	84.17
770.406	80.85
770.585	77.3
770.764	76.54
770.943	79.75
771.122	78.62
771.301	75.88
771.48	77.65
771.66	84.18
771.839	83.54
772.018	82.28
772.197	90.78
772.376	95.64
772.555	105.17
772.734	103.93
772.913	99.75
773.092	104.44
773.271	103.46
773.449	101.57
773.628	99.2
773.807	91.49
773.986	87.07
774.165	85.31
774.344	84.26
774.523	83.53
774.701	85
774.88	90.41
775.059	91.35
775.238	98.14
775.417	100.57
775.595	101.16
775.774	107.27
775.953	105.75
776.131	101.48
776.31	101.44
776.489	92.78
776.667	87.56
776.846	84.25
777.025	81.36
777.203	79.71
777.382	79.17
777.56	82.82
777.739	83.93
777.917	89.36
778.096	88.73
778.274	91.74
778.453	101.06
778.631	108.32
778.81	102.01
778.988	104.99
779.166	96.67
779.345	89.68
779.523	90.82
779.702	92.66
779.88	91.12
780.058	93.58
780.237	91.44
780.415	86.42
780.593	85.2
780.771	94.91
780.95	95.61
781.128	106.64
781.306	115.08
781.484	110.56
781.662	106.45
781.841	111.71
782.019	118.28
782.197	110.69
782.375	116.38
782.553	134.47
782.731	129.84
782.909	132.43
783.087	131.54
783.265	132.39
783.443	125.91
783.621	135.67
783.799	120.02
783.977	113.51
784.155	115.16
784.333	120.22
784.511	103.19
784.689	102
784.867	106.44
785.045	101.98
785.223	97.37
785.4	93.45
785.578	87.45
785.756	85.49
785.934	84.85
786.112	90.77
786.289	78.12
786.467	82.02
786.645	79.48
786.823	68.83
787	70.13
787.178	73.21
787.356	75.6
787.533	84.25
787.711	91.88
787.889	91.64
788.066	93.58
788.244	100.31
788.421	93.41
788.599	87.88
788.776	94.35
788.954	84.48
789.131	79.3
789.309	85.13
789.486	79.23
789.664	80.82
789.841	89.45
790.019	86.3
790.196	93.86
790.373	100.12
790.551	113.01
790.728	114.04
790.906	125.5
791.083	138.13
791.26	136.1
791.437	130.55
791.615	136.69
791.792	133.46
791.969	149.37
792.146	149.88
792.324	143.06
792.501	144.98
792.678	146.29
792.855	140.47
793.032	127.11
793.209	124.31
793.387	136.98
793.564	128.23
793.741	121.78
793.918	111.26
794.095	105.63
794.272	100.69
794.449	91.46
794.626	95.56
794.803	98.54
794.98	104.96
795.157	102.21
795.334	100.93
795.511	99.41
795.688	99.34
795.864	98.43
796.041	97.93
796.218	102.74
796.395	99.48
796.572	93.68
796.749	109.62
796.925	106.32
797.102	112.19
797.279	109.61
797.456	113.43
797.632	119.29
797.809	121.26
797.986	124.8
798.162	132.44
798.339	144.76
798.516	140.67
798.692	126.01
798.869	127.65
799.046	122.05
799.222	123.43
799.399	116.08
799.575	112.66
799.752	110.99
799.928	110.91
800.105	112.98
800.281	120.78
800.458	135.59
800.634	155.23
800.811	153.14
800.987	158.57
801.163	159.34
801.34	177.58
801.516	164.45
801.692	164
801.869	167.71
802.045	156.59
802.221	131.41
802.398	124.79
802.574	111.42
802.75	112.11
802.926	109.17
803.103	105.05
803.279	101.8
803.455	106.15
803.631	103.95
803.807	110.51
803.983	116.98
804.16	129.97
804.336	142.33
804.512	128.23
804.688	121.12
804.864	124.82
805.04	122.38
805.216	120.25
805.392	136.71
805.568	147.51
805.744	135.92
805.92	121.59
806.096	116.53
806.272	108.56
806.448	108.11
806.623	113.94
806.799	117.88
806.975	119.29
807.151	125.99
807.327	117.26
807.503	107.35
807.678	108.08
807.854	113.25
808.03	115.02
808.206	98.88
808.381	102.15
808.557	100.58
808.733	86.01
808.908	82.83
809.084	79.19
809.26	78.3
809.435	86.23
809.611	87.47
809.787	95.85
809.962	97.92
810.138	104.65
810.313	115.76
810.489	115.12
810.664	119.83
810.84	126.28
811.015	123.72
811.191	119.89
811.366	137.74
811.542	146.38
811.717	145.53
811.892	143.68
812.068	158.19
812.243	151.58
812.419	159.92
812.594	178.26
812.769	176.56
812.944	177.12
813.12	179.4
813.295	149.91
813.47	134.05
813.645	134.82
813.821	119.65
813.996	107.05
814.171	110.05
814.346	108.83
814.521	108.53
814.697	118.64
814.872	128.75
815.047	130.5
815.222	124.12
815.397	140.99
815.572	152.58
815.747	156.03
815.922	159.94
816.097	159.23
816.272	157.61
816.447	166.28
816.622	150
816.797	144.85
816.972	138.72
817.147	144.1
817.322	128.54
817.496	113.57
817.671	127.95
817.846	126.16
818.021	122.27
818.196	115.03
818.371	111.25
818.545	104.63
818.72	108.73
818.895	104.36
819.069	101.9
819.244	101.58
819.419	92.7
819.594	77.3
819.768	65.24
819.943	58.25
820.117	53.37
820.292	47.13
820.467	44.63
820.641	39.66
820.816	38.23
820.99	36.84
821.165	35.49
821.339	36.87
821.514	37.47
821.688	37.91
821.863	37.14
822.037	37.82
822.212	38.82
822.386	37.72
822.56	39.64
822.735	41.03
822.909	42.48
823.084	44.13
823.258	42.35
823.432	44.02
823.606	46.81
823.781	50.68
823.955	50.13
824.129	56.49
824.303	64.08
824.478	63.33
824.652	63.82
824.826	61.33
825	60.87
825.174	64.22
825.348	63.47
825.523	61.32
825.697	60.9
825.871	59.74
826.045	57.64
826.219	55.43
826.393	56.51
826.567	57.7
826.741	60
826.915	58.26
827.089	59.61
827.263	62.99
827.437	68.25
827.611	69.51
827.784	77.11
827.958	87.65
828.132	93.81
828.306	97.45
828.48	102.59
828.654	104.69
828.827	128.26
829.001	130.38
829.175	133.26
829.349	130.95
829.522	142.13
829.696	141.29
829.87	127.31
830.044	125.78
830.217	137.86
830.391	140.85
830.565	136.72
830.738	124.59
830.912	124.11
831.085	123.92
831.259	127.08
831.432	112.08
831.606	106.77
831.779	92.06
831.953	83.77
832.126	72.43
832.3	67.47
832.473	68.34
832.647	66.57
832.82	63.55
832.994	62.69
833.167	56.94
833.34	61.39
833.514	61.54
833.687	59.97
833.86	62.79
834.034	70.09
834.207	69.64
834.38	73.53
834.553	75.58
834.727	81.42
834.9	84.04
835.073	92.6
835.246	103.6
835.419	114.29
835.593	125.27
835.766	133
835.939	120.08
836.112	125.1
836.285	130.4
836.458	132.66
836.631	145.65
836.804	158.56
836.977	156.73
837.15	153.96
837.323	152.67
837.496	167.91
837.669	176.82
837.842	196.99
838.015	227.46
838.188	197.22
838.361	190.85
838.533	177.4
838.706	178.36
838.879	182.62
839.052	192.76
839.225	184.16
839.398	170.88
839.57	152.16
839.743	152.19
839.916	152.45
840.088	156.74
840.261	163.74
840.434	154.67
840.607	142.6
840.779	146.29
840.952	136.66
841.124	144.36
841.297	138.76
841.47	139.22
841.642	143.61
841.815	169.58
841.987	194.14
842.16	191.14
842.332	218.52
842.505	250.51
842.677	271.43
842.85	224.97
843.022	214.46
843.194	257.05
843.367	283.47
843.539	256.49
843.712	267.77
843.884	264.66
844.056	287.69
844.229	352.13
844.401	335.75
844.573	365.28
844.745	745.74
844.918	745.83
845.09	1058.82
845.262	9926.67
845.434	-5862.5
845.606	2915.09
845.779	6913.04
845.951	1153.73
846.123	944.44
846.295	641.08
846.467	391.44
846.639	403.79
846.811	368.08
846.983	303.63
847.155	275.55
847.327	268.54
847.499	219.48
847.671	185.12
847.843	230.83
848.015	202.87
848.187	264.24
848.359	337.35
848.531	670.47
848.703	722.32
848.875	428.63
849.047	256.1
849.218	385.82
849.39	414.17
849.562	326.07
849.734	342.11
849.905	403.96
850.077	476.02
850.249	228.96
850.421	169.67
850.592	189.22
850.764	237.17
850.936	285.74
851.107	266.79
851.279	246.55
851.451	317.19
851.622	225.19
851.794	226.22
851.965	218.32
852.137	274.38
852.308	298.74
852.48	365.64
852.651	296.75
852.823	358.18
852.994	352.01
853.166	383.64
853.337	331.75
853.509	298.37
853.68	293.08
853.851	339.22
854.023	384.36
854.194	435.38
854.365	293.55
854.537	308.37
854.708	206.34
854.879	189.15
855.05	166.43
855.222	171.84
855.393	272.05
855.564	240.54
855.735	223.96
855.906	244.36
856.078	247.93
856.249	239.8
856.42	247.25
856.591	375.26
856.762	373.91
856.933	700
857.104	556.58
857.275	413.87
857.446	475.89
857.617	389.05
857.788	219.56
857.959	227.56
858.13	262.24
858.301	238.34
858.472	232.85
858.643	257.84
858.814	289.4
858.985	274.3
859.155	210.93
859.326	233.79
859.497	307.19
859.668	452.94
859.839	387.16
860.009	509.47
860.18	687.98
860.351	550.88
860.522	662.87
860.692	728.78
860.863	952.38
861.034	3805.26
861.204	1714.67
861.375	805.34
861.546	7428.57
861.716	2320.41
861.887	540.93
862.057	351.56
862.228	351.58
862.398	287.43
862.569	230.93
862.739	253.74
862.91	296.11
863.08	424.22
863.251	626.96
863.421	550.63
863.592	350.55
863.762	961.36
863.932	9476.92
864.103	928.29
864.273	1531.68
864.443	-875
864.614	-790.45
864.784	-2479.03
864.954	6936.36
865.125	777.29
865.295	459.59
865.465	675.19
865.635	599.62
865.805	602.09
865.976	29880
866.146	1049.66
866.316	465.23
866.486	401.18
866.656	565.78
866.826	741
866.996	686.59
867.166	691.2
867.336	770.59
867.506	664.41
867.676	536.39
867.846	508.46
868.016	625.49
868.186	836.32
868.356	1212.6
868.526	643.06
868.696	350.14
868.866	426.76
869.036	656.95
869.206	568.12
869.376	385.76
869.545	524.57
869.715	460.59
869.885	373.03
870.055	330.22
870.224	400.85
870.394	618.22
870.564	811.05
870.734	492.83
870.903	532.04
871.073	440.11
871.243	463.61
871.412	419.9
871.582	431.08
871.751	462.32
871.921	354.23
872.091	413.49
872.26	282.4
872.43	293.07
872.599	428.81
872.769	342.13
872.938	458.96
873.108	554.68
873.277	453.08
873.446	352.35
873.616	339.96
873.785	438.78
873.955	277.78
874.124	401.78
874.293	340.89
874.463	319.4
874.632	367.74
874.801	416.39
874.971	285.55
875.14	353.94
875.309	281.94
875.478	288.24
875.647	235.89
875.817	214.99
875.986	212.17
876.155	173.33
876.324	183.26
876.493	167.89
876.662	132.67
876.831	145.4
877	113.63
877.17	117.5
877.339	144.7
877.508	156.62
877.677	215.95
877.846	192.42
878.015	210.38
878.184	189.19
878.352	199.77
878.521	205.17
878.69	181.21
878.859	267.83
879.028	198.31
879.197	166.99
879.366	149.67
879.534	111.03
879.703	103.87
879.872	99.93
880.041	95.4
880.21	77.28
880.378	67.14
880.547	66.75
880.716	63.12
880.884	60.39
881.053	59.23
881.222	58.15
881.39	57.43
881.559	56.24
881.727	55.81
881.896	57.21
882.065	59.61
882.233	71.1
882.402	73.52
882.57	80.98
882.739	84.4
882.907	85.37
883.076	99.2
883.244	110.23
883.412	129.15
883.581	132.05
883.749	152
883.918	207.32
884.086	252.04
884.254	374.41
884.423	349.66
884.591	379.18
884.759	1032.38
884.927	4609.09
885.096	-3043.24
885.264	-1989.29
885.432	997.66
885.6	763.37
885.769	519.08
885.937	896.27
886.105	358.51
886.273	394.12
886.441	311.49
886.609	252.29
886.777	219.14
886.945	233.06
887.113	270.33
887.281	391.88
887.449	335.62
887.617	577.48
887.785	391.43
887.953	418.1
888.121	417.31
888.289	1279.44
888.457	6276.19
888.625	-2729.55
888.793	-4029.17
888.961	686.62
889.129	930
889.296	2560.42
889.464	557.14
889.632	720.53
889.8	1000
889.967	3061.29
890.135	845.05
