Data from JASIL_3079_Reflection_02.txt Node
Date: Mon Nov 09 11:52:18 EST 2015
User: Geneva
Spectrometer: USB4E03002
Autoset integration time: false
Trigger mode: 4
Integration Time (sec): 1.000000E-1
Scans to average: 10
Electric dark correction enabled: false
Nonlinearity correction enabled: false
Boxcar width: 5
Stray light correction enabled: false
XAxis mode: Wavelengths
Stop averaging: false
Number of Pixels in Spectrum: 3648
>>>>>Begin Spectral Data<<<<<
177.575	-218.9
177.794	1952.63
178.014	-859.18
178.233	-228.32
178.452	-313.77
178.672	-125.67
178.891	-75.29
179.11	-197.92
179.33	-72.07
179.549	-63.55
179.768	-192.19
179.987	-15.6
180.207	18.7
180.426	18.15
180.645	60.23
180.864	26.3
181.084	-52.98
181.303	-104.74
181.522	-87.6
181.741	-3518.18
181.96	155.26
182.179	321.54
182.398	145.41
182.618	110.84
182.837	119.33
183.056	236.51
183.275	1244.44
183.494	-186.96
183.713	-7975
183.932	-3254.55
184.151	-202.61
184.37	-79.69
184.589	-30.21
184.808	-21.89
185.027	-11.69
185.246	-14.82
185.465	-6.63
185.684	13.93
185.903	-144.68
186.122	-111.32
186.341	143.02
186.56	102.63
186.779	-24.65
186.998	-30.34
187.216	-76
187.435	38.41
187.654	-1214.29
187.873	-319.61
188.092	-248
188.311	-57.44
188.53	-91.82
188.748	-51.99
188.967	36.6
189.186	13.11
189.405	20.73
189.623	24.56
189.842	44.27
190.061	39.69
190.28	71.89
190.498	337.88
190.717	148.12
190.936	159.17
191.154	116.54
191.373	39.13
191.592	95.8
191.81	65.52
192.029	28.52
192.248	23.72
192.466	35.4
192.685	46.34
192.904	65.26
193.122	75.6
193.341	68.39
193.559	60.34
193.778	87.54
193.996	119.69
194.215	182.8
194.433	288.98
194.652	240.4
194.87	239.49
195.089	248.61
195.307	469.07
195.526	590.74
195.744	865.71
195.963	293.01
196.181	312.9
196.399	100.37
196.618	76.35
196.836	76.91
197.055	55.37
197.273	4.14
197.491	47.25
197.71	46.92
197.928	51.54
198.146	47.35
198.365	36.49
198.583	10.05
198.801	-12.84
199.019	-6.29
199.238	-175
199.456	-196.33
199.674	-95.83
199.892	427.27
200.111	100
200.329	1333.33
200.547	97.16
200.765	70.59
200.983	120.99
201.202	220.57
201.42	149.89
201.638	117.11
201.856	123.17
202.074	87.7
202.292	77.9
202.51	81.05
202.728	63.97
202.946	70.48
203.165	77.2
203.383	52.92
203.601	25.07
203.819	26.73
204.037	-5.6
204.255	-40.64
204.473	-16.98
204.691	10.48
204.909	-14.9
205.127	24.12
205.345	-11.52
205.562	-9.98
205.78	23.49
205.998	33.45
206.216	98.9
206.434	87.55
206.652	86.42
206.87	94.75
207.088	91.6
207.306	81.27
207.523	96.69
207.741	136.18
207.959	527.27
208.177	-184.38
208.395	193.75
208.612	-2277.78
208.83	-118.29
209.048	-26.21
209.266	1033.33
209.483	15.91
209.701	-37.01
209.919	-15.61
210.136	8.26
210.354	333.87
210.572	345.1
210.79	-129.57
211.007	-271.87
211.225	-156.73
211.442	-29.79
211.66	33.72
211.878	33.21
212.095	1522.58
212.313	-1134.62
212.53	-2151.52
212.748	934.44
212.966	2174.29
213.183	-6325
213.401	591.61
213.618	522.62
213.836	971.96
214.053	742.11
214.271	1713.46
214.488	123.83
214.705	69.88
214.923	74.74
215.14	39.57
215.358	72.89
215.575	82.92
215.793	61.48
216.01	-15.27
216.227	90.24
216.445	92.21
216.662	117.39
216.879	40.38
217.097	104.03
217.314	122.32
217.531	-207.95
217.749	-493.75
217.966	2550
218.183	-36100
218.4	298.15
218.618	-23.53
218.835	167.65
219.052	31.03
219.269	46.73
219.487	84.66
219.704	132
219.921	4.55
220.138	119.3
220.355	479.03
220.572	256.34
220.79	152.63
221.007	149.7
221.224	135.88
221.441	114.09
221.658	112.92
221.875	109.66
222.092	93.18
222.309	127.9
222.526	115.92
222.743	82.89
222.96	46.54
223.177	64.4
223.394	46.26
223.611	39.63
223.828	27.69
224.045	16.61
224.262	8.95
224.479	1.3
224.696	-33.57
224.913	-45.32
225.13	-82.78
225.347	-59.04
225.564	-67.7
225.781	-55.49
225.997	-58.24
226.214	-42.28
226.431	-41.34
226.648	-38.1
226.865	-28.88
227.082	-11.07
227.298	-15.87
227.515	-8.83
227.732	-7.92
227.949	-7.08
228.165	-3.86
228.382	4.61
228.599	14.71
228.816	20.46
229.032	23.79
229.249	21.69
229.466	26.2
229.682	33.82
229.899	28.48
230.116	34.14
230.332	30.67
230.549	32.83
230.765	33.87
230.982	24.36
231.199	22.98
231.415	23.59
231.632	33.1
231.848	27.41
232.065	29.43
232.281	45.97
232.498	31.8
232.714	26.27
232.931	8.9
233.147	-0.94
233.364	5.15
233.58	17.62
233.797	6.82
234.013	1.75
234.23	-0.34
234.446	-2.82
234.662	4.34
234.879	4.84
235.095	9.45
235.312	13.91
235.528	15.53
235.744	3
235.961	-14.16
236.177	-1.63
236.393	8.09
236.61	-0.78
236.826	-0.63
237.042	-20.81
237.258	-6.93
237.475	-14.8
237.691	-0.46
237.907	4.85
238.123	10.62
238.339	16.82
238.556	12.86
238.772	9.55
238.988	6.11
239.204	5.69
239.42	12.58
239.636	18.62
239.853	25.5
240.069	21.5
240.285	22.15
240.501	21.13
240.717	19.41
240.933	23.29
241.149	24.07
241.365	29.39
241.581	23.14
241.797	26.4
242.013	22.96
242.229	21.47
242.445	20.11
242.661	14.55
242.877	11.33
243.093	13.92
243.309	10.58
243.525	5.5
243.741	11.61
243.957	13.52
244.173	4.85
244.388	2.07
244.604	-1.11
244.82	-1.03
245.036	5
245.252	6.34
245.468	2.81
245.683	0.8
245.899	3.57
246.115	2.79
246.331	4.06
246.547	4.38
246.762	4.76
246.978	4.71
247.194	4.08
247.409	-0.5
247.625	-0.73
247.841	-0.44
248.057	2.71
248.272	-0.72
248.488	-6.73
248.703	-11.79
248.919	-7.91
249.135	-0.62
249.35	-2.96
249.566	0.83
249.782	4.67
249.997	1.56
250.213	1.76
250.428	0.44
250.644	-1.54
250.859	-1
251.075	2.59
251.29	1.95
251.506	-2.14
251.721	1.65
251.937	2.52
252.152	2.26
252.368	3.44
252.583	4.52
252.798	6.4
253.014	17.05
253.229	15.34
253.445	12.71
253.66	0.88
253.875	0.53
254.091	-0.27
254.306	2.37
254.521	2.71
254.737	-1.55
254.952	-1.2
255.167	-2.71
255.383	-2.84
255.598	-0.08
255.813	7.26
256.028	9.41
256.244	7.92
256.459	9.11
256.674	2.23
256.889	2.04
257.104	5.7
257.32	9.43
257.535	6.6
257.75	1.01
257.965	-0.05
258.18	-3.13
258.395	-3.94
258.61	-2.39
258.826	-1.38
259.041	-0.97
259.256	-0.79
259.471	-0.66
259.686	-4.2
259.901	-3.56
260.116	-1.02
260.331	-0.31
260.546	-0.63
260.761	4.66
260.976	3.64
261.191	-1.16
261.406	-1.08
261.621	-1.3
261.836	-1.49
262.05	-2.42
262.265	1.99
262.48	-0.15
262.695	-1.68
262.91	-3.72
263.125	-6.76
263.34	-5.43
263.555	-1.22
263.769	2.06
263.984	3.1
264.199	0.62
264.414	4.74
264.629	0.03
264.843	0.65
265.058	0.89
265.273	4.73
265.488	3.21
265.702	2.27
265.917	2.93
266.132	2.04
266.346	1.32
266.561	3.21
266.776	5.69
266.99	1.79
267.205	2.45
267.42	1.35
267.634	1.05
267.849	2.2
268.063	-0.83
268.278	-2.87
268.492	-6.72
268.707	-3.94
268.922	-7.45
269.136	-12.92
269.351	-7.16
269.565	-2.46
269.78	0.13
269.994	1.66
270.209	1.41
270.423	5.06
270.637	6.33
270.852	8.45
271.066	6.85
271.281	8.88
271.495	8.35
271.709	6.47
271.924	1.23
272.138	0.39
272.353	0.02
272.567	1.91
272.781	-0.7
272.996	-2.04
273.21	1.62
273.424	1.16
273.638	-0.82
273.853	2.35
274.067	4.09
274.281	3.09
274.495	4.51
274.71	3.46
274.924	0.93
275.138	2.16
275.352	-3.33
275.566	-7.49
275.781	-8.42
275.995	-3.66
276.209	-5.38
276.423	-0.5
276.637	4.35
276.851	-0.12
277.065	2.64
277.279	0.73
277.493	0.51
277.707	6.09
277.921	4.71
278.135	6.83
278.349	2.96
278.563	2.17
278.777	-0.97
278.991	-6.06
279.205	-3.21
279.419	-7.93
279.633	-9.37
279.847	-9.44
280.061	-6.01
280.275	-3.88
280.489	-3.06
280.703	-3.72
280.917	0.18
281.131	-2.65
281.344	-0.63
281.558	-2.4
281.772	-3.84
281.986	-2.63
282.2	-3.53
282.414	-5.39
282.627	-7.04
282.841	-7.86
283.055	-8.27
283.269	-10.18
283.482	-6.63
283.696	-4.62
283.91	-1.25
284.123	0.3
284.337	1.86
284.551	3.01
284.764	1.97
284.978	3.42
285.192	1.86
285.405	5.2
285.619	2.55
285.833	3
286.046	3.88
286.26	1.44
286.473	1.54
286.687	1.88
286.9	3.6
287.114	2.73
287.327	1.65
287.541	3.33
287.754	2.21
287.968	4.29
288.181	1.29
288.395	1.67
288.608	1.89
288.822	2.64
289.035	1.8
289.248	0.63
289.462	1.47
289.675	2.08
289.889	2.37
290.102	2.85
290.315	6.56
290.529	7.73
290.742	5.85
290.955	7.12
291.169	8.42
291.382	8.93
291.595	5.97
291.808	4.52
292.022	2.31
292.235	1.16
292.448	-2.01
292.661	-2.96
292.875	-3.13
293.088	-5.16
293.301	-6.42
293.514	-7.5
293.727	-4.76
293.94	-2.1
294.153	2.33
294.367	3.54
294.58	4.03
294.793	3.7
295.006	1.71
295.219	2.18
295.432	2.72
295.645	4
295.858	2.87
296.071	2.18
296.284	1.21
296.497	-1.37
296.71	-0.34
296.923	-0.89
297.136	1.31
297.349	3.73
297.562	3.47
297.775	3.06
297.988	3.16
298.201	4.55
298.414	4.01
298.626	5.8
298.839	6.43
299.052	5.14
299.265	5.54
299.478	7.02
299.691	5.95
299.903	7
300.116	7.19
300.329	6.06
300.542	6.95
300.755	5.99
300.967	4.51
301.18	5.68
301.393	6.79
301.605	6.62
301.818	3.07
302.031	1.86
302.243	1.03
302.456	0.38
302.669	1.61
302.881	2.98
303.094	2.38
303.307	3.43
303.519	3.32
303.732	1.21
303.944	1.84
304.157	3.07
304.37	0.11
304.582	1.92
304.795	2.91
305.007	3.37
305.22	4.09
305.432	6.95
305.645	8.16
305.857	5.91
306.069	7.86
306.282	8.05
306.494	8.09
306.707	8.72
306.919	5.56
307.132	4
307.344	3.92
307.556	1.73
307.769	-0.38
307.981	-4.41
308.193	-2.67
308.406	-2.64
308.618	-2.66
308.83	-2.44
309.043	0.24
309.255	1.4
309.467	1.71
309.679	0.92
309.892	0.73
310.104	3.36
310.316	3.46
310.528	2.34
310.74	1.86
310.953	1.14
311.165	3.57
311.377	2.17
311.589	4.18
311.801	4.15
312.013	4.28
312.225	3.72
312.437	-0.34
312.649	1.2
312.862	-0.49
313.074	-0.74
313.286	-1.12
313.498	-5.46
313.71	-3.06
313.922	-4.57
314.134	-4.17
314.346	-3.3
314.558	-2.05
314.77	0.34
314.982	2.1
315.193	5
315.405	5.09
315.617	6.13
315.829	6.9
316.041	7.95
316.253	9.26
316.465	12.78
316.677	10.73
316.888	7.92
317.1	10.03
317.312	8.72
317.524	8.8
317.736	7.98
317.947	7.63
318.159	8.57
318.371	4.85
318.583	4.41
318.794	6.65
319.006	9.81
319.218	14.15
319.43	11.34
319.641	11.52
319.853	12.61
320.064	17.23
320.276	17.18
320.488	16.42
320.699	19.28
320.911	17.56
321.123	13.3
321.334	12.64
321.546	12.57
321.757	13.15
321.969	13.24
322.18	12.95
322.392	11.24
322.603	10.42
322.815	8.38
323.026	9.37
323.238	8.99
323.449	10.29
323.661	10.13
323.872	7.14
324.083	8.22
324.295	6.75
324.506	3.22
324.718	1.05
324.929	3.72
325.14	6.38
325.352	4.22
325.563	5.8
325.774	5.92
325.986	3.9
326.197	4.56
326.408	4.69
326.62	7.69
326.831	11.17
327.042	12.36
327.253	11.86
327.464	10.42
327.676	13.42
327.887	12.06
328.098	10.65
328.309	10.08
328.52	11.64
328.732	9.38
328.943	9.63
329.154	8.07
329.365	6.36
329.576	5.14
329.787	4.62
329.998	0.85
330.209	1.81
330.42	3.39
330.631	6.25
330.842	6.81
331.053	8.9
331.264	7.7
331.475	9.49
331.686	11.21
331.897	10.81
332.108	11.34
332.319	10.5
332.53	13.16
332.741	12.99
332.952	11.94
333.163	11.08
333.374	11.1
333.585	12.04
333.795	11.45
334.006	9.23
334.217	10.55
334.428	14.4
334.639	15.5
334.849	13
335.06	10.59
335.271	11.71
335.482	9.46
335.692	8.82
335.903	8.22
336.114	8.54
336.325	9.35
336.535	8.02
336.746	5.23
336.957	5.83
337.167	5.75
337.378	9.98
337.589	10.14
337.799	12.52
338.01	11.62
338.22	11.84
338.431	12.49
338.642	13.96
338.852	14.17
339.063	12.83
339.273	12.34
339.484	13.33
339.694	12.04
339.905	9.68
340.115	9.53
340.326	10.13
340.536	8.78
340.746	6.67
340.957	5.61
341.167	7.06
341.378	6.76
341.588	5.26
341.799	3.39
342.009	3.66
342.219	4.52
342.43	3.49
342.64	2.81
342.85	1.9
343.061	1.87
343.271	2.09
343.481	3.05
343.691	3.42
343.902	5.89
344.112	5.26
344.322	5.62
344.532	7.1
344.743	6.38
344.953	6.15
345.163	7.6
345.373	8.75
345.583	10.1
345.793	7.32
346.004	8.96
346.214	7.66
346.424	9.7
346.634	10.72
346.844	11.31
347.054	12.75
347.264	13.03
347.474	12.01
347.684	11.97
347.894	9.2
348.104	9.36
348.314	7.8
348.524	7.28
348.734	5.48
348.944	1.1
349.154	1.31
349.364	2.81
349.574	4.77
349.784	5.17
349.994	5
350.204	6.09
350.413	4.54
350.623	5.64
350.833	5.63
351.043	7.13
351.253	9.3
351.463	8.24
351.672	3.12
351.882	2
352.092	1.95
352.302	1.82
352.511	2.72
352.721	4.41
352.931	3.6
353.141	4.81
353.35	4.57
353.56	5.7
353.77	3.31
353.979	5.81
354.189	4.8
354.399	5.63
354.608	6.05
354.818	6.57
355.027	9.13
355.237	9.31
355.447	10.31
355.656	9.76
355.866	9.72
356.075	11.51
356.285	11.89
356.494	12.88
356.704	12.89
356.913	12.06
357.123	11.16
357.332	8.04
357.542	8.29
357.751	7.1
357.96	7.46
358.17	6.82
358.379	6.76
358.589	7.33
358.798	8.64
359.007	8.48
359.217	9.97
359.426	9.4
359.635	11.57
359.845	12.56
360.054	11.39
360.263	11.2
360.472	10.54
360.682	11.11
360.891	10.82
361.1	9.03
361.309	9.24
361.519	8.12
361.728	8.61
361.937	7.22
362.146	6.02
362.355	7.19
362.564	7.86
362.774	7.18
362.983	7.05
363.192	6.88
363.401	7.36
363.61	7.47
363.819	9.94
364.028	10.25
364.237	10.23
364.446	10.47
364.655	10.13
364.864	9.2
365.073	10.92
365.282	10.28
365.491	9.53
365.7	9.73
365.909	10.05
366.118	8.14
366.327	8.24
366.536	8.35
366.745	7.13
366.954	8.62
367.162	9.21
367.371	8.43
367.58	9.15
367.789	9.7
367.998	8.39
368.207	6.8
368.415	6.73
368.624	5.24
368.833	5.53
369.042	5.21
369.25	4.65
369.459	5.42
369.668	6.2
369.877	5.35
370.085	4.54
370.294	5.62
370.503	7.32
370.711	8.52
370.92	9.23
371.129	10.01
371.337	10.58
371.546	9.09
371.754	8.39
371.963	6.38
372.171	6.76
372.38	7.12
372.589	6.21
372.797	3.37
373.006	2.4
373.214	3.12
373.423	3.21
373.631	3.03
373.84	2.26
374.048	2.99
374.256	4.14
374.465	4.21
374.673	6.24
374.882	7.38
375.09	9.66
375.298	9.24
375.507	8.31
375.715	6.94
375.923	8.96
376.132	9.35
376.34	9.28
376.548	9.1
376.757	8.14
376.965	6.67
377.173	6.69
377.381	6.18
377.59	6.48
377.798	6.87
378.006	6.14
378.214	5.53
378.423	5.76
378.631	3.84
378.839	5.23
379.047	7.05
379.255	7.02
379.463	7.85
379.671	9.02
379.879	8.99
380.088	7.88
380.296	8.23
380.504	8.52
380.712	9.04
380.92	8.97
381.128	7.6
381.336	5.48
381.544	5.44
381.752	4.14
381.96	3.41
382.168	2.97
382.376	4.71
382.584	4.97
382.791	4.61
382.999	4.38
383.207	5.76
383.415	5.13
383.623	6.92
383.831	8.2
384.039	8.86
384.247	8.36
384.454	8.05
384.662	7.54
384.87	7.89
385.078	7.73
385.285	7.16
385.493	7.25
385.701	7.96
385.909	5.85
386.116	4.69
386.324	4.81
386.532	5.04
386.739	5.63
386.947	5.65
387.155	5.65
387.362	6.81
387.57	6.61
387.778	6.61
387.985	6.14
388.193	7.49
388.4	7.83
388.608	7.81
388.816	7.51
389.023	7.41
389.231	7.27
389.438	7.82
389.646	6.7
389.853	6.68
390.061	7.53
390.268	8.31
390.475	9.04
390.683	8.32
390.89	7.69
391.098	8.47
391.305	7.92
391.512	7.73
391.72	7.22
391.927	6.59
392.135	7.27
392.342	6.78
392.549	6.54
392.756	5.29
392.964	5.92
393.171	6.31
393.378	5.85
393.586	7.59
393.793	7.19
394	6.69
394.207	6.83
394.414	6.99
394.622	7.03
394.829	6.32
395.036	6.37
395.243	5.68
395.45	4.31
395.657	3.83
395.864	2.72
396.072	3.63
396.279	3.33
396.486	3.76
396.693	4.65
396.9	4.03
397.107	5.43
397.314	6.2
397.521	6.66
397.728	7.6
397.935	7.77
398.142	7.86
398.349	7.55
398.556	8.36
398.763	8.55
398.97	8.84
399.177	8.94
399.383	9.17
399.59	9.62
399.797	9.19
400.004	9.16
400.211	10.12
400.418	9.95
400.625	9.77
400.831	9.4
401.038	9.36
401.245	9.36
401.452	9.36
401.658	8.64
401.865	8.32
402.072	9.12
402.279	8.45
402.485	7.62
402.692	7.85
402.899	8.12
403.105	7.69
403.312	6.87
403.519	5.26
403.725	5.39
403.932	5.51
404.138	5.96
404.345	5.56
404.552	6.6
404.758	6.01
404.965	6.14
405.171	6.41
405.378	7.58
405.584	8.58
405.791	8.89
405.997	9.68
406.204	9.89
406.41	9.38
406.617	9.3
406.823	8.62
407.029	9.58
407.236	9.02
407.442	8.46
407.649	7.24
407.855	7.21
408.061	7.28
408.268	6.18
408.474	5.79
408.68	5.67
408.887	5.54
409.093	5.89
409.299	6.03
409.505	6.02
409.712	6.03
409.918	6.17
410.124	6.78
410.33	7.96
410.537	7.84
410.743	7.93
410.949	8.38
411.155	8.75
411.361	9.51
411.567	9.09
411.773	9.86
411.98	10.95
412.186	11.7
412.392	10.78
412.598	10.32
412.804	9.93
413.01	10.13
413.216	9.3
413.422	9.59
413.628	8.83
413.834	9.71
414.04	8.65
414.246	7.61
414.452	7.34
414.658	6.97
414.864	5.7
415.07	6.42
415.275	6.56
415.481	7.54
415.687	7.62
415.893	7.7
416.099	6.94
416.305	7.21
416.511	7.45
416.716	8.08
416.922	9
417.128	10.19
417.334	10.28
417.539	10.37
417.745	9.88
417.951	9.54
418.157	10.1
418.362	10.1
418.568	10.14
418.774	9.57
418.979	8.81
419.185	8.23
419.391	7.84
419.596	8.03
419.802	7.8
420.008	8.25
420.213	8.18
420.419	7.76
420.624	7.84
420.83	7.56
421.035	8.29
421.241	8.9
421.446	8.67
421.652	8.55
421.857	8.22
422.063	8.17
422.268	8.02
422.474	8.03
422.679	8
422.885	7.69
423.09	7.86
423.295	7.68
423.501	7.42
423.706	7.81
423.911	7.53
424.117	7.5
424.322	6.97
424.527	7.04
424.733	7.33
424.938	6.87
425.143	6.92
425.349	7.39
425.554	6.93
425.759	7.04
425.964	6.93
426.169	7.57
426.375	7.04
426.58	7.5
426.785	7.48
426.99	7.21
427.195	7.16
427.4	7.83
427.605	7.71
427.811	8.44
428.016	8
428.221	8.79
428.426	8.96
428.631	9.95
428.836	10.14
429.041	9.24
429.246	9.47
429.451	10.14
429.656	10.09
429.861	10.29
430.066	10.33
430.271	10.21
430.476	9.54
430.681	8.42
430.886	7.73
431.09	7.44
431.295	8.19
431.5	8.12
431.705	8.32
431.91	8.02
432.115	7.56
432.32	7.61
432.524	7.91
432.729	8.03
432.934	8.88
433.139	9.28
433.343	10
433.548	9.53
433.753	10.19
433.958	10.07
434.162	9.99
434.367	9.88
434.572	9.77
434.776	9.49
434.981	9.3
435.186	9.02
435.39	8.78
435.595	8.66
435.799	8.4
436.004	7.04
436.209	6.22
436.413	6.54
436.618	6.33
436.822	6.01
437.027	6.37
437.231	6.65
437.436	6.7
437.64	6.6
437.845	6.38
438.049	6.78
438.253	7.42
438.458	7.57
438.662	7.9
438.867	7.98
439.071	8.42
439.275	8.26
439.48	8.27
439.684	8.55
439.888	8.68
440.093	8.46
440.297	8.77
440.501	8.73
440.706	8.93
440.91	8.79
441.114	8.77
441.318	9.18
441.523	9.07
441.727	9.02
441.931	8.66
442.135	9.18
442.339	9.58
442.543	9.31
442.748	8.74
442.952	8.98
443.156	8.79
443.36	8.43
443.564	7.63
443.768	7.8
443.972	7.88
444.176	8
444.38	7.45
444.584	7.01
444.788	6.9
444.992	7.54
445.196	7.51
445.4	7.2
445.604	7.81
445.808	8.23
446.012	8.18
446.216	7.97
446.42	7.68
446.624	7.39
446.828	7.94
447.032	7.65
447.235	7.64
447.439	7.26
447.643	7.33
447.847	6.92
448.051	6.47
448.254	6.82
448.458	6.72
448.662	7.32
448.866	7.59
449.069	7.01
449.273	7.36
449.477	6.26
449.681	6.88
449.884	7.4
450.088	7.68
450.292	7.76
450.495	7.32
450.699	7.49
450.902	7.29
451.106	6.98
451.31	7.04
451.513	7.83
451.717	8.16
451.92	8.11
452.124	7.24
452.327	6.75
452.531	6.79
452.734	6.73
452.938	6.95
453.141	6.44
453.345	7.3
453.548	7.16
453.752	6.46
453.955	7.08
454.158	7.16
454.362	6.87
454.565	7.22
454.769	6.48
454.972	6.03
455.175	5.58
455.379	5.94
455.582	5.94
455.785	5.75
455.988	5.12
456.192	4.83
456.395	4.96
456.598	5.72
456.801	5.49
457.005	6.52
457.208	7.4
457.411	7.69
457.614	7.05
457.817	6.87
458.021	7.56
458.224	7.99
458.427	7.94
458.63	7.87
458.833	7.95
459.036	8.35
459.239	7.91
459.442	7.72
459.645	7.52
459.848	7.87
460.051	7.85
460.254	7.7
460.457	7.48
460.66	7.48
460.863	6.99
461.066	6.36
461.269	6.12
461.472	6.65
461.675	6.76
461.878	7.31
462.081	8.05
462.284	8.16
462.486	7.85
462.689	7.44
462.892	7.68
463.095	8.06
463.298	9.22
463.5	9.6
463.703	9.36
463.906	9.22
464.109	9.32
464.311	8.91
464.514	8.3
464.717	8.89
464.92	9.51
465.122	9.33
465.325	9.49
465.528	9.34
465.73	8.32
465.933	8.11
466.135	8.58
466.338	7.9
466.541	7.88
466.743	8.15
466.946	7.42
467.148	7.32
467.351	7.57
467.553	7.37
467.756	6.9
467.958	7.31
468.161	7.48
468.363	7.02
468.566	7.1
468.768	6.87
468.971	7.46
469.173	7.69
469.375	7.75
469.578	8.04
469.78	8.23
469.983	8.71
470.185	9.17
470.387	8.96
470.59	8.93
470.792	8.44
470.994	8.9
471.196	8.74
471.399	8.82
471.601	8.64
471.803	8.61
472.005	8.62
472.208	8.22
472.41	8.34
472.612	8.42
472.814	8.35
473.016	8.51
473.218	8.22
473.421	8.17
473.623	7.81
473.825	8.03
474.027	7.56
474.229	7.09
474.431	6.99
474.633	6.81
474.835	6.79
475.037	6.39
475.239	6.45
475.441	6.27
475.643	6.07
475.845	6.55
476.047	6.27
476.249	6.34
476.451	6.71
476.653	7.11
476.855	6.53
477.057	7
477.258	7.58
477.46	7.68
477.662	7.92
477.864	8.6
478.066	8.24
478.268	8.57
478.469	8.82
478.671	8.37
478.873	8.07
479.075	8.38
479.276	7.91
479.478	7.9
479.68	7.95
479.882	7.44
480.083	6.97
480.285	7.07
480.487	7.14
480.688	6.78
480.89	6.91
481.091	7.01
481.293	7.24
481.495	7.46
481.696	7.44
481.898	7.47
482.099	7.66
482.301	7.56
482.502	7.62
482.704	7.66
482.905	7.64
483.107	7.66
483.308	7.68
483.51	7.71
483.711	7.5
483.913	7.62
484.114	7.65
484.315	7.61
484.517	7.76
484.718	7.59
484.92	7.42
485.121	7.53
485.322	7.61
485.524	7.45
485.725	7.23
485.926	7.44
486.127	7.26
486.329	7.3
486.53	7.28
486.731	7.34
486.932	7.63
487.134	7.74
487.335	7.64
487.536	7.66
487.737	7.81
487.938	7.87
488.139	7.86
488.341	7.95
488.542	8
488.743	7.98
488.944	7.72
489.145	7.57
489.346	7.6
489.547	7.79
489.748	7.67
489.949	7.69
490.15	7.62
490.351	7.64
490.552	7.7
490.753	7.65
490.954	7.72
491.155	7.74
491.356	7.53
491.557	7.22
491.758	7.17
491.959	7.22
492.159	7.34
492.36	7.35
492.561	7.32
492.762	7.18
492.963	7.08
493.164	7.38
493.364	7.69
493.565	7.98
493.766	8.56
493.967	8.51
494.167	8.38
494.368	8.18
494.569	8.02
494.769	8.29
494.97	8.26
495.171	8.14
495.371	8.19
495.572	8.21
495.773	8.41
495.973	8.36
496.174	8.6
496.375	8.56
496.575	8.52
496.776	8.89
496.976	8.66
497.177	8.87
497.377	8.98
497.578	8.97
497.778	8.94
497.979	8.48
498.179	8.49
498.38	8.46
498.58	8.6
498.78	8.9
498.981	9.36
499.181	8.86
499.382	8.79
499.582	8.8
499.782	8.43
499.983	7.95
500.183	8.25
500.383	7.56
500.584	7.46
500.784	7.41
500.984	7.38
501.184	6.63
501.385	7.07
501.585	7.26
501.785	7.46
501.985	7.44
502.185	7.93
502.386	8.48
502.586	9.25
502.786	9.24
502.986	9.7
503.186	9.43
503.386	9.59
503.586	9.48
503.786	8.66
503.987	8.39
504.187	9.12
504.387	8.76
504.587	8.62
504.787	9.06
504.987	8.79
505.187	8.66
505.387	8.87
505.587	8.65
505.786	8.19
505.986	8.52
506.186	8.87
506.386	8.99
506.586	9.56
506.786	9.33
506.986	8.73
507.186	9.17
507.386	9.29
507.585	9.57
507.785	9.85
507.985	10.52
508.185	10.77
508.384	10.81
508.584	10.29
508.784	9.83
508.984	10.05
509.183	9.77
509.383	9.51
509.583	9.54
509.782	9.75
509.982	9.8
510.182	9.7
510.381	9.89
510.581	9.81
510.781	9.96
510.98	10.17
511.18	10.1
511.379	10.35
511.579	10.46
511.778	10.04
511.978	9.27
512.177	9.12
512.377	9.16
512.576	8.94
512.776	8.68
512.975	8.64
513.175	9
513.374	8.93
513.573	9.06
513.773	9.41
513.972	9.18
514.172	9.69
514.371	10.22
514.57	10.65
514.77	10.79
514.969	10.73
515.168	10.48
515.367	10.63
515.567	10.88
515.766	10.76
515.965	10.37
516.164	11.09
516.364	10.58
516.563	10.42
516.762	10.03
516.961	9.81
517.16	9.98
517.359	10.2
517.559	9.56
517.758	9.59
517.957	9.45
518.156	9.28
518.355	9.02
518.554	9.16
518.753	8.79
518.952	8.88
519.151	8.94
519.35	8.95
519.549	8.89
519.748	9.57
519.947	9.24
520.146	9.86
520.345	10.42
520.544	11.08
520.743	11.59
520.942	12.15
521.141	12
521.339	12.51
521.538	12.98
521.737	13.19
521.936	12.64
522.135	12.83
522.333	12.47
522.532	12.25
522.731	11.73
522.93	11.75
523.129	11.45
523.327	11.85
523.526	11.94
523.725	11.8
523.923	12.04
524.122	12.3
524.321	12.36
524.519	12.35
524.718	12.6
524.917	12.46
525.115	12.19
525.314	12.46
525.512	12.51
525.711	12.64
525.909	12.72
526.108	12.87
526.306	12.91
526.505	12.88
526.703	13.13
526.902	13.32
527.1	13.29
527.299	13.56
527.497	13.59
527.696	13.48
527.894	13.56
528.092	13.54
528.291	13.33
528.489	13.44
528.688	13.47
528.886	13.66
529.084	13.68
529.283	14
529.481	14.1
529.679	14.25
529.877	14.83
530.076	14.75
530.274	14.96
530.472	15.28
530.67	15.67
530.869	15.81
531.067	15.63
531.265	15.17
531.463	15.48
531.661	15.41
531.859	15.31
532.057	15.18
532.255	14.98
532.454	14.79
532.652	14.87
532.85	14.43
533.048	14.5
533.246	14.83
533.444	15
533.642	14.66
533.84	14.75
534.038	14.92
534.236	14.54
534.434	14.97
534.632	15.33
534.83	15.58
535.027	15.85
535.225	15.91
535.423	15.81
535.621	16.09
535.819	16.17
536.017	16.04
536.215	16.26
536.412	16.46
536.61	16.66
536.808	16.88
537.006	16.36
537.203	16.66
537.401	16.65
537.599	16.45
537.797	16.93
537.994	17.36
538.192	17.66
538.39	17.81
538.587	18.26
538.785	18.1
538.983	17.91
539.18	18.03
539.378	18.01
539.575	18.43
539.773	18.47
539.97	18.38
540.168	18.08
540.366	17.92
540.563	17.74
540.761	17.79
540.958	17.61
541.155	17.6
541.353	17.65
541.55	17.53
541.748	17.4
541.945	17.35
542.143	17.15
542.34	17.46
542.537	17.72
542.735	17.97
542.932	18.01
543.129	18.76
543.327	19.19
543.524	19.9
543.721	19.98
543.919	19.69
544.116	19.92
544.313	20.12
544.51	20.43
544.708	20.62
544.905	20.71
545.102	21.36
545.299	21.13
545.496	20.83
545.693	20.55
545.891	21.15
546.088	21.75
546.285	22.3
546.482	23.21
546.679	23.24
546.876	23.44
547.073	23.48
547.27	22.99
547.467	22.59
547.664	22.66
547.861	23.02
548.058	22.6
548.255	22.85
548.452	22.72
548.649	22.26
548.846	22.43
549.043	22.18
549.24	22.53
549.437	22.78
549.633	23.21
549.83	23.83
550.027	24.01
550.224	24.95
550.421	25.17
550.618	24.63
550.814	24.99
551.011	24.86
551.208	25.22
551.405	25.12
551.601	25.11
551.798	25.54
551.995	25.36
552.191	25.38
552.388	25.07
552.585	25.11
552.781	25.5
552.978	24.34
553.175	24.56
553.371	23.98
553.568	23.84
553.764	24.1
553.961	24.79
554.157	25.06
554.354	24.73
554.55	24.69
554.747	24.32
554.943	24.64
555.14	25.62
555.336	25.29
555.533	26.44
555.729	27.43
555.926	26.81
556.122	25.95
556.318	25.86
556.515	26.32
556.711	26.22
556.907	26.58
557.104	26.44
557.3	26.43
557.496	27.25
557.693	27.03
557.889	26.53
558.085	26.9
558.281	27.3
558.478	27.9
558.674	27.98
558.87	28.58
559.066	29.2
559.262	29.5
559.459	29.31
559.655	29.02
559.851	28.8
560.047	28.93
560.243	29.68
560.439	29.63
560.635	29.49
560.831	29.31
561.027	29.77
561.223	29.38
561.419	29.18
561.615	29.84
561.811	30.46
562.007	30.76
562.203	31.04
562.399	30.39
562.595	30.6
562.791	30.16
562.987	29.67
563.183	28.87
563.379	28.99
563.575	29.17
563.771	29.14
563.966	28.63
564.162	28.57
564.358	28.65
564.554	29.08
564.75	29.33
564.945	29.98
565.141	30.34
565.337	31.14
565.533	31.01
565.728	30.89
565.924	30.75
566.12	31.39
566.315	31.5
566.511	31.11
566.707	31.66
566.902	30.82
567.098	30.55
567.293	31.09
567.489	29.79
567.684	30.41
567.88	30.7
568.076	30.71
568.271	30.91
568.467	30.86
568.662	30.59
568.858	29.51
569.053	29.76
569.248	29.57
569.444	29.41
569.639	30
569.835	29.64
570.03	29.34
570.225	29.96
570.421	29.81
570.616	30.06
570.812	30.91
571.007	31.73
571.202	32.36
571.397	32.66
571.593	33.04
571.788	33.31
571.983	33
572.178	33.48
572.374	33.1
572.569	32.56
572.764	32.23
572.959	31.57
573.154	30.93
573.35	30.45
573.545	30.59
573.74	30.18
573.935	29.84
574.13	30.59
574.325	30.39
574.52	30.23
574.715	30.13
574.91	30.98
575.105	31.04
575.3	31.34
575.495	31.66
575.69	31.75
575.885	31.6
576.08	32.02
576.275	31.71
576.47	31.85
576.665	31.88
576.86	31.78
577.055	31.49
577.25	32.21
577.444	32.6
577.639	32.9
577.834	32.35
578.029	33
578.224	33.17
578.418	33.5
578.613	34.19
578.808	35.05
579.003	36.09
579.197	36.18
579.392	35.63
579.587	35.09
579.781	34.58
579.976	35.87
580.171	35.62
580.365	35.29
580.56	35.12
580.755	34.09
580.949	33.57
581.144	33.38
581.338	33.33
581.533	34.45
581.727	34.63
581.922	34.67
582.116	34.28
582.311	34.5
582.505	35.56
582.7	35.01
582.894	36.18
583.089	36.73
583.283	36.53
583.478	36.34
583.672	35.64
583.866	35.6
584.061	36.38
584.255	36.41
584.449	36.7
584.644	36.7
584.838	37.55
585.032	37.84
585.226	37.02
585.421	37.36
585.615	38.03
585.809	37.58
586.003	37.65
586.198	37.57
586.392	37.54
586.586	37.67
586.78	37.36
586.974	37.73
587.168	36.88
587.363	37.59
587.557	37.97
587.751	37.12
587.945	37.57
588.139	36.75
588.333	36.15
588.527	36.41
588.721	36.62
588.915	36.51
589.109	35.66
589.303	35.61
589.497	35.16
589.691	34.41
589.885	34.74
590.079	34.39
590.273	35.4
590.466	35.59
590.66	34.8
590.854	34.64
591.048	34.69
591.242	35.09
591.436	35.34
591.629	35.47
591.823	35.77
592.017	35.66
592.211	35.62
592.404	35.69
592.598	35.6
592.792	36.37
592.986	35.46
593.179	34.85
593.373	34.56
593.567	34.58
593.76	34.47
593.954	33.77
594.147	33.93
594.341	34.82
594.535	34.71
594.728	35.51
594.922	35.56
595.115	36.1
595.309	36.83
595.502	36.86
595.696	36.59
595.889	36.89
596.083	37.39
596.276	38.19
596.47	37.73
596.663	37.93
596.856	37.24
597.05	36.9
597.243	36.62
597.437	36.24
597.63	36.21
597.823	37.15
598.017	37.55
598.21	37.22
598.403	36.4
598.596	36.59
598.79	36.16
598.983	36.58
599.176	36.83
599.369	37.28
599.563	37.94
599.756	38.22
599.949	38.36
600.142	38.27
600.335	38.71
600.528	39.4
600.722	40
600.915	40.33
601.108	40.58
601.301	41.26
601.494	41.34
601.687	40.57
601.88	40.09
602.073	39.82
602.266	39.35
602.459	39.4
602.652	38.52
602.845	38.13
603.038	37.93
603.231	37.56
603.424	37.01
603.617	36.73
603.809	37.12
604.002	37.73
604.195	37.34
604.388	37.57
604.581	37.5
604.774	37.92
604.966	38.01
605.159	38.87
605.352	39.56
605.545	40.02
605.737	40.36
605.93	40.58
606.123	40.34
606.316	41.01
606.508	41.19
606.701	41.56
606.894	41.61
607.086	41.59
607.279	41.05
607.471	40.26
607.664	40.53
607.857	40.71
608.049	40.31
608.242	40.56
608.434	40.93
608.627	40.59
608.819	40.86
609.012	41.29
609.204	41.52
609.397	42.3
609.589	42.64
609.782	42.44
609.974	43.02
610.166	43.12
610.359	43.68
610.551	43.47
610.743	44.25
610.936	44.29
611.128	44.71
611.32	45.49
611.513	45.19
611.705	45.87
611.897	45.71
612.09	44.82
612.282	45.78
612.474	45.25
612.666	45.07
612.858	44.59
613.051	44.41
613.243	44.57
613.435	44.06
613.627	44.25
613.819	44.13
614.011	44.02
614.203	44.3
614.395	44.21
614.588	43.71
614.78	43.15
614.972	43.07
615.164	43.64
615.356	43.04
615.548	42.98
615.74	42.62
615.932	43
616.124	43.49
616.315	43.49
616.507	43.62
616.699	44.32
616.891	45.39
617.083	45.71
617.275	45.44
617.467	46.14
617.659	46.5
617.85	46.18
618.042	45.66
618.234	44.88
618.426	45
618.618	44.32
618.809	44.45
619.001	43.37
619.193	44.18
619.384	43.42
619.576	42.64
619.768	42.23
619.959	42.13
620.151	42.14
620.343	41.86
620.534	42.52
620.726	43
620.917	43.56
621.109	43.85
621.301	43.23
621.492	45.1
621.684	45.63
621.875	45.71
622.067	46.97
622.258	46.48
622.45	47.96
622.641	47.11
622.832	47.11
623.024	46.56
623.215	46.23
623.407	46.34
623.598	46.61
623.789	46.51
623.981	47.01
624.172	45.87
624.363	46.91
624.555	45.5
624.746	46.17
624.937	45.9
625.129	46.42
625.32	46.93
625.511	46.89
625.702	45.65
625.893	44.86
626.085	44.73
626.276	45.64
626.467	46.19
626.658	46.35
626.849	45.43
627.04	45.63
627.231	45.42
627.422	44.9
627.614	44.97
627.805	44.52
627.996	45.52
628.187	45.22
628.378	44.85
628.569	44.11
628.76	45.12
628.951	46.15
629.142	46.67
629.332	46.65
629.523	47.33
629.714	47.51
629.905	49.35
630.096	50.14
630.287	49.51
630.478	48.87
630.669	47.74
630.859	47.13
631.05	46.23
631.241	45.36
631.432	45.6
631.623	44.38
631.813	43.95
632.004	43.08
632.195	42.07
632.385	42.62
632.576	43.18
632.767	44.55
632.957	44.61
633.148	45
633.339	45.44
633.529	43.85
633.72	44.38
633.91	44.29
634.101	44.89
634.292	44.96
634.482	45.41
634.673	44.82
634.863	43.16
635.054	43.47
635.244	43.9
635.435	43.86
635.625	45.45
635.815	46.87
636.006	47.73
636.196	46.43
636.387	46.51
636.577	46.74
636.767	47.11
636.958	47.93
637.148	46.74
637.338	46.8
637.529	47.78
637.719	48.38
637.909	47.56
638.099	47.24
638.29	47.64
638.48	47.62
638.67	48.01
638.86	48.64
639.05	49.75
639.241	51.39
639.431	50
639.621	48.24
639.811	47.69
640.001	47.39
640.191	45.96
640.381	46.16
640.571	45.88
640.761	44.85
640.951	45.01
641.141	43.68
641.331	43.51
641.521	44.3
641.711	45.31
641.901	44.38
642.091	44.51
642.281	46.75
642.471	48.21
642.661	49.18
642.851	49.05
643.041	49.13
643.231	49.68
643.42	50.06
643.61	51
643.8	51.26
643.99	52.57
644.18	52.3
644.369	52.51
644.559	52.45
644.749	51.94
644.939	52.76
645.128	51.52
645.318	52.04
645.508	51.62
645.697	51.14
645.887	50.81
646.076	49.86
646.266	50.64
646.456	48.61
646.645	47.55
646.835	46.76
647.024	45.79
647.214	47.07
647.403	47.35
647.593	46.63
647.782	46.93
647.972	46.93
648.161	47
648.351	45.92
648.54	48.02
648.73	48.37
648.919	49.48
649.108	50.54
649.298	50.98
649.487	49.55
649.677	49.73
649.866	49.52
650.055	48.97
650.244	49.97
650.434	50.64
650.623	49.21
650.812	48.97
651.002	49.14
651.191	49.26
651.38	50.08
651.569	50.76
651.758	50.27
651.947	51.42
652.137	51.44
652.326	50.01
652.515	50.52
652.704	50.39
652.893	50.27
653.082	50.1
653.271	49.29
653.46	46.96
653.649	47.27
653.838	48.74
654.027	48.78
654.216	49.66
654.405	50.81
654.594	51.5
654.783	52.89
654.972	52.59
655.161	53.2
655.35	54.09
655.539	55.17
655.728	54.24
655.916	52.69
656.105	51.21
656.294	50.43
656.483	50.14
656.672	49.02
656.86	48.21
657.049	47.64
657.238	46.33
657.427	46.04
657.615	45.8
657.804	46.47
657.993	47.14
658.181	46.8
658.37	47.92
658.559	48.16
658.747	48.99
658.936	49.12
659.125	50.11
659.313	50.86
659.502	51.57
659.69	51.27
659.879	51.95
660.067	51.86
660.256	52.59
660.444	51.61
660.633	50.66
660.821	50.57
661.01	52.31
661.198	52.67
661.387	52.37
661.575	51.92
661.763	52.76
661.952	52.57
662.14	53.83
662.328	54.17
662.517	55.1
662.705	56.86
662.893	56.5
663.082	54.75
663.27	54.46
663.458	54.96
663.646	54.38
663.834	54.93
664.023	54.02
664.211	53.11
664.399	53.47
664.587	53.33
664.775	52.13
664.963	52.65
665.152	52.58
665.34	51.02
665.528	51.14
665.716	51.61
665.904	51.41
666.092	51.4
666.28	52.51
666.468	52.35
666.656	51.88
666.844	53.33
667.032	53.03
667.22	54.76
667.408	55.81
667.596	54.97
667.784	55.52
667.971	54.37
668.159	55.11
668.347	53.41
668.535	53.95
668.723	53.32
668.911	52.66
669.098	52.59
669.286	52.27
669.474	52.55
669.662	53.89
669.849	53.22
670.037	54.79
670.225	54.93
670.413	56.08
670.6	54.45
670.788	55.48
670.976	55.35
671.163	55.21
671.351	54.55
671.538	53.71
671.726	53.21
671.913	53.39
672.101	52.96
672.289	53.42
672.476	54.36
672.664	56.54
672.851	56.77
673.039	57.8
673.226	59.74
673.413	58.7
673.601	60.37
673.788	60.47
673.976	59.71
674.163	60.6
674.35	58.95
674.538	57.28
674.725	56.6
674.912	57.23
675.1	55.61
675.287	55.07
675.474	55.84
675.662	55.13
675.849	56.53
676.036	57.86
676.223	57.03
676.411	58.28
676.598	58.53
676.785	57.49
676.972	57.33
677.159	57.82
677.346	57.1
677.533	56.17
677.721	55.44
677.908	53.21
678.095	51.78
678.282	52.47
678.469	51.95
678.656	53.35
678.843	53.9
679.03	53.28
679.217	52.59
679.404	51.61
679.591	51.82
679.778	52.34
679.964	52.73
680.151	53.62
680.338	52.05
680.525	52.07
680.712	52.04
680.899	53.45
681.086	52.74
681.272	53.31
681.459	54.2
681.646	54.61
681.833	54.55
682.02	55.4
682.206	54.06
682.393	54.98
682.58	54.64
682.766	53.9
682.953	53
683.14	54.44
683.326	55.21
683.513	55.47
683.7	56.68
683.886	57.7
684.073	56.86
684.259	58.05
684.446	58.03
684.632	59.24
684.819	59.46
685.005	58.55
685.192	58.46
685.378	57.17
685.565	56.67
685.751	54.65
685.938	54.5
686.124	55.18
686.31	54.88
686.497	54.46
686.683	53.64
686.87	53.13
687.056	52.97
687.242	53
687.429	55.27
687.615	55.21
687.801	56.68
687.987	55.14
688.174	54.12
688.36	53.73
688.546	55.22
688.732	54.6
688.918	54.54
689.105	54.89
689.291	53.62
689.477	52.5
689.663	52.61
689.849	49.63
690.035	48.65
690.221	49.22
690.407	49.82
690.593	49.01
690.779	50
690.965	49.64
691.151	50.92
691.337	51.32
691.523	49.9
691.709	48.24
691.895	50.83
692.081	53.2
692.267	51.81
692.453	51.04
692.639	50.49
692.825	49.63
693.011	49.94
693.196	47.7
693.382	48.37
693.568	48.24
693.754	51.4
693.94	49.83
694.125	50.47
694.311	53.01
694.497	55.02
694.682	54.09
694.868	55.6
695.054	55.48
695.239	56.97
695.425	56.22
695.611	56.27
695.796	54.4
695.982	55.29
696.168	54.26
696.353	51.84
696.539	51.03
696.724	50.07
696.91	48.38
697.095	47.74
697.281	47.12
697.466	47.68
697.652	48.08
697.837	48.03
698.023	47.65
698.208	48.55
698.393	50.02
698.579	50.04
698.764	51.09
698.949	52.04
699.135	53.43
699.32	53.47
699.505	52.98
699.691	53.29
699.876	54.77
700.061	55.62
700.246	54.86
700.432	55.55
700.617	55.46
700.802	57.14
700.987	58.27
701.172	59.9
701.358	60.84
701.543	61.15
701.728	63.02
701.913	61.34
702.098	61.9
702.283	62.25
702.468	61.62
702.653	62.31
702.838	61.76
703.023	62.62
703.208	60.36
703.393	61.31
703.578	60.73
703.763	59.42
703.948	60.1
704.133	59.42
704.318	59.92
704.503	59.88
704.688	62.19
704.873	63.51
705.057	62.16
705.242	61.75
705.427	60.56
705.612	61.89
705.797	61.76
705.981	62.76
706.166	64.64
706.351	66.57
706.536	67.03
706.72	64.01
706.905	61.71
707.09	61.8
707.274	61.39
707.459	61.29
707.644	60.45
707.828	60.32
708.013	62.53
708.197	60.04
708.382	58.26
708.567	56.22
708.751	59.18
708.936	61.16
709.12	60.71
709.305	60.82
709.489	60.61
709.673	61.42
709.858	60.7
710.042	56.9
710.227	58.78
710.411	57.74
710.596	58.87
710.78	57.78
710.964	57.17
711.149	57.89
711.333	59.58
711.517	61.92
711.702	62.54
711.886	62.44
712.07	65.2
712.254	64.46
712.438	65.62
712.623	65.44
712.807	64.76
712.991	64.98
713.175	64.35
713.359	62.27
713.544	61.25
713.728	58.98
713.912	59.53
714.096	59.27
714.28	58.24
714.464	55.77
714.648	54.42
714.832	53.31
715.016	50.31
715.2	50.75
715.384	53.83
715.568	52.82
715.752	55.59
715.936	56.78
716.12	54.13
716.304	55.46
716.488	57.38
716.671	58.42
716.855	57.01
717.039	59.68
717.223	60.49
717.407	60.16
717.59	58.41
717.774	56.91
717.958	55.11
718.142	55.35
718.325	52.31
718.509	52.91
718.693	53.47
718.877	53.58
719.06	53.53
719.244	54.54
719.428	56.43
719.611	61.18
719.795	60.07
719.978	59.31
720.162	59.39
720.345	63.54
720.529	62.71
720.713	62.5
720.896	65.09
721.08	68.09
721.263	64.58
721.446	61.61
721.63	56.18
721.813	56.19
721.997	58.04
722.18	58.57
722.364	59.67
722.547	58.61
722.73	56.17
722.914	52.65
723.097	49.65
723.28	51.61
723.464	48.8
723.647	51.54
723.83	52.23
724.013	52.66
724.197	51.34
724.38	51.38
724.563	52.77
724.746	57.84
724.929	57.67
725.112	57.73
725.296	57.22
725.479	59.32
725.662	57.58
725.845	55.79
726.028	53.56
726.211	54.1
726.394	50.46
726.577	49.11
726.76	47.24
726.943	50.25
727.126	50.81
727.309	49.98
727.492	48.11
727.675	50.61
727.858	51.42
728.041	53.45
728.224	54.48
728.407	56.08
728.589	56.69
728.772	55.19
728.955	56.17
729.138	55.4
729.321	55.17
729.503	55.45
729.686	55.61
729.869	58.4
730.052	57.39
730.234	56.75
730.417	57.22
730.6	57.84
730.782	58.22
730.965	57.65
731.148	59.43
731.33	59.68
731.513	59.6
731.695	58.05
731.878	56.14
732.061	56.52
732.243	58.26
732.426	57.13
732.608	57.41
732.791	59.89
732.973	57.66
733.156	54.62
733.338	52.29
733.52	54.7
733.703	54.23
733.885	53.63
734.068	53.83
734.25	52.98
734.432	53.99
734.615	53.75
734.797	53.26
734.979	56.41
735.162	58.67
735.344	63.1
735.526	61.72
735.708	61.8
735.891	65.2
736.073	66.57
736.255	65.66
736.437	63.75
736.619	63.33
736.802	60.82
736.984	58.98
737.166	58.73
737.348	57.19
737.53	59.28
737.712	59.48
737.894	58.11
738.076	57.86
738.258	61.22
738.44	65.99
738.622	69.41
738.804	72.49
738.986	76.99
739.168	77.12
739.35	78.8
739.532	76.91
739.714	77.98
739.896	81.74
740.078	79.05
740.259	75.71
740.441	71.5
740.623	73.14
740.805	71.11
740.987	69.5
741.168	67.93
741.35	71.04
741.532	74.32
741.714	73.7
741.895	70.44
742.077	73.87
742.259	74.49
742.44	76.02
742.622	72.46
742.804	78.2
742.985	78.87
743.167	83.55
743.348	78.81
743.53	74.61
743.711	75.81
743.893	74.06
744.075	70.76
744.256	70.4
744.438	71.18
744.619	72.4
744.8	71.98
744.982	69.3
745.163	67.65
745.345	67.81
745.526	72.53
745.707	72.55
745.889	73.52
746.07	77
746.252	80.14
746.433	80.08
746.614	78.6
746.795	71.71
746.977	74.36
747.158	73
747.339	72.78
747.52	70.86
747.702	69.82
747.883	72.09
748.064	70.58
748.245	68.42
748.426	67.52
748.607	66.38
748.788	70.59
748.97	73.53
749.151	72.91
749.332	71.28
749.513	74.69
749.694	76.63
749.875	77.32
750.056	76.85
750.237	81.45
750.418	81.36
750.599	79.86
750.78	81
750.96	74.26
751.141	77.65
751.322	81.77
751.503	78.26
751.684	80.36
751.865	77.82
752.046	78.32
752.226	77.17
752.407	79.56
752.588	82.96
752.769	77.56
752.949	82.2
753.13	85.4
753.311	88.33
753.492	88.37
753.672	84.19
753.853	83.04
754.034	84.21
754.214	83.91
754.395	81.51
754.575	79.26
754.756	81.92
754.937	81.46
755.117	77.79
755.298	75.2
755.478	74.18
755.659	79.74
755.839	82.47
756.02	81.17
756.2	80.85
756.381	80.45
756.561	79.72
756.741	79.92
756.922	75.72
757.102	72.83
757.283	75.32
757.463	73.37
757.643	67.49
757.823	62.33
758.004	61.26
758.184	59.83
758.364	58.39
758.545	58.99
758.725	56.87
758.905	57.64
759.085	54.85
759.265	50.48
759.446	52.51
759.626	56.88
759.806	58.69
759.986	58.19
760.166	53.45
760.346	51.84
760.526	55.48
760.706	56.27
760.886	55.76
761.066	55.2
761.246	54
761.426	52.9
761.606	48.15
761.786	48.98
761.966	49.14
762.146	49.57
762.326	50.72
762.506	48.61
762.686	47.49
762.866	48.37
763.046	49.98
763.225	51.5
763.405	51.9
763.585	52.27
763.765	53.11
763.945	53.16
764.124	53.82
764.304	53.69
764.484	57.42
764.664	56.57
764.843	62.34
765.023	64.05
765.203	62.9
765.382	64.62
765.562	67.88
765.741	67.9
765.921	71.69
766.101	74.63
766.28	75.96
766.46	72.57
766.639	80.8
766.819	78.76
766.998	79.86
767.178	80.69
767.357	77.07
767.537	76.66
767.716	73.78
767.896	79.2
768.075	78.04
768.254	79.06
768.434	77.24
768.613	70.75
768.792	66.96
768.972	65.05
769.151	64.37
769.33	72.59
769.51	74.68
769.689	80.44
769.868	78.85
770.047	79.56
770.226	78.22
770.406	85.47
770.585	87.88
770.764	90.37
770.943	93.57
771.122	96.36
771.301	86.25
771.48	87.83
771.66	86.58
771.839	88.24
772.018	89.39
772.197	92.77
772.376	97.44
772.555	101.21
772.734	102.16
772.913	103.85
773.092	101.07
773.271	106.58
773.449	108.2
773.628	103.48
773.807	106.14
773.986	106.31
774.165	104.89
774.344	100
774.523	97.45
774.701	91.92
774.88	86.91
775.059	89.12
775.238	87.33
775.417	88.59
775.595	88.63
775.774	78.9
775.953	78.7
776.131	80.33
776.31	76.05
776.489	76.54
776.667	76.56
776.846	78.57
777.025	79.14
777.203	79.06
777.382	79.46
777.56	79.51
777.739	82.31
777.917	84.94
778.096	88.25
778.274	96.6
778.453	96.5
778.631	106.56
778.81	107.55
778.988	105.28
779.166	110.51
779.345	110.05
779.523	113.38
779.702	111.31
779.88	108.02
780.058	103.59
780.237	96.53
780.415	100.41
780.593	94.68
780.771	99.96
780.95	103.99
781.128	99.76
781.306	93.21
781.484	86.45
781.662	85.51
781.841	88.19
782.019	88.77
782.197	98.77
782.375	100.46
782.553	101.3
782.731	97.98
782.909	97.4
783.087	97.54
783.265	121.62
783.443	124.66
783.621	128.66
783.799	129.33
783.977	124.48
784.155	104.62
784.333	100.63
784.511	103.29
784.689	93.67
784.867	90.4
785.045	92.77
785.223	78.19
785.4	74.86
785.578	72.08
785.756	59.89
785.934	62.4
786.112	68.72
786.289	68.58
786.467	64.83
786.645	62.69
786.823	64.73
787	70.42
787.178	72.41
787.356	76.13
787.533	76.42
787.711	81.76
787.889	90.08
788.066	90.59
788.244	84.16
788.421	86.47
788.599	95.96
788.776	95.05
788.954	87.63
789.131	83.2
789.309	83.44
789.486	72.21
789.664	76.86
789.841	70.53
790.019	70.31
790.196	71.96
790.373	69.57
790.551	71.66
790.728	72.73
790.906	68.96
791.083	60.64
791.26	59.19
791.437	74.59
791.615	68.31
791.792	66.65
791.969	66.11
792.146	70.8
792.324	65.67
792.501	69.89
792.678	64.19
792.855	70.35
793.032	82.6
793.209	82.04
793.387	78.32
793.564	80.68
793.741	81.46
793.918	80.02
794.095	81.96
794.272	90.83
794.449	83.81
794.626	81.94
794.803	71.54
794.98	66.37
795.157	65.95
795.334	68
795.511	69.84
795.688	68.83
795.864	70.7
796.041	66.75
796.218	62.43
796.395	63.87
796.572	67.71
796.749	72.72
796.925	69.79
797.102	73.69
797.279	78.05
797.456	74.44
797.632	75.99
797.809	81.13
797.986	85.74
798.162	80.69
798.339	79.74
798.516	79.65
798.692	87.61
798.869	89.5
799.046	88.95
799.222	81.38
799.399	78.68
799.575	72.89
799.752	67.27
799.928	66.04
800.105	71.35
800.281	71.56
800.458	76
800.634	73.02
800.811	74.64
800.987	83.54
801.163	85.23
801.34	94.25
801.516	95.2
801.692	102.19
801.869	102.5
802.045	101.01
802.221	94.63
802.398	95.09
802.574	101.42
802.75	106.02
802.926	99.7
803.103	103.94
803.279	102.85
803.455	109.27
803.631	94.46
803.807	89.29
803.983	96.69
804.16	100.31
804.336	96.16
804.512	80.37
804.688	83.34
804.864	85.84
805.04	79.32
805.216	74.9
805.392	80.04
805.568	88.22
805.744	103.35
805.92	88.6
806.096	84.45
806.272	93.49
806.448	108.78
806.623	107.12
806.799	104.91
806.975	98.83
807.151	106.27
807.327	93.01
807.503	96.2
807.678	78.87
807.854	93.69
808.03	102.43
808.206	85.13
808.381	65.7
808.557	72.83
808.733	66.63
808.908	70.55
809.084	73.57
809.26	79.43
809.435	85.12
809.611	88.58
809.787	77.53
809.962	78.13
810.138	81.89
810.313	83.31
810.489	72.25
810.664	67.73
810.84	72.93
811.015	65.67
811.191	59.3
811.366	54.92
811.542	52.98
811.717	64.8
811.892	64.03
812.068	66.85
812.243	71.51
812.419	68.62
812.594	74.1
812.769	68.99
812.944	72.52
813.12	89.62
813.295	95.83
813.47	91.24
813.645	75.13
813.821	74.2
813.996	67.57
814.171	55.13
814.346	58.49
814.521	65.94
814.697	60.77
814.872	71.16
815.047	65.85
815.222	70.22
815.397	78.65
815.572	80.82
815.747	76.71
815.922	77.53
816.097	85.29
816.272	79.42
816.447	75.54
816.622	78.78
816.797	76.46
816.972	71.79
817.147	59.11
817.322	57.2
817.496	60.65
817.671	60.64
817.846	53.11
818.021	43.91
818.196	49.02
818.371	45.09
818.545	35.99
818.72	28.74
818.895	30.44
819.069	38.55
819.244	31.93
819.419	31.66
819.594	33.31
819.768	34.4
819.943	41.04
820.117	37
820.292	37.55
820.467	38.98
820.641	38.85
820.816	37.82
820.99	36.76
821.165	37.64
821.339	37.04
821.514	36.78
821.688	37.63
821.863	37.37
822.037	37.89
822.212	37.72
822.386	38.45
822.56	39.14
822.735	41.49
822.909	44.08
823.084	44.09
823.258	45.03
823.432	44.83
823.606	48.3
823.781	47.02
823.955	49.07
824.129	53.33
824.303	50.35
824.478	50.29
824.652	48.59
824.826	46.06
825	48.41
825.174	46.17
825.348	47.91
825.523	44.49
825.697	45.79
825.871	43.63
826.045	43.38
826.219	44.3
826.393	45.73
826.567	43.81
826.741	43.9
826.915	43.48
827.089	45.08
827.263	48.68
827.437	51.38
827.611	51.51
827.784	53.17
827.958	50.79
828.132	57.74
828.306	60.05
828.48	64.68
828.654	68.42
828.827	71.95
829.001	73.04
829.175	65.58
829.349	57.54
829.522	56.66
829.696	61.28
829.87	68.88
830.044	69.89
830.217	66.54
830.391	73.99
830.565	79.37
830.738	74.86
830.912	72.36
831.085	69.27
831.259	82.07
831.432	76.99
831.606	76.54
831.779	67.03
831.953	60.93
832.126	57.99
832.3	55.27
832.473	50.09
832.647	48.62
832.82	47
832.994	47.59
833.167	43.51
833.34	49.73
833.514	54.88
833.687	54.17
833.86	58.11
834.034	70.03
834.207	71.99
834.38	77.04
834.553	80.8
834.727	81.91
834.9	79.38
835.073	87.93
835.246	77.96
835.419	67.86
835.593	76.66
835.766	64
835.939	37.16
836.112	35.35
836.285	26.86
836.458	15.23
836.631	4.82
836.804	8.5
836.977	-12.9
837.15	-0.26
837.323	12.56
837.496	20.64
837.669	45.01
837.842	62.08
838.015	60.98
838.188	63.25
838.361	74.68
838.533	80.61
838.706	85.98
838.879	87.77
839.052	76.33
839.225	72.92
839.398	74.01
839.57	62.99
839.743	65.94
839.916	61.04
840.088	67.08
840.261	71.07
840.434	74.64
840.607	78.14
840.779	92.41
840.952	98.23
841.124	90.68
841.297	92.75
841.47	100.84
841.642	99.25
841.815	108.69
841.987	104.84
842.16	94.49
842.332	103.85
842.505	103.43
842.677	92.91
842.85	101.2
843.022	115.44
843.194	105.97
843.367	102.15
843.539	96.83
843.712	84.98
843.884	74.86
844.056	66.78
844.229	80.33
844.401	75.68
844.573	65.79
844.745	35.1
844.918	35.68
845.09	23.88
845.262	19.64
845.434	15.73
845.606	33.52
845.779	31.97
845.951	45.65
846.123	33.29
846.295	12.45
846.467	15.06
846.639	57.89
846.811	59.05
846.983	69.8
847.155	59.12
847.327	75.14
847.499	93.33
847.671	130.29
847.843	297.89
848.015	664.52
848.187	-597.78
848.359	815.79
848.531	-492.59
848.703	4966.67
848.875	-230.85
849.047	496.81
849.218	207.02
849.39	195.53
849.562	150.7
849.734	143.53
849.905	282.23
850.077	351.03
850.249	331.84
850.421	1074.51
850.592	445.45
850.764	332.62
850.936	1288
851.107	6916.67
851.279	414.17
851.451	203.26
851.622	214.08
851.794	135.89
851.965	104.18
852.137	93.6
852.308	92.66
852.48	88.24
852.651	126.93
852.823	128.29
852.994	88.98
853.166	103.62
853.337	110.74
853.509	77.02
853.68	86.11
853.851	91.81
854.023	122.46
854.194	122.25
854.365	174.1
854.537	112.19
854.708	102.82
854.879	150.96
855.05	125.14
855.222	74.49
855.393	171.92
855.564	127.46
855.735	149.14
855.906	149.33
856.078	113.45
856.249	76.05
856.42	78.77
856.591	62.5
856.762	22.97
856.933	1.05
857.104	89.84
857.275	92.31
857.446	80.55
857.617	41.18
857.788	49.88
857.959	60.72
858.13	64.65
858.301	84.32
858.472	97.02
858.643	79.9
858.814	96.5
858.985	115.65
859.155	119.72
859.326	125.87
859.497	439.5
859.668	150
859.839	170
860.009	191.72
860.18	190.16
860.351	233.57
860.522	350.21
860.692	300.45
860.863	181.58
861.034	115.34
861.204	98.51
861.375	73.15
861.546	89.18
861.716	121.05
861.887	107.02
862.057	131.7
862.228	88.52
862.398	96.38
862.569	120.48
862.739	108.59
862.91	100.29
863.08	144.8
863.251	226.54
863.421	227.39
863.592	161.4
863.762	190.12
863.932	358.24
864.103	-366.28
864.273	-878.57
864.443	-234.17
864.614	-75.7
864.784	-47.89
864.954	-1230
865.125	5385.71
865.295	-444.78
865.465	-487.72
865.635	-5962.5
865.805	731.65
865.976	-9316.67
866.146	-1211.36
866.316	-1568
866.486	1271.43
866.656	-346.05
866.826	-156.27
866.996	-773.08
867.166	370.63
867.336	705.19
867.506	528.57
867.676	174.12
867.846	124.33
868.016	96.48
868.186	119.37
868.356	77.99
868.526	73.76
868.696	85.6
868.866	109.56
869.036	259.09
869.206	121.1
869.376	134.72
869.545	1142.11
869.715	521.05
869.885	134.78
870.055	65.34
870.224	91.86
870.394	119.05
870.564	-149.25
870.734	-17
870.903	43.69
871.073	70.52
871.243	76
871.412	82.14
871.582	95.96
871.751	104.5
871.921	117.89
872.091	109.69
872.26	105.61
872.43	108.32
872.599	136.75
872.769	117.87
872.938	88.38
873.108	80.37
873.277	62.9
873.446	48.22
873.616	69.93
873.785	64.97
873.955	58.7
874.124	63.31
874.293	80
874.463	59.81
874.632	57.14
874.801	61.73
874.971	91.91
875.14	111.34
875.309	142.35
875.478	175.13
875.647	163.49
875.817	115.95
875.986	109.61
876.155	76.04
876.324	65.29
876.493	48.44
876.662	60.33
876.831	47.78
877	52.72
877.17	65.64
877.339	75.62
877.508	78.2
877.677	78
877.846	68.21
878.015	89.07
878.184	97.11
878.352	86.97
878.521	80.93
878.69	66.17
878.859	44.85
879.028	42.94
879.197	41.79
879.366	52.48
879.534	65.05
879.703	75.94
879.872	72.55
880.041	77.03
880.21	80.28
880.378	77.81
880.547	79.52
880.716	70.75
880.884	63.79
881.053	59.14
881.222	53.73
881.39	47.24
881.559	39.14
881.727	43.61
881.896	40.8
882.065	42.59
882.233	39.17
882.402	39.67
882.57	41.99
882.739	47.51
882.907	45.53
883.076	48.22
883.244	56.6
883.412	65.83
883.581	62.15
883.749	57.66
883.918	57.65
884.086	65.7
884.254	58.29
884.423	49.12
884.591	53.69
884.759	65.35
884.927	79.35
885.096	63.51
885.264	65.08
885.432	62.07
885.6	81.79
885.769	77.53
885.937	65.12
886.105	93.47
886.273	103.47
886.441	77.87
886.609	233.06
886.777	147.94
886.945	6.25
887.113	98.83
887.281	-3400
887.449	-6.17
887.617	0
887.785	-77.97
887.953	-56.77
888.121	-183.92
888.289	-122.81
888.457	-432.88
888.625	-12466.67
888.793	2660
888.961	5825
889.129	869.39
889.296	182.76
889.464	304.17
889.632	125
889.8	124.84
889.967	87.78
890.135	52.12
