Data from JASIL_2934_Reflection_1.txt Node
Date: Sat Nov 07 20:57:44 EST 2015
User: Geneva
Spectrometer: USB4E03002
Autoset integration time: false
Trigger mode: 4
Integration Time (sec): 1.000000E-1
Scans to average: 10
Electric dark correction enabled: true
Nonlinearity correction enabled: false
Boxcar width: 5
Stray light correction enabled: false
XAxis mode: Wavelengths
Stop averaging: false
Number of Pixels in Spectrum: 3648
>>>>>Begin Spectral Data<<<<<
177.575	-1555.77
177.794	-484.15
178.014	-488.64
178.233	-45.05
178.452	0.96
178.672	47.1
178.891	220.2
179.11	0
179.33	1693.23
179.549	-1775.38
179.768	865.61
179.987	-431.41
180.207	-38.21
180.426	18.48
180.645	39.16
180.864	48.4
181.084	58.33
181.303	65.85
181.522	55.21
181.741	60.93
181.96	59.91
182.179	55.21
182.398	52.86
182.618	51.07
182.837	60.15
183.056	40.09
183.275	48.21
183.494	30.06
183.713	61.26
183.932	67.81
184.151	51.74
184.37	39.36
184.589	43.07
184.808	43.81
185.027	42.96
185.246	35.82
185.465	55.98
185.684	56.04
185.903	70.79
186.122	64.42
186.341	63.41
186.56	64.48
186.779	65.03
186.998	68.03
187.216	72.75
187.435	73.45
187.654	79.91
187.873	90.73
188.092	74.52
188.311	67.48
188.53	59.43
188.748	71.63
188.967	75.3
189.186	78.22
189.405	76.41
189.623	76.7
189.842	65.5
190.061	62.19
190.28	40.91
190.498	49.68
190.717	29.01
190.936	10.81
191.154	-31.24
191.373	-32.81
191.592	-67.81
191.81	-70.97
192.029	-46.55
192.248	-57.45
192.466	-45.39
192.685	-25.2
192.904	-11.46
193.122	-8.77
193.341	-9.21
193.559	12.29
193.778	12.1
193.996	23.24
194.215	25.56
194.433	31.25
194.652	27.81
194.87	34.8
195.089	46.31
195.307	47.82
195.526	53.26
195.744	63.28
195.963	69.75
196.181	77.16
196.399	77.11
196.618	110.2
196.836	74.87
197.055	75.81
197.273	80.9
197.491	75.8
197.71	61.04
197.928	46.48
198.146	45.98
198.365	30.58
198.583	19.15
198.801	32.25
199.019	20.01
199.238	11.72
199.456	-1.19
199.674	-12.61
199.892	-18.54
200.111	-29.68
200.329	0.94
200.547	-19.93
200.765	-20.77
200.983	-21.99
201.202	-9.08
201.42	8.14
201.638	33.8
201.856	39.24
202.074	53.63
202.292	54.85
202.51	52.85
202.728	59.4
202.946	53.08
203.165	48.24
203.383	53.27
203.601	54.07
203.819	56.6
204.037	40.58
204.255	51.16
204.473	56.63
204.691	42.65
204.909	36.94
205.127	37.9
205.345	50.63
205.562	57.94
205.78	56.15
205.998	45.67
206.216	41.21
206.434	41.53
206.652	41.1
206.87	39.27
207.088	43.07
207.306	52.39
207.523	42.48
207.741	27.1
207.959	33.51
208.177	29.75
208.395	16.16
208.612	-6.18
208.83	1.6
209.048	-7.52
209.266	-44.94
209.483	-33.59
209.701	-35.24
209.919	-31.63
210.136	-25.07
210.354	-7.96
210.572	6.8
210.79	15.52
211.007	18.14
211.225	13.98
211.442	8.78
211.66	25.32
211.878	21.32
212.095	27.68
212.313	34.37
212.53	37.37
212.748	35.09
212.966	35.05
213.183	35.38
213.401	39.13
213.618	43.98
213.836	49.32
214.053	41.95
214.271	40.47
214.488	32.76
214.705	22.34
214.923	13.13
215.14	11.68
215.358	7.96
215.575	13.16
215.793	21.61
216.01	17.76
216.227	16.74
216.445	11.58
216.662	14.24
216.879	14.59
217.097	19.21
217.314	21.3
217.531	24.73
217.749	20.72
217.966	17.59
218.183	8.36
218.4	12.01
218.618	10.52
218.835	18.98
219.052	20.31
219.269	23.6
219.487	23.43
219.704	19.42
219.921	13.54
220.138	16.29
220.355	18.3
220.572	19.66
220.79	14.56
221.007	19.75
221.224	21.85
221.441	19.92
221.658	15.54
221.875	16.61
222.092	17.61
222.309	17.95
222.526	14.85
222.743	12.87
222.96	9.76
223.177	9.28
223.394	4.57
223.611	-0.44
223.828	-1.88
224.045	-0.08
224.262	0.82
224.479	5.21
224.696	7.41
224.913	9.89
225.13	11.32
225.347	12.15
225.564	12.82
225.781	13.78
225.997	15.26
226.214	16.18
226.431	14.8
226.648	13.31
226.865	12.75
227.082	12.29
227.298	11.96
227.515	11.29
227.732	10.86
227.949	10.97
228.165	10.9
228.382	10.19
228.599	9.5
228.816	9.74
229.032	9.41
229.249	9.43
229.466	9
229.682	8.41
229.899	8.66
230.116	9.05
230.332	10.12
230.549	10.03
230.765	11.17
230.982	12.23
231.199	12.78
231.415	14.03
231.632	13.21
231.848	14.01
232.065	14.9
232.281	14.84
232.498	14.47
232.714	12.71
232.931	11.47
233.147	11.15
233.364	10.04
233.58	10.46
233.797	10.18
234.013	11.17
234.23	11.04
234.446	10.8
234.662	10.95
234.879	11.13
235.095	11.55
235.312	13.11
235.528	12.31
235.744	12.13
235.961	12.35
236.177	11.71
236.393	11.37
236.61	11.52
236.826	11.48
237.042	11.81
237.258	12.85
237.475	13.08
237.691	12.37
237.907	13.65
238.123	14.17
238.339	13.58
238.556	14.12
238.772	13.05
238.988	12.73
239.204	12.26
239.42	11.88
239.636	11.24
239.853	11.46
240.069	11.46
240.285	11.47
240.501	11.22
240.717	10.98
240.933	10.96
241.149	11.19
241.365	11.35
241.581	11.38
241.797	11.33
242.013	11.23
242.229	11.26
242.445	11.23
242.661	10.72
242.877	11.08
243.093	11.72
243.309	11.23
243.525	10.79
243.741	10.78
243.957	11.49
244.173	11.91
244.388	12.04
244.604	11.38
244.82	11.54
245.036	11.61
245.252	11.43
245.468	10.96
245.683	11.15
245.899	11.4
246.115	11.07
246.331	10.99
246.547	10.81
246.762	10.6
246.978	10.67
247.194	10.41
247.409	10.33
247.625	10.09
247.841	9.98
248.057	9.86
248.272	9.67
248.488	9.84
248.703	9.1
248.919	9.18
249.135	9.27
249.35	9.33
249.566	9.53
249.782	9.5
249.997	9.83
250.213	9.84
250.428	9.89
250.644	9.5
250.859	9.08
251.075	9.62
251.29	9.07
251.506	8.88
251.721	8.51
251.937	8.41
252.152	8.67
252.368	8.62
252.583	8.8
252.798	8.77
253.014	9.35
253.229	10.29
253.445	10.12
253.66	10.12
253.875	9.96
254.091	9.33
254.306	9.31
254.521	8.4
254.737	8.17
254.952	7.29
255.167	6.69
255.383	6.68
255.598	6.35
255.813	6
256.028	5.98
256.244	6.57
256.459	7.41
256.674	7.5
256.889	7.53
257.104	7.67
257.32	7.8
257.535	7.69
257.75	7.56
257.965	7.45
258.18	7.58
258.395	7.65
258.61	7.4
258.826	7.4
259.041	7.32
259.256	7.36
259.471	7.3
259.686	7.56
259.901	7.62
260.116	7.61
260.331	7.57
260.546	7.6
260.761	7.65
260.976	7.98
261.191	7.66
261.406	7.74
261.621	7.81
261.836	7.64
262.05	7.09
262.265	7.02
262.48	6.89
262.695	6.64
262.91	6.77
263.125	6.56
263.34	6.47
263.555	6.47
263.769	6.06
263.984	6
264.199	6.14
264.414	6.38
264.629	6.58
264.843	6.48
265.058	6.79
265.273	6.73
265.488	6.82
265.702	6.6
265.917	7.22
266.132	7.7
266.346	7.7
266.561	7.63
266.776	7.74
266.99	7.92
267.205	8.07
267.42	7.77
267.634	7.67
267.849	7.78
268.063	7.75
268.278	7.46
268.492	7.16
268.707	7.08
268.922	7.2
269.136	6.81
269.351	6.8
269.565	6.79
269.78	6.75
269.994	6.53
270.209	6.49
270.423	6.91
270.637	6.93
270.852	7
271.066	6.98
271.281	7.05
271.495	7.14
271.709	6.94
271.924	6.94
272.138	7.02
272.353	7.21
272.567	7.09
272.781	6.61
272.996	6.54
273.21	6.57
273.424	6.55
273.638	6.28
273.853	6.25
274.067	6.19
274.281	6.09
274.495	6.06
274.71	6.08
274.924	6.1
275.138	6.58
275.352	6.5
275.566	6.63
275.781	6.63
275.995	6.99
276.209	7.13
276.423	7.2
276.637	7.24
276.851	7.23
277.065	7.15
277.279	7.42
277.493	7.24
277.707	7.24
277.921	7.24
278.135	7.44
278.349	7.04
278.563	6.73
278.777	6.66
278.991	6.63
279.205	6.92
279.419	7.06
279.633	6.87
279.847	6.82
280.061	6.95
280.275	6.85
280.489	6.59
280.703	6.7
280.917	6.82
281.131	7.04
281.344	7.08
281.558	6.71
281.772	6.52
281.986	6.37
282.2	6.39
282.414	6.34
282.627	6.32
282.841	6.39
283.055	6.12
283.269	6.16
283.482	6
283.696	5.97
283.91	6.35
284.123	6.33
284.337	6.29
284.551	6.19
284.764	6.21
284.978	6.23
285.192	6.17
285.405	6.33
285.619	6.37
285.833	6.18
286.046	6.08
286.26	6.02
286.473	5.84
286.687	5.97
286.9	6.07
287.114	5.81
287.327	5.77
287.541	5.9
287.754	5.76
287.968	5.62
288.181	5.71
288.395	5.74
288.608	5.54
288.822	5.77
289.035	5.69
289.248	5.56
289.462	5.81
289.675	5.86
289.889	5.88
290.102	6.02
290.315	6.21
290.529	6.24
290.742	6.3
290.955	6.28
291.169	6.35
291.382	6.36
291.595	6.27
291.808	6.17
292.022	6.26
292.235	6.15
292.448	6.22
292.661	6.05
292.875	6.26
293.088	6.3
293.301	6.24
293.514	6.2
293.727	6.18
293.94	6.22
294.153	6.11
294.367	5.8
294.58	5.79
294.793	5.68
295.006	5.76
295.219	5.7
295.432	5.69
295.645	5.9
295.858	5.75
296.071	5.71
296.284	5.6
296.497	5.7
296.71	5.8
296.923	5.83
297.136	5.95
297.349	5.88
297.562	5.82
297.775	5.84
297.988	5.67
298.201	5.76
298.414	5.89
298.626	6
298.839	5.92
299.052	5.95
299.265	5.86
299.478	5.62
299.691	5.62
299.903	5.6
300.116	5.5
300.329	5.62
300.542	5.72
300.755	5.5
300.967	5.69
301.18	5.9
301.393	5.79
301.605	5.71
301.818	5.65
302.031	5.6
302.243	5.56
302.456	5.8
302.669	5.8
302.881	5.75
303.094	5.8
303.307	5.98
303.519	5.88
303.732	5.93
303.944	6.31
304.157	6.4
304.37	6.71
304.582	6.93
304.795	6.73
305.007	6.8
305.22	6.69
305.432	6.78
305.645	6.51
305.857	6.67
306.069	6.96
306.282	6.71
306.494	6.92
306.707	6.68
306.919	6.66
307.132	6.56
307.344	6.53
307.556	6.6
307.769	6.67
307.981	6.67
308.193	6.66
308.406	6.42
308.618	6.43
308.83	6.24
309.043	6.48
309.255	6.51
309.467	6.67
309.679	6.75
309.892	6.92
310.104	6.83
310.316	7.11
310.528	7.1
310.74	7.33
310.953	7.34
311.165	7.58
311.377	7.44
311.589	7.43
311.801	7.36
312.013	7.39
312.225	7.41
312.437	7.73
312.649	7.46
312.862	7.38
313.074	7.13
313.286	7.16
313.498	7.17
313.71	7.56
313.922	7.69
314.134	7.91
314.346	7.78
314.558	7.68
314.77	7.44
314.982	7.39
315.193	7.61
315.405	7.55
315.617	7.6
315.829	7.48
316.041	7.19
316.253	7.07
316.465	6.88
316.677	6.99
316.888	7.03
317.1	7.02
317.312	7.24
317.524	7.3
317.736	7.64
317.947	7.81
318.159	8.13
318.371	8.24
318.583	8.35
318.794	8.62
319.006	8.82
319.218	8.9
319.43	9.09
319.641	9.01
319.853	8.77
320.064	8.56
320.276	8.59
320.488	8.19
320.699	8.22
320.911	8.43
321.123	8.45
321.334	8.36
321.546	8.3
321.757	8.25
321.969	8.26
322.18	8.37
322.392	8.49
322.603	8.43
322.815	8.71
323.026	8.65
323.238	8.54
323.449	8.68
323.661	8.74
323.872	8.93
324.083	9.03
324.295	9.15
324.506	9.16
324.718	9.31
324.929	9.55
325.14	9.6
325.352	9.75
325.563	9.97
325.774	10
325.986	10.16
326.197	10.22
326.408	10.53
326.62	10.68
326.831	11.09
327.042	11.26
327.253	11.35
327.464	11.57
327.676	11.68
327.887	11.85
328.098	11.97
328.309	11.99
328.52	12.32
328.732	12.57
328.943	12.99
329.154	13.2
329.365	13.41
329.576	13.62
329.787	13.68
329.998	13.98
330.209	13.86
330.42	14.08
330.631	14.35
330.842	14.22
331.053	14.22
331.264	14.26
331.475	14.32
331.686	14.4
331.897	14.47
332.108	14.61
332.319	14.58
332.53	14.88
332.741	15
332.952	15.04
333.163	15.23
333.374	15.4
333.585	15.29
333.795	15.19
334.006	15.17
334.217	15.23
334.428	15.28
334.639	15.4
334.849	15.43
335.06	15.39
335.271	15.29
335.482	15.39
335.692	15.33
335.903	15.42
336.114	15.4
336.325	15.38
336.535	15.41
336.746	15.3
336.957	15.3
337.167	15.3
337.378	15.22
337.589	15.4
337.799	15.42
338.01	15.55
338.22	15.67
338.431	15.68
338.642	15.77
338.852	15.66
339.063	15.87
339.273	15.84
339.484	15.89
339.694	15.93
339.905	15.93
340.115	15.83
340.326	15.6
340.536	15.49
340.746	15.61
340.957	15.7
341.167	15.7
341.378	15.68
341.588	15.98
341.799	15.85
342.009	15.92
342.219	15.79
342.43	15.77
342.64	15.62
342.85	15.66
343.061	15.64
343.271	15.49
343.481	15.59
343.691	15.5
343.902	15.21
344.112	15.12
344.322	15.18
344.532	15.29
344.743	15.21
344.953	15.25
345.163	15.12
345.373	15.09
345.583	15.06
345.793	15.02
346.004	14.96
346.214	15.02
346.424	15.19
346.634	15.19
346.844	15.16
347.054	15.24
347.264	15.34
347.474	15.36
347.684	15.3
347.894	15.4
348.104	15.24
348.314	15.28
348.524	15.27
348.734	15.29
348.944	15.1
349.154	15.05
349.364	15.08
349.574	15
349.784	14.94
349.994	15.11
350.204	14.96
350.413	14.88
350.623	14.92
350.833	14.8
351.043	14.6
351.253	14.78
351.463	14.8
351.672	14.58
351.882	14.59
352.092	14.6
352.302	14.49
352.511	14.42
352.721	14.47
352.931	14.43
353.141	14.28
353.35	14.3
353.56	14.17
353.77	14.13
353.979	14.32
354.189	14.44
354.399	14.52
354.608	14.45
354.818	14.55
355.027	14.65
355.237	14.51
355.447	14.65
355.656	14.77
355.866	14.77
356.075	14.8
356.285	14.68
356.494	14.59
356.704	14.46
356.913	14.35
357.123	14.24
357.332	14.22
357.542	14.3
357.751	14.38
357.96	14.27
358.17	14.24
358.379	14.21
358.589	14.26
358.798	14.26
359.007	14.25
359.217	14.32
359.426	14.48
359.635	14.39
359.845	14.42
360.054	14.27
360.263	14.24
360.472	14.23
360.682	14.23
360.891	14.2
361.1	14.19
361.309	14.18
361.519	14.2
361.728	14.13
361.937	14.24
362.146	14.19
362.355	14.23
362.564	14.22
362.774	14.15
362.983	13.99
363.192	13.93
363.401	13.85
363.61	13.83
363.819	13.81
364.028	13.83
364.237	13.63
364.446	13.7
364.655	13.61
364.864	13.57
365.073	13.7
365.282	13.83
365.491	13.83
365.7	13.87
365.909	13.88
366.118	13.93
366.327	13.83
366.536	13.89
366.745	13.8
366.954	13.75
367.162	13.77
367.371	13.49
367.58	13.41
367.789	13.3
367.998	13.28
368.207	13.38
368.415	13.28
368.624	13.3
368.833	13.33
369.042	13.4
369.25	13.55
369.459	13.58
369.668	13.68
369.877	13.74
370.085	13.89
370.294	13.91
370.503	13.82
370.711	13.79
370.92	13.74
371.129	13.7
371.337	13.63
371.546	13.44
371.754	13.27
371.963	13.32
372.171	13.18
372.38	13.03
372.589	12.97
372.797	12.93
373.006	12.93
373.214	12.92
373.423	12.92
373.631	12.81
373.84	13.02
374.048	13.01
374.256	12.98
374.465	12.97
374.673	12.99
374.882	12.77
375.09	12.74
375.298	12.59
375.507	12.58
375.715	12.49
375.923	12.44
376.132	12.27
376.34	12.3
376.548	12.33
376.757	12.33
376.965	12.36
377.173	12.59
377.381	12.54
377.59	12.71
377.798	12.78
378.006	12.77
378.214	12.82
378.423	12.84
378.631	12.88
378.839	12.79
379.047	12.82
379.255	12.72
379.463	12.52
379.671	12.55
379.879	12.49
380.088	12.4
380.296	12.37
380.504	12.47
380.712	12.48
380.92	12.46
381.128	12.41
381.336	12.36
381.544	12.31
381.752	12.4
381.96	12.36
382.168	12.19
382.376	12.08
382.584	12.18
382.791	12.07
382.999	11.93
383.207	12.03
383.415	12.02
383.623	12.03
383.831	12
384.039	12.02
384.247	12.06
384.454	12.21
384.662	12.36
384.87	12.22
385.078	12.22
385.285	12.38
385.493	12.26
385.701	12.23
385.909	12.28
386.116	12.34
386.324	12.32
386.532	12.18
386.739	12.1
386.947	11.9
387.155	11.82
387.362	11.81
387.57	11.77
387.778	11.74
387.985	11.84
388.193	11.74
388.4	11.85
388.608	11.7
388.816	11.77
389.023	11.83
389.231	11.9
389.438	12
389.646	11.88
389.853	11.8
390.061	11.77
390.268	11.69
390.475	11.67
390.683	11.51
390.89	11.53
391.098	11.49
391.305	11.41
391.512	11.31
391.72	11.31
391.927	11.28
392.135	11.22
392.342	11.25
392.549	11.2
392.756	11.19
392.964	11.25
393.171	11.24
393.378	11.21
393.586	11.21
393.793	11.26
394	11.15
394.207	11.26
394.414	11.35
394.622	11.37
394.829	11.34
395.036	11.23
395.243	11.17
395.45	11.2
395.657	11.16
395.864	11.07
396.072	11.12
396.279	11.27
396.486	11.15
396.693	11.1
396.9	10.96
397.107	10.98
397.314	11.05
397.521	11
397.728	10.9
397.935	10.94
398.142	10.98
398.349	10.85
398.556	10.74
398.763	10.8
398.97	10.79
399.177	10.85
399.383	10.82
399.59	10.77
399.797	10.76
400.004	10.68
400.211	10.6
400.418	10.52
400.625	10.59
400.831	10.6
401.038	10.55
401.245	10.38
401.452	10.3
401.658	10.25
401.865	10.4
402.072	10.42
402.279	10.51
402.485	10.53
402.692	10.6
402.899	10.51
403.105	10.56
403.312	10.56
403.519	10.65
403.725	10.73
403.932	10.79
404.138	10.72
404.345	10.69
404.552	10.66
404.758	10.67
404.965	10.65
405.171	10.67
405.378	10.55
405.584	10.53
405.791	10.52
405.997	10.46
406.204	10.44
406.41	10.37
406.617	10.38
406.823	10.43
407.029	10.44
407.236	10.38
407.442	10.32
407.649	10.4
407.855	10.43
408.061	10.4
408.268	10.36
408.474	10.3
408.68	10.3
408.887	10.25
409.093	10.25
409.299	10.23
409.505	10.22
409.712	10.24
409.918	10.17
410.124	10.17
410.33	10.17
410.537	10.21
410.743	10.19
410.949	10.22
411.155	10.25
411.361	10.23
411.567	10.16
411.773	10.11
411.98	10.1
412.186	10.09
412.392	9.97
412.598	10.01
412.804	9.97
413.01	9.96
413.216	9.89
413.422	9.91
413.628	9.9
413.834	9.87
414.04	9.91
414.246	9.88
414.452	9.84
414.658	9.9
414.864	9.9
415.07	9.87
415.275	9.9
415.481	9.89
415.687	9.83
415.893	9.85
416.099	9.84
416.305	9.86
416.511	9.88
416.716	9.86
416.922	9.86
417.128	9.85
417.334	9.86
417.539	9.85
417.745	9.83
417.951	9.84
418.157	9.85
418.362	9.91
418.568	9.92
418.774	9.89
418.979	9.95
419.185	9.9
419.391	9.93
419.596	9.91
419.802	9.87
420.008	9.87
420.213	10.17
420.419	10.1
420.624	10.05
420.83	10.02
421.035	10.05
421.241	10.01
421.446	10.07
421.652	10.03
421.857	10.03
422.063	10.01
422.268	10.02
422.474	9.72
422.679	9.77
422.885	9.76
423.09	9.76
423.295	9.75
423.501	9.74
423.706	9.67
423.911	9.65
424.117	9.64
424.322	9.66
424.527	9.65
424.733	9.61
424.938	9.64
425.143	9.64
425.349	9.63
425.554	9.63
425.759	9.68
425.964	9.69
426.169	9.71
426.375	9.72
426.58	9.68
426.785	9.68
426.99	9.67
427.195	9.58
427.4	9.6
427.605	9.64
427.811	9.63
428.016	9.62
428.221	9.62
428.426	9.63
428.631	9.55
428.836	9.52
429.041	9.49
429.246	9.53
429.451	9.57
429.656	9.54
429.861	9.5
430.066	9.51
430.271	9.44
430.476	9.46
430.681	9.42
430.886	9.46
431.09	9.54
431.295	9.51
431.5	9.51
431.705	9.47
431.91	9.49
432.115	9.49
432.32	9.49
432.524	9.52
432.729	9.5
432.934	9.51
433.139	9.53
433.343	9.6
433.548	9.62
433.753	9.65
433.958	9.65
434.162	9.65
434.367	9.62
434.572	9.56
434.776	9.59
434.981	9.58
435.186	9.55
435.39	9.52
435.595	9.48
435.799	9.49
436.004	9.46
436.209	9.46
436.413	9.43
436.618	9.48
436.822	9.48
437.027	9.44
437.231	9.42
437.436	9.49
437.64	9.5
437.845	9.49
438.049	9.48
438.253	9.43
438.458	9.42
438.662	9.46
438.867	9.46
439.071	9.49
439.275	9.52
439.48	9.52
439.684	9.49
439.888	9.48
440.093	9.46
440.297	9.49
440.501	9.53
440.706	9.54
440.91	9.55
441.114	9.5
441.318	9.49
441.523	9.49
441.727	9.47
441.931	9.52
442.135	9.51
442.339	9.52
442.543	9.5
442.748	9.49
442.952	9.5
443.156	9.47
443.36	9.51
443.564	9.5
443.768	9.47
443.972	9.53
444.176	9.48
444.38	9.46
444.584	9.43
444.788	9.44
444.992	9.42
445.196	9.4
445.4	9.41
445.604	9.38
445.808	9.36
446.012	9.39
446.216	9.35
446.42	9.33
446.624	9.35
446.828	9.32
447.032	9.3
447.235	9.3
447.439	9.33
447.643	9.32
447.847	9.33
448.051	9.36
448.254	9.31
448.458	9.3
448.662	9.33
448.866	9.32
449.069	9.39
449.273	9.43
449.477	9.45
449.681	9.42
449.884	9.43
450.088	9.42
450.292	9.43
450.495	9.41
450.699	9.53
450.902	9.55
451.106	9.51
451.31	9.46
451.513	9.42
451.717	9.36
451.92	9.33
452.124	9.3
452.327	9.35
452.531	9.34
452.734	9.37
452.938	9.25
453.141	9.21
453.345	9.29
453.548	9.29
453.752	9.32
453.955	9.33
454.158	9.31
454.362	9.3
454.565	9.25
454.769	9.21
454.972	9.24
455.175	9.17
455.379	9.22
455.582	9.16
455.785	9.18
455.988	9.17
456.192	9.21
456.395	9.21
456.598	9.24
456.801	9.23
457.005	9.21
457.208	9.19
457.411	9.23
457.614	9.21
457.817	9.18
458.021	9.14
458.224	9.14
458.427	9.16
458.63	9.2
458.833	9.18
459.036	9.21
459.239	9.21
459.442	9.18
459.645	9.21
459.848	9.2
460.051	9.22
460.254	9.26
460.457	9.24
460.66	9.26
460.863	9.27
461.066	9.29
461.269	9.29
461.472	9.34
461.675	9.39
461.878	9.4
462.081	9.37
462.284	9.37
462.486	9.38
462.689	9.4
462.892	9.36
463.095	9.35
463.298	9.31
463.5	9.27
463.703	9.22
463.906	9.25
464.109	9.27
464.311	9.32
464.514	9.37
464.717	9.36
464.92	9.39
465.122	9.39
465.325	9.43
465.528	9.43
465.73	9.45
465.933	9.48
466.135	9.49
466.338	9.48
466.541	9.47
466.743	9.44
466.946	9.45
467.148	9.45
467.351	9.47
467.553	9.43
467.756	9.47
467.958	9.55
468.161	9.53
468.363	9.48
468.566	9.42
468.768	9.38
468.971	9.35
469.173	9.31
469.375	9.29
469.578	9.31
469.78	9.32
469.983	9.34
470.185	9.29
470.387	9.32
470.59	9.34
470.792	9.37
470.994	9.43
471.196	9.47
471.399	9.47
471.601	9.47
471.803	9.45
472.005	9.42
472.208	9.43
472.41	9.43
472.612	9.42
472.814	9.41
473.016	9.41
473.218	9.43
473.421	9.39
473.623	9.44
473.825	9.41
474.027	9.42
474.229	9.42
474.431	9.4
474.633	9.37
474.835	9.38
475.037	9.37
475.239	9.41
475.441	9.44
475.643	9.44
475.845	9.48
476.047	9.51
476.249	9.48
476.451	9.49
476.653	9.49
476.855	9.52
477.057	9.49
477.258	9.49
477.46	9.44
477.662	9.4
477.864	9.43
478.066	9.39
478.268	9.42
478.469	9.42
478.671	9.39
478.873	9.29
479.075	9.25
479.276	9.24
479.478	9.22
479.68	9.24
479.882	9.26
480.083	9.26
480.285	9.28
480.487	9.26
480.688	9.25
480.89	9.27
481.091	9.3
481.293	9.34
481.495	9.35
481.696	9.35
481.898	9.35
482.099	9.31
482.301	9.28
482.502	9.27
482.704	9.25
482.905	9.27
483.107	9.25
483.308	9.25
483.51	9.24
483.711	9.25
483.913	9.26
484.114	9.25
484.315	9.26
484.517	9.27
484.718	9.28
484.92	9.3
485.121	9.3
485.322	9.33
485.524	9.35
485.725	9.36
485.926	9.36
486.127	9.35
486.329	9.36
486.53	9.36
486.731	9.35
486.932	9.34
487.134	9.33
487.335	9.3
487.536	9.3
487.737	9.3
487.938	9.3
488.139	9.3
488.341	9.32
488.542	9.32
488.743	9.35
488.944	9.37
489.145	9.4
489.346	9.41
489.547	9.43
489.748	9.44
489.949	9.45
490.15	9.44
490.351	9.42
490.552	9.42
490.753	9.42
490.954	9.41
491.155	9.37
491.356	9.35
491.557	9.36
491.758	9.36
491.959	9.36
492.159	9.36
492.36	9.38
492.561	9.38
492.762	9.4
492.963	9.41
493.164	9.42
493.364	9.48
493.565	9.48
493.766	9.52
493.967	9.52
494.167	9.53
494.368	9.51
494.569	9.51
494.769	9.55
494.97	9.53
495.171	9.54
495.371	9.55
495.572	9.58
495.773	9.63
495.973	9.61
496.174	9.66
496.375	9.7
496.575	9.74
496.776	9.78
496.976	9.82
497.177	9.85
497.377	9.85
497.578	9.85
497.778	9.83
497.979	9.86
498.179	9.89
498.38	9.87
498.58	9.88
498.78	9.87
498.981	9.91
499.181	9.88
499.382	9.89
499.582	9.96
499.782	9.99
499.983	10.04
500.183	10.02
500.383	10.02
500.584	10.06
500.784	10.07
500.984	10.09
501.184	10.07
501.385	10.09
501.585	10.09
501.785	10.08
501.985	10.11
502.185	10.09
502.386	10.13
502.586	10.19
502.786	10.21
502.986	10.24
503.186	10.29
503.386	10.31
503.586	10.33
503.786	10.35
503.987	10.38
504.187	10.42
504.387	10.51
504.587	10.55
504.787	10.58
504.987	10.6
505.187	10.65
505.387	10.65
505.587	10.69
505.786	10.76
505.986	10.76
506.186	10.78
506.386	10.79
506.586	10.83
506.786	10.86
506.986	10.87
507.186	10.88
507.386	10.9
507.585	10.95
507.785	10.98
507.985	11
508.185	11.1
508.384	11.14
508.584	11.16
508.784	11.16
508.984	11.18
509.183	11.23
509.383	11.35
509.583	11.4
509.782	11.43
509.982	11.44
510.182	11.47
510.381	11.49
510.581	11.54
510.781	11.59
510.98	11.65
511.18	11.68
511.379	11.68
511.579	11.65
511.778	11.66
511.978	11.72
512.177	11.77
512.377	11.81
512.576	11.84
512.776	11.9
512.975	11.89
513.175	11.95
513.374	12
513.573	12.02
513.773	12.12
513.972	12.15
514.172	12.2
514.371	12.26
514.57	12.26
514.77	12.34
514.969	12.3
515.168	12.39
515.367	12.4
515.567	12.47
515.766	12.56
515.965	12.6
516.164	12.68
516.364	12.71
516.563	12.74
516.762	12.81
516.961	12.83
517.16	12.89
517.359	12.92
517.559	12.95
517.758	13.01
517.957	13.04
518.156	13.06
518.355	13.09
518.554	13.12
518.753	13.16
518.952	13.15
519.151	13.2
519.35	13.26
519.549	13.28
519.748	13.32
519.947	13.32
520.146	13.37
520.345	13.38
520.544	13.41
520.743	13.46
520.942	13.5
521.141	13.55
521.339	13.56
521.538	13.58
521.737	13.65
521.936	13.71
522.135	13.77
522.333	13.78
522.532	13.8
522.731	13.85
522.93	13.87
523.129	13.89
523.327	13.95
523.526	13.99
523.725	14.05
523.923	14.08
524.122	14.1
524.321	14.16
524.519	14.18
524.718	14.23
524.917	14.24
525.115	14.27
525.314	14.3
525.512	14.36
525.711	14.41
525.909	14.43
526.108	14.47
526.306	14.51
526.505	14.5
526.703	14.55
526.902	14.59
527.1	14.63
527.299	14.68
527.497	14.71
527.696	14.73
527.894	14.75
528.092	14.77
528.291	14.77
528.489	14.78
528.688	14.82
528.886	14.85
529.084	14.87
529.283	14.9
529.481	14.91
529.679	14.93
529.877	14.94
530.076	14.94
530.274	15
530.472	15.07
530.67	15.11
530.869	15.16
531.067	15.19
531.265	15.22
531.463	15.25
531.661	15.25
531.859	15.31
532.057	15.36
532.255	15.4
532.454	15.41
532.652	15.43
532.85	15.44
533.048	15.46
533.246	15.49
533.444	15.5
533.642	15.54
533.84	15.62
534.038	15.67
534.236	15.74
534.434	15.8
534.632	15.87
534.83	15.92
535.027	15.97
535.225	16
535.423	16.04
535.621	16.08
535.819	16.13
536.017	16.14
536.215	16.12
536.412	16.13
536.61	16.12
536.808	16.1
537.006	16.1
537.203	16.12
537.401	16.14
537.599	16.18
537.797	16.24
537.994	16.23
538.192	16.28
538.39	16.35
538.587	16.36
538.785	16.43
538.983	16.52
539.18	16.56
539.378	16.6
539.575	16.64
539.773	16.65
539.97	16.64
540.168	16.65
540.366	16.65
540.563	16.66
540.761	16.67
540.958	16.7
541.155	16.69
541.353	16.74
541.55	16.76
541.748	16.8
541.945	16.85
542.143	16.88
542.34	16.92
542.537	16.95
542.735	16.98
542.932	17.01
543.129	17.03
543.327	17.1
543.524	17.13
543.721	17.18
543.919	17.18
544.116	17.18
544.313	17.23
544.51	17.29
544.708	17.32
544.905	17.34
545.102	17.38
545.299	17.4
545.496	17.42
545.693	17.43
545.891	17.43
546.088	17.45
546.285	17.46
546.482	17.48
546.679	17.5
546.876	17.56
547.073	17.62
547.27	17.7
547.467	17.74
547.664	17.71
547.861	17.78
548.058	17.82
548.255	17.86
548.452	17.92
548.649	18.02
548.846	18.05
549.043	18.07
549.24	18.07
549.437	18.05
549.633	18.06
549.83	18.12
550.027	18.1
550.224	18.16
550.421	18.16
550.618	18.2
550.814	18.19
551.011	18.2
551.208	18.26
551.405	18.28
551.601	18.28
551.798	18.33
551.995	18.33
552.191	18.36
552.388	18.32
552.585	18.37
552.781	18.38
552.978	18.49
553.175	18.44
553.371	18.43
553.568	18.45
553.764	18.53
553.961	18.51
554.157	18.57
554.354	18.59
554.55	18.73
554.747	18.7
554.943	18.76
555.14	18.69
555.336	18.75
555.533	18.79
555.729	18.88
555.926	18.85
556.122	18.89
556.318	18.9
556.515	18.89
556.711	18.85
556.907	18.9
557.104	18.86
557.3	18.85
557.496	18.88
557.693	18.93
557.889	18.92
558.085	18.97
558.281	19.02
558.478	19.03
558.674	19.13
558.87	19.17
559.066	19.2
559.262	19.26
559.459	19.29
559.655	19.27
559.851	19.27
560.047	19.3
560.243	19.35
560.439	19.37
560.635	19.42
560.831	19.42
561.027	19.4
561.223	19.41
561.419	19.48
561.615	19.51
561.811	19.61
562.007	19.59
562.203	19.58
562.399	19.62
562.595	19.59
562.791	19.56
562.987	19.56
563.183	19.59
563.379	19.64
563.575	19.65
563.771	19.69
563.966	19.68
564.162	19.76
564.358	19.78
564.554	19.75
564.75	19.85
564.945	19.91
565.141	19.97
565.337	19.97
565.533	20.02
565.728	20.02
565.924	20.02
566.12	20.06
566.315	20.1
566.511	20.15
566.707	20.22
566.902	20.15
567.098	20.14
567.293	20.15
567.489	20.17
567.684	20.11
567.88	20.11
568.076	20.11
568.271	20.14
568.467	20.14
568.662	20.18
568.858	20.14
569.053	20.2
569.248	20.2
569.444	20.18
569.639	20.19
569.835	20.23
570.03	20.34
570.225	20.32
570.421	20.41
570.616	20.41
570.812	20.38
571.007	20.42
571.202	20.41
571.397	20.47
571.593	20.53
571.788	20.59
571.983	20.65
572.178	20.62
572.374	20.68
572.569	20.6
572.764	20.59
572.959	20.61
573.154	20.65
573.35	20.7
573.545	20.69
573.74	20.71
573.935	20.73
574.13	20.77
574.325	20.73
574.52	20.7
574.715	20.68
574.91	20.74
575.105	20.78
575.3	20.74
575.495	20.78
575.69	20.84
575.885	20.86
576.08	20.83
576.275	20.76
576.47	20.8
576.665	20.86
576.86	20.91
577.055	20.91
577.25	20.95
577.444	21.04
577.639	21.03
577.834	21.01
578.029	21
578.224	21.02
578.418	21.09
578.613	21
578.808	21.02
579.003	21.06
579.197	21.04
579.392	20.98
579.587	20.96
579.781	20.97
579.976	20.88
580.171	20.9
580.365	20.92
580.56	20.9
580.755	20.99
580.949	21.02
581.144	20.97
581.338	21
581.533	21.06
581.727	21.1
581.922	21.09
582.116	21.21
582.311	21.24
582.505	21.23
582.7	21.22
582.894	21.3
583.089	21.34
583.283	21.36
583.478	21.38
583.672	21.4
583.866	21.35
584.061	21.4
584.255	21.42
584.449	21.38
584.644	21.44
584.838	21.44
585.032	21.39
585.226	21.32
585.421	21.36
585.615	21.34
585.809	21.32
586.003	21.38
586.198	21.38
586.392	21.32
586.586	21.35
586.78	21.4
586.974	21.46
587.168	21.46
587.363	21.4
587.557	21.36
587.751	21.37
587.945	21.31
588.139	21.27
588.333	21.21
588.527	21.25
588.721	21.22
588.915	21.13
589.109	21.08
589.303	21.07
589.497	21.18
589.691	21.26
589.885	21.28
590.079	21.32
590.273	21.35
590.466	21.36
590.66	21.4
590.854	21.48
591.048	21.48
591.242	21.55
591.436	21.64
591.629	21.6
591.823	21.6
592.017	21.62
592.211	21.64
592.404	21.66
592.598	21.78
592.792	21.8
592.986	21.79
593.179	21.86
593.373	21.82
593.567	21.75
593.76	21.75
593.954	21.66
594.147	21.66
594.341	21.71
594.535	21.76
594.728	21.64
594.922	21.67
595.115	21.64
595.309	21.62
595.502	21.63
595.696	21.63
595.889	21.64
596.083	21.69
596.276	21.63
596.47	21.57
596.663	21.52
596.856	21.53
597.05	21.5
597.243	21.49
597.437	21.53
597.63	21.58
597.823	21.64
598.017	21.69
598.21	21.63
598.403	21.69
598.596	21.75
598.79	21.78
598.983	21.83
599.176	21.84
599.369	21.92
599.563	21.89
599.756	21.84
599.949	21.8
600.142	21.75
600.335	21.78
600.528	21.81
600.722	21.84
600.915	21.85
601.108	21.88
601.301	21.89
601.494	21.8
601.687	21.81
601.88	21.86
602.073	21.84
602.266	21.89
602.459	22
602.652	21.99
602.845	21.99
603.038	22.02
603.231	22.03
603.424	22.05
603.617	22.1
603.809	22.06
604.002	22.07
604.195	22.09
604.388	22.07
604.581	21.98
604.774	21.96
604.966	21.95
605.159	21.91
605.352	21.95
605.545	21.91
605.737	21.9
605.93	21.94
606.123	21.85
606.316	21.87
606.508	21.94
606.701	22.03
606.894	22.13
607.086	22.14
607.279	22.13
607.471	22.09
607.664	22.1
607.857	22.19
608.049	22.29
608.242	22.31
608.434	22.29
608.627	22.24
608.819	22.19
609.012	22.17
609.204	22.15
609.397	22.16
609.589	22.23
609.782	22.21
609.974	22.19
610.166	22.16
610.359	22.22
610.551	22.25
610.743	22.32
610.936	22.36
611.128	22.39
611.32	22.46
611.513	22.48
611.705	22.43
611.897	22.47
612.09	22.41
612.282	22.34
612.474	22.25
612.666	22.32
612.858	22.24
613.051	22.27
613.243	22.18
613.435	22.16
613.627	22.18
613.819	22.16
614.011	22.13
614.203	22.16
614.395	22.15
614.588	22.23
614.78	22.14
614.972	22.08
615.164	21.96
615.356	22.06
615.548	22.11
615.74	22.14
615.932	22.16
616.124	22.19
616.315	22.16
616.507	22.23
616.699	22.18
616.891	22.26
617.083	22.38
617.275	22.52
617.467	22.45
617.659	22.36
617.85	22.32
618.042	22.3
618.234	22.3
618.426	22.33
618.618	22.38
618.809	22.43
619.001	22.35
619.193	22.33
619.384	22.26
619.576	22.25
619.768	22.35
619.959	22.35
620.151	22.4
620.343	22.48
620.534	22.51
620.726	22.38
620.917	22.48
621.109	22.55
621.301	22.55
621.492	22.52
621.684	22.46
621.875	22.34
622.067	22.32
622.258	22.3
622.45	22.21
622.641	22.25
622.832	22.36
623.024	22.29
623.215	22.33
623.407	22.42
623.598	22.5
623.789	22.62
623.981	22.67
624.172	22.81
624.363	22.8
624.555	22.79
624.746	22.7
624.937	22.59
625.129	22.51
625.32	22.47
625.511	22.46
625.702	22.41
625.893	22.41
626.085	22.42
626.276	22.36
626.467	22.38
626.658	22.45
626.849	22.5
627.04	22.51
627.231	22.58
627.422	22.67
627.614	22.69
627.805	22.79
627.996	22.82
628.187	22.86
628.378	22.81
628.569	22.8
628.76	22.8
628.951	22.8
629.142	22.84
629.332	22.89
629.523	22.78
629.714	22.75
629.905	22.65
630.096	22.59
630.287	22.55
630.478	22.63
630.669	22.68
630.859	22.59
631.05	22.59
631.241	22.58
631.432	22.58
631.623	22.63
631.813	22.58
632.004	22.55
632.195	22.63
632.385	22.59
632.576	22.57
632.767	22.47
632.957	22.52
633.148	22.49
633.339	22.52
633.529	22.53
633.72	22.42
633.91	22.37
634.101	22.48
634.292	22.39
634.482	22.42
634.673	22.4
634.863	22.4
635.054	22.33
635.244	22.36
635.435	22.36
635.625	22.36
635.815	22.46
636.006	22.53
636.196	22.54
636.387	22.58
636.577	22.58
636.767	22.61
636.958	22.71
637.148	22.79
637.338	22.76
637.529	22.72
637.719	22.73
637.909	22.77
638.099	22.8
638.29	22.77
638.48	22.78
638.67	22.78
638.86	22.75
639.05	22.81
639.241	22.88
639.431	22.93
639.621	22.92
639.811	22.92
640.001	22.82
640.191	22.76
640.381	22.67
640.571	22.54
640.761	22.53
640.951	22.49
641.141	22.46
641.331	22.3
641.521	22.31
641.711	22.34
641.901	22.28
642.091	22.32
642.281	22.38
642.471	22.41
642.661	22.58
642.851	22.71
643.041	22.82
643.231	22.7
643.42	22.72
643.61	22.66
643.8	22.68
643.99	22.77
644.18	22.77
644.369	22.81
644.559	22.85
644.749	22.81
644.939	22.71
645.128	22.63
645.318	22.65
645.508	22.8
645.697	22.83
645.887	22.88
646.076	23
646.266	23.05
646.456	22.99
646.645	23.01
646.835	23.02
647.024	23.05
647.214	23.07
647.403	23.04
647.593	23.05
647.782	23.06
647.972	23.01
648.161	22.82
648.351	22.84
648.54	22.83
648.73	22.75
648.919	22.76
649.108	22.74
649.298	22.68
649.487	22.81
649.677	22.73
649.866	22.76
650.055	22.81
650.244	22.82
650.434	22.77
650.623	22.85
650.812	22.87
651.002	22.83
651.191	22.74
651.38	22.81
651.569	22.74
651.758	22.72
651.947	22.72
652.137	22.72
652.326	22.76
652.515	22.74
652.704	22.76
652.893	22.83
653.082	22.87
653.271	23.09
653.46	23.11
653.649	23.22
653.838	23.18
654.027	23.14
654.216	23.07
654.405	23.16
654.594	23.28
654.783	23.24
654.972	23.2
655.161	23.2
655.35	23.08
655.539	23.04
655.728	22.96
655.916	22.93
656.105	22.93
656.294	22.96
656.483	22.73
656.672	22.74
656.86	22.68
657.049	22.74
657.238	22.73
657.427	22.73
657.615	22.77
657.804	22.8
657.993	22.81
658.181	22.83
658.37	22.89
658.559	22.95
658.747	22.88
658.936	22.92
659.125	22.95
659.313	23
659.502	23
659.69	22.98
659.879	22.99
660.067	23.08
660.256	23.1
660.444	23.12
660.633	23.14
660.821	23.15
661.01	23.1
661.198	23.03
661.387	23.01
661.575	23.08
661.763	23.06
661.952	23.09
662.14	23.04
662.328	23.13
662.517	23.1
662.705	23.1
662.893	23.16
663.082	23.26
663.27	23.24
663.458	23.26
663.646	23.23
663.834	23.26
664.023	23.21
664.211	23.35
664.399	23.21
664.587	23.21
664.775	23.16
664.963	23.23
665.152	23.12
665.34	23.17
665.528	23.21
665.716	23.19
665.904	23.18
666.092	23.21
666.28	23.14
666.468	23.21
666.656	23.22
666.844	23.35
667.032	23.25
667.22	23.34
667.408	23.38
667.596	23.27
667.784	23.25
667.971	23.29
668.159	23.33
668.347	23.32
668.535	23.18
668.723	23.1
668.911	23.1
669.098	23.01
669.286	22.97
669.474	22.97
669.662	23
669.849	23.03
670.037	22.97
670.225	22.86
670.413	22.87
670.6	23.05
670.788	23.1
670.976	23.16
671.163	23.25
671.351	23.27
671.538	23.28
671.726	23.4
671.913	23.4
672.101	23.37
672.289	23.32
672.476	23.33
672.664	23.28
672.851	23.25
673.039	23.17
673.226	23.06
673.413	23.06
673.601	23.03
673.788	22.97
673.976	23.01
674.163	23.16
674.35	23.25
674.538	23.33
674.725	23.29
674.912	23.38
675.1	23.39
675.287	23.46
675.474	23.47
675.662	23.5
675.849	23.53
676.036	23.54
676.223	23.4
676.411	23.42
676.598	23.3
676.785	23.33
676.972	23.42
677.159	23.45
677.346	23.55
677.533	23.53
677.721	23.58
677.908	23.54
678.095	23.52
678.282	23.64
678.469	23.62
678.656	23.71
678.843	23.74
679.03	23.7
679.217	23.75
679.404	23.73
679.591	23.73
679.778	23.59
679.964	23.66
680.151	23.69
680.338	23.66
680.525	23.78
680.712	23.69
680.899	23.73
681.086	23.76
681.272	23.73
681.459	23.76
681.646	23.79
681.833	23.87
682.02	23.82
682.206	23.82
682.393	23.79
682.58	23.64
682.766	23.67
682.953	23.53
683.14	23.44
683.326	23.5
683.513	23.48
683.7	23.38
683.886	23.43
684.073	23.4
684.259	23.41
684.446	23.43
684.632	23.46
684.819	23.29
685.005	23.52
685.192	23.55
685.378	23.36
685.565	23.3
685.751	23.34
685.938	23.21
686.124	23.05
686.31	23.11
686.497	23.22
686.683	23.39
686.87	23.59
687.056	23.36
687.242	23.21
687.429	23.28
687.615	23.28
687.801	23.36
687.987	23.41
688.174	23.52
688.36	23.44
688.546	23.36
688.732	23.24
688.918	23.12
689.105	23.25
689.291	23.36
689.477	23.4
689.663	23.39
689.849	23.34
690.035	23.48
690.221	23.53
690.407	23.58
690.593	23.51
690.779	23.64
690.965	23.73
691.151	23.84
691.337	23.85
691.523	23.8
691.709	23.86
691.895	23.97
692.081	23.83
692.267	23.78
692.453	23.67
692.639	23.77
692.825	23.67
693.011	23.62
693.196	23.5
693.382	23.55
693.568	23.52
693.754	23.43
693.94	23.36
694.125	23.42
694.311	23.52
694.497	23.7
694.682	23.74
694.868	23.75
695.054	23.74
695.239	23.66
695.425	23.59
695.611	23.68
695.796	23.81
695.982	23.8
696.168	23.79
696.353	23.84
696.539	23.77
696.724	23.7
696.91	23.75
697.095	23.79
697.281	23.86
697.466	23.95
697.652	23.94
697.837	23.93
698.023	23.95
698.208	24
698.393	23.96
698.579	23.96
698.764	24.05
698.949	24.05
699.135	24.06
699.32	24.04
699.505	23.91
699.691	23.99
699.876	23.89
700.061	23.9
700.246	23.91
700.432	23.87
700.617	23.84
700.802	23.87
700.987	23.86
701.172	23.78
701.358	23.73
701.543	23.96
701.728	23.97
701.913	24.15
702.098	24.21
702.283	24.17
702.468	24.22
702.653	24.13
702.838	24.15
703.023	24.22
703.208	24.28
703.393	24.5
703.578	24.46
703.763	24.42
703.948	24.28
704.133	24.2
704.318	24.05
704.503	24.16
704.688	24.4
704.873	24.29
705.057	24.15
705.242	24.14
705.427	24.05
705.612	24.03
705.797	24.02
705.981	24.19
706.166	24.25
706.351	24.42
706.536	24.27
706.72	24.04
706.905	24.07
707.09	24.12
707.274	24.16
707.459	23.94
707.644	23.77
707.828	23.91
708.013	23.82
708.197	23.89
708.382	23.78
708.567	23.72
708.751	23.89
708.936	23.79
709.12	23.95
709.305	23.96
709.489	24.28
709.673	24.38
709.858	24.05
710.042	24.16
710.227	23.87
710.411	23.89
710.596	24.06
710.78	23.97
710.964	24.02
711.149	23.9
711.333	23.94
711.517	23.94
711.702	23.89
711.886	24.03
712.07	23.9
712.254	24.09
712.438	24.13
712.623	23.96
712.807	24.17
712.991	24.12
713.175	24.29
713.359	24.36
713.544	24.37
713.728	24.46
713.912	24.48
714.096	24.6
714.28	24.59
714.464	24.68
714.648	24.73
714.832	24.54
715.016	24.67
715.2	24.42
715.384	24.26
715.568	24.21
715.752	24.19
715.936	24.17
716.12	24.19
716.304	24.23
716.488	24.15
716.671	24.25
716.855	24.25
717.039	24.26
717.223	24.26
717.407	24.25
717.59	24.22
717.774	24.23
717.958	24.29
718.142	24.08
718.325	23.96
718.509	24.08
718.693	24.16
718.877	24.14
719.06	24.03
719.244	23.97
719.428	24.05
719.611	23.92
719.795	23.83
719.978	23.75
720.162	23.91
720.345	23.89
720.529	23.72
720.713	23.41
720.896	23.37
721.08	23.35
721.263	23.33
721.446	23.39
721.63	23.52
721.813	23.65
721.997	23.71
722.18	23.74
722.364	23.83
722.547	23.82
722.73	24.12
722.914	24.43
723.097	24.39
723.28	24.5
723.464	24.6
723.647	24.66
723.83	24.56
724.013	24.55
724.197	24.52
724.38	24.73
724.563	24.75
724.746	24.61
724.929	24.42
725.112	24.24
725.296	24.35
725.479	24.09
725.662	23.94
725.845	24.12
726.028	23.96
726.211	23.92
726.394	23.79
726.577	23.85
726.76	23.92
726.943	23.86
727.126	24.23
727.309	24.19
727.492	24.49
727.675	24.72
727.858	24.56
728.041	24.69
728.224	24.74
728.407	24.65
728.589	24.74
728.772	24.79
728.955	24.94
729.138	24.81
729.321	24.85
729.503	24.69
729.686	24.51
729.869	24.62
730.052	24.65
730.234	24.53
730.417	24.64
730.6	24.53
730.782	24.26
730.965	24.37
731.148	24.27
731.33	24.32
731.513	24.34
731.695	24.29
731.878	24.34
732.061	24.34
732.243	24.48
732.426	24.32
732.608	24.44
732.791	24.53
732.973	24.32
733.156	24.39
733.338	24.3
733.52	24.3
733.703	24.27
733.885	24.25
734.068	24.13
734.25	24.21
734.432	24.44
734.615	24.59
734.797	24.75
734.979	24.89
735.162	24.97
735.344	24.85
735.526	24.73
735.708	24.67
735.891	24.74
736.073	25.02
736.255	24.99
736.437	24.9
736.619	24.53
736.802	24.33
736.984	24.14
737.166	24.16
737.348	24.26
737.53	24.4
737.712	24.37
737.894	24.37
738.076	24.17
738.258	23.82
738.44	23.88
738.622	23.88
738.804	24.04
738.986	24.15
739.168	24.19
739.35	24.39
739.532	24.42
739.714	24.45
739.896	24.34
740.078	24.38
740.259	24.76
740.441	24.65
740.623	24.81
740.805	24.85
740.987	24.89
741.168	24.66
741.35	24.62
741.532	24.62
741.714	24.87
741.895	24.97
742.077	24.9
742.259	24.77
742.44	24.83
742.622	24.68
742.804	24.6
742.985	24.51
743.167	24.79
743.348	24.82
743.53	25.07
743.711	24.96
743.893	24.54
744.075	24.38
744.256	24.21
744.438	24.15
744.619	24.34
744.8	24.15
744.982	24.26
745.163	24.21
745.345	23.97
745.526	23.67
745.707	23.87
745.889	24.1
746.07	24.23
746.252	24.41
746.433	24.48
746.614	24.31
746.795	24.68
746.977	24.85
747.158	24.94
747.339	25.07
747.52	25.09
747.702	24.95
747.883	24.86
748.064	24.71
748.245	24.68
748.426	24.64
748.607	24.7
748.788	24.53
748.97	24.28
749.151	24.09
749.332	23.91
749.513	23.98
749.694	24.17
749.875	24.32
750.056	24.51
750.237	24.46
750.418	24.64
750.599	24.55
750.78	24.45
750.96	24.69
751.141	25.03
751.322	25.22
751.503	25.1
751.684	25.13
751.865	25.19
752.046	25.25
752.226	25.34
752.407	25.28
752.588	25.41
752.769	25.73
752.949	25.65
753.13	25.35
753.311	25.4
753.492	25.23
753.672	24.96
753.853	24.49
754.034	24.83
754.214	25.11
754.395	25.05
754.575	25.17
754.756	24.8
754.937	24.74
755.117	24.75
755.298	24.73
755.478	25.11
755.659	25.3
755.839	25.4
756.02	25.16
756.2	24.81
756.381	24.78
756.561	24.61
756.741	24.97
756.922	24.83
757.102	24.91
757.283	24.89
757.463	24.8
757.643	24.71
757.823	24.81
758.004	24.78
758.184	24.9
758.364	24.96
758.545	25.11
758.725	24.89
758.905	24.89
759.085	24.91
759.265	24.79
759.446	24.83
759.626	24.99
759.806	25.11
759.986	24.87
760.166	24.61
760.346	24.31
760.526	24.33
760.706	24.41
760.886	24.29
761.066	24.21
761.246	24.41
761.426	24.35
761.606	24
761.786	24.05
761.966	24.26
762.146	24.57
762.326	24.62
762.506	24.56
762.686	24.73
762.866	24.79
763.046	24.69
763.225	24.78
763.405	24.81
763.585	24.99
763.765	24.91
763.945	24.66
764.124	24.49
764.304	24.75
764.484	24.81
764.664	24.58
764.843	24.73
765.023	24.91
765.203	24.7
765.382	24.73
765.562	24.7
765.741	25.04
765.921	25.36
766.101	25.61
766.28	25.63
766.46	25.64
766.639	25.7
766.819	25.64
766.998	25.92
767.178	26.14
767.357	26.03
767.537	25.8
767.716	25.71
767.896	25.83
768.075	25.51
768.254	25.49
768.434	25.43
768.613	25.56
768.792	25.83
768.972	25.76
769.151	25.41
769.33	25.6
769.51	26.28
769.689	26.03
769.868	25.87
770.047	25.88
770.226	26.14
770.406	26.13
770.585	26.09
770.764	25.79
770.943	25.49
771.122	25.71
771.301	25.4
771.48	25.27
771.66	25.55
771.839	25.39
772.018	25.61
772.197	25.66
772.376	25.5
772.555	25.44
772.734	25.63
772.913	25.58
773.092	25.63
773.271	25.78
773.449	25.45
773.628	25.3
773.807	25.59
773.986	25.54
774.165	25.06
774.344	25.22
774.523	25.21
774.701	25.24
774.88	25.24
775.059	25.23
775.238	25.09
775.417	25.02
775.595	24.88
775.774	25.14
775.953	25.08
776.131	24.71
776.31	24.73
776.489	24.52
776.667	24.21
776.846	24.43
777.025	24.26
777.203	24.43
777.382	24.53
777.56	24.82
777.739	24.42
777.917	24.48
778.096	25.14
778.274	25.37
778.453	25.96
778.631	25.83
778.81	25.8
778.988	25.78
779.166	26.22
779.345	26.18
779.523	26.19
779.702	26.5
779.88	26.39
780.058	26.2
780.237	26.06
780.415	25.93
780.593	25.97
780.771	26
780.95	26.16
781.128	25.96
781.306	26.21
781.484	26.22
781.662	25.8
781.841	25.84
782.019	25.65
782.197	25.64
782.375	25.21
782.553	25.67
782.731	26
782.909	25.82
783.087	26.12
783.265	26.53
783.443	26.17
783.621	26.3
783.799	26.41
783.977	26.26
784.155	25.96
784.333	26.38
784.511	26.3
784.689	25.99
784.867	26.44
785.045	25.37
785.223	24.6
785.4	24.61
785.578	24.61
785.756	24.7
785.934	24.93
786.112	25
786.289	24.94
786.467	24.98
786.645	24.94
786.823	24.53
787	25.05
787.178	25.53
787.356	25.99
787.533	25.96
787.711	26.01
787.889	26.29
788.066	26.68
788.244	26.75
788.421	26.57
788.599	26.39
788.776	26.61
788.954	26.63
789.131	26.34
789.309	26.09
789.486	25.88
789.664	25.82
789.841	25.37
790.019	25.07
790.196	24.65
790.373	24.24
790.551	24.28
790.728	24.36
790.906	24.26
791.083	23.39
791.26	23.09
791.437	23.6
791.615	23.71
791.792	24.27
791.969	24.26
792.146	24.51
792.324	24.94
792.501	25.3
792.678	25.16
792.855	24.75
793.032	25.92
793.209	26.13
793.387	26.34
793.564	26.45
793.741	25.61
793.918	25.4
794.095	25.3
794.272	25.29
794.449	24.58
794.626	24.58
794.803	24.6
794.98	23.88
795.157	24.14
795.334	24
795.511	23.43
795.688	23.82
795.864	24.3
796.041	24.76
796.218	24.98
796.395	25.57
796.572	25.6
796.749	26.15
796.925	26.7
797.102	26.95
797.279	26.92
797.456	27.15
797.632	27.04
797.809	26.47
797.986	25.94
798.162	25.85
798.339	25.87
798.516	25.54
798.692	25.64
798.869	26.02
799.046	25.47
799.222	25.55
799.399	25.4
799.575	26.05
799.752	26.15
799.928	25.87
800.105	25.63
800.281	25.3
800.458	26.03
800.634	25.77
800.811	25.63
800.987	25.66
801.163	25.46
801.34	25.68
801.516	25.29
801.692	25.71
801.869	26.05
802.045	26.64
802.221	26.77
802.398	26.57
802.574	26.81
802.75	26.93
802.926	27.08
803.103	26.62
803.279	27.14
803.455	27.37
803.631	27.65
803.807	27.24
803.983	26.97
804.16	26.62
804.336	26.13
804.512	25.83
804.688	25.85
804.864	25.94
805.04	26.82
805.216	26.14
805.392	25.36
805.568	24.99
805.744	25.43
805.92	25.52
806.096	25.61
806.272	26
806.448	25.62
806.623	24.78
806.799	24.49
806.975	23.96
807.151	23.94
807.327	24.14
807.503	24.35
807.678	24.17
807.854	23.88
808.03	24.59
808.206	24.09
808.381	24.15
808.557	24.63
808.733	24.46
808.908	24.49
809.084	24.63
809.26	24.62
809.435	24.3
809.611	24.71
809.787	24.96
809.962	24.11
810.138	24.39
810.313	25.08
810.489	24.79
810.664	24.91
810.84	24.68
811.015	24.6
811.191	24.76
811.366	25.02
811.542	24.92
811.717	24.33
811.892	25.25
812.068	25.67
812.243	25.06
812.419	25.47
812.594	25.61
812.769	26.07
812.944	26.6
813.12	25.99
813.295	25.89
813.47	25.77
813.645	26.27
813.821	25.72
813.996	25.05
814.171	25
814.346	24.3
814.521	24.59
814.697	24.65
814.872	24.56
815.047	25.7
815.222	25.26
815.397	25.05
815.572	25.05
815.747	25.87
815.922	26.04
816.097	26.34
816.272	26.85
816.447	27.06
816.622	27.73
816.797	27.46
816.972	26.93
817.147	27.69
817.322	27.35
817.496	27.16
817.671	26.49
817.846	26.61
818.021	26.31
818.196	26.36
818.371	26.3
818.545	26.16
818.72	25.97
818.895	25.9
819.069	25.81
819.244	26.53
819.419	26.7
819.594	26.77
819.768	26.32
819.943	26.7
820.117	26.69
820.292	26.49
820.467	26.26
820.641	26.42
820.816	26.53
820.99	26.56
821.165	26.5
821.339	26.46
821.514	26.43
821.688	26.59
821.863	26.49
822.037	26.43
822.212	26.4
822.386	26.32
822.56	26.11
822.735	25.98
822.909	25.81
823.084	25.7
823.258	25.75
823.432	25.65
823.606	25.51
823.781	25.46
823.955	25.54
824.129	25.5
824.303	25.57
824.478	25.88
824.652	26.16
824.826	26.19
825	26.36
825.174	26.13
825.348	26.04
825.523	26.04
825.697	25.96
825.871	25.78
826.045	25.81
826.219	25.83
826.393	25.65
826.567	25.68
826.741	25.83
826.915	25.83
827.089	25.88
827.263	26.15
827.437	26.23
827.611	26.43
827.784	26.44
827.958	26.43
828.132	26.64
828.306	26.72
828.48	26.63
828.654	26.69
828.827	26.49
829.001	26.3
829.175	25.91
829.349	25.85
829.522	25.7
829.696	26.02
829.87	26.07
830.044	25.72
830.217	25.96
830.391	25.23
830.565	25.51
830.738	25.76
830.912	26.07
831.085	26.6
831.259	27.15
831.432	27.14
831.606	26.61
831.779	26.77
831.953	26.74
832.126	26.54
832.3	26.86
832.473	26.38
832.647	26.62
832.82	26.74
832.994	26.76
833.167	26.12
833.34	26.02
833.514	26.08
833.687	26.03
833.86	25.96
834.034	25.99
834.207	26.08
834.38	25.52
834.553	25.39
834.727	25.3
834.9	25.13
835.073	25.48
835.246	25.39
835.419	25.66
835.593	26.01
835.766	25.63
835.939	25.86
836.112	25.9
836.285	26.94
836.458	27.18
836.631	26.86
836.804	26.3
836.977	25.61
837.15	25.68
837.323	25.09
837.496	24.19
837.669	25.21
837.842	24.47
838.015	23.88
838.188	23.65
838.361	24.01
838.533	23.8
838.706	23.76
838.879	24.64
839.052	24.49
839.225	24.82
839.398	24.73
839.57	24.16
839.743	24.18
839.916	25.9
840.088	25.94
840.261	25.16
840.434	25.4
840.607	26.04
840.779	26.21
840.952	26.91
841.124	26.76
841.297	27.14
841.47	26.53
841.642	26.84
841.815	25.28
841.987	25.76
842.16	25.93
842.332	26.45
842.505	26.44
842.677	27.45
842.85	26.56
843.022	27.05
843.194	28.55
843.367	29.65
843.539	29.38
843.712	30.23
843.884	30.07
844.056	29.54
844.229	29.83
844.401	29.11
844.573	28.13
844.745	27.74
844.918	26.91
845.09	26.06
845.262	25.57
845.434	25.87
845.606	24.21
845.779	23.98
845.951	25.14
846.123	23.81
846.295	24.69
846.467	24.59
846.639	25.22
846.811	26.95
846.983	26.73
847.155	28.52
847.327	30.3
847.499	29.8
847.671	29.04
847.843	27.66
848.015	28.85
848.187	27.46
848.359	25.91
848.531	26.86
848.703	26.35
848.875	27.39
849.047	26.86
849.218	25.37
849.39	26.23
849.562	27.71
849.734	27.33
849.905	26.02
850.077	27.32
850.249	27.45
850.421	26.76
850.592	25.59
850.764	25.34
850.936	24.92
851.107	22.93
851.279	23.1
851.451	22.41
851.622	22.46
851.794	25.69
851.965	25.61
852.137	27.16
852.308	26.18
852.48	27.17
852.651	25.52
852.823	24.48
852.994	25.6
853.166	26.1
853.337	27.46
853.509	29.62
853.68	28.15
853.851	29.44
854.023	27.09
854.194	27
854.365	26.61
854.537	27.42
854.708	27.51
854.879	26.66
855.05	26.36
855.222	25.71
855.393	23.04
855.564	21.9
855.735	20.66
855.906	22.43
856.078	22.04
856.249	22.53
856.42	21.53
856.591	24.36
856.762	26.56
856.933	27.54
857.104	26.64
857.275	28.5
857.446	27.15
857.617	25.15
857.788	25.86
857.959	25.91
858.13	26.3
858.301	25.91
858.472	24.68
858.643	22.82
858.814	22.79
858.985	21.8
859.155	21.31
859.326	24.3
859.497	27.42
859.668	24.65
859.839	25.33
860.009	25.45
860.18	24.65
860.351	24.75
860.522	28.01
860.692	27.85
860.863	27.26
861.034	28.45
861.204	26.45
861.375	23.91
861.546	26.69
861.716	25.42
861.887	23.61
862.057	24.97
862.228	23.98
862.398	19.83
862.569	18.74
862.739	21.87
862.91	21.31
863.08	22.6
863.251	22.14
863.421	17.46
863.592	17.91
863.762	18.72
863.932	19.22
864.103	20.65
864.273	21.49
864.443	23.45
864.614	21.79
864.784	21.59
864.954	21.06
865.125	23.94
865.295	28.77
865.465	30.1
865.635	29.52
865.805	29.63
865.976	27.42
866.146	28.33
866.316	26.76
866.486	25.9
866.656	24.67
866.826	23.7
866.996	20.27
867.166	18.75
867.336	17.96
867.506	19.96
867.676	18.84
867.846	17.33
868.016	18.87
868.186	16.57
868.356	18.11
868.526	18.31
868.696	19.87
868.866	23.26
869.036	25.15
869.206	25.85
869.376	23.62
869.545	24.16
869.715	26.38
869.885	24.58
870.055	26.81
870.224	26.54
870.394	25.02
870.564	26.6
870.734	25.37
870.903	23.34
871.073	22.15
871.243	24.29
871.412	24.06
871.582	24.29
871.751	24.16
871.921	23.99
872.091	22.13
872.26	24.67
872.43	21.99
872.599	21.91
872.769	24.03
872.938	25.62
873.108	24.18
873.277	23.87
873.446	27.43
873.616	27.63
873.785	29.47
873.955	31.8
874.124	30.42
874.293	32.03
874.463	30.04
874.632	29.28
874.801	27.31
874.971	27.84
875.14	29.89
875.309	24.24
875.478	23.59
875.647	24.09
875.817	24.63
875.986	24.51
876.155	23.63
876.324	25.38
876.493	28.17
876.662	27.9
876.831	28.94
877	26.56
877.17	30.34
877.339	32.99
877.508	33.47
877.677	33.78
877.846	32.88
878.015	34.6
878.184	34.94
878.352	32.67
878.521	34.1
878.69	33.5
878.859	34.37
879.028	34.19
879.197	31.33
879.366	30.41
879.534	29.89
879.703	29.52
879.872	28.53
880.041	28.69
880.21	28.83
880.378	28.38
880.547	28.27
880.716	27.92
880.884	27.21
881.053	27.37
881.222	27.34
881.39	27.37
881.559	27.94
881.727	27.51
881.896	27.32
882.065	26.81
882.233	27.1
882.402	26.81
882.57	26.94
882.739	26.82
882.907	26.89
883.076	26.67
883.244	26.46
883.412	25.74
883.581	26.3
883.749	26.29
883.918	26.97
884.086	26.77
884.254	26.62
884.423	26.37
884.591	26.75
884.759	25.15
884.927	25.01
885.096	23.87
885.264	24.3
885.432	22.68
885.6	21.78
885.769	20.41
885.937	19.67
886.105	19.13
886.273	19.2
886.441	18.77
886.609	21.99
886.777	20.57
886.945	20.86
887.113	21.79
887.281	22.39
887.449	23.76
887.617	23.24
887.785	22.87
887.953	23.34
888.121	20.29
888.289	20.96
888.457	20.92
888.625	21.2
888.793	22.65
888.961	19.55
889.129	20.94
889.296	21.75
889.464	22.21
889.632	22.27
889.8	22.78
889.967	26.41
890.135	26.91
