Data from JASIL_2907_Reflection_2.txt Node
Date: Sat Nov 07 20:22:31 EST 2015
User: Geneva
Spectrometer: USB4E03002
Autoset integration time: false
Trigger mode: 4
Integration Time (sec): 1.000000E-1
Scans to average: 10
Electric dark correction enabled: true
Nonlinearity correction enabled: false
Boxcar width: 5
Stray light correction enabled: false
XAxis mode: Wavelengths
Stop averaging: false
Number of Pixels in Spectrum: 3648
>>>>>Begin Spectral Data<<<<<
177.575	188.81
177.794	200.39
178.014	159.14
178.233	162.92
178.452	127.36
178.672	177.82
178.891	-1059.3
179.11	251.48
179.33	181.02
179.549	191.82
179.768	169.93
179.987	141.36
180.207	137.61
180.426	112.53
180.645	108.88
180.864	101.85
181.084	93.85
181.303	91.4
181.522	94.12
181.741	101.99
181.96	91.34
182.179	97.72
182.398	100.18
182.618	93.04
182.837	103.57
183.056	101.31
183.275	100.07
183.494	102.37
183.713	87.21
183.932	92.28
184.151	88.25
184.37	76.29
184.589	62.95
184.808	61.16
185.027	58.91
185.246	61.42
185.465	61.75
185.684	54.57
185.903	60.7
186.122	68.92
186.341	66.76
186.56	62.16
186.779	84.74
186.998	102.57
187.216	104.89
187.435	101.18
187.654	98.01
187.873	103.09
188.092	111.24
188.311	92.35
188.53	79.64
188.748	77.25
188.967	75.56
189.186	72.12
189.405	76.09
189.623	78.12
189.842	87.41
190.061	86.26
190.28	79.43
190.498	79.25
190.717	86.8
190.936	100.49
191.154	89.19
191.373	92.38
191.592	87.97
191.81	81.49
192.029	82.4
192.248	84.35
192.466	83.16
192.685	85.75
192.904	85.47
193.122	74.26
193.341	72.77
193.559	77.25
193.778	78.43
193.996	76.56
194.215	79.68
194.433	75.98
194.652	67.02
194.87	67.39
195.089	71.06
195.307	71.9
195.526	79.17
195.744	70.38
195.963	76
196.181	68.04
196.399	70.33
196.618	69.92
196.836	74.99
197.055	76.06
197.273	73.44
197.491	69.6
197.71	68.06
197.928	67.08
198.146	67.9
198.365	57.48
198.583	55.28
198.801	45.21
199.019	39.78
199.238	27.03
199.456	27.94
199.674	27.58
199.892	33.48
200.111	33.25
200.329	39.55
200.547	43.4
200.765	49.18
200.983	58.64
201.202	69.75
201.42	78.27
201.638	87.01
201.856	81.07
202.074	79.4
202.292	74.09
202.51	76.11
202.728	82.49
202.946	81.6
203.165	80.65
203.383	79.26
203.601	74.17
203.819	64.16
204.037	69.16
204.255	62.07
204.473	59.8
204.691	58.61
204.909	48.56
205.127	45.34
205.345	45.49
205.562	56.71
205.78	51.61
205.998	58.69
206.216	70.38
206.434	67.05
206.652	74.43
206.87	77.99
207.088	77.15
207.306	85.48
207.523	79.86
207.741	80.29
207.959	74.28
208.177	82.47
208.395	70.48
208.612	65.33
208.83	55.48
209.048	54.31
209.266	47.49
209.483	42.35
209.701	35.17
209.919	37.09
210.136	32.49
210.354	32.89
210.572	28.13
210.79	39.18
211.007	46.48
211.225	50.29
211.442	45.22
211.66	53
211.878	60.69
212.095	42.86
212.313	30.65
212.53	34.18
212.748	33.83
212.966	33.53
213.183	21.01
213.401	6.5
213.618	3.28
213.836	12.31
214.053	10.59
214.271	9.3
214.488	29.01
214.705	32.5
214.923	31.37
215.14	28.12
215.358	27.79
215.575	29.16
215.793	36.56
216.01	42.36
216.227	40.94
216.445	41.97
216.662	38.74
216.879	45.98
217.097	46.39
217.314	48.75
217.531	51.4
217.749	53.53
217.966	60.73
218.183	56.91
218.4	52.22
218.618	49.23
218.835	46.31
219.052	54.28
219.269	53.39
219.487	54.2
219.704	51.22
219.921	46.5
220.138	49.84
220.355	39.78
220.572	41.74
220.79	42.12
221.007	40.6
221.224	40.28
221.441	37.65
221.658	37.89
221.875	37.68
222.092	38.21
222.309	38.87
222.526	34.3
222.743	35.68
222.96	35.81
223.177	33.99
223.394	36.7
223.611	38.85
223.828	35.59
224.045	34.89
224.262	32.31
224.479	29.54
224.696	29.98
224.913	29.6
225.13	29.09
225.347	28.22
225.564	27.57
225.781	26.06
225.997	24.03
226.214	23.68
226.431	20.09
226.648	19.9
226.865	19.75
227.082	18.96
227.298	17.5
227.515	17.46
227.732	16.48
227.949	16.1
228.165	15.45
228.382	14.63
228.599	14.1
228.816	14.77
229.032	14.57
229.249	14.63
229.466	14.95
229.682	15.46
229.899	15.39
230.116	16.03
230.332	15.63
230.549	15.97
230.765	17.29
230.982	17.68
231.199	18.41
231.415	18.42
231.632	18.46
231.848	17.77
232.065	17.49
232.281	17.78
232.498	17.59
232.714	18.27
232.931	19.35
233.147	19.54
233.364	19.05
233.58	18.61
233.797	19.37
234.013	19.53
234.23	19.47
234.446	19.48
234.662	18.66
234.879	18.04
235.095	17.25
235.312	16.71
235.528	16.77
235.744	17.29
235.961	17.57
236.177	16.62
236.393	16.57
236.61	17.9
236.826	17.7
237.042	18.98
237.258	20.16
237.475	20.94
237.691	20.79
237.907	19.78
238.123	19.95
238.339	19.81
238.556	20.83
238.772	20.34
238.988	19.25
239.204	19.12
239.42	18.16
239.636	17.22
239.853	16.65
240.069	15.71
240.285	15.72
240.501	14.86
240.717	14.19
240.933	13.38
241.149	13.03
241.365	12.63
241.581	12.72
241.797	12.82
242.013	12.76
242.229	13.12
242.445	13.22
242.661	12.78
242.877	12.86
243.093	13.13
243.309	13.01
243.525	13.14
243.741	13.53
243.957	13.59
244.173	13.23
244.388	13.09
244.604	12.2
244.82	11.96
245.036	11.7
245.252	11.89
245.468	11.81
245.683	11.89
245.899	11.5
246.115	11.36
246.331	11.17
246.547	11.06
246.762	10.92
246.978	11.2
247.194	11.22
247.409	11.43
247.625	11.35
247.841	11.21
248.057	11.19
248.272	11.23
248.488	11.12
248.703	11
248.919	11.53
249.135	11.97
249.35	11.75
249.566	11.86
249.782	11.55
249.997	11.32
250.213	11.39
250.428	11.09
250.644	11.78
250.859	11.96
251.075	12.2
251.29	11.14
251.506	10.83
251.721	10.63
251.937	10.77
252.152	10.99
252.368	10.87
252.583	11.15
252.798	11.82
253.014	11.51
253.229	10.97
253.445	10.48
253.66	11.52
253.875	11.1
254.091	11.95
254.306	11.58
254.521	11.56
254.737	11.78
254.952	11.15
255.167	10.47
255.383	10.22
255.598	10.5
255.813	10.17
256.028	9.87
256.244	9.77
256.459	9.49
256.674	8.97
256.889	8.54
257.104	8.57
257.32	8.91
257.535	8.94
257.75	8.64
257.965	8.9
258.18	9.29
258.395	9.02
258.61	9.17
258.826	8.82
259.041	9.05
259.256	9.1
259.471	8.97
259.686	8.69
259.901	8.65
260.116	8.92
260.331	8.55
260.546	8.42
260.761	8.72
260.976	8.62
261.191	8.82
261.406	8.63
261.621	8.61
261.836	8.84
262.05	8.96
262.265	8.89
262.48	8.26
262.695	8.63
262.91	8.64
263.125	8.58
263.34	8.76
263.555	9.24
263.769	9.28
263.984	9.54
264.199	9.46
264.414	9.57
264.629	9.85
264.843	10.22
265.058	10.34
265.273	9.86
265.488	9.5
265.702	9.24
265.917	8.97
266.132	9.17
266.346	8.97
266.561	8.85
266.776	8.75
266.99	8.45
267.205	8.59
267.42	8.28
267.634	8.33
267.849	8.38
268.063	8.65
268.278	8.64
268.492	8.4
268.707	8.24
268.922	8.54
269.136	8.55
269.351	8.38
269.565	8.38
269.78	8.56
269.994	8.49
270.209	8.58
270.423	8.4
270.637	8.11
270.852	8.01
271.066	8.09
271.281	8
271.495	7.89
271.709	8.23
271.924	8.08
272.138	8.11
272.353	8.15
272.567	8.08
272.781	8.03
272.996	8.24
273.21	8.38
273.424	8.32
273.638	8
273.853	8.23
274.067	7.87
274.281	7.92
274.495	7.86
274.71	7.98
274.924	7.71
275.138	7.76
275.352	7.78
275.566	7.69
275.781	7.7
275.995	7.91
276.209	7.88
276.423	8
276.637	7.79
276.851	7.62
277.065	7.34
277.279	7.33
277.493	7.22
277.707	7.24
277.921	7.25
278.135	7.11
278.349	6.92
278.563	6.96
278.777	7.01
278.991	7.06
279.205	7.12
279.419	7.33
279.633	7.75
279.847	7.84
280.061	7.89
280.275	7.84
280.489	8.03
280.703	8.23
280.917	8.21
281.131	8.31
281.344	8.24
281.558	8.27
281.772	8.21
281.986	7.93
282.2	7.88
282.414	7.6
282.627	7.81
282.841	7.82
283.055	7.77
283.269	7.45
283.482	7.33
283.696	7.31
283.91	7.15
284.123	7.08
284.337	7.29
284.551	7.1
284.764	7.26
284.978	7.07
285.192	6.94
285.405	6.86
285.619	7.02
285.833	7.01
286.046	6.96
286.26	7.07
286.473	7.11
286.687	6.92
286.9	7.24
287.114	7.15
287.327	7.33
287.541	7.39
287.754	7.49
287.968	7.48
288.181	7.67
288.395	7.7
288.608	7.74
288.822	7.7
289.035	7.52
289.248	7.33
289.462	7.53
289.675	7.42
289.889	7.33
290.102	7.26
290.315	7.29
290.529	7.07
290.742	7.24
290.955	7.24
291.169	7.35
291.382	7.38
291.595	7.48
291.808	7.25
292.022	7.06
292.235	7.26
292.448	7.05
292.661	7.02
292.875	6.95
293.088	6.9
293.301	6.71
293.514	6.62
293.727	6.8
293.94	6.92
294.153	6.85
294.367	7.02
294.58	6.86
294.793	7.15
295.006	7.12
295.219	7.28
295.432	7.22
295.645	7.22
295.858	7.2
296.071	7.18
296.284	7.06
296.497	7.13
296.71	7.08
296.923	7.16
297.136	7.1
297.349	7.24
297.562	7.11
297.775	7.12
297.988	7.2
298.201	7.38
298.414	7.57
298.626	7.45
298.839	7.43
299.052	7.68
299.265	7.84
299.478	7.73
299.691	7.66
299.903	7.71
300.116	7.63
300.329	7.72
300.542	7.56
300.755	7.4
300.967	7.48
301.18	7.42
301.393	7.11
301.605	6.99
301.818	7.17
302.031	7.27
302.243	7.28
302.456	7.49
302.669	7.35
302.881	7.59
303.094	7.39
303.307	7.35
303.519	7.34
303.732	7.47
303.944	7.38
304.157	7.28
304.37	7.08
304.582	7
304.795	6.87
305.007	7.13
305.22	7.01
305.432	7.27
305.645	7.41
305.857	7.52
306.069	7.12
306.282	7.14
306.494	7.28
306.707	7.42
306.919	7.46
307.132	7.41
307.344	7.17
307.556	7.16
307.769	7.25
307.981	7.29
308.193	7.22
308.406	7.49
308.618	7.55
308.83	7.25
309.043	7.07
309.255	7.08
309.467	7.14
309.679	7.33
309.892	7.2
310.104	7.04
310.316	6.96
310.528	7.13
310.74	7.25
310.953	7.17
311.165	7.39
311.377	7.39
311.589	7.44
311.801	7.48
312.013	7.44
312.225	7.54
312.437	7.7
312.649	7.86
312.862	7.65
313.074	7.4
313.286	7.51
313.498	7.49
313.71	7.65
313.922	7.77
314.134	7.69
314.346	7.59
314.558	7.8
314.77	8
314.982	8.07
315.193	7.93
315.405	8.18
315.617	8.05
315.829	7.96
316.041	8.09
316.253	7.91
316.465	7.84
316.677	7.78
316.888	7.7
317.1	7.32
317.312	7.19
317.524	7.43
317.736	7.49
317.947	7.59
318.159	7.76
318.371	7.44
318.583	7.43
318.794	7.51
319.006	7.68
319.218	7.6
319.43	7.63
319.641	7.63
319.853	7.94
320.064	8
320.276	7.98
320.488	7.93
320.699	8.11
320.911	8.27
321.123	8.51
321.334	8.56
321.546	8.51
321.757	8.56
321.969	8.63
322.18	8.21
322.392	8.03
322.603	8.07
322.815	7.93
323.026	7.82
323.238	7.55
323.449	7.39
323.661	7.21
323.872	7.41
324.083	7.48
324.295	7.44
324.506	7.57
324.718	7.66
324.929	7.53
325.14	7.87
325.352	8.03
325.563	8.37
325.774	8.33
325.986	8.6
326.197	8.56
326.408	8.43
326.62	8.48
326.831	8.58
327.042	8.59
327.253	8.66
327.464	8.72
327.676	8.76
327.887	8.71
328.098	8.93
328.309	8.73
328.52	8.97
328.732	9.11
328.943	9.31
329.154	9.34
329.365	9.62
329.576	9.75
329.787	9.66
329.998	9.74
330.209	10.07
330.42	9.96
330.631	10.07
330.842	9.94
331.053	10.14
331.264	10.17
331.475	10.37
331.686	9.94
331.897	10.11
332.108	9.99
332.319	9.77
332.53	9.54
332.741	9.83
332.952	10.09
333.163	9.99
333.374	9.85
333.585	9.71
333.795	9.65
334.006	9.84
334.217	9.78
334.428	9.98
334.639	10.25
334.849	10.07
335.06	9.84
335.271	9.79
335.482	9.91
335.692	10.01
335.903	10.1
336.114	10.17
336.325	10.31
336.535	10.43
336.746	10.41
336.957	10.41
337.167	10.51
337.378	10.7
337.589	10.62
337.799	10.45
338.01	10.29
338.22	10.17
338.431	9.89
338.642	9.84
338.852	9.73
339.063	9.41
339.273	9.37
339.484	9.18
339.694	9.15
339.905	9.05
340.115	9.11
340.326	9.32
340.536	9.27
340.746	9.38
340.957	9.33
341.167	9.39
341.378	9.73
341.588	9.6
341.799	9.84
342.009	9.61
342.219	9.56
342.43	9.66
342.64	9.45
342.85	9.4
343.061	9.25
343.271	9.28
343.481	9.2
343.691	8.95
343.902	8.84
344.112	8.61
344.322	8.63
344.532	8.76
344.743	8.58
344.953	8.49
345.163	8.31
345.373	8.37
345.583	8.32
345.793	8.18
346.004	8.29
346.214	8.37
346.424	8.57
346.634	8.59
346.844	8.7
347.054	8.83
347.264	9.04
347.474	9.45
347.684	9.38
347.894	9.38
348.104	9.47
348.314	9.36
348.524	9.36
348.734	9.17
348.944	9.08
349.154	8.89
349.364	8.78
349.574	8.59
349.784	8.36
349.994	8.34
350.204	8.13
350.413	7.98
350.623	8
350.833	7.95
351.043	7.82
351.253	7.9
351.463	7.7
351.672	7.73
351.882	7.77
352.092	7.8
352.302	8.02
352.511	8.21
352.721	8.36
352.931	8.2
353.141	8.22
353.35	8.47
353.56	8.33
353.77	8.49
353.979	8.41
354.189	8.46
354.399	8.4
354.608	8.15
354.818	8.1
355.027	8.03
355.237	8.2
355.447	8.09
355.656	7.99
355.866	8.08
356.075	8.17
356.285	8.2
356.494	8.24
356.704	8.22
356.913	8.3
357.123	8.27
357.332	8.16
357.542	8.1
357.751	8.15
357.96	8.2
358.17	8.07
358.379	7.9
358.589	7.89
358.798	7.66
359.007	7.71
359.217	7.69
359.426	7.66
359.635	7.77
359.845	7.77
360.054	7.82
360.263	7.79
360.472	7.81
360.682	7.85
360.891	7.75
361.1	7.8
361.309	7.76
361.519	7.72
361.728	7.73
361.937	7.69
362.146	7.63
362.355	7.53
362.564	7.47
362.774	7.48
362.983	7.46
363.192	7.6
363.401	7.71
363.61	7.63
363.819	7.68
364.028	7.63
364.237	7.58
364.446	7.54
364.655	7.58
364.864	7.65
365.073	7.69
365.282	7.65
365.491	7.55
365.7	7.49
365.909	7.64
366.118	7.58
366.327	7.58
366.536	7.68
366.745	7.79
366.954	7.86
367.162	7.78
367.371	7.75
367.58	7.75
367.789	7.85
367.998	7.82
368.207	7.75
368.415	7.85
368.624	7.89
368.833	7.6
369.042	7.67
369.25	7.65
369.459	7.68
369.668	7.6
369.877	7.61
370.085	7.48
370.294	7.38
370.503	7.29
370.711	7.22
370.92	7.15
371.129	7.31
371.337	7.13
371.546	7.03
371.754	7.17
371.963	7.16
372.171	7.23
372.38	7.25
372.589	7.36
372.797	7.31
373.006	7.29
373.214	7.28
373.423	7.18
373.631	7.14
373.84	7.13
374.048	6.92
374.256	6.84
374.465	6.75
374.673	6.63
374.882	6.61
375.09	6.66
375.298	6.65
375.507	6.55
375.715	6.63
375.923	6.61
376.132	6.6
376.34	6.64
376.548	6.74
376.757	6.71
376.965	6.74
377.173	6.68
377.381	6.87
377.59	6.86
377.798	6.84
378.006	6.79
378.214	6.81
378.423	6.71
378.631	6.63
378.839	6.63
379.047	6.54
379.255	6.48
379.463	6.49
379.671	6.23
379.879	6.26
380.088	6.38
380.296	6.39
380.504	6.4
380.712	6.51
380.92	6.55
381.128	6.53
381.336	6.46
381.544	6.51
381.752	6.47
381.96	6.55
382.168	6.48
382.376	6.5
382.584	6.54
382.791	6.54
382.999	6.52
383.207	6.46
383.415	6.42
383.623	6.54
383.831	6.53
384.039	6.55
384.247	6.45
384.454	6.41
384.662	6.29
384.87	6.27
385.078	6.21
385.285	6.06
385.493	6.08
385.701	6.03
385.909	5.91
386.116	5.94
386.324	5.92
386.532	5.86
386.739	5.81
386.947	5.82
387.155	5.82
387.362	5.81
387.57	5.95
387.778	5.86
387.985	5.91
388.193	5.98
388.4	5.97
388.608	6.02
388.816	6.07
389.023	6.08
389.231	6.08
389.438	6.04
389.646	5.98
389.853	6
390.061	6.03
390.268	6.02
390.475	5.96
390.683	5.95
390.89	5.82
391.098	5.71
391.305	5.8
391.512	5.77
391.72	5.66
391.927	5.74
392.135	5.69
392.342	5.62
392.549	5.63
392.756	5.67
392.964	5.65
393.171	5.72
393.378	5.86
393.586	5.78
393.793	5.82
394	5.82
394.207	5.81
394.414	5.76
394.622	5.86
394.829	5.81
395.036	5.82
395.243	5.77
395.45	5.67
395.657	5.63
395.864	5.55
396.072	5.49
396.279	5.57
396.486	5.43
396.693	5.44
396.9	5.32
397.107	5.16
397.314	5.2
397.521	5.15
397.728	5.19
397.935	5.15
398.142	5.17
398.349	5.16
398.556	5.07
398.763	5.14
398.97	5.14
399.177	5.23
399.383	5.37
399.59	5.28
399.797	5.28
400.004	5.23
400.211	5.32
400.418	5.33
400.625	5.37
400.831	5.45
401.038	5.42
401.245	5.43
401.452	5.38
401.658	5.31
401.865	5.24
402.072	5.3
402.279	5.37
402.485	5.32
402.692	5.36
402.899	5.3
403.105	5.24
403.312	5.34
403.519	5.35
403.725	5.31
403.932	5.34
404.138	5.4
404.345	5.31
404.552	5.26
404.758	5.24
404.965	5.18
405.171	5.15
405.378	5.13
405.584	5.09
405.791	4.93
405.997	4.99
406.204	5.03
406.41	5.01
406.617	4.98
406.823	5.02
407.029	5.03
407.236	5.06
407.442	5.15
407.649	5.22
407.855	5.15
408.061	5.31
408.268	5.31
408.474	5.22
408.68	5.22
408.887	5.35
409.093	5.31
409.299	5.28
409.505	5.25
409.712	5.18
409.918	5.11
410.124	5.09
410.33	5.02
410.537	4.98
410.743	5.07
410.949	5.04
411.155	5.01
411.361	5
411.567	4.99
411.773	5.01
411.98	5
412.186	5.14
412.392	5.19
412.598	5.23
412.804	5.19
413.01	5.1
413.216	5.13
413.422	5.14
413.628	5.15
413.834	5.09
414.04	5.15
414.246	5.21
414.452	5.12
414.658	5.08
414.864	5.05
415.07	5.09
415.275	5.11
415.481	5.02
415.687	4.99
415.893	4.98
416.099	4.99
416.305	4.89
416.511	4.85
416.716	4.82
416.922	4.77
417.128	4.77
417.334	4.73
417.539	4.7
417.745	4.71
417.951	4.71
418.157	4.69
418.362	4.65
418.568	4.62
418.774	4.58
418.979	4.58
419.185	4.62
419.391	4.59
419.596	4.6
419.802	4.6
420.008	4.6
420.213	4.33
420.419	4.35
420.624	4.32
420.83	4.31
421.035	4.33
421.241	4.31
421.446	4.29
421.652	4.27
421.857	4.26
422.063	4.25
422.268	4.24
422.474	4.5
422.679	4.5
422.885	4.55
423.09	4.56
423.295	4.53
423.501	4.51
423.706	4.51
423.911	4.47
424.117	4.44
424.322	4.44
424.527	4.45
424.733	4.41
424.938	4.41
425.143	4.36
425.349	4.4
425.554	4.42
425.759	4.44
425.964	4.43
426.169	4.48
426.375	4.5
426.58	4.49
426.785	4.47
426.99	4.52
427.195	4.53
427.4	4.57
427.605	4.58
427.811	4.62
428.016	4.67
428.221	4.71
428.426	4.75
428.631	4.75
428.836	4.74
429.041	4.76
429.246	4.72
429.451	4.67
429.656	4.73
429.861	4.66
430.066	4.64
430.271	4.57
430.476	4.54
430.681	4.51
430.886	4.54
431.09	4.53
431.295	4.49
431.5	4.45
431.705	4.41
431.91	4.34
432.115	4.36
432.32	4.32
432.524	4.31
432.729	4.32
432.934	4.29
433.139	4.29
433.343	4.31
433.548	4.37
433.753	4.45
433.958	4.53
434.162	4.57
434.367	4.55
434.572	4.56
434.776	4.57
434.981	4.56
435.186	4.62
435.39	4.6
435.595	4.63
435.799	4.57
436.004	4.57
436.209	4.52
436.413	4.48
436.618	4.47
436.822	4.5
437.027	4.47
437.231	4.48
437.436	4.43
437.64	4.38
437.845	4.34
438.049	4.38
438.253	4.3
438.458	4.29
438.662	4.29
438.867	4.28
439.071	4.25
439.275	4.28
439.48	4.29
439.684	4.28
439.888	4.31
440.093	4.31
440.297	4.29
440.501	4.36
440.706	4.39
440.91	4.4
441.114	4.44
441.318	4.43
441.523	4.45
441.727	4.43
441.931	4.45
442.135	4.45
442.339	4.48
442.543	4.47
442.748	4.42
442.952	4.39
443.156	4.38
443.36	4.4
443.564	4.42
443.768	4.32
443.972	4.28
444.176	4.27
444.38	4.27
444.584	4.24
444.788	4.27
444.992	4.25
445.196	4.24
445.4	4.2
445.604	4.13
445.808	4.11
446.012	4.15
446.216	4.14
446.42	4.18
446.624	4.2
446.828	4.19
447.032	4.14
447.235	4.14
447.439	4.15
447.643	4.21
447.847	4.29
448.051	4.34
448.254	4.35
448.458	4.4
448.662	4.39
448.866	4.34
449.069	4.31
449.273	4.35
449.477	4.39
449.681	4.39
449.884	4.32
450.088	4.28
450.292	4.21
450.495	4.2
450.699	4.26
450.902	4.23
451.106	4.27
451.31	4.32
451.513	4.25
451.717	4.24
451.92	4.25
452.124	4.26
452.327	4.26
452.531	4.29
452.734	4.31
452.938	4.23
453.141	4.26
453.345	4.23
453.548	4.24
453.752	4.31
453.955	4.31
454.158	4.34
454.362	4.39
454.565	4.41
454.769	4.42
454.972	4.48
455.175	4.47
455.379	4.45
455.582	4.39
455.785	4.38
455.988	4.32
456.192	4.3
456.395	4.22
456.598	4.2
456.801	4.15
457.005	4.09
457.208	4.04
457.411	4.07
457.614	4.03
457.817	4.06
458.021	4.06
458.224	4.07
458.427	4.04
458.63	4.06
458.833	4.05
459.036	4.02
459.239	4.03
459.442	4
459.645	3.99
459.848	4.04
460.051	4.04
460.254	4.09
460.457	4.09
460.66	4.14
460.863	4.17
461.066	4.16
461.269	4.16
461.472	4.22
461.675	4.22
461.878	4.23
462.081	4.18
462.284	4.21
462.486	4.17
462.689	4.2
462.892	4.16
463.095	4.19
463.298	4.22
463.5	4.25
463.703	4.22
463.906	4.26
464.109	4.3
464.311	4.29
464.514	4.32
464.717	4.31
464.92	4.3
465.122	4.32
465.325	4.27
465.528	4.28
465.73	4.31
465.933	4.28
466.135	4.18
466.338	4.16
466.541	4.17
466.743	4.09
466.946	4.09
467.148	4.08
467.351	4.09
467.553	4.13
467.756	4.1
467.958	4.07
468.161	4.08
468.363	4.15
468.566	4.11
468.768	4.08
468.971	4.15
469.173	4.18
469.375	4.17
469.578	4.06
469.78	4.06
469.983	4.04
470.185	4.05
470.387	4.03
470.59	4.04
470.792	4.08
470.994	4.1
471.196	4.11
471.399	4.06
471.601	4.05
471.803	4.11
472.005	4.1
472.208	4.16
472.41	4.17
472.612	4.2
472.814	4.22
473.016	4.25
473.218	4.3
473.421	4.25
473.623	4.28
473.825	4.34
474.027	4.37
474.229	4.34
474.431	4.3
474.633	4.31
474.835	4.31
475.037	4.3
475.239	4.27
475.441	4.22
475.643	4.24
475.845	4.21
476.047	4.19
476.249	4.15
476.451	4.15
476.653	4.14
476.855	4.14
477.057	4.11
477.258	4.1
477.46	4.12
477.662	4.11
477.864	4.13
478.066	4.14
478.268	4.14
478.469	4.13
478.671	4.15
478.873	4.13
479.075	4.11
479.276	4.13
479.478	4.18
479.68	4.11
479.882	4.13
480.083	4.11
480.285	4.09
480.487	4.08
480.688	4.11
480.89	4.13
481.091	4.08
481.293	4.09
481.495	4.08
481.696	4.04
481.898	4.04
482.099	4
482.301	3.96
482.502	3.95
482.704	3.91
482.905	3.88
483.107	3.84
483.308	3.85
483.51	3.84
483.711	3.84
483.913	3.85
484.114	3.84
484.315	3.87
484.517	3.89
484.718	3.91
484.92	3.94
485.121	3.96
485.322	3.97
485.524	3.97
485.725	3.98
485.926	3.97
486.127	3.93
486.329	3.93
486.53	3.91
486.731	3.88
486.932	3.87
487.134	3.85
487.335	3.85
487.536	3.87
487.737	3.87
487.938	3.88
488.139	3.89
488.341	3.91
488.542	3.94
488.743	3.94
488.944	3.97
489.145	3.98
489.346	4
489.547	4
489.748	3.98
489.949	3.98
490.15	3.97
490.351	3.94
490.552	3.94
490.753	3.91
490.954	3.9
491.155	3.9
491.356	3.9
491.557	3.9
491.758	3.9
491.959	3.92
492.159	3.94
492.36	3.95
492.561	3.97
492.762	3.98
492.963	4
493.164	4.04
493.364	4.06
493.565	4.09
493.766	4.09
493.967	4.13
494.167	4.15
494.368	4.15
494.569	4.11
494.769	4.11
494.97	4.13
495.171	4.14
495.371	4.11
495.572	4.09
495.773	4.07
495.973	4.07
496.174	4.09
496.375	4.08
496.575	4.07
496.776	4.13
496.976	4.14
497.177	4.1
497.377	4.11
497.578	4.12
497.778	4.14
497.979	4.12
498.179	4.15
498.38	4.12
498.58	4.14
498.78	4.17
498.981	4.16
499.181	4.19
499.382	4.22
499.582	4.2
499.782	4.24
499.983	4.3
500.183	4.33
500.383	4.34
500.584	4.34
500.784	4.34
500.984	4.33
501.184	4.32
501.385	4.32
501.585	4.34
501.785	4.37
501.985	4.38
502.185	4.34
502.386	4.38
502.586	4.37
502.786	4.4
502.986	4.41
503.186	4.48
503.386	4.52
503.586	4.56
503.786	4.57
503.987	4.62
504.187	4.61
504.387	4.59
504.587	4.54
504.787	4.52
504.987	4.51
505.187	4.53
505.387	4.44
505.587	4.48
505.786	4.47
505.986	4.5
506.186	4.46
506.386	4.49
506.586	4.47
506.786	4.5
506.986	4.49
507.186	4.51
507.386	4.5
507.585	4.55
507.785	4.52
507.985	4.5
508.185	4.5
508.384	4.49
508.584	4.47
508.784	4.5
508.984	4.51
509.183	4.57
509.383	4.54
509.583	4.51
509.782	4.52
509.982	4.53
510.182	4.55
510.381	4.57
510.581	4.62
510.781	4.65
510.98	4.72
511.18	4.75
511.379	4.71
511.579	4.81
511.778	4.85
511.978	4.88
512.177	4.9
512.377	4.89
512.576	4.92
512.776	4.96
512.975	5.01
513.175	4.97
513.374	5
513.573	5.08
513.773	5.04
513.972	5.08
514.172	5.13
514.371	5.14
514.57	5.22
514.77	5.26
514.969	5.25
515.168	5.28
515.367	5.28
515.567	5.27
515.766	5.24
515.965	5.26
516.164	5.31
516.364	5.3
516.563	5.35
516.762	5.33
516.961	5.34
517.16	5.38
517.359	5.34
517.559	5.35
517.758	5.37
517.957	5.42
518.156	5.47
518.355	5.46
518.554	5.49
518.753	5.51
518.952	5.54
519.151	5.56
519.35	5.57
519.549	5.63
519.748	5.69
519.947	5.72
520.146	5.78
520.345	5.79
520.544	5.85
520.743	5.87
520.942	5.88
521.141	5.93
521.339	5.94
521.538	5.96
521.737	5.99
521.936	5.99
522.135	6.04
522.333	6.04
522.532	6.08
522.731	6.1
522.93	6.14
523.129	6.17
523.327	6.2
523.526	6.24
523.725	6.28
523.923	6.33
524.122	6.38
524.321	6.39
524.519	6.42
524.718	6.44
524.917	6.46
525.115	6.51
525.314	6.54
525.512	6.56
525.711	6.61
525.909	6.63
526.108	6.66
526.306	6.68
526.505	6.72
526.703	6.73
526.902	6.77
527.1	6.78
527.299	6.78
527.497	6.79
527.696	6.81
527.894	6.81
528.092	6.82
528.291	6.83
528.489	6.86
528.688	6.88
528.886	6.92
529.084	6.94
529.283	6.98
529.481	7.03
529.679	7.08
529.877	7.15
530.076	7.21
530.274	7.26
530.472	7.31
530.67	7.36
530.869	7.4
531.067	7.44
531.265	7.47
531.463	7.51
531.661	7.53
531.859	7.55
532.057	7.57
532.255	7.58
532.454	7.6
532.652	7.64
532.85	7.66
533.048	7.71
533.246	7.73
533.444	7.79
533.642	7.8
533.84	7.84
534.038	7.88
534.236	7.93
534.434	7.99
534.632	8.04
534.83	8.08
535.027	8.12
535.225	8.12
535.423	8.15
535.621	8.16
535.819	8.19
536.017	8.21
536.215	8.24
536.412	8.25
536.61	8.27
536.808	8.28
537.006	8.29
537.203	8.32
537.401	8.36
537.599	8.4
537.797	8.45
537.994	8.47
538.192	8.5
538.39	8.57
538.587	8.56
538.785	8.57
538.983	8.6
539.18	8.64
539.378	8.66
539.575	8.69
539.773	8.67
539.97	8.66
540.168	8.71
540.366	8.73
540.563	8.74
540.761	8.79
540.958	8.83
541.155	8.85
541.353	8.86
541.55	8.9
541.748	8.9
541.945	8.94
542.143	8.98
542.34	9.02
542.537	9.03
542.735	9.04
542.932	9.05
543.129	9.05
543.327	9.11
543.524	9.16
543.721	9.17
543.919	9.24
544.116	9.28
544.313	9.35
544.51	9.36
544.708	9.41
544.905	9.45
545.102	9.53
545.299	9.56
545.496	9.57
545.693	9.56
545.891	9.61
546.088	9.62
546.285	9.65
546.482	9.65
546.679	9.66
546.876	9.68
547.073	9.74
547.27	9.74
547.467	9.82
547.664	9.86
547.861	9.9
548.058	9.95
548.255	10.02
548.452	10.11
548.649	10.17
548.846	10.25
549.043	10.26
549.24	10.21
549.437	10.23
549.633	10.22
549.83	10.26
550.027	10.31
550.224	10.34
550.421	10.27
550.618	10.21
550.814	10.22
551.011	10.19
551.208	10.23
551.405	10.24
551.601	10.26
551.798	10.29
551.995	10.29
552.191	10.29
552.388	10.24
552.585	10.32
552.781	10.37
552.978	10.45
553.175	10.51
553.371	10.54
553.568	10.64
553.764	10.69
553.961	10.71
554.157	10.76
554.354	10.79
554.55	10.83
554.747	10.86
554.943	10.9
555.14	10.84
555.336	10.82
555.533	10.87
555.729	10.9
555.926	10.92
556.122	10.94
556.318	10.96
556.515	10.99
556.711	11
556.907	10.99
557.104	11.02
557.3	11.04
557.496	11.07
557.693	11.03
557.889	11.02
558.085	11.03
558.281	11.11
558.478	11.15
558.674	11.19
558.87	11.26
559.066	11.29
559.262	11.27
559.459	11.33
559.655	11.38
559.851	11.4
560.047	11.47
560.243	11.5
560.439	11.45
560.635	11.41
560.831	11.45
561.027	11.47
561.223	11.49
561.419	11.51
561.615	11.51
561.811	11.52
562.007	11.55
562.203	11.54
562.399	11.57
562.595	11.59
562.791	11.69
562.987	11.64
563.183	11.62
563.379	11.65
563.575	11.69
563.771	11.73
563.966	11.73
564.162	11.78
564.358	11.75
564.554	11.71
564.75	11.69
564.945	11.7
565.141	11.78
565.337	11.8
565.533	11.8
565.728	11.83
565.924	11.85
566.12	11.83
566.315	11.82
566.511	11.82
566.707	11.82
566.902	11.92
567.098	11.95
567.293	11.93
567.489	11.93
567.684	11.96
567.88	11.96
568.076	11.98
568.271	12.04
568.467	12.05
568.662	12.06
568.858	12.09
569.053	12.01
569.248	11.97
569.444	11.93
569.639	11.96
569.835	11.93
570.03	11.95
570.225	11.92
570.421	11.94
570.616	11.96
570.812	12.01
571.007	12
571.202	12.02
571.397	12.03
571.593	12.05
571.788	12.04
571.983	12.05
572.178	12.01
572.374	12.08
572.569	12.03
572.764	11.99
572.959	11.98
573.154	12
573.35	12.02
573.545	12.06
573.74	12.1
573.935	12.11
574.13	12.14
574.325	12.15
574.52	12.1
574.715	12.15
574.91	12.16
575.105	12.18
575.3	12.21
575.495	12.18
575.69	12.14
575.885	12.17
576.08	12.22
576.275	12.24
576.47	12.29
576.665	12.34
576.86	12.31
577.055	12.35
577.25	12.36
577.444	12.39
577.639	12.54
577.834	12.55
578.029	12.55
578.224	12.51
578.418	12.55
578.613	12.56
578.808	12.47
579.003	12.47
579.197	12.51
579.392	12.51
579.587	12.48
579.781	12.34
579.976	12.42
580.171	12.39
580.365	12.41
580.56	12.38
580.755	12.43
580.949	12.47
581.144	12.51
581.338	12.45
581.533	12.49
581.727	12.52
581.922	12.59
582.116	12.49
582.311	12.49
582.505	12.48
582.7	12.46
582.894	12.44
583.089	12.43
583.283	12.44
583.478	12.47
583.672	12.43
583.866	12.47
584.061	12.48
584.255	12.59
584.449	12.58
584.644	12.62
584.838	12.7
585.032	12.76
585.226	12.77
585.421	12.78
585.615	12.82
585.809	12.87
586.003	12.83
586.198	12.82
586.392	12.73
586.586	12.8
586.78	12.81
586.974	12.84
587.168	12.71
587.363	12.73
587.557	12.76
587.751	12.78
587.945	12.79
588.139	12.86
588.333	12.9
588.527	13
588.721	13
588.915	12.97
589.109	12.93
589.303	13.02
589.497	13.01
589.691	12.98
589.885	12.97
590.079	12.94
590.273	12.91
590.466	12.9
590.66	12.86
590.854	12.83
591.048	12.83
591.242	12.81
591.436	12.72
591.629	12.76
591.823	12.81
592.017	12.82
592.211	12.81
592.404	12.74
592.598	12.69
592.792	12.68
592.986	12.72
593.179	12.76
593.373	12.83
593.567	12.88
593.76	12.89
593.954	12.93
594.147	12.94
594.341	12.95
594.535	12.98
594.728	13.02
594.922	13.05
595.115	13.07
595.309	13.03
595.502	13.01
595.696	13.01
595.889	13.01
596.083	12.96
596.276	12.95
596.47	12.98
596.663	13
596.856	13.01
597.05	13.06
597.243	13
597.437	13.03
597.63	13.01
597.823	13.07
598.017	13.03
598.21	13.05
598.403	13.07
598.596	13.09
598.79	13.05
598.983	13.04
599.176	12.99
599.369	13.07
599.563	13.15
599.756	13.18
599.949	13.15
600.142	13.21
600.335	13.16
600.528	13.18
600.722	13.18
600.915	13.35
601.108	13.35
601.301	13.36
601.494	13.41
601.687	13.35
601.88	13.34
602.073	13.27
602.266	13.22
602.459	13.23
602.652	13.2
602.845	13.23
603.038	13.11
603.231	13.14
603.424	13.07
603.617	12.99
603.809	12.97
604.002	13
604.195	13.09
604.388	13.11
604.581	13.11
604.774	13.16
604.966	13.05
605.159	13.13
605.352	13.1
605.545	13.18
605.737	13.21
605.93	13.25
606.123	13.22
606.316	13.25
606.508	13.28
606.701	13.36
606.894	13.29
607.086	13.44
607.279	13.37
607.471	13.37
607.664	13.31
607.857	13.33
608.049	13.38
608.242	13.42
608.434	13.33
608.627	13.31
608.819	13.3
609.012	13.35
609.204	13.32
609.397	13.38
609.589	13.42
609.782	13.52
609.974	13.61
610.166	13.64
610.359	13.66
610.551	13.71
610.743	13.73
610.936	13.81
611.128	13.76
611.32	13.72
611.513	13.67
611.705	13.66
611.897	13.61
612.09	13.55
612.282	13.48
612.474	13.45
612.666	13.44
612.858	13.46
613.051	13.38
613.243	13.4
613.435	13.5
613.627	13.51
613.819	13.59
614.011	13.66
614.203	13.61
614.395	13.62
614.588	13.56
614.78	13.55
614.972	13.6
615.164	13.57
615.356	13.58
615.548	13.49
615.74	13.55
615.932	13.48
616.124	13.41
616.315	13.49
616.507	13.52
616.699	13.58
616.891	13.61
617.083	13.59
617.275	13.6
617.467	13.6
617.659	13.76
617.85	13.75
618.042	13.71
618.234	13.73
618.426	13.73
618.618	13.79
618.809	13.73
619.001	13.69
619.193	13.7
619.384	13.76
619.576	13.84
619.768	13.8
619.959	13.75
620.151	13.83
620.343	13.83
620.534	13.81
620.726	13.79
620.917	13.84
621.109	13.85
621.301	13.84
621.492	13.81
621.684	13.82
621.875	13.76
622.067	13.84
622.258	13.83
622.45	13.85
622.641	13.85
622.832	13.79
623.024	13.69
623.215	13.74
623.407	13.69
623.598	13.67
623.789	13.64
623.981	13.65
624.172	13.62
624.363	13.61
624.555	13.57
624.746	13.54
624.937	13.56
625.129	13.67
625.32	13.67
625.511	13.69
625.702	13.68
625.893	13.73
626.085	13.74
626.276	13.68
626.467	13.7
626.658	13.74
626.849	13.77
627.04	13.76
627.231	13.79
627.422	13.76
627.614	13.8
627.805	13.88
627.996	13.85
628.187	13.81
628.378	13.83
628.569	13.84
628.76	13.86
628.951	13.85
629.142	13.82
629.332	13.8
629.523	13.81
629.714	13.79
629.905	13.78
630.096	13.76
630.287	13.82
630.478	13.85
630.669	13.83
630.859	13.75
631.05	13.74
631.241	13.79
631.432	13.79
631.623	13.81
631.813	13.89
632.004	13.85
632.195	13.82
632.385	13.78
632.576	13.85
632.767	13.87
632.957	13.83
633.148	13.85
633.339	13.83
633.529	13.81
633.72	13.76
633.91	13.73
634.101	13.65
634.292	13.68
634.482	13.68
634.673	13.72
634.863	13.67
635.054	13.8
635.244	13.75
635.435	13.82
635.625	13.8
635.815	13.81
636.006	13.76
636.196	13.8
636.387	13.81
636.577	13.89
636.767	13.78
636.958	13.82
637.148	13.85
637.338	13.92
637.529	13.89
637.719	13.93
637.909	14.03
638.099	14.1
638.29	14.16
638.48	14.14
638.67	14.1
638.86	14.08
639.05	14.12
639.241	13.97
639.431	13.96
639.621	13.9
639.811	13.94
640.001	13.84
640.191	13.75
640.381	13.71
640.571	13.69
640.761	13.67
640.951	13.72
641.141	13.77
641.331	13.87
641.521	13.88
641.711	13.93
641.901	13.83
642.091	13.82
642.281	13.83
642.471	13.91
642.661	13.94
642.851	14.01
643.041	14.01
643.231	13.95
643.42	13.97
643.61	13.97
643.8	14.02
643.99	13.99
644.18	14
644.369	14.08
644.559	14.01
644.749	13.99
644.939	13.98
645.128	13.96
645.318	13.95
645.508	13.88
645.697	13.84
645.887	13.85
646.076	13.94
646.266	13.95
646.456	13.93
646.645	13.94
646.835	13.91
647.024	13.89
647.214	13.93
647.403	13.91
647.593	13.89
647.782	13.89
647.972	13.85
648.161	13.91
648.351	14.03
648.54	14.04
648.73	14.05
648.919	14.13
649.108	13.99
649.298	14
649.487	14.01
649.677	14.05
649.866	14.11
650.055	14.09
650.244	13.98
650.434	14.03
650.623	13.98
650.812	13.96
651.002	13.9
651.191	14
651.38	14.05
651.569	14.03
651.758	13.96
651.947	14.04
652.137	14.18
652.326	14.2
652.515	14.03
652.704	14.08
652.893	14.06
653.082	14.14
653.271	14.14
653.46	14.08
653.649	14.17
653.838	14.25
654.027	14.18
654.216	14.02
654.405	14.03
654.594	14.09
654.783	14.11
654.972	14.11
655.161	14.15
655.35	14.08
655.539	14.06
655.728	14.06
655.916	14.01
656.105	14.02
656.294	14.04
656.483	14.12
656.672	14.13
656.86	14.04
657.049	14.09
657.238	14.02
657.427	14.1
657.615	14.07
657.804	14.13
657.993	14.09
658.181	14.05
658.37	14.15
658.559	14.08
658.747	14.07
658.936	14.13
659.125	14.1
659.313	14.08
659.502	14.13
659.69	14.16
659.879	14.08
660.067	14.12
660.256	14.15
660.444	14.08
660.633	14.13
660.821	14.18
661.01	14.19
661.198	14.27
661.387	14.31
661.575	14.24
661.763	14.37
661.952	14.36
662.14	14.43
662.328	14.48
662.517	14.41
662.705	14.35
662.893	14.35
663.082	14.5
663.27	14.4
663.458	14.49
663.646	14.58
663.834	14.52
664.023	14.58
664.211	14.55
664.399	14.53
664.587	14.56
664.775	14.55
664.963	14.47
665.152	14.38
665.34	14.52
665.528	14.41
665.716	14.4
665.904	14.36
666.092	14.23
666.28	14.23
666.468	14.24
666.656	14.24
666.844	14.36
667.032	14.31
667.22	14.31
667.408	14.23
667.596	14.38
667.784	14.39
667.971	14.31
668.159	14.4
668.347	14.39
668.535	14.36
668.723	14.3
668.911	14.22
669.098	14.27
669.286	14.29
669.474	14.29
669.662	14.13
669.849	14.12
670.037	14.13
670.225	14.06
670.413	14.02
670.6	13.95
670.788	14.01
670.976	13.93
671.163	13.96
671.351	13.91
671.538	13.87
671.726	14
671.913	13.99
672.101	14.02
672.289	14.04
672.476	14.08
672.664	14.24
672.851	14.34
673.039	14.42
673.226	14.37
673.413	14.39
673.601	14.47
673.788	14.32
673.976	14.28
674.163	14.29
674.35	14.44
674.538	14.41
674.725	14.31
674.912	14.19
675.1	14.22
675.287	14.4
675.474	14.36
675.662	14.36
675.849	14.4
676.036	14.29
676.223	14.33
676.411	14.19
676.598	14.17
676.785	14.24
676.972	14.27
677.159	14.24
677.346	13.94
677.533	13.96
677.721	14
677.908	14.03
678.095	14.12
678.282	14.08
678.469	14.09
678.656	14.22
678.843	14.13
679.03	14.26
679.217	14.35
679.404	14.52
679.591	14.47
679.778	14.5
679.964	14.51
680.151	14.58
680.338	14.72
680.525	14.73
680.712	14.74
680.899	14.87
681.086	14.77
681.272	14.76
681.459	14.78
681.646	14.86
681.833	14.75
682.02	14.74
682.206	14.78
682.393	14.75
682.58	14.74
682.766	14.73
682.953	14.74
683.14	14.73
683.326	14.74
683.513	14.78
683.7	14.78
683.886	14.75
684.073	14.68
684.259	14.58
684.446	14.59
684.632	14.57
684.819	14.57
685.005	14.46
685.192	14.52
685.378	14.4
685.565	14.38
685.751	14.34
685.938	14.35
686.124	14.53
686.31	14.57
686.497	14.44
686.683	14.44
686.87	14.37
687.056	14.42
687.242	14.35
687.429	14.4
687.615	14.46
687.801	14.56
687.987	14.67
688.174	14.58
688.36	14.54
688.546	14.65
688.732	14.7
688.918	14.59
689.105	14.72
689.291	14.66
689.477	14.77
689.663	14.78
689.849	14.64
690.035	14.56
690.221	14.58
690.407	14.73
690.593	14.7
690.779	14.67
690.965	14.83
691.151	14.72
691.337	14.9
691.523	14.98
691.709	15.05
691.895	15.19
692.081	15.28
692.267	15.43
692.453	15.27
692.639	15.43
692.825	15.53
693.011	15.57
693.196	15.58
693.382	15.35
693.568	15.22
693.754	15.16
693.94	15.02
694.125	14.96
694.311	14.85
694.497	14.92
694.682	14.76
694.868	14.71
695.054	14.69
695.239	14.68
695.425	14.75
695.611	14.87
695.796	14.7
695.982	14.65
696.168	14.62
696.353	14.51
696.539	14.58
696.724	14.53
696.91	14.56
697.095	14.59
697.281	14.58
697.466	14.59
697.652	14.51
697.837	14.59
698.023	14.63
698.208	14.65
698.393	14.8
698.579	14.65
698.764	14.64
698.949	14.61
699.135	14.52
699.32	14.47
699.505	14.47
699.691	14.39
699.876	14.26
700.061	14.39
700.246	14.47
700.432	14.29
700.617	14.25
700.802	14.19
700.987	14.3
701.172	14.41
701.358	14.35
701.543	14.54
701.728	14.61
701.913	14.91
702.098	14.83
702.283	14.83
702.468	14.83
702.653	14.99
702.838	15.25
703.023	15.16
703.208	15.16
703.393	15.25
703.578	15.1
703.763	15.1
703.948	14.95
704.133	15.06
704.318	15.12
704.503	15.3
704.688	15.49
704.873	15.32
705.057	15.27
705.242	15.27
705.427	15.2
705.612	15.18
705.797	15.26
705.981	15.25
706.166	15.28
706.351	15
706.536	14.93
706.72	14.73
706.905	14.77
707.09	14.82
707.274	14.89
707.459	14.97
707.644	15.1
707.828	14.95
708.013	15.03
708.197	14.92
708.382	15.16
708.567	15.16
708.751	15.25
708.936	15.15
709.12	15.09
709.305	14.95
709.489	15.02
709.673	15.04
709.858	15.17
710.042	15.19
710.227	15.25
710.411	15.31
710.596	15.28
710.78	15.29
710.964	15.41
711.149	15.44
711.333	15.46
711.517	15.31
711.702	15.4
711.886	15.28
712.07	15.26
712.254	15.23
712.438	15.12
712.623	15.21
712.807	15.14
712.991	15.12
713.175	15.12
713.359	15.09
713.544	15.17
713.728	15.04
713.912	15.2
714.096	15.16
714.28	15.18
714.464	15.2
714.648	15.14
714.832	15.32
715.016	15.46
715.2	15.44
715.384	15.64
715.568	15.66
715.752	15.52
715.936	15.56
716.12	15.61
716.304	15.64
716.488	15.51
716.671	15.67
716.855	15.6
717.039	15.59
717.223	15.6
717.407	15.46
717.59	15.55
717.774	15.63
717.958	15.54
718.142	15.37
718.325	15.17
718.509	15.37
718.693	15.25
718.877	15.15
719.06	14.97
719.244	14.96
719.428	15.06
719.611	15.04
719.795	15.16
719.978	15.33
720.162	15.48
720.345	15.76
720.529	15.72
720.713	15.79
720.896	15.75
721.08	15.85
721.263	16.01
721.446	15.99
721.63	15.96
721.813	15.85
721.997	15.86
722.18	15.82
722.364	15.67
722.547	15.73
722.73	15.4
722.914	15.36
723.097	15.43
723.28	15.56
723.464	15.57
723.647	15.65
723.83	15.83
724.013	15.68
724.197	15.7
724.38	15.87
724.563	15.84
724.746	15.99
724.929	16.25
725.112	16.41
725.296	16.28
725.479	16.07
725.662	15.95
725.845	15.75
726.028	15.61
726.211	15.62
726.394	15.48
726.577	15.28
726.76	15.25
726.943	15.16
727.126	14.95
727.309	14.87
727.492	15.01
727.675	15.03
727.858	15.08
728.041	15.29
728.224	15.45
728.407	15.43
728.589	15.57
728.772	15.65
728.955	15.73
729.138	15.66
729.321	15.49
729.503	15.62
729.686	15.71
729.869	15.77
730.052	15.71
730.234	15.45
730.417	15.37
730.6	15.39
730.782	15.28
730.965	15.15
731.148	15.23
731.33	15.39
731.513	15.36
731.695	15.23
731.878	15.14
732.061	14.91
732.243	15.05
732.426	15.06
732.608	15.03
732.791	15.09
732.973	15.03
733.156	15.1
733.338	15.09
733.52	15.07
733.703	15.17
733.885	15.39
734.068	15.56
734.25	15.58
734.432	15.65
734.615	15.68
734.797	15.56
734.979	15.44
735.162	15.3
735.344	15.58
735.526	15.75
735.708	15.45
735.891	15.47
736.073	15.59
736.255	15.63
736.437	15.67
736.619	15.65
736.802	15.94
736.984	16.04
737.166	16.2
737.348	16.05
737.53	15.98
737.712	16.15
737.894	16.04
738.076	15.96
738.258	15.96
738.44	15.81
738.622	15.85
738.804	15.69
738.986	15.78
739.168	15.67
739.35	15.7
739.532	15.54
739.714	15.73
739.896	15.55
740.078	15.66
740.259	15.72
740.441	16
740.623	16.2
740.805	16.3
740.987	16.26
741.168	16.11
741.35	16.1
741.532	16.2
741.714	16.37
741.895	16.73
742.077	16.62
742.259	16.45
742.44	16.11
742.622	16.14
742.804	15.96
742.985	16.07
743.167	16.15
743.348	16.02
743.53	15.78
743.711	15.57
743.893	15.62
744.075	15.17
744.256	15.2
744.438	15.26
744.619	15.25
744.8	15.64
744.982	15.63
745.163	15.49
745.345	15.64
745.526	15.87
745.707	16.05
745.889	15.68
746.07	16.02
746.252	16.27
746.433	16.35
746.614	16.27
746.795	15.67
746.977	15.74
747.158	16.1
747.339	16.2
747.52	16.08
747.702	15.8
747.883	16
748.064	16.17
748.245	15.87
748.426	15.91
748.607	15.95
748.788	16.23
748.97	16.12
749.151	15.76
749.332	15.51
749.513	15.43
749.694	15.79
749.875	15.72
750.056	15.7
750.237	15.6
750.418	15.56
750.599	15.42
750.78	15.64
750.96	15.82
751.141	16.02
751.322	15.86
751.503	16.02
751.684	15.79
751.865	15.58
752.046	15.54
752.226	15.92
752.407	16.17
752.588	16.39
752.769	16.51
752.949	16.38
753.13	16.61
753.311	16.79
753.492	16.64
753.672	17.04
753.853	17.49
754.034	17.54
754.214	17.41
754.395	17.01
754.575	16.67
754.756	16.3
754.937	16.25
755.117	16.04
755.298	16.34
755.478	16.37
755.659	15.9
755.839	15.5
756.02	15.63
756.2	15.6
756.381	15.59
756.561	15.71
756.741	15.88
756.922	16.13
757.102	16.19
757.283	16.06
757.463	16.12
757.643	16.11
757.823	16.1
758.004	15.62
758.184	15.55
758.364	15.93
758.545	15.99
758.725	16.07
758.905	15.89
759.085	16.14
759.265	16.13
759.446	16.2
759.626	16.36
759.806	16.47
759.986	16.92
760.166	17.28
760.346	17.36
760.526	17.37
760.706	17.34
760.886	17.4
761.066	17.28
761.246	17.02
761.426	17.22
761.606	17.01
761.786	16.88
761.966	16.78
762.146	16.63
762.326	16.69
762.506	16.65
762.686	16.7
762.866	16.49
763.046	16.42
763.225	16.55
763.405	16.3
763.585	16.38
763.765	16.35
763.945	16.2
764.124	16.19
764.304	16.14
764.484	16
764.664	15.75
764.843	15.89
765.023	15.82
765.203	15.79
765.382	15.93
765.562	15.92
765.741	15.86
765.921	16.3
766.101	16.19
766.28	16.25
766.46	16.55
766.639	16.75
766.819	16.89
766.998	16.86
767.178	16.71
767.357	16.57
767.537	16.43
767.716	17.02
767.896	16.6
768.075	16.7
768.254	16.25
768.434	16.15
768.613	16.36
768.792	16.21
768.972	16.43
769.151	16.49
769.33	16.24
769.51	16.82
769.689	16.51
769.868	16.78
770.047	17.01
770.226	17.11
770.406	16.87
770.585	16.81
770.764	16.8
770.943	16.77
771.122	16.83
771.301	17.78
771.48	17.52
771.66	17.65
771.839	17.57
772.018	17.23
772.197	17.07
772.376	17.06
772.555	17.26
772.734	16.97
772.913	17.12
773.092	17.14
773.271	16.06
773.449	16.03
773.628	16.25
773.807	16.32
773.986	16.42
774.165	16.43
774.344	16.82
774.523	16.29
774.701	16.69
774.88	16.57
775.059	16.38
775.238	17.24
775.417	17.14
775.595	16.87
775.774	16.59
775.953	16.41
776.131	16.64
776.31	16.29
776.489	16.42
776.667	16.48
776.846	16.11
777.025	16.36
777.203	15.91
777.382	16.12
777.56	15.93
777.739	16.23
777.917	16.29
778.096	16.19
778.274	16.63
778.453	16.7
778.631	16.66
778.81	16.96
778.988	17.1
779.166	16.98
779.345	16.85
779.523	17.15
779.702	17.36
779.88	17.68
780.058	17.8
780.237	17.61
780.415	17.87
780.593	17.42
780.771	17.88
780.95	18.15
781.128	18.55
781.306	18.68
781.484	18.67
781.662	18
781.841	18.23
782.019	18.33
782.197	18.34
782.375	18.3
782.553	18.77
782.731	18.23
782.909	17.92
783.087	18.46
783.265	18.25
783.443	18.39
783.621	18.56
783.799	18.23
783.977	18.02
784.155	18.09
784.333	18.44
784.511	18.02
784.689	17.94
784.867	17.75
785.045	17.12
785.223	16.75
785.4	16.31
785.578	16.34
785.756	16.17
785.934	16.05
786.112	16.07
786.289	15.7
786.467	16.13
786.645	15.95
786.823	16.41
787	16.5
787.178	16.48
787.356	17.14
787.533	17.06
787.711	16.85
787.889	17.26
788.066	17.27
788.244	17.33
788.421	17.49
788.599	17.57
788.776	17.46
788.954	17.07
789.131	17.47
789.309	16.91
789.486	17.14
789.664	17.73
789.841	17.09
790.019	16.74
790.196	16.73
790.373	16.47
790.551	17.12
790.728	16.61
790.906	17.54
791.083	17.05
791.26	17.21
791.437	17.75
791.615	17.47
791.792	17.93
791.969	17.84
792.146	17.66
792.324	18.17
792.501	18.24
792.678	18.66
792.855	17.91
793.032	18.18
793.209	18.64
793.387	17.99
793.564	18.58
793.741	18.88
793.918	19.56
794.095	19.59
794.272	19.14
794.449	18.17
794.626	18.36
794.803	18.75
794.98	18.82
795.157	18.6
795.334	18.49
795.511	18.02
795.688	17.88
795.864	17.59
796.041	17.69
796.218	17.78
796.395	18.14
796.572	18.03
796.749	17.62
796.925	17.44
797.102	17.36
797.279	17.85
797.456	17.85
797.632	17.86
797.809	18.24
797.986	18.04
798.162	18.41
798.339	18.19
798.516	18.27
798.692	18.82
798.869	18.71
799.046	18.16
799.222	18.35
799.399	18
799.575	18.17
799.752	17.87
799.928	18.02
800.105	18
800.281	18.19
800.458	17.71
800.634	17.08
800.811	17.28
800.987	17.41
801.163	16.75
801.34	17.55
801.516	17.24
801.692	17.47
801.869	18.1
802.045	17.84
802.221	18.15
802.398	18.72
802.574	18.78
802.75	19.12
802.926	20.05
803.103	20.45
803.279	20.21
803.455	20.52
803.631	20.1
803.807	19.79
803.983	20.05
804.16	20.13
804.336	19.74
804.512	20.09
804.688	19.9
804.864	19.22
805.04	19.16
805.216	19.13
805.392	19.37
805.568	19.83
805.744	19.86
805.92	19.99
806.096	19.76
806.272	20.23
806.448	19.77
806.623	20.13
806.799	19.88
806.975	19.73
807.151	19.68
807.327	18.44
807.503	17.61
807.678	17.28
807.854	17.32
808.03	17.67
808.206	17.38
808.381	18.22
808.557	18.34
808.733	18.67
808.908	18.11
809.084	18.03
809.26	19.2
809.435	19.98
809.611	20.66
809.787	20.24
809.962	19.67
810.138	19.59
810.313	19.09
810.489	18.8
810.664	18.67
810.84	18.79
811.015	19.54
811.191	18.92
811.366	18.9
811.542	18.62
811.717	18.83
811.892	20.08
812.068	20.48
812.243	20.48
812.419	20.55
812.594	20.72
812.769	21.27
812.944	21.12
813.12	21.08
813.295	21.08
813.47	20.72
813.645	20.72
813.821	19.55
813.996	19.93
814.171	19.83
814.346	19.36
814.521	19.62
814.697	20.34
814.872	20.03
815.047	20.6
815.222	20.69
815.397	20.18
815.572	20.01
815.747	20.17
815.922	19.44
816.097	20.26
816.272	20.92
816.447	20.32
816.622	20.01
816.797	20.17
816.972	19.81
817.147	19.76
817.322	19.5
817.496	19.21
817.671	19.64
817.846	20.25
818.021	19.94
818.196	20.14
818.371	20.43
818.545	19.81
818.72	19.85
818.895	20.14
819.069	19.73
819.244	20.45
819.419	20.53
819.594	20.29
819.768	19.47
819.943	18.65
820.117	18.52
820.292	18.01
820.467	18.21
820.641	17.83
820.816	17.73
820.99	17.72
821.165	17.57
821.339	17.56
821.514	17.48
821.688	17.44
821.863	17.4
822.037	17.17
822.212	17.25
822.386	17.09
822.56	17.16
822.735	17.17
822.909	17.16
823.084	17.17
823.258	17.1
823.432	17.03
823.606	17.14
823.781	17.48
823.955	17.57
824.129	17.47
824.303	17.51
824.478	17.4
824.652	17.23
824.826	16.87
825	16.57
825.174	16.43
825.348	16.26
825.523	15.99
825.697	15.98
825.871	16.28
826.045	16.65
826.219	16.67
826.393	16.75
826.567	16.82
826.741	17.29
826.915	17.37
827.089	17.54
827.263	17.79
827.437	17.82
827.611	17.59
827.784	17.41
827.958	17.62
828.132	17.6
828.306	17.56
828.48	17.58
828.654	17.45
828.827	17.31
829.001	17.01
829.175	16.71
829.349	17.21
829.522	17.18
829.696	17.58
829.87	17.29
830.044	18.07
830.217	18.18
830.391	17.99
830.565	18.06
830.738	18.81
830.912	19.14
831.085	19.8
831.259	19.96
831.432	19.84
831.606	19.54
831.779	18.62
831.953	17.96
832.126	18.01
832.3	18.23
832.473	18.38
832.647	17.97
832.82	18.14
832.994	18.16
833.167	18.06
833.34	18.04
833.514	18.17
833.687	18.49
833.86	19.12
834.034	19.2
834.207	19.28
834.38	19.23
834.553	19.52
834.727	19.8
834.9	19.65
835.073	19.66
835.246	19.93
835.419	19.91
835.593	19.72
835.766	19.03
835.939	19.09
836.112	18.75
836.285	19.16
836.458	19.64
836.631	19.43
836.804	19.38
836.977	18.17
837.15	19.07
837.323	18.87
837.496	19.6
837.669	18.98
837.842	19.61
838.015	20.86
838.188	20.54
838.361	19.29
838.533	18.56
838.706	19.83
838.879	21.12
839.052	19.9
839.225	20.48
839.398	20.32
839.57	20.89
839.743	20.4
839.916	19.14
840.088	19.28
840.261	19.89
840.434	20.31
840.607	19.24
840.779	19.99
840.952	20.89
841.124	20.51
841.297	21.76
841.47	22.35
841.642	23.02
841.815	23.35
841.987	22.9
842.16	22.8
842.332	23.48
842.505	24.45
842.677	23.53
842.85	22.76
843.022	22.87
843.194	21.91
843.367	21.65
843.539	20.45
843.712	21.55
843.884	22.75
844.056	24.55
844.229	25.37
844.401	25.21
844.573	25.7
844.745	26.94
844.918	26.06
845.09	24.75
845.262	23.83
845.434	23.89
845.606	23.43
845.779	24.48
845.951	24.1
846.123	22.17
846.295	21.67
846.467	22.4
846.639	23.19
846.811	24.38
846.983	26.32
847.155	27.26
847.327	27.4
847.499	27.3
847.671	26.83
847.843	25.24
848.015	25.06
848.187	26.67
848.359	26.51
848.531	26.32
848.703	26.44
848.875	26.91
849.047	26.1
849.218	27.17
849.39	26.29
849.562	24.9
849.734	25.34
849.905	25.82
850.077	24.27
850.249	23.22
850.421	22.52
850.592	20.17
850.764	19.43
850.936	20.05
851.107	19.7
851.279	20.5
851.451	19.71
851.622	18.77
851.794	17.98
851.965	18.62
852.137	19.44
852.308	19.67
852.48	23.43
852.651	23.03
852.823	24.77
852.994	23.51
853.166	23.96
853.337	26.17
853.509	27.2
853.68	28.65
853.851	29.54
854.023	30.05
854.194	29.71
854.365	29.59
854.537	28.28
854.708	27.56
854.879	30.31
855.05	30.9
855.222	31.06
855.393	32.13
855.564	32.35
855.735	29.81
855.906	29.34
856.078	28.34
856.249	27.69
856.42	28.73
856.591	28.64
856.762	26.92
856.933	27.04
857.104	26.02
857.275	26.09
857.446	25.55
857.617	26.2
857.788	26.54
857.959	28.53
858.13	29.78
858.301	30.63
858.472	30.38
858.643	32.05
858.814	32.29
858.985	31.78
859.155	30.72
859.326	31.96
859.497	34.1
859.668	32.3
859.839	33.4
860.009	30.48
860.18	29.34
860.351	27.97
860.522	27.27
860.692	25.86
860.863	27.18
861.034	26.9
861.204	28.34
861.375	26.64
861.546	28.85
861.716	26.81
861.887	28.87
862.057	29.19
862.228	29.56
862.398	29.1
862.569	30.3
862.739	32.63
862.91	33.33
863.08	31.25
863.251	31.66
863.421	31.37
863.592	31.27
863.762	31.43
863.932	31.15
864.103	31.97
864.273	31.88
864.443	28.67
864.614	25.73
864.784	26.5
864.954	27.46
865.125	29.39
865.295	31.23
865.465	31.99
865.635	31.32
865.805	30.89
865.976	31.9
866.146	31.69
866.316	33.51
866.486	33.82
866.656	32.71
866.826	29.24
866.996	27.21
867.166	26.14
867.336	23.9
867.506	22.07
867.676	22.43
867.846	20.75
868.016	20.18
868.186	21.26
868.356	20.64
868.526	20.33
868.696	23.91
868.866	24.47
869.036	23.73
869.206	23.15
869.376	25.29
869.545	24.89
869.715	26.81
869.885	26.54
870.055	27.47
870.224	29.66
870.394	30.86
870.564	31.9
870.734	31.75
870.903	30.41
871.073	30.57
871.243	30.59
871.412	31.99
871.582	30.95
871.751	30.22
871.921	29.68
872.091	25.85
872.26	24.77
872.43	21.77
872.599	23.55
872.769	25.25
872.938	27.97
873.108	28.63
873.277	27.09
873.446	26.36
873.616	26.18
873.785	25.32
873.955	28.23
874.124	28.94
874.293	28.29
874.463	28.2
874.632	27.62
874.801	25.18
874.971	24.53
875.14	26.27
875.309	26.8
875.478	27.16
875.647	26.35
875.817	24.12
875.986	24.37
876.155	25.97
876.324	23.96
876.493	24.84
876.662	26.24
876.831	26.38
877	27.95
877.17	27.73
877.339	28.99
877.508	31.04
877.677	33.27
877.846	31.34
878.015	30.9
878.184	29.99
878.352	28.35
878.521	28.18
878.69	28.32
878.859	26.13
879.028	24.21
879.197	23.58
879.366	22.31
879.534	21.73
879.703	21.19
879.872	21.08
880.041	20.86
880.21	19.82
880.378	18.97
880.547	17.93
880.716	17.48
880.884	17.9
881.053	17.73
881.222	18.12
881.39	18.11
881.559	18.51
881.727	18.47
881.896	18.27
882.065	18.54
882.233	18.93
882.402	19.07
882.57	19.19
882.739	19.25
882.907	19.26
883.076	18.99
883.244	18.79
883.412	19.1
883.581	19.16
883.749	19.79
883.918	19.8
884.086	19.82
884.254	20.82
884.423	21.94
884.591	22.52
884.759	22.85
884.927	23.41
885.096	23.95
885.264	23.55
885.432	24.25
885.6	23.3
885.769	22.87
885.937	24.46
886.105	23.77
886.273	22.78
886.441	20.25
886.609	21.51
886.777	21.11
886.945	22.53
887.113	22.97
887.281	21.97
887.449	22.01
887.617	25.1
887.785	24.15
887.953	23.98
888.121	23.13
888.289	24.08
888.457	23.51
888.625	22.2
888.793	21.14
888.961	19.64
889.129	22.07
889.296	24.91
889.464	24
889.632	22.6
889.8	21.87
889.967	23.03
890.135	27.58
