Data from JASIL_3382_Reflection_1.txt Node
Date: Thu Nov 19 19:09:17 EST 2015
User: Geneva
Spectrometer: USB4E03002
Autoset integration time: false
Trigger mode: 4
Integration Time (sec): 1.000000E-1
Scans to average: 10
Electric dark correction enabled: false
Nonlinearity correction enabled: false
Boxcar width: 5
Stray light correction enabled: false
XAxis mode: Wavelengths
Stop averaging: false
Number of Pixels in Spectrum: 3648
>>>>>Begin Spectral Data<<<<<
177.575	460.63
177.794	546.58
178.014	458.83
178.233	458.65
178.452	451.64
178.672	468.84
178.891	516.69
179.11	609.7
179.33	721.21
179.549	992.31
179.768	1521.2
179.987	1013.98
180.207	1183.78
180.426	4988
180.645	363900
180.864	-13650
181.084	6707.41
181.303	-14075
181.522	15108.7
181.741	2380.27
181.96	1222.76
182.179	771.11
182.398	1336.14
182.618	704.19
182.837	510.84
183.056	584.46
183.275	599.83
183.494	778.06
183.713	582.73
183.932	442.83
184.151	504.86
184.37	500.52
184.589	583.56
184.808	669.62
185.027	1097.08
185.246	1067.8
185.465	704.58
185.684	588.16
185.903	514.86
186.122	606.69
186.341	937.71
186.56	1012.27
186.779	956.97
186.998	992.88
187.216	930.05
187.435	658.7
187.654	762.98
187.873	879.73
188.092	1110.95
188.311	1267.58
188.53	978.67
188.748	722.87
188.967	562.96
189.186	736.71
189.405	676.27
189.623	577.54
189.842	788.66
190.061	975.2
190.28	952.82
190.498	1017.27
190.717	726.45
190.936	747.13
191.154	682.87
191.373	998.89
191.592	642.03
191.81	859.01
192.029	855.73
192.248	711.96
192.466	715.97
192.685	716.73
192.904	720.54
193.122	838.29
193.341	969.32
193.559	1986.63
193.778	973.37
193.996	1472.09
194.215	884.24
194.433	945
194.652	882.48
194.87	688.39
195.089	631.96
195.307	666.6
195.526	783
195.744	720.08
195.963	520.48
196.181	573.51
196.399	605.89
196.618	670.26
196.836	577.12
197.055	560
197.273	632.69
197.491	672.78
197.71	676.38
197.928	721.75
198.146	858.7
198.365	2056.76
198.583	1387.27
198.801	1224.79
199.019	924.17
199.238	1539.68
199.456	1117.37
199.674	850
199.892	719.16
200.111	646.93
200.329	610.13
200.547	478.17
200.765	401.55
200.983	422.7
201.202	456.13
201.42	573.59
201.638	842.54
201.856	979.67
202.074	1100.31
202.292	954.64
202.51	777.08
202.728	663.92
202.946	605.06
203.165	747.14
203.383	732.5
203.601	962.89
203.819	776.35
204.037	561.24
204.255	543.59
204.473	484.02
204.691	583.45
204.909	622.51
205.127	834.73
205.345	1242.68
205.562	826.54
205.78	736.41
205.998	641.27
206.216	589.04
206.434	643.22
206.652	592.23
206.87	649.76
207.088	622.95
207.306	655.46
207.523	676.2
207.741	454.23
207.959	461.2
208.177	494.07
208.395	419.48
208.612	385.98
208.83	359
209.048	364.79
209.266	338.66
209.483	367
209.701	362.17
209.919	383.33
210.136	513.88
210.354	668.89
210.572	644.66
210.79	663.6
211.007	823.28
211.225	726.59
211.442	931.96
211.66	2077.51
211.878	2831.5
212.095	1684.82
212.313	1072.62
212.53	1351.64
212.748	765.05
212.966	1020
213.183	1356.52
213.401	1003.29
213.618	1161.41
213.836	1436.61
214.053	803.41
214.271	586.25
214.488	793.45
214.705	854.72
214.923	691.68
215.14	805.99
215.358	687.55
215.575	649.64
215.793	645.6
216.01	489.42
216.227	480.24
216.445	623.45
216.662	649.31
216.879	565.13
217.097	530.58
217.314	521.16
217.531	608.31
217.749	577.8
217.966	587.21
218.183	621.76
218.4	681.2
218.618	722.09
218.835	548.45
219.052	520.66
219.269	486.17
219.487	453.09
219.704	536.77
219.921	467.41
220.138	450.84
220.355	407.82
220.572	458.69
220.79	585.99
221.007	496.63
221.224	417.26
221.441	400.4
221.658	425.1
221.875	466.36
222.092	427.33
222.309	386.71
222.526	382.08
222.743	378.05
222.96	310.81
223.177	264.91
223.394	266.49
223.611	304.14
223.828	293.5
224.045	308.76
224.262	282.49
224.479	275.06
224.696	318.04
224.913	365.23
225.13	363.89
225.347	383.75
225.564	397.23
225.781	342.04
225.997	301.87
226.214	290.69
226.431	260.12
226.648	225.62
226.865	196.16
227.082	171.1
227.298	150.26
227.515	138.01
227.732	123.2
227.949	111.96
228.165	109
228.382	106.62
228.599	101.22
228.816	98.1
229.032	100.49
229.249	100.05
229.466	99.03
229.682	98.84
229.899	101.8
230.116	108.94
230.332	111.21
230.549	115.39
230.765	117.54
230.982	124.2
231.199	130.52
231.415	140.85
231.632	148.81
231.848	155.79
232.065	150.73
232.281	160.5
232.498	168.09
232.714	171.86
232.931	168.47
233.147	169.17
233.364	183.68
233.58	181.43
233.797	167.01
234.013	177.8
234.23	180.86
234.446	199.58
234.662	182.95
234.879	177.94
235.095	188.66
235.312	193.12
235.528	192.94
235.744	184.87
235.961	173.83
236.177	173.27
236.393	175.22
236.61	175.08
236.826	168.59
237.042	177.57
237.258	188.59
237.475	195.47
237.691	187.06
237.907	189.36
238.123	174.65
238.339	183.78
238.556	176.05
238.772	166.81
238.988	161.06
239.204	156.34
239.42	141.87
239.636	129.68
239.853	118.88
240.069	111.66
240.285	102.4
240.501	99.66
240.717	96.44
240.933	89.46
241.149	82.79
241.365	79.69
241.581	75.78
241.797	75.29
242.013	74.64
242.229	74.41
242.445	74.25
242.661	74.25
242.877	75.91
243.093	73.13
243.309	77.14
243.525	82.48
243.741	84.05
243.957	85.62
244.173	81.48
244.388	77.78
244.604	72.07
244.82	69.13
245.036	64.83
245.252	57.33
245.468	55.04
245.683	52.15
245.899	46.34
246.115	44.31
246.331	41.63
246.547	41.08
246.762	40.42
246.978	40.14
247.194	38.93
247.409	40.35
247.625	42.61
247.841	43.41
248.057	45.79
248.272	47.44
248.488	48.7
248.703	50.5
248.919	55.13
249.135	58.92
249.35	63.04
249.566	68.65
249.782	67.12
249.997	66
250.213	64.63
250.428	62.02
250.644	63.35
250.859	65.54
251.075	64.62
251.29	62.79
251.506	61.84
251.721	60.61
251.937	58.38
252.152	59.8
252.368	61.12
252.583	64.94
252.798	66.98
253.014	70.73
253.229	70.9
253.445	76.23
253.66	79.42
253.875	84.09
254.091	85.25
254.306	86.98
254.521	90.13
254.737	90.51
254.952	86.31
255.167	88.73
255.383	87.39
255.598	87.92
255.813	84.1
256.028	77.93
256.244	72.32
256.459	70.66
256.674	70.09
256.889	67.77
257.104	64.97
257.32	63.01
257.535	56.26
257.75	51.64
257.965	47.83
258.18	44.95
258.395	42.99
258.61	41.21
258.826	39.25
259.041	36.29
259.256	34.98
259.471	34.56
259.686	33.49
259.901	33.55
260.116	33.56
260.331	33.8
260.546	34.33
260.761	35.76
260.976	39.13
261.191	41.06
261.406	45.13
261.621	47.31
261.836	49.58
262.05	53.52
262.265	58.02
262.48	62.03
262.695	63.87
262.91	68.9
263.125	69.76
263.34	66.39
263.555	68.59
263.769	67.61
263.984	65.59
264.199	64.72
264.414	64.67
264.629	63.98
264.843	61.15
265.058	62.18
265.273	56.71
265.488	54.94
265.702	54.58
265.917	53.35
266.132	52.09
266.346	52.81
266.561	53.09
266.776	53.02
266.99	50.86
267.205	51.53
267.42	50.41
267.634	53.22
267.849	53.39
268.063	52.95
268.278	52.32
268.492	51.55
268.707	51.85
268.922	49.75
269.136	47.8
269.351	48.54
269.565	46.94
269.78	44.79
269.994	42.62
270.209	44.09
270.423	43.44
270.637	41.9
270.852	41.85
271.066	40.32
271.281	40.86
271.495	40.9
271.709	39.86
271.924	40.17
272.138	40.23
272.353	39.94
272.567	40.1
272.781	41.31
272.996	41.65
273.21	44.41
273.424	43.75
273.638	45.14
273.853	46.94
274.067	46.91
274.281	47.24
274.495	49.01
274.71	49.87
274.924	48
275.138	48.1
275.352	50.49
275.566	48.48
275.781	50.2
275.995	50.17
276.209	48.9
276.423	49.94
276.637	50.38
276.851	48.09
277.065	47.66
277.279	48.93
277.493	48.87
277.707	48.83
277.921	47.67
278.135	47.64
278.349	46.4
278.563	47.01
278.777	46.7
278.991	47.74
279.205	48.1
279.419	49.54
279.633	48.65
279.847	47.02
280.061	45.91
280.275	46.57
280.489	47.13
280.703	45.9
280.917	45.69
281.131	45.69
281.344	43.51
281.558	44.1
281.772	43.32
281.986	42.31
282.2	42.02
282.414	42.07
282.627	41.42
282.841	40.55
283.055	41.31
283.269	40.53
283.482	39.92
283.696	39.81
283.91	38.78
284.123	36.96
284.337	36.96
284.551	37.29
284.764	36.6
284.978	36.38
285.192	35.28
285.405	35.25
285.619	34.49
285.833	34.59
286.046	34.48
286.26	35.5
286.473	36.06
286.687	36.97
286.9	37.19
287.114	37.97
287.327	37.32
287.541	38.35
287.754	37.82
287.968	39.5
288.181	39.07
288.395	38.82
288.608	37.58
288.822	37.38
289.035	36.04
289.248	35.33
289.462	34.11
289.675	35.47
289.889	36.28
290.102	36.56
290.315	35.71
290.529	35.96
290.742	37.18
290.955	37.43
291.169	38.45
291.382	40.49
291.595	42.06
291.808	42.87
292.022	42.5
292.235	41.47
292.448	41.47
292.661	40.97
292.875	41.34
293.088	40.87
293.301	41.95
293.514	40.49
293.727	38.11
293.94	36
294.153	34.64
294.367	34.66
294.58	34.51
294.793	34.83
295.006	34.77
295.219	32.39
295.432	31.85
295.645	31.6
295.858	30.38
296.071	29.18
296.284	28.96
296.497	29.69
296.71	28.7
296.923	28.41
297.136	27.36
297.349	26.8
297.562	28.95
297.775	29.04
297.988	28.34
298.201	29.62
298.414	30.87
298.626	32.1
298.839	32.84
299.052	34.39
299.265	34.26
299.478	35.32
299.691	37.15
299.903	36.93
300.116	36.61
300.329	38.71
300.542	38.36
300.755	39.67
300.967	39.68
301.18	39.56
301.393	38.19
301.605	39.18
301.818	39.02
302.031	38.72
302.243	39.5
302.456	41.08
302.669	39.36
302.881	41.45
303.094	40.75
303.307	40.01
303.519	40.23
303.732	40.86
303.944	40.89
304.157	41.15
304.37	39.91
304.582	37.89
304.795	36.52
305.007	36.87
305.22	36.09
305.432	37.02
305.645	37.65
305.857	37.66
306.069	38.64
306.282	37.53
306.494	38.5
306.707	39.68
306.919	38.47
307.132	39.35
307.344	39.05
307.556	39.03
307.769	38.26
307.981	38.58
308.193	37.64
308.406	36.38
308.618	36.87
308.83	36.04
309.043	34.44
309.255	34.99
309.467	33.15
309.679	32.36
309.892	31.68
310.104	30.67
310.316	29.24
310.528	29.62
310.74	29.1
310.953	28.8
311.165	28.34
311.377	28.84
311.589	29.71
311.801	30.18
312.013	31.51
312.225	31.58
312.437	33.4
312.649	35.24
312.862	35.55
313.074	37.39
313.286	38.82
313.498	39.83
313.71	40.62
313.922	41.08
314.134	41.89
314.346	42.07
314.558	42.21
314.77	41.78
314.982	41.54
315.193	40.78
315.405	40.25
315.617	38.88
315.829	39.66
316.041	39.75
316.253	41.01
316.465	41.72
316.677	40.97
316.888	41.13
317.1	40.91
317.312	42.21
317.524	42.47
317.736	43.57
317.947	45.99
318.159	45.06
318.371	44.77
318.583	44.58
318.794	44.55
319.006	45.33
319.218	46.42
319.43	47.11
319.641	45.2
319.853	45.46
320.064	44.84
320.276	43.6
320.488	42.98
320.699	44.57
320.911	43.74
321.123	44.82
321.334	44.35
321.546	45.44
321.757	45.41
321.969	45.68
322.18	46.14
322.392	45.58
322.603	43.86
322.815	44.87
323.026	44.12
323.238	44.04
323.449	41.87
323.661	41.31
323.872	38.68
324.083	38.15
324.295	37.97
324.506	37.7
324.718	37.1
324.929	37.9
325.14	37.34
325.352	37.06
325.563	37.76
325.774	39.3
325.986	40.27
326.197	41.86
326.408	42.33
326.62	42.47
326.831	42.36
327.042	42.33
327.253	42.14
327.464	42.18
327.676	42.93
327.887	42.33
328.098	41.27
328.309	41.05
328.52	40.46
328.732	40.84
328.943	40.92
329.154	42.02
329.365	43
329.576	43.75
329.787	44.17
329.998	44.94
330.209	44.95
330.42	44.77
330.631	45.1
330.842	44.41
331.053	43.52
331.264	42.6
331.475	42.63
331.686	42.71
331.897	42.27
332.108	41.85
332.319	41.37
332.53	39.96
332.741	39.44
332.952	39.11
333.163	39.25
333.374	39.33
333.585	39.55
333.795	39.32
334.006	38.93
334.217	39.26
334.428	39.22
334.639	39.57
334.849	41.04
335.06	42.39
335.271	42.45
335.482	41.96
335.692	42.34
335.903	42.79
336.114	42.52
336.325	43.46
336.535	43.69
336.746	43.67
336.957	42.85
337.167	43.73
337.378	43.99
337.589	43.95
337.799	44.97
338.01	44.44
338.22	44.92
338.431	45.61
338.642	44.56
338.852	44.6
339.063	44.52
339.273	44.95
339.484	42.73
339.694	42.16
339.905	40.89
340.115	41.01
340.326	41.54
340.536	40.88
340.746	39.61
340.957	40.34
341.167	40.79
341.378	40.48
341.588	39.88
341.799	40.52
342.009	40.18
342.219	40.75
342.43	39.62
342.64	38.44
342.85	38.83
343.061	39.63
343.271	39.8
343.481	37.69
343.691	38.56
343.902	38.53
344.112	38.76
344.322	37.73
344.532	37.84
344.743	37.78
344.953	38.16
345.163	37.39
345.373	37.12
345.583	36.45
345.793	37.12
346.004	36.38
346.214	36.77
346.424	37.59
346.634	39.95
346.844	39.82
347.054	40.99
347.264	41.84
347.474	42.96
347.684	42.7
347.894	42.81
348.104	43.13
348.314	42.93
348.524	41.14
348.734	40.2
348.944	38.96
349.154	39.21
349.364	37.95
349.574	36.73
349.784	36.06
349.994	35.49
350.204	35.39
350.413	35.68
350.623	36.37
350.833	35.87
351.043	35.57
351.253	35.47
351.463	35.08
351.672	35.24
351.882	36.41
352.092	35.96
352.302	36.87
352.511	37.55
352.721	36.32
352.931	35.69
353.141	37.81
353.35	38.98
353.56	38.82
353.77	37.89
353.979	38.82
354.189	38.37
354.399	38.79
354.608	37.89
354.818	37.16
355.027	36.69
355.237	36.16
355.447	35.11
355.656	34.29
355.866	33.45
356.075	34.67
356.285	33.48
356.494	33.44
356.704	33.45
356.913	33.83
357.123	33.56
357.332	33.37
357.542	33.18
357.751	33.7
357.96	33.86
358.17	34.44
358.379	34.12
358.589	34.19
358.798	33.41
359.007	33.44
359.217	32.2
359.426	31.81
359.635	32.27
359.845	32.83
360.054	31.8
360.263	30.73
360.472	30.03
360.682	30.06
360.891	29.36
361.1	29.45
361.309	28.8
361.519	29.89
361.728	29.54
361.937	29.65
362.146	29.04
362.355	29.5
362.564	29.47
362.774	30.19
362.983	29.83
363.192	31.13
363.401	31.37
363.61	31.9
363.819	32.12
364.028	32.62
364.237	32.52
364.446	32.8
364.655	32.99
364.864	34.2
365.073	33.6
365.282	34.09
365.491	33.94
365.7	34.41
365.909	34.08
366.118	33.94
366.327	34.54
366.536	34.32
366.745	34
366.954	34.37
367.162	33.54
367.371	34.08
367.58	33.68
367.789	33.49
367.998	33.39
368.207	33.44
368.415	32.73
368.624	31.82
368.833	32.72
369.042	32.9
369.25	33.22
369.459	33.08
369.668	32.17
369.877	32.3
370.085	31.19
370.294	30.76
370.503	31.19
370.711	31.64
370.92	31.47
371.129	30.59
371.337	30.74
371.546	29.73
371.754	30.23
371.963	29.85
372.171	29.15
372.38	29.73
372.589	29.9
372.797	29.32
373.006	29.21
373.214	29.35
373.423	29.94
373.631	29.76
373.84	29.23
374.048	29.02
374.256	29.91
374.465	30.56
374.673	30.95
374.882	30.86
375.09	30.95
375.298	29.89
375.507	29.6
375.715	29.58
375.923	29.23
376.132	29.06
376.34	28.65
376.548	28
376.757	27.88
376.965	27.3
377.173	26.75
377.381	27.04
377.59	27.96
377.798	28.08
378.006	27.71
378.214	28.22
378.423	29
378.631	28.63
378.839	28.67
379.047	28.81
379.255	29.27
379.463	29.47
379.671	29.03
379.879	28.67
380.088	29.27
380.296	28.97
380.504	28.51
380.712	29.09
380.92	29.21
381.128	29.73
381.336	28.79
381.544	28.62
381.752	28.55
381.96	28.8
382.168	28.19
382.376	27.94
382.584	27.99
382.791	29.25
382.999	28.64
383.207	28.62
383.415	28.09
383.623	28.56
383.831	28.7
384.039	28.82
384.247	28.74
384.454	29.24
384.662	28.99
384.87	28.53
385.078	27.36
385.285	26.55
385.493	26.82
385.701	26.68
385.909	26.23
386.116	25.38
386.324	25.58
386.532	25.43
386.739	25.17
386.947	24.58
387.155	24.88
387.362	24.25
387.57	25.07
387.778	25.12
387.985	24.95
388.193	24.91
388.4	24.83
388.608	24.5
388.816	24.23
389.023	24.27
389.231	24.46
389.438	24.65
389.646	25.15
389.853	24.59
390.061	23.86
390.268	24.1
390.475	24.39
390.683	24.55
390.89	24.69
391.098	25.04
391.305	25.1
391.512	25.22
391.72	25.01
391.927	25.12
392.135	25.12
392.342	25.32
392.549	24.97
392.756	24.63
392.964	24.91
393.171	24.95
393.378	24.76
393.586	24.39
393.793	24.08
394	24.09
394.207	23.39
394.414	23.31
394.622	23.41
394.829	23.76
395.036	23.93
395.243	24.12
395.45	23.78
395.657	23.69
395.864	23.81
396.072	23.76
396.279	23.76
396.486	24.48
396.693	24.27
396.9	24.04
397.107	23.88
397.314	24.23
397.521	23.68
397.728	23.74
397.935	23.9
398.142	23.89
398.349	24.37
398.556	24.59
398.763	24.29
398.97	24.5
399.177	24.88
399.383	25.08
399.59	24.6
399.797	24.58
400.004	24.2
400.211	24.24
400.418	24.29
400.625	23.89
400.831	23.31
401.038	23.16
401.245	23.23
401.452	22.93
401.658	22.52
401.865	22.6
402.072	23
402.279	23.49
402.485	23.37
402.692	23.35
402.899	23.18
403.105	23.61
403.312	23.34
403.519	23.31
403.725	23.07
403.932	22.92
404.138	22.85
404.345	22.68
404.552	22.77
404.758	22.73
404.965	23.41
405.171	23.98
405.378	23.91
405.584	24.58
405.791	24.67
405.997	25.03
406.204	25.84
406.41	26.13
406.617	26.33
406.823	25.92
407.029	26.04
407.236	25.25
407.442	25.31
407.649	25.19
407.855	24.8
408.061	24.44
408.268	24.49
408.474	24.07
408.68	24.19
408.887	23.96
409.093	24.11
409.299	23.42
409.505	23.91
409.712	23.62
409.918	23.51
410.124	23.65
410.33	23.82
410.537	24.12
410.743	24.5
410.949	24.75
411.155	24.99
411.361	24.35
411.567	24.7
411.773	24.45
411.98	24.59
412.186	25.05
412.392	25
412.598	25.04
412.804	24.88
413.01	25.05
413.216	24.88
413.422	25.04
413.628	25.72
413.834	25.8
414.04	26.27
414.246	26.16
414.452	25.95
414.658	25.78
414.864	25.45
415.07	25.36
415.275	24.71
415.481	24.53
415.687	24.22
415.893	24.28
416.099	23.83
416.305	23.45
416.511	23.49
416.716	23.48
416.922	23.64
417.128	23.99
417.334	23.79
417.539	24.12
417.745	23.98
417.951	23.76
418.157	23.68
418.362	23.74
418.568	23.55
418.774	23.15
418.979	22.76
419.185	22.46
419.391	22.08
419.596	22.07
419.802	21.71
420.008	21.78
420.213	21.92
420.419	21.66
420.624	21.76
420.83	21.8
421.035	21.99
421.241	22.28
421.446	22.55
421.652	22.71
421.857	22.64
422.063	22.78
422.268	22.7
422.474	22.69
422.679	22.59
422.885	22.58
423.09	22.56
423.295	22.62
423.501	22.5
423.706	22.46
423.911	22.65
424.117	22.75
424.322	22.77
424.527	22.86
424.733	22.86
424.938	23.35
425.143	23.19
425.349	23.37
425.554	23.42
425.759	23.63
425.964	23.67
426.169	23.85
426.375	23.87
426.58	24.07
426.785	24.42
426.99	24.72
427.195	24.77
427.4	25.28
427.605	25.4
427.811	25.64
428.016	25.79
428.221	25.96
428.426	25.92
428.631	26.22
428.836	26.15
429.041	25.89
429.246	25.79
429.451	25.68
429.656	25.78
429.861	25.84
430.066	26.24
430.271	26.41
430.476	26.47
430.681	26.52
430.886	26.31
431.09	26.33
431.295	26.77
431.5	26.98
431.705	27.4
431.91	27.19
432.115	27.21
432.32	27.11
432.524	27.03
432.729	27.07
432.934	26.84
433.139	27.16
433.343	27.4
433.548	27.11
433.753	27.2
433.958	26.99
434.162	27.45
434.367	27.59
434.572	27.43
434.776	27.7
434.981	27.8
435.186	28.43
435.39	28.48
435.595	28.87
435.799	29.1
436.004	29.23
436.209	29.55
436.413	29.34
436.618	29.51
436.822	29.99
437.027	29.7
437.231	29.77
437.436	29.57
437.64	29.54
437.845	29.39
438.049	29.25
438.253	29.01
438.458	28.88
438.662	28.93
438.867	28.89
439.071	28.77
439.275	28.89
439.48	28.75
439.684	28.92
439.888	29.07
440.093	28.91
440.297	29.13
440.501	29.35
440.706	29.38
440.91	29.8
441.114	29.97
441.318	29.86
441.523	30.17
441.727	30.78
441.931	30.8
442.135	30.89
442.339	31.14
442.543	31.38
442.748	31.63
442.952	32.13
443.156	31.9
443.36	32.05
443.564	32.3
443.768	32.1
443.972	32.05
444.176	32.27
444.38	32.48
444.584	32.31
444.788	32.3
444.992	32.28
445.196	32.27
445.4	32.39
445.604	32.07
445.808	32.31
446.012	32.28
446.216	32.22
446.42	32.34
446.624	32.44
446.828	32.82
447.032	32.72
447.235	32.77
447.439	32.79
447.643	32.92
447.847	33.58
448.051	33.62
448.254	34.32
448.458	34.54
448.662	34.53
448.866	34.67
449.069	34.7
449.273	35.19
449.477	35.44
449.681	35.82
449.884	36.09
450.088	36.08
450.292	36.37
450.495	36.25
450.699	36.47
450.902	36.7
451.106	36.72
451.31	37.11
451.513	37.48
451.717	37.67
451.92	37.84
452.124	38.06
452.327	38.26
452.531	38.05
452.734	38.11
452.938	38.13
453.141	38.4
453.345	38.64
453.548	38.86
453.752	38.83
453.955	39.18
454.158	39.21
454.362	39.17
454.565	39.23
454.769	39.4
454.972	39.61
455.175	39.87
455.379	40.03
455.582	40.31
455.785	39.82
455.988	39.7
456.192	39.77
456.395	39.75
456.598	40.04
456.801	39.88
457.005	39.9
457.208	40.12
457.411	40.05
457.614	39.95
457.817	39.67
458.021	39.82
458.224	39.71
458.427	39.52
458.63	39.48
458.833	39.48
459.036	39.41
459.239	39.48
459.442	39.33
459.645	39.24
459.848	39.26
460.051	39.5
460.254	39.51
460.457	39.76
460.66	39.89
460.863	40.17
461.066	40.28
461.269	40.9
461.472	41.16
461.675	41.31
461.878	41.74
462.081	42.02
462.284	42.1
462.486	42.7
462.689	42.92
462.892	43.08
463.095	43.24
463.298	43.34
463.5	43.26
463.703	43.29
463.906	43.37
464.109	43.3
464.311	43.51
464.514	43.71
464.717	43.85
464.92	43.96
465.122	44.22
465.325	44.2
465.528	44.55
465.73	44.71
465.933	44.86
466.135	44.91
466.338	45.03
466.541	44.4
466.743	44.6
466.946	44.45
467.148	44.35
467.351	44.23
467.553	44.44
467.756	44.18
467.958	44.04
468.161	44.06
468.363	44.36
468.566	44.51
468.768	45.18
468.971	45.3
469.173	45.41
469.375	45.78
469.578	46.09
469.78	46.04
469.983	46.22
470.185	46.32
470.387	46.71
470.59	46.73
470.792	46.9
470.994	47.02
471.196	46.78
471.399	46.76
471.601	46.76
471.803	46.82
472.005	46.86
472.208	46.64
472.41	46.75
472.612	46.47
472.814	46.52
473.016	46.44
473.218	46.59
473.421	46.68
473.623	46.65
473.825	46.87
474.027	46.79
474.229	46.75
474.431	46.99
474.633	46.86
474.835	46.97
475.037	47.21
475.239	47.28
475.441	46.86
475.643	46.6
475.845	46.68
476.047	46.7
476.249	46.7
476.451	46.87
476.653	46.92
476.855	46.89
477.057	46.88
477.258	46.75
477.46	46.86
477.662	47
477.864	47.28
478.066	47.21
478.268	46.83
478.469	46.85
478.671	46.72
478.873	46.64
479.075	46.75
479.276	46.89
479.478	46.88
479.68	46.72
479.882	46.99
480.083	47
480.285	47.03
480.487	47.17
480.688	46.96
480.89	46.87
481.091	46.89
481.293	46.85
481.495	46.49
481.696	46.4
481.898	46.18
482.099	45.84
482.301	45.61
482.502	45.42
482.704	45.22
482.905	45.06
483.107	44.98
483.308	44.86
483.51	44.74
483.711	44.77
483.913	44.69
484.114	44.71
484.315	44.73
484.517	44.79
484.718	44.89
484.92	44.87
485.121	45
485.322	45.01
485.524	45.12
485.725	45.21
485.926	45.28
486.127	45.34
486.329	45.42
486.53	45.45
486.731	45.56
486.932	45.64
487.134	45.73
487.335	45.75
487.536	46.04
487.737	46.14
487.938	46.2
488.139	46.38
488.341	46.42
488.542	46.46
488.743	46.57
488.944	46.64
489.145	46.79
489.346	46.99
489.547	47.11
489.748	46.89
489.949	47.06
490.15	47.08
490.351	46.96
490.552	47.19
490.753	47.21
490.954	47.24
491.155	47.33
491.356	47.18
491.557	47.19
491.758	47.18
491.959	47.13
492.159	47.02
492.36	47.09
492.561	47.16
492.762	47.17
492.963	47.36
493.164	47.63
493.364	47.69
493.565	48
493.766	48.24
493.967	48.68
494.167	49.18
494.368	49.48
494.569	49.65
494.769	49.65
494.97	49.58
495.171	49.59
495.371	49.31
495.572	49.16
495.773	49.2
495.973	49.22
496.174	49.06
496.375	49.09
496.575	48.92
496.776	48.98
496.976	49.25
497.177	49.45
497.377	49.43
497.578	49.77
497.778	50.07
497.979	50.12
498.179	50.26
498.38	50.25
498.58	50.2
498.78	50.38
498.981	50.39
499.181	50.41
499.382	50.41
499.582	50.59
499.782	50.62
499.983	50.7
500.183	50.76
500.383	50.76
500.584	50.8
500.784	50.9
500.984	51.09
501.184	51.3
501.385	51.53
501.585	51.68
501.785	51.72
501.985	51.67
502.185	51.63
502.386	51.67
502.586	51.36
502.786	51.52
502.986	51.7
503.186	51.42
503.386	51.49
503.586	51.37
503.786	51.34
503.987	51.56
504.187	51.67
504.387	51.59
504.587	51.8
504.787	52.2
504.987	52.38
505.187	52.53
505.387	52.78
505.587	52.8
505.786	52.62
505.986	52.61
506.186	52.34
506.386	52.4
506.586	52.52
506.786	52.09
506.986	51.89
507.186	51.6
507.386	51.16
507.585	51.12
507.785	51.1
507.985	51.06
508.185	51.03
508.384	51.19
508.584	51.05
508.784	50.93
508.984	51.12
509.183	51.25
509.383	51.5
509.583	51.78
509.782	51.65
509.982	51.68
510.182	51.82
510.381	51.91
510.581	51.96
510.781	52.01
510.98	52.21
511.18	52.27
511.379	52.28
511.579	52.31
511.778	52.29
511.978	52.42
512.177	52.39
512.377	52.23
512.576	52.16
512.776	52.25
512.975	52.13
513.175	51.78
513.374	51.77
513.573	51.9
513.773	52
513.972	52.04
514.172	51.99
514.371	52.26
514.57	52.5
514.77	52.45
514.969	52.46
515.168	52.71
515.367	53.03
515.567	53.27
515.766	53.15
515.965	52.98
516.164	52.88
516.364	52.8
516.563	52.52
516.762	52.31
516.961	52.16
517.16	51.99
517.359	51.85
517.559	51.68
517.758	51.35
517.957	51.48
518.156	51.56
518.355	51.57
518.554	51.87
518.753	51.99
518.952	52.08
519.151	52.35
519.35	52.41
519.549	52.47
519.748	52.52
519.947	52.84
520.146	52.87
520.345	52.92
520.544	53.11
520.743	52.96
520.942	52.89
521.141	53.12
521.339	53.13
521.538	53.25
521.737	53.47
521.936	53.56
522.135	53.34
522.333	53.13
522.532	52.81
522.731	52.59
522.93	52.56
523.129	52.5
523.327	52.13
523.526	51.91
523.725	51.83
523.923	51.52
524.122	51.6
524.321	51.66
524.519	51.81
524.718	51.98
524.917	52.01
525.115	51.91
525.314	51.88
525.512	51.95
525.711	52.04
525.909	51.7
526.108	51.53
526.306	51.38
526.505	51.12
526.703	50.86
526.902	50.76
527.1	50.6
527.299	50.44
527.497	50.34
527.696	50.35
527.894	50.3
528.092	50.38
528.291	50.44
528.489	50.35
528.688	50.32
528.886	50.35
529.084	50.38
529.283	50.43
529.481	50.52
529.679	50.59
529.877	50.6
530.076	50.61
530.274	50.76
530.472	50.81
530.67	51.08
530.869	51.38
531.067	51.54
531.265	51.59
531.463	51.72
531.661	51.82
531.859	52.08
532.057	52.09
532.255	52.13
532.454	52.01
532.652	51.98
532.85	51.88
533.048	51.77
533.246	51.89
533.444	51.77
533.642	51.7
533.84	51.67
534.038	51.39
534.236	51.4
534.434	51.45
534.632	51.56
534.83	51.74
535.027	51.85
535.225	52.02
535.423	51.9
535.621	52.14
535.819	52.32
536.017	52.38
536.215	52.47
536.412	52.61
536.61	52.6
536.808	52.62
537.006	52.64
537.203	52.63
537.401	52.6
537.599	52.65
537.797	52.66
537.994	52.7
538.192	52.97
538.39	53.14
538.587	53.38
538.785	53.36
538.983	53.55
539.18	53.55
539.378	53.65
539.575	53.65
539.773	53.63
539.97	53.54
540.168	53.57
540.366	53.39
540.563	53.27
540.761	53.16
540.958	53.17
541.155	53.03
541.353	53.02
541.55	52.99
541.748	53.18
541.945	53.23
542.143	53.31
542.34	53.3
542.537	53.55
542.735	54.01
542.932	54.08
543.129	54.33
543.327	54.59
543.524	54.94
543.721	55.24
543.919	55.29
544.116	55.69
544.313	56.12
544.51	56.42
544.708	56.7
544.905	56.54
545.102	56.75
545.299	56.77
545.496	56.99
545.693	56.98
545.891	56.94
546.088	56.84
546.285	56.66
546.482	56.42
546.679	56.4
546.876	56.17
547.073	56.18
547.27	55.9
547.467	55.94
547.664	55.84
547.861	55.79
548.058	55.63
548.255	55.91
548.452	56
548.649	56.25
548.846	56
549.043	55.98
549.24	56.02
549.437	56.3
549.633	56.22
549.83	56.19
550.027	56.32
550.224	56.51
550.421	56.45
550.618	56.18
550.814	55.77
551.011	55.86
551.208	55.87
551.405	55.48
551.601	55.5
551.798	55.43
551.995	55.47
552.191	55.2
552.388	55.09
552.585	54.95
552.781	55.07
552.978	55.03
553.175	55.03
553.371	54.98
553.568	55.1
553.764	55.36
553.961	55.38
554.157	55.06
554.354	55.07
554.55	55.32
554.747	55.37
554.943	55.25
555.14	55.41
555.336	55.15
555.533	55.04
555.729	55.2
555.926	54.9
556.122	54.96
556.318	55.26
556.515	55.36
556.711	55.38
556.907	55.43
557.104	55.77
557.3	56.06
557.496	56.67
557.693	56.68
557.889	57.11
558.085	57.04
558.281	57.27
558.478	57.41
558.674	57.46
558.87	57.1
559.066	56.9
559.262	56.7
559.459	56.46
559.655	56.13
559.851	56.28
560.047	55.9
560.243	55.95
560.439	55.44
560.635	55.27
560.831	55.04
561.027	55.1
561.223	55.17
561.419	54.97
561.615	54.98
561.811	55.16
562.007	55.13
562.203	55.13
562.399	55.45
562.595	55.95
562.791	55.85
562.987	56.47
563.183	56.49
563.379	56.67
563.575	56.92
563.771	56.76
563.966	57.09
564.162	57.22
564.358	57.36
564.554	56.99
564.75	56.77
564.945	56.8
565.141	56.27
565.337	56.33
565.533	55.99
565.728	55.88
565.924	55.72
566.12	55.46
566.315	55.29
566.511	55.05
566.707	54.9
566.902	54.85
567.098	54.99
567.293	55.47
567.489	55.61
567.684	55.8
567.88	55.88
568.076	56.43
568.271	56.53
568.467	56.7
568.662	56.64
568.858	56.82
569.053	57.12
569.248	57.16
569.444	56.75
569.639	56.89
569.835	56.91
570.03	56.98
570.225	56.5
570.421	56.23
570.616	56.07
570.812	56.45
571.007	56.45
571.202	56.32
571.397	56.15
571.593	56.19
571.788	55.98
571.983	56.07
572.178	56.24
572.374	56.55
572.569	56.42
572.764	56.51
572.959	56.12
573.154	56.01
573.35	55.9
573.545	56.1
573.74	56.07
573.935	56.29
574.13	56.04
574.325	56.06
574.52	55.92
574.715	56.24
574.91	56.32
575.105	56.77
575.3	57.05
575.495	57.22
575.69	57.28
575.885	57.53
576.08	57.6
576.275	57.76
576.47	57.37
576.665	57.85
576.86	58.22
577.055	58.14
577.25	57.93
577.444	57.99
577.639	57.91
577.834	57.95
578.029	58.15
578.224	58.14
578.418	58.66
578.613	59.04
578.808	59.05
579.003	58.7
579.197	58.81
579.392	58.81
579.587	59.15
579.781	59.38
579.976	59.47
580.171	59.33
580.365	59.37
580.56	59.35
580.755	59.77
580.949	60.24
581.144	60.7
581.338	60.9
581.533	61.43
581.727	61.35
581.922	61.58
582.116	61.68
582.311	61.84
582.505	61.63
582.7	61.89
582.894	61.94
583.089	61.21
583.283	60.87
583.478	60.67
583.672	60.44
583.866	60.38
584.061	60.54
584.255	60.44
584.449	60.31
584.644	60.62
584.838	60.3
585.032	59.95
585.226	59.77
585.421	60.24
585.615	60.61
585.809	60.6
586.003	60.46
586.198	60.48
586.392	60.57
586.586	60.81
586.78	60.74
586.974	61.03
587.168	60.74
587.363	61.08
587.557	60.86
587.751	61.23
587.945	61.31
588.139	61.54
588.333	61.16
588.527	60.79
588.721	60.34
588.915	60.46
589.109	60.01
589.303	60.78
589.497	60.3
589.691	60.12
589.885	59.42
590.079	59.4
590.273	58.98
590.466	59.14
590.66	59.34
590.854	59.82
591.048	60.03
591.242	60.34
591.436	59.92
591.629	60.62
591.823	60.76
592.017	60.94
592.211	61.09
592.404	61.62
592.598	61.37
592.792	61.55
592.986	61.1
593.179	60.29
593.373	59.64
593.567	59.5
593.76	59.28
593.954	59.21
594.147	59.02
594.341	58.72
594.535	58.19
594.728	58.45
594.922	58.19
595.115	57.97
595.309	58.16
595.502	58.56
595.696	58.45
595.889	58.53
596.083	58.46
596.276	58.81
596.47	58.64
596.663	58.84
596.856	58.85
597.05	58.96
597.243	59.37
597.437	59.73
597.63	59.69
597.823	59.84
598.017	59.84
598.21	59.95
598.403	59.73
598.596	60.18
598.79	60.47
598.983	60.51
599.176	60.49
599.369	60.5
599.563	60.25
599.756	60.49
599.949	60.61
600.142	60.64
600.335	60.63
600.528	60.57
600.722	60.56
600.915	60.64
601.108	60.56
601.301	60.62
601.494	60.28
601.687	60.22
601.88	59.68
602.073	59.56
602.266	59.18
602.459	59.12
602.652	58.79
602.845	58.56
603.038	58.3
603.231	58.1
603.424	58.01
603.617	57.98
603.809	58.09
604.002	58.26
604.195	58.32
604.388	58.74
604.581	58.9
604.774	59.51
604.966	59.62
605.159	59.49
605.352	59.94
605.545	60.31
605.737	60.51
605.93	60.61
606.123	60.89
606.316	61.23
606.508	61.29
606.701	61.4
606.894	61.38
607.086	61.98
607.279	62.52
607.471	62
607.664	62.01
607.857	62.49
608.049	62.9
608.242	63.58
608.434	63.9
608.627	64.39
608.819	65.11
609.012	66.12
609.204	66.81
609.397	67.54
609.589	69.2
609.782	70.2
609.974	71.34
610.166	72.07
610.359	73.05
610.551	74.26
610.743	75.44
610.936	76.11
611.128	76.45
611.32	76.74
611.513	76.93
611.705	76.61
611.897	76.43
612.09	75.5
612.282	75.22
612.474	74.81
612.666	74.12
612.858	73.26
613.051	72.49
613.243	71.96
613.435	71.02
613.627	70.21
613.819	69.89
614.011	70.12
614.203	70.12
614.395	69.62
614.588	68.72
614.78	68.3
614.972	67.84
615.164	67.87
615.356	67.29
615.548	67.36
615.74	67.25
615.932	66.75
616.124	66.19
616.315	65.66
616.507	65.67
616.699	65.36
616.891	64.82
617.083	64.66
617.275	64.37
617.467	64.09
617.659	64.09
617.85	64.33
618.042	64.06
618.234	63.19
618.426	63.77
618.618	63.72
618.809	63.69
619.001	63.59
619.193	63.56
619.384	62.93
619.576	63.4
619.768	63.19
619.959	63.03
620.151	62.94
620.343	63.33
620.534	63.44
620.726	63.58
620.917	63.73
621.109	63.57
621.301	63.43
621.492	63.83
621.684	63.44
621.875	63.89
622.067	64.08
622.258	64.66
622.45	64.89
622.641	64.69
622.832	64.44
623.024	64.53
623.215	65.09
623.407	65
623.598	64.71
623.789	64.44
623.981	63.76
624.172	63.97
624.363	63.79
624.555	63.33
624.746	63.38
624.937	63.56
625.129	63.42
625.32	63.32
625.511	63.16
625.702	63.3
625.893	63.96
626.085	64.38
626.276	64.1
626.467	63.68
626.658	63.57
626.849	63.22
627.04	63.24
627.231	63.55
627.422	63.38
627.614	63.53
627.805	63.86
627.996	63.1
628.187	62.71
628.378	62.82
628.569	63.38
628.76	63.81
628.951	64.2
629.142	64.23
629.332	64.02
629.523	64.33
629.714	64.54
629.905	64.74
630.096	64.88
630.287	65.23
630.478	65.43
630.669	65.24
630.859	65.38
631.05	64.93
631.241	64.66
631.432	64.37
631.623	64.07
631.813	64.19
632.004	63.69
632.195	63.94
632.385	63.64
632.576	63.19
632.767	62.96
632.957	63.11
633.148	63.59
633.339	63.43
633.529	63.66
633.72	63.78
633.91	63.63
634.101	63.89
634.292	63.78
634.482	63.95
634.673	64.7
634.863	64.9
635.054	64.54
635.244	64.25
635.435	64.45
635.625	64.43
635.815	64.44
636.006	64.2
636.196	64.16
636.387	64.54
636.577	64.63
636.767	64.26
636.958	64.69
637.148	64.68
637.338	64.31
637.529	65.06
637.719	65.56
637.909	65.16
638.099	65.76
638.29	65.95
638.48	66.21
638.67	66.2
638.86	65.78
639.05	66.21
639.241	66.52
639.431	66.7
639.621	65.86
639.811	65.35
640.001	65.73
640.191	65.63
640.381	65.68
640.571	65.18
640.761	64.89
640.951	65.03
641.141	64.03
641.331	63.68
641.521	64.36
641.711	64.28
641.901	64.79
642.091	65.01
642.281	64.45
642.471	63.8
642.661	64.25
642.851	64.53
643.041	64.33
643.231	64.84
643.42	64.79
643.61	64.47
643.8	65.03
643.99	64.54
644.18	64.64
644.369	65.35
644.559	65.94
644.749	65.2
644.939	65.15
645.128	65.36
645.318	65.41
645.508	65.6
645.697	65.56
645.887	64.85
646.076	64.83
646.266	64.63
646.456	64.84
646.645	64.84
646.835	65.35
647.024	65.1
647.214	65.23
647.403	65.1
647.593	65.35
647.782	65.45
647.972	66.22
648.161	66.66
648.351	66.8
648.54	66.08
648.73	66.44
648.919	66.46
649.108	67.24
649.298	67.58
649.487	67.74
649.677	67.4
649.866	66.85
650.055	66.77
650.244	66.54
650.434	66.43
650.623	67.01
650.812	66.29
651.002	65.74
651.191	64.96
651.38	64.67
651.569	64.68
651.758	64.54
651.947	65.29
652.137	65.49
652.326	65.99
652.515	66.27
652.704	66.05
652.893	66.4
653.082	66.95
653.271	67.8
653.46	67.64
653.649	67.37
653.838	68.09
654.027	68.28
654.216	67.79
654.405	67.04
654.594	67.13
654.783	66.67
654.972	66.7
655.161	66.47
655.35	66.17
655.539	65.95
655.728	65.99
655.916	65.52
656.105	64.9
656.294	64.99
656.483	65.08
656.672	64.75
656.86	65.38
657.049	65.39
657.238	64.6
657.427	64.56
657.615	64.58
657.804	64.33
657.993	63.92
658.181	64.14
658.37	64.25
658.559	64.33
658.747	64.28
658.936	63.65
659.125	64.03
659.313	64.26
659.502	64.14
659.69	64.39
659.879	64.87
660.067	65.38
660.256	65.53
660.444	65.52
660.633	65.32
660.821	65.39
661.01	65.67
661.198	64.9
661.387	65.65
661.575	65.88
661.763	65.85
661.952	65.7
662.14	66.23
662.328	66.2
662.517	66.18
662.705	66.73
662.893	67.19
663.082	67.57
663.27	67.85
663.458	68.55
663.646	68.86
663.834	68.6
664.023	68.81
664.211	68.73
664.399	68.56
664.587	69.51
664.775	69.43
664.963	68.97
665.152	68.61
665.34	69.4
665.528	68.58
665.716	67.59
665.904	68.18
666.092	67.86
666.28	67.66
666.468	67.69
666.656	67.27
666.844	67.43
667.032	67.86
667.22	68.01
667.408	67.59
667.596	67.76
667.784	68.25
667.971	67.83
668.159	67.64
668.347	67.87
668.535	68.4
668.723	67.59
668.911	67.86
669.098	68.14
669.286	68.74
669.474	68.22
669.662	68.87
669.849	69.39
670.037	70.25
670.225	70.71
670.413	70.53
670.6	69.89
670.788	70.65
670.976	70.68
671.163	69.64
671.351	68.7
671.538	69.28
671.726	68.91
671.913	68.85
672.101	68.98
672.289	69.02
672.476	69.1
672.664	69.75
672.851	70.14
673.039	69.35
673.226	69.82
673.413	70.54
673.601	70.73
673.788	70.37
673.976	70.13
674.163	69.9
674.35	69.63
674.538	69.77
674.725	69.23
674.912	68.11
675.1	68.68
675.287	69
675.474	69.29
675.662	68.87
675.849	69.16
676.036	69.54
676.223	69.49
676.411	68.79
676.598	68.09
676.785	68.38
676.972	68.5
677.159	67.95
677.346	67.7
677.533	67.36
677.721	67.62
677.908	67.14
678.095	67.04
678.282	66.1
678.469	66.87
678.656	67.62
678.843	67.52
679.03	67.44
679.217	67.87
679.404	67.55
679.591	67.15
679.778	66.71
679.964	66.71
680.151	66.15
680.338	66.78
680.525	66.18
680.712	65.73
680.899	65.7
681.086	65.87
681.272	65.58
681.459	66.55
681.646	66.61
681.833	67.19
682.02	67.94
682.206	68.72
682.393	68.72
682.58	69.08
682.766	69.96
682.953	69.85
683.14	70.53
683.326	71.97
683.513	71.71
683.7	72.22
683.886	72.1
684.073	71.89
684.259	71.49
684.446	71.97
684.632	72.66
684.819	71.95
685.005	72.29
685.192	71.95
685.378	71.47
685.565	71.45
685.751	71.57
685.938	71.74
686.124	72.27
686.31	72.44
686.497	71.71
686.683	70.43
686.87	70.36
687.056	69.8
687.242	70.16
687.429	70.43
687.615	69.79
687.801	69.35
687.987	68.77
688.174	67.4
688.36	67.27
688.546	67.96
688.732	68.54
688.918	68.1
689.105	68.74
689.291	68.27
689.477	67.67
689.663	68.29
689.849	68.39
690.035	69.29
690.221	70.21
690.407	70.81
690.593	70.48
690.779	71.14
690.965	72.45
691.151	72.56
691.337	73.1
691.523	73.16
691.709	72
691.895	73.41
692.081	73.39
692.267	73.78
692.453	73.48
692.639	74.39
692.825	74.97
693.011	74.97
693.196	75.81
693.382	76.05
693.568	76.38
693.754	78.35
693.94	76.83
694.125	77.2
694.311	76.41
694.497	76.53
694.682	75.92
694.868	76.03
695.054	75.22
695.239	74.59
695.425	74.05
695.611	73.85
695.796	73.45
695.982	74.1
696.168	73.11
696.353	72.97
696.539	72.36
696.724	71.48
696.91	70.88
697.095	70.95
697.281	70.43
697.466	70.07
697.652	69.89
697.837	68.91
698.023	67.86
698.208	67.49
698.393	67.79
698.579	67.7
698.764	67.96
698.949	67.61
699.135	67.58
699.32	68.01
699.505	68.47
699.691	68.6
699.876	69.07
700.061	69.56
700.246	70.37
700.432	70.65
700.617	70.46
700.802	70.64
700.987	71.71
701.172	72.98
701.358	73.04
701.543	73.01
701.728	73.33
701.913	74.09
702.098	74.78
702.283	74.86
702.468	75.41
702.653	75.93
702.838	76.4
703.023	76.53
703.208	74.55
703.393	74.48
703.578	75.92
703.763	75.8
703.948	75.94
704.133	76.38
704.318	76.68
704.503	75.66
704.688	77.91
704.873	78.29
705.057	78.52
705.242	80.56
705.427	80.76
705.612	79.81
705.797	79.36
705.981	79.78
706.166	80.91
706.351	80.12
706.536	81.15
706.72	80.27
706.905	80.83
707.09	79.6
707.274	78.51
707.459	79.41
707.644	79.53
707.828	80.36
708.013	79.78
708.197	78.8
708.382	80.62
708.567	79.47
708.751	78.63
708.936	77.58
709.12	77.76
709.305	77.96
709.489	76.91
709.673	76.08
709.858	75.28
710.042	75.36
710.227	75.2
710.411	74.14
710.596	75.22
710.78	75.78
710.964	76.26
711.149	77.21
711.333	76.94
711.517	78.09
711.702	78.79
711.886	78.13
712.07	77.42
712.254	77.37
712.438	76.54
712.623	76.3
712.807	75.13
712.991	75.81
713.175	76.17
713.359	76.47
713.544	75.87
713.728	74.47
713.912	75.48
714.096	76.11
714.28	76.09
714.464	76.17
714.648	75.3
714.832	75.75
715.016	75.28
715.2	73.57
715.384	73.99
715.568	73.55
715.752	73.9
715.936	74.26
716.12	74.64
716.304	74.43
716.488	74.23
716.671	74.5
716.855	74.97
717.039	74.56
717.223	74.81
717.407	74.18
717.59	73.71
717.774	75.03
717.958	75.38
718.142	74.37
718.325	75.78
718.509	77.96
718.693	78.09
718.877	79.24
719.06	78.77
719.244	80.7
719.428	81.45
719.611	82.47
719.795	81.71
719.978	81.15
720.162	81.94
720.345	81.78
720.529	80.8
720.713	81.12
720.896	79.48
721.08	79.7
721.263	79.43
721.446	80.55
721.63	80.41
721.813	80.16
721.997	80.45
722.18	81.26
722.364	81.15
722.547	80.86
722.73	81.19
722.914	81.53
723.097	82.82
723.28	82.13
723.464	81.93
723.647	81.97
723.83	82.63
724.013	83.06
724.197	82.59
724.38	82.37
724.563	82.35
724.746	83.44
724.929	83.61
725.112	82.89
725.296	83.31
725.479	82.81
725.662	83.58
725.845	84.09
726.028	82.57
726.211	83.89
726.394	83.06
726.577	81.91
726.76	80.42
726.943	81.75
727.126	80.51
727.309	80.05
727.492	78.2
727.675	77.06
727.858	76.53
728.041	77.07
728.224	77.14
728.407	77.65
728.589	79.12
728.772	79.14
728.955	78.76
729.138	80.3
729.321	79.94
729.503	82.37
729.686	82.77
729.869	82.51
730.052	82.62
730.234	80.71
730.417	80.5
730.6	80.07
730.782	79.92
730.965	77.68
731.148	76.09
731.33	77.06
731.513	76.06
731.695	76.22
731.878	76.67
732.061	76.46
732.243	77.17
732.426	76.81
732.608	77.07
732.791	78.32
732.973	80.06
733.156	82.38
733.338	81.46
733.52	82.48
733.703	82.99
733.885	83.93
734.068	83.41
734.25	84.01
734.432	83.97
734.615	83.48
734.797	83.61
734.979	82.59
735.162	82.33
735.344	83.91
735.526	83.01
735.708	83.16
735.891	82.9
736.073	83.73
736.255	83.21
736.437	82.31
736.619	82.98
736.802	82.87
736.984	84.84
737.166	86.05
737.348	83.88
737.53	83.01
737.712	82.09
737.894	81.91
738.076	83.5
738.258	83.83
738.44	85.36
738.622	85.29
738.804	83.88
738.986	82.97
739.168	81.45
739.35	83.14
739.532	84.28
739.714	85.01
739.896	83.85
740.078	83.68
740.259	83.91
740.441	83.72
740.623	82.85
740.805	83.31
740.987	83.37
741.168	82.39
741.35	82.94
741.532	83.99
741.714	83.41
741.895	84.22
742.077	83.49
742.259	83.93
742.44	86.02
742.622	87.73
742.804	88.25
742.985	88.95
743.167	89.52
743.348	88.45
743.53	87.23
743.711	89.06
743.893	93.58
744.075	93.92
744.256	92.31
744.438	91.49
744.619	92.21
744.8	90.98
744.982	92.23
745.163	93.34
745.345	93.79
745.526	95.02
745.707	94.29
745.889	89.6
746.07	89.07
746.252	91.19
746.433	91.07
746.614	90.66
746.795	92.62
746.977	92.4
747.158	92.68
747.339	94.26
747.52	93.44
747.702	90.83
747.883	91.64
748.064	93.37
748.245	91.47
748.426	91.09
748.607	91.11
748.788	90.69
748.97	90.96
749.151	91.58
749.332	91.46
749.513	91.07
749.694	93.15
749.875	92.86
750.056	92.06
750.237	93.59
750.418	93.3
750.599	92.84
750.78	93.92
750.96	93.49
751.141	92.75
751.322	91.86
751.503	93.07
751.684	94.63
751.865	95.41
752.046	94.39
752.226	95
752.407	95.97
752.588	95.37
752.769	93.68
752.949	93.42
753.13	93.88
753.311	91.36
753.492	89.98
753.672	89.39
753.853	89.79
754.034	91.71
754.214	92.15
754.395	92.97
754.575	92.29
754.756	93.22
754.937	92.05
755.117	90.61
755.298	93.45
755.478	95.66
755.659	96.72
755.839	97.4
756.02	95.92
756.2	92.59
756.381	92.81
756.561	95.38
756.741	96.34
756.922	96.86
757.102	98.44
757.283	99.14
757.463	98.69
757.643	99.01
757.823	100.11
758.004	100.5
758.184	99.74
758.364	97.73
758.545	96.56
758.725	95.27
758.905	95.61
759.085	95.62
759.265	94.29
759.446	91.46
759.626	90.57
759.806	88.11
759.986	87.6
760.166	88.76
760.346	90.32
760.526	89.65
760.706	91.58
760.886	90.49
761.066	89.3
761.246	88.85
761.426	89.79
761.606	86.62
761.786	85.91
761.966	85.36
762.146	84.92
762.326	84.4
762.506	84.66
762.686	81.94
762.866	81.68
763.046	80.05
763.225	79.46
763.405	77.36
763.585	78.39
763.765	78.41
763.945	76.85
764.124	77.99
764.304	78.02
764.484	77.32
764.664	77.59
764.843	77.91
765.023	79.47
765.203	80.92
765.382	83.87
765.562	84.75
765.741	85.02
765.921	88.07
766.101	86.8
766.28	85.69
766.46	87.2
766.639	88.54
766.819	88.41
766.998	89.67
767.178	89.51
767.357	91.25
767.537	93.03
767.716	94.33
767.896	94.64
768.075	97.17
768.254	97.88
768.434	99.65
768.613	101.34
768.792	101.16
768.972	101.78
769.151	102.03
769.33	101.18
769.51	99.55
769.689	99.09
769.868	99.27
770.047	101.46
770.226	100.25
770.406	99.42
770.585	99.05
770.764	101.62
770.943	101.8
771.122	101.44
771.301	101.78
771.48	102.68
771.66	103.01
771.839	102.16
772.018	100.51
772.197	102.67
772.376	101.94
772.555	100.92
772.734	101.55
772.913	95.53
773.092	95.86
773.271	94.28
773.449	95.96
773.628	99.32
773.807	101.72
773.986	101.98
774.165	100.63
774.344	99.51
774.523	101.76
774.701	102.29
774.88	109.69
775.059	109.59
775.238	110.96
775.417	108.46
775.595	105.77
775.774	101.46
775.953	101.51
776.131	103.69
776.31	106.78
776.489	108.05
776.667	108.57
776.846	108.01
777.025	107.6
777.203	108.95
777.382	112.8
777.56	114.4
777.739	117.38
777.917	117.83
778.096	118.99
778.274	114.6
778.453	111.77
778.631	108.77
778.81	107.96
778.988	109.88
779.166	109.89
779.345	105.12
779.523	104.66
779.702	107.38
779.88	104.57
780.058	102.07
780.237	105.33
780.415	106.3
780.593	107.56
780.771	105
780.95	106.78
781.128	105.89
781.306	112.49
781.484	113.52
781.662	108.23
781.841	112.82
782.019	115.61
782.197	115.03
782.375	114.38
782.553	115.02
782.731	119.31
782.909	118.27
783.087	117.47
783.265	116.05
783.443	114.52
783.621	118.7
783.799	116.28
783.977	117.81
784.155	118.98
784.333	118.17
784.511	121.88
784.689	117.92
784.867	117.2
785.045	117.17
785.223	117.17
785.4	118.36
785.578	116.53
785.756	113.63
785.934	111.89
786.112	110.5
786.289	110.96
786.467	104.43
786.645	106.38
786.823	106.09
787	109
787.178	105.13
787.356	104.13
787.533	105.62
787.711	105.39
787.889	103.04
788.066	102.95
788.244	101.52
788.421	104.31
788.599	104.66
788.776	103.62
788.954	100.61
789.131	102.04
789.309	102.17
789.486	102.03
789.664	103.23
789.841	105.6
790.019	106.8
790.196	109.36
790.373	108.87
790.551	109.56
790.728	110.9
790.906	110.42
791.083	113.1
791.26	116.43
791.437	113.62
791.615	114.21
791.792	114.61
791.969	113.71
792.146	112.83
792.324	115.35
792.501	113.35
792.678	115.25
792.855	119.1
793.032	118.92
793.209	116.42
793.387	121.16
793.564	122.07
793.741	121.68
793.918	120.82
794.095	122.03
794.272	120.02
794.449	123.49
794.626	123.17
794.803	122.52
794.98	121.79
795.157	123.69
795.334	120.41
795.511	119.59
795.688	121.53
795.864	123.2
796.041	122.49
796.218	123.24
796.395	120.12
796.572	121.11
796.749	121.6
796.925	121.33
797.102	122.17
797.279	122.27
797.456	123.98
797.632	122.9
797.809	125.02
797.986	124.01
798.162	123.87
798.339	123.8
798.516	124.25
798.692	126.79
798.869	125.87
799.046	124.13
799.222	127.04
799.399	126.34
799.575	128.63
799.752	124.08
799.928	123.28
800.105	125.82
800.281	127.62
800.458	124.48
800.634	123.52
800.811	121.99
800.987	119.34
801.163	120.75
801.34	125.85
801.516	125.16
801.692	127.77
801.869	130.67
802.045	129.74
802.221	130.69
802.398	132.53
802.574	129
802.75	132.82
802.926	138.39
803.103	134.88
803.279	131.31
803.455	131.95
803.631	131.01
803.807	133.91
803.983	136.7
804.16	139.16
804.336	136.31
804.512	137.77
804.688	135.56
804.864	139.79
805.04	142.99
805.216	147.54
805.392	153.42
805.568	158.94
805.744	158.15
805.92	152.64
806.096	145.79
806.272	152.58
806.448	150.9
806.623	148.1
806.799	143.01
806.975	140.47
807.151	137.19
807.327	132.14
807.503	129.69
807.678	125.93
807.854	125.12
808.03	129.42
808.206	130.37
808.381	133.71
808.557	139.39
808.733	139.64
808.908	141.88
809.084	140.52
809.26	141.98
809.435	141.24
809.611	145.12
809.787	153.37
809.962	151.26
810.138	147.2
810.313	145.67
810.489	144.52
810.664	143.65
810.84	141.43
811.015	143.88
811.191	141.07
811.366	144.95
811.542	144.76
811.717	136.37
811.892	134.04
812.068	133.17
812.243	133.43
812.419	131.2
812.594	130.97
812.769	134.03
812.944	132.21
813.12	135.73
813.295	137.49
813.47	132.93
813.645	133.55
813.821	133.15
813.996	135.85
814.171	136.49
814.346	142.36
814.521	145.77
814.697	145.41
814.872	147.52
815.047	144.3
815.222	137.58
815.397	142.46
815.572	145.66
815.747	151.85
815.922	155.74
816.097	154.82
816.272	155.06
816.447	153.57
816.622	152.1
816.797	153.15
816.972	153.78
817.147	160.19
817.322	154.19
817.496	150.94
817.671	150.2
817.846	142.34
818.021	145.48
818.196	138.95
818.371	138.82
818.545	137.05
818.72	137.46
818.895	128.92
819.069	124.43
819.244	129.99
819.419	125.86
819.594	117.68
819.768	112.58
819.943	104.02
820.117	100.27
820.292	93.42
820.467	87.98
820.641	82.04
820.816	79.33
820.99	75.9
821.165	72.59
821.339	70.27
821.514	68.86
821.688	67.86
821.863	66.6
822.037	65.64
822.212	64.73
822.386	64.88
822.56	64.6
822.735	65.18
822.909	65.16
823.084	65.07
823.258	65.43
823.432	66.64
823.606	67.45
823.781	69.07
823.955	69.81
824.129	71.64
824.303	71.38
824.478	72.74
824.652	74.31
824.826	76.85
825	76.75
825.174	77.31
825.348	75.35
825.523	75.6
825.697	76.17
825.871	77.52
826.045	78.14
826.219	80.27
826.393	81.29
826.567	79.75
826.741	79.25
826.915	80.73
827.089	82.69
827.263	85.07
827.437	85.67
827.611	85.77
827.784	87.8
827.958	88.8
828.132	90.6
828.306	91.07
828.48	94.01
828.654	96.6
828.827	98.12
829.001	99.28
829.175	101.18
829.349	104.13
829.522	107.71
829.696	107.54
829.87	110.6
830.044	112.08
830.217	115.76
830.391	117.74
830.565	119.95
830.738	120.51
830.912	121.56
831.085	122.15
831.259	125.61
831.432	120.9
831.606	122.15
831.779	120
831.953	118.4
832.126	114.11
832.3	109.55
832.473	106.84
832.647	105.62
832.82	103.09
832.994	102.06
833.167	97.99
833.34	95.23
833.514	93.64
833.687	91.18
833.86	88.6
834.034	89.12
834.207	92.28
834.38	91.2
834.553	92.88
834.727	94.02
834.9	94.74
835.073	95.09
835.246	99.75
835.419	102.29
835.593	107.76
835.766	110.11
835.939	114.14
836.112	117.62
836.285	123
836.458	127.64
836.631	133.47
836.804	137.22
836.977	142.42
837.15	149.71
837.323	155.13
837.496	161.24
837.669	166.67
837.842	164.27
838.015	169.14
838.188	160.84
838.361	161.97
838.533	146.63
838.706	143.27
838.879	151.48
839.052	149.25
839.225	149.1
839.398	143.72
839.57	146.58
839.743	139.06
839.916	132.99
840.088	133.08
840.261	130.96
840.434	143.45
840.607	144.65
840.779	142.26
840.952	138
841.124	137.33
841.297	142.79
841.47	141.21
841.642	149.87
841.815	157.6
841.987	166.98
842.16	166.99
842.332	170.15
842.505	179.64
842.677	179.65
842.85	190.21
843.022	195.68
843.194	203.66
843.367	211.65
843.539	208.03
843.712	203.29
843.884	202.31
844.056	208.52
844.229	214.04
844.401	213.21
844.573	214.54
844.745	207.16
844.918	199.34
845.09	206.85
845.262	210.66
845.434	215.43
845.606	210.48
845.779	221.51
845.951	219.87
846.123	226.42
846.295	222.94
846.467	245.57
846.639	245.17
846.811	255.91
846.983	257.73
847.155	274.78
847.327	307.06
847.499	344.98
847.671	335.8
847.843	282.3
848.015	254.44
848.187	246.06
848.359	249.92
848.531	257.08
848.703	254.83
848.875	234.48
849.047	229.14
849.218	211.49
849.39	202.51
849.562	197.03
849.734	223.02
849.905	231.06
850.077	232.52
850.249	204.98
850.421	217.98
850.592	209.64
850.764	209.65
850.936	203.99
851.107	212.44
851.279	203.21
851.451	204.04
851.622	200.97
851.794	193.29
851.965	201.34
852.137	203.41
852.308	201.39
852.48	216.46
852.651	216.58
852.823	210.1
852.994	209.4
853.166	219.84
853.337	223.47
853.509	224.84
853.68	231.1
853.851	228.08
854.023	230.75
854.194	232.51
854.365	219.19
854.537	237.86
854.708	240.43
854.879	242.91
855.05	241.73
855.222	278.73
855.393	266.69
855.564	257.56
855.735	267.27
855.906	286.24
856.078	266.95
856.249	291.69
856.42	266.39
856.591	266.13
856.762	261.35
856.933	274.58
857.104	235.08
857.275	242.47
857.446	248.09
857.617	238.31
857.788	236.18
857.959	239.16
858.13	247.04
858.301	261.27
858.472	266.56
858.643	260.07
858.814	245.82
858.985	258.92
859.155	262.11
859.326	265.58
859.497	293.93
859.668	268.44
859.839	266.25
860.009	251.32
860.18	222.73
860.351	225.27
860.522	228.59
860.692	233.07
860.863	233.55
861.034	233.1
861.204	241.99
861.375	233.32
861.546	245.47
861.716	258.83
861.887	282.58
862.057	308.23
862.228	319.26
862.398	348.06
862.569	376.06
862.739	412.44
862.91	458.14
863.08	479.4
863.251	447.55
863.421	429.55
863.592	403.5
863.762	338.85
863.932	340.51
864.103	343.83
864.273	324.17
864.443	304.16
864.614	290.31
864.784	283.5
864.954	258.65
865.125	267.68
865.295	253.91
865.465	258.16
865.635	283.28
865.805	267.79
865.976	256.76
866.146	237.28
866.316	235.72
866.486	219.56
866.656	212.33
866.826	212.59
866.996	208.92
867.166	205.44
867.336	207.03
867.506	193.3
867.676	204.28
867.846	218.63
868.016	245.84
868.186	255.32
868.356	251.95
868.526	283.21
868.696	282.82
868.866	287.32
869.036	280.74
869.206	278.55
869.376	293.53
869.545	288.57
869.715	260.28
869.885	249.47
870.055	225.04
870.224	226.79
870.394	213.31
870.564	215.02
870.734	218.4
870.903	231.22
871.073	233.04
871.243	231.25
871.412	236.25
871.582	245.72
871.751	256.44
871.921	257.79
872.091	300.47
872.26	289.89
872.43	288.67
872.599	290.59
872.769	280.36
872.938	283.22
873.108	279.47
873.277	261.15
873.446	263.68
873.616	260.34
873.785	264.07
873.955	254.97
874.124	278.83
874.293	301.49
874.463	303.67
874.632	326.97
874.801	316.05
874.971	321.21
875.14	333.17
875.309	314.9
875.478	322.33
875.647	356.58
875.817	376
875.986	366.33
876.155	370.44
876.324	337.43
876.493	334.18
876.662	350.34
876.831	364.31
877	386.45
877.17	389.67
877.339	363.85
877.508	337.41
877.677	352.19
877.846	358.51
878.015	327.01
878.184	332.57
878.352	299.42
878.521	280.62
878.69	260.25
878.859	243.73
879.028	234.72
879.197	228.83
879.366	216.71
879.534	183.31
879.703	168.32
879.872	166.51
880.041	158.5
880.21	157.59
880.378	142.95
880.547	143.51
880.716	136.27
880.884	127.64
881.053	118.92
881.222	114.88
881.39	111.18
881.559	105.91
881.727	100.98
881.896	96.46
882.065	95.71
882.233	98.11
882.402	94.58
882.57	91.92
882.739	89.97
882.907	90.58
883.076	90.72
883.244	89.98
883.412	91.97
883.581	94.81
883.749	97.7
883.918	100.2
884.086	104.01
884.254	108.81
884.423	113.29
884.591	121.75
884.759	124.02
884.927	132.79
885.096	143.04
885.264	156.5
885.432	162.26
885.6	173.32
885.769	178.95
885.937	174.29
886.105	175.52
886.273	191.31
886.441	191.01
886.609	201.41
886.777	205.86
886.945	208.51
887.113	202.02
887.281	197.85
887.449	195.91
887.617	183.91
887.785	188.75
887.953	186.91
888.121	188.78
888.289	191.24
888.457	199.33
888.625	197.28
888.793	187.52
888.961	184.76
889.129	179.96
889.296	186.49
889.464	194.44
889.632	196.14
889.8	203.74
889.967	190.11
890.135	189.1
