Data from JASIL_2995_Reflection_02.txt Node
Date: Mon Nov 09 09:53:11 EST 2015
User: Geneva
Spectrometer: USB4E03002
Autoset integration time: false
Trigger mode: 4
Integration Time (sec): 1.000000E-1
Scans to average: 10
Electric dark correction enabled: false
Nonlinearity correction enabled: false
Boxcar width: 5
Stray light correction enabled: false
XAxis mode: Wavelengths
Stop averaging: false
Number of Pixels in Spectrum: 3648
>>>>>Begin Spectral Data<<<<<
177.575	7.86
177.794	-10.59
178.014	-24.18
178.233	-51.33
178.452	-44.55
178.672	-45.43
178.891	-52.92
179.11	-66.62
179.33	-81.82
179.549	-137.16
179.768	-208.62
179.987	-147.42
180.207	-58.83
180.426	-42.48
180.645	-32.53
180.864	-10.74
181.084	13
181.303	-5.45
181.522	0.67
181.741	-29.78
181.96	-8.73
182.179	19.39
182.398	-10.92
182.618	-29.54
182.837	-23.29
183.056	16.24
183.275	-30.7
183.494	-38.98
183.713	-33.5
183.932	-18.48
184.151	14.18
184.37	3.41
184.589	-4.88
184.808	12.47
185.027	4.65
185.246	-50.27
185.465	-48.67
185.684	-18.93
185.903	-29.08
186.122	-30.6
186.341	-77.62
186.56	-155.72
186.779	-87.73
186.998	-86.88
187.216	-69.69
187.435	-62.54
187.654	-13.35
187.873	-31.17
188.092	-73.07
188.311	-82.53
188.53	-68.02
188.748	-4.93
188.967	-27.32
189.186	-43.33
189.405	-52.37
189.623	-53.06
189.842	-73.81
190.061	-126.74
190.28	-151.64
190.498	-179.28
190.717	-139.78
190.936	-133.09
191.154	-348.36
191.373	-44
191.592	-113.58
191.81	-87.54
192.029	-266.21
192.248	-308.11
192.466	-125.14
192.685	-85.51
192.904	-52.19
193.122	-110.06
193.341	-242.19
193.559	-298.55
193.778	-433.77
193.996	-174.14
194.215	-126.83
194.433	-94.4
194.652	-81.01
194.87	-93.04
195.089	-160
195.307	-178.57
195.526	-107.99
195.744	-85.11
195.963	-98.15
196.181	-144.37
196.399	-191.95
196.618	-231.75
196.836	-263.77
197.055	-239.63
197.273	-241.91
197.491	-194.07
197.71	-156.94
197.928	-178.29
198.146	-136.83
198.365	-164.89
198.583	-89.14
198.801	-95.57
199.019	-93.52
199.238	-97.45
199.456	-87.08
199.674	-82.17
199.892	-61.32
200.111	-100
200.329	-94.68
200.547	-87.16
200.765	-64.71
200.983	-97.76
201.202	-222.61
201.42	-278.99
201.638	-106.97
201.856	-519.72
202.074	1235.14
202.292	926.83
202.51	-180.79
202.728	-143.65
202.946	-117.53
203.165	-154.41
203.383	-174.55
203.601	-206.64
203.819	-358.14
204.037	-285.66
204.255	-189.69
204.473	-111.91
204.691	-150.56
204.909	-219.58
205.127	-219.57
205.345	-244.54
205.562	-533.71
205.78	-154.69
205.998	-43.6
206.216	-52.99
206.434	-71.04
206.652	-72.73
206.87	-88.61
207.088	-120.09
207.306	-113.1
207.523	-112.45
207.741	-94.48
207.959	-58.67
208.177	-141.11
208.395	-161.84
208.612	-96.01
208.83	-70.66
209.048	-34.52
209.266	-95.05
209.483	-47.8
209.701	-7.56
209.919	-18.53
210.136	-107.64
210.354	-62.22
210.572	-10.82
210.79	-20.64
211.007	-8.55
211.225	1.53
211.442	-20.65
211.66	3.35
211.878	-17.22
212.095	-10.95
212.313	-11.34
212.53	8.19
212.748	7.63
212.966	6.03
213.183	8.99
213.401	6.88
213.618	4.24
213.836	4.9
214.053	4.38
214.271	2.45
214.488	3.89
214.705	2.02
214.923	-9.83
215.14	-20.78
215.358	-48.42
215.575	-42.32
215.793	-67.1
216.01	-53.66
216.227	-65.33
216.445	-76.13
216.662	-52.08
216.879	-50.92
217.097	-67.68
217.314	-54.74
217.531	-93.9
217.749	-77.78
217.966	-54.66
218.183	-77.53
218.4	-281.86
218.618	-211.33
218.835	-132.8
219.052	-525
219.269	-1222.81
219.487	-461.99
219.704	-1549.21
219.921	1447.37
220.138	1433.33
220.355	979.45
220.572	0
220.79	-1415.15
221.007	-339.39
221.224	-333.82
221.441	-86.91
221.658	-101.66
221.875	-130.52
222.092	-55.65
222.309	-46.46
222.526	-54
222.743	-65.47
222.96	-58.69
223.177	-48.9
223.394	-54.45
223.611	-86.44
223.828	-223.55
224.045	-204.9
224.262	-102.51
224.479	-96.79
224.696	-87.96
224.913	-87.13
225.13	-95.17
225.347	-79.5
225.564	-68.07
225.781	-62
225.997	-44.54
226.214	-13.09
226.431	2.69
226.648	-8.04
226.865	-9.78
227.082	-8.21
227.298	-18.1
227.515	-11
227.732	-17.15
227.949	-15.29
228.165	-9.79
228.382	-7.07
228.599	-9.32
228.816	-8.96
229.032	-10.77
229.249	-11.82
229.466	-19.18
229.682	-22.01
229.899	-28.83
230.116	-35.34
230.332	-52.95
230.549	-78.69
230.765	-128.28
230.982	-116.88
231.199	-114.9
231.415	-73.74
231.632	-77.84
231.848	-73.14
232.065	-53.75
232.281	-65.56
232.498	-44.96
232.714	-25.23
232.931	-24.43
233.147	-13.38
233.364	-23.66
233.58	-17.12
233.797	-29.18
234.013	-27.62
234.23	-32.89
234.446	-26.78
234.662	0.89
234.879	-15.44
235.095	-13.86
235.312	-7.38
235.528	-6.6
235.744	1.44
235.961	-1.29
236.177	-0.06
236.393	-0.06
236.61	-3.21
236.826	-6.38
237.042	-11.87
237.258	-9.32
237.475	-7.2
237.691	-5.34
237.907	-6.81
238.123	-17.68
238.339	-22.09
238.556	-14.89
238.772	-32.69
238.988	-22.26
239.204	-20.93
239.42	-15.84
239.636	1.13
239.853	0.09
240.069	-4.17
240.285	-8.09
240.501	-0.82
240.717	-0.29
240.933	-3.17
241.149	-0.34
241.365	-3.67
241.581	-8.11
241.797	-12.09
242.013	-17.78
242.229	-18.99
242.445	-17.74
242.661	-15.67
242.877	-21.64
243.093	-29.53
243.309	-31.07
243.525	-33.43
243.741	-24.17
243.957	-19.9
244.173	-14.01
244.388	-17.32
244.604	-13.21
244.82	-12.5
245.036	-10.81
245.252	-5.07
245.468	-2.33
245.683	-2.47
245.899	-0.34
246.115	-3.26
246.331	-4
246.547	-5.91
246.762	-2.36
246.978	-5.21
247.194	-3.25
247.409	-4.23
247.625	-7.03
247.841	-5.85
248.057	-6.41
248.272	-8.51
248.488	-7.09
248.703	-4.97
248.919	-8.7
249.135	-13.16
249.35	-9.21
249.566	-9.26
249.782	-6.22
249.997	-4.34
250.213	-9.23
250.428	-7.26
250.644	-6.93
250.859	-6.31
251.075	-3.37
251.29	-1.78
251.506	0.55
251.721	1.43
251.937	-0.47
252.152	-1.89
252.368	-5.36
252.583	-3.54
252.798	-3.71
253.014	5.88
253.229	10.12
253.445	4.15
253.66	5.13
253.875	1.27
254.091	2
254.306	2.5
254.521	7.45
254.737	7.86
254.952	14.95
255.167	15.12
255.383	6.62
255.598	4.42
255.813	5.03
256.028	3.09
256.244	-1.84
256.459	-4.88
256.674	-0.38
256.889	-4.19
257.104	-5.89
257.32	-8.71
257.535	-7.44
257.75	-5.31
257.965	-4.83
258.18	-1.94
258.395	1.07
258.61	3.4
258.826	2.27
259.041	0.89
259.256	-2.1
259.471	-0.04
259.686	1.77
259.901	-0.13
260.116	-1.98
260.331	-4.52
260.546	-7.07
260.761	-11.03
260.976	-17.22
261.191	-14.6
261.406	-14.34
261.621	-5.35
261.836	-7.21
262.05	-13.02
262.265	-8.09
262.48	-7.94
262.695	-5.67
262.91	-5.96
263.125	-5.98
263.34	-3.25
263.555	0.35
263.769	-1.75
263.984	-3.7
264.199	-11.75
264.414	-10.96
264.629	-8.11
264.843	-4.17
265.058	-4.87
265.273	-4.98
265.488	-3.14
265.702	-2.34
265.917	-4.37
266.132	-5.27
266.346	-4.58
266.561	6.87
266.776	6.42
266.99	2.98
267.205	4.72
267.42	5.47
267.634	4.43
267.849	2.41
268.063	2.81
268.278	0.15
268.492	2.8
268.707	1.67
268.922	-2.46
269.136	-1.54
269.351	-0.09
269.565	-0.96
269.78	-0.15
269.994	3.4
270.209	3.66
270.423	4.25
270.637	6.26
270.852	5.8
271.066	6.53
271.281	6.61
271.495	8.39
271.709	6.08
271.924	2.86
272.138	1.93
272.353	1.31
272.567	1.84
272.781	1.36
272.996	2.05
273.21	-0.74
273.424	-4.76
273.638	-9.92
273.853	-9.94
274.067	-6.28
274.281	-3.84
274.495	-4.67
274.71	-4.59
274.924	-4.22
275.138	-5.97
275.352	-6.53
275.566	-5.01
275.781	-3.61
275.995	1.67
276.209	1.26
276.423	-3.34
276.637	-3.41
276.851	-1.37
277.065	-5.16
277.279	-5.14
277.493	-3.74
277.707	-4.14
277.921	-4.72
278.135	-1.98
278.349	-5.35
278.563	-6.75
278.777	-3.69
278.991	-3.34
279.205	-8.12
279.419	-6.98
279.633	-10.27
279.847	-11.64
280.061	-14.98
280.275	-10.4
280.489	-9.67
280.703	-6.76
280.917	-6.07
281.131	-3.74
281.344	-1.35
281.558	-0.52
281.772	-0.66
281.986	0.39
282.2	0.65
282.414	3.06
282.627	1.56
282.841	2.01
283.055	-1.02
283.269	-0.41
283.482	-0.88
283.696	-2.8
283.91	-0.26
284.123	-1.72
284.337	-0.2
284.551	1.79
284.764	3.45
284.978	5.67
285.192	4.79
285.405	6.23
285.619	4.02
285.833	3.31
286.046	-0.13
286.26	-2.23
286.473	-2.3
286.687	-3.41
286.9	-4.49
287.114	-9.08
287.327	-12.61
287.541	-13.51
287.754	-16.09
287.968	-15.09
288.181	-17.74
288.395	-16.62
288.608	-17.32
288.822	-14.59
289.035	-14.17
289.248	-14.42
289.462	-13.17
289.675	-12.65
289.889	-13.21
290.102	-9.93
290.315	-8.37
290.529	-8.84
290.742	-6.86
290.955	-5.44
291.169	-4.52
291.382	-5.17
291.595	-8.34
291.808	-6.89
292.022	-6.16
292.235	-1.68
292.448	-2.02
292.661	-3.9
292.875	-1.34
293.088	-0.99
293.301	1.61
293.514	0.24
293.727	0.31
293.94	2.65
294.153	3.14
294.367	2.64
294.58	-1.25
294.793	-2.31
295.006	-4.24
295.219	-1.74
295.432	-3
295.645	-3.13
295.858	-3.65
296.071	-3.13
296.284	-2.69
296.497	-3.46
296.71	-2.92
296.923	-0.07
297.136	0.94
297.349	5.61
297.562	4.9
297.775	5.37
297.988	6.82
298.201	7.93
298.414	8.43
298.626	9.17
298.839	9.21
299.052	9.39
299.265	8.48
299.478	8.5
299.691	7.8
299.903	7.19
300.116	8.14
300.329	5.97
300.542	7.43
300.755	7.21
300.967	8.31
301.18	8.2
301.393	6.73
301.605	7.59
301.818	7.02
302.031	6.82
302.243	7.28
302.456	5.5
302.669	6.45
302.881	5.05
303.094	5.21
303.307	4.98
303.519	1.73
303.732	2.84
303.944	1.61
304.157	1.72
304.37	-0.52
304.582	-2.53
304.795	2.33
305.007	0.87
305.22	0.12
305.432	-1.26
305.645	-2.86
305.857	0.7
306.069	0.66
306.282	0.59
306.494	1.95
306.707	1.19
306.919	3.1
307.132	0.97
307.344	0.06
307.556	0.41
307.769	2.98
307.981	1.01
308.193	0.83
308.406	-0.58
308.618	1.11
308.83	1.55
309.043	3.81
309.255	3.36
309.467	2.06
309.679	1.55
309.892	2.3
310.104	1.43
310.316	0.75
310.528	3.02
310.74	3.92
310.953	2.6
311.165	4.28
311.377	1.78
311.589	0.84
311.801	-1.16
312.013	0.94
312.225	2.25
312.437	3.15
312.649	4.61
312.862	2.06
313.074	0.02
313.286	1.32
313.498	-4.31
313.71	-4.47
313.922	-3.97
314.134	-0.29
314.346	-0.55
314.558	-1.55
314.77	-2.76
314.982	-0.14
315.193	1.93
315.405	1.72
315.617	1.28
315.829	2.46
316.041	2.9
316.253	1.4
316.465	1.52
316.677	2.02
316.888	1.89
317.1	2.22
317.312	-0.06
317.524	1.16
317.736	3.53
317.947	1.46
318.159	2.73
318.371	4.81
318.583	5.91
318.794	3.45
319.006	2.16
319.218	-0.51
319.43	0.95
319.641	1.55
319.853	0.72
320.064	-0.35
320.276	-2.97
320.488	-4.67
320.699	-3.01
320.911	-2.47
321.123	1.92
321.334	2.17
321.546	4.37
321.757	-0.42
321.969	-0.32
322.18	-1.08
322.392	0.86
322.603	3.09
322.815	5.31
323.026	4.23
323.238	5.12
323.449	3.37
323.661	1.12
323.872	-1.62
324.083	4.3
324.295	3.55
324.506	4.41
324.718	3.94
324.929	6.78
325.14	5.42
325.352	7.44
325.563	8.68
325.774	8.02
325.986	9.62
326.197	11.19
326.408	7.42
326.62	6.86
326.831	8.48
327.042	7.49
327.253	4.76
327.464	6.91
327.676	8.33
327.887	9.02
328.098	10.2
328.309	12.45
328.52	13.2
328.732	16.03
328.943	17.05
329.154	12.17
329.365	16.31
329.576	17.64
329.787	17.31
329.998	13.36
330.209	10.19
330.42	10.28
330.631	9.02
330.842	7.16
331.053	6.76
331.264	5.68
331.475	6.54
331.686	4.2
331.897	5.7
332.108	5.19
332.319	7.49
332.53	8.37
332.741	9.5
332.952	10
333.163	10.49
333.374	11.44
333.585	11.5
333.795	12.59
334.006	14.91
334.217	14.39
334.428	15.29
334.639	14.43
334.849	13.88
335.06	14.57
335.271	14.3
335.482	15.25
335.692	13.74
335.903	17.55
336.114	16.56
336.325	15.07
336.535	13.15
336.746	13.29
336.957	14.47
337.167	14.38
337.378	13.71
337.589	13.74
337.799	12.52
338.01	12.35
338.22	10.34
338.431	10.19
338.642	9.41
338.852	9.18
339.063	6.84
339.273	7.63
339.484	9.6
339.694	7.85
339.905	9.08
340.115	12.13
340.326	11.42
340.536	9.43
340.746	11.12
340.957	12.7
341.167	17.4
341.378	16.8
341.588	13.52
341.799	13.64
342.009	14.5
342.219	12.45
342.43	12.69
342.64	14.14
342.85	18.51
343.061	16.74
343.271	16.33
343.481	13.75
343.691	14.63
343.902	16.54
344.112	16.6
344.322	15.65
344.532	16.64
344.743	15.05
344.953	14.08
345.163	12.84
345.373	11.69
345.583	10.79
345.793	8.22
346.004	9.93
346.214	8.91
346.424	7.37
346.634	6.69
346.844	5.24
347.054	4.82
347.264	2.97
347.474	2.91
347.684	6.31
347.894	7.32
348.104	9.87
348.314	7.51
348.524	7.92
348.734	10.74
348.944	12.6
349.154	13.8
349.364	14.24
349.574	17.12
349.784	16.22
349.994	17.33
350.204	15.66
350.413	15.15
350.623	18.4
350.833	18.36
351.043	14.7
351.253	14.53
351.463	14.37
351.672	13.53
351.882	14.3
352.092	16.27
352.302	14.12
352.511	16.74
352.721	17.3
352.931	16.94
353.141	14.44
353.35	17.05
353.56	18.81
353.77	18.1
353.979	19.52
354.189	19.39
354.399	17.83
354.608	18.78
354.818	16.85
355.027	15.82
355.237	15.07
355.447	18.6
355.656	16.85
355.866	15.62
356.075	15.38
356.285	14.45
356.494	11.45
356.704	9.93
356.913	10.05
357.123	10.13
357.332	10.1
357.542	9.74
357.751	8.5
357.96	9
358.17	9.33
358.379	9.1
358.589	9.81
358.798	12.26
359.007	14.16
359.217	12.32
359.426	12.5
359.635	12.72
359.845	12.17
360.054	10.84
360.263	10.95
360.472	10.55
360.682	11.1
360.891	11.44
361.1	10.76
361.309	10.33
361.519	10.32
361.728	10.5
361.937	11.49
362.146	12.73
362.355	13.59
362.564	13.28
362.774	13.13
362.983	13.83
363.192	14.07
363.401	15.79
363.61	17.08
363.819	17.81
364.028	15.98
364.237	15.43
364.446	15.36
364.655	16.11
364.864	18.81
365.073	18.4
365.282	17.9
365.491	17.14
365.7	16.16
365.909	14.04
366.118	14.99
366.327	15.73
366.536	15.75
366.745	15.22
366.954	15.58
367.162	13.74
367.371	14.67
367.58	13.4
367.789	13.42
367.998	13.36
368.207	14.04
368.415	14.47
368.624	14.45
368.833	14.77
369.042	14.22
369.25	12.61
369.459	12.5
369.668	12.88
369.877	13.16
370.085	13.36
370.294	13.18
370.503	11.47
370.711	10.64
370.92	10.71
371.129	11.14
371.337	11.71
371.546	12.66
371.754	12.27
371.963	10.58
372.171	10.92
372.38	9.66
372.589	8.46
372.797	9.02
373.006	10.88
373.214	11.44
373.423	11.78
373.631	11.18
373.84	11.42
374.048	12.5
374.256	12.54
374.465	13.19
374.673	13.04
374.882	12.97
375.09	13.67
375.298	11.27
375.507	11.49
375.715	10.59
375.923	10.85
376.132	10.36
376.34	9.17
376.548	10.85
376.757	9.52
376.965	10.38
377.173	12.05
377.381	10.82
377.59	11.63
377.798	12.67
378.006	11.75
378.214	11.25
378.423	12.19
378.631	12.97
378.839	12.14
379.047	13.03
379.255	12.74
379.463	10.94
379.671	10.88
379.879	10.79
380.088	8.78
380.296	8.4
380.504	9.61
380.712	7.53
380.92	7.27
381.128	7.46
381.336	7.99
381.544	9.54
381.752	10.35
381.96	11.69
382.168	10.99
382.376	11.24
382.584	10.84
382.791	9.78
382.999	10.14
383.207	9.47
383.415	8.82
383.623	8.5
383.831	7.73
384.039	6.55
384.247	6.66
384.454	6.86
384.662	7.22
384.87	9.37
385.078	8.82
385.285	10.59
385.493	11.58
385.701	11.89
385.909	12
386.116	10.93
386.324	12.43
386.532	13.16
386.739	14.44
386.947	15.12
387.155	14.64
387.362	15.31
387.57	13.11
387.778	13.28
387.985	13.56
388.193	13.18
388.4	13.96
388.608	13.52
388.816	11.86
389.023	9.74
389.231	9.4
389.438	9.29
389.646	9.74
389.853	11.78
390.061	11.3
390.268	10.02
390.475	10.85
390.683	10.66
390.89	11.42
391.098	12.16
391.305	13.45
391.512	14.04
391.72	13.74
391.927	12.73
392.135	12.4
392.342	11.99
392.549	13.16
392.756	12.62
392.964	12.96
393.171	12.38
393.378	11.04
393.586	10.82
393.793	9.61
394	9.96
394.207	11.18
394.414	11.32
394.622	10.81
394.829	9.99
395.036	9.86
395.243	9.67
395.45	9.88
395.657	10.3
395.864	9.36
396.072	9.7
396.279	10.29
396.486	9.21
396.693	8.59
396.9	10.49
397.107	10.63
397.314	9.41
397.521	8.9
397.728	9.09
397.935	9.85
398.142	9.98
398.349	8.9
398.556	7.84
398.763	8.21
398.97	7.62
399.177	6.38
399.383	6.73
399.59	6.95
399.797	6.86
400.004	6.85
400.211	6.25
400.418	7.43
400.625	9.03
400.831	9.05
401.038	9.46
401.245	8.58
401.452	8.56
401.658	9.01
401.865	10.04
402.072	10.08
402.279	9.86
402.485	10
402.692	9.16
402.899	9.58
403.105	10.1
403.312	9.58
403.519	10.47
403.725	10.16
403.932	9.77
404.138	8.57
404.345	8.81
404.552	8.08
404.758	8.01
404.965	9.22
405.171	9.14
405.378	9.25
405.584	9.45
405.791	10.53
405.997	11.38
406.204	11.35
406.41	11.39
406.617	11.51
406.823	12.09
407.029	13.53
407.236	12.49
407.442	12.78
407.649	12.2
407.855	11.66
408.061	11.94
408.268	11.44
408.474	11.09
408.68	12.3
408.887	12.59
409.093	13
409.299	12.66
409.505	12.87
409.712	11.47
409.918	11.52
410.124	11.4
410.33	10.86
410.537	11.73
410.743	11.17
410.949	10.41
411.155	10.19
411.361	10.66
411.567	9.86
411.773	10.78
411.98	11.03
412.186	11.27
412.392	11.75
412.598	11.25
412.804	9.93
413.01	10.38
413.216	11.43
413.422	11.23
413.628	9.7
413.834	10.45
414.04	9.22
414.246	9.78
414.452	9.31
414.658	8.63
414.864	8.1
415.07	8.34
415.275	8.74
415.481	8.77
415.687	8.17
415.893	8.99
416.099	8.37
416.305	8.68
416.511	8.16
416.716	7.89
416.922	8.78
417.128	8.97
417.334	9.03
417.539	8.96
417.745	9.25
417.951	9.41
418.157	9.07
418.362	9.34
418.568	9.16
418.774	9.56
418.979	10.1
419.185	9.75
419.391	9.89
419.596	9.84
419.802	10.04
420.008	10.09
420.213	10.15
420.419	10.44
420.624	10.15
420.83	10.36
421.035	10.39
421.241	9.81
421.446	9.48
421.652	9.59
421.857	9.3
422.063	9.13
422.268	8.44
422.474	7.89
422.679	7.92
422.885	7.89
423.09	7.81
423.295	7.47
423.501	7.61
423.706	8.26
423.911	8.03
424.117	8.42
424.322	8.58
424.527	8.94
424.733	9.4
424.938	8.96
425.143	8.98
425.349	8.88
425.554	9.59
425.759	9.83
425.964	8.98
426.169	9.06
426.375	8.91
426.58	8.58
426.785	8.1
426.99	8.21
427.195	9.45
427.4	10.04
427.605	9.88
427.811	9.65
428.016	9.83
428.221	11.71
428.426	11.1
428.631	11.01
428.836	10.3
429.041	11
429.246	11.29
429.451	9.54
429.656	9.19
429.861	8.53
430.066	7.72
430.271	7.9
430.476	6.13
430.681	6.84
430.886	7.37
431.09	8.1
431.295	7.47
431.5	7.51
431.705	7.79
431.91	8.01
432.115	8.31
432.32	9.11
432.524	8.71
432.729	8.95
432.934	8.45
433.139	8.59
433.343	8.59
433.548	8.78
433.753	8.31
433.958	8.35
434.162	8.7
434.367	9.32
434.572	8.97
434.776	9.24
434.981	8.63
435.186	9
435.39	9.07
435.595	9.09
435.799	8.37
436.004	8.82
436.209	9.68
436.413	9.67
436.618	9.56
436.822	8.69
437.027	8.61
437.231	9.56
437.436	9.75
437.64	9.09
437.845	8.32
438.049	9.09
438.253	8.81
438.458	8.54
438.662	7.4
438.867	7.33
439.071	7.85
439.275	7.79
439.48	7.53
439.684	6.98
439.888	7.19
440.093	7.49
440.297	7.71
440.501	7.96
440.706	7.7
440.91	8.15
441.114	7.82
441.318	8.09
441.523	8.17
441.727	8.37
441.931	8.74
442.135	8.71
442.339	8.88
442.543	8.96
442.748	8.75
442.952	8.5
443.156	7.95
443.36	7.98
443.564	7.01
443.768	6.91
443.972	6.52
444.176	6.78
444.38	6.57
444.584	6.8
444.788	6.04
444.992	6.36
445.196	6.47
445.4	7.41
445.604	7.9
445.808	8.37
446.012	8.76
446.216	9.34
446.42	9.48
446.624	9.62
446.828	9.68
447.032	9.83
447.235	9.5
447.439	9.63
447.643	9.67
447.847	9.33
448.051	9.06
448.254	8.79
448.458	8.55
448.662	8.29
448.866	8.1
449.069	8.2
449.273	8.32
449.477	8.72
449.681	8.82
449.884	8.67
450.088	8.27
450.292	8.68
450.495	8.73
450.699	8.96
450.902	8.68
451.106	9.06
451.31	9.1
451.513	9.38
451.717	9.17
451.92	9.28
452.124	8.88
452.327	9.36
452.531	9.21
452.734	8.49
452.938	8.36
453.141	8.72
453.345	8.38
453.548	8
453.752	8.73
453.955	9.25
454.158	8.41
454.362	8.86
454.565	9.32
454.769	9.72
454.972	9.94
455.175	10.18
455.379	10.05
455.582	10.28
455.785	10.38
455.988	8.53
456.192	7.95
456.395	8.69
456.598	8.15
456.801	6.95
457.005	6.95
457.208	7.19
457.411	6.47
457.614	6.65
457.817	6.23
458.021	6.15
458.224	6.94
458.427	6.57
458.63	6.91
458.833	6.43
459.036	6.85
459.239	6.79
459.442	7.25
459.645	7.85
459.848	7.53
460.051	8.27
460.254	8.72
460.457	8.52
460.66	8.92
460.863	8.32
461.066	8.92
461.269	8.97
461.472	9.06
461.675	8.62
461.878	7.82
462.081	8.16
462.284	7.76
462.486	7
462.689	7.22
462.892	6.94
463.095	7.13
463.298	6.96
463.5	7.24
463.703	6.87
463.906	7.16
464.109	8.16
464.311	8.69
464.514	8.47
464.717	8.63
464.92	8.55
465.122	8.95
465.325	9.05
465.528	9.9
465.73	9.93
465.933	10.23
466.135	9.37
466.338	8.79
466.541	8.83
466.743	8.84
466.946	9.51
467.148	9.54
467.351	10.01
467.553	9.57
467.756	8.92
467.958	9.03
468.161	8.92
468.363	9.31
468.566	9.6
468.768	8.52
468.971	8.5
469.173	7.97
469.375	7.86
469.578	6.96
469.78	7.23
469.983	6.72
470.185	6.42
470.387	6.04
470.59	6.32
470.792	5.64
470.994	6.04
471.196	6.23
471.399	6.74
471.601	7.29
471.803	7.55
472.005	7.14
472.208	8.09
472.41	7.77
472.612	8.35
472.814	8.02
473.016	8.29
473.218	8.7
473.421	8.77
473.623	7.93
473.825	7.69
474.027	7.74
474.229	8.41
474.431	8.23
474.633	8.46
474.835	8.29
475.037	8.74
475.239	8.99
475.441	9
475.643	9.04
475.845	9.92
476.047	10
476.249	10.16
476.451	9.97
476.653	9.59
476.855	9.63
477.057	9.16
477.258	8.96
477.46	9.42
477.662	9.1
477.864	9.61
478.066	8.88
478.268	8.78
478.469	8.93
478.671	9.28
478.873	9.31
479.075	9.15
479.276	9.64
479.478	9.45
479.68	8.78
479.882	8.73
480.083	8.01
480.285	8.05
480.487	8.06
480.688	7.84
480.89	7.47
481.091	7.43
481.293	7.88
481.495	7.75
481.696	7.98
481.898	8.27
482.099	8.35
482.301	8.49
482.502	8.48
482.704	8.38
482.905	8.28
483.107	8.48
483.308	8.59
483.51	8.65
483.711	8.65
483.913	8.69
484.114	8.57
484.315	8.37
484.517	8.4
484.718	8.52
484.92	8.39
485.121	8.36
485.322	8.36
485.524	8.52
485.725	7.89
485.926	7.87
486.127	7.44
486.329	7.43
486.53	7.77
486.731	7.71
486.932	7.86
487.134	7.91
487.335	8.12
487.536	8.05
487.737	7.84
487.938	8.18
488.139	8.46
488.341	9.07
488.542	9.15
488.743	8.97
488.944	9.01
489.145	8.52
489.346	8.76
489.547	8.71
489.748	8.61
489.949	8.76
490.15	9.03
490.351	8.9
490.552	8.61
490.753	8.78
490.954	8.86
491.155	8.84
491.356	9.1
491.557	9.04
491.758	9.12
491.959	9.17
492.159	9.02
492.36	8.64
492.561	8.79
492.762	9.18
492.963	9
493.164	8.85
493.364	8.97
493.565	9.11
493.766	9.37
493.967	9.64
494.167	9.7
494.368	9.63
494.569	10.02
494.769	9.82
494.97	9.55
495.171	9.28
495.371	9.39
495.572	9.25
495.773	9.29
495.973	9.23
496.174	9.53
496.375	9.49
496.575	9.48
496.776	9.62
496.976	9.7
497.177	9.97
497.377	10.28
497.578	10.2
497.778	10.4
497.979	10.04
498.179	10.04
498.38	9.45
498.58	9.83
498.78	10.39
498.981	10.07
499.181	9.79
499.382	9.54
499.582	9.52
499.782	9.65
499.983	9.43
500.183	9.51
500.383	9.34
500.584	8.71
500.784	8.71
500.984	8.53
501.184	8.63
501.385	8.98
501.585	8.74
501.785	8.32
501.985	8.48
502.185	9.07
502.386	9.5
502.586	9.75
502.786	10.27
502.986	10.41
503.186	9.98
503.386	10.18
503.586	10.37
503.786	10.65
503.987	11.19
504.187	11.49
504.387	11.19
504.587	10.69
504.787	11.16
504.987	11.64
505.187	11.19
505.387	11.59
505.587	10.84
505.786	10.41
505.986	10.41
506.186	10.36
506.386	10.01
506.586	10.38
506.786	11.45
506.986	11.24
507.186	10.9
507.386	11.05
507.585	11.33
507.785	11.98
507.985	12.19
508.185	12.66
508.384	12.44
508.584	12.75
508.784	12.43
508.984	12.18
509.183	11.79
509.383	12.05
509.583	12.23
509.782	11.9
509.982	11.81
510.182	11.89
510.381	11.65
510.581	12.02
510.781	12.07
510.98	11.98
511.18	12.19
511.379	12.49
511.579	12.13
511.778	12.38
511.978	12.72
512.177	13.13
512.377	13.27
512.576	13.82
512.776	14.06
512.975	13.91
513.175	14.28
513.374	14.11
513.573	14.17
513.773	14.56
513.972	14.43
514.172	14.27
514.371	13.91
514.57	13.92
514.77	13.72
514.969	13.35
515.168	13.46
515.367	13.21
515.567	12.83
515.766	12.7
515.965	12.89
516.164	12.73
516.364	13.08
516.563	13.69
516.762	13.51
516.961	13.35
517.16	14.05
517.359	14.06
517.559	14.32
517.758	14.78
517.957	15.1
518.156	14.72
518.355	15.11
518.554	14.82
518.753	14.88
518.952	15.21
519.151	15.25
519.35	14.88
519.549	15.2
519.748	15.37
519.947	15.43
520.146	15.32
520.345	16.37
520.544	16.43
520.743	16.45
520.942	16.53
521.141	17.07
521.339	17.47
521.538	17.34
521.737	17.29
521.936	17.54
522.135	17.33
522.333	16.9
522.532	17.09
522.731	16.88
522.93	17.1
523.129	16.64
523.327	16.38
523.526	15.77
523.725	15.73
523.923	15.88
524.122	15.35
524.321	15.4
524.519	15.81
524.718	15.27
524.917	15.38
525.115	15.68
525.314	15.62
525.512	15.88
525.711	16.16
525.909	16.32
526.108	16.17
526.306	16.13
526.505	16.08
526.703	16.26
526.902	16.44
527.1	16.32
527.299	16.22
527.497	16.35
527.696	16.18
527.894	16.36
528.092	16.51
528.291	16.29
528.489	16.55
528.688	16.55
528.886	16.56
529.084	16.53
529.283	16.66
529.481	16.72
529.679	16.85
529.877	17.17
530.076	16.87
530.274	16.96
530.472	17.71
530.67	17.91
530.869	18.07
531.067	17.9
531.265	17.74
531.463	17.66
531.661	17.66
531.859	17.56
532.057	17.51
532.255	17.53
532.454	17.36
532.652	17.34
532.85	17.22
533.048	17.19
533.246	17.44
533.444	17.87
533.642	18.26
533.84	18.5
534.038	18.61
534.236	18.5
534.434	18.73
534.632	18.69
534.83	19.04
535.027	19.15
535.225	19.06
535.423	18.92
535.621	18.81
535.819	18.55
536.017	18.49
536.215	18.67
536.412	18.38
536.61	18.94
536.808	19.14
537.006	18.39
537.203	18.64
537.401	19.38
537.599	19.54
537.797	19.44
537.994	19.67
538.192	19.57
538.39	19.43
538.587	20.03
538.785	19.83
538.983	20.11
539.18	20.45
539.378	19.83
539.575	19.43
539.773	19.4
539.97	19.28
540.168	19.38
540.366	19.42
540.563	19.26
540.761	18.92
540.958	18.78
541.155	18.43
541.353	18.22
541.55	18.55
541.748	18.68
541.945	18.62
542.143	18.81
542.34	18.76
542.537	18.68
542.735	19.07
542.932	19.64
543.129	19.55
543.327	19.81
543.524	20.17
543.721	19.93
543.919	20.13
544.116	20.36
544.313	20.59
544.51	20.86
544.708	20.76
544.905	20.73
545.102	20.52
545.299	20.93
545.496	21.28
545.693	21.5
545.891	21.89
546.088	21.7
546.285	22.27
546.482	22.38
546.679	22.24
546.876	22.41
547.073	22.38
547.27	22.72
547.467	23.14
547.664	22.95
547.861	22.47
548.058	22.42
548.255	22.06
548.452	21.72
548.649	21.53
548.846	21.2
549.043	21.58
549.24	21.83
549.437	22.02
549.633	21.74
549.83	21.43
550.027	22.13
550.224	22.64
550.421	22.76
550.618	22.26
550.814	22.15
551.011	22.57
551.208	22.97
551.405	22.63
551.601	22.54
551.798	22.18
551.995	22.78
552.191	22.02
552.388	21.88
552.585	22.18
552.781	21.9
552.978	21.85
553.175	22.45
553.371	22.76
553.568	23.44
553.764	23
553.961	23.7
554.157	23.13
554.354	23.8
554.55	24
554.747	24.77
554.943	25.97
555.14	27.23
555.336	27.18
555.533	26.25
555.729	26.38
555.926	27.02
556.122	26.93
556.318	27.77
556.515	27.41
556.711	27.39
556.907	27.34
557.104	26.81
557.3	26.42
557.496	26.18
557.693	26.82
557.889	26.47
558.085	26.38
558.281	26.48
558.478	26.36
558.674	27.29
558.87	27.6
559.066	26.9
559.262	26.95
559.459	26.02
559.655	26.52
559.851	26.24
560.047	26.41
560.243	26.21
560.439	25.77
560.635	25.49
560.831	25.5
561.027	25.59
561.223	26.15
561.419	26.74
561.615	27.02
561.811	26.37
562.007	26.04
562.203	25.87
562.399	25.66
562.595	25.93
562.791	25.53
562.987	25.41
563.183	25.62
563.379	25.47
563.575	25.05
563.771	25.39
563.966	25.27
564.162	25.86
564.358	26.24
564.554	26.33
564.75	26.67
564.945	26.85
565.141	26.7
565.337	26.4
565.533	26.61
565.728	26.92
565.924	26.86
566.12	26.81
566.315	26.96
566.511	26.24
566.707	26.55
566.902	26.23
567.098	26.32
567.293	26.47
567.489	26.52
567.684	25.68
567.88	25.75
568.076	25.88
568.271	25.95
568.467	25.66
568.662	26.08
568.858	26.33
569.053	26.61
569.248	26.69
569.444	25.85
569.639	25.84
569.835	26.39
570.03	26.44
570.225	26.22
570.421	26.6
570.616	26.67
570.812	25.91
571.007	26
571.202	25.8
571.397	25.92
571.593	26.77
571.788	26.76
571.983	26.91
572.178	26.75
572.374	26.62
572.569	26.18
572.764	26.36
572.959	27.11
573.154	26.46
573.35	26.53
573.545	26.27
573.74	26.04
573.935	25.82
574.13	26.03
574.325	26.09
574.52	26.39
574.715	26.54
574.91	26.22
575.105	26.95
575.3	26.99
575.495	26.62
575.69	26.72
575.885	26.96
576.08	27.39
576.275	27.23
576.47	27.27
576.665	28.59
576.86	29.22
577.055	29.59
577.25	28.92
577.444	29.68
577.639	30.52
577.834	30.61
578.029	30.74
578.224	29.89
578.418	30.51
578.613	30.31
578.808	29.03
579.003	28.9
579.197	29.13
579.392	29.22
579.587	28.72
579.781	28.29
579.976	28.73
580.171	28.76
580.365	29.54
580.56	29.12
580.755	29.87
580.949	30.2
581.144	30.19
581.338	31.21
581.533	32.08
581.727	32.11
581.922	32.5
582.116	32.42
582.311	32.22
582.505	32.69
582.7	32.97
582.894	32.05
583.089	32.23
583.283	32.06
583.478	31.84
583.672	30.84
583.866	31.13
584.061	31.27
584.255	31.16
584.449	30.74
584.644	30.33
584.838	30.05
585.032	31.1
585.226	31.19
585.421	31.76
585.615	30.75
585.809	31.05
586.003	30.84
586.198	30.03
586.392	30.33
586.586	31.11
586.78	31.04
586.974	31.48
587.168	31.27
587.363	30.51
587.557	30.54
587.751	30.38
587.945	29.99
588.139	30.24
588.333	30.52
588.527	30.66
588.721	30.5
588.915	30.38
589.109	30.35
589.303	29.44
589.497	29.73
589.691	28.8
589.885	29
590.079	29.63
590.273	29.88
590.466	30
590.66	29.28
590.854	29.81
591.048	29.69
591.242	29.44
591.436	30.11
591.629	29.56
591.823	30.94
592.017	31.03
592.211	30.68
592.404	30.44
592.598	30.6
592.792	30.56
592.986	29.33
593.179	29.42
593.373	29.19
593.567	28.37
593.76	28.71
593.954	27.02
594.147	27.06
594.341	27.57
594.535	27.55
594.728	27.97
594.922	27.75
595.115	28.34
595.309	28.05
595.502	27.69
595.696	27.91
595.889	28
596.083	28.71
596.276	28.91
596.47	28.72
596.663	28.07
596.856	27.61
597.05	28.66
597.243	28.58
597.437	29.01
597.63	29.05
597.823	29.93
598.017	30.02
598.21	30.55
598.403	30.06
598.596	30
598.79	30.78
598.983	30.48
599.176	30.16
599.369	30.81
599.563	30.35
599.756	31.4
599.949	30.99
600.142	31.08
600.335	30.56
600.528	30.97
600.722	31.11
600.915	30.97
601.108	31.2
601.301	30.9
601.494	30.25
601.687	30.29
601.88	29.3
602.073	29.44
602.266	29.14
602.459	29.68
602.652	29.27
602.845	28.84
603.038	29.07
603.231	29.16
603.424	28.7
603.617	28.63
603.809	28.88
604.002	28.54
604.195	28.03
604.388	28.03
604.581	27.59
604.774	27.92
604.966	28.18
605.159	27.92
605.352	27.7
605.545	27.96
605.737	27.89
605.93	27.73
606.123	28.41
606.316	29.27
606.508	29.36
606.701	28.64
606.894	28.27
607.086	28.28
607.279	28.06
607.471	27.9
607.664	28.54
607.857	28.43
608.049	28.93
608.242	28.94
608.434	28.44
608.627	28.34
608.819	28.59
609.012	28.94
609.204	29.47
609.397	30.06
609.589	30.61
609.782	30.4
609.974	29.64
610.166	29.54
610.359	30.57
610.551	30.69
610.743	31.6
610.936	31.89
611.128	32.44
611.32	31.79
611.513	31.64
611.705	32.11
611.897	31.76
612.09	32.9
612.282	33.41
612.474	33.3
612.666	33.88
612.858	33.21
613.051	34.37
613.243	34.15
613.435	33.89
613.627	32.8
613.819	31.91
614.011	32.09
614.203	31.41
614.395	30.03
614.588	29.42
614.78	28.61
614.972	28.54
615.164	27.34
615.356	27.74
615.548	28.35
615.74	29.74
615.932	29.6
616.124	29.46
616.315	30.48
616.507	31.27
616.699	31.41
616.891	32.04
617.083	33.18
617.275	33.45
617.467	33.58
617.659	33.09
617.85	33
618.042	34.25
618.234	34.31
618.426	34.82
618.618	34.62
618.809	35.17
619.001	34.17
619.193	32.73
619.384	33.17
619.576	32.88
619.768	32.69
619.959	32.41
620.151	32.04
620.343	32.77
620.534	32.89
620.726	33.46
620.917	32.87
621.109	33.1
621.301	33.77
621.492	33.31
621.684	33.05
621.875	33.35
622.067	34.15
622.258	33.43
622.45	33.72
622.641	32.93
622.832	32.24
623.024	32.55
623.215	33.07
623.407	32.38
623.598	32.5
623.789	32.41
623.981	32.71
624.172	32.32
624.363	32.6
624.555	31.55
624.746	31.48
624.937	31.85
625.129	31.79
625.32	31.86
625.511	32.02
625.702	32.48
625.893	32.78
626.085	33.4
626.276	32.8
626.467	32.57
626.658	33.06
626.849	33.02
627.04	32.4
627.231	31.93
627.422	32.08
627.614	31.75
627.805	31.32
627.996	30.94
628.187	30.23
628.378	30.66
628.569	30.97
628.76	30.34
628.951	30.91
629.142	31.14
629.332	31.01
629.523	30.82
629.714	31.16
629.905	30.39
630.096	30.25
630.287	30.16
630.478	29.73
630.669	29.76
630.859	31.46
631.05	31.01
631.241	31.52
631.432	31.3
631.623	30.67
631.813	30.75
632.004	31.61
632.195	31.66
632.385	31.46
632.576	31.49
632.767	31.05
632.957	30.16
633.148	31.01
633.339	31.21
633.529	32.24
633.72	32.82
633.91	33.57
634.101	33.31
634.292	32.91
634.482	33.12
634.673	32.94
634.863	33.11
635.054	33.34
635.244	32.84
635.435	32.39
635.625	31.66
635.815	32.01
636.006	31.54
636.196	32.02
636.387	32.48
636.577	32.54
636.767	32.84
636.958	31.58
637.148	32.28
637.338	32.09
637.529	31.93
637.719	32.71
637.909	31.78
638.099	32.84
638.29	32.8
638.48	33.34
638.67	33.61
638.86	33.9
639.05	35.77
639.241	34.36
639.431	34.18
639.621	33.06
639.811	32.39
640.001	32.66
640.191	31.83
640.381	31.37
640.571	29.36
640.761	30.52
640.951	30.81
641.141	32.07
641.331	32.41
641.521	32.62
641.711	33.29
641.901	33.55
642.091	33.75
642.281	33.89
642.471	33.98
642.661	36.14
642.851	33.59
643.041	33.41
643.231	32.29
643.42	32.02
643.61	32.11
643.8	32.6
643.99	32.89
644.18	33.35
644.369	32.71
644.559	32.22
644.749	31.46
644.939	32.35
645.128	31.88
645.318	31.63
645.508	32.1
645.697	31.95
645.887	32.1
646.076	31.18
646.266	31.35
646.456	32.02
646.645	32.39
646.835	33.58
647.024	34.99
647.214	35.27
647.403	35.56
647.593	35.12
647.782	35.04
647.972	35.5
648.161	36.07
648.351	35.81
648.54	36.33
648.73	35.79
648.919	35.03
649.108	33.51
649.298	34
649.487	33.86
649.677	33.41
649.866	33.67
650.055	32.41
650.244	32.72
650.434	33.3
650.623	32.14
650.812	32.81
651.002	32.7
651.191	34.18
651.38	34.89
651.569	35.01
651.758	35.58
651.947	35.22
652.137	36.24
652.326	35.48
652.515	34.77
652.704	35.05
652.893	34.32
653.082	34.44
653.271	33.34
653.46	32.59
653.649	32.12
653.838	32.93
654.027	33.78
654.216	34.42
654.405	35.64
654.594	34.8
654.783	34.27
654.972	34.58
655.161	33.3
655.35	32.35
655.539	31.79
655.728	31.85
655.916	31.26
656.105	28.88
656.294	28.28
656.483	26.9
656.672	26.91
656.86	27.12
657.049	27.44
657.238	28.48
657.427	29.34
657.615	29.55
657.804	30.31
657.993	30.28
658.181	31.98
658.37	31.81
658.559	32.96
658.747	33.59
658.936	34.32
659.125	35.11
659.313	35.55
659.502	35.24
659.69	35.79
659.879	35.18
660.067	35.43
660.256	35.24
660.444	36.16
660.633	35.68
660.821	35.32
661.01	35.84
661.198	34.14
661.387	33.98
661.575	33.84
661.763	33.74
661.952	35.19
662.14	35.15
662.328	35.08
662.517	35.45
662.705	34.33
662.893	35.69
663.082	34.61
663.27	35.16
663.458	33.08
663.646	34.72
663.834	34.73
664.023	31.92
664.211	31.83
664.399	31.4
664.587	30.81
664.775	32.19
664.963	30.91
665.152	31.87
665.34	33.68
665.528	35.45
665.716	35.91
665.904	34.9
666.092	36.52
666.28	35.89
666.468	36.61
666.656	36.31
666.844	35.99
667.032	36.25
667.22	34.69
667.408	33.24
667.596	33.33
667.784	32.15
667.971	32.48
668.159	32.57
668.347	32.11
668.535	30.93
668.723	31.49
668.911	31.7
669.098	31.56
669.286	32.57
669.474	33.27
669.662	32.63
669.849	32.27
670.037	32.77
670.225	32.38
670.413	33.46
670.6	33.8
670.788	32.02
670.976	31.99
671.163	31.68
671.351	30.88
671.538	30.72
671.726	31.17
671.913	31.74
672.101	30.94
672.289	32.74
672.476	31.7
672.664	31.62
672.851	32.73
673.039	32.27
673.226	31.93
673.413	32.84
673.601	31.75
673.788	32.56
673.976	32.51
674.163	33.77
674.35	32.42
674.538	34.26
674.725	35.9
674.912	36.35
675.1	35.99
675.287	36.66
675.474	35.38
675.662	36.73
675.849	36.73
676.036	35.16
676.223	34.1
676.411	33.77
676.598	32.62
676.785	32.41
676.972	31.59
677.159	31.98
677.346	31.5
677.533	31.22
677.721	30.96
677.908	31.71
678.095	33.27
678.282	33.18
678.469	32.5
678.656	33.23
678.843	32.97
679.03	33.07
679.217	34.09
679.404	34.3
679.591	35.54
679.778	35.1
679.964	34.28
680.151	33.14
680.338	32.92
680.525	32.73
680.712	31.9
680.899	31.79
681.086	31.54
681.272	32.24
681.459	33.23
681.646	33.01
681.833	34.93
682.02	33.74
682.206	35.19
682.393	36.49
682.58	37.46
682.766	38.56
682.953	39.68
683.14	40.45
683.326	37.99
683.513	37.36
683.7	36.04
683.886	33.9
684.073	33.66
684.259	33.9
684.446	32.45
684.632	31.17
684.819	30.8
685.005	28.23
685.192	26.3
685.378	27.94
685.565	28.71
685.751	29.23
685.938	30.02
686.124	30.02
686.31	29.07
686.497	30.11
686.683	31.24
686.87	31.12
687.056	32.67
687.242	33.99
687.429	33.8
687.615	33.37
687.801	34.93
687.987	33.68
688.174	35.78
688.36	37.36
688.546	36.63
688.732	35.62
688.918	34.92
689.105	33.64
689.291	33.27
689.477	32.21
689.663	32.41
689.849	31.3
690.035	33.84
690.221	33.57
690.407	31.93
690.593	33.22
690.779	33.13
690.965	33.34
691.151	34.51
691.337	35.4
691.523	36.2
691.709	36.6
691.895	37.09
692.081	37
692.267	35.77
692.453	35.55
692.639	34.62
692.825	34.52
693.011	34.46
693.196	32.9
693.382	31.62
693.568	29.91
693.754	29.42
693.94	29.08
694.125	27.86
694.311	27.77
694.497	29.51
694.682	30.2
694.868	30.27
695.054	30.15
695.239	31.59
695.425	34.53
695.611	35.36
695.796	34.47
695.982	34.66
696.168	33.88
696.353	33.88
696.539	31.97
696.724	30.78
696.91	31.24
697.095	31.03
697.281	30.61
697.466	28.4
697.652	27.83
697.837	27.49
698.023	27.23
698.208	27.45
698.393	27.97
698.579	27.94
698.764	28.22
698.949	28.61
699.135	28.79
699.32	28.1
699.505	29.24
699.691	30.17
699.876	31.56
700.061	32.54
700.246	33.26
700.432	33.3
700.617	35.49
700.802	36.72
700.987	37.17
701.172	39.13
701.358	39.93
701.543	40.76
701.728	39.06
701.913	38.87
702.098	37.5
702.283	36.43
702.468	35.84
702.653	32.93
702.838	31.04
703.023	29.99
703.208	28.58
703.393	29.56
703.578	29.74
703.763	32.25
703.948	31.68
704.133	32.37
704.318	31.14
704.503	31.91
704.688	33.13
704.873	33.57
705.057	33.65
705.242	34.01
705.427	35.46
705.612	33.73
705.797	32.3
705.981	29.16
706.166	27.91
706.351	28.94
706.536	28.48
706.72	31.38
706.905	32.44
707.09	32.3
707.274	31.46
707.459	27.94
707.644	27.96
707.828	28.49
708.013	32.84
708.197	34.11
708.382	35.12
708.567	34.84
708.751	33.89
708.936	34.13
709.12	34.16
709.305	34.16
709.489	37.34
709.673	38.86
709.858	40.55
710.042	38.25
710.227	37.85
710.411	38.42
710.596	38.31
710.78	36.3
710.964	35.26
711.149	36.94
711.333	37.59
711.517	36.58
711.702	35.33
711.886	34.18
712.07	35.98
712.254	38.11
712.438	37.6
712.623	37.85
712.807	39.47
712.991	39.82
713.175	39.86
713.359	39.73
713.544	38.7
713.728	39.2
713.912	39.51
714.096	39.44
714.28	39.08
714.464	36.36
714.648	35.91
714.832	34.5
715.016	35.06
715.2	32.33
715.384	31.53
715.568	31.07
715.752	28.96
715.936	27.68
716.12	27.41
716.304	24.15
716.488	25.83
716.671	25.16
716.855	25.39
717.039	23.48
717.223	24.46
717.407	24.55
717.59	24.64
717.774	27.18
717.958	29.14
718.142	28.15
718.325	30.54
718.509	29.99
718.693	32.15
718.877	29.45
719.06	30.01
719.244	30.48
719.428	31.08
719.611	31.93
719.795	31.09
719.978	27.67
720.162	27.75
720.345	27.8
720.529	28.94
720.713	28.17
720.896	29.58
721.08	31.97
721.263	30.22
721.446	28.06
721.63	29.4
721.813	29.69
721.997	30.68
722.18	29.31
722.364	28.76
722.547	29.86
722.73	27.92
722.914	29.28
723.097	29.29
723.28	29.41
723.464	30.38
723.647	27.82
723.83	26.61
724.013	29.06
724.197	29.85
724.38	29.79
724.563	27.69
724.746	30.13
724.929	28.69
725.112	27.69
725.296	31.06
725.479	31.87
725.662	34.01
725.845	34.28
726.028	34.7
726.211	34.64
726.394	35.72
726.577	35.52
726.76	33.32
726.943	33.17
727.126	30.91
727.309	29.48
727.492	31.08
727.675	29.92
727.858	27.82
728.041	25.35
728.224	25.73
728.407	25.39
728.589	25.95
728.772	26.17
728.955	28.17
729.138	28.89
729.321	28.81
729.503	26.01
729.686	26.54
729.869	28.5
730.052	29.72
730.234	26.59
730.417	25.37
730.6	25.9
730.782	26.65
730.965	24.7
731.148	25.27
731.33	23.01
731.513	23.59
731.695	22.07
731.878	23.22
732.061	24.73
732.243	25.76
732.426	26.31
732.608	25.83
732.791	25.85
732.973	29.18
733.156	27.66
733.338	31.95
733.52	32.14
733.703	34.39
733.885	32.95
734.068	34.04
734.25	37.71
734.432	40.46
734.615	40.41
734.797	39.03
734.979	37.67
735.162	41.85
735.344	39.8
735.526	39.52
735.708	37.78
735.891	41.63
736.073	40.69
736.255	40.07
736.437	36.98
736.619	38.32
736.802	40.39
736.984	39.51
737.166	35.79
737.348	35.81
737.53	38.92
737.712	39.57
737.894	37.08
738.076	35.68
738.258	32.72
738.44	32.55
738.622	30.02
738.804	30.49
738.986	30.99
739.168	34.47
739.35	35.49
739.532	32.83
739.714	32.81
739.896	33.49
740.078	33.46
740.259	36.55
740.441	42.96
740.623	44.72
740.805	45.21
740.987	45.96
741.168	45.09
741.35	45.95
741.532	48.1
741.714	49
741.895	47.77
742.077	50.7
742.259	48.91
742.44	43.38
742.622	42.24
742.804	41.42
742.985	41.15
743.167	34.71
743.348	31.98
743.53	31.34
743.711	30.04
743.893	29.92
744.075	30.01
744.256	32.77
744.438	35.01
744.619	39.75
744.8	38.79
744.982	39.7
745.163	43.24
745.345	46.96
745.526	46.17
745.707	47.95
745.889	50.71
746.07	46.98
746.252	45.42
746.433	39.55
746.614	40.39
746.795	43.97
746.977	45.23
747.158	47
747.339	43.63
747.52	43.64
747.702	42.21
747.883	39.08
748.064	41.16
748.245	40.79
748.426	40.99
748.607	37.31
748.788	34.26
748.97	30.03
749.151	30.4
749.332	31.86
749.513	30.56
749.694	30.75
749.875	26.99
750.056	29.22
750.237	30.91
750.418	32.75
750.599	31
750.78	33.49
750.96	34.88
751.141	33.21
751.322	31.89
751.503	32.3
751.684	35.37
751.865	36.92
752.046	32.4
752.226	27.82
752.407	27.68
752.588	28.95
752.769	24.1
752.949	28.64
753.13	31.46
753.311	35.58
753.492	35.09
753.672	35.59
753.853	38.56
754.034	42.07
754.214	44.04
754.395	43.57
754.575	45.14
754.756	49.61
754.937	44.82
755.117	45.01
755.298	44.45
755.478	45.21
755.659	42.19
755.839	42.09
756.02	39.19
756.2	42.93
756.381	44.73
756.561	41.75
756.741	39.65
756.922	36.49
757.102	32.71
757.283	28.9
757.463	26.05
757.643	26.76
757.823	26.22
758.004	25.22
758.184	20.55
758.364	22.39
758.545	21.85
758.725	19.71
758.905	21.47
759.085	23.22
759.265	20.43
759.446	23.12
759.626	20.26
759.806	21.08
759.986	21.16
760.166	22.86
760.346	18.46
760.526	19.07
760.706	19.02
760.886	20.12
761.066	17.5
761.246	16.57
761.426	17.63
761.606	19.16
761.786	18.16
761.966	20.34
762.146	21.31
762.326	21.49
762.506	24.29
762.686	25.87
762.866	24.76
763.046	28.88
763.225	30.8
763.405	29.85
763.585	30.94
763.765	31.37
763.945	31.45
764.124	31.13
764.304	33
764.484	31.76
764.664	33.83
764.843	37.88
765.023	33.98
765.203	36.73
765.382	36.4
765.562	34.71
765.741	32.99
765.921	29.26
766.101	30.65
766.28	31.44
766.46	34.46
766.639	35.66
766.819	34.59
766.998	33.83
767.178	34.83
767.357	32.09
767.537	30.69
767.716	33.79
767.896	38.12
768.075	37.76
768.254	36.38
768.434	32.87
768.613	30.81
768.792	27.8
768.972	33.7
769.151	30.07
769.33	35.54
769.51	38.54
769.689	34.98
769.868	35.64
770.047	33.53
770.226	37.27
770.406	37.09
770.585	36.53
770.764	38.99
770.943	33.38
771.122	38.89
771.301	39.71
771.48	36.25
771.66	41.08
771.839	43.92
772.018	45.76
772.197	45.24
772.376	47.29
772.555	46.47
772.734	44.36
772.913	45.53
773.092	45.08
773.271	43.87
773.449	50.71
773.628	47.93
773.807	46.08
773.986	49.03
774.165	48.7
774.344	46.88
774.523	42.34
774.701	44.04
774.88	48.1
775.059	45.35
775.238	41.51
775.417	37.98
775.595	40.33
775.774	37
775.953	34.54
776.131	33.87
776.31	30.67
776.489	35.45
776.667	35.44
776.846	35.92
777.025	35.54
777.203	42.55
777.382	42.81
777.56	43.08
777.739	43.43
777.917	44.94
778.096	47.28
778.274	52.38
778.453	49.47
778.631	51.78
778.81	48.17
778.988	47.61
779.166	43.16
779.345	39.52
779.523	35.19
779.702	41.32
779.88	37.62
780.058	37.36
780.237	33.95
780.415	40.39
780.593	39.2
780.771	43.12
780.95	43.84
781.128	43.42
781.306	46.83
781.484	47.09
781.662	48.72
781.841	45.8
782.019	45.84
782.197	47.02
782.375	51.68
782.553	47.51
782.731	43.07
782.909	43.91
783.087	47.75
783.265	41.8
783.443	44.44
783.621	38.91
783.799	40.61
783.977	36.49
784.155	40.66
784.333	27.98
784.511	29.71
784.689	28.2
784.867	26.11
785.045	16.58
785.223	25.3
785.4	35.08
785.578	38.53
785.756	48.82
785.934	50.73
786.112	42.49
786.289	46.81
786.467	44.74
786.645	47.05
786.823	44.11
787	49.57
787.178	44.66
787.356	33.03
787.533	28.71
787.711	19.93
787.889	18.72
788.066	27.55
788.244	25.54
788.421	32.36
788.599	32.81
788.776	33.16
788.954	29.08
789.131	28.36
789.309	26.7
789.486	31.04
789.664	32.05
789.841	30.23
790.019	27.55
790.196	26.81
790.373	21.13
790.551	20.21
790.728	22.61
790.906	24.45
791.083	38.1
791.26	44.61
791.437	38.38
791.615	35.22
791.792	44.71
791.969	42.49
792.146	42.51
792.324	42.1
792.501	44.03
792.678	46.45
792.855	45.55
793.032	41.34
793.209	34.56
793.387	37.83
793.564	39.53
793.741	37.08
793.918	34.77
794.095	30.55
794.272	32.4
794.449	29.49
794.626	31.36
794.803	34.06
794.98	27.32
795.157	27.76
795.334	32.96
795.511	33.05
795.688	29.2
795.864	32.26
796.041	40.13
796.218	40.57
796.395	48.89
796.572	53.05
796.749	51.98
796.925	51.36
797.102	55.75
797.279	46.5
797.456	42.35
797.632	40.48
797.809	38.57
797.986	38.15
798.162	31.34
798.339	15.35
798.516	9.54
798.692	7.52
798.869	0.65
799.046	1.12
799.222	1.96
799.399	12.07
799.575	16.97
799.752	19.44
799.928	18.18
800.105	20.95
800.281	29.56
800.458	19.73
800.634	20.21
800.811	21.86
800.987	19.3
801.163	23.24
801.34	25.63
801.516	28.39
801.692	31.1
801.869	29.66
802.045	32.43
802.221	26.95
802.398	36.1
802.574	28.67
802.75	29.26
802.926	33.54
803.103	35.7
803.279	30.79
803.455	30.24
803.631	21.25
803.807	19.87
803.983	15.63
804.16	17.47
804.336	16.76
804.512	25.46
804.688	30.19
804.864	24.15
805.04	14.11
805.216	12.19
805.392	13.18
805.568	22.39
805.744	18.8
805.92	23.12
806.096	28.86
806.272	23.07
806.448	31.28
806.623	23.01
806.799	21.46
806.975	26.87
807.151	24.17
807.327	22.76
807.503	20.56
807.678	27.32
807.854	22.29
808.03	14.11
808.206	4.53
808.381	0.57
808.557	14.99
808.733	18
808.908	17.59
809.084	21.15
809.26	22.58
809.435	17.56
809.611	13.02
809.787	19.01
809.962	21.65
810.138	34.17
810.313	28.39
810.489	23.33
810.664	19.35
810.84	22.2
811.015	23.51
811.191	14.36
811.366	21.13
811.542	23.2
811.717	23.37
811.892	29.62
812.068	30.97
812.243	36.93
812.419	32.92
812.594	22.95
812.769	27.65
812.944	24.66
813.12	28.31
813.295	23.55
813.47	21.37
813.645	24.39
813.821	28.34
813.996	23.59
814.171	20.55
814.346	29.22
814.521	39.68
814.697	31.02
814.872	31.95
815.047	33.16
815.222	34.78
815.397	39.72
815.572	35.83
815.747	35.99
815.922	49.2
816.097	36.74
816.272	32.03
816.447	32.75
816.622	34.62
816.797	34.78
816.972	40
817.147	45.16
817.322	43.69
817.496	43.58
817.671	39.16
817.846	28.04
818.021	25.34
818.196	20.19
818.371	17.42
818.545	10.25
818.72	11.78
818.895	17.86
819.069	19.28
819.244	21.67
819.419	20.2
819.594	17.62
819.768	18.27
819.943	21.19
820.117	21.06
820.292	22.09
820.467	23.5
820.641	24.56
820.816	22.19
820.99	22.7
821.165	21.38
821.339	21.75
821.514	22.2
821.688	22.84
821.863	24.45
822.037	25.13
822.212	25.92
822.386	27.68
822.56	25.33
822.735	24.93
822.909	21.95
823.084	22.35
823.258	23.31
823.432	21.55
823.606	25.25
823.781	24.03
823.955	25.2
824.129	22.29
824.303	21.03
824.478	26.3
824.652	28.56
824.826	28.84
825	32.39
825.174	31.04
825.348	32.05
825.523	28.56
825.697	24.01
825.871	24.68
826.045	26.63
826.219	24.14
826.393	21.86
826.567	18.23
826.741	20.3
826.915	17.01
827.089	16.49
827.263	15.97
827.437	14.73
827.611	16.85
827.784	14.91
827.958	7.84
828.132	12.86
828.306	11.15
828.48	13.63
828.654	17.01
828.827	14.94
829.001	12.78
829.175	6.73
829.349	12.96
829.522	12.71
829.696	13.56
829.87	17.15
830.044	0.79
830.217	0
830.391	-7.38
830.565	-12.84
830.738	-17.05
830.912	-20.57
831.085	-2.48
831.259	-6.3
831.432	7.43
831.606	11.4
831.779	19.13
831.953	26.14
832.126	30.87
832.3	34.13
832.473	38.34
832.647	40.72
832.82	36.48
832.994	33.84
833.167	31.97
833.34	32.09
833.514	29.63
833.687	27.76
833.86	32.75
834.034	36.94
834.207	36.59
834.38	34.19
834.553	32.43
834.727	35.47
834.9	33.22
835.073	34.19
835.246	34.66
835.419	31.53
835.593	26.72
835.766	22.3
835.939	6.98
836.112	1.83
836.285	-1.17
836.458	10.5
836.631	14.45
836.804	14.12
836.977	25.41
837.15	21.5
837.323	19.37
837.496	14.78
837.669	13.66
837.842	41.04
838.015	49.09
838.188	53.82
838.361	28.38
838.533	37.71
838.706	60.22
838.879	38.58
839.052	26.3
839.225	47.57
839.398	54.19
839.57	56.3
839.743	41.02
839.916	48.31
840.088	55.31
840.261	53.7
840.434	35.97
840.607	28.61
840.779	31.21
840.952	38.03
841.124	12.2
841.297	20
841.47	15.82
841.642	26.55
841.815	6.64
841.987	10.5
842.16	8.6
842.332	22.51
842.505	24.98
842.677	23.94
842.85	22.9
843.022	19.29
843.194	11.1
843.367	2.48
843.539	3.65
843.712	17.48
843.884	2.95
844.056	8.3
844.229	-1.82
844.401	-31.97
844.573	-39.65
844.745	-5.3
844.918	4.89
845.09	8.71
845.262	-14.09
845.434	-51.06
845.606	-54.27
845.779	-92.51
845.951	-125.05
846.123	-155.14
846.295	-93.63
846.467	-80.88
846.639	-283.98
846.811	-498.3
846.983	-532.26
847.155	-475.66
847.327	-133.83
847.499	-211.86
847.671	-107.84
847.843	-148.27
848.015	-98.9
848.187	-108.77
848.359	-434.83
848.531	-544.44
848.703	-157.97
848.875	-320.16
849.047	-216.99
849.218	-254.24
849.39	-90.66
849.562	-216.35
849.734	-21.19
849.905	-33.02
850.077	-68.95
850.249	-50.53
850.421	-16.64
850.592	3.42
850.764	9.63
850.936	19.21
851.107	11.63
851.279	-9.8
851.451	9.31
851.622	-3.71
851.794	8.96
851.965	7.6
852.137	26.1
852.308	-16.84
852.48	-43.22
852.651	-3.79
852.823	-9.17
852.994	-6.72
853.166	36.86
853.337	60.03
853.509	61.4
853.68	52.86
853.851	63.64
854.023	71.97
854.194	93.35
854.365	98.04
854.537	68.9
854.708	48.59
854.879	44.5
855.05	38.18
855.222	33.68
855.393	31.86
855.564	27.69
855.735	18.1
855.906	-13.99
856.078	-21.39
856.249	-76.96
856.42	-29.82
856.591	34.22
856.762	12.94
856.933	4.76
857.104	-1.92
857.275	-46.25
857.446	-15.29
857.617	-39.01
857.788	-0.53
857.959	15.26
858.13	12.08
858.301	-21.71
858.472	-32.38
858.643	-27.7
858.814	-22.12
858.985	-9.21
859.155	-7.46
859.326	-42.95
859.497	-26.74
859.668	-19.7
859.839	-40.9
860.009	-45.08
860.18	-27.94
860.351	-28.01
860.522	-25.41
860.692	-29.91
860.863	-61.16
861.034	-39.14
861.204	-19.92
861.375	-37.99
861.546	-67.8
861.716	-74.14
861.887	-25.77
862.057	-10.34
862.228	-15.94
862.398	-16.27
862.569	-27.63
862.739	9.92
862.91	-3.58
863.08	3.59
863.251	16.19
863.421	15.3
863.592	4.35
863.762	3.47
863.932	7.03
864.103	15.33
864.273	4.98
864.443	10.75
864.614	-0.29
864.784	7.24
864.954	17.17
865.125	4.5
865.295	11.23
865.465	18.1
865.635	11.26
865.805	4.12
865.976	8.8
866.146	22.19
866.316	12.03
866.486	9.11
866.656	13.07
866.826	14.35
866.996	12.76
867.166	7.83
867.336	-10.01
867.506	-0.14
867.676	8.68
867.846	6.5
868.016	8.26
868.186	-6.47
868.356	-99.04
868.526	-785.42
868.696	-47800
868.866	391.76
869.036	-243.12
869.206	-382.26
869.376	-568.29
869.545	-120.56
869.715	-218.37
869.885	-243.07
870.055	-72.32
870.224	-3.25
870.394	6.67
870.564	-1.69
870.734	-27.76
870.903	-54.31
871.073	24.75
871.243	37.06
871.412	26.79
871.582	61.29
871.751	63.57
871.921	80.87
872.091	64.04
872.26	75.38
872.43	93.7
872.599	68.14
872.769	52.25
872.938	30.76
873.108	7.92
873.277	5.68
873.446	-15.93
873.616	-17.09
873.785	-50.15
873.955	-39.51
874.124	-35.49
874.293	-47.69
874.463	-53.96
874.632	-55.87
874.801	-48.9
874.971	-51.21
875.14	-49.6
875.309	-60.35
875.478	-71.43
875.647	-73.89
875.817	-46.69
875.986	-71.92
876.155	-71.84
876.324	-49.37
876.493	-87.03
876.662	-103.5
876.831	-70.27
877	-64.21
877.17	-55.49
877.339	-30.62
877.508	-22.98
877.677	-37.74
877.846	-14.7
878.015	-26.73
878.184	-15.22
878.352	-3.53
878.521	0
878.69	1.07
878.859	5.03
879.028	28.1
879.197	15.13
879.366	3.55
879.534	3.61
879.703	-9.51
879.872	7.56
880.041	6.23
880.21	10.18
880.378	9.2
880.547	10.43
880.716	8.52
880.884	4.87
881.053	7.57
881.222	12.79
881.39	12.88
881.559	13.96
881.727	14.04
881.896	12.33
882.065	13.33
882.233	16.27
882.402	12.81
882.57	13.56
882.739	14.61
882.907	12.99
883.076	12.64
883.244	19.06
883.412	29.6
883.581	18.36
883.749	6.43
883.918	3.37
884.086	-2.23
884.254	-4.75
884.423	-3.18
884.591	0.57
884.759	-25.93
884.927	-46.09
885.096	-70.36
885.264	-118.82
885.432	-127.54
885.6	-72.61
885.769	-63.53
885.937	-87.63
886.105	-56.81
886.273	-70.64
886.441	-104.83
886.609	-29.26
886.777	-25.81
886.945	-45.1
887.113	-60.92
887.281	-39.97
887.449	-96.31
887.617	-73.67
887.785	-36.56
887.953	-33.7
888.121	-22.58
888.289	-17.69
888.457	-31.81
888.625	-22.49
888.793	-6.93
888.961	-4.71
889.129	6.53
889.296	27.41
889.464	0
889.632	-19.76
889.8	-38.02
889.967	-55.46
890.135	-57.09
