Data from JASIL_3019_Reflection_02.txt Node
Date: Mon Nov 09 10:43:15 EST 2015
User: Geneva
Spectrometer: USB4E03002
Autoset integration time: false
Trigger mode: 4
Integration Time (sec): 1.000000E-1
Scans to average: 10
Electric dark correction enabled: false
Nonlinearity correction enabled: false
Boxcar width: 5
Stray light correction enabled: false
XAxis mode: Wavelengths
Stop averaging: false
Number of Pixels in Spectrum: 3648
>>>>>Begin Spectral Data<<<<<
177.575	94.74
177.794	125.69
178.014	118.11
178.233	161.22
178.452	142.03
178.672	528.07
178.891	826.09
179.11	51.22
179.33	1163.64
179.549	158.97
179.768	183.94
179.987	566.67
180.207	-786.67
180.426	-725.37
180.645	-120.76
180.864	-55.88
181.084	-63.4
181.303	-32.18
181.522	-5.25
181.741	12.62
181.96	43.4
182.179	120
182.398	104.32
182.618	111.79
182.837	110.19
183.056	-16.84
183.275	6.67
183.494	7.78
183.713	-477.5
183.932	-218.09
184.151	-551.52
184.37	-101.57
184.589	-2377.78
184.808	228.28
185.027	145
185.246	60.78
185.465	19.61
185.684	-2.31
185.903	0.72
186.122	-43.97
186.341	-47.99
186.56	-105.51
186.779	-604.08
186.998	542.86
187.216	186.4
187.435	201.04
187.654	82.35
187.873	75
188.092	94.77
188.311	96.49
188.53	95.13
188.748	115.3
188.967	155.1
189.186	-143.01
189.405	-31.46
189.623	-233.64
189.842	-579.37
190.061	11660
190.28	632.98
190.498	571.43
190.717	206.67
190.936	243.1
191.154	178.06
191.373	249.25
191.592	324.48
191.81	178.6
192.029	216.4
192.248	85.28
192.466	69.91
192.685	103.45
192.904	134.78
193.122	-223.19
193.341	4220
193.559	-2075
193.778	-82.95
193.996	-283.93
194.215	-217.02
194.433	-141.28
194.652	-151.9
194.87	-14.33
195.089	20.18
195.307	-51.33
195.526	15.43
195.744	62.93
195.963	116.18
196.181	-206.38
196.399	-83.13
196.618	-50.36
196.836	-16.44
197.055	14.02
197.273	72.82
197.491	50.5
197.71	32.08
197.928	0.91
198.146	18.37
198.365	-19.25
198.583	155.56
198.801	-20.35
199.019	1.93
199.238	29.69
199.456	21.22
199.674	6.9
199.892	-159.26
200.111	-203
200.329	-916.07
200.547	3691.67
200.765	-694.81
200.983	286.75
201.202	225
201.42	194.2
201.638	158.29
201.856	368.15
202.074	383.84
202.292	485.71
202.51	415.28
202.728	2575
202.946	-140.91
203.165	1863.16
203.383	-807.69
203.601	-2227.27
203.819	591.86
204.037	735
204.255	272
204.473	398.5
204.691	463.73
204.909	-1838.1
205.127	1003.03
205.345	527.45
205.562	-296.3
205.78	404
205.998	318.84
206.216	206.6
206.434	79.78
206.652	42.86
206.87	205.08
207.088	85.45
207.306	71.97
207.523	2.27
207.741	24.18
207.959	-6.76
208.177	9.93
208.395	65.32
208.612	72.07
208.83	48.32
209.048	49.66
209.266	-27.94
209.483	80.33
209.701	-37.93
209.919	-2850
210.136	-292.73
210.354	725
210.572	19.15
210.79	75
211.007	45.26
211.225	62.57
211.442	-173.68
211.66	70.49
211.878	234.21
212.095	477.36
212.313	2866.67
212.53	55.74
212.748	146.92
212.966	417.07
213.183	6900
213.401	123.89
213.618	99.35
213.836	115.54
214.053	160.56
214.271	295.97
214.488	170.47
214.705	180.57
214.923	237.44
215.14	262.99
215.358	188.83
215.575	181.91
215.793	696.97
216.01	1345.83
216.227	420.37
216.445	31.75
216.662	246.94
216.879	163.02
217.097	219.25
217.314	397.58
217.531	829.31
217.749	-157.21
217.966	-276.92
218.183	-91
218.4	-62
218.618	-78.73
218.835	-20.65
219.052	18.58
219.269	22.81
219.487	37.63
219.704	8.84
219.921	-0.69
220.138	-74.69
220.355	-34.01
220.572	-4333.33
220.79	47.22
221.007	-63.24
221.224	-59.38
221.441	59.06
221.658	39.81
221.875	50.37
222.092	84.8
222.309	110.47
222.526	118.11
222.743	82.44
222.96	47.79
223.177	36.7
223.394	41.06
223.611	43
223.828	52.8
224.045	44.77
224.262	59.38
224.479	43.58
224.696	26.48
224.913	26.37
225.13	23.67
225.347	47.83
225.564	37.85
225.781	7.41
225.997	21.65
226.214	12.48
226.431	16.45
226.648	7.81
226.865	17.28
227.082	20.19
227.298	18.5
227.515	13.96
227.732	6.77
227.949	5.28
228.165	10.77
228.382	5.62
228.599	5.9
228.816	8.1
229.032	7.5
229.249	-3.42
229.466	-6.59
229.682	-1.89
229.899	1.27
230.116	6.95
230.332	20.31
230.549	21.1
230.765	24.19
230.982	29.39
231.199	28.19
231.415	27.83
231.632	34.03
231.848	39.27
232.065	39.71
232.281	36.2
232.498	26.95
232.714	26.82
232.931	26.76
233.147	21.41
233.364	17.84
233.58	8.16
233.797	4.43
234.013	2.85
234.23	-9.47
234.446	-15.21
234.662	3.29
234.879	4.22
235.095	6.55
235.312	10.2
235.528	13.52
235.744	19.31
235.961	19.42
236.177	23.73
236.393	24.3
236.61	25.34
236.826	24.73
237.042	16.12
237.258	19.59
237.475	12.62
237.691	5.92
237.907	11.69
238.123	7.65
238.339	16.88
238.556	15.79
238.772	22.09
238.988	17.52
239.204	12.83
239.42	12.8
239.636	11.01
239.853	11.49
240.069	8.76
240.285	1.9
240.501	3.95
240.717	1.24
240.933	1.83
241.149	2.45
241.365	1.39
241.581	2.87
241.797	5.94
242.013	8.96
242.229	10.96
242.445	12.14
242.661	15.91
242.877	16.66
243.093	17.03
243.309	18.46
243.525	8.46
243.741	19.15
243.957	21.08
244.173	15.09
244.388	12.05
244.604	8.83
244.82	10.9
245.036	10.48
245.252	8.98
245.468	9.07
245.683	7.98
245.899	9.23
246.115	6.77
246.331	6.37
246.547	7.49
246.762	5.26
246.978	4.99
247.194	2.56
247.409	2.89
247.625	1.61
247.841	0.67
248.057	2.34
248.272	2.81
248.488	3.21
248.703	4.2
248.919	5.03
249.135	7.08
249.35	7.06
249.566	10.8
249.782	4.38
249.997	4.94
250.213	8.57
250.428	8.88
250.644	9.43
250.859	8.23
251.075	4.96
251.29	1.21
251.506	6.97
251.721	10.51
251.937	7.16
252.152	11.68
252.368	18.37
252.583	15.53
252.798	18.97
253.014	21.86
253.229	25.24
253.445	26.42
253.66	28.44
253.875	18.98
254.091	10.75
254.306	13.85
254.521	14.97
254.737	5.84
254.952	8.23
255.167	3.31
255.383	-2.51
255.598	-1.19
255.813	2.32
256.028	-0.23
256.244	4.86
256.459	6.74
256.674	6.72
256.889	7.43
257.104	8.21
257.32	7.84
257.535	5.65
257.75	8.5
257.965	9.01
258.18	10.3
258.395	11.27
258.61	10.06
258.826	9.26
259.041	7.26
259.256	6.22
259.471	4.81
259.686	4.33
259.901	6.36
260.116	2.78
260.331	1.74
260.546	2.05
260.761	0.18
260.976	2.28
261.191	1.3
261.406	3.12
261.621	3.86
261.836	4.42
262.05	5.7
262.265	2.6
262.48	6.4
262.695	3.37
262.91	2.61
263.125	5.78
263.34	4.82
263.555	8.09
263.769	8.99
263.984	10.56
264.199	13.62
264.414	10.68
264.629	9.83
264.843	10.92
265.058	12.97
265.273	9.7
265.488	9.26
265.702	8.65
265.917	7.75
266.132	9.39
266.346	10.72
266.561	11.29
266.776	10.97
266.99	10.2
267.205	10.19
267.42	8.07
267.634	8.46
267.849	10.77
268.063	8.8
268.278	10.29
268.492	11.75
268.707	7.86
268.922	10
269.136	11.81
269.351	13.01
269.565	12.37
269.78	11.87
269.994	11.47
270.209	8.86
270.423	9.52
270.637	9.7
270.852	8.86
271.066	10.28
271.281	6.12
271.495	5.38
271.709	4.81
271.924	5.6
272.138	5.98
272.353	5.4
272.567	4.82
272.781	3.27
272.996	1.63
273.21	-2.62
273.424	0.18
273.638	0.72
273.853	1.18
274.067	3.18
274.281	1.95
274.495	1.46
274.71	-0.28
274.924	-1.04
275.138	2.71
275.352	3.77
275.566	4.69
275.781	0.29
275.995	1.3
276.209	-0.16
276.423	-2.34
276.637	-2.43
276.851	0.69
277.065	3.65
277.279	5.69
277.493	7.16
277.707	3.66
277.921	5.88
278.135	7.45
278.349	9.49
278.563	10.02
278.777	8.43
278.991	9.19
279.205	7.21
279.419	4.57
279.633	4.77
279.847	3.85
280.061	5.97
280.275	4.26
280.489	6.01
280.703	1.08
280.917	3.35
281.131	5.29
281.344	2.9
281.558	2.91
281.772	2.92
281.986	1.97
282.2	-0.37
282.414	0.26
282.627	0.63
282.841	-4.3
283.055	-1.3
283.269	-3.44
283.482	-3.45
283.696	-1.53
283.91	-0.14
284.123	1.84
284.337	2.13
284.551	1.76
284.764	0.3
284.978	2.14
285.192	4.73
285.405	4.79
285.619	4.79
285.833	4.69
286.046	3.52
286.26	2.56
286.473	2.62
286.687	1.83
286.9	3.87
287.114	3.73
287.327	1.77
287.541	1.41
287.754	2.27
287.968	5.57
288.181	5.83
288.395	7.35
288.608	7.16
288.822	4.48
289.035	4.95
289.248	3.81
289.462	6.18
289.675	5.2
289.889	3.5
290.102	1.36
290.315	-1.27
290.529	-1.7
290.742	0.51
290.955	0.6
291.169	0.61
291.382	-0.54
291.595	0.28
291.808	-2.56
292.022	-2.78
292.235	-1.47
292.448	0.03
292.661	1.26
292.875	1.55
293.088	-2
293.301	-0.77
293.514	-0.34
293.727	-0.11
293.94	-1.29
294.153	-0.65
294.367	0.56
294.58	0.18
294.793	2.07
295.006	1.6
295.219	0.51
295.432	1.21
295.645	-0.76
295.858	0.12
296.071	0.54
296.284	0.02
296.497	0.98
296.71	1.03
296.923	1.9
297.136	-0.68
297.349	-2.47
297.562	-3.06
297.775	-4.92
297.988	-3.9
298.201	-4.91
298.414	-4.21
298.626	-3.16
298.839	-4.59
299.052	-4.22
299.265	-4.71
299.478	-3.92
299.691	-2.42
299.903	-3.28
300.116	-0.65
300.329	-0.75
300.542	2.57
300.755	1
300.967	1.39
301.18	3.18
301.393	5.27
301.605	5.53
301.818	6.27
302.031	7.89
302.243	10
302.456	9.91
302.669	9.59
302.881	6.63
303.094	6.06
303.307	3.51
303.519	1.18
303.732	-1.66
303.944	-0.96
304.157	-1.5
304.37	-1.79
304.582	-2.61
304.795	-4.17
305.007	-2.77
305.22	-1.62
305.432	0.28
305.645	4.77
305.857	5.09
306.069	4.11
306.282	2.63
306.494	3.4
306.707	0.69
306.919	2.26
307.132	3.2
307.344	2.75
307.556	4.9
307.769	3.81
307.981	3.67
308.193	5.24
308.406	5.07
308.618	3.55
308.83	2.47
309.043	3.6
309.255	6.14
309.467	6.17
309.679	5.35
309.892	2.49
310.104	4.3
310.316	4.01
310.528	3.83
310.74	5.48
310.953	7.68
311.165	8.98
311.377	9.7
311.589	8.32
311.801	9.71
312.013	11.75
312.225	13.94
312.437	14.01
312.649	12.4
312.862	11.87
313.074	9.19
313.286	10.19
313.498	11.5
313.71	11.87
313.922	13.6
314.134	10.24
314.346	10.32
314.558	10.43
314.77	9.54
314.982	10.88
315.193	13.44
315.405	14.85
315.617	14.72
315.829	14.33
316.041	15.12
316.253	11.7
316.465	11.15
316.677	10.96
316.888	9.18
317.1	8.57
317.312	8.79
317.524	7
317.736	7.59
317.947	6.89
318.159	6.94
318.371	7.61
318.583	10.82
318.794	14.66
319.006	12.52
319.218	12.09
319.43	14.13
319.641	13.3
319.853	13.61
320.064	14.29
320.276	13.25
320.488	13.94
320.699	13.64
320.911	10.48
321.123	11.95
321.334	12.42
321.546	15
321.757	16.11
321.969	20.61
322.18	21.21
322.392	20.94
322.603	21.47
322.815	20.37
323.026	16.81
323.238	17.85
323.449	14.62
323.661	17.94
323.872	15.93
324.083	13.84
324.295	10.47
324.506	8.88
324.718	10.4
324.929	8.82
325.14	7.75
325.352	7.66
325.563	6.47
325.774	7.13
325.986	4.92
326.197	6.45
326.408	6.14
326.62	7.1
326.831	5.13
327.042	5.01
327.253	7.21
327.464	7.58
327.676	10.37
327.887	10.42
328.098	10.55
328.309	10.18
328.52	10.63
328.732	12.58
328.943	12.32
329.154	15.53
329.365	12.62
329.576	12.25
329.787	12.86
329.998	11.54
330.209	11.14
330.42	10.01
330.631	11.95
330.842	10.07
331.053	10.46
331.264	10.33
331.475	10.58
331.686	15.16
331.897	14.47
332.108	12.54
332.319	14.12
332.53	15.09
332.741	20.3
332.952	18.94
333.163	19.04
333.374	17.99
333.585	17.28
333.795	18.12
334.006	15.34
334.217	14.43
334.428	16.06
334.639	14.1
334.849	15.41
335.06	11.85
335.271	11.88
335.482	14.56
335.692	13.24
335.903	14.27
336.114	12.02
336.325	11.83
336.535	13.91
336.746	15.29
336.957	15.23
337.167	12.79
337.378	11.79
337.589	11.71
337.799	9.87
338.01	12.33
338.22	13.79
338.431	13.3
338.642	12.91
338.852	9.97
339.063	9.4
339.273	9.88
339.484	11.34
339.694	10.74
339.905	11.6
340.115	11.42
340.326	10.5
340.536	7.06
340.746	8.99
340.957	9.82
341.167	10.5
341.378	10.02
341.588	10.51
341.799	10.24
342.009	9.99
342.219	9.97
342.43	12.97
342.64	11.53
342.85	14.85
343.061	13.18
343.271	12.01
343.481	11.63
343.691	9.86
343.902	9.82
344.112	10.02
344.322	10.71
344.532	12.23
344.743	10.79
344.953	12.57
345.163	12.34
345.373	14.67
345.583	15.72
345.793	16.95
346.004	18.35
346.214	21.43
346.424	19.56
346.634	20.02
346.844	19.67
347.054	18.42
347.264	16.26
347.474	14.07
347.684	12.46
347.894	14.29
348.104	16.45
348.314	16.59
348.524	13.89
348.734	15.77
348.944	14.01
349.154	12.87
349.364	15.54
349.574	18.24
349.784	17.02
349.994	16.67
350.204	15.2
350.413	13.26
350.623	13.53
350.833	12.75
351.043	11.26
351.253	11.09
351.463	9.38
351.672	7.27
351.882	7.52
352.092	9.33
352.302	9.15
352.511	9.15
352.721	7.96
352.931	7.69
353.141	8.34
353.35	8.99
353.56	12.52
353.77	12.05
353.979	12.28
354.189	11.41
354.399	13.72
354.608	15.97
354.818	14.94
355.027	14.98
355.237	15.89
355.447	15.74
355.656	16.85
355.866	14.45
356.075	15.69
356.285	14.99
356.494	15.44
356.704	14.66
356.913	13.76
357.123	15.51
357.332	16.96
357.542	16.03
357.751	15.03
357.96	13.75
358.17	13.55
358.379	13.42
358.589	13.48
358.798	11.99
359.007	13.33
359.217	13.96
359.426	14.25
359.635	12.97
359.845	13.86
360.054	14.03
360.263	14.11
360.472	14.96
360.682	15.59
360.891	15.92
361.1	17.63
361.309	15.38
361.519	14.36
361.728	12.91
361.937	13.34
362.146	12.05
362.355	13.39
362.564	14.3
362.774	14.98
362.983	14.22
363.192	13.58
363.401	12.41
363.61	13.49
363.819	13.33
364.028	13.39
364.237	14.06
364.446	15.2
364.655	14.13
364.864	15.73
365.073	15.75
365.282	15.53
365.491	18.09
365.7	18.89
365.909	18.65
366.118	19.78
366.327	20.49
366.536	20.48
366.745	21.62
366.954	22.43
367.162	20.57
367.371	20.62
367.58	20.58
367.789	17.07
367.998	16.28
368.207	16.44
368.415	15.36
368.624	13.1
368.833	12.63
369.042	10.76
369.25	10.52
369.459	9.4
369.668	8.24
369.877	7.51
370.085	9.17
370.294	9.57
370.503	8.44
370.711	8.13
370.92	10.19
371.129	9.11
371.337	10.2
371.546	10.62
371.754	11.49
371.963	11.84
372.171	14.41
372.38	14.63
372.589	15.01
372.797	14.82
373.006	15.97
373.214	14.76
373.423	16.13
373.631	16.29
373.84	15.24
374.048	15.31
374.256	14.9
374.465	14.24
374.673	12.77
374.882	11.65
375.09	12.36
375.298	11.45
375.507	12.89
375.715	13.12
375.923	13.39
376.132	13.92
376.34	14.1
376.548	12.9
376.757	13.9
376.965	15.24
377.173	16.08
377.381	17.22
377.59	17.55
377.798	17.12
378.006	16.7
378.214	15.22
378.423	15.56
378.631	15.24
378.839	16.33
379.047	14.55
379.255	14.4
379.463	11.83
379.671	11.6
379.879	12.11
380.088	12.56
380.296	13.09
380.504	12.14
380.712	11.43
380.92	11.82
381.128	11.53
381.336	11.57
381.544	11.37
381.752	12.67
381.96	11.59
382.168	10.45
382.376	10.37
382.584	9.31
382.791	11.75
382.999	10.78
383.207	11.25
383.415	11.93
383.623	11
383.831	11.03
384.039	12.23
384.247	13.06
384.454	11.16
384.662	11.29
384.87	11.98
385.078	10.62
385.285	11.42
385.493	11.8
385.701	11.74
385.909	14.69
386.116	14.36
386.324	13.51
386.532	12.83
386.739	14.3
386.947	14.66
387.155	14.23
387.362	13.72
387.57	13.88
387.778	12.37
387.985	12.18
388.193	9.06
388.4	9.48
388.608	9.47
388.816	9.91
389.023	10.87
389.231	10.14
389.438	10.03
389.646	8.86
389.853	8.71
390.061	9.09
390.268	9.43
390.475	10.38
390.683	9.31
390.89	8.71
391.098	8.5
391.305	8.18
391.512	8.9
391.72	8.81
391.927	10.28
392.135	11.18
392.342	12.07
392.549	10.58
392.756	9.68
392.964	11.19
393.171	12.57
393.378	12.49
393.586	12.74
393.793	11.45
394	12.39
394.207	12.97
394.414	12.66
394.622	11.24
394.829	12.01
395.036	14.02
395.243	14.1
395.45	13.51
395.657	14.05
395.864	13.65
396.072	13.59
396.279	13.05
396.486	12.85
396.693	12.23
396.9	12.99
397.107	13.47
397.314	12.01
397.521	10.79
397.728	10.81
397.935	9.93
398.142	10.96
398.349	10.43
398.556	9.9
398.763	9.25
398.97	8.97
399.177	8.86
399.383	9.36
399.59	10.33
399.797	10.47
400.004	9.81
400.211	10.63
400.418	8.55
400.625	9.41
400.831	8.99
401.038	9.87
401.245	10.45
401.452	10.51
401.658	9.6
401.865	9.17
402.072	10.2
402.279	10.46
402.485	9.78
402.692	10.96
402.899	10.18
403.105	11.1
403.312	10.92
403.519	11.39
403.725	11.74
403.932	11.38
404.138	12.43
404.345	11.6
404.552	11.75
404.758	12.56
404.965	12.06
405.171	13.09
405.378	13.06
405.584	12.54
405.791	12.01
405.997	12.11
406.204	12.6
406.41	11.55
406.617	12.11
406.823	12.22
407.029	12.18
407.236	13.27
407.442	13
407.649	12.99
407.855	12.72
408.061	12.39
408.268	11.97
408.474	11.15
408.68	11.57
408.887	11.07
409.093	12.02
409.299	10.51
409.505	10.32
409.712	10.74
409.918	11.26
410.124	12.8
410.33	12.82
410.537	13.53
410.743	13.87
410.949	14.29
411.155	14.53
411.361	13.09
411.567	12.91
411.773	13.32
411.98	12.51
412.186	11.98
412.392	11.39
412.598	11.01
412.804	10.55
413.01	11.61
413.216	10.61
413.422	11.4
413.628	11.83
413.834	12.34
414.04	11.81
414.246	11.65
414.452	10.76
414.658	10.25
414.864	10.74
415.07	10.75
415.275	9.96
415.481	10.09
415.687	9.45
415.893	8.54
416.099	9.23
416.305	8.92
416.511	8.88
416.716	9.36
416.922	9.31
417.128	8.93
417.334	8.31
417.539	8.07
417.745	7.63
417.951	7.75
418.157	8.19
418.362	8.05
418.568	7.58
418.774	7.2
418.979	6.39
419.185	7.15
419.391	7.06
419.596	6.87
419.802	7.41
420.008	7.31
420.213	3.22
420.419	3.31
420.624	3
420.83	3.44
421.035	3.55
421.241	4.44
421.446	3.99
421.652	4.48
421.857	4.47
422.063	4.32
422.268	4.58
422.474	8.42
422.679	8.08
422.885	8.24
423.09	8.02
423.295	8
423.501	7.94
423.706	7.92
423.911	7.59
424.117	7.59
424.322	7.57
424.527	7.63
424.733	7.98
424.938	8.1
425.143	8.3
425.349	8.58
425.554	8.77
425.759	8.8
425.964	9.17
426.169	10.11
426.375	10.27
426.58	10.73
426.785	10.83
426.99	10.61
427.195	10.29
427.4	9.86
427.605	10.11
427.811	10.45
428.016	10.14
428.221	9.02
428.426	7.52
428.631	7.95
428.836	8.49
429.041	8.22
429.246	8.51
429.451	9.17
429.656	9.24
429.861	8.62
430.066	9.11
430.271	8.89
430.476	9.79
430.681	10.77
430.886	10.78
431.09	9.66
431.295	10.07
431.5	9.75
431.705	9.52
431.91	9.68
432.115	10.65
432.32	9.54
432.524	9.71
432.729	9.27
432.934	9.13
433.139	9.25
433.343	9.64
433.548	9.27
433.753	9.24
433.958	9.64
434.162	9.65
434.367	9.13
434.572	9.25
434.776	9.89
434.981	9.68
435.186	9.07
435.39	8.87
435.595	9.06
435.799	9.01
436.004	9.08
436.209	8.55
436.413	7.9
436.618	7.34
436.822	8.13
437.027	7.4
437.231	7.8
437.436	7.79
437.64	7.93
437.845	7.33
438.049	7.48
438.253	7.22
438.458	7.48
438.662	7.78
438.867	7.83
439.071	7.71
439.275	7.64
439.48	7.15
439.684	7.35
439.888	7.48
440.093	7.84
440.297	7.81
440.501	8
440.706	8.09
440.91	7.96
441.114	7.73
441.318	7.5
441.523	7.5
441.727	7.6
441.931	7.86
442.135	7.46
442.339	7.41
442.543	7.43
442.748	7.65
442.952	7.53
443.156	7.42
443.36	7.63
443.564	7.83
443.768	8.14
443.972	8.67
444.176	7.99
444.38	8.32
444.584	8.76
444.788	8.95
444.992	8.91
445.196	8.39
445.4	8.25
445.604	7.98
445.808	7.74
446.012	7.7
446.216	7.32
446.42	7.52
446.624	7.2
446.828	6.54
447.032	6.52
447.235	5.92
447.439	6.04
447.643	7.04
447.847	7.01
448.051	7.81
448.254	7.05
448.458	6.87
448.662	7.98
448.866	7.98
449.069	8.13
449.273	8.14
449.477	8.67
449.681	9.03
449.884	8.64
450.088	9.24
450.292	9.37
450.495	10.61
450.699	10.63
450.902	9.69
451.106	9.5
451.31	9.46
451.513	9.45
451.717	9.59
451.92	9.54
452.124	9.06
452.327	8.57
452.531	7.69
452.734	7.22
452.938	7.07
453.141	7.06
453.345	7.59
453.548	7.6
453.752	6.95
453.955	6.66
454.158	6.43
454.362	6.97
454.565	7.11
454.769	7.43
454.972	7.62
455.175	7.57
455.379	7.43
455.582	6.97
455.785	6.87
455.988	6.8
456.192	7.05
456.395	7.77
456.598	7.35
456.801	7.45
457.005	7.46
457.208	7.18
457.411	7.26
457.614	7.66
457.817	7.8
458.021	8.22
458.224	8.44
458.427	8.59
458.63	8.41
458.833	8.49
459.036	8.46
459.239	8.3
459.442	8.02
459.645	7.92
459.848	7.94
460.051	7.97
460.254	7.7
460.457	7.08
460.66	6.6
460.863	6.41
461.066	6.33
461.269	6.62
461.472	6.36
461.675	7.13
461.878	7.33
462.081	7.42
462.284	6.82
462.486	6.3
462.689	6.96
462.892	7.64
463.095	7.86
463.298	7.86
463.5	8.25
463.703	8.83
463.906	8.93
464.109	9.22
464.311	8.65
464.514	8.76
464.717	9.01
464.92	9.31
465.122	8.43
465.325	8.68
465.528	8.87
465.73	8.05
465.933	8.38
466.135	8.21
466.338	8.03
466.541	7.9
466.743	8.22
466.946	8.28
467.148	7.76
467.351	8.44
467.553	8.14
467.756	8.13
467.958	8.29
468.161	7.79
468.363	8.13
468.566	8.34
468.768	8.95
468.971	8.49
469.173	8.57
469.375	8.91
469.578	8.82
469.78	8.8
469.983	8.84
470.185	9.47
470.387	9.83
470.59	9.15
470.792	8.65
470.994	8.38
471.196	9.15
471.399	9.9
471.601	9.94
471.803	9.74
472.005	9.62
472.208	9.06
472.41	8.41
472.612	7.97
472.814	8.05
473.016	9.14
473.218	9
473.421	8.29
473.623	7.57
473.825	7.9
474.027	8.52
474.229	8.37
474.431	8.41
474.633	9.54
474.835	9.51
475.037	9.46
475.239	8.55
475.441	8.14
475.643	8.11
475.845	8.06
476.047	7.64
476.249	7.19
476.451	6.99
476.653	7.57
476.855	7.28
477.057	7.11
477.258	7.18
477.46	7.55
477.662	7.99
477.864	8.54
478.066	9.24
478.268	9.21
478.469	8.91
478.671	9.49
478.873	9.06
479.075	8.39
479.276	8.92
479.478	8.64
479.68	8.55
479.882	8.71
480.083	8.19
480.285	8.02
480.487	8
480.688	8.17
480.89	7.71
481.091	7.54
481.293	7.67
481.495	7.56
481.696	7.54
481.898	7.46
482.099	7.39
482.301	7.4
482.502	7.12
482.704	7.08
482.905	7.13
483.107	7.18
483.308	7.32
483.51	7.25
483.711	7.18
483.913	7.32
484.114	7.24
484.315	7.09
484.517	7.22
484.718	7.19
484.92	7.33
485.121	7.34
485.322	7.38
485.524	7.37
485.725	7.36
485.926	7.38
486.127	7.27
486.329	7.22
486.53	7.31
486.731	7.19
486.932	7.45
487.134	7.39
487.335	7.26
487.536	7.29
487.737	7.16
487.938	7.12
488.139	7.13
488.341	7.3
488.542	7.43
488.743	7.39
488.944	7.6
489.145	7.49
489.346	7.38
489.547	7.22
489.748	7.1
489.949	7.35
490.15	7.44
490.351	7.37
490.552	7.22
490.753	6.93
490.954	6.89
491.155	6.64
491.356	6.48
491.557	6.53
491.758	6.87
491.959	6.93
492.159	6.75
492.36	6.59
492.561	6.54
492.762	6.55
492.963	6.8
493.164	7.03
493.364	7.4
493.565	7.29
493.766	7.29
493.967	6.86
494.167	6.79
494.368	6.93
494.569	7.08
494.769	6.96
494.97	6.7
495.171	7.34
495.371	7.76
495.572	7.25
495.773	7.83
495.973	7.86
496.174	8.05
496.375	8.25
496.575	7.6
496.776	7.77
496.976	7.52
497.177	7.96
497.377	7.93
497.578	7.11
497.778	7.97
497.979	7.57
498.179	7.79
498.38	7.74
498.58	7.73
498.78	8.24
498.981	8.01
499.181	8.39
499.382	8.43
499.582	8.24
499.782	8.6
499.983	7.92
500.183	8.08
500.383	8.22
500.584	8.6
500.784	8.94
500.984	9.47
501.184	9.43
501.385	9.48
501.585	9.28
501.785	9.1
501.985	9.2
502.185	9.73
502.386	10.16
502.586	9.74
502.786	9.56
502.986	9.48
503.186	9.18
503.386	9.67
503.586	9.63
503.786	9.58
503.987	9.54
504.187	9.57
504.387	9.59
504.587	9.58
504.787	10.1
504.987	10.2
505.187	10.43
505.387	10.42
505.587	10.15
505.786	9.97
505.986	10.25
506.186	10.57
506.386	10.31
506.586	10.31
506.786	10.09
506.986	9.76
507.186	9.99
507.386	10.2
507.585	10.53
507.785	10.83
507.985	11.19
508.185	11.6
508.384	11.71
508.584	12.42
508.784	12.51
508.984	12.72
509.183	12.95
509.383	12.58
509.583	11.73
509.782	11.46
509.982	11.56
510.182	11.62
510.381	11.63
510.581	11.49
510.781	10.66
510.98	10.82
511.18	10.59
511.379	10.57
511.579	10.79
511.778	11.34
511.978	11.47
512.177	11.56
512.377	11.81
512.576	11.81
512.776	11.54
512.975	12.32
513.175	11.93
513.374	12.12
513.573	12.28
513.773	12.31
513.972	12.53
514.172	12.55
514.371	12.35
514.57	12.18
514.77	11.95
514.969	12.41
515.168	12.16
515.367	12.67
515.567	12.27
515.766	12.32
515.965	12.64
516.164	12.64
516.364	12.9
516.563	12.77
516.762	12.66
516.961	12.28
517.16	12.02
517.359	12.08
517.559	12.01
517.758	12.26
517.957	12.12
518.156	12.27
518.355	12.45
518.554	12.57
518.753	12.49
518.952	12.51
519.151	12.96
519.35	13.55
519.549	13.83
519.748	13.81
519.947	13.96
520.146	14.43
520.345	14.36
520.544	13.74
520.743	13.59
520.942	13.63
521.141	13.84
521.339	14.22
521.538	14.04
521.737	14.82
521.936	14.9
522.135	15.26
522.333	14.85
522.532	14.55
522.731	14.8
522.93	14.51
523.129	14.58
523.327	14.86
523.526	14.63
523.725	14.6
523.923	14.18
524.122	14.48
524.321	14.04
524.519	14.27
524.718	14.14
524.917	14.44
525.115	14.78
525.314	14.71
525.512	14.47
525.711	14.33
525.909	13.88
526.108	13.52
526.306	13.29
526.505	13.42
526.703	13.35
526.902	13.27
527.1	13
527.299	12.97
527.497	13.11
527.696	13.15
527.894	13.19
528.092	13.4
528.291	13.48
528.489	13.65
528.688	13.67
528.886	13.78
529.084	14.17
529.283	14.38
529.481	14.45
529.679	14.68
529.877	14.86
530.076	15.05
530.274	15.37
530.472	15.4
530.67	15.43
530.869	15.53
531.067	15.8
531.265	15.63
531.463	15.65
531.661	15.91
531.859	16.07
532.057	15.84
532.255	15.98
532.454	16.05
532.652	16.1
532.85	15.82
533.048	15.93
533.246	15.86
533.444	15.83
533.642	15.94
533.84	15.74
534.038	15.5
534.236	15.7
534.434	16.09
534.632	16.13
534.83	16.24
535.027	16.7
535.225	16.77
535.423	16.93
535.621	17.4
535.819	17.62
536.017	17.48
536.215	17.8
536.412	18.2
536.61	17.68
536.808	17.73
537.006	17.93
537.203	17.99
537.401	18.15
537.599	18.19
537.797	18.09
537.994	18.3
538.192	18.73
538.39	18.69
538.587	18.37
538.785	18.48
538.983	18.41
539.18	18.37
539.378	18.34
539.575	18.18
539.773	17.58
539.97	17.45
540.168	17.38
540.366	17.13
540.563	17.13
540.761	17.11
540.958	17.03
541.155	16.94
541.353	17.14
541.55	17.12
541.748	17.17
541.945	17.84
542.143	17.91
542.34	18.27
542.537	18.44
542.735	18.57
542.932	18.82
543.129	19.22
543.327	19.38
543.524	19.44
543.721	19.46
543.919	19.53
544.116	19.29
544.313	19.69
544.51	19.38
544.708	19.8
544.905	19.41
545.102	19.65
545.299	19.52
545.496	19.51
545.693	19.32
545.891	19.48
546.088	19.38
546.285	19.36
546.482	19.34
546.679	18.99
546.876	18.97
547.073	19.77
547.27	19.77
547.467	19.71
547.664	19.81
547.861	20.01
548.058	19.99
548.255	20.48
548.452	20.93
548.649	20.72
548.846	21.27
549.043	21.19
549.24	21.2
549.437	21.28
549.633	21.37
549.83	21.6
550.027	21.96
550.224	22.44
550.421	22.54
550.618	22.54
550.814	23.23
551.011	23.52
551.208	23.7
551.405	23.99
551.601	23.63
551.798	24.08
551.995	24.05
552.191	24.01
552.388	23.74
552.585	23.08
552.781	23.06
552.978	22.84
553.175	23.23
553.371	23.68
553.568	22.79
553.764	23.47
553.961	23.66
554.157	23.92
554.354	23.94
554.55	24.42
554.747	25.02
554.943	25.05
555.14	25.24
555.336	25.22
555.533	24.95
555.729	25.42
555.926	24.8
556.122	25.1
556.318	25.47
556.515	25.45
556.711	26.05
556.907	26.87
557.104	26.99
557.3	27.27
557.496	27.06
557.693	27.2
557.889	27.15
558.085	27.71
558.281	26.61
558.478	27.13
558.674	27.31
558.87	26.85
559.066	26.43
559.262	26.8
559.459	26.46
559.655	26.51
559.851	26.07
560.047	26.67
560.243	26.36
560.439	27.72
560.635	27.06
560.831	27.45
561.027	27.78
561.223	27.71
561.419	27.92
561.615	28.06
561.811	27.81
562.007	28.25
562.203	27.86
562.399	28.19
562.595	27.67
562.791	27.57
562.987	26.52
563.183	26.46
563.379	26.55
563.575	25.7
563.771	25.97
563.966	25.48
564.162	25.5
564.358	25.66
564.554	26.09
564.75	25.39
564.945	25.44
565.141	25.87
565.337	25.82
565.533	26.24
565.728	26.78
565.924	26.39
566.12	27.01
566.315	26.95
566.511	26.82
566.707	26.71
566.902	27.3
567.098	27.74
567.293	28.01
567.489	27.98
567.684	27.07
567.88	26.99
568.076	26.93
568.271	27.4
568.467	27.71
568.662	27.47
568.858	26.54
569.053	26.69
569.248	26.37
569.444	25.69
569.639	25.28
569.835	25.27
570.03	25.24
570.225	25.07
570.421	24.65
570.616	24.06
570.812	24.19
571.007	24.68
571.202	24.81
571.397	24.75
571.593	25.36
571.788	25.5
571.983	25.57
572.178	26.34
572.374	26.79
572.569	27.06
572.764	27.77
572.959	28.45
573.154	28.48
573.35	28.11
573.545	27.96
573.74	28.08
573.935	28.47
574.13	29.22
574.325	28.6
574.52	28.85
574.715	28.41
574.91	28.58
575.105	28.42
575.3	28.24
575.495	28.78
575.69	29.34
575.885	29.3
576.08	28.94
576.275	28.53
576.47	28.8
576.665	28.51
576.86	29.21
577.055	28.51
577.25	27.53
577.444	27.39
577.639	26.72
577.834	26.77
578.029	26.89
578.224	27.05
578.418	27.36
578.613	26.58
578.808	26.87
579.003	26.42
579.197	27.35
579.392	27.78
579.587	27.82
579.781	28.38
579.976	28.38
580.171	27.41
580.365	27.01
580.56	26.83
580.755	28.27
580.949	28.06
581.144	27.81
581.338	27.67
581.533	28.56
581.727	29.68
581.922	30.01
582.116	29.67
582.311	30.83
582.505	31.46
582.7	32.14
582.894	31.89
583.089	32.62
583.283	33.09
583.478	32.04
583.672	31.08
583.866	30.88
584.061	30.89
584.255	31.89
584.449	31.93
584.644	32.11
584.838	32.2
585.032	31.4
585.226	31.29
585.421	31.33
585.615	32.6
585.809	33.2
586.003	33.13
586.198	33.28
586.392	32.13
586.586	31.19
586.78	31.01
586.974	30.81
587.168	31.8
587.363	30.99
587.557	31.21
587.751	30.48
587.945	30.12
588.139	29.84
588.333	29.11
588.527	29.6
588.721	29.92
588.915	29.87
589.109	29.16
589.303	27.54
589.497	27.15
589.691	27.45
589.885	27.6
590.079	28.09
590.273	28.44
590.466	28.87
590.66	28.41
590.854	28.74
591.048	28.74
591.242	29.15
591.436	30.13
591.629	31
591.823	30.19
592.017	30.82
592.211	30.81
592.404	30.86
592.598	30.54
592.792	30.92
592.986	31.21
593.179	31.05
593.373	31.03
593.567	30.98
593.76	30.87
593.954	31.24
594.147	30.69
594.341	30.34
594.535	29.86
594.728	29.65
594.922	30
595.115	29.7
595.309	29.49
595.502	29
595.696	29.01
595.889	29.18
596.083	29.13
596.276	29.19
596.47	29.46
596.663	29.5
596.856	29.7
597.05	29.51
597.243	29.41
597.437	30.41
597.63	31.35
597.823	31.15
598.017	30.53
598.21	30.75
598.403	31.09
598.596	31.28
598.79	31.62
598.983	31.7
599.176	30.78
599.369	31.41
599.563	30.64
599.756	30.17
599.949	29.73
600.142	30.47
600.335	30.6
600.528	30.39
600.722	30.04
600.915	29.8
601.108	29.24
601.301	30.1
601.494	29.65
601.687	29.78
601.88	29.49
602.073	30.32
602.266	30.15
602.459	29.56
602.652	29.41
602.845	29.43
603.038	29.82
603.231	29.77
603.424	29.52
603.617	29.15
603.809	28.93
604.002	28.84
604.195	28.19
604.388	27.96
604.581	28.35
604.774	28.46
604.966	28.77
605.159	28.55
605.352	28.9
605.545	28.62
605.737	29.62
605.93	29.77
606.123	30.66
606.316	31.49
606.508	31.99
606.701	31.27
606.894	31.3
607.086	30.82
607.279	30.53
607.471	30.54
607.664	30.6
607.857	30.5
608.049	30.31
608.242	29.74
608.434	29.7
608.627	29.14
608.819	29.92
609.012	30.49
609.204	30.42
609.397	31.07
609.589	31.03
609.782	31.23
609.974	31.13
610.166	31.5
610.359	31.84
610.551	32.09
610.743	31.92
610.936	31.87
611.128	30.75
611.32	30.81
611.513	30.36
611.705	30.37
611.897	30.71
612.09	31.09
612.282	31.47
612.474	31.77
612.666	31.6
612.858	32.83
613.051	33.24
613.243	33.38
613.435	34.44
613.627	34.2
613.819	35.63
614.011	35.63
614.203	35.63
614.395	35.01
614.588	35.73
614.78	36.34
614.972	36.21
615.164	35.42
615.356	35.44
615.548	35.7
615.74	36
615.932	35.3
616.124	35.83
616.315	35.73
616.507	36.84
616.699	36.32
616.891	36.1
617.083	36.32
617.275	36.86
617.467	36.72
617.659	35.6
617.85	36.27
618.042	35.2
618.234	34.6
618.426	34.04
618.618	32.9
618.809	33.59
619.001	33.42
619.193	32.81
619.384	32
619.576	32.22
619.768	31.88
619.959	31.44
620.151	32.37
620.343	32.79
620.534	32.75
620.726	33.82
620.917	33.07
621.109	32.77
621.301	32.63
621.492	32.91
621.684	34.65
621.875	36.04
622.067	35.25
622.258	35.5
622.45	35.18
622.641	35.43
622.832	35.46
623.024	35.93
623.215	35.68
623.407	36.19
623.598	36.55
623.789	35.23
623.981	34.48
624.172	35.2
624.363	34.88
624.555	35.01
624.746	35.13
624.937	34.77
625.129	34.05
625.32	34.14
625.511	33.42
625.702	33.83
625.893	33.21
626.085	33.28
626.276	32.05
626.467	32.22
626.658	31.47
626.849	31.51
627.04	31.11
627.231	31.15
627.422	31.75
627.614	33
627.805	32.11
627.996	32.74
628.187	32.84
628.378	34.59
628.569	34.29
628.76	35.1
628.951	35.93
629.142	36.02
629.332	36.78
629.523	36.11
629.714	35.01
629.905	36.31
630.096	36.69
630.287	36.45
630.478	35.88
630.669	37.25
630.859	37.76
631.05	37.25
631.241	37.7
631.432	37.44
631.623	37.99
631.813	37.9
632.004	36.84
632.195	35.98
632.385	36.29
632.576	36.47
632.767	35.49
632.957	34.63
633.148	35.01
633.339	35.39
633.529	34.98
633.72	34.98
633.91	35.47
634.101	36.05
634.292	36.71
634.482	36.78
634.673	36.57
634.863	37.43
635.054	37.89
635.244	37.2
635.435	36.56
635.625	36.8
635.815	35.39
636.006	35.86
636.196	36.38
636.387	36.73
636.577	37.47
636.767	38.5
636.958	37.94
637.148	37.63
637.338	37.25
637.529	37.09
637.719	37.48
637.909	39.4
638.099	39.16
638.29	38.49
638.48	37.42
638.67	36.07
638.86	35.55
639.05	35.89
639.241	36.82
639.431	37.32
639.621	37.88
639.811	37.55
640.001	37.24
640.191	37.8
640.381	38.9
640.571	39.18
640.761	40.48
640.951	40.36
641.141	39.9
641.331	39.89
641.521	39.71
641.711	40.06
641.901	40.04
642.091	39.93
642.281	39.41
642.471	38.28
642.661	39.83
642.851	39.52
643.041	39.28
643.231	39.75
643.42	39.11
643.61	40.29
643.8	38.7
643.99	37.69
644.18	37.72
644.369	37.88
644.559	38.14
644.749	35.92
644.939	35.19
645.128	35.13
645.318	34.56
645.508	35.57
645.697	34.72
645.887	34.35
646.076	35.87
646.266	36.1
646.456	35.8
646.645	36.61
646.835	37.98
647.024	37.98
647.214	37.93
647.403	38.7
647.593	38.13
647.782	37.72
647.972	39.03
648.161	38.57
648.351	38.74
648.54	38.22
648.73	36.6
648.919	36.5
649.108	36.53
649.298	36.54
649.487	35.7
649.677	35.64
649.866	35.29
650.055	35.41
650.244	35.18
650.434	35.64
650.623	37.25
650.812	37.13
651.002	37.59
651.191	36.67
651.38	36.64
651.569	36.69
651.758	37.43
651.947	37.94
652.137	37.74
652.326	38.68
652.515	38.52
652.704	37.7
652.893	38.98
653.082	38.77
653.271	40.47
653.46	40.75
653.649	41.03
653.838	40.96
654.027	40.8
654.216	40.84
654.405	39.04
654.594	39.06
654.783	38.9
654.972	38.64
655.161	39.98
655.35	39.75
655.539	39.95
655.728	39.8
655.916	38.98
656.105	39.49
656.294	39.9
656.483	40.6
656.672	39.9
656.86	40.54
657.049	40.45
657.238	39.06
657.427	39.1
657.615	38.51
657.804	38.6
657.993	38.67
658.181	38.46
658.37	38.69
658.559	39.56
658.747	38.73
658.936	38.13
659.125	35.15
659.313	34.38
659.502	34.91
659.69	35.17
659.879	34.75
660.067	34.23
660.256	34.38
660.444	33.62
660.633	32.46
660.821	33.4
661.01	33.79
661.198	37.46
661.387	39.19
661.575	39.04
661.763	38.76
661.952	39.6
662.14	41.27
662.328	41.97
662.517	43.16
662.705	43.77
662.893	43.58
663.082	43.16
663.27	42.78
663.458	41.6
663.646	40.46
663.834	40.62
664.023	39.86
664.211	37.83
664.399	37.75
664.587	36.96
664.775	37.11
664.963	37.3
665.152	37.16
665.34	36.49
665.528	36.48
665.716	36.35
665.904	35.88
666.092	36.87
666.28	37.3
666.468	37.4
666.656	35.85
666.844	35.69
667.032	35.02
667.22	36.09
667.408	37.69
667.596	38.44
667.784	38.83
667.971	38.82
668.159	38.92
668.347	38.82
668.535	37.13
668.723	38.65
668.911	38.15
669.098	38.06
669.286	37.49
669.474	37.63
669.662	37.81
669.849	37.75
670.037	37.35
670.225	36.85
670.413	38.02
670.6	39.46
670.788	39.46
670.976	38.43
671.163	39.52
671.351	38.66
671.538	38.74
671.726	38.71
671.913	38.16
672.101	40.27
672.289	40.86
672.476	40.37
672.664	40.55
672.851	40.56
673.039	41.96
673.226	42.84
673.413	42.74
673.601	43
673.788	43.3
673.976	44.53
674.163	44.48
674.35	44.76
674.538	44.74
674.725	43.78
674.912	43.43
675.1	43.72
675.287	40.98
675.474	41.83
675.662	41.22
675.849	40.11
676.036	39.36
676.223	38.81
676.411	37.64
676.598	38.04
676.785	38.53
676.972	37.31
677.159	36.84
677.346	37.63
677.533	36.84
677.721	36.43
677.908	36.94
678.095	36.98
678.282	36.46
678.469	36.81
678.656	36.16
678.843	36.04
679.03	36.97
679.217	36.96
679.404	38.22
679.591	38.69
679.778	37.96
679.964	37.88
680.151	37.37
680.338	37.22
680.525	36.25
680.712	36.63
680.899	36.68
681.086	36.75
681.272	36.83
681.459	35.75
681.646	36.76
681.833	37.94
682.02	38.09
682.206	39.8
682.393	40.65
682.58	42.45
682.766	43.1
682.953	43.81
683.14	43.43
683.326	44.82
683.513	45.57
683.7	44.02
683.886	43.43
684.073	42.96
684.259	41.81
684.446	41.21
684.632	40.45
684.819	39.78
685.005	38.59
685.192	38.52
685.378	36.69
685.565	36.5
685.751	37.03
685.938	37
686.124	36.41
686.31	35.23
686.497	35.8
686.683	35.17
686.87	34.35
687.056	35.26
687.242	36.2
687.429	35.69
687.615	36.6
687.801	36.54
687.987	37.13
688.174	37.83
688.36	38.97
688.546	38.62
688.732	40.02
688.918	40.03
689.105	40.53
689.291	40.26
689.477	41.36
689.663	41.26
689.849	41.5
690.035	41.6
690.221	41.26
690.407	42.73
690.593	43.03
690.779	42.96
690.965	44.26
691.151	42.31
691.337	41.99
691.523	40.23
691.709	39.17
691.895	40.29
692.081	40.38
692.267	40.95
692.453	40.15
692.639	39.65
692.825	37.02
693.011	36.13
693.196	37.15
693.382	37.75
693.568	39.3
693.754	38.61
693.94	37.55
694.125	37.75
694.311	35.47
694.497	34.65
694.682	35.82
694.868	36.17
695.054	37.03
695.239	35.95
695.425	36.25
695.611	35.66
695.796	36.54
695.982	35.94
696.168	35.56
696.353	36.46
696.539	36.83
696.724	35.47
696.91	36.47
697.095	35.54
697.281	35.02
697.466	33.8
697.652	34.15
697.837	34.49
698.023	35.04
698.208	35.3
698.393	35.77
698.579	36.04
698.764	37.63
698.949	37.65
699.135	37.43
699.32	39.36
699.505	40.06
699.691	39.98
699.876	39.68
700.061	39.4
700.246	39.03
700.432	41.63
700.617	42.4
700.802	41.47
700.987	41.1
701.172	41.28
701.358	37.88
701.543	37.55
701.728	38.25
701.913	38.2
702.098	37.23
702.283	37.9
702.468	35.82
702.653	37.81
702.838	37.35
703.023	36.78
703.208	38.6
703.393	41.52
703.578	42.49
703.763	42.69
703.948	41.9
704.133	45.23
704.318	45.29
704.503	43.65
704.688	41.19
704.873	41.68
705.057	43.68
705.242	42.87
705.427	42.85
705.612	43.36
705.797	41.66
705.981	41.37
706.166	41.12
706.351	40.83
706.536	40.68
706.72	40.49
706.905	40
707.09	39.25
707.274	40.4
707.459	42.04
707.644	41.81
707.828	43.22
708.013	47.07
708.197	45.23
708.382	46.09
708.567	47.18
708.751	47.51
708.936	50.19
709.12	50.62
709.305	50.92
709.489	50.49
709.673	53.38
709.858	53.76
710.042	52.2
710.227	51.78
710.411	50.11
710.596	48.76
710.78	49.1
710.964	48.39
711.149	48.85
711.333	47.03
711.517	47
711.702	44.31
711.886	44.72
712.07	45.03
712.254	43.99
712.438	45.06
712.623	46.2
712.807	46.38
712.991	44.6
713.175	44.38
713.359	45.06
713.544	44.67
713.728	44.02
713.912	43.46
714.096	41.47
714.28	43.11
714.464	42.66
714.648	42.62
714.832	40.76
715.016	41.28
715.2	41.95
715.384	40.93
715.568	41.52
715.752	41.92
715.936	40.03
716.12	40.94
716.304	40.16
716.488	42.6
716.671	41.98
716.855	44.75
717.039	43.62
717.223	40.77
717.407	41.86
717.59	40.6
717.774	39.44
717.958	40.78
718.142	40.47
718.325	41.42
718.509	40.17
718.693	42.53
718.877	40.55
719.06	41.61
719.244	41.31
719.428	41.92
719.611	42.31
719.795	45.61
719.978	47.3
720.162	47.05
720.345	49.22
720.529	47.28
720.713	46.07
720.896	44.22
721.08	46.1
721.263	47.37
721.446	46.88
721.63	43.78
721.813	44.41
721.997	42.97
722.18	42.87
722.364	40.81
722.547	42.78
722.73	42.56
722.914	45.64
723.097	44.01
723.28	44.06
723.464	43.04
723.647	44.7
723.83	39.03
724.013	45.28
724.197	43.74
724.38	44.07
724.563	37.91
724.746	39.12
724.929	38
725.112	40.46
725.296	41.46
725.479	42.94
725.662	43.77
725.845	45.52
726.028	39.33
726.211	38.27
726.394	40.19
726.577	45.28
726.76	43.42
726.943	42.97
727.126	41.24
727.309	42.26
727.492	42.9
727.675	44.67
727.858	45.77
728.041	46.99
728.224	49.6
728.407	46.54
728.589	46.82
728.772	47.05
728.955	46.82
729.138	43.97
729.321	41.6
729.503	39.18
729.686	38.75
729.869	37.72
730.052	38.38
730.234	39.61
730.417	38.83
730.6	37.81
730.782	39.11
730.965	40.24
731.148	42.23
731.33	44.35
731.513	45.18
731.695	44.68
731.878	45.73
732.061	46.55
732.243	45.97
732.426	48.16
732.608	46.32
732.791	45.44
732.973	44.79
733.156	44.9
733.338	42.36
733.52	44.1
733.703	43.81
733.885	43.75
734.068	42.3
734.25	44.04
734.432	47.71
734.615	51.85
734.797	55.28
734.979	55.68
735.162	58.49
735.344	58.96
735.526	57.24
735.708	59.03
735.891	61.62
736.073	63.31
736.255	60.92
736.437	57.96
736.619	56.08
736.802	53.64
736.984	54.88
737.166	54.58
737.348	55.12
737.53	56.38
737.712	53.71
737.894	50.85
738.076	51.41
738.258	51.72
738.44	52.42
738.622	52.69
738.804	51.96
738.986	50.77
739.168	49.53
739.35	49.19
739.532	51.49
739.714	53.62
739.896	55.58
740.078	53.88
740.259	54.18
740.441	56.57
740.623	58.79
740.805	57.5
740.987	58.07
741.168	58.17
741.35	60.37
741.532	59.51
741.714	59.97
741.895	60.25
742.077	62.46
742.259	61.28
742.44	62.16
742.622	61.75
742.804	66
742.985	64.63
743.167	64.59
743.348	66.25
743.53	63.66
743.711	64.94
743.893	63.19
744.075	62.36
744.256	61.14
744.438	56.68
744.619	54.83
744.8	54.08
744.982	57.65
745.163	58.25
745.345	55.17
745.526	58.45
745.707	56.99
745.889	57.01
746.07	52.97
746.252	56.09
746.433	56.47
746.614	59.29
746.795	58.16
746.977	53.84
747.158	51.1
747.339	50.51
747.52	50.69
747.702	52.86
747.883	53.16
748.064	57
748.245	57.86
748.426	56.52
748.607	53.85
748.788	55.31
748.97	56.41
749.151	58.62
749.332	60.48
749.513	58.7
749.694	54.69
749.875	53.48
750.056	56.39
750.237	53.24
750.418	54.98
750.599	55.77
750.78	56.22
750.96	60.44
751.141	61.42
751.322	60.82
751.503	64.07
751.684	64.76
751.865	66.75
752.046	65.37
752.226	63.51
752.407	65.65
752.588	65.03
752.769	67.12
752.949	64.29
753.13	62.98
753.311	61.65
753.492	57.51
753.672	62.28
753.853	60.79
754.034	58.34
754.214	62.81
754.395	63.35
754.575	66.41
754.756	62.34
754.937	66.69
755.117	64.39
755.298	65.53
755.478	65.57
755.659	62.72
755.839	63.24
756.02	64.76
756.2	62.93
756.381	60.47
756.561	55.74
756.741	56.14
756.922	51.1
757.102	54.52
757.283	51.85
757.463	49.81
757.643	46.29
757.823	44.08
758.004	43.03
758.184	42.96
758.364	41.45
758.545	45.81
758.725	45.28
758.905	44.13
759.085	39.67
759.265	38.51
759.446	38.43
759.626	39.77
759.806	38.12
759.986	39.46
760.166	35.56
760.346	36.71
760.526	32.86
760.706	31.54
760.886	31.73
761.066	31.26
761.246	32.35
761.426	32.75
761.606	33.5
761.786	34.88
761.966	32.93
762.146	34.22
762.326	32.26
762.506	33.51
762.686	35.33
762.866	36.38
763.046	38.72
763.225	39.48
763.405	40.54
763.585	41.2
763.765	40.56
763.945	42.04
764.124	43.08
764.304	46.71
764.484	46.18
764.664	47.97
764.843	47.32
765.023	48.46
765.203	54.35
765.382	58.83
765.562	59.58
765.741	64.46
765.921	66.74
766.101	68.7
766.28	73.77
766.46	74.12
766.639	75.07
766.819	77.66
766.998	77.57
767.178	73.21
767.357	67.17
767.537	67.03
767.716	64.81
767.896	63.98
768.075	65.29
768.254	61.93
768.434	64.44
768.613	63.05
768.792	64.37
768.972	66.37
769.151	69.75
769.33	74.16
769.51	70.1
769.689	73.15
769.868	69.62
770.047	66.24
770.226	68.4
770.406	68.44
770.585	71.1
770.764	71.35
770.943	67.17
771.122	63.37
771.301	67.23
771.48	69.01
771.66	66.9
771.839	76.67
772.018	78.85
772.197	72.87
772.376	71.6
772.555	64.54
772.734	63.47
772.913	67.33
773.092	63.36
773.271	71.74
773.449	73.26
773.628	77.73
773.807	67.05
773.986	72.35
774.165	83.43
774.344	82.56
774.523	86.96
774.701	82.79
774.88	73.67
775.059	82.5
775.238	71.69
775.417	76.51
775.595	75.38
775.774	72.44
775.953	66.94
776.131	66.7
776.31	63.61
776.489	64.83
776.667	68.52
776.846	71.31
777.025	73.14
777.203	71.08
777.382	67.78
777.56	73.88
777.739	84.71
777.917	85.36
778.096	78.14
778.274	85
778.453	83.83
778.631	81.06
778.81	85.16
778.988	78.89
779.166	80.81
779.345	71.74
779.523	63.2
779.702	60.05
779.88	58.32
780.058	62.43
780.237	66.27
780.415	69.31
780.593	67
780.771	67.22
780.95	62.47
781.128	65.76
781.306	78.82
781.484	83.41
781.662	87.43
781.841	87.24
782.019	81.58
782.197	73.57
782.375	65.19
782.553	70.5
782.731	63.73
782.909	69.33
783.087	65.19
783.265	52.84
783.443	53.95
783.621	48.74
783.799	55.73
783.977	61.83
784.155	63.91
784.333	73.27
784.511	71.88
784.689	84.04
784.867	83.93
785.045	84.89
785.223	87.7
785.4	78.62
785.578	81.85
785.756	78.95
785.934	77.01
786.112	78.21
786.289	76.15
786.467	72.87
786.645	70.42
786.823	69.22
787	68.96
787.178	64.87
787.356	67.68
787.533	64.91
787.711	64.29
787.889	62.27
788.066	62.88
788.244	60.13
788.421	64.01
788.599	60.74
788.776	58.55
788.954	58.57
789.131	63.58
789.309	65.96
789.486	68.35
789.664	68.01
789.841	73.84
790.019	70.31
790.196	71.74
790.373	69.8
790.551	72.71
790.728	71.2
790.906	75.89
791.083	85.16
791.26	75.04
791.437	76.15
791.615	75.07
791.792	65.46
791.969	73.01
792.146	57.32
792.324	63.92
792.501	65.34
792.678	74.11
792.855	67.51
793.032	63.2
793.209	58.7
793.387	50.56
793.564	47.34
793.741	55.76
793.918	54.27
794.095	68.58
794.272	62.47
794.449	55.38
794.626	59.04
794.803	68.61
794.98	72.61
795.157	80.86
795.334	85.02
795.511	88.65
795.688	86.74
795.864	88.96
796.041	99.93
796.218	96.83
796.395	100.73
796.572	79.7
796.749	66.12
796.925	54.1
797.102	52.53
797.279	55.97
797.456	55.05
797.632	52.82
797.809	55.38
797.986	56.07
798.162	57.54
798.339	61.04
798.516	70.25
798.692	73.89
798.869	79.14
799.046	87.46
799.222	90.61
799.399	95.86
799.575	102.45
799.752	92.9
799.928	90.48
800.105	88.26
800.281	91.28
800.458	93.8
800.634	96.03
800.811	98.66
800.987	87.9
801.163	81.49
801.34	79.04
801.516	70.38
801.692	75.46
801.869	75.12
802.045	76.69
802.221	79.39
802.398	79.15
802.574	79.78
802.75	79.18
802.926	80.83
803.103	82
803.279	91.53
803.455	95.72
803.631	91.28
803.807	84.59
803.983	87.22
804.16	86.25
804.336	95.85
804.512	102.86
804.688	110.35
804.864	110.85
805.04	116.51
805.216	101.02
805.392	86.97
805.568	88.63
805.744	85.97
805.92	86.53
806.096	77.52
806.272	71.7
806.448	73.33
806.623	61.35
806.799	67.92
806.975	68.32
807.151	62.76
807.327	76.27
807.503	81.35
807.678	88.03
807.854	75.61
808.03	88.33
808.206	86.3
808.381	79.77
808.557	101.67
808.733	100.58
808.908	101.58
809.084	94.3
809.26	85.2
809.435	84.16
809.611	89.49
809.787	107.16
809.962	83.29
810.138	74.33
810.313	58.9
810.489	45.41
810.664	44.04
810.84	41.51
811.015	77.99
811.191	68.34
811.366	70.25
811.542	67.09
811.717	71.62
811.892	82.83
812.068	76.41
812.243	109.77
812.419	118.86
812.594	116.29
812.769	114.85
812.944	81.58
813.12	89.77
813.295	79.58
813.47	79.65
813.645	67.18
813.821	69.4
813.996	84.75
814.171	95.43
814.346	93.79
814.521	80.59
814.697	76.47
814.872	79.77
815.047	92.22
815.222	89.69
815.397	78.11
815.572	83.01
815.747	73.14
815.922	70.77
816.097	50.83
816.272	49.26
816.447	46.58
816.622	43.43
816.797	43.42
816.972	36.72
817.147	44.32
817.322	48.52
817.496	44.62
817.671	44.15
817.846	37.42
818.021	48.28
818.196	44.77
818.371	51.77
818.545	51.63
818.72	45.43
818.895	46.31
819.069	37.12
819.244	30.01
819.419	31.62
819.594	28.81
819.768	32.44
819.943	23.3
820.117	23.11
820.292	23.89
820.467	24.08
820.641	27.58
820.816	27.64
820.99	26.96
821.165	27.63
821.339	27.18
821.514	28.33
821.688	26.99
821.863	29.3
822.037	29.49
822.212	29.44
822.386	30.2
822.56	28.94
822.735	28.43
822.909	31.53
823.084	35.08
823.258	35.02
823.432	37.51
823.606	40.93
823.781	38.99
823.955	42.13
824.129	42.8
824.303	45.07
824.478	45.43
824.652	45.55
824.826	42.59
825	37.77
825.174	35.57
825.348	31.24
825.523	29.6
825.697	31.75
825.871	27.81
826.045	28.43
826.219	29.81
826.393	29.65
826.567	27.45
826.741	28.79
826.915	32.22
827.089	39.37
827.263	39.01
827.437	42.95
827.611	49.81
827.784	52.19
827.958	51.04
828.132	48.66
828.306	50.41
828.48	58.52
828.654	66.98
828.827	68.71
829.001	67.98
829.175	80.57
829.349	68.91
829.522	69.63
829.696	85.92
829.87	81.97
830.044	83.85
830.217	73.58
830.391	81.83
830.565	64.9
830.738	58.7
830.912	49.41
831.085	46.68
831.259	56.01
831.432	47.75
831.606	36.95
831.779	35.37
831.953	35.7
832.126	40.95
832.3	42.28
832.473	38.74
832.647	37.93
832.82	39.03
832.994	39.72
833.167	41.07
833.34	39.58
833.514	40.9
833.687	46.29
833.86	49.1
834.034	45.28
834.207	43.35
834.38	49.4
834.553	55.09
834.727	60.85
834.9	63.01
835.073	69.16
835.246	61.07
835.419	57.48
835.593	42.09
835.766	49.62
835.939	62.17
836.112	61.29
836.285	82.11
836.458	59.14
836.631	47.52
836.804	48.01
836.977	39.64
837.15	56.96
837.323	62.34
837.496	104.31
837.669	93.93
837.842	77.57
838.015	72.5
838.188	54.19
838.361	59.04
838.533	53.71
838.706	55.75
838.879	57.58
839.052	62.44
839.225	79.94
839.398	77.82
839.57	70.31
839.743	81.58
839.916	72.71
840.088	73.11
840.261	68.43
840.434	60.4
840.607	52.23
840.779	44.47
840.952	52.59
841.124	41.83
841.297	42.86
841.47	59.14
841.642	57.74
841.815	113.85
841.987	134.79
842.16	183.44
842.332	201.75
842.505	177.06
842.677	147.64
842.85	113.41
843.022	114.21
843.194	108.71
843.367	91.36
843.539	77.8
843.712	50.64
843.884	16.23
844.056	12.84
844.229	-16.36
844.401	6.25
844.573	43.93
844.745	107.5
844.918	66.26
845.09	121.36
845.262	103.16
845.434	69.36
845.606	166.96
845.779	-956.82
845.951	14350
846.123	-1991.18
846.295	1228.57
846.467	-1563.16
846.639	-2382.61
846.811	806.82
846.983	316.41
847.155	606.25
847.327	666.04
847.499	290.11
847.671	230.25
847.843	325.45
848.015	288.89
848.187	268.16
848.359	176.94
848.531	228.37
848.703	299.5
848.875	503.82
849.047	2177.5
849.218	5806.25
849.39	-1088.89
849.562	19860
849.734	-3303.57
849.905	13971.43
850.077	-1195.95
850.249	-575.71
850.421	1463.49
850.592	802.44
850.764	382.73
850.936	266.88
851.107	313.42
851.279	254.19
851.451	239.18
851.622	377.65
851.794	353.23
851.965	574.23
852.137	602.48
852.308	9033.33
852.48	-729.63
852.651	-407.33
852.823	-654.76
852.994	-2970.37
853.166	7500
853.337	-1541.67
853.509	256.28
853.68	6400
853.851	13.33
854.023	-19.58
854.194	89.83
854.365	45.75
854.537	35.79
854.708	2.3
854.879	-15
855.05	71.78
855.222	89.9
855.393	185.9
855.564	123.29
855.735	182.58
855.906	264.06
856.078	282.02
856.249	208.17
856.42	227.35
856.591	416.57
856.762	-3763.16
856.933	-2334.62
857.104	-716
857.275	15575
857.446	1030.77
857.617	-10066.67
857.788	27200
857.959	346.29
858.13	1095.92
858.301	350
858.472	236.11
858.643	151.81
858.814	116.94
858.985	111.62
859.155	58.33
859.326	-110.89
859.497	-12.88
859.668	-98.41
859.839	-208.93
860.009	-197.02
860.18	-38.57
860.351	4.36
860.522	43.17
860.692	60
860.863	53.89
861.034	92.98
861.204	126.36
861.375	186.05
861.546	165.37
861.716	196.94
861.887	272.12
862.057	805.88
862.228	1409.52
862.398	-144.52
862.569	-1003.92
862.739	-1275
862.91	808.7
863.08	11557.14
863.251	-4838.1
863.421	-1205.33
863.592	-8937.5
863.762	-677.92
863.932	1675.61
864.103	-1248.89
864.273	604.21
864.443	570.24
864.614	290.23
864.784	177.96
864.954	85.24
865.125	36.02
865.295	32.14
865.465	56.25
865.635	79.76
865.805	65.92
865.976	54.72
866.146	53.37
866.316	51.5
866.486	52.74
866.656	84.51
866.826	91.97
866.996	93.76
867.166	110.44
867.336	114.24
867.506	105.28
867.676	83.94
867.846	81.46
868.016	47.27
868.186	107.96
868.356	198.8
868.526	-48.48
868.696	723.53
868.866	189.55
869.036	218.52
869.206	-343.24
869.376	59.26
869.545	864
869.715	1233.33
869.885	-544.12
870.055	-138.46
870.224	181.03
870.394	191.09
870.564	375.19
870.734	414.29
870.903	177.78
871.073	386.62
871.243	300.54
871.412	263.76
871.582	658.7
871.751	-2922.73
871.921	-421.52
872.091	-82.53
872.26	-124.12
872.43	-109.84
872.599	-193.45
872.769	-147.84
872.938	-133.63
873.108	-79.63
873.277	-250.81
873.446	3330.77
873.616	-266.67
873.785	169.26
873.955	156.41
874.124	152.07
874.293	222.68
874.463	897.3
874.632	-415.94
874.801	-416.36
874.971	-105.7
875.14	-66.08
875.309	-21.01
875.478	-169.23
875.647	-26.73
875.817	-51.5
875.986	-100.4
876.155	26000
876.324	284.85
876.493	300.47
876.662	352.38
876.831	179.58
877	201.89
877.17	235.57
877.339	413.13
877.508	445.95
877.677	0
877.846	-3258.33
878.015	-1328.33
878.184	-619.49
878.352	-9600
878.521	914.71
878.69	314.64
878.859	238.39
879.028	178.52
879.197	133.33
879.366	67.31
879.534	49.78
879.703	47.37
879.872	42.52
880.041	49.6
880.21	54.73
880.378	46.54
880.547	33.96
880.716	31.79
880.884	23.03
881.053	26.65
881.222	31.01
881.39	26.26
881.559	36.38
881.727	38.22
881.896	29
882.065	20.94
882.233	21.06
882.402	26.46
882.57	12.72
882.739	24.52
882.907	12.5
883.076	8.65
883.244	15.02
883.412	-4.85
883.581	0.17
883.749	11.07
883.918	31.28
884.086	33.56
884.254	40.74
884.423	58.76
884.591	53.97
884.759	85.01
884.927	92.77
885.096	86.51
885.264	100.15
885.432	95.69
885.6	100.68
885.769	72.75
885.937	90.63
886.105	71.1
886.273	80.13
886.441	93.63
886.609	69.9
886.777	84.96
886.945	89.94
887.113	79.51
887.281	114.89
887.449	103.56
887.617	106.82
887.785	93.23
887.953	102.77
888.121	142.86
888.289	241.67
888.457	411.54
888.625	210.71
888.793	-897.37
888.961	1656.25
889.129	3733.33
889.296	523.44
889.464	751.92
889.632	701.54
889.8	479.63
889.967	239.62
890.135	181.36
