Data from JASIL_3155_Reflection_1.txt Node
Date: Thu Nov 12 21:32:31 EST 2015
User: Geneva
Spectrometer: USB4E03002
Autoset integration time: false
Trigger mode: 4
Integration Time (sec): 1.000000E-1
Scans to average: 10
Electric dark correction enabled: true
Nonlinearity correction enabled: false
Boxcar width: 5
Stray light correction enabled: false
XAxis mode: Wavelengths
Stop averaging: false
Number of Pixels in Spectrum: 3648
>>>>>Begin Spectral Data<<<<<
177.575	-20.94
177.794	-30.05
178.014	-161.53
178.233	111.2
178.452	1734.78
178.672	42.24
178.891	-29.54
179.11	221.17
179.33	82.76
179.549	140.29
179.768	-351.87
179.987	-189.66
180.207	92.79
180.426	75.72
180.645	61.64
180.864	70.6
181.084	46.22
181.303	23.08
181.522	46.93
181.741	39.91
181.96	31.95
182.179	23.61
182.398	16.17
182.618	4.98
182.837	4.68
183.056	-3.41
183.275	-52.78
183.494	-37.6
183.713	-47.48
183.932	-101.59
184.151	-80.2
184.37	-137.82
184.589	-79.57
184.808	-64.31
185.027	-89.96
185.246	-71.72
185.465	-75.32
185.684	-37.37
185.903	-71.98
186.122	-24.72
186.341	-13.24
186.56	38.43
186.779	84.16
186.998	72.43
187.216	69.38
187.435	209.58
187.654	180.59
187.873	212.91
188.092	86.15
188.311	34.41
188.53	5.78
188.748	31.37
188.967	-61.07
189.186	-74.93
189.405	-14.83
189.623	-25.27
189.842	-43.56
190.061	-83.38
190.28	-35.52
190.498	-45.97
190.717	18.66
190.936	61.07
191.154	33.58
191.373	44.45
191.592	19.74
191.81	19.78
192.029	32.12
192.248	62.43
192.466	78.58
192.685	91.09
192.904	101.72
193.122	81.88
193.341	96.51
193.559	101.89
193.778	146.29
193.996	209.45
194.215	153.16
194.433	161.99
194.652	96.51
194.87	83.97
195.089	57.56
195.307	48.32
195.526	49.03
195.744	40.89
195.963	54.95
196.181	47.41
196.399	40.18
196.618	46.02
196.836	74.79
197.055	76.52
197.273	105.7
197.491	132.38
197.71	236.81
197.928	288.65
198.146	163.47
198.365	1677.54
198.583	-348.4
198.801	-415.93
199.019	-83.68
199.238	-22.19
199.456	-102.68
199.674	-21.77
199.892	-114.75
200.111	-914.02
200.329	-458.26
200.547	51.76
200.765	236.16
200.983	-334.3
201.202	-206.05
201.42	-74.06
201.638	-69.48
201.856	-80.29
202.074	-3.06
202.292	-278.97
202.51	-96.16
202.728	-55.28
202.946	-58.87
203.165	-74.39
203.383	-11.9
203.601	13.98
203.819	20.47
204.037	24.96
204.255	28.11
204.473	3.05
204.691	29.87
204.909	7.21
205.127	-10.52
205.345	41.97
205.562	63.02
205.78	46.67
205.998	25.09
206.216	40.94
206.434	85.1
206.652	83.17
206.87	185.77
207.088	134.1
207.306	109.94
207.523	199.54
207.741	143.61
207.959	153.59
208.177	183.08
208.395	125.03
208.612	156.58
208.83	468.76
209.048	-300
209.266	3553.57
209.483	66.34
209.701	47.43
209.919	-88.83
210.136	61.9
210.354	20.14
210.572	1312.96
210.79	5.3
211.007	297.7
211.225	17.84
211.442	2.18
211.66	29.67
211.878	26.03
212.095	7.13
212.313	-19.6
212.53	-11.74
212.748	-1.18
212.966	10.45
213.183	44.9
213.401	43.93
213.618	38.82
213.836	37.84
214.053	38.32
214.271	38.99
214.488	139.48
214.705	160.94
214.923	112.91
215.14	91.74
215.358	63.05
215.575	-1.13
215.793	14.07
216.01	15.1
216.227	33.72
216.445	-62.25
216.662	50.82
216.879	49.57
217.097	54.97
217.314	191.09
217.531	641.38
217.749	624.12
217.966	208.67
218.183	155.15
218.4	164.25
218.618	366.01
218.835	456.31
219.052	468.09
219.269	1097.5
219.487	466.79
219.704	160.88
219.921	82.07
220.138	115.82
220.355	145.67
220.572	196.99
220.79	222.04
221.007	96.61
221.224	72.72
221.441	71.13
221.658	62.39
221.875	51.2
222.092	92.42
222.309	175.72
222.526	127.46
222.743	112.38
222.96	90.5
223.177	132.74
223.394	177.1
223.611	324.04
223.828	201.98
224.045	1967.71
224.262	-204.81
224.479	-88.84
224.696	-92.45
224.913	-32.17
225.13	-181.36
225.347	-61.91
225.564	25.49
225.781	43.02
225.997	38.37
226.214	-2.31
226.431	10.53
226.648	-28.07
226.865	-15.52
227.082	-76.21
227.298	-32.39
227.515	-5.71
227.732	2.55
227.949	-2.08
228.165	7.73
228.382	2.56
228.599	10.22
228.816	3.05
229.032	5.91
229.249	2.54
229.466	12.59
229.682	-0.2
229.899	-4.31
230.116	-19.55
230.332	-33.97
230.549	-33.76
230.765	-25.33
230.982	-35.07
231.199	-18.63
231.415	-21.52
231.632	-2.87
231.848	-5.71
232.065	12.16
232.281	14.92
232.498	5.41
232.714	9.74
232.931	6.19
233.147	3.09
233.364	20.84
233.58	1.19
233.797	-7.31
234.013	-21.05
234.23	-22.72
234.446	-31.1
234.662	-40.58
234.879	-8.22
235.095	-5.14
235.312	-15.36
235.528	17.41
235.744	-0.09
235.961	4.55
236.177	-24.01
236.393	-8.57
236.61	-6.3
236.826	-7.36
237.042	-17.04
237.258	-22.39
237.475	-43.03
237.691	-51.43
237.907	-83.49
238.123	-45
238.339	-29.88
238.556	2.23
238.772	-6.57
238.988	20.34
239.204	24.19
239.42	31.01
239.636	19.01
239.853	35.18
240.069	35.65
240.285	28.04
240.501	22.05
240.717	23.59
240.933	24.38
241.149	20.96
241.365	6.3
241.581	5.24
241.797	2.4
242.013	0.95
242.229	-3.23
242.445	-0.2
242.661	-0.17
242.877	-0.28
243.093	3.04
243.309	2.18
243.525	6.33
243.741	15.29
243.957	14
244.173	16.63
244.388	15.58
244.604	8.4
244.82	5.96
245.036	7.64
245.252	13.74
245.468	11.21
245.683	9.86
245.899	6.82
246.115	4.91
246.331	5.84
246.547	4.97
246.762	5.9
246.978	9.49
247.194	6.64
247.409	3.95
247.625	1.71
247.841	2.1
248.057	3.92
248.272	3.17
248.488	6.46
248.703	6.85
248.919	9.77
249.135	10.24
249.35	9.56
249.566	18.59
249.782	21.41
249.997	18.64
250.213	14.67
250.428	9.27
250.644	6.49
250.859	6.51
251.075	-0.22
251.29	-3.8
251.506	-5.5
251.721	-10.2
251.937	-15.85
252.152	-13.47
252.368	-15.84
252.583	-20.35
252.798	-16.01
253.014	-16.57
253.229	-22.42
253.445	-17.4
253.66	-16.01
253.875	-20.62
254.091	-22.97
254.306	-6.75
254.521	-20.69
254.737	-16.18
254.952	-18.34
255.167	-25.49
255.383	-13.76
255.598	-8.6
255.813	-8.41
256.028	-10.14
256.244	-4.57
256.459	0.94
256.674	-6.61
256.889	2.71
257.104	10.33
257.32	16.37
257.535	16.42
257.75	6.09
257.965	3.86
258.18	3.19
258.395	-0.16
258.61	2.4
258.826	4.35
259.041	0.94
259.256	-0.73
259.471	-3.29
259.686	-6.52
259.901	-5.54
260.116	-2.86
260.331	-0.66
260.546	1.67
260.761	4.47
260.976	3.71
261.191	3
261.406	8.29
261.621	7.53
261.836	8.34
262.05	11.84
262.265	7.91
262.48	15.87
262.695	16.37
262.91	19.14
263.125	21.48
263.34	23.73
263.555	21.48
263.769	15.28
263.984	17.33
264.199	16.24
264.414	15.4
264.629	18.13
264.843	12.29
265.058	7.61
265.273	0.77
265.488	-4.02
265.702	-5.81
265.917	-9.51
266.132	-12.17
266.346	-7.82
266.561	-8.53
266.776	-6.57
266.99	-5.88
267.205	-4.4
267.42	-1.79
267.634	-0.52
267.849	0.84
268.063	1.99
268.278	7.43
268.492	7.89
268.707	5.53
268.922	5.18
269.136	3.01
269.351	4.93
269.565	2.09
269.78	2.15
269.994	1.14
270.209	4.2
270.423	5.42
270.637	3.19
270.852	6.8
271.066	7.88
271.281	8.71
271.495	9.69
271.709	4.41
271.924	5.32
272.138	1.64
272.353	-2.81
272.567	-6.45
272.781	-8.04
272.996	-7.88
273.21	-9.01
273.424	-9.05
273.638	-8.31
273.853	-9.83
274.067	-5.83
274.281	-2.48
274.495	-0.92
274.71	6.71
274.924	7.67
275.138	7.07
275.352	6.21
275.566	5.23
275.781	3.05
275.995	5.14
276.209	2.76
276.423	-0.17
276.637	-2.17
276.851	-3.61
277.065	-12.28
277.279	-17.41
277.493	-19.16
277.707	-15.86
277.921	-14.06
278.135	-15.38
278.349	-12.15
278.563	-6.82
278.777	-4.28
278.991	-6.8
279.205	-3.18
279.419	4.68
279.633	8.02
279.847	7.85
280.061	3.25
280.275	4.71
280.489	3.58
280.703	-4.52
280.917	-2.18
281.131	-3.42
281.344	-4.29
281.558	-6.62
281.772	-8.56
281.986	-9.16
282.2	-8.73
282.414	-5.7
282.627	-5.13
282.841	-2.97
283.055	1.99
283.269	0.57
283.482	1.55
283.696	3.51
283.91	6.39
284.123	1.02
284.337	0.33
284.551	1.73
284.764	3.67
284.978	3.27
285.192	3.15
285.405	2.69
285.619	3.65
285.833	4.02
286.046	6.94
286.26	6.48
286.473	11.48
286.687	12.37
286.9	13.78
287.114	10.74
287.327	9.03
287.541	10.53
287.754	9.09
287.968	6.43
288.181	5.09
288.395	0.55
288.608	0.74
288.822	-0.85
289.035	-1.95
289.248	-4.61
289.462	-2.81
289.675	-1.46
289.889	-0.13
290.102	1.11
290.315	1.9
290.529	2.17
290.742	3.94
290.955	2.12
291.169	3.77
291.382	4.77
291.595	5.98
291.808	5.64
292.022	5.01
292.235	3.62
292.448	2
292.661	-1.42
292.875	-0.21
293.088	0.92
293.301	1.7
293.514	-2.38
293.727	-3.71
293.94	-8.34
294.153	-6.64
294.367	-8.22
294.58	-7.87
294.793	-6.81
295.006	-5.77
295.219	-7.11
295.432	-6.12
295.645	-7.17
295.858	-3.38
296.071	-2.13
296.284	0.15
296.497	-1.57
296.71	-0.96
296.923	-0.59
297.136	-0.66
297.349	-0.69
297.562	1.91
297.775	-1.3
297.988	1.24
298.201	-0.61
298.414	1.93
298.626	4.95
298.839	6.55
299.052	8.61
299.265	8.14
299.478	7.57
299.691	7.72
299.903	6.48
300.116	8.87
300.329	9.16
300.542	10.04
300.755	7.55
300.967	5.87
301.18	6
301.393	5.96
301.605	5.44
301.818	4.52
302.031	4.38
302.243	2.57
302.456	2.53
302.669	3.06
302.881	-0.28
303.094	-2.4
303.307	-0.91
303.519	0.95
303.732	-1.23
303.944	-1.03
304.157	-2.11
304.37	0.27
304.582	-0.57
304.795	0.52
305.007	-0.57
305.22	5.09
305.432	6.02
305.645	2.71
305.857	2.66
306.069	5.27
306.282	6.66
306.494	10.05
306.707	10.49
306.919	12.4
307.132	9.7
307.344	7.02
307.556	5.28
307.769	4.5
307.981	7
308.193	4.12
308.406	2.69
308.618	3.16
308.83	2.75
309.043	3.64
309.255	5.76
309.467	5.77
309.679	7.26
309.892	7.44
310.104	8.77
310.316	7.18
310.528	8.13
310.74	8.7
310.953	6.84
311.165	6.59
311.377	6.09
311.589	4.96
311.801	4.39
312.013	3.36
312.225	1.89
312.437	-0.28
312.649	-1.88
312.862	-1.47
313.074	-1.07
313.286	-0.31
313.498	1.32
313.71	-2.26
313.922	-4.45
314.134	-4.17
314.346	-5.94
314.558	-4.72
314.77	-1.31
314.982	0.79
315.193	-1.28
315.405	-5.05
315.617	-3.61
315.829	-9.76
316.041	-8.74
316.253	-5.15
316.465	-3.95
316.677	-2.84
316.888	-1.91
317.1	-0.52
317.312	-1.97
317.524	-1.54
317.736	-0.18
317.947	-4.97
318.159	-0.57
318.371	2.38
318.583	2.05
318.794	2.38
319.006	5.49
319.218	4.47
319.43	4.78
319.641	4.55
319.853	5.72
320.064	9.28
320.276	12.29
320.488	10.15
320.699	7.55
320.911	6.48
321.123	6.32
321.334	3.41
321.546	4.88
321.757	3.86
321.969	7.02
322.18	7.98
322.392	3.64
322.603	5.03
322.815	7.82
323.026	7.94
323.238	7.74
323.449	9.73
323.661	10.25
323.872	8.79
324.083	6.64
324.295	7.78
324.506	6.01
324.718	6.87
324.929	7.85
325.14	6.84
325.352	5.2
325.563	5.04
325.774	1.76
325.986	1.52
326.197	0.92
326.408	1.82
326.62	-0.15
326.831	-0.99
327.042	-0.39
327.253	-2.48
327.464	-3.21
327.676	-1.12
327.887	-2.46
328.098	0.6
328.309	1.99
328.52	1.98
328.732	1.6
328.943	0.34
329.154	2.86
329.365	2.01
329.576	4.05
329.787	7.38
329.998	8.17
330.209	11.46
330.42	11.08
330.631	8.86
330.842	11.84
331.053	13.09
331.264	16.76
331.475	17.93
331.686	17.72
331.897	17.82
332.108	14.81
332.319	15.42
332.53	12.19
332.741	13.57
332.952	13.94
333.163	12.68
333.374	11.66
333.585	9.5
333.795	6.64
334.006	6.76
334.217	6.88
334.428	9.09
334.639	7.84
334.849	10.25
335.06	10.44
335.271	11.16
335.482	11.26
335.692	12.44
335.903	10.09
336.114	10.34
336.325	11.38
336.535	10.9
336.746	7.25
336.957	8.47
337.167	6.75
337.378	2.8
337.589	3.06
337.799	3.54
338.01	3.57
338.22	6.96
338.431	10.14
338.642	9.42
338.852	11.21
339.063	12.83
339.273	12.83
339.484	14.98
339.694	17.45
339.905	16.6
340.115	14.58
340.326	14.13
340.536	12.85
340.746	10.71
340.957	9.61
341.167	7.73
341.378	8.36
341.588	8.27
341.799	5.52
342.009	2.6
342.219	3.91
342.43	7.21
342.64	7.18
342.85	6.36
343.061	5.6
343.271	6.83
343.481	5.08
343.691	3.27
343.902	0.8
344.112	1.75
344.322	5.04
344.532	3.57
344.743	1.9
344.953	1.88
345.163	2.46
345.373	4.23
345.583	3.5
345.793	5.37
346.004	7.66
346.214	9.45
346.424	10.64
346.634	8.88
346.844	10.95
347.054	11.79
347.264	11.16
347.474	10.8
347.684	9.27
347.894	8.78
348.104	7.58
348.314	7.58
348.524	7.62
348.734	8.77
348.944	10.16
349.154	9.27
349.364	7.94
349.574	8.64
349.784	9.76
349.994	11.9
350.204	11.74
350.413	10.47
350.623	9.96
350.833	9.58
351.043	8.25
351.253	7.8
351.463	7.07
351.672	7.24
351.882	8.04
352.092	5.65
352.302	2.72
352.511	2.39
352.721	2.82
352.931	3.35
353.141	4.73
353.35	5.2
353.56	5.24
353.77	3.71
353.979	1.67
354.189	-0.49
354.399	2.23
354.608	0.2
354.818	0.19
355.027	0.87
355.237	1.16
355.447	0.67
355.656	-0.18
355.866	-1.45
356.075	0.63
356.285	2.82
356.494	3.45
356.704	3.44
356.913	6.25
357.123	6.96
357.332	7.77
357.542	7.48
357.751	7.72
357.96	6.97
358.17	8.67
358.379	9.27
358.589	8.8
358.798	9.66
359.007	8.9
359.217	9.72
359.426	9.87
359.635	9.68
359.845	8.83
360.054	7.78
360.263	9.22
360.472	7.97
360.682	7.15
360.891	7.33
361.1	7.37
361.309	8.97
361.519	8.13
361.728	7.36
361.937	7.17
362.146	8.41
362.355	9.3
362.564	8.47
362.774	8.9
362.983	8.8
363.192	8.48
363.401	8.21
363.61	4.93
363.819	3.01
364.028	4.17
364.237	4.28
364.446	4.14
364.655	3.42
364.864	3.9
365.073	4.96
365.282	5.07
365.491	5.73
365.7	5.57
365.909	7.05
366.118	8.77
366.327	8.79
366.536	9.05
366.745	8.9
366.954	7.73
367.162	6.45
367.371	5.42
367.58	5.76
367.789	6.33
367.998	7.52
368.207	6.99
368.415	6.39
368.624	4.61
368.833	3.34
369.042	1.3
369.25	3.12
369.459	4.67
369.668	5.03
369.877	5.36
370.085	5.41
370.294	4.05
370.503	4.43
370.711	4.66
370.92	7.14
371.129	7.99
371.337	8.13
371.546	8.11
371.754	7.23
371.963	6.11
372.171	7.14
372.38	5.61
372.589	4.18
372.797	3.56
373.006	3.3
373.214	0.63
373.423	0.55
373.631	1.55
373.84	2.2
374.048	2.38
374.256	3.46
374.465	1.79
374.673	2.78
374.882	3.7
375.09	4.42
375.298	5
375.507	6.97
375.715	7.59
375.923	8.86
376.132	8.07
376.34	8.16
376.548	8.59
376.757	7.93
376.965	8.73
377.173	8.57
377.381	7.64
377.59	7.83
377.798	7.13
378.006	6.81
378.214	4.72
378.423	2.97
378.631	4.22
378.839	3.55
379.047	4.9
379.255	3.67
379.463	5.21
379.671	5.76
379.879	5.95
380.088	6.48
380.296	7.06
380.504	7.63
380.712	8.95
380.92	7.81
381.128	8.16
381.336	7.96
381.544	8.23
381.752	6.31
381.96	7.04
382.168	6.02
382.376	6.67
382.584	5.89
382.791	4.69
382.999	5.28
383.207	4.62
383.415	5.36
383.623	3.95
383.831	4.03
384.039	5.34
384.247	5.03
384.454	6.37
384.662	5.56
384.87	6.57
385.078	7.81
385.285	7.39
385.493	8.67
385.701	8.12
385.909	9.17
386.116	8.69
386.324	8.8
386.532	8.67
386.739	8.76
386.947	7.98
387.155	6.77
387.362	6.86
387.57	7.14
387.778	6.95
387.985	6.18
388.193	5.89
388.4	5.69
388.608	6.03
388.816	5.22
389.023	5.4
389.231	6.28
389.438	6.22
389.646	6.25
389.853	6.35
390.061	6.16
390.268	5.71
390.475	6.82
390.683	7.24
390.89	6.44
391.098	7.04
391.305	5.91
391.512	5.06
391.72	4.3
391.927	4.79
392.135	4.37
392.342	3.95
392.549	4.74
392.756	4.84
392.964	5.6
393.171	5.02
393.378	5.57
393.586	5.86
393.793	5.3
394	6.44
394.207	6.74
394.414	7.33
394.622	7.41
394.829	6.84
395.036	6.43
395.243	5.16
395.45	5.45
395.657	4.98
395.864	5.88
396.072	7.16
396.279	7.17
396.486	4.81
396.693	4.7
396.9	4.98
397.107	5.57
397.314	5.53
397.521	6.84
397.728	7.2
397.935	5.85
398.142	4.4
398.349	4.37
398.556	4.09
398.763	6.75
398.97	6.46
399.177	6.77
399.383	6.92
399.59	7.37
399.797	6.64
400.004	6.84
400.211	7.32
400.418	8.07
400.625	8.53
400.831	8.29
401.038	6.4
401.245	5.66
401.452	5.2
401.658	4.87
401.865	4.52
402.072	5.06
402.279	4.61
402.485	4.82
402.692	4.05
402.899	2.5
403.105	2.98
403.312	4.42
403.519	4.7
403.725	3.89
403.932	4.17
404.138	3.74
404.345	3.69
404.552	4.11
404.758	3.78
404.965	3.65
405.171	4.83
405.378	4.66
405.584	4.54
405.791	5.57
405.997	5.65
406.204	4.8
406.41	4.79
406.617	3.91
406.823	3.3
407.029	4.11
407.236	3.85
407.442	2.67
407.649	2.76
407.855	1.83
408.061	0.05
408.268	1.31
408.474	3.34
408.68	3.66
408.887	4.71
409.093	5.16
409.299	4.13
409.505	5.48
409.712	5.86
409.918	6.2
410.124	6.66
410.33	7.55
410.537	6.54
410.743	5.47
410.949	5.33
411.155	4.8
411.361	5.46
411.567	6.57
411.773	6.14
411.98	6.44
412.186	6.3
412.392	6.17
412.598	6.28
412.804	7.83
413.01	7.23
413.216	7.22
413.422	7.04
413.628	6.48
413.834	5.75
414.04	5.49
414.246	5.32
414.452	5.26
414.658	4.57
414.864	4.29
415.07	3.62
415.275	3.83
415.481	3.82
415.687	3.27
415.893	3.14
416.099	4.17
416.305	4.45
416.511	5.28
416.716	5.01
416.922	4.87
417.128	4.55
417.334	4.92
417.539	4.62
417.745	4.78
417.951	5.48
418.157	5.1
418.362	4.36
418.568	4.26
418.774	4.08
418.979	3.95
419.185	4.24
419.391	4.64
419.596	4.12
419.802	4.32
420.008	4.18
420.213	4.07
420.419	4.37
420.624	4.64
420.83	4.9
421.035	4.44
421.241	4.99
421.446	4.98
421.652	5.33
421.857	5.56
422.063	5.08
422.268	5.13
422.474	4.47
422.679	4.86
422.885	4.9
423.09	4.69
423.295	5.11
423.501	4.22
423.706	4.35
423.911	4.36
424.117	3.99
424.322	4.43
424.527	4.48
424.733	5.21
424.938	4.64
425.143	4.05
425.349	4.25
425.554	4.21
425.759	4.81
425.964	4.42
426.169	4.02
426.375	4.34
426.58	4.53
426.785	4.23
426.99	3.95
427.195	4.12
427.4	4.52
427.605	3.94
427.811	4.14
428.016	4.38
428.221	4.56
428.426	4.72
428.631	4.52
428.836	4.51
429.041	5.35
429.246	4.72
429.451	4.77
429.656	5.29
429.861	5.26
430.066	5.22
430.271	5.45
430.476	5.6
430.681	5.18
430.886	5.34
431.09	5.04
431.295	4.85
431.5	5.42
431.705	5.68
431.91	5.51
432.115	6.1
432.32	5.36
432.524	4.96
432.729	4.82
432.934	4.63
433.139	4.86
433.343	5.14
433.548	4.75
433.753	4.25
433.958	4.37
434.162	4.16
434.367	4.02
434.572	3.72
434.776	3.58
434.981	3.77
435.186	4.65
435.39	4.53
435.595	4.37
435.799	4.69
436.004	5.23
436.209	4.95
436.413	5.36
436.618	5.21
436.822	5.73
437.027	5.53
437.231	5.44
437.436	5.51
437.64	4.69
437.845	4.92
438.049	4.87
438.253	5.27
438.458	5.02
438.662	4.63
438.867	4.99
439.071	4.56
439.275	4.81
439.48	4.98
439.684	4.09
439.888	4.77
440.093	4.35
440.297	3.96
440.501	3.65
440.706	3.63
440.91	3.24
441.114	2.47
441.318	2.41
441.523	2.08
441.727	2.15
441.931	2.83
442.135	2.83
442.339	2.77
442.543	3.48
442.748	3.41
442.952	3.61
443.156	3.99
443.36	4.15
443.564	4.45
443.768	4.37
443.972	3.74
444.176	3.96
444.38	4.14
444.584	4.31
444.788	3.97
444.992	3.69
445.196	3.65
445.4	3.59
445.604	3.74
445.808	3.83
446.012	3.84
446.216	4.3
446.42	3.9
446.624	3.63
446.828	3.41
447.032	3.62
447.235	3.91
447.439	4.03
447.643	4.32
447.847	3.81
448.051	3.5
448.254	3.75
448.458	4.09
448.662	3.89
448.866	3.99
449.069	4.4
449.273	4.19
449.477	4.14
449.681	4.06
449.884	3.6
450.088	4.22
450.292	4.48
450.495	5.06
450.699	4.46
450.902	4.75
451.106	4.94
451.31	5.25
451.513	4.8
451.717	5.01
451.92	4.61
452.124	5.04
452.327	5.24
452.531	5.21
452.734	4.75
452.938	4.44
453.141	4.25
453.345	4.18
453.548	4.08
453.752	4.42
453.955	4.28
454.158	4.61
454.362	4.1
454.565	4.57
454.769	5.01
454.972	4.79
455.175	4.99
455.379	5.73
455.582	5.12
455.785	4.64
455.988	4.27
456.192	4.13
456.395	4.14
456.598	4.7
456.801	4.16
457.005	3.68
457.208	3.96
457.411	4
457.614	3.5
457.817	3.43
458.021	3.75
458.224	3.69
458.427	4.04
458.63	3.67
458.833	3.81
459.036	3.69
459.239	4.02
459.442	3.79
459.645	3.78
459.848	3.75
460.051	4.13
460.254	4.18
460.457	4.51
460.66	4.21
460.863	5.1
461.066	4.9
461.269	4.92
461.472	4.27
461.675	4.64
461.878	4.92
462.081	5.49
462.284	5.28
462.486	4.95
462.689	5.18
462.892	5.26
463.095	4.73
463.298	4.65
463.5	4.67
463.703	4.79
463.906	4.65
464.109	4.14
464.311	4.1
464.514	4.45
464.717	4.49
464.92	4.19
465.122	4.26
465.325	3.96
465.528	4.2
465.73	4.17
465.933	4.63
466.135	4.34
466.338	5.01
466.541	4.32
466.743	4.31
466.946	4.37
467.148	4.69
467.351	4.67
467.553	4.4
467.756	4.39
467.958	4.21
468.161	3.71
468.363	3.69
468.566	2.66
468.768	3.09
468.971	2.8
469.173	3.15
469.375	3.03
469.578	2.5
469.78	2.82
469.983	2.28
470.185	2.57
470.387	3.16
470.59	3.53
470.792	3.79
470.994	3.29
471.196	2.83
471.399	2.05
471.601	1.58
471.803	2.28
472.005	2.36
472.208	2.04
472.41	1.84
472.612	1.95
472.814	1.96
473.016	1.67
473.218	2.07
473.421	2.79
473.623	3.06
473.825	3.5
474.027	3.21
474.229	3.02
474.431	3.64
474.633	4.52
474.835	4.62
475.037	4.52
475.239	5.09
475.441	5.03
475.643	4.52
475.845	4.09
476.047	3.99
476.249	3.48
476.451	4.27
476.653	4.44
476.855	4.36
477.057	4.17
477.258	4.06
477.46	4.08
477.662	4.29
477.864	4.73
478.066	5.27
478.268	5.35
478.469	5.7
478.671	5.24
478.873	5.15
479.075	4.59
479.276	4.6
479.478	4.81
479.68	4.22
479.882	4.03
480.083	4.28
480.285	4.22
480.487	4.22
480.688	4.29
480.89	4.33
481.091	4.28
481.293	4.44
481.495	4.39
481.696	4.11
481.898	4.46
482.099	4.36
482.301	4.26
482.502	4.37
482.704	4.46
482.905	4.46
483.107	4.44
483.308	4.56
483.51	4.5
483.711	4.44
483.913	4.59
484.114	4.51
484.315	4.55
484.517	4.62
484.718	4.63
484.92	4.52
485.121	4.45
485.322	4.42
485.524	4.38
485.725	4.25
485.926	4.41
486.127	4.38
486.329	4.3
486.53	4.32
486.731	4.03
486.932	3.94
487.134	4.03
487.335	4.15
487.536	4.2
487.737	4.08
487.938	4.22
488.139	3.92
488.341	3.91
488.542	4.07
488.743	4.04
488.944	4.11
489.145	4.16
489.346	3.91
489.547	3.67
489.748	3.62
489.949	3.8
490.15	3.71
490.351	4.04
490.552	4.01
490.753	3.99
490.954	3.9
491.155	4.04
491.356	3.92
491.557	4.26
491.758	4.27
491.959	4.44
492.159	4.25
492.36	4.52
492.561	4.55
492.762	4.61
492.963	4.62
493.164	4.78
493.364	4.7
493.565	4.81
493.766	4.47
493.967	4.58
494.167	4.33
494.368	4.46
494.569	3.98
494.769	3.66
494.97	3.13
495.171	3.23
495.371	3.12
495.572	3.12
495.773	3.35
495.973	3.39
496.174	3.33
496.375	3.68
496.575	3.89
496.776	4.22
496.976	4.49
497.177	5.27
497.377	5.19
497.578	5.33
497.778	5.14
497.979	4.82
498.179	5.03
498.38	5.36
498.58	4.9
498.78	4.6
498.981	4.23
499.181	4.33
499.382	3.97
499.582	4.27
499.782	4.03
499.983	4.32
500.183	4.52
500.383	4.37
500.584	4.26
500.784	4.44
500.984	4.42
501.184	4.14
501.385	3.91
501.585	3.63
501.785	3.78
501.985	4.37
502.185	4.49
502.386	4.46
502.586	4.63
502.786	4.76
502.986	4.69
503.186	4.52
503.386	4.86
503.586	4.57
503.786	5.12
503.987	4.69
504.187	4.04
504.387	4.01
504.587	3.71
504.787	3.61
504.987	3.62
505.187	3.52
505.387	4.07
505.587	4.35
505.786	4.53
505.986	3.78
506.186	3.46
506.386	3.84
506.586	4.13
506.786	4.25
506.986	4.48
507.186	4.42
507.386	4.44
507.585	4.18
507.785	4.27
507.985	4.49
508.185	4.96
508.384	5.01
508.584	4.92
508.784	4.43
508.984	4.51
509.183	3.84
509.383	4.03
509.583	4.02
509.782	4.29
509.982	4.38
510.182	4.76
510.381	4.37
510.581	4.74
510.781	4.67
510.98	4.88
511.18	4.7
511.379	4.73
511.579	4.59
511.778	4.94
511.978	4.51
512.177	4.54
512.377	3.87
512.576	4.16
512.776	4.34
512.975	4.63
513.175	4.77
513.374	5.27
513.573	5.3
513.773	5.14
513.972	4.96
514.172	5.06
514.371	4.88
514.57	5.1
514.77	5.13
514.969	5.01
515.168	4.92
515.367	5.02
515.567	5.02
515.766	5.76
515.965	5.72
516.164	5.44
516.364	5.74
516.563	5.69
516.762	5.81
516.961	5.94
517.16	5.96
517.359	6.13
517.559	5.6
517.758	5.4
517.957	5.26
518.156	5.45
518.355	5.73
518.554	5.69
518.753	5.96
518.952	6.25
519.151	6.18
519.35	5.93
519.549	5.73
519.748	6.1
519.947	5.97
520.146	5.92
520.345	5.87
520.544	5.87
520.743	6.04
520.942	6
521.141	5.67
521.339	6.08
521.538	6.29
521.737	6.21
521.936	6.76
522.135	7.3
522.333	7.34
522.532	7.44
522.731	7.7
522.93	7.59
523.129	7.23
523.327	7.48
523.526	7.22
523.725	7.25
523.923	7.43
524.122	6.91
524.321	6.76
524.519	7.02
524.718	7.13
524.917	6.72
525.115	6.66
525.314	6.82
525.512	6.59
525.711	6.65
525.909	6.81
526.108	6.9
526.306	6.91
526.505	7.12
526.703	7.07
526.902	7.09
527.1	7.24
527.299	7.22
527.497	7.21
527.696	7.34
527.894	7.27
528.092	7.4
528.291	7.51
528.489	7.49
528.688	7.56
528.886	7.59
529.084	7.69
529.283	7.86
529.481	7.97
529.679	7.99
529.877	7.94
530.076	8
530.274	7.83
530.472	7.56
530.67	7.52
530.869	7.4
531.067	7.25
531.265	7.15
531.463	7.15
531.661	7.39
531.859	7.62
532.057	7.76
532.255	7.88
532.454	8.04
532.652	8.06
532.85	8.12
533.048	8.24
533.246	8.36
533.444	8.34
533.642	8.27
533.84	8.38
534.038	8.23
534.236	8.54
534.434	8.52
534.632	8.51
534.83	8.84
535.027	9.16
535.225	9.18
535.423	9.1
535.621	9.28
535.819	9.59
536.017	9.5
536.215	9.58
536.412	9.42
536.61	9.52
536.808	9.66
537.006	9.69
537.203	9.94
537.401	9.77
537.599	9.98
537.797	10.02
537.994	9.78
538.192	9.78
538.39	9.78
538.587	9.76
538.785	9.54
538.983	9.39
539.18	9.64
539.378	9.39
539.575	9.53
539.773	9.37
539.97	9.36
540.168	9.43
540.366	9.34
540.563	9.41
540.761	9.5
540.958	9.53
541.155	9.45
541.353	9.3
541.55	9.21
541.748	9.13
541.945	9.19
542.143	9.33
542.34	9.34
542.537	9.51
542.735	9.28
542.932	9.06
543.129	9.14
543.327	9.49
543.524	9.44
543.721	9.72
543.919	9.44
544.116	9.13
544.313	8.66
544.51	8.46
544.708	8.36
544.905	8.73
545.102	9.03
545.299	9.19
545.496	8.77
545.693	8.87
545.891	8.82
546.088	9.42
546.285	10.16
546.482	10.34
546.679	10.65
546.876	10.48
547.073	10.84
547.27	10.43
547.467	10.47
547.664	11.16
547.861	11.27
548.058	11.57
548.255	11.46
548.452	11.11
548.649	11.23
548.846	11.12
549.043	11.18
549.24	10.71
549.437	11.01
549.633	10.77
549.83	10
550.027	9.8
550.224	9.93
550.421	9.66
550.618	10.03
550.814	10.18
551.011	10.6
551.208	10.71
551.405	10.79
551.601	10.91
551.798	11.61
551.995	11.57
552.191	11.35
552.388	11.2
552.585	11.1
552.781	11.08
552.978	11.04
553.175	11.05
553.371	11.17
553.568	11.64
553.764	11.4
553.961	10.88
554.157	10.76
554.354	10.87
554.55	10.93
554.747	11.79
554.943	11.88
555.14	11.59
555.336	11.16
555.533	11.48
555.729	11.11
555.926	11.09
556.122	11.39
556.318	11.68
556.515	12.48
556.711	12.56
556.907	11.75
557.104	11.97
557.3	12.35
557.496	12.55
557.693	12.61
557.889	12.29
558.085	12.41
558.281	12.37
558.478	12.68
558.674	12.41
558.87	12.3
559.066	12.39
559.262	11.77
559.459	11.93
559.655	12.05
559.851	11.43
560.047	11.46
560.243	11.74
560.439	11.83
560.635	12.23
560.831	11.98
561.027	12.19
561.223	12.71
561.419	12.83
561.615	12.62
561.811	12.15
562.007	13.04
562.203	13.58
562.399	13.23
562.595	13.34
562.791	12.91
562.987	13.62
563.183	13.89
563.379	13.84
563.575	14.21
563.771	14.32
563.966	15.11
564.162	15.07
564.358	15.15
564.554	15.78
564.75	15.65
564.945	16.14
565.141	15.76
565.337	15.22
565.533	15.25
565.728	14.94
565.924	15.19
566.12	14.91
566.315	14.38
566.511	14.14
566.707	13.75
566.902	13.97
567.098	13.71
567.293	13.42
567.489	13.69
567.684	14.1
567.88	13.93
568.076	13.28
568.271	13.98
568.467	14.3
568.662	14.21
568.858	14.11
569.053	13.79
569.248	14.13
569.444	14.54
569.639	15.08
569.835	14.8
570.03	15.33
570.225	16.12
570.421	15.78
570.616	16.08
570.812	16.07
571.007	16.37
571.202	16.92
571.397	17.1
571.593	16.54
571.788	16.66
571.983	16.15
572.178	16.14
572.374	16.29
572.569	15.64
572.764	15.51
572.959	16.24
573.154	16.37
573.35	16.06
573.545	15.89
573.74	16.57
573.935	15.67
574.13	15.68
574.325	15.53
574.52	15.24
574.715	16.3
574.91	16.29
575.105	15.74
575.3	15.77
575.495	15.85
575.69	15.32
575.885	15.42
576.08	15.78
576.275	16.66
576.47	17.09
576.665	17.34
576.86	16.6
577.055	16.21
577.25	16.28
577.444	16.45
577.639	15.99
577.834	15.54
578.029	15.58
578.224	15.54
578.418	15.46
578.613	15.32
578.808	15.44
579.003	15.9
579.197	16.9
579.392	17.47
579.587	17.87
579.781	18.01
579.976	18.7
580.171	18.84
580.365	19.26
580.56	19.36
580.755	18.9
580.949	18.98
581.144	18.6
581.338	18.02
581.533	17.04
581.727	16.16
581.922	16.62
582.116	16.48
582.311	16.13
582.505	15.67
582.7	16.12
582.894	16
583.089	15.16
583.283	14.9
583.478	15.03
583.672	16.16
583.866	16.3
584.061	15.6
584.255	16.55
584.449	16.82
584.644	17.05
584.838	16.2
585.032	17.01
585.226	16.9
585.421	17.82
585.615	17.91
585.809	17.84
586.003	17.8
586.198	18.26
586.392	17.99
586.586	17.58
586.78	18.18
586.974	17.78
587.168	17.6
587.363	18.48
587.557	18.27
587.751	18.48
587.945	18.41
588.139	19.38
588.333	19.57
588.527	19.55
588.721	20.06
588.915	20.07
589.109	20.49
589.303	19.92
589.497	20.16
589.691	19.2
589.885	19.57
590.079	19.42
590.273	18.31
590.466	18.61
590.66	18.52
590.854	17.89
591.048	17.76
591.242	17.9
591.436	18.26
591.629	17.51
591.823	18.57
592.017	17.42
592.211	17.54
592.404	18
592.598	17.34
592.792	17.49
592.986	17.67
593.179	17.61
593.373	17.93
593.567	18.89
593.76	19.17
593.954	19
594.147	19.57
594.341	19.6
594.535	19.85
594.728	20.09
594.922	19.56
595.115	19.81
595.309	19.71
595.502	20.06
595.696	18.94
595.889	18.66
596.083	18.68
596.276	18.96
596.47	19.1
596.663	19.26
596.856	19.68
597.05	19.57
597.243	19.84
597.437	19.58
597.63	18.21
597.823	18.63
598.017	19.23
598.21	19.21
598.403	19.08
598.596	18.34
598.79	17.81
598.983	18.07
599.176	18.61
599.369	18.5
599.563	18.95
599.756	20.02
599.949	20.74
600.142	20.82
600.335	21.37
600.528	21.21
600.722	21.96
600.915	22.27
601.108	21.77
601.301	22.47
601.494	21.76
601.687	21.44
601.88	21.21
602.073	20.11
602.266	19.89
602.459	19.81
602.652	19.67
602.845	19.17
603.038	19.71
603.231	19.4
603.424	19.21
603.617	19.43
603.809	19.82
604.002	19.82
604.195	20.5
604.388	20.75
604.581	20.68
604.774	20.93
604.966	20.84
605.159	20.2
605.352	19.88
605.545	19.72
605.737	19.96
605.93	19.65
606.123	20.03
606.316	18.96
606.508	18.78
606.701	18.31
606.894	18.54
607.086	18.92
607.279	18.37
607.471	19.93
607.664	20.23
607.857	19.47
608.049	19.59
608.242	19.54
608.434	20.57
608.627	20.21
608.819	20.73
609.012	20.04
609.204	20.21
609.397	21.39
609.589	21.05
609.782	20.97
609.974	21.84
610.166	21.95
610.359	21.82
610.551	22.38
610.743	22.62
610.936	22.26
611.128	22.85
611.32	23.01
611.513	22.16
611.705	21.67
611.897	21.32
612.09	20.9
612.282	21.11
612.474	21.28
612.666	20.38
612.858	20.03
613.051	20.31
613.243	20.38
613.435	20.07
613.627	20.13
613.819	20.12
614.011	20.05
614.203	19.28
614.395	18.73
614.588	18.13
614.78	18.81
614.972	19.01
615.164	19.63
615.356	20.32
615.548	20.22
615.74	20.46
615.932	19.95
616.124	20.44
616.315	21.58
616.507	21.47
616.699	22.11
616.891	21.9
617.083	21.95
617.275	21.06
617.467	19.18
617.659	20.06
617.85	20.24
618.042	20.81
618.234	20.68
618.426	20.37
618.618	21.17
618.809	20.22
619.001	19.82
619.193	20.19
619.384	20.88
619.576	21.74
619.768	22
619.959	21.41
620.151	21.25
620.343	20.82
620.534	19.99
620.726	19.48
620.917	20.54
621.109	20.77
621.301	20.39
621.492	20.12
621.684	20.07
621.875	19.05
622.067	19.43
622.258	19.83
622.45	20.19
622.641	21.27
622.832	21.3
623.024	21.44
623.215	21.16
623.407	21.88
623.598	21.49
623.789	21.65
623.981	22.03
624.172	22.31
624.363	21.46
624.555	21.05
624.746	21.75
624.937	22.16
625.129	21.88
625.32	21.78
625.511	21.7
625.702	22.05
625.893	22.29
626.085	22.83
626.276	22.65
626.467	23.58
626.658	24.33
626.849	23.27
627.04	22.9
627.231	22.99
627.422	23.32
627.614	22.18
627.805	21.67
627.996	21.85
628.187	21.55
628.378	20.53
628.569	19.89
628.76	19.03
628.951	19.95
629.142	20.27
629.332	20.12
629.523	19.67
629.714	20.51
629.905	21.91
630.096	21.55
630.287	20.88
630.478	22.11
630.669	22.16
630.859	22.48
631.05	22.45
631.241	22.53
631.432	22.57
631.623	22.51
631.813	22.56
632.004	21.65
632.195	22.57
632.385	23.35
632.576	22.66
632.767	23.42
632.957	23.59
633.148	23.88
633.339	23.36
633.529	23.44
633.72	24.52
633.91	25.34
634.101	25.27
634.292	24.67
634.482	24.18
634.673	24.95
634.863	23.41
635.054	23.16
635.244	23.27
635.435	24.02
635.625	24.82
635.815	24.45
636.006	23.51
636.196	23.47
636.387	23.17
636.577	23.34
636.767	22.93
636.958	24.24
637.148	24.37
637.338	23.78
637.529	23.72
637.719	22.99
637.909	22.06
638.099	21.72
638.29	22.07
638.48	21.22
638.67	21.34
638.86	21.79
639.05	21.26
639.241	19.74
639.431	19.84
639.621	20.45
639.811	20.37
640.001	19.91
640.191	19.46
640.381	19.22
640.571	19.72
640.761	19.06
640.951	17.94
641.141	18.77
641.331	20.03
641.521	19.2
641.711	17.45
641.901	17.66
642.091	19.17
642.281	19.6
642.471	19.51
642.661	19.24
642.851	20.38
643.041	21.26
643.231	20.79
643.42	21.38
643.61	21.06
643.8	22.29
643.99	23.08
644.18	22.86
644.369	23.11
644.559	23.62
644.749	24.32
644.939	23.73
645.128	23.74
645.318	24.55
645.508	25.02
645.697	25.8
645.887	25.13
646.076	24.33
646.266	23.1
646.456	23.67
646.645	24.02
646.835	24.81
647.024	24.23
647.214	23.44
647.403	21.72
647.593	21.37
647.782	20.45
647.972	20.32
648.161	19.54
648.351	20.91
648.54	21.21
648.73	20.1
648.919	20.63
649.108	21.94
649.298	22.22
649.487	22.68
649.677	23.73
649.866	24.42
650.055	24.48
650.244	25.56
650.434	26.63
650.623	26.58
650.812	27.9
651.002	27.6
651.191	26.93
651.38	26.78
651.569	26.78
651.758	25.03
651.947	25.26
652.137	25.84
652.326	25.37
652.515	23.19
652.704	22.15
652.893	21.33
653.082	20.12
653.271	19.6
653.46	20.55
653.649	21.5
653.838	21.41
654.027	22.21
654.216	22.16
654.405	23.45
654.594	23.42
654.783	24.01
654.972	23.71
655.161	24.57
655.35	24.35
655.539	23.95
655.728	22.44
655.916	23.97
656.105	22.77
656.294	22.42
656.483	20.7
656.672	21.79
656.86	21.93
657.049	21.51
657.238	21.46
657.427	22.55
657.615	22.82
657.804	22.82
657.993	21.46
658.181	21.54
658.37	21.3
658.559	21.73
658.747	22.01
658.936	21.83
659.125	22.62
659.313	22.24
659.502	21.79
659.69	21.27
659.879	22.39
660.067	23.12
660.256	23.46
660.444	24.24
660.633	23.55
660.821	23.01
661.01	22.44
661.198	22.13
661.387	22.47
661.575	22.51
661.763	23.86
661.952	22.98
662.14	21.6
662.328	20.85
662.517	21.46
662.705	22.47
662.893	22.2
663.082	22.84
663.27	23.09
663.458	23.37
663.646	23.92
663.834	22.53
664.023	22.85
664.211	23.66
664.399	25.38
664.587	24.33
664.775	25.47
664.963	26.27
665.152	26.92
665.34	26.72
665.528	27.14
665.716	26.75
665.904	26.91
666.092	27.47
666.28	27.89
666.468	26.37
666.656	26.71
666.844	24.66
667.032	24.12
667.22	23.68
667.408	23.89
667.596	23.39
667.784	23.63
667.971	23.64
668.159	23.09
668.347	22.6
668.535	23.44
668.723	24.46
668.911	25.54
669.098	25.77
669.286	26.1
669.474	26.01
669.662	26.15
669.849	24.91
670.037	24.29
670.225	24.38
670.413	25.21
670.6	25
670.788	25.27
670.976	25.8
671.163	25.5
671.351	25.26
671.538	25.55
671.726	26.66
671.913	27.3
672.101	27.86
672.289	28.03
672.476	28.09
672.664	28.78
672.851	26.85
673.039	24.69
673.226	25.49
673.413	25.87
673.601	25.26
673.788	23.28
673.976	23
674.163	23.12
674.35	22.81
674.538	22.51
674.725	21.36
674.912	21.28
675.1	22.06
675.287	22.53
675.474	21.76
675.662	21.9
675.849	21.6
676.036	22.65
676.223	22.95
676.411	24.1
676.598	23.34
676.785	24.57
676.972	26
677.159	27.3
677.346	26.43
677.533	27.41
677.721	27.74
677.908	28.62
678.095	29.18
678.282	29.02
678.469	27.26
678.656	27.02
678.843	27.43
679.03	26.05
679.217	26.29
679.404	26.6
679.591	26.4
679.778	27.28
679.964	27.21
680.151	26.77
680.338	26.81
680.525	27.18
680.712	27.99
680.899	28.13
681.086	27.99
681.272	27.31
681.459	26.28
681.646	26.22
681.833	24.71
682.02	24.64
682.206	24.66
682.393	23.58
682.58	23.08
682.766	24.99
682.953	23.32
683.14	24.91
683.326	25
683.513	25.81
683.7	24.92
683.886	24.52
684.073	24.5
684.259	24.7
684.446	26.53
684.632	27.81
684.819	25.3
685.005	25.91
685.192	25.03
685.378	25.55
685.565	26.29
685.751	26.64
685.938	27.91
686.124	27.67
686.31	28.36
686.497	28.76
686.683	28.61
686.87	29.07
687.056	28.73
687.242	28.14
687.429	27.18
687.615	26
687.801	26.2
687.987	25.63
688.174	25.36
688.36	23.14
688.546	22.38
688.732	22.42
688.918	22.46
689.105	22.67
689.291	23.42
689.477	22.42
689.663	24.3
689.849	24.76
690.035	24.66
690.221	26.8
690.407	27.85
690.593	27.86
690.779	28.55
690.965	28.35
691.151	27.02
691.337	26.25
691.523	27.4
691.709	25.67
691.895	25.46
692.081	25.66
692.267	23.32
692.453	23.77
692.639	23.38
692.825	22.52
693.011	22.39
693.196	22.23
693.382	22.24
693.568	21.86
693.754	22.21
693.94	22.73
694.125	22.94
694.311	25.13
694.497	23.83
694.682	24.65
694.868	25.6
695.054	26.82
695.239	28.82
695.425	29.49
695.611	28.79
695.796	27.96
695.982	27.62
696.168	27.04
696.353	25.36
696.539	26.75
696.724	26.6
696.91	26.29
697.095	25.51
697.281	24.85
697.466	25.27
697.652	27.17
697.837	27.43
698.023	26.73
698.208	26.62
698.393	26.77
698.579	25.61
698.764	25.34
698.949	24.77
699.135	25.4
699.32	25.24
699.505	24.24
699.691	22.45
699.876	22.91
700.061	24.7
700.246	25.79
700.432	26.99
700.617	27.34
700.802	26.83
700.987	25.91
701.172	25.61
701.358	27.26
701.543	26.95
701.728	27.32
701.913	27.45
702.098	26.4
702.283	24.1
702.468	20.94
702.653	23.73
702.838	24.35
703.023	25.99
703.208	26.36
703.393	24.76
703.578	26.37
703.763	27.97
703.948	27.97
704.133	28.24
704.318	30.56
704.503	31.32
704.688	28.94
704.873	28.86
705.057	30.06
705.242	28.9
705.427	29.66
705.612	27.73
705.797	27.46
705.981	28.28
706.166	26.89
706.351	25.38
706.536	25.76
706.72	25.22
706.905	24.25
707.09	23.11
707.274	24.23
707.459	24.94
707.644	27.5
707.828	25.15
708.013	24.62
708.197	25.84
708.382	26.42
708.567	25.46
708.751	26.2
708.936	29.16
709.12	29.47
709.305	29.97
709.489	28.47
709.673	27.37
709.858	29.31
710.042	29.91
710.227	28.55
710.411	28.79
710.596	29.55
710.78	29.53
710.964	27.39
711.149	26.93
711.333	26.65
711.517	28.06
711.702	27.69
711.886	27.16
712.07	25.64
712.254	26.21
712.438	25.16
712.623	25.51
712.807	26.49
712.991	26.81
713.175	27.67
713.359	27.05
713.544	25.93
713.728	26.18
713.912	28.16
714.096	28.28
714.28	29.15
714.464	29.1
714.648	29.03
714.832	29.24
715.016	29.87
715.2	29.25
715.384	28.82
715.568	29.9
715.752	29.36
715.936	27.45
716.12	28.21
716.304	27.74
716.488	29.35
716.671	30.41
716.855	29.42
717.039	29.68
717.223	29.91
717.407	30.09
717.59	30.47
717.774	31.85
717.958	30.66
718.142	30.38
718.325	32.29
718.509	32.57
718.693	31.8
718.877	30.93
719.06	28.91
719.244	28.34
719.428	31.4
719.611	28.2
719.795	26.69
719.978	26.48
720.162	27.98
720.345	27.21
720.529	25.61
720.713	28.3
720.896	30.77
721.08	31.38
721.263	32.96
721.446	32.46
721.63	35.8
721.813	38.01
721.997	41.09
722.18	38.97
722.364	37.39
722.547	37.13
722.73	36.4
722.914	36.24
723.097	37.1
723.28	35.55
723.464	34.33
723.647	32.99
723.83	31.37
724.013	29.87
724.197	28.92
724.38	28.98
724.563	29.93
724.746	27.64
724.929	25.52
725.112	25.62
725.296	25.97
725.479	25.22
725.662	24.03
725.845	25.14
726.028	25.8
726.211	25.63
726.394	23.7
726.577	24.45
726.76	25.13
726.943	27.67
727.126	26.62
727.309	26.77
727.492	27.21
727.675	30.19
727.858	27.07
728.041	25.14
728.224	25
728.407	26.1
728.589	24.61
728.772	22.86
728.955	20.45
729.138	21.22
729.321	19.23
729.503	18.1
729.686	17.05
729.869	17.6
730.052	20.39
730.234	21.14
730.417	21.16
730.6	21.94
730.782	21.27
730.965	23.36
731.148	22.9
731.33	27.02
731.513	25.77
731.695	27.21
731.878	29.9
732.061	28.56
732.243	28.7
732.426	28.68
732.608	29.52
732.791	29.88
732.973	29.59
733.156	30.9
733.338	27.73
733.52	29.09
733.703	26.27
733.885	25.27
734.068	27.03
734.25	29.53
734.432	31.05
734.615	30.78
734.797	31.95
734.979	31.31
735.162	31
735.344	30.23
735.526	31.03
735.708	34
735.891	33.95
736.073	32.42
736.255	31
736.437	28.81
736.619	27.52
736.802	27.39
736.984	28.44
737.166	26.56
737.348	28.34
737.53	25.53
737.712	21.52
737.894	21.63
738.076	19.51
738.258	18.21
738.44	20.23
738.622	20.29
738.804	21.18
738.986	19.32
739.168	20.17
739.35	20.6
739.532	20.81
739.714	24.69
739.896	25.29
740.078	29.62
740.259	29.88
740.441	30.2
740.623	30.33
740.805	32.9
740.987	34.94
741.168	35.96
741.35	33.95
741.532	34.46
741.714	32.94
741.895	33.71
742.077	31.68
742.259	30.65
742.44	28.36
742.622	29.58
742.804	27.35
742.985	25.42
743.167	24.03
743.348	24.66
743.53	28.16
743.711	26.48
743.893	27.72
744.075	27.96
744.256	34.32
744.438	33.8
744.619	33.43
744.8	31.94
744.982	35.01
745.163	37.37
745.345	36.86
745.526	34.94
745.707	34.41
745.889	32.23
746.07	32.08
746.252	28.82
746.433	31.43
746.614	29.98
746.795	28.9
746.977	24.16
747.158	20.36
747.339	24.72
747.52	23.06
747.702	22.87
747.883	22.93
748.064	26.99
748.245	25.26
748.426	25.82
748.607	25.88
748.788	25.53
748.97	28.16
749.151	29.72
749.332	25.07
749.513	25.78
749.694	25.18
749.875	25.01
750.056	23.28
750.237	23.41
750.418	21.04
750.599	21.33
750.78	23.07
750.96	21.93
751.141	23.84
751.322	27.64
751.503	24.13
751.684	25.32
751.865	26.07
752.046	24.6
752.226	22.79
752.407	21.43
752.588	21.93
752.769	26.43
752.949	28.74
753.13	27.85
753.311	24.99
753.492	25.6
753.672	26.37
753.853	29.67
754.034	30.01
754.214	31.27
754.395	33
754.575	29.45
754.756	24.01
754.937	19.86
755.117	19.69
755.298	23.13
755.478	27.07
755.659	26.92
755.839	23.7
756.02	23.76
756.2	24.18
756.381	22.35
756.561	25.15
756.741	26.5
756.922	29.79
757.102	32.48
757.283	31.63
757.463	32.98
757.643	32.28
757.823	29.32
758.004	30.27
758.184	31.39
758.364	33.84
758.545	33.86
758.725	30.75
758.905	31.01
759.085	30.16
759.265	27.83
759.446	26.7
759.626	26.49
759.806	28.73
759.986	25.88
760.166	24.22
760.346	22.02
760.526	23.61
760.706	25.85
760.886	26.16
761.066	20.49
761.246	18.34
761.426	18.09
761.606	16.42
761.786	16.53
761.966	18.78
762.146	19.42
762.326	19.36
762.506	19.94
762.686	20.34
762.866	19.53
763.046	24.4
763.225	27.59
763.405	25.68
763.585	25.5
763.765	26.54
763.945	25.14
764.124	26.79
764.304	30.01
764.484	30.23
764.664	28.78
764.843	29.35
765.023	28.1
765.203	27.78
765.382	29.83
765.562	31.77
765.741	30.97
765.921	32.01
766.101	30.28
766.28	27.14
766.46	24.11
766.639	26.56
766.819	25.56
766.998	24.1
767.178	25.1
767.357	33.38
767.537	30.41
767.716	29.12
767.896	29.54
768.075	29.36
768.254	30.76
768.434	34.05
768.613	36.56
768.792	33.36
768.972	35.58
769.151	37.58
769.33	29.85
769.51	36.03
769.689	42.69
769.868	43.3
770.047	42.54
770.226	45.29
770.406	43.25
770.585	38.76
770.764	43.02
770.943	43.57
771.122	37.51
771.301	36.33
771.48	34.74
771.66	26.87
771.839	26.43
772.018	29.41
772.197	27.61
772.376	28.72
772.555	29.26
772.734	29.65
772.913	25.6
773.092	28.14
773.271	31.13
773.449	31.85
773.628	32.85
773.807	31.68
773.986	31.61
774.165	32.6
774.344	30.06
774.523	33.06
774.701	35.05
774.88	34.05
775.059	32.14
775.238	29.84
775.417	31.13
775.595	26.24
775.774	29.11
775.953	26.08
776.131	21.9
776.31	23
776.489	21.05
776.667	11.12
776.846	14.03
777.025	17.84
777.203	13.94
777.382	10.76
777.56	17.77
777.739	11.52
777.917	15.01
778.096	14.78
778.274	18.07
778.453	19.7
778.631	27.78
778.81	26.11
778.988	22.98
779.166	26.54
779.345	26.03
779.523	28.85
779.702	32.51
779.88	32.75
780.058	30.3
780.237	28.46
780.415	30.42
780.593	26.92
780.771	31.34
780.95	35.87
781.128	36.99
781.306	39.45
781.484	36.62
781.662	33.66
781.841	33.52
782.019	34.93
782.197	37.68
782.375	34.78
782.553	38.02
782.731	36.69
782.909	36.63
783.087	33.86
783.265	34.91
783.443	33.98
783.621	37.83
783.799	32.04
783.977	38.75
784.155	37.95
784.333	35.54
784.511	39.84
784.689	37.67
784.867	32.49
785.045	30.85
785.223	25.82
785.4	26.32
785.578	20.55
785.756	21.73
785.934	15.74
786.112	13.9
786.289	17.85
786.467	14.4
786.645	18.55
786.823	25.83
787	32.44
787.178	37.46
787.356	37.63
787.533	41.93
787.711	48.06
787.889	49.57
788.066	46.08
788.244	45.34
788.421	41.92
788.599	38.81
788.776	36.61
788.954	31.22
789.131	23.16
789.309	19.87
789.486	17.09
789.664	14.04
789.841	14.29
790.019	16.12
790.196	14.18
790.373	12.27
790.551	6.09
790.728	6.04
790.906	0.39
791.083	13.36
791.26	19.02
791.437	20.64
791.615	23.9
791.792	25.43
791.969	29.62
792.146	33.33
792.324	34.05
792.501	40.19
792.678	38.53
792.855	43.36
793.032	41.54
793.209	41.17
793.387	41.92
793.564	40.28
793.741	41.67
793.918	39.95
794.095	37.31
794.272	35.86
794.449	31.44
794.626	28.83
794.803	30.58
794.98	25
795.157	23.22
795.334	21.01
795.511	16.04
795.688	11.76
795.864	10.93
796.041	7.77
796.218	14.82
796.395	22.59
796.572	25.68
796.749	21.97
796.925	19.5
797.102	19.26
797.279	25.58
797.456	24.97
797.632	30.17
797.809	31.43
797.986	36.58
798.162	30.61
798.339	21.9
798.516	22.46
798.692	23.88
798.869	32.17
799.046	33.02
799.222	31.25
799.399	36.7
799.575	36.2
799.752	34.05
799.928	25.82
800.105	27.07
800.281	33.03
800.458	30.02
800.634	32.28
800.811	29.13
800.987	31.29
801.163	32.17
801.34	31.65
801.516	28.58
801.692	30.01
801.869	32.21
802.045	30.34
802.221	26.02
802.398	26.09
802.574	23.39
802.75	16.67
802.926	17.19
803.103	18.81
803.279	16.96
803.455	23.67
803.631	27.05
803.807	32.67
803.983	37.08
804.16	39.29
804.336	45
804.512	49.06
804.688	55.18
804.864	53.51
805.04	46.33
805.216	46.1
805.392	37.66
805.568	33.55
805.744	33.49
805.92	30.35
806.096	25.52
806.272	17.62
806.448	22.26
806.623	27.71
806.799	26.07
806.975	27.4
807.151	24.72
807.327	26.42
807.503	34.96
807.678	36.36
807.854	44.97
808.03	48.78
808.206	52.03
808.381	57.11
808.557	61.38
808.733	60.9
808.908	60
809.084	71.2
809.26	66.76
809.435	62.29
809.611	57.93
809.787	48.64
809.962	51.01
810.138	48.91
810.313	34.13
810.489	29.38
810.664	27.49
810.84	33.92
811.015	31.94
811.191	35.25
811.366	36.64
811.542	38.4
811.717	39.51
811.892	41.73
812.068	43.68
812.243	50.89
812.419	43.01
812.594	39.07
812.769	35.93
812.944	34.57
813.12	38.76
813.295	37.19
813.47	37.02
813.645	28.09
813.821	31.85
813.996	29.45
814.171	24.22
814.346	31.97
814.521	34.89
814.697	30.93
814.872	30.46
815.047	31.6
815.222	26.62
815.397	23.96
815.572	30.59
815.747	25.23
815.922	29.02
816.097	32.74
816.272	31.44
816.447	35.65
816.622	25.72
816.797	30.53
816.972	26.46
817.147	28.64
817.322	26.12
817.496	29.33
817.671	18.32
817.846	15.44
818.021	8.48
818.196	13.28
818.371	13.55
818.545	26.97
818.72	19.71
818.895	23.2
819.069	20.96
819.244	26.51
819.419	20.97
819.594	34.9
819.768	31.26
819.943	31.63
820.117	29.85
820.292	29.13
820.467	30.7
820.641	31.91
820.816	31.79
820.99	32.09
821.165	31.01
821.339	31
821.514	29.26
821.688	30.94
821.863	31.94
822.037	32.89
822.212	31.66
822.386	31.21
822.56	31.48
822.735	31.16
822.909	31.24
823.084	31.66
823.258	30.61
823.432	31.26
823.606	30.82
823.781	29.15
823.955	26.34
824.129	27
824.303	25.02
824.478	24.48
824.652	24.69
824.826	23.34
825	23.28
825.174	24.77
825.348	24.94
825.523	26.21
825.697	26.92
825.871	30.39
826.045	30.43
826.219	31.92
826.393	31.31
826.567	31.79
826.741	33.52
826.915	33.55
827.089	34.4
827.263	33.88
827.437	34.21
827.611	35.51
827.784	35.07
827.958	36.27
828.132	36.1
828.306	36.28
828.48	36.26
828.654	37.84
828.827	37.56
829.001	34.91
829.175	33.36
829.349	31.63
829.522	26.85
829.696	23.17
829.87	25.17
830.044	26.38
830.217	26.08
830.391	17.25
830.565	14.1
830.738	19.77
830.912	23.43
831.085	23.36
831.259	17.2
831.432	26.29
831.606	29.73
831.779	28.13
831.953	22.39
832.126	27.74
832.3	33.07
832.473	27.04
832.647	20.95
832.82	20.73
832.994	18.87
833.167	24.97
833.34	18.61
833.514	19.61
833.687	19.3
833.86	23.01
834.034	17.61
834.207	17.73
834.38	22.16
834.553	23.7
834.727	22.83
834.9	26.14
835.073	25.11
835.246	28.25
835.419	25.64
835.593	24.16
835.766	21.78
835.939	23.36
836.112	21.42
836.285	19.33
836.458	14.41
836.631	14.77
836.804	17.89
836.977	11.59
837.15	7.64
837.323	6.59
837.496	2.85
837.669	0.03
837.842	1.18
838.015	7.91
838.188	23.31
838.361	26.6
838.533	31.48
838.706	24.65
838.879	35.77
839.052	40.7
839.225	39.18
839.398	56.52
839.57	53.5
839.743	56.7
839.916	44.6
840.088	38.62
840.261	38.45
840.434	43.69
840.607	44.83
840.779	43.05
840.952	43.42
841.124	47.61
841.297	38.23
841.47	37.89
841.642	36.89
841.815	34.3
841.987	32.57
842.16	36.95
842.332	37.96
842.505	38.24
842.677	31.34
842.85	23.35
843.022	32
843.194	25.51
843.367	43.44
843.539	49.07
843.712	75.71
843.884	64.02
844.056	52.46
844.229	31.29
844.401	2.24
844.573	-5
844.745	-0.08
844.918	10.03
845.09	52.92
845.262	60.87
845.434	62.31
845.606	43.92
845.779	87.78
845.951	199.83
846.123	276.68
846.295	325.93
846.467	219.07
846.639	248.61
846.811	486.03
846.983	197.65
847.155	275.1
847.327	146.6
847.499	127.13
847.671	149.22
847.843	115.56
848.015	105.39
848.187	127.25
848.359	476.76
848.531	-162.44
848.703	456.7
848.875	-1089.29
849.047	746.7
849.218	-264.03
849.39	38.61
849.562	17.68
849.734	15.43
849.905	11.18
850.077	31.43
850.249	173.07
850.421	227.26
850.592	85.28
850.764	-30.81
850.936	-45.21
851.107	-3.06
851.279	2.53
851.451	0.66
851.622	5.06
851.794	-3.17
851.965	-19.04
852.137	-20.97
852.308	-11.96
852.48	-12.58
852.651	-29.3
852.823	-31.66
852.994	-95.66
853.166	-142.62
853.337	-142.88
853.509	-186.73
853.68	2771.25
853.851	41.14
854.023	16.47
854.194	59.98
854.365	63.07
854.537	110.25
854.708	80.85
854.879	102.95
855.05	127.21
855.222	135.02
855.393	294.48
855.564	545.06
855.735	-204.51
855.906	-910.55
856.078	-125.84
856.249	-547.44
856.42	-15250
856.591	768.1
856.762	3497.37
856.933	266.51
857.104	512.21
857.275	134.64
857.446	81.71
857.617	85.49
857.788	73.46
857.959	67.9
858.13	78.12
858.301	68.03
858.472	86.35
858.643	79.38
858.814	49.23
858.985	7.54
859.155	-47.54
859.326	-28.58
859.497	-159.61
859.668	165.74
859.839	65.76
860.009	148.68
860.18	367.54
860.351	132.85
860.522	131.03
860.692	73.46
860.863	64.74
861.034	40.48
861.204	31.13
861.375	61.68
861.546	65.34
861.716	90.48
861.887	89.65
862.057	610
862.228	13.08
862.398	-126.85
862.569	3.96
862.739	90.79
862.91	41.62
863.08	-2.35
863.251	40.89
863.421	43.1
863.592	55.9
863.762	68.72
863.932	82.71
864.103	72.04
864.273	88.91
864.443	-154.25
864.614	-26.06
864.784	6.1
864.954	76.01
865.125	56.58
865.295	127.57
865.465	11.16
865.635	-49.72
865.805	-15.9
865.976	10.05
866.146	36.37
866.316	48.52
866.486	54.82
866.656	27.9
866.826	-26.85
866.996	-45.44
867.166	-489.87
867.336	-198.74
867.506	-739.44
867.676	116.17
867.846	69.96
868.016	93.57
868.186	90.82
868.356	108.28
868.526	141.98
868.696	160.16
868.866	156.8
869.036	138.28
869.206	255.07
869.376	293.94
869.545	-214.88
869.715	-83.62
869.885	-24.24
870.055	-21.05
870.224	-3.3
870.394	32.16
870.564	39.88
870.734	51.04
870.903	43.94
871.073	40.04
871.243	43.8
871.412	27.38
871.582	-1.32
871.751	21.15
871.921	43.55
872.091	18.57
872.26	-73.14
872.43	-75.17
872.599	47.47
872.769	43.84
872.938	21.86
873.108	24.07
873.277	46.95
873.446	50.81
873.616	50.99
873.785	60.64
873.955	87.02
874.124	98.3
874.293	104.51
874.463	43.92
874.632	34.52
874.801	22.85
874.971	3.93
875.14	-74.93
875.309	-67.37
875.478	-96.04
875.647	-130.23
875.817	-57.08
875.986	-53.34
876.155	-4.37
876.324	17.06
876.493	12.1
876.662	29.61
876.831	42.7
877	59.69
877.17	62.32
877.339	91.15
877.508	91.71
877.677	79.03
877.846	155.93
878.015	154.04
878.184	97.15
878.352	127.31
878.521	114.72
878.69	64.56
878.859	78.09
879.028	73.88
879.197	72.38
879.366	56.96
879.534	52.5
879.703	35.57
879.872	35.19
880.041	35.01
880.21	28.04
880.378	34.53
880.547	36.15
880.716	31.29
880.884	32.7
881.053	28.18
881.222	30.37
881.39	25.92
881.559	26.78
881.727	29.26
881.896	29.13
882.065	28.27
882.233	27.35
882.402	26.99
882.57	24.53
882.739	23.94
882.907	26.85
883.076	27.55
883.244	29.65
883.412	28.11
883.581	25.17
883.749	27.54
883.918	25.52
884.086	25.7
884.254	28.42
884.423	32.66
884.591	34.62
884.759	32.56
884.927	28.51
885.096	25.25
885.264	30.35
885.432	29.96
885.6	33.57
885.769	42.79
885.937	41.03
886.105	28.47
886.273	16.55
886.441	-1.21
886.609	-9.97
886.777	-10.52
886.945	-10.65
887.113	-30.59
887.281	-32.06
887.449	-63.85
887.617	-56.3
887.785	-64.19
887.953	-75.26
888.121	-93.72
888.289	-76.17
888.457	-123.28
888.625	-114.13
888.793	-114.93
888.961	-117.48
889.129	4.93
889.296	36.55
889.464	27.19
889.632	41.46
889.8	70.43
889.967	69.86
890.135	70.31
