Data from JASIL_3172_Reflection_1.txt Node
Date: Thu Nov 12 23:00:40 EST 2015
User: Geneva
Spectrometer: USB4E03002
Autoset integration time: false
Trigger mode: 4
Integration Time (sec): 1.000000E-1
Scans to average: 10
Electric dark correction enabled: true
Nonlinearity correction enabled: false
Boxcar width: 5
Stray light correction enabled: false
XAxis mode: Wavelengths
Stop averaging: false
Number of Pixels in Spectrum: 3648
>>>>>Begin Spectral Data<<<<<
177.575	1.91
177.794	34.74
178.014	68.65
178.233	-8.45
178.452	32.46
178.672	55.19
178.891	10.26
179.11	-34.77
179.33	-11.02
179.549	82.95
179.768	-1054.18
179.987	-400.55
180.207	-324.77
180.426	-788.37
180.645	846.7
180.864	731.54
181.084	543.19
181.303	2724.94
181.522	596.99
181.741	246.76
181.96	443.94
182.179	408.03
182.398	969.3
182.618	813.55
182.837	-180.39
183.056	-163.57
183.275	-52.7
183.494	-38.66
183.713	-37.37
183.932	17.16
184.151	4.78
184.37	24.94
184.589	12.45
184.808	2.71
185.027	-4.13
185.246	-36.34
185.465	7.27
185.684	-17.8
185.903	-21.13
186.122	-32.69
186.341	-65.95
186.56	-85.56
186.779	-744.55
186.998	-344.62
187.216	-128.67
187.435	-124.37
187.654	-455.7
187.873	-549.59
188.092	348.85
188.311	566.79
188.53	1101.9
188.748	-2293.91
188.967	2.7
189.186	27.33
189.405	43.56
189.623	32.05
189.842	-46.93
190.061	-5.88
190.28	-40.05
190.498	-0.39
190.717	-9.91
190.936	-89.96
191.154	-69.98
191.373	-385.4
191.592	-241.81
191.81	-175.98
192.029	-1144.25
192.248	-393.09
192.466	-349.1
192.685	-355.14
192.904	-457.85
193.122	-490.8
193.341	-276.32
193.559	-558.73
193.778	-204.88
193.996	-334.34
194.215	-169.59
194.433	-194.61
194.652	-310.06
194.87	-190.64
195.089	-351.45
195.307	-411.3
195.526	-895.09
195.744	5494.7
195.963	577.48
196.181	189.55
196.399	191.65
196.618	127.94
196.836	118.4
197.055	227.02
197.273	210.53
197.491	166.54
197.71	130.86
197.928	113.91
198.146	113
198.365	8.61
198.583	16.8
198.801	66.32
199.019	-23.39
199.238	12.53
199.456	-17.39
199.674	3.94
199.892	-268.44
200.111	-147.92
200.329	-159.4
200.547	-129.18
200.765	-331.67
200.983	-161.92
201.202	-110.46
201.42	-189.69
201.638	-96.49
201.856	-118.01
202.074	-194.27
202.292	-28.26
202.51	-72
202.728	-126.04
202.946	-116.85
203.165	-120.07
203.383	-227.98
203.601	-133.92
203.819	-119.08
204.037	-144.18
204.255	-106.2
204.473	-115.47
204.691	-128.54
204.909	-77.73
205.127	-40.81
205.345	-57.87
205.562	-58.76
205.78	-31.07
205.998	-52.28
206.216	-49.16
206.434	-139.19
206.652	-277.4
206.87	-237.66
207.088	-10886.72
207.306	-1496.15
207.523	1546.77
207.741	1077.43
207.959	-3580.68
208.177	-772.51
208.395	-924.05
208.612	-475.73
208.83	-180.25
209.048	-191.01
209.266	-156.97
209.483	-23.79
209.701	-29.17
209.919	-24.52
210.136	-17.4
210.354	-15.95
210.572	-29.19
210.79	-29.09
211.007	-19.35
211.225	-45.22
211.442	-47.95
211.66	-74.3
211.878	-100.02
212.095	82.68
212.313	41.77
212.53	58.31
212.748	47.79
212.966	48.33
213.183	53.79
213.401	49.25
213.618	67.98
213.836	63.19
214.053	60.06
214.271	59.04
214.488	-5114.94
214.705	-1267.58
214.923	-775.56
215.14	-416.72
215.358	-387.61
215.575	-175.11
215.793	-198.78
216.01	209.66
216.227	-12518.18
216.445	12.48
216.662	-40.7
216.879	-109.36
217.097	-46.97
217.314	-47.02
217.531	-101.97
217.749	-45.63
217.966	-55.76
218.183	-67.49
218.4	-72.39
218.618	-36.69
218.835	-54.9
219.052	-61.59
219.269	-49.76
219.487	-35.45
219.704	-53.57
219.921	-65.3
220.138	-117.66
220.355	-218.54
220.572	-134.9
220.79	-76.38
221.007	-90.28
221.224	-146.44
221.441	-119.66
221.658	-104.21
221.875	-109.71
222.092	-112.7
222.309	-63.02
222.526	-66.02
222.743	-50.42
222.96	-50.92
223.177	-97.75
223.394	-151.6
223.611	-20.47
223.828	-45.29
224.045	-28.61
224.262	-10.13
224.479	-30.32
224.696	-16.1
224.913	-31.01
225.13	-46.21
225.347	-29.69
225.564	-13.88
225.781	-6.69
225.997	-41.07
226.214	-24.68
226.431	-25.58
226.648	-28.57
226.865	-20.87
227.082	-36.09
227.298	-15.34
227.515	-10.69
227.732	-5.62
227.949	-10.56
228.165	-0.13
228.382	6.15
228.599	5.26
228.816	-2.19
229.032	-6.6
229.249	-12.64
229.466	0.98
229.682	-12.03
229.899	-21.23
230.116	-30.41
230.332	-38.48
230.549	-54.11
230.765	-48.5
230.982	-59.36
231.199	-35.39
231.415	-34.51
231.632	-21.6
231.848	-50.62
232.065	-22.57
232.281	-5.9
232.498	8.95
232.714	9.65
232.931	18.44
233.147	17.93
233.364	24.59
233.58	5.89
233.797	5.26
234.013	-3.93
234.23	12.36
234.446	-6.2
234.662	-21.62
234.879	-39.39
235.095	-31.32
235.312	-48.84
235.528	-34.55
235.744	-29.04
235.961	-31.17
236.177	-40.55
236.393	-34.7
236.61	-39.98
236.826	-26.94
237.042	-23.26
237.258	-22.72
237.475	-45.65
237.691	-40.56
237.907	-42.67
238.123	-51.51
238.339	-40.16
238.556	-22.66
238.772	-26.2
238.988	-15.57
239.204	-22.77
239.42	-15.13
239.636	-14.57
239.853	1.35
240.069	-4.35
240.285	-6.19
240.501	-2.91
240.717	-1.35
240.933	-5.88
241.149	-3.86
241.365	-8.26
241.581	-7.57
241.797	-7.5
242.013	-4.08
242.229	-2.55
242.445	6.78
242.661	5.72
242.877	7.56
243.093	12.02
243.309	9.94
243.525	10.93
243.741	19.48
243.957	20.07
244.173	17.26
244.388	14.14
244.604	12.98
244.82	6.57
245.036	7.97
245.252	9.71
245.468	11.41
245.683	13.82
245.899	10.77
246.115	7.88
246.331	9.87
246.547	8.42
246.762	8.89
246.978	6.59
247.194	4.76
247.409	3.37
247.625	3.59
247.841	-0.2
248.057	-2.12
248.272	1.03
248.488	2.83
248.703	-0.09
248.919	2.07
249.135	0.69
249.35	2.27
249.566	6.82
249.782	5.71
249.997	0.7
250.213	0.63
250.428	-0.14
250.644	-8.68
250.859	-14.89
251.075	-17.55
251.29	-18.62
251.506	-23.03
251.721	-23.25
251.937	-24.7
252.152	-20.17
252.368	-24.03
252.583	-29.79
252.798	-29.25
253.014	-23.59
253.229	-25.39
253.445	-23.55
253.66	-21.01
253.875	-13.31
254.091	-28
254.306	-22.33
254.521	-28.48
254.737	-18.22
254.952	-14.57
255.167	-15.35
255.383	-13.11
255.598	-10.05
255.813	-9.53
256.028	-15.14
256.244	-18.94
256.459	-7.78
256.674	-7.8
256.889	-5.78
257.104	-1.56
257.32	1.23
257.535	3.44
257.75	-3.16
257.965	-1.34
258.18	-4
258.395	-3.96
258.61	1.28
258.826	3.62
259.041	4.06
259.256	1.14
259.471	0.51
259.686	-2.76
259.901	-4.66
260.116	-1.9
260.331	-3.33
260.546	-0.45
260.761	0.22
260.976	-2.26
261.191	-4.98
261.406	-8.06
261.621	-9.41
261.836	-11.32
262.05	-6.7
262.265	-8.91
262.48	-0.34
262.695	1.65
262.91	1.29
263.125	3.57
263.34	0.39
263.555	2.55
263.769	4.7
263.984	8.58
264.199	2.75
264.414	1.2
264.629	7.29
264.843	-3.46
265.058	-6.77
265.273	-6.38
265.488	-10.97
265.702	-4.38
265.917	-6.91
266.132	-11.56
266.346	-8.47
266.561	-5.4
266.776	-5.65
266.99	-10.55
267.205	-5.91
267.42	-3.58
267.634	-2.23
267.849	1.79
268.063	2.11
268.278	1.97
268.492	4.43
268.707	7.34
268.922	8.73
269.136	10.85
269.351	16.61
269.565	17.43
269.78	14.23
269.994	10.63
270.209	12.62
270.423	10.43
270.637	9.13
270.852	8.83
271.066	6.19
271.281	5.83
271.495	2.94
271.709	-1.06
271.924	-5.71
272.138	-3.59
272.353	-6.2
272.567	-9.65
272.781	-8.83
272.996	-8.74
273.21	-7.33
273.424	-8.81
273.638	-10.78
273.853	-8.75
274.067	-8.66
274.281	-5.65
274.495	-9.58
274.71	-3.54
274.924	-2.75
275.138	-1.85
275.352	-4.85
275.566	-5.35
275.781	-4.63
275.995	-4.83
276.209	-9.27
276.423	-9.18
276.637	-11.91
276.851	-7.32
277.065	-10.03
277.279	-14.55
277.493	-12.2
277.707	-7.21
277.921	-8.83
278.135	-7.83
278.349	-1.32
278.563	0.88
278.777	2.74
278.991	1.32
279.205	-1.1
279.419	2.96
279.633	3.37
279.847	0.93
280.061	-1.62
280.275	3.54
280.489	1.82
280.703	-5.27
280.917	-1.02
281.131	-4.51
281.344	-5.1
281.558	-2.8
281.772	-4.38
281.986	-3.24
282.2	-4.77
282.414	-4.44
282.627	-7.31
282.841	-8.09
283.055	-0.78
283.269	-5.42
283.482	-2.18
283.696	0
283.91	0.07
284.123	-2.19
284.337	-1.19
284.551	1.11
284.764	4.96
284.978	5.74
285.192	5.59
285.405	2.15
285.619	3.7
285.833	4.06
286.046	6.35
286.26	6.13
286.473	7.03
286.687	6.89
286.9	7.88
287.114	5.19
287.327	2.95
287.541	2.96
287.754	3.64
287.968	-0.4
288.181	-0.95
288.395	-4.8
288.608	-2.8
288.822	-3.53
289.035	-4.46
289.248	-7.13
289.462	-7.56
289.675	-6.07
289.889	-4.54
290.102	-5.46
290.315	-2.13
290.529	-3.66
290.742	-2.66
290.955	-3.46
291.169	-2.03
291.382	0.56
291.595	2.87
291.808	4.16
292.022	2.9
292.235	3.12
292.448	6.12
292.661	6.87
292.875	7.33
293.088	7.32
293.301	4.17
293.514	1.62
293.727	0.41
293.94	-3.52
294.153	-2.47
294.367	-2.9
294.58	-1.84
294.793	-4.84
295.006	-6.78
295.219	-6.12
295.432	-5.44
295.645	-3.27
295.858	-0.82
296.071	-1.15
296.284	1.18
296.497	0.49
296.71	0.07
296.923	-0.52
297.136	-0.48
297.349	-0.62
297.562	0.93
297.775	1.51
297.988	0.48
298.201	-0.57
298.414	0.16
298.626	0.82
298.839	2.34
299.052	4.92
299.265	3.84
299.478	6.02
299.691	5.39
299.903	4.14
300.116	4.9
300.329	8.29
300.542	9.45
300.755	8.27
300.967	7.79
301.18	5.51
301.393	4.83
301.605	5.35
301.818	2.85
302.031	1.77
302.243	0.66
302.456	0.46
302.669	-0.65
302.881	-7.06
303.094	-8.6
303.307	-11.48
303.519	-9.64
303.732	-9.07
303.944	-9.79
304.157	-12.33
304.37	-9.95
304.582	-8.34
304.795	-10.57
305.007	-11.7
305.22	-4.79
305.432	-3.77
305.645	-1.37
305.857	-3.2
306.069	-2.27
306.282	-0.69
306.494	5.42
306.707	7.55
306.919	6.4
307.132	7.66
307.344	5.02
307.556	0.34
307.769	0.05
307.981	0.74
308.193	1.5
308.406	0.22
308.618	0.19
308.83	-0.45
309.043	-0.65
309.255	-0.91
309.467	-2.01
309.679	0.58
309.892	1.94
310.104	4.07
310.316	3.37
310.528	3.09
310.74	4.03
310.953	2.77
311.165	1.49
311.377	1.46
311.589	3.59
311.801	2.29
312.013	0.28
312.225	1.02
312.437	-2.64
312.649	-4.21
312.862	-3.52
313.074	-7.3
313.286	-7.24
313.498	-6.64
313.71	-9.79
313.922	-13.74
314.134	-13.78
314.346	-14.45
314.558	-14.77
314.77	-12.13
314.982	-10.95
315.193	-13.97
315.405	-13.91
315.617	-10.98
315.829	-10.86
316.041	-6.71
316.253	-3.24
316.465	-2.72
316.677	-1.41
316.888	-1.9
317.1	0.38
317.312	0.89
317.524	3.29
317.736	4.76
317.947	1.61
318.159	1.24
318.371	2.69
318.583	4.58
318.794	5.91
319.006	6.62
319.218	7.6
319.43	5.82
319.641	5.59
319.853	7.86
320.064	9.71
320.276	10.96
320.488	9.2
320.699	6.67
320.911	3.13
321.123	0.1
321.334	-3.39
321.546	-3.48
321.757	1.03
321.969	1.23
322.18	-1.61
322.392	-4.47
322.603	-4.88
322.815	-1.57
323.026	-2.13
323.238	-1.31
323.449	0.59
323.661	3.14
323.872	2.44
324.083	-2.08
324.295	-2.5
324.506	-1.67
324.718	0.08
324.929	3.78
325.14	2.68
325.352	1.15
325.563	1.75
325.774	2.47
325.986	1.63
326.197	3.38
326.408	5.28
326.62	5.77
326.831	6.12
327.042	6.39
327.253	3.24
327.464	3.27
327.676	4.59
327.887	4.66
328.098	4.18
328.309	6.25
328.52	4.78
328.732	4.25
328.943	3.71
329.154	3.07
329.365	2.22
329.576	4.64
329.787	5.59
329.998	6.49
330.209	4.83
330.42	3.47
330.631	3.48
330.842	6.44
331.053	6.81
331.264	8.25
331.475	8.04
331.686	7.59
331.897	5.49
332.108	2.88
332.319	4.09
332.53	5.41
332.741	7.68
332.952	7.29
333.163	6.11
333.374	7.04
333.585	5.25
333.795	3.65
334.006	3.32
334.217	6.65
334.428	9.06
334.639	7.05
334.849	5.78
335.06	8.11
335.271	5.75
335.482	4.58
335.692	4.04
335.903	7.08
336.114	9.62
336.325	12.56
336.535	9.38
336.746	6.31
336.957	6.75
337.167	7.49
337.378	2.59
337.589	5.77
337.799	6.07
338.01	5.14
338.22	2.58
338.431	5.1
338.642	3.08
338.852	5.27
339.063	6.57
339.273	6.74
339.484	8.88
339.694	11.14
339.905	8.3
340.115	7.04
340.326	8.19
340.536	10.08
340.746	5.95
340.957	3.99
341.167	-0.73
341.378	0.6
341.588	1.51
341.799	-1.15
342.009	-2.58
342.219	1.1
342.43	2.8
342.64	2.21
342.85	0.69
343.061	0.25
343.271	0.14
343.481	2.85
343.691	2.03
343.902	1.67
344.112	3.47
344.322	5.78
344.532	4.59
344.743	4.81
344.953	4.87
345.163	5.46
345.373	7.12
345.583	8.55
345.793	9.22
346.004	8.75
346.214	8.29
346.424	7.88
346.634	7.63
346.844	6.16
347.054	8.08
347.264	8.38
347.474	8.07
347.684	7.76
347.894	8.16
348.104	6.46
348.314	5.63
348.524	5.7
348.734	6.36
348.944	6.25
349.154	6.77
349.364	5.21
349.574	5.32
349.784	5.81
349.994	7.11
350.204	6.88
350.413	7.84
350.623	7.93
350.833	7.56
351.043	8.15
351.253	7.74
351.463	7.91
351.672	8.46
351.882	7.32
352.092	5.45
352.302	5.04
352.511	3.86
352.721	3.24
352.931	4.64
353.141	4.44
353.35	3.26
353.56	4.31
353.77	2.78
353.979	0.38
354.189	0.79
354.399	2.6
354.608	0.25
354.818	0.83
355.027	-0.08
355.237	-0.01
355.447	0.46
355.656	1.41
355.866	-0.99
356.075	-0.02
356.285	0.97
356.494	1.51
356.704	0.54
356.913	1.47
357.123	2.79
357.332	4.47
357.542	4.11
357.751	5.54
357.96	4.9
358.17	6.78
358.379	7.42
358.589	7.48
358.798	6.98
359.007	7.14
359.217	9
359.426	7.91
359.635	7.1
359.845	7.21
360.054	7.06
360.263	7.34
360.472	7.23
360.682	6.82
360.891	6.74
361.1	7.02
361.309	7.98
361.519	7.26
361.728	6.3
361.937	6.77
362.146	6.54
362.355	6.24
362.564	6.59
362.774	5.76
362.983	6.18
363.192	6.3
363.401	5.71
363.61	6.05
363.819	4.11
364.028	7.21
364.237	7.08
364.446	8.06
364.655	7.34
364.864	5.42
365.073	7.23
365.282	7.33
365.491	7.45
365.7	8.24
365.909	7.43
366.118	8.83
366.327	7.33
366.536	7.27
366.745	6.36
366.954	5.51
367.162	5.97
367.371	4.45
367.58	3.43
367.789	3.51
367.998	2.64
368.207	3.21
368.415	2.41
368.624	2.22
368.833	1.45
369.042	1.96
369.25	4.38
369.459	4.91
369.668	4.96
369.877	6.21
370.085	6.99
370.294	6.06
370.503	6.24
370.711	6.78
370.92	6.45
371.129	6.38
371.337	4.91
371.546	3.67
371.754	3.39
371.963	3.25
372.171	3.33
372.38	1.55
372.589	2.19
372.797	1.96
373.006	1.49
373.214	1.3
373.423	2.46
373.631	3.85
373.84	4.02
374.048	4.2
374.256	4.13
374.465	3.81
374.673	3.43
374.882	3.57
375.09	2.68
375.298	3.26
375.507	5.31
375.715	5.03
375.923	6.4
376.132	5.83
376.34	7.05
376.548	6.91
376.757	5.6
376.965	7.52
377.173	7.73
377.381	7.74
377.59	7.06
377.798	6.06
378.006	6.38
378.214	4.8
378.423	6.11
378.631	5.2
378.839	3.7
379.047	4.59
379.255	4.38
379.463	6.04
379.671	5.96
379.879	6.13
380.088	5.9
380.296	5.68
380.504	6.1
380.712	5.38
380.92	5.32
381.128	6.82
381.336	7.35
381.544	7.4
381.752	5.73
381.96	6.28
382.168	6.95
382.376	6.51
382.584	6.12
382.791	4.71
382.999	3.54
383.207	2.54
383.415	3.67
383.623	3.81
383.831	3.42
384.039	3.22
384.247	3.92
384.454	3.71
384.662	4.22
384.87	5.81
385.078	6.38
385.285	7.82
385.493	8.2
385.701	8.91
385.909	8.91
386.116	8.27
386.324	9.37
386.532	8.9
386.739	9.61
386.947	8.84
387.155	7.35
387.362	7.55
387.57	6.78
387.778	7.94
387.985	6.75
388.193	6.05
388.4	6.54
388.608	5.47
388.816	4.55
389.023	4.78
389.231	4.96
389.438	4.57
389.646	4.22
389.853	4.19
390.061	3.84
390.268	3.26
390.475	3.82
390.683	3.77
390.89	3.67
391.098	3.68
391.305	2.79
391.512	3.38
391.72	3.71
391.927	4.81
392.135	4.81
392.342	4.52
392.549	4.63
392.756	3.65
392.964	3.64
393.171	3.85
393.378	3.56
393.586	4.41
393.793	4.59
394	5.51
394.207	5.62
394.414	5.6
394.622	6.06
394.829	5.44
395.036	5.9
395.243	5.48
395.45	5.63
395.657	6.58
395.864	6.22
396.072	5.41
396.279	5.3
396.486	3.81
396.693	3.99
396.9	3.43
397.107	4.59
397.314	5.84
397.521	6.13
397.728	6.19
397.935	5.2
398.142	4.57
398.349	5.13
398.556	4.61
398.763	6.33
398.97	6.24
399.177	5.62
399.383	5.49
399.59	5.35
399.797	5.8
400.004	5.89
400.211	5.61
400.418	5.65
400.625	5.36
400.831	4.86
401.038	3.87
401.245	3.82
401.452	4.27
401.658	3.9
401.865	2.07
402.072	0.56
402.279	-0.05
402.485	0.59
402.692	0.95
402.899	0.61
403.105	1.57
403.312	1.78
403.519	1.41
403.725	1.95
403.932	2.06
404.138	3.08
404.345	3.78
404.552	4.04
404.758	3.23
404.965	2.49
405.171	3.55
405.378	2.74
405.584	2.6
405.791	3.77
405.997	3
406.204	2.31
406.41	1.45
406.617	1.87
406.823	2.51
407.029	3.79
407.236	4.05
407.442	1.86
407.649	1.05
407.855	1.5
408.061	-0.41
408.268	0.55
408.474	1.95
408.68	2.25
408.887	2.46
409.093	1.7
409.299	1.19
409.505	2.47
409.712	3.65
409.918	4.62
410.124	3.44
410.33	4.04
410.537	3.87
410.743	3.33
410.949	4
411.155	3.71
411.361	5.2
411.567	5.61
411.773	5.93
411.98	6.04
412.186	5.34
412.392	6.14
412.598	7.25
412.804	7.1
413.01	7.09
413.216	6.6
413.422	6.68
413.628	5.63
413.834	5.33
414.04	3.6
414.246	3.77
414.452	4.09
414.658	4.88
414.864	4.12
415.07	4.22
415.275	4
415.481	4.54
415.687	3.19
415.893	2.29
416.099	2.77
416.305	3.69
416.511	4.17
416.716	4.8
416.922	3.5
417.128	3.14
417.334	3.65
417.539	3.73
417.745	3.5
417.951	5.1
418.157	5.72
418.362	5.39
418.568	4.94
418.774	4.37
418.979	3.75
419.185	4.19
419.391	4.78
419.596	4.37
419.802	4.65
420.008	4.68
420.213	4.23
420.419	4.31
420.624	4.52
420.83	4.9
421.035	4.77
421.241	5.34
421.446	5.23
421.652	4.96
421.857	5.1
422.063	5.04
422.268	4.95
422.474	4.52
422.679	4.88
422.885	3.77
423.09	3.02
423.295	3.7
423.501	3.15
423.706	3.22
423.911	3.56
424.117	3.38
424.322	3.21
424.527	3.54
424.733	3.57
424.938	3.29
425.143	4.3
425.349	4.92
425.554	4.47
425.759	4.89
425.964	4.94
426.169	4.86
426.375	4.61
426.58	4.67
426.785	4.34
426.99	4.23
427.195	3.55
427.4	3.48
427.605	3.29
427.811	3.63
428.016	3.58
428.221	3.61
428.426	3.03
428.631	3
428.836	3.1
429.041	3.1
429.246	3.27
429.451	3.31
429.656	3.58
429.861	3.51
430.066	3.41
430.271	3.67
430.476	3.67
430.681	4.16
430.886	4.58
431.09	4.24
431.295	4.3
431.5	4.66
431.705	4.96
431.91	5
432.115	5.16
432.32	4.55
432.524	4.89
432.729	4.81
432.934	4.32
433.139	4.06
433.343	4.64
433.548	4.14
433.753	4.02
433.958	4.32
434.162	4.16
434.367	4.71
434.572	4.81
434.776	4.1
434.981	4.19
435.186	5.39
435.39	5.68
435.595	4.76
435.799	5.57
436.004	5.44
436.209	5.39
436.413	5.09
436.618	4.52
436.822	4.85
437.027	4.63
437.231	5.2
437.436	4.54
437.64	4.04
437.845	4.71
438.049	4.52
438.253	4.74
438.458	4.53
438.662	4.68
438.867	4.62
439.071	4.26
439.275	4.87
439.48	4.3
439.684	4.02
439.888	3.92
440.093	3.55
440.297	3.45
440.501	3.87
440.706	3.49
440.91	3.42
441.114	3.49
441.318	3.18
441.523	2.57
441.727	2.89
441.931	3.12
442.135	3.71
442.339	3.41
442.543	3.57
442.748	2.77
442.952	3.23
443.156	3.29
443.36	3.34
443.564	3.87
443.768	3.85
443.972	3.37
444.176	3.68
444.38	3.61
444.584	4.23
444.788	4.7
444.992	4.77
445.196	4.86
445.4	4.85
445.604	5.13
445.808	5.37
446.012	5.76
446.216	5.99
446.42	5.92
446.624	6.02
446.828	5.63
447.032	5.45
447.235	5.84
447.439	5.95
447.643	6.08
447.847	5.41
448.051	4.92
448.254	4.59
448.458	4.96
448.662	4.88
448.866	5.11
449.069	5.17
449.273	4.71
449.477	4.23
449.681	3.86
449.884	3.6
450.088	3.56
450.292	4.16
450.495	4.51
450.699	4.08
450.902	4.54
451.106	4.05
451.31	4.47
451.513	4.31
451.717	4.65
451.92	4.35
452.124	4.53
452.327	5.33
452.531	4.76
452.734	5.08
452.938	5.3
453.141	5.02
453.345	5.22
453.548	5.2
453.752	5.57
453.955	5.32
454.158	6.19
454.362	6.03
454.565	5.89
454.769	6.1
454.972	4.84
455.175	4.26
455.379	4.22
455.582	3.73
455.785	3.26
455.988	2.68
456.192	3.02
456.395	2.53
456.598	3.29
456.801	3.67
457.005	3.34
457.208	4.13
457.411	4.59
457.614	3.98
457.817	3.84
458.021	4.32
458.224	4.76
458.427	5.14
458.63	4.73
458.833	4.29
459.036	3.74
459.239	4.09
459.442	3.88
459.645	4.13
459.848	4.66
460.051	5.04
460.254	5.2
460.457	4.86
460.66	3.99
460.863	4.46
461.066	4.54
461.269	5.03
461.472	4.79
461.675	5.24
461.878	5.03
462.081	5.18
462.284	5.06
462.486	4.79
462.689	5.05
462.892	5.4
463.095	4.95
463.298	4.83
463.5	4.5
463.703	4.17
463.906	3.7
464.109	3.28
464.311	2.49
464.514	2.78
464.717	2.58
464.92	2.76
465.122	3.1
465.325	3.61
465.528	4.58
465.73	4.88
465.933	5.9
466.135	5.93
466.338	6.79
466.541	7.09
466.743	7.14
466.946	6.89
467.148	6.45
467.351	6.16
467.553	5.67
467.756	4.89
467.958	4.16
468.161	4.09
468.363	4.2
468.566	3.26
468.768	3.57
468.971	3.44
469.173	4.81
469.375	5.65
469.578	5.45
469.78	5.32
469.983	5.19
470.185	5.44
470.387	5.32
470.59	5.5
470.792	5.85
470.994	5.37
471.196	5.03
471.399	3.57
471.601	3.11
471.803	4.17
472.005	5
472.208	4.74
472.41	4.65
472.612	4.08
472.814	3.57
473.016	3.14
473.218	3.32
473.421	3.4
473.623	3.77
473.825	4.2
474.027	3.88
474.229	4.08
474.431	3.91
474.633	4.57
474.835	5.12
475.037	5.49
475.239	5.68
475.441	5.65
475.643	5.96
475.845	5.83
476.047	5.09
476.249	4.6
476.451	4.71
476.653	5.3
476.855	5.2
477.057	4.79
477.258	4.65
477.46	5.04
477.662	5.25
477.864	5.32
478.066	5.19
478.268	5.88
478.469	6.01
478.671	5.46
478.873	5.42
479.075	5.46
479.276	5.88
479.478	6.65
479.68	6.25
479.882	6.16
480.083	6.6
480.285	6.74
480.487	6.56
480.688	6.39
480.89	6.09
481.091	6.23
481.293	5.79
481.495	5.57
481.696	5.09
481.898	5.27
482.099	5.22
482.301	4.93
482.502	5.19
482.704	5.31
482.905	5.42
483.107	5.57
483.308	5.42
483.51	5.69
483.711	5.72
483.913	5.8
484.114	5.74
484.315	5.77
484.517	5.81
484.718	5.73
484.92	5.62
485.121	5.57
485.322	5.38
485.524	5.55
485.725	5.15
485.926	5.25
486.127	5.38
486.329	5.31
486.53	5.36
486.731	5.16
486.932	5.15
487.134	5.21
487.335	5.26
487.536	5.48
487.737	5.5
487.938	5.69
488.139	5.55
488.341	5.46
488.542	5.52
488.743	5.25
488.944	5.35
489.145	5.25
489.346	5.02
489.547	5
489.748	4.9
489.949	4.68
490.15	4.61
490.351	4.81
490.552	4.82
490.753	5.16
490.954	5.2
491.155	5.33
491.356	5.33
491.557	5.42
491.758	5.37
491.959	5.6
492.159	5.75
492.36	5.78
492.561	5.82
492.762	5.61
492.963	4.99
493.164	5.18
493.364	5.2
493.565	5.45
493.766	5.48
493.967	5.66
494.167	5.44
494.368	5.13
494.569	5.15
494.769	4.62
494.97	4.96
495.171	5.6
495.371	5.46
495.572	5.27
495.773	5.13
495.973	5.01
496.174	4.54
496.375	4.8
496.575	5.05
496.776	5.07
496.976	4.95
497.177	4.91
497.377	4.51
497.578	4.28
497.778	4
497.979	3.82
498.179	3.89
498.38	4.1
498.58	3.43
498.78	3.43
498.981	3.37
499.181	4.06
499.382	3.67
499.582	3.71
499.782	3.78
499.983	3.83
500.183	4.29
500.383	4.41
500.584	4.29
500.784	4.5
500.984	4.7
501.184	4.42
501.385	4.55
501.585	4.72
501.785	4.99
501.985	5.8
502.185	5.99
502.386	5.73
502.586	5.49
502.786	5.97
502.986	6.03
503.186	5.59
503.386	5.58
503.586	5.12
503.786	5.76
503.987	5.71
504.187	5.19
504.387	5.28
504.587	5.19
504.787	5.25
504.987	5.43
505.187	5.44
505.387	5.78
505.587	6
505.786	6.2
505.986	5.6
506.186	5.4
506.386	5.59
506.586	5.84
506.786	6.06
506.986	6.31
507.186	5.99
507.386	5.86
507.585	5.45
507.785	5.61
507.985	5.81
508.185	5.71
508.384	5.75
508.584	5.84
508.784	5.78
508.984	5.96
509.183	5.53
509.383	5.4
509.583	5.52
509.782	6.16
509.982	6.05
510.182	5.96
510.381	6.41
510.581	6.38
510.781	6.07
510.98	5.62
511.18	5.52
511.379	5.79
511.579	6.07
511.778	6.44
511.978	6.36
512.177	6.74
512.377	6.37
512.576	6.61
512.776	6.8
512.975	6.85
513.175	7.38
513.374	7.26
513.573	7.19
513.773	7.32
513.972	7.28
514.172	7.26
514.371	7.06
514.57	7.45
514.77	7.02
514.969	7.27
515.168	7.99
515.367	7.95
515.567	8.18
515.766	8.49
515.965	8.23
516.164	8.09
516.364	7.97
516.563	8.13
516.762	8.4
516.961	8.98
517.16	8.94
517.359	8.86
517.559	8.96
517.758	8.77
517.957	9.02
518.156	9.02
518.355	9.27
518.554	9.32
518.753	9.36
518.952	9.44
519.151	9.14
519.35	9.22
519.549	9.02
519.748	9.34
519.947	9.3
520.146	9.18
520.345	9.37
520.544	9.39
520.743	9.42
520.942	9.72
521.141	9.51
521.339	9.59
521.538	9.78
521.737	9.3
521.936	9.11
522.135	9.64
522.333	9.59
522.532	9.62
522.731	9.62
522.93	9.72
523.129	9.47
523.327	9.92
523.526	9.94
523.725	9.8
523.923	10.38
524.122	9.97
524.321	10
524.519	10.19
524.718	10.53
524.917	10.24
525.115	10.34
525.314	10.31
525.512	10.01
525.711	10.11
525.909	10.39
526.108	10.59
526.306	10.72
526.505	10.96
526.703	10.82
526.902	10.73
527.1	10.97
527.299	11.01
527.497	11.15
527.696	11.27
527.894	11.14
528.092	11.07
528.291	11.09
528.489	11.07
528.688	10.88
528.886	11.06
529.084	11
529.283	11.03
529.481	10.95
529.679	10.83
529.877	10.74
530.076	10.71
530.274	10.8
530.472	10.8
530.67	10.91
530.869	10.73
531.067	10.51
531.265	10.76
531.463	10.94
531.661	11.16
531.859	11.39
532.057	11.56
532.255	11.94
532.454	12.11
532.652	12
532.85	12.21
533.048	12.76
533.246	12.94
533.444	12.83
533.642	12.87
533.84	13.01
534.038	12.93
534.236	13.01
534.434	12.62
534.632	12.53
534.83	12.71
535.027	12.8
535.225	12.64
535.423	12.77
535.621	13.16
535.819	13.31
536.017	13.19
536.215	13.55
536.412	13.44
536.61	13.93
536.808	14.02
537.006	14.02
537.203	14.17
537.401	13.76
537.599	14.23
537.797	14.23
537.994	14.45
538.192	14.63
538.39	14.71
538.587	14.92
538.785	14.89
538.983	14.64
539.18	14.96
539.378	14.82
539.575	15.04
539.773	14.55
539.97	14.7
540.168	14.64
540.366	14.64
540.563	14.58
540.761	14.71
540.958	14.65
541.155	14.75
541.353	14.61
541.55	14.79
541.748	15.09
541.945	15.37
542.143	15.23
542.34	15.18
542.537	15.41
542.735	15.33
542.932	15.1
543.129	15.11
543.327	15.36
543.524	15.04
543.721	15.01
543.919	14.71
544.116	14.34
544.313	14.27
544.51	14.45
544.708	14.11
544.905	14.36
545.102	14.58
545.299	14.77
545.496	14.53
545.693	14.75
545.891	14.48
546.088	14.51
546.285	14.54
546.482	14.56
546.679	14.41
546.876	14.5
547.073	14.29
547.27	14.34
547.467	14.6
547.664	14.99
547.861	15.21
548.058	15.81
548.255	15.72
548.452	16.56
548.649	17.19
548.846	17.39
549.043	17.71
549.24	17.94
549.437	18.46
549.633	18.67
549.83	18.24
550.027	17.9
550.224	17.49
550.421	17.71
550.618	17.04
550.814	16.67
551.011	16.84
551.208	16.95
551.405	17.38
551.601	16.6
551.798	16.48
551.995	16.61
552.191	17.07
552.388	16.49
552.585	16.82
552.781	17.32
552.978	17.58
553.175	17.18
553.371	16.77
553.568	16.77
553.764	17.26
553.961	17.36
554.157	17.18
554.354	17.33
554.55	18.51
554.747	19.05
554.943	18.69
555.14	18.35
555.336	18.3
555.533	18.99
555.729	18.66
555.926	18.98
556.122	19.24
556.318	19.5
556.515	19.46
556.711	19.32
556.907	18.72
557.104	18.99
557.3	19.72
557.496	20.4
557.693	19.83
557.889	20.04
558.085	19.62
558.281	18.85
558.478	18.57
558.674	19.07
558.87	19.05
559.066	18.79
559.262	18.95
559.459	18.53
559.655	18.49
559.851	19.13
560.047	18.89
560.243	18.98
560.439	19.13
560.635	19.89
560.831	19.86
561.027	20.47
561.223	20.92
561.419	21.02
561.615	21.15
561.811	20.25
562.007	20.16
562.203	20.73
562.399	20.7
562.595	21.13
562.791	21.04
562.987	20.97
563.183	21.17
563.379	21.37
563.575	21.68
563.771	21.77
563.966	22.51
564.162	22.38
564.358	22.62
564.554	23.29
564.75	23.32
564.945	23.55
565.141	23.39
565.337	22.82
565.533	22.03
565.728	21.76
565.924	22
566.12	21.73
566.315	21.54
566.511	21.22
566.707	21.52
566.902	21.21
567.098	20.61
567.293	20.71
567.489	21.1
567.684	21.92
567.88	21.3
568.076	21.29
568.271	21.72
568.467	22.41
568.662	22.77
568.858	22.43
569.053	22.59
569.248	23.09
569.444	23.82
569.639	23.81
569.835	23.74
570.03	24.75
570.225	24.46
570.421	24.48
570.616	24.44
570.812	23.83
571.007	23.99
571.202	23.71
571.397	23.79
571.593	22.96
571.788	22.95
571.983	22.9
572.178	22.69
572.374	22.6
572.569	22.23
572.764	22.45
572.959	23.21
573.154	22.9
573.35	23.67
573.545	23.9
573.74	24.32
573.935	24.01
574.13	24.05
574.325	24.03
574.52	24.21
574.715	25
574.91	24.76
575.105	24.64
575.3	24.69
575.495	25.21
575.69	25.17
575.885	24.93
576.08	25.24
576.275	25.64
576.47	26.17
576.665	26.39
576.86	26.03
577.055	25.86
577.25	25.76
577.444	25.73
577.639	24.88
577.834	24.51
578.029	24.98
578.224	24.68
578.418	24.88
578.613	24.25
578.808	24.76
579.003	24.6
579.197	25.05
579.392	25.67
579.587	26.11
579.781	26.7
579.976	27.01
580.171	27.41
580.365	27.83
580.56	27.87
580.755	27.85
580.949	27.63
581.144	28.36
581.338	28.03
581.533	27.17
581.727	26.48
581.922	25.99
582.116	25.74
582.311	25.1
582.505	24.62
582.7	24.58
582.894	24.86
583.089	24.46
583.283	23.66
583.478	23.6
583.672	23.38
583.866	23.47
584.061	23
584.255	23.42
584.449	24.38
584.644	24.59
584.838	24.94
585.032	24.85
585.226	25.14
585.421	25.75
585.615	26.26
585.809	26.63
586.003	26.5
586.198	27.05
586.392	27.12
586.586	26.37
586.78	26.62
586.974	25.46
587.168	25.92
587.363	26.43
587.557	26.98
587.751	26.54
587.945	27.28
588.139	28.02
588.333	27.81
588.527	27.53
588.721	27.43
588.915	27.85
589.109	28.47
589.303	28.11
589.497	27.57
589.691	27.34
589.885	28.02
590.079	27.59
590.273	27.69
590.466	27.88
590.66	27.62
590.854	28
591.048	27.14
591.242	27.51
591.436	27.23
591.629	27.32
591.823	26.92
592.017	26.13
592.211	25.71
592.404	26.14
592.598	25.89
592.792	26.6
592.986	26.29
593.179	26.82
593.373	27.14
593.567	27.97
593.76	27.63
593.954	27.59
594.147	28.44
594.341	29.19
594.535	28.49
594.728	28.44
594.922	28.25
595.115	28.53
595.309	28.36
595.502	28.29
595.696	27.83
595.889	28.53
596.083	28.74
596.276	28.18
596.47	27.61
596.663	28.18
596.856	28.59
597.05	28.29
597.243	28.12
597.437	28.05
597.63	27.26
597.823	26.88
598.017	26.76
598.21	26.71
598.403	26.63
598.596	26.65
598.79	25.94
598.983	25.94
599.176	26.96
599.369	26.06
599.563	26.34
599.756	27.1
599.949	28.79
600.142	28.57
600.335	29.04
600.528	29.85
600.722	30.68
600.915	31.15
601.108	30.94
601.301	30.46
601.494	31.52
601.687	31.04
601.88	30.83
602.073	29.36
602.266	29.42
602.459	29.38
602.652	29.26
602.845	28.81
603.038	28.69
603.231	28.71
603.424	28.75
603.617	28.28
603.809	29.34
604.002	29.25
604.195	29.7
604.388	29.48
604.581	29.2
604.774	29.23
604.966	29.21
605.159	29.18
605.352	29.38
605.545	29.11
605.737	29.23
605.93	28.6
606.123	28.34
606.316	27.6
606.508	27.8
606.701	27.88
606.894	27.13
607.086	27.56
607.279	27.27
607.471	28.4
607.664	28.67
607.857	29.27
608.049	29.45
608.242	29.63
608.434	30.37
608.627	30.25
608.819	29.88
609.012	30.29
609.204	29.84
609.397	30.47
609.589	29.87
609.782	30.33
609.974	29.57
610.166	29.41
610.359	29.43
610.551	29.92
610.743	30
610.936	30.55
611.128	30.61
611.32	30.76
611.513	30.27
611.705	30.03
611.897	30.29
612.09	30.98
612.282	31.38
612.474	32.22
612.666	31.47
612.858	31.21
613.051	30.71
613.243	30.12
613.435	29.63
613.627	29.61
613.819	29.52
614.011	27.85
614.203	27.46
614.395	27.08
614.588	26.57
614.78	27.58
614.972	28.14
615.164	28.65
615.356	29.52
615.548	30.29
615.74	29.59
615.932	29.44
616.124	30.53
616.315	31.24
616.507	30.87
616.699	30.38
616.891	30
617.083	28.92
617.275	29.06
617.467	28.7
617.659	29.15
617.85	29.02
618.042	28.93
618.234	29.12
618.426	29
618.618	29.38
618.809	29.34
619.001	28.21
619.193	28.47
619.384	28.06
619.576	28.1
619.768	27.59
619.959	28.35
620.151	27.61
620.343	27.13
620.534	27.31
620.726	26.72
620.917	27.01
621.109	28.42
621.301	28.95
621.492	28.9
621.684	29.43
621.875	29.13
622.067	29.67
622.258	29.83
622.45	29.71
622.641	29.44
622.832	29.44
623.024	29.44
623.215	28.63
623.407	28.83
623.598	28.95
623.789	28.46
623.981	27.94
624.172	27.67
624.363	28.13
624.555	28.59
624.746	28.09
624.937	29.11
625.129	28.87
625.32	28.65
625.511	28.55
625.702	28.99
625.893	28.76
626.085	30.34
626.276	29.75
626.467	29.26
626.658	29.24
626.849	29.77
627.04	29.56
627.231	29.94
627.422	30.49
627.614	30.82
627.805	30.25
627.996	30.92
628.187	30.18
628.378	31.24
628.569	31.89
628.76	32.3
628.951	32.22
629.142	32.65
629.332	32.34
629.523	31.71
629.714	31.13
629.905	31.63
630.096	31.03
630.287	31.3
630.478	30.79
630.669	30.32
630.859	29.38
631.05	29.53
631.241	29.62
631.432	29.66
631.623	30.38
631.813	30.84
632.004	31.33
632.195	31.61
632.385	31.23
632.576	30.61
632.767	31.49
632.957	31.79
633.148	31.22
633.339	29.95
633.529	29.82
633.72	29.79
633.91	30.86
634.101	30.52
634.292	30.97
634.482	31.09
634.673	31.8
634.863	31.41
635.054	31.38
635.244	32.06
635.435	32.54
635.625	32.72
635.815	33.51
636.006	31.96
636.196	31.94
636.387	30.6
636.577	30.74
636.767	30.52
636.958	30.58
637.148	32.06
637.338	30.9
637.529	31.65
637.719	32.04
637.909	30.58
638.099	30.24
638.29	30.4
638.48	30.12
638.67	29.52
638.86	30.38
639.05	30.94
639.241	27.94
639.431	28.97
639.621	29.17
639.811	28.38
640.001	29.08
640.191	30.08
640.381	28.79
640.571	30.84
640.761	30.3
640.951	28.82
641.141	28.9
641.331	30.41
641.521	29.35
641.711	27.78
641.901	28.37
642.091	27.21
642.281	26.12
642.471	26.11
642.661	24.88
642.851	26.15
643.041	27.34
643.231	27.15
643.42	28.04
643.61	28.55
643.8	28.36
643.99	27.97
644.18	29.36
644.369	30.78
644.559	32.3
644.749	31.75
644.939	31.4
645.128	30.95
645.318	31.17
645.508	29.92
645.697	29.94
645.887	31.3
646.076	32.26
646.266	31.31
646.456	30.48
646.645	29.9
646.835	30.79
647.024	31.82
647.214	31.16
647.403	29.42
647.593	30.18
647.782	30.71
647.972	30.54
648.161	29.73
648.351	30.95
648.54	32.31
648.73	32.18
648.919	33.07
649.108	32.19
649.298	32.26
649.487	33.33
649.677	32.78
649.866	33.4
650.055	33.35
650.244	33.56
650.434	33.53
650.623	33.24
650.812	33.41
651.002	32.42
651.191	32.49
651.38	32.88
651.569	32.11
651.758	32.29
651.947	32.83
652.137	33.06
652.326	32.92
652.515	32.02
652.704	31.56
652.893	30.7
653.082	31.28
653.271	30.4
653.46	30.75
653.649	31.18
653.838	31.19
654.027	30.2
654.216	29.55
654.405	29.57
654.594	29.49
654.783	30.36
654.972	31.1
655.161	31.31
655.35	31.76
655.539	33.43
655.728	32.52
655.916	32.33
656.105	31.21
656.294	30.91
656.483	31.32
656.672	32.26
656.86	31
657.049	30.59
657.238	29.9
657.427	30.49
657.615	28.92
657.804	29.97
657.993	30.41
658.181	31.06
658.37	31.78
658.559	31.18
658.747	31.08
658.936	30.92
659.125	31.27
659.313	30.92
659.502	29.94
659.69	30.72
659.879	31.37
660.067	31.14
660.256	31.6
660.444	31.74
660.633	32.27
660.821	32.13
661.01	31.69
661.198	31.44
661.387	32.83
661.575	34.06
661.763	33.3
661.952	33.15
662.14	33.33
662.328	33.84
662.517	34.9
662.705	34.9
662.893	34.15
663.082	35.03
663.27	35.39
663.458	34.79
663.646	34.28
663.834	33.15
664.023	32.42
664.211	31.57
664.399	31.39
664.587	30.42
664.775	31.21
664.963	32.51
665.152	32.99
665.34	33.77
665.528	33.25
665.716	33.51
665.904	35.16
666.092	36.19
666.28	37.63
666.468	36.44
666.656	35.66
666.844	34.66
667.032	34.52
667.22	34.05
667.408	33.01
667.596	33.7
667.784	33.27
667.971	32.22
668.159	30.21
668.347	29.7
668.535	29.85
668.723	29.84
668.911	30.14
669.098	29.8
669.286	30.08
669.474	31.16
669.662	31.69
669.849	30.59
670.037	29.39
670.225	30.37
670.413	31.45
670.6	31.14
670.788	32.23
670.976	32.52
671.163	31.86
671.351	30.85
671.538	30.66
671.726	30.05
671.913	30.05
672.101	31.97
672.289	33.23
672.476	31.95
672.664	31.16
672.851	30.09
673.039	29.75
673.226	29.67
673.413	30.57
673.601	30.11
673.788	29.81
673.976	30.86
674.163	31.08
674.35	29.85
674.538	30.13
674.725	32
674.912	32.53
675.1	31.73
675.287	31.87
675.474	31.99
675.662	31.54
675.849	30.73
676.036	32.38
676.223	30.92
676.411	31.35
676.598	30.94
676.785	31
676.972	30.84
677.159	31.35
677.346	32.81
677.533	33.41
677.721	33.13
677.908	34.21
678.095	33.69
678.282	35.27
678.469	34.03
678.656	33.69
678.843	33.59
679.03	34.25
679.217	34.2
679.404	32.52
679.591	32.28
679.778	32.98
679.964	32.12
680.151	31.88
680.338	32.27
680.525	33.16
680.712	33.62
680.899	34
681.086	32.1
681.272	32.08
681.459	32.19
681.646	32.1
681.833	32.44
682.02	33.72
682.206	32.81
682.393	30.89
682.58	31.37
682.766	30.73
682.953	29.22
683.14	31.41
683.326	30.92
683.513	31.19
683.7	31.14
683.886	29.54
684.073	29.18
684.259	30.67
684.446	32.5
684.632	31.57
684.819	31.55
685.005	31.62
685.192	29.99
685.378	31.39
685.565	31.88
685.751	32.01
685.938	32.75
686.124	32.87
686.31	33.2
686.497	32.08
686.683	31.88
686.87	32.09
687.056	33.24
687.242	34.28
687.429	33.59
687.615	33.63
687.801	32.91
687.987	32.01
688.174	31.7
688.36	29.01
688.546	28.99
688.732	29.19
688.918	30.57
689.105	30.57
689.291	31.57
689.477	31.46
689.663	31.1
689.849	32.17
690.035	32.65
690.221	32.68
690.407	34.46
690.593	34.44
690.779	35.31
690.965	35.27
691.151	33.48
691.337	32.31
691.523	32.3
691.709	33.68
691.895	33.42
692.081	35.06
692.267	34.34
692.453	34.21
692.639	34.7
692.825	34.17
693.011	32.65
693.196	32.17
693.382	30.73
693.568	31.03
693.754	29
693.94	28.88
694.125	29.03
694.311	29.62
694.497	30.37
694.682	28.33
694.868	28.92
695.054	29.2
695.239	31.78
695.425	32.34
695.611	32.34
695.796	33.29
695.982	33.46
696.168	32.13
696.353	31.74
696.539	32.35
696.724	33.31
696.91	33.32
697.095	33.67
697.281	32.8
697.466	34.76
697.652	34.86
697.837	34.43
698.023	33.84
698.208	33.82
698.393	33.37
698.579	32.9
698.764	33.39
698.949	33.98
699.135	34.89
699.32	35.45
699.505	33.92
699.691	33
699.876	34.55
700.061	35.55
700.246	35.79
700.432	37.39
700.617	37.54
700.802	38.11
700.987	37.16
701.172	34.6
701.358	35.23
701.543	35.02
701.728	36.29
701.913	34.09
702.098	33.19
702.283	33.36
702.468	32
702.653	31.94
702.838	31.89
703.023	30.9
703.208	32.35
703.393	30.35
703.578	30.19
703.763	30.4
703.948	31.61
704.133	31.65
704.318	32.16
704.503	33.67
704.688	31.95
704.873	32.46
705.057	34.76
705.242	32.89
705.427	34.47
705.612	34.5
705.797	35.25
705.981	35.44
706.166	34.13
706.351	32.39
706.536	32.21
706.72	33.62
706.905	33.16
707.09	32.27
707.274	33.54
707.459	33.82
707.644	33.62
707.828	32.53
708.013	33.73
708.197	34.83
708.382	34.98
708.567	33.63
708.751	33.62
708.936	34.71
709.12	33.58
709.305	34.17
709.489	32.32
709.673	32.95
709.858	33.8
710.042	33.17
710.227	34.05
710.411	35
710.596	34.44
710.78	33.66
710.964	31.43
711.149	32.91
711.333	31.63
711.517	31.6
711.702	30.85
711.886	30.17
712.07	29.52
712.254	29.05
712.438	27.22
712.623	28.39
712.807	29.21
712.991	31.14
713.175	30.84
713.359	31.6
713.544	31.27
713.728	30.13
713.912	31.04
714.096	31.56
714.28	32.8
714.464	33.08
714.648	33.06
714.832	32.75
715.016	32.04
715.2	31.08
715.384	30.73
715.568	31.76
715.752	33.85
715.936	32.11
716.12	29.77
716.304	28.03
716.488	28.89
716.671	28.49
716.855	27.27
717.039	28.1
717.223	27.15
717.407	27.8
717.59	29.1
717.774	29.71
717.958	30.38
718.142	31.94
718.325	34.08
718.509	33.23
718.693	34.15
718.877	34.07
719.06	31.54
719.244	34.16
719.428	35.72
719.611	35.34
719.795	35.31
719.978	36.88
720.162	37.31
720.345	35.02
720.529	37.36
720.713	38.17
720.896	39.59
721.08	40.85
721.263	39
721.446	37.99
721.63	37.46
721.813	38.53
721.997	38
722.18	37.68
722.364	37.2
722.547	36.36
722.73	35.51
722.914	34.24
723.097	33.34
723.28	34.57
723.464	34.81
723.647	33.02
723.83	31.39
724.013	31.48
724.197	31.68
724.38	31.85
724.563	32.38
724.746	31.53
724.929	29.31
725.112	27.51
725.296	29.1
725.479	27.19
725.662	28
725.845	29.96
726.028	28.84
726.211	27.08
726.394	26.58
726.577	27.22
726.76	27.9
726.943	31.88
727.126	33.81
727.309	34.24
727.492	35.61
727.675	35.77
727.858	32.25
728.041	31
728.224	33.19
728.407	34.51
728.589	35.2
728.772	37.36
728.955	34.53
729.138	35.36
729.321	32.78
729.503	31.68
729.686	32.95
729.869	34.24
730.052	36.46
730.234	35.49
730.417	34.6
730.6	33.51
730.782	30.69
730.965	31.98
731.148	31.63
731.33	32.19
731.513	33.39
731.695	34.13
731.878	33.05
732.061	30.56
732.243	29.78
732.426	31.39
732.608	29.76
732.791	28.1
732.973	29.69
733.156	29.17
733.338	29.75
733.52	30
733.703	26.88
733.885	27.28
734.068	32.35
734.25	34.21
734.432	34.89
734.615	36.92
734.797	39.91
734.979	40.09
735.162	41.79
735.344	41.06
735.526	42.39
735.708	44.8
735.891	45.48
736.073	44.44
736.255	40.92
736.437	38.86
736.619	36.38
736.802	35.85
736.984	33.45
737.166	31.79
737.348	30.37
737.53	27.42
737.712	25.93
737.894	26.52
738.076	22.96
738.258	24.67
738.44	25.17
738.622	25.11
738.804	26.24
738.986	26.27
739.168	26.58
739.35	26.11
739.532	25.43
739.714	25.92
739.896	26.1
740.078	27.88
740.259	30.49
740.441	30.26
740.623	30.06
740.805	29.9
740.987	28.25
741.168	28.32
741.35	30.3
741.532	30.52
741.714	30.75
741.895	31.54
742.077	30.28
742.259	28.31
742.44	29.44
742.622	32.2
742.804	31.61
742.985	33.23
743.167	32.66
743.348	32.94
743.53	35.19
743.711	33.08
743.893	31.99
744.075	31.94
744.256	34.36
744.438	32.44
744.619	28.75
744.8	28.32
744.982	29.98
745.163	30.16
745.345	31.24
745.526	30.32
745.707	31.05
745.889	28.41
746.07	29.73
746.252	28.49
746.433	26.59
746.614	27.73
746.795	24.65
746.977	24.08
747.158	20.84
747.339	19.79
747.52	21.53
747.702	22.47
747.883	22.65
748.064	23.54
748.245	22.06
748.426	26.86
748.607	28.53
748.788	29.85
748.97	30
749.151	33.56
749.332	32.41
749.513	33.46
749.694	30.83
749.875	28.85
750.056	27.16
750.237	29.77
750.418	29.27
750.599	29.63
750.78	31
750.96	29.67
751.141	28.57
751.322	30.5
751.503	25.97
751.684	26.39
751.865	31.96
752.046	30.64
752.226	28.91
752.407	24.62
752.588	23.78
752.769	24.27
752.949	25.06
753.13	30.23
753.311	28.27
753.492	30.84
753.672	33.9
753.853	34.71
754.034	36.91
754.214	34.34
754.395	35
754.575	34.96
754.756	34.11
754.937	31.61
755.117	29
755.298	31.37
755.478	30.12
755.659	28.19
755.839	26.59
756.02	27.96
756.2	30.62
756.381	34.91
756.561	31.68
756.741	31.82
756.922	33.65
757.102	33.94
757.283	30.94
757.463	34.78
757.643	35.05
757.823	34.34
758.004	34.16
758.184	33.3
758.364	31.89
758.545	35.4
758.725	34.43
758.905	34.28
759.085	34.2
759.265	35.39
759.446	33.07
759.626	31.17
759.806	32.01
759.986	31.5
760.166	30.02
760.346	29.18
760.526	28.71
760.706	31.57
760.886	33.58
761.066	29.93
761.246	28.21
761.426	27.91
761.606	27.23
761.786	27.08
761.966	25.62
762.146	28.23
762.326	26.44
762.506	28.48
762.686	25.73
762.866	25.11
763.046	28.08
763.225	30.14
763.405	29.65
763.585	30.87
763.765	31.6
763.945	32.71
764.124	34.28
764.304	36.35
764.484	34.16
764.664	35.3
764.843	33.9
765.023	32.29
765.203	31.13
765.382	34.37
765.562	35.87
765.741	35.66
765.921	35.4
766.101	30.45
766.28	30.78
766.46	30.93
766.639	31.04
766.819	33.92
766.998	33.27
767.178	35.29
767.357	34.51
767.537	32.36
767.716	29.69
767.896	27.63
768.075	28.41
768.254	28.3
768.434	27.55
768.613	24.94
768.792	22.81
768.972	25.24
769.151	25.75
769.33	26.14
769.51	29.78
769.689	32.01
769.868	33.27
770.047	32.69
770.226	34.36
770.406	36.22
770.585	37.97
770.764	36.92
770.943	36.53
771.122	33.07
771.301	28.99
771.48	26.64
771.66	23.49
771.839	24.8
772.018	26.24
772.197	24.39
772.376	22.55
772.555	24.46
772.734	27.15
772.913	26.02
773.092	25.55
773.271	22
773.449	23.11
773.628	23.43
773.807	22.85
773.986	25.21
774.165	25.9
774.344	27.12
774.523	26.99
774.701	28.78
774.88	27.6
775.059	27.62
775.238	31.71
775.417	33.15
775.595	33.79
775.774	34.04
775.953	33.42
776.131	29.32
776.31	25.67
776.489	26.97
776.667	18.86
776.846	18.73
777.025	21.87
777.203	21.04
777.382	17.9
777.56	19.8
777.739	15.13
777.917	13.23
778.096	14.67
778.274	13.1
778.453	11.85
778.631	19.05
778.81	19.86
778.988	23.24
779.166	23.92
779.345	24.84
779.523	26.91
779.702	33.13
779.88	35.72
780.058	33.5
780.237	34.7
780.415	39.2
780.593	36.63
780.771	39.09
780.95	34.15
781.128	31.31
781.306	28.4
781.484	27.45
781.662	26.43
781.841	23.23
782.019	26.23
782.197	30.6
782.375	25.26
782.553	24.54
782.731	23.68
782.909	25.01
783.087	28.66
783.265	30.66
783.443	30.76
783.621	27.24
783.799	31.14
783.977	30.64
784.155	32.65
784.333	35.33
784.511	39.17
784.689	38.57
784.867	36.79
785.045	37.54
785.223	34.79
785.4	35.36
785.578	35.81
785.756	34.09
785.934	37.16
786.112	34.65
786.289	33.38
786.467	28.34
786.645	28.54
786.823	30.42
787	30.19
787.178	37.46
787.356	33.57
787.533	34.47
787.711	34.84
787.889	31.24
788.066	28.73
788.244	30.47
788.421	33.3
788.599	31.82
788.776	33.93
788.954	33.63
789.131	29.45
789.309	31.45
789.486	26.68
789.664	32.71
789.841	37.27
790.019	39.78
790.196	39.22
790.373	37.13
790.551	41.6
790.728	43.62
790.906	46.68
791.083	50.57
791.26	56.78
791.437	56.25
791.615	47.72
791.792	45.93
791.969	42.3
792.146	41.16
792.324	41.24
792.501	37.64
792.678	31.76
792.855	27.72
793.032	27.15
793.209	24.94
793.387	30.57
793.564	30.92
793.741	31.18
793.918	34.07
794.095	37.95
794.272	39.55
794.449	41.58
794.626	41.51
794.803	44.71
794.98	43.3
795.157	38.56
795.334	38.63
795.511	35.62
795.688	32.44
795.864	33.08
796.041	27.45
796.218	24.37
796.395	23.62
796.572	26.76
796.749	21.19
796.925	19.68
797.102	18.62
797.279	15.37
797.456	17.48
797.632	24.25
797.809	21.53
797.986	21.74
798.162	24.04
798.339	22.37
798.516	25.63
798.692	30.18
798.869	32.99
799.046	37.73
799.222	39.88
799.399	40.16
799.575	33.68
799.752	32.74
799.928	29.6
800.105	28.91
800.281	33.03
800.458	27.46
800.634	25.95
800.811	23.61
800.987	22.92
801.163	26.2
801.34	28.15
801.516	28.8
801.692	27.49
801.869	31.06
802.045	29.72
802.221	29.43
802.398	30.24
802.574	27.74
802.75	27.9
802.926	23.45
803.103	16.89
803.279	14.22
803.455	21.22
803.631	24.95
803.807	21.14
803.983	22.17
804.16	17.94
804.336	18.44
804.512	24.51
804.688	21.19
804.864	19.34
805.04	24.24
805.216	26.64
805.392	21.04
805.568	24.88
805.744	30.99
805.92	32.28
806.096	29.84
806.272	24.75
806.448	16.14
806.623	22.99
806.799	29.31
806.975	27.66
807.151	21.25
807.327	22.21
807.503	23.16
807.678	20.88
807.854	19.43
808.03	20.55
808.206	25.14
808.381	30.19
808.557	23.25
808.733	24.62
808.908	21.36
809.084	24.99
809.26	24.63
809.435	22.5
809.611	23.96
809.787	29.37
809.962	31.8
810.138	28.02
810.313	21.02
810.489	29.04
810.664	29.15
810.84	37.13
811.015	31.73
811.191	33.34
811.366	33.52
811.542	34.98
811.717	31.8
811.892	27.6
812.068	30.69
812.243	36.01
812.419	29.58
812.594	27.11
812.769	23.01
812.944	26.8
813.12	21.49
813.295	19.43
813.47	19.76
813.645	12.49
813.821	18.93
813.996	16.57
814.171	18.94
814.346	26.66
814.521	28.59
814.697	22.69
814.872	23.08
815.047	23.9
815.222	21.35
815.397	17.76
815.572	24.85
815.747	23.34
815.922	24
816.097	18.78
816.272	17.63
816.447	16.22
816.622	17.75
816.797	19.94
816.972	22.57
817.147	27.75
817.322	29.97
817.496	30.33
817.671	23.49
817.846	23.88
818.021	24.22
818.196	28.19
818.371	27.14
818.545	29.74
818.72	23.2
818.895	21.23
819.069	16.49
819.244	18.66
819.419	16.42
819.594	23.65
819.768	25.58
819.943	25.27
820.117	21.85
820.292	21.39
820.467	22.45
820.641	25.34
820.816	27.23
820.99	28.3
821.165	29.01
821.339	29.45
821.514	29.32
821.688	29.54
821.863	30.83
822.037	31.8
822.212	31.88
822.386	31.62
822.56	31.15
822.735	30.42
822.909	31.24
823.084	31.58
823.258	31.13
823.432	32.62
823.606	32.71
823.781	31.75
823.955	30.92
824.129	30.88
824.303	30.95
824.478	31.82
824.652	31.64
824.826	31.16
825	29.25
825.174	31.3
825.348	28.71
825.523	30.05
825.697	30.09
825.871	31.23
826.045	32.3
826.219	33.34
826.393	32.23
826.567	33.51
826.741	31.98
826.915	32.09
827.089	28.86
827.263	28.69
827.437	26.43
827.611	27.77
827.784	25.62
827.958	24.51
828.132	22.61
828.306	24.94
828.48	22.77
828.654	22.6
828.827	23.19
829.001	23.55
829.175	24.19
829.349	24.12
829.522	21.25
829.696	25.22
829.87	22.53
830.044	21.81
830.217	20.23
830.391	18.34
830.565	19.79
830.738	17.99
830.912	18.48
831.085	16.17
831.259	17.47
831.432	19.63
831.606	16.64
831.779	23.76
831.953	21.83
832.126	28.75
832.3	32.07
832.473	27.08
832.647	26.11
832.82	27.83
832.994	25.91
833.167	22.82
833.34	19.8
833.514	20.37
833.687	19.34
833.86	22.5
834.034	17.14
834.207	17.78
834.38	20.33
834.553	23.14
834.727	21.99
834.9	25.45
835.073	29.07
835.246	34.06
835.419	29.7
835.593	29.8
835.766	33.01
835.939	28.6
836.112	31.14
836.285	32.9
836.458	26.54
836.631	30.65
836.804	25.9
836.977	20.32
837.15	16.76
837.323	25.12
837.496	23.43
837.669	8.72
837.842	13.56
838.015	8.36
838.188	13.96
838.361	22.88
838.533	18.52
838.706	27.92
838.879	27.7
839.052	31.73
839.225	38.8
839.398	42.49
839.57	51.86
839.743	46.88
839.916	44.92
840.088	36.69
840.261	38.45
840.434	41.63
840.607	38.45
840.779	46.22
840.952	39.95
841.124	30.68
841.297	31.06
841.47	25.98
841.642	30.47
841.815	31.53
841.987	34.59
842.16	25.16
842.332	14.43
842.505	15.57
842.677	0.6
842.85	7.91
843.022	22.83
843.194	8.27
843.367	22.06
843.539	19.27
843.712	25.78
843.884	21.1
844.056	22.64
844.229	34.85
844.401	33.75
844.573	45.55
844.745	40.77
844.918	37.12
845.09	56.72
845.262	48.56
845.434	61.88
845.606	44.56
845.779	48.99
845.951	48.72
846.123	42.33
846.295	47.12
846.467	56.43
846.639	54.68
846.811	40.66
846.983	35.78
847.155	32.6
847.327	28.26
847.499	39.37
847.671	31.98
847.843	32.17
848.015	24.11
848.187	28.37
848.359	14.5
848.531	7.14
848.703	14.5
848.875	-9.73
849.047	-2.85
849.218	4.11
849.39	-22.12
849.562	-25.35
849.734	-29.69
849.905	-21.68
850.077	-24.57
850.249	-23.5
850.421	-34.23
850.592	-52.58
850.764	-32.35
850.936	-48.49
851.107	-79.81
851.279	-41.37
851.451	-21.16
851.622	-5.55
851.794	18.71
851.965	-11.49
852.137	8.85
852.308	47.6
852.48	36.15
852.651	2.87
852.823	-0.41
852.994	-19.74
853.166	-27.2
853.337	-19.1
853.509	-21.21
853.68	-57.35
853.851	-27.76
854.023	-44.43
854.194	-55.88
854.365	-49.3
854.537	0.52
854.708	8.92
854.879	17.18
855.05	21.96
855.222	13.64
855.393	2.77
855.564	3.2
855.735	-11.49
855.906	-1.12
856.078	3.61
856.249	6.2
856.42	7.88
856.591	7.16
856.762	7.6
856.933	7.64
857.104	18.4
857.275	38.44
857.446	48.23
857.617	59.33
857.788	52.21
857.959	44.85
858.13	41.8
858.301	19.12
858.472	14.4
858.643	12.52
858.814	7.51
858.985	12.39
859.155	-8.34
859.326	-6.63
859.497	-14.72
859.668	-34.75
859.839	-43.12
860.009	-69.73
860.18	-51.73
860.351	-36.77
860.522	-16.18
860.692	-8.69
860.863	-48.31
861.034	-31.65
861.204	-132.28
861.375	-103.36
861.546	-53.55
861.716	-120.63
861.887	-84.51
862.057	-55.92
862.228	-12.62
862.398	-20.33
862.569	-1.45
862.739	5.33
862.91	10.32
863.08	18.44
863.251	21.72
863.421	43.27
863.592	64.23
863.762	67.88
863.932	64.47
864.103	60.41
864.273	39.35
864.443	8.52
864.614	26.05
864.784	36.69
864.954	48.91
865.125	41.54
865.295	18.43
865.465	-11.76
865.635	-9.9
865.805	-8.62
865.976	-6.11
866.146	-0.19
866.316	17.56
866.486	1.35
866.656	-10.08
866.826	-31.25
866.996	-11.78
867.166	-29.92
867.336	-23.87
867.506	-14.7
867.676	-43.46
867.846	-56.62
868.016	-40.24
868.186	-54.62
868.356	-40.99
868.526	-127.93
868.696	-128.01
868.866	-400.98
869.036	-143.91
869.206	-168.15
869.376	-212.87
869.545	-96.99
869.715	-85.57
869.885	-99.81
870.055	-79.94
870.224	-65.82
870.394	-49.24
870.564	-21.36
870.734	9.98
870.903	4.82
871.073	35.48
871.243	15.22
871.412	-3.98
871.582	-8.48
871.751	-8.04
871.921	-11.91
872.091	-31.6
872.26	-6.82
872.43	-36.26
872.599	-34.94
872.769	-10.71
872.938	-42.86
873.108	-34.3
873.277	-29.29
873.446	-29.51
873.616	-22.67
873.785	-18.13
873.955	-21.32
874.124	-42.6
874.293	-21.56
874.463	-39.28
874.632	-62.93
874.801	-48.21
874.971	-70.29
875.14	-97.96
875.309	-68.9
875.478	-70.71
875.647	-71.31
875.817	-65.17
875.986	-30.08
876.155	-28.27
876.324	-11.89
876.493	3.4
876.662	6.45
876.831	10.52
877	24.29
877.17	29.4
877.339	33.79
877.508	41.37
877.677	48.28
877.846	32.36
878.015	27.17
878.184	16.72
878.352	4.72
878.521	-12.48
878.69	-19.79
878.859	-12.01
879.028	-7.36
879.197	-7.23
879.366	-16.45
879.534	-17.36
879.703	-2.11
879.872	-0.34
880.041	3.23
880.21	4.33
880.378	14.55
880.547	23.69
880.716	19.56
880.884	17.41
881.053	17.09
881.222	15.84
881.39	15.44
881.559	15.58
881.727	14.58
881.896	17.48
882.065	20.49
882.233	21.33
882.402	19.83
882.57	20.89
882.739	21.06
882.907	21.04
883.076	22.35
883.244	24.64
883.412	24.61
883.581	25.58
883.749	26.5
883.918	24.43
884.086	21.81
884.254	25.99
884.423	29
884.591	28.88
884.759	27.65
884.927	19.63
885.096	19.06
885.264	17.01
885.432	18.15
885.6	14.62
885.769	11.4
885.937	15.76
886.105	8.19
886.273	-6.36
886.441	-9.53
886.609	-3.54
886.777	5.14
886.945	4
887.113	14.74
887.281	-21.2
887.449	-17.71
887.617	3.93
887.785	-14.03
887.953	-25.89
888.121	-38.84
888.289	-47.97
888.457	-107.26
888.625	-89.13
888.793	-76.87
888.961	-55.26
889.129	-14.75
889.296	-17.28
889.464	-32.1
889.632	-19.57
889.8	-6.85
889.967	8.87
890.135	1.29
