Data from JASIL_3309_Reflection_4.txt Node
Date: Tue Nov 17 19:56:58 EST 2015
User: Geneva
Spectrometer: USB4E03002
Autoset integration time: false
Trigger mode: 4
Integration Time (sec): 1.000000E-1
Scans to average: 10
Electric dark correction enabled: false
Nonlinearity correction enabled: false
Boxcar width: 5
Stray light correction enabled: false
XAxis mode: Wavelengths
Stop averaging: false
Number of Pixels in Spectrum: 3648
>>>>>Begin Spectral Data<<<<<
177.575	-200
177.794	-402.17
178.014	-511.24
178.233	-1116.98
178.452	-1026.67
178.672	-642.52
178.891	-1934.48
179.11	12880
179.33	3154.35
179.549	3213.73
179.768	-16745.45
179.987	1356.06
180.207	656.15
180.426	1128.08
180.645	1328
180.864	9535.29
181.084	1024.1
181.303	709.37
181.522	916.67
181.741	839.33
181.96	1443.43
182.179	7747.06
182.398	-1692.21
182.618	-688.06
182.837	-633.81
183.056	-699.45
183.275	-706.67
183.494	-264.27
183.713	-213.36
183.932	-148.3
184.151	-129.86
184.37	-130.16
184.589	-182.73
184.808	-163.35
185.027	-157.46
185.246	-236.77
185.465	-207.58
185.684	-279.09
185.903	-470.23
186.122	-600.83
186.341	-1391.15
186.56	-968.45
186.779	-4796.3
186.998	-577.25
187.216	-581.67
187.435	-592.12
187.654	-523.03
187.873	-397.32
188.092	-587.82
188.311	-671.43
188.53	-448.37
188.748	-222.37
188.967	-244.44
189.186	-212.79
189.405	-392.75
189.623	-348.75
189.842	-338.83
190.061	-270.27
190.28	-173.26
190.498	-177.59
190.717	-134.75
190.936	-172.65
191.154	-409.89
191.373	-854.02
191.592	1811.63
191.81	815.53
192.029	794.74
192.248	386.27
192.466	499.45
192.685	230.95
192.904	598.51
193.122	465.93
193.341	521.85
193.559	727.68
193.778	822.1
193.996	684.36
194.215	1792.75
194.433	919.29
194.652	886.01
194.87	780
195.089	923.08
195.307	1863.16
195.526	-1020.41
195.744	-794.96
195.963	-818.67
196.181	-932.23
196.399	-1400
196.618	1617.11
196.836	930.5
197.055	900.68
197.273	1040.3
197.491	1262.16
197.71	648.81
197.928	558.28
198.146	553.42
198.365	3145.24
198.583	2250.79
198.801	-917.74
199.019	-317.15
199.238	-298.97
199.456	-305.17
199.674	-375.74
199.892	-316.1
200.111	-286.85
200.329	-324.46
200.547	-398.72
200.765	2845.1
200.983	-1101.71
201.202	2180.26
201.42	638.57
201.638	424.81
201.856	697.01
202.074	966.67
202.292	516.79
202.51	395.5
202.728	454.12
202.946	3892.86
203.165	2044.23
203.383	425.99
203.601	528.43
203.819	998.18
204.037	-2842.42
204.255	-3011.11
204.473	-522.38
204.691	-468.24
204.909	-332.74
205.127	-1683.33
205.345	495.15
205.562	-489.15
205.78	-108.75
205.998	-101.58
206.216	-95.31
206.434	-149.74
206.652	-214.98
206.87	-479.64
207.088	-355.24
207.306	-501.73
207.523	-349.32
207.741	-272.7
207.959	-458.56
208.177	-539.38
208.395	-429.41
208.612	-351.39
208.83	-203.72
209.048	-234.11
209.266	-176.24
209.483	-99.21
209.701	-70.31
209.919	-102.55
210.136	-94.7
210.354	-131.59
210.572	-155.9
210.79	-276.33
211.007	-697.89
211.225	-6553.33
211.442	1435.59
211.66	4068
211.878	391.36
212.095	1184.82
212.313	1881.36
212.53	1059.72
212.748	827.89
212.966	621.74
213.183	772.37
213.401	-9561.11
213.618	-682.94
213.836	-593.17
214.053	-806.42
214.271	-566.35
214.488	-411.61
214.705	-351.88
214.923	-240.06
215.14	-176.72
215.358	-137.97
215.575	-113.81
215.793	-203.89
216.01	-556.4
216.227	-936.21
216.445	-827.78
216.662	-418.97
216.879	-444.78
217.097	-276.16
217.314	-417.9
217.531	14550
217.749	1283.17
217.966	722.53
218.183	431.14
218.4	750.97
218.618	794.74
218.835	484.74
219.052	468.75
219.269	415.82
219.487	218.85
219.704	218.14
219.921	248.15
220.138	322.3
220.355	272.1
220.572	265.65
220.79	251.23
221.007	347.87
221.224	406.08
221.441	434.85
221.658	449.15
221.875	-2100
222.092	-904.55
222.309	2293.94
222.526	423.64
222.743	399.52
222.96	506.47
223.177	1041.86
223.394	750
223.611	650.35
223.828	413.2
224.045	320.52
224.262	226.15
224.479	207.96
224.696	388.94
224.913	639.67
225.13	754.72
225.347	582.76
225.564	311.15
225.781	173.49
225.997	146.1
226.214	122.33
226.431	101.77
226.648	112.07
226.865	100.34
227.082	86.32
227.298	84.36
227.515	70.06
227.732	72.04
227.949	75.68
228.165	67.24
228.382	58.56
228.599	60.36
228.816	67.88
229.032	64.09
229.249	62.86
229.466	71.54
229.682	69.24
229.899	77.52
230.116	81.2
230.332	86.15
230.549	98.28
230.765	95.04
230.982	82.52
231.199	82.86
231.415	80.5
231.632	90.1
231.848	83.23
232.065	76.27
232.281	58.62
232.498	59.55
232.714	54.39
232.931	62.57
233.147	79.38
233.364	91.32
233.58	97.67
233.797	114.55
234.013	120.86
234.23	125
234.446	129.75
234.662	182.36
234.879	270.52
235.095	241.7
235.312	185.53
235.528	170.21
235.744	205.79
235.961	242.42
236.177	191.49
236.393	255.97
236.61	242.53
236.826	209.88
237.042	139.52
237.258	126.82
237.475	119.72
237.691	170.96
237.907	114.81
238.123	102.51
238.339	99.9
238.556	90.83
238.772	75.21
238.988	55.38
239.204	54.06
239.42	56.89
239.636	58.76
239.853	58.48
240.069	52.95
240.285	53.62
240.501	50.62
240.717	44.83
240.933	46.68
241.149	48.17
241.365	51.1
241.581	50.66
241.797	54.94
242.013	53.39
242.229	52.7
242.445	50
242.661	53.28
242.877	58.85
243.093	64.01
243.309	64.97
243.525	61.17
243.741	59.99
243.957	58.62
244.173	51.55
244.388	47.44
244.604	43.1
244.82	41.17
245.036	37.96
245.252	30.47
245.468	26.79
245.683	24.36
245.899	23.32
246.115	20.73
246.331	18.49
246.547	19.59
246.762	18.49
246.978	17.19
247.194	19.8
247.409	19.73
247.625	21.52
247.841	22.89
248.057	24.82
248.272	26.18
248.488	28.36
248.703	32.57
248.919	35.03
249.135	36.66
249.35	39.41
249.566	40
249.782	41.13
249.997	40.89
250.213	41.05
250.428	38.36
250.644	36.87
250.859	34.82
251.075	30.13
251.29	28.23
251.506	29.14
251.721	31.89
251.937	30.16
252.152	29.01
252.368	26.6
252.583	25.12
252.798	27.36
253.014	24.64
253.229	23.76
253.445	34.36
253.66	37.22
253.875	36.13
254.091	30.74
254.306	31.5
254.521	25.53
254.737	29.11
254.952	33.28
255.167	32.54
255.383	33.27
255.598	41.13
255.813	31.47
256.028	27.2
256.244	28.31
256.459	30.58
256.674	30.8
256.889	29.12
257.104	26.85
257.32	25.03
257.535	22.03
257.75	21.72
257.965	17.87
258.18	16.92
258.395	15.45
258.61	14.56
258.826	12.13
259.041	12.3
259.256	12.14
259.471	11.24
259.686	11.06
259.901	11.98
260.116	12.86
260.331	13.26
260.546	13.66
260.761	16.94
260.976	17.6
261.191	20.29
261.406	19.77
261.621	18.03
261.836	22.79
262.05	23.89
262.265	28.32
262.48	27.52
262.695	29.28
262.91	30.04
263.125	24.81
263.34	24.59
263.555	17.21
263.769	15.22
263.984	18.65
264.199	15.78
264.414	16.24
264.629	14.28
264.843	17.68
265.058	19.24
265.273	16.87
265.488	18.8
265.702	19.51
265.917	24.27
266.132	24.17
266.346	27.4
266.561	28.66
266.776	26.38
266.99	23.23
267.205	22.06
267.42	18.95
267.634	19.18
267.849	18.75
268.063	18.16
268.278	16.94
268.492	14.94
268.707	12.31
268.922	11.22
269.136	13.12
269.351	15.87
269.565	15.7
269.78	18.06
269.994	19.54
270.209	18.6
270.423	17.36
270.637	17.38
270.852	19.07
271.066	19.8
271.281	21.16
271.495	19.05
271.709	18.26
271.924	18.46
272.138	16.28
272.353	17.42
272.567	18.64
272.781	19.42
272.996	18.64
273.21	18.89
273.424	18.13
273.638	18.24
273.853	21.27
274.067	21.76
274.281	20.33
274.495	22.99
274.71	21.39
274.924	21.71
275.138	23.12
275.352	23.52
275.566	25
275.781	24.08
275.995	23.94
276.209	24.7
276.423	23.18
276.637	24.77
276.851	22.94
277.065	22.07
277.279	19.4
277.493	17.5
277.707	17.26
277.921	16.64
278.135	19.68
278.349	18.62
278.563	17.72
278.777	17.81
278.991	17.95
279.205	21.32
279.419	21.89
279.633	23.75
279.847	27.4
280.061	25.68
280.275	26.47
280.489	23.44
280.703	21.66
280.917	21.76
281.131	21.68
281.344	21.52
281.558	20.31
281.772	20.17
281.986	20.24
282.2	16.68
282.414	16.27
282.627	14.59
282.841	15.76
283.055	13.94
283.269	13.44
283.482	12.67
283.696	12.33
283.91	12.79
284.123	11.57
284.337	11.13
284.551	12.68
284.764	13.86
284.978	12.94
285.192	13.43
285.405	14.98
285.619	14.78
285.833	15.31
286.046	14.78
286.26	13.63
286.473	15.67
286.687	16.07
286.9	16.69
287.114	18.19
287.327	19.12
287.541	18.36
287.754	19.75
287.968	19.5
288.181	19.48
288.395	19.82
288.608	19.95
288.822	19.99
289.035	19.14
289.248	18.09
289.462	16.64
289.675	14.64
289.889	14.61
290.102	14.06
290.315	14.42
290.529	15.17
290.742	13.86
290.955	15.66
291.169	16.52
291.382	16.45
291.595	16.6
291.808	16.89
292.022	20.05
292.235	20.4
292.448	19.39
292.661	19.64
292.875	17.49
293.088	18.89
293.301	14.85
293.514	11.46
293.727	12.14
293.94	12.33
294.153	11.67
294.367	11.3
294.58	10.42
294.793	9.3
295.006	8.3
295.219	9.39
295.432	7.53
295.645	9.54
295.858	11.75
296.071	10.67
296.284	9.13
296.497	8.49
296.71	8.39
296.923	7.96
297.136	9
297.349	10.37
297.562	10.56
297.775	10.6
297.988	9.92
298.201	9.12
298.414	10.27
298.626	11.6
298.839	12.37
299.052	13.44
299.265	15.72
299.478	17.63
299.691	16.72
299.903	16.31
300.116	17.24
300.329	15.4
300.542	16.28
300.755	16.48
300.967	15.51
301.18	15.76
301.393	14.52
301.605	12.94
301.818	10.64
302.031	11.56
302.243	10.87
302.456	11.23
302.669	13.55
302.881	12.68
303.094	12.75
303.307	12.06
303.519	12.06
303.732	13
303.944	13.04
304.157	14.67
304.37	15.39
304.582	17.08
304.795	18.18
305.007	18.97
305.22	18.9
305.432	19.25
305.645	20.32
305.857	19.51
306.069	15.82
306.282	15.02
306.494	12.73
306.707	11.83
306.919	10.68
307.132	10.08
307.344	9.42
307.556	8.67
307.769	6.82
307.981	7.76
308.193	8.91
308.406	10.57
308.618	11.08
308.83	11.49
309.043	10.62
309.255	11.91
309.467	11.71
309.679	9.88
309.892	11.39
310.104	12.87
310.316	13.26
310.528	13.13
310.74	13.02
310.953	13.17
311.165	14.41
311.377	14.8
311.589	15.39
311.801	14.97
312.013	15.37
312.225	14.6
312.437	12.86
312.649	10.32
312.862	11.36
313.074	13.01
313.286	13.77
313.498	13.96
313.71	15.62
313.922	13.51
314.134	13.73
314.346	16.41
314.558	17.08
314.77	18.6
314.982	21.56
315.193	21.18
315.405	20.2
315.617	19.93
315.829	21.25
316.041	20.82
316.253	21
316.465	23.96
316.677	23.33
316.888	23.86
317.1	23.96
317.312	24.85
317.524	26.68
317.736	29.45
317.947	30.58
318.159	30.07
318.371	30.42
318.583	30.67
318.794	29.61
319.006	29.95
319.218	30.81
319.43	33
319.641	33.37
319.853	31.59
320.064	29.34
320.276	28.64
320.488	26.75
320.699	25.66
320.911	25.66
321.123	26.14
321.334	26.08
321.546	23.37
321.757	21.85
321.969	20.68
322.18	19.74
322.392	19.45
322.603	19.73
322.815	19.2
323.026	18.86
323.238	18.24
323.449	15.61
323.661	15.89
323.872	17.2
324.083	16.6
324.295	15.83
324.506	15.55
324.718	14.48
324.929	15.94
325.14	18.98
325.352	19.25
325.563	20.52
325.774	22.67
325.986	22.62
326.197	22.13
326.408	22.88
326.62	22.81
326.831	23.74
327.042	25.9
327.253	24.33
327.464	22.6
327.676	23.38
327.887	22.12
328.098	20.4
328.309	19.31
328.52	20.05
328.732	20.4
328.943	21.31
329.154	21.46
329.365	21.77
329.576	22.15
329.787	23.7
329.998	23.97
330.209	26.87
330.42	29.41
330.631	30.07
330.842	30.8
331.053	31.66
331.264	31.86
331.475	31.17
331.686	31.27
331.897	30.05
332.108	30
332.319	30.01
332.53	28.91
332.741	28
332.952	29.38
333.163	29.47
333.374	30.33
333.585	29.8
333.795	30.72
334.006	30.24
334.217	32.19
334.428	30.04
334.639	30.28
334.849	31.29
335.06	32.83
335.271	32.03
335.482	31.84
335.692	30.44
335.903	29.75
336.114	31.51
336.325	31.83
336.535	30.42
336.746	32.37
336.957	31.33
337.167	31.1
337.378	30.65
337.589	31.71
337.799	30.24
338.01	31.51
338.22	33.15
338.431	30.94
338.642	31.79
338.852	32.7
339.063	33.13
339.273	33.98
339.484	33.62
339.694	32.63
339.905	31.45
340.115	32.52
340.326	32.09
340.536	31.16
340.746	30.62
340.957	29.25
341.167	30.09
341.378	29.61
341.588	29.2
341.799	29.76
342.009	29.94
342.219	30.29
342.43	30.71
342.64	28.63
342.85	29.66
343.061	30.72
343.271	30.63
343.481	29.52
343.691	28.3
343.902	28.73
344.112	28.89
344.322	27.76
344.532	27.27
344.743	27.31
344.953	28.24
345.163	27.25
345.373	27.4
345.583	26.96
345.793	28.76
346.004	31.27
346.214	32.05
346.424	31.08
346.634	31.72
346.844	33.2
347.054	33.13
347.264	34.02
347.474	33.25
347.684	33.97
347.894	34.58
348.104	31.66
348.314	30.19
348.524	28.93
348.734	28.44
348.944	27.93
349.154	26.27
349.364	25.05
349.574	24.49
349.784	26.24
349.994	26.17
350.204	27.8
350.413	27.9
350.623	27.24
350.833	28.34
351.043	28.96
351.253	29.85
351.463	29.92
351.672	30.74
351.882	30.68
352.092	30.18
352.302	30.49
352.511	28.71
352.721	29.55
352.931	29.95
353.141	29.39
353.35	28.63
353.56	28.26
353.77	28.55
353.979	29.31
354.189	29.23
354.399	28.5
354.608	26.36
354.818	25.62
355.027	25.97
355.237	24.71
355.447	24.81
355.656	25.66
355.866	25.78
356.075	26.22
356.285	25.66
356.494	26.2
356.704	27.04
356.913	27.36
357.123	29.05
357.332	29.19
357.542	30.06
357.751	30.11
357.96	29.29
358.17	29.3
358.379	27.87
358.589	27.96
358.798	27.16
359.007	28.19
359.217	29.41
359.426	28.26
359.635	27.45
359.845	27.35
360.054	25.72
360.263	25.91
360.472	25.92
360.682	26.67
360.891	26.38
361.1	26.45
361.309	25.42
361.519	24.79
361.728	24.77
361.937	25.41
362.146	25.61
362.355	26.71
362.564	26.5
362.774	26.42
362.983	26.42
363.192	26.66
363.401	26.51
363.61	26.03
363.819	26.35
364.028	26.09
364.237	26.07
364.446	25.47
364.655	24.79
364.864	25.61
365.073	25.91
365.282	26.02
365.491	26.22
365.7	26.65
365.909	26.4
366.118	27.43
366.327	27.67
366.536	25.64
366.745	25.89
366.954	27.4
367.162	26.94
367.371	26.51
367.58	26.6
367.789	26.68
367.998	25.91
368.207	25.55
368.415	24.49
368.624	24.88
368.833	26.46
369.042	26.67
369.25	25.96
369.459	26.01
369.668	26.14
369.877	26.62
370.085	26.58
370.294	26.27
370.503	27.8
370.711	26.91
370.92	25.99
371.129	25.53
371.337	24.96
371.546	24.04
371.754	23
371.963	22.89
372.171	21.38
372.38	20.75
372.589	21.42
372.797	20.03
373.006	20.63
373.214	20.29
373.423	20.24
373.631	21.01
373.84	21.21
374.048	22.03
374.256	21.54
374.465	23.11
374.673	24.66
374.882	23.92
375.09	24.31
375.298	24.81
375.507	24.89
375.715	25.37
375.923	25.21
376.132	25.46
376.34	25.29
376.548	25.23
376.757	24.37
376.965	22.92
377.173	23.58
377.381	23.29
377.59	22.96
377.798	23.96
378.006	23.43
378.214	23.17
378.423	22.72
378.631	22.23
378.839	23.64
379.047	24.46
379.255	24.68
379.463	24.33
379.671	24.66
379.879	24.34
380.088	24.17
380.296	24.5
380.504	24.53
380.712	25.47
380.92	25.6
381.128	24.94
381.336	24.18
381.544	23.36
381.752	23.09
381.96	22.61
382.168	20.97
382.376	20.95
382.584	20.8
382.791	20.96
382.999	20.63
383.207	20.83
383.415	20.92
383.623	20.69
383.831	21.01
384.039	21.41
384.247	22.08
384.454	24.07
384.662	23.97
384.87	23.84
385.078	22.88
385.285	22.04
385.493	22.62
385.701	22.27
385.909	22.19
386.116	22.22
386.324	21.82
386.532	21.41
386.739	21.91
386.947	21.31
387.155	20.96
387.362	21.17
387.57	20.6
387.778	19.29
387.985	17.34
388.193	17.34
388.4	18.45
388.608	18.56
388.816	18.55
389.023	17.69
389.231	18.07
389.438	18.57
389.646	19.04
389.853	20.24
390.061	20.56
390.268	21.15
390.475	20.96
390.683	19.88
390.89	20.15
391.098	20.43
391.305	19.79
391.512	19.77
391.72	19.56
391.927	19.69
392.135	19.31
392.342	19.6
392.549	19.62
392.756	19.21
392.964	18.72
393.171	19.13
393.378	18.61
393.586	18.83
393.793	19.18
394	19.44
394.207	19.24
394.414	19.43
394.622	19.02
394.829	20.29
395.036	21.2
395.243	21.67
395.45	21.3
395.657	21.11
395.864	21.29
396.072	21.17
396.279	20.66
396.486	20.11
396.693	19.72
396.9	19.94
397.107	19.93
397.314	19.8
397.521	19.77
397.728	19.52
397.935	20.1
398.142	20.31
398.349	19
398.556	19.19
398.763	19.57
398.97	20.31
399.177	20.89
399.383	20.55
399.59	20.73
399.797	21.06
400.004	21.9
400.211	21.55
400.418	21.29
400.625	21.99
400.831	22.39
401.038	21.72
401.245	21.44
401.452	20.8
401.658	21.42
401.865	20.7
402.072	20.58
402.279	19.54
402.485	19.83
402.692	20.12
402.899	19.33
403.105	19.15
403.312	19.39
403.519	19.64
403.725	19.34
403.932	18.22
404.138	19.28
404.345	18.55
404.552	18.92
404.758	18.96
404.965	18.55
405.171	19.54
405.378	19.4
405.584	20.07
405.791	19.24
405.997	19.24
406.204	19.95
406.41	19.17
406.617	19.5
406.823	18.47
407.029	17.56
407.236	17.96
407.442	17.75
407.649	18.3
407.855	17.76
408.061	18.43
408.268	18.61
408.474	18.5
408.68	18.68
408.887	19.25
409.093	20.7
409.299	21.13
409.505	20.58
409.712	20.82
409.918	19.71
410.124	19.23
410.33	18.56
410.537	18.8
410.743	18.86
410.949	18.3
411.155	18.14
411.361	17.1
411.567	16.85
411.773	17.12
411.98	17.16
412.186	18.45
412.392	19.12
412.598	19.62
412.804	19.08
413.01	18.99
413.216	19.6
413.422	19.29
413.628	19.88
413.834	20.19
414.04	20.29
414.246	19.88
414.452	19.09
414.658	18.11
414.864	18.33
415.07	18.49
415.275	17.86
415.481	17.38
415.687	17.42
415.893	17.26
416.099	17.54
416.305	17.15
416.511	17.1
416.716	16.82
416.922	17.59
417.128	17.01
417.334	16.91
417.539	16.84
417.745	17.11
417.951	17.02
418.157	17.13
418.362	16.89
418.568	16.77
418.774	16.66
418.979	16.78
419.185	16.7
419.391	17.02
419.596	17.04
419.802	17.2
420.008	16.78
420.213	14.48
420.419	14.33
420.624	14.18
420.83	14.68
421.035	14.89
421.241	15
421.446	14.83
421.652	14.74
421.857	15.04
422.063	15.26
422.268	15.62
422.474	17.64
422.679	17.47
422.885	17.27
423.09	16.83
423.295	16.7
423.501	16.56
423.706	16.7
423.911	16.59
424.117	16.27
424.322	16.1
424.527	15.88
424.733	16.34
424.938	16.56
425.143	16.79
425.349	16.9
425.554	17
425.759	17.3
425.964	17.01
426.169	17.03
426.375	17.41
426.58	17.37
426.785	17.6
426.99	17.73
427.195	17.74
427.4	17.77
427.605	17.98
427.811	18.01
428.016	17.75
428.221	18.11
428.426	18.29
428.631	18.22
428.836	17.97
429.041	18.31
429.246	17.78
429.451	17.8
429.656	18.11
429.861	18.37
430.066	18.44
430.271	18.76
430.476	18.36
430.681	17.97
430.886	17.83
431.09	17.86
431.295	17.29
431.5	17.73
431.705	17.91
431.91	17.74
432.115	17.25
432.32	16.86
432.524	16.36
432.729	16.83
432.934	17.42
433.139	17.17
433.343	17.37
433.548	17.69
433.753	16.83
433.958	16.64
434.162	16.85
434.367	17.05
434.572	17.1
434.776	17.06
434.981	16.87
435.186	16.39
435.39	16.76
435.595	16.58
435.799	16.26
436.004	16.37
436.209	16.31
436.413	15.86
436.618	15.82
436.822	15.99
437.027	16.27
437.231	16.3
437.436	16.36
437.64	16.38
437.845	16.78
438.049	16.79
438.253	17.21
438.458	17.28
438.662	17.52
438.867	17.35
439.071	17.44
439.275	17.61
439.48	17.5
439.684	17.66
439.888	17.64
440.093	17.49
440.297	17.84
440.501	17.94
440.706	17.96
440.91	17.92
441.114	17.93
441.318	18.31
441.523	18.04
441.727	18.01
441.931	18.04
442.135	17.96
442.339	17.83
442.543	17.53
442.748	17.46
442.952	17.15
443.156	16.88
443.36	17.05
443.564	16.38
443.768	16.67
443.972	17.01
444.176	16.94
444.38	16.78
444.584	16.9
444.788	16.73
444.992	16.72
445.196	16.91
445.4	16.87
445.604	16.58
445.808	16.85
446.012	16.59
446.216	16.29
446.42	16.12
446.624	16.25
446.828	16.2
447.032	16.26
447.235	16.14
447.439	15.77
447.643	15.96
447.847	16.38
448.051	16.29
448.254	16.54
448.458	16.63
448.662	16.57
448.866	16.49
449.069	16.55
449.273	16.55
449.477	17.1
449.681	17.48
449.884	17.33
450.088	16.86
450.292	16.95
450.495	16.63
450.699	16.84
450.902	16.96
451.106	16.76
451.31	16.85
451.513	17.02
451.717	16.48
451.92	16.77
452.124	16.87
452.327	17.03
452.531	16.91
452.734	17.01
452.938	16.77
453.141	16.94
453.345	17.11
453.548	16.86
453.752	16.85
453.955	16.96
454.158	16.98
454.362	17.07
454.565	17.07
454.769	17.55
454.972	18
455.175	18
455.379	18.36
455.582	18.46
455.785	18.25
455.988	18.2
456.192	18.04
456.395	17.65
456.598	17.73
456.801	18.42
457.005	18.11
457.208	17.55
457.411	17.49
457.614	16.86
457.817	16.93
458.021	16.82
458.224	16.61
458.427	16.75
458.63	16.71
458.833	16.76
459.036	16.64
459.239	16.24
459.442	16.24
459.645	16.22
459.848	16.53
460.051	16.39
460.254	16.72
460.457	16.94
460.66	16.84
460.863	17.07
461.066	16.72
461.269	16.42
461.472	17.09
461.675	17.06
461.878	16.98
462.081	16.66
462.284	16.63
462.486	16.16
462.689	15.84
462.892	16.21
463.095	16.21
463.298	16.38
463.5	16.37
463.703	15.92
463.906	16.22
464.109	16.86
464.311	17.09
464.514	17.33
464.717	17.31
464.92	17.88
465.122	17.56
465.325	17.15
465.528	17.26
465.73	17.17
465.933	17.06
466.135	16.8
466.338	16.27
466.541	15.94
466.743	15.65
466.946	15.61
467.148	15.63
467.351	15.56
467.553	15.54
467.756	15.33
467.958	15.31
468.161	15.81
468.363	16.02
468.566	15.78
468.768	16.11
468.971	16.27
469.173	17.09
469.375	16.77
469.578	16.23
469.78	16.52
469.983	16.82
470.185	16.81
470.387	16.71
470.59	16.6
470.792	16.98
470.994	16.86
471.196	16.9
471.399	16.67
471.601	16.84
471.803	17.25
472.005	17.4
472.208	17.51
472.41	17.45
472.612	17.26
472.814	17.64
473.016	17.71
473.218	17.91
473.421	17.7
473.623	17.7
473.825	17.43
474.027	17.72
474.229	18.19
474.431	17.59
474.633	17.6
474.835	17.41
475.037	17.24
475.239	17.35
475.441	17.63
475.643	17.99
475.845	17.59
476.047	17.71
476.249	17.31
476.451	16.57
476.653	16.81
476.855	17.06
477.057	17.2
477.258	16.91
477.46	16.57
477.662	16.42
477.864	16.43
478.066	16.94
478.268	17.04
478.469	17.76
478.671	17.8
478.873	17.75
479.075	17.5
479.276	17.58
479.478	17.6
479.68	17.84
479.882	17.6
480.083	17.34
480.285	16.98
480.487	17.29
480.688	16.91
480.89	16.95
481.091	16.99
481.293	16.9
481.495	16.81
481.696	16.67
481.898	16.58
482.099	16.59
482.301	16.48
482.502	16.48
482.704	16.18
482.905	16.15
483.107	16.03
483.308	15.88
483.51	15.92
483.711	15.89
483.913	16
484.114	16
484.315	15.95
484.517	16.03
484.718	16.07
484.92	16.19
485.121	16.23
485.322	16.27
485.524	16.48
485.725	16.51
485.926	16.54
486.127	16.52
486.329	16.52
486.53	16.38
486.731	16.42
486.932	16.29
487.134	16.31
487.335	16.27
487.536	16.31
487.737	16.22
487.938	16.19
488.139	16.27
488.341	16.19
488.542	16.22
488.743	16.32
488.944	16.28
489.145	16.33
489.346	16.47
489.547	16.34
489.748	16.53
489.949	16.64
490.15	16.68
490.351	16.6
490.552	16.72
490.753	16.67
490.954	16.64
491.155	16.61
491.356	16.63
491.557	16.59
491.758	16.93
491.959	16.77
492.159	16.72
492.36	16.89
492.561	16.91
492.762	16.97
492.963	16.95
493.164	17.07
493.364	17.27
493.565	17.53
493.766	17.52
493.967	17.28
494.167	17.51
494.368	17.59
494.569	17.39
494.769	17.38
494.97	17.01
495.171	17.31
495.371	17.23
495.572	17.35
495.773	17.22
495.973	17.07
496.174	17.15
496.375	17.23
496.575	17.41
496.776	17.35
496.976	17.13
497.177	17.33
497.377	17.2
497.578	17.31
497.778	16.88
497.979	16.82
498.179	16.65
498.38	16.77
498.58	16.54
498.78	16.39
498.981	16.57
499.181	16.8
499.382	16.94
499.582	17.05
499.782	17.36
499.983	17.78
500.183	17.95
500.383	18.34
500.584	18.07
500.784	18.18
500.984	18.15
501.184	18.01
501.385	18.35
501.585	18.25
501.785	18.28
501.985	17.97
502.185	17.84
502.386	18.06
502.586	18.06
502.786	18.24
502.986	18.23
503.186	18.36
503.386	18.45
503.586	18.52
503.786	18.67
503.987	18.75
504.187	18.59
504.387	18.87
504.587	18.51
504.787	18.48
504.987	18.36
505.187	18.65
505.387	18.85
505.587	18.93
505.786	18.66
505.986	19
506.186	18.71
506.386	19.18
506.586	18.98
506.786	19.07
506.986	19.07
507.186	19.51
507.386	19.48
507.585	19.43
507.785	19.39
507.985	19.68
508.185	19.35
508.384	19.92
508.584	20.02
508.784	20.29
508.984	20.58
509.183	20.67
509.383	20.31
509.583	20.29
509.782	20.07
509.982	20.29
510.182	20.42
510.381	20.54
510.581	20.25
510.781	20.26
510.98	20.16
511.18	20.09
511.379	20.07
511.579	20
511.778	20.07
511.978	20.58
512.177	20.42
512.377	19.96
512.576	19.69
512.776	19.38
512.975	19.1
513.175	19.32
513.374	19.55
513.573	20.04
513.773	20.58
513.972	20.69
514.172	20.51
514.371	20.61
514.57	20.99
514.77	21.46
514.969	21.37
515.168	21.84
515.367	21.67
515.567	21.6
515.766	21.28
515.965	21.01
516.164	20.98
516.364	20.93
516.563	21.01
516.762	20.94
516.961	20.93
517.16	21.33
517.359	21.03
517.559	21.1
517.758	21.13
517.957	21.25
518.156	21.48
518.355	21.54
518.554	21.75
518.753	21.54
518.952	21.66
519.151	21.69
519.35	21.85
519.549	22.24
519.748	22.34
519.947	22.39
520.146	22.5
520.345	22.37
520.544	22.36
520.743	22.43
520.942	22.86
521.141	22.9
521.339	23.3
521.538	23.54
521.737	23.39
521.936	23.54
522.135	23.72
522.333	23.87
522.532	24.18
522.731	24.33
522.93	24.29
523.129	24.56
523.327	24.7
523.526	24.57
523.725	24.34
523.923	24.63
524.122	24.4
524.321	24.41
524.519	24.33
524.718	24.24
524.917	24.41
525.115	24.41
525.314	24.33
525.512	24.5
525.711	24.56
525.909	24.54
526.108	24.58
526.306	24.74
526.505	24.92
526.703	24.95
526.902	24.92
527.1	24.88
527.299	24.99
527.497	24.95
527.696	24.91
527.894	24.98
528.092	25.19
528.291	25.16
528.489	25.34
528.688	25.45
528.886	25.51
529.084	25.79
529.283	25.98
529.481	26.05
529.679	26.32
529.877	26.48
530.076	26.62
530.274	26.79
530.472	26.95
530.67	27.01
530.869	27.19
531.067	27.54
531.265	27.56
531.463	27.84
531.661	28.13
531.859	28.28
532.057	28.38
532.255	28.35
532.454	28.36
532.652	28.51
532.85	28.62
533.048	28.45
533.246	28.63
533.444	28.74
533.642	28.79
533.84	28.98
534.038	29.17
534.236	29.25
534.434	29.62
534.632	29.64
534.83	29.78
535.027	29.92
535.225	30.36
535.423	30.38
535.621	30.52
535.819	30.47
536.017	30.36
536.215	30.41
536.412	30.45
536.61	30.59
536.808	31.04
537.006	31.2
537.203	31.27
537.401	31.43
537.599	31.39
537.797	31.41
537.994	31.59
538.192	31.73
538.39	31.33
538.587	31.37
538.785	31.19
538.983	30.91
539.18	30.99
539.378	31.21
539.575	31.1
539.773	31.05
539.97	31.25
540.168	31.22
540.366	31.21
540.563	31.49
540.761	31.62
540.958	31.63
541.155	31.86
541.353	31.93
541.55	32.16
541.748	32.12
541.945	32.36
542.143	32.39
542.34	32.75
542.537	33
542.735	33.11
542.932	33.33
543.129	33.67
543.327	33.67
543.524	33.64
543.721	33.34
543.919	33.49
544.116	33.47
544.313	33.71
544.51	33.55
544.708	33.75
544.905	33.78
545.102	33.69
545.299	33.76
545.496	33.87
545.693	33.91
545.891	33.98
546.088	34.22
546.285	34.28
546.482	34.24
546.679	34.42
546.876	34.09
547.073	34.39
547.27	34.64
547.467	34.86
547.664	35.24
547.861	35.56
548.058	36.17
548.255	36.32
548.452	36.61
548.649	36.7
548.846	37
549.043	37.43
549.24	37.69
549.437	37.77
549.633	37.67
549.83	37.77
550.027	37.75
550.224	37.31
550.421	37.41
550.618	37.63
550.814	37.49
551.011	37.15
551.208	37.22
551.405	37.28
551.601	37.4
551.798	37.41
551.995	36.98
552.191	37.25
552.388	37.64
552.585	37.95
552.781	37.57
552.978	37.68
553.175	38.07
553.371	37.93
553.568	37.79
553.764	37.97
553.961	38.13
554.157	38.52
554.354	38.03
554.55	38.03
554.747	37.58
554.943	38.28
555.14	38.34
555.336	38.15
555.533	38.3
555.729	38.21
555.926	38.03
556.122	38.18
556.318	38.13
556.515	38.67
556.711	38.83
556.907	38.88
557.104	38.88
557.3	39.81
557.496	39.95
557.693	40.2
557.889	40.31
558.085	40.24
558.281	40.02
558.478	39.93
558.674	40.11
558.87	40.34
559.066	40.1
559.262	39.69
559.459	38.92
559.655	38.8
559.851	38.36
560.047	38.25
560.243	38.53
560.439	38.36
560.635	38.5
560.831	38.47
561.027	37.94
561.223	38.44
561.419	38.55
561.615	38.74
561.811	38.95
562.007	39.04
562.203	38.99
562.399	39.33
562.595	39.42
562.791	39.8
562.987	39.82
563.183	39.9
563.379	39.18
563.575	39.16
563.771	39.16
563.966	39.02
564.162	39.06
564.358	39.19
564.554	38.52
564.75	38.75
564.945	38.31
565.141	38.19
565.337	38.1
565.533	38.59
565.728	38.58
565.924	38.74
566.12	39.04
566.315	39.36
566.511	39.15
566.707	39.87
566.902	40.01
567.098	40.44
567.293	40.29
567.489	40.47
567.684	40.69
567.88	40.68
568.076	40.63
568.271	40.39
568.467	40.05
568.662	39.82
568.858	39.58
569.053	39.08
569.248	39.04
569.444	39.42
569.639	39.38
569.835	39.42
570.03	39.4
570.225	39.25
570.421	39.43
570.616	39.69
570.812	40.3
571.007	40.18
571.202	40.69
571.397	40.48
571.593	40.26
571.788	40.34
571.983	39.83
572.178	39.78
572.374	39.88
572.569	39.5
572.764	39.58
572.959	39.26
573.154	39.31
573.35	39.15
573.545	39.42
573.74	39.48
573.935	39.59
574.13	40.22
574.325	40.38
574.52	40.82
574.715	41.24
574.91	41.02
575.105	41.8
575.3	41.96
575.495	42.21
575.69	42.24
575.885	42.14
576.08	41.83
576.275	41.88
576.47	41.83
576.665	41.82
576.86	41.19
577.055	41.46
577.25	40.99
577.444	41.25
577.639	40.85
577.834	41.23
578.029	41.79
578.224	41.97
578.418	41.93
578.613	42.17
578.808	42.13
579.003	42.78
579.197	42.79
579.392	42.9
579.587	42.96
579.781	42.97
579.976	42.57
580.171	42.58
580.365	42.78
580.56	42.96
580.755	42.68
580.949	42.4
581.144	42.32
581.338	41.98
581.533	41.78
581.727	41.69
581.922	41.66
582.116	41.94
582.311	42.15
582.505	42.83
582.7	42.04
582.894	42.73
583.089	42.21
583.283	42.49
583.478	43.13
583.672	43.46
583.866	42.9
584.061	43.9
584.255	43.57
584.449	43.24
584.644	42.74
584.838	43.58
585.032	43.62
585.226	44.35
585.421	44.33
585.615	43.92
585.809	43.53
586.003	44.06
586.198	43.67
586.392	43.69
586.586	43.77
586.78	43.86
586.974	43.67
587.168	43.63
587.363	43.75
587.557	43.6
587.751	43.76
587.945	44.39
588.139	44.14
588.333	44.05
588.527	43.83
588.721	44.1
588.915	43.91
589.109	43.54
589.303	43.73
589.497	43.6
589.691	43.64
589.885	43.75
590.079	43.44
590.273	43.71
590.466	43.5
590.66	44.32
590.854	43.97
591.048	44.14
591.242	44.87
591.436	44.67
591.629	44.7
591.823	44.69
592.017	44.78
592.211	44.36
592.404	44.48
592.598	44.68
592.792	44.8
592.986	44.95
593.179	45.15
593.373	44.61
593.567	44.39
593.76	44.45
593.954	44.65
594.147	44.12
594.341	44.25
594.535	43.96
594.728	43.92
594.922	43.42
595.115	43.09
595.309	43.28
595.502	43.6
595.696	44.02
595.889	43.87
596.083	43.5
596.276	43.66
596.47	44.19
596.663	44.07
596.856	44.37
597.05	44.7
597.243	45.01
597.437	45.09
597.63	45.25
597.823	45.27
598.017	45.28
598.21	45.77
598.403	45.98
598.596	45.68
598.79	46.67
598.983	46.72
599.176	46.22
599.369	46.08
599.563	45.65
599.756	45.51
599.949	45.32
600.142	45.02
600.335	45.15
600.528	45.25
600.722	45.15
600.915	44.87
601.108	44.71
601.301	45.03
601.494	45.19
601.687	45.31
601.88	44.85
602.073	44.65
602.266	45.55
602.459	45.22
602.652	45
602.845	45.08
603.038	44.7
603.231	44.85
603.424	44.91
603.617	44.74
603.809	44.52
604.002	44.78
604.195	44.78
604.388	43.97
604.581	44.75
604.774	45.55
604.966	45.74
605.159	45.73
605.352	45.15
605.545	45.25
605.737	45.86
605.93	46.25
606.123	46.3
606.316	46.35
606.508	46.85
606.701	46.1
606.894	45.47
607.086	45.47
607.279	45.78
607.471	46.29
607.664	46.15
607.857	46.08
608.049	46.23
608.242	46.2
608.434	46.52
608.627	46.77
608.819	46.87
609.012	46.86
609.204	46.62
609.397	46.78
609.589	46.8
609.782	46.85
609.974	47.18
610.166	47.37
610.359	47.7
610.551	47.67
610.743	47.69
610.936	48.11
611.128	48.7
611.32	49.1
611.513	49.29
611.705	49.37
611.897	50.38
612.09	50.12
612.282	50.28
612.474	50.7
612.666	51.21
612.858	50.9
613.051	50.74
613.243	50.59
613.435	50.73
613.627	50.55
613.819	51.06
614.011	50.05
614.203	49.82
614.395	49.18
614.588	49.37
614.78	49.56
614.972	50.6
615.164	50.7
615.356	50.95
615.548	50.81
615.74	50.96
615.932	50.7
616.124	51.59
616.315	51.71
616.507	52.74
616.699	52.55
616.891	52.43
617.083	52.06
617.275	51.94
617.467	51.74
617.659	52.09
617.85	52.16
618.042	53.09
618.234	52.04
618.426	52.2
618.618	51.31
618.809	51.24
619.001	50.99
619.193	51.06
619.384	51.39
619.576	51.79
619.768	51.51
619.959	52.07
620.151	51.2
620.343	51.04
620.534	51.57
620.726	52.28
620.917	52.28
621.109	52.01
621.301	52.16
621.492	52.05
621.684	51.66
621.875	51.89
622.067	51.32
622.258	52.02
622.45	52.66
622.641	52.11
622.832	52.15
623.024	51.92
623.215	52.34
623.407	52.13
623.598	52.24
623.789	52.11
623.981	51.7
624.172	52.26
624.363	51.3
624.555	51.34
624.746	51.37
624.937	50.6
625.129	51.03
625.32	50.71
625.511	50.56
625.702	49.98
625.893	50.53
626.085	50.42
626.276	49.97
626.467	50.59
626.658	50.47
626.849	50.73
627.04	51.51
627.231	51.58
627.422	51.79
627.614	51.77
627.805	52.34
627.996	52.16
628.187	52.67
628.378	53.18
628.569	53.16
628.76	53.42
628.951	52.94
629.142	52.85
629.332	53.2
629.523	53.05
629.714	53.22
629.905	53.23
630.096	53.3
630.287	52.93
630.478	52.21
630.669	52.02
630.859	51.89
631.05	52.32
631.241	51.81
631.432	50.62
631.623	51.18
631.813	51.17
632.004	51.07
632.195	50.68
632.385	51.2
632.576	51.29
632.767	51.5
632.957	52.2
633.148	51.99
633.339	52.06
633.529	52.72
633.72	52.59
633.91	52.34
634.101	52.61
634.292	53.09
634.482	53.26
634.673	53.59
634.863	53.51
635.054	52.07
635.244	53.05
635.435	53.7
635.625	53.89
635.815	53.46
636.006	53.69
636.196	53.79
636.387	54.22
636.577	54.7
636.767	55.12
636.958	55.39
637.148	56.99
637.338	56.46
637.529	55.83
637.719	55.47
637.909	55.78
638.099	56.48
638.29	55.9
638.48	55.62
638.67	54.68
638.86	54.3
639.05	54.61
639.241	54.62
639.431	54.85
639.621	55.27
639.811	55.24
640.001	55.59
640.191	55.28
640.381	55.67
640.571	55.39
640.761	56.82
640.951	57.9
641.141	57.8
641.331	57.74
641.521	57.12
641.711	56.85
641.901	58.11
642.091	58.14
642.281	58.06
642.471	58.24
642.661	59.14
642.851	58.6
643.041	57.33
643.231	56.96
643.42	56.34
643.61	56.3
643.8	57.31
643.99	56.07
644.18	55.95
644.369	56.96
644.559	56.3
644.749	56.02
644.939	55.25
645.128	56.16
645.318	56.49
645.508	56.65
645.697	56.67
645.887	56.64
646.076	57.44
646.266	57.9
646.456	56.98
646.645	58.85
646.835	58.93
647.024	58.78
647.214	58.34
647.403	58.03
647.593	58.21
647.782	58.67
647.972	57.83
648.161	57.94
648.351	57.77
648.54	58.3
648.73	57.3
648.919	56.96
649.108	57.17
649.298	56.88
649.487	57.8
649.677	58.37
649.866	58.6
650.055	59.21
650.244	59.02
650.434	58.28
650.623	57.76
650.812	56.79
651.002	56.4
651.191	56.71
651.38	56.85
651.569	56.67
651.758	56.52
651.947	56.09
652.137	55.1
652.326	55.29
652.515	56.05
652.704	56.31
652.893	57.29
653.082	57.49
653.271	57.2
653.46	57.06
653.649	56.61
653.838	56.64
654.027	57.27
654.216	58.34
654.405	58.76
654.594	58.24
654.783	58.21
654.972	58.74
655.161	59
655.35	59.33
655.539	60.17
655.728	60.12
655.916	59.13
656.105	59.02
656.294	58.85
656.483	58.06
656.672	57.94
656.86	57.44
657.049	56.77
657.238	56.75
657.427	56.75
657.615	56.39
657.804	57.02
657.993	57.15
658.181	57.21
658.37	56.91
658.559	56.71
658.747	56.99
658.936	56.99
659.125	57.07
659.313	56.98
659.502	57.26
659.69	57.34
659.879	57.44
660.067	57.81
660.256	57.45
660.444	58.02
660.633	58.19
660.821	58.34
661.01	58.96
661.198	59.43
661.387	59.58
661.575	59.95
661.763	60.26
661.952	58.99
662.14	59.3
662.328	59.65
662.517	59.77
662.705	60.23
662.893	61.29
663.082	61.44
663.27	61.52
663.458	61.68
663.646	61.4
663.834	60.78
664.023	61.93
664.211	61.16
664.399	61.54
664.587	61.62
664.775	61.38
664.963	61.15
665.152	61.56
665.34	62.03
665.528	62.17
665.716	62.74
665.904	64.39
666.092	63.05
666.28	64.73
666.468	63.77
666.656	63.79
666.844	64.1
667.032	62.82
667.22	62.51
667.408	61.88
667.596	62.41
667.784	61.96
667.971	61.43
668.159	62.26
668.347	61.85
668.535	62.37
668.723	62.55
668.911	62.34
669.098	62.69
669.286	62.8
669.474	63.54
669.662	63.28
669.849	62.79
670.037	63.54
670.225	62.93
670.413	62.52
670.6	61.8
670.788	61.17
670.976	62.16
671.163	62.14
671.351	61.95
671.538	61.62
671.726	61.13
671.913	61.31
672.101	60.24
672.289	60.82
672.476	60.65
672.664	61.13
672.851	60.32
673.039	60.28
673.226	61.39
673.413	61.16
673.601	61.15
673.788	61.2
673.976	62.26
674.163	61.86
674.35	61.79
674.538	62.1
674.725	61.83
674.912	62.19
675.1	61.67
675.287	61.13
675.474	60.95
675.662	61.03
675.849	61.05
676.036	60.39
676.223	61.31
676.411	60.54
676.598	59.52
676.785	60.15
676.972	61.25
677.159	61.07
677.346	60.75
677.533	61.8
677.721	60.57
677.908	60.34
678.095	59.58
678.282	58.32
678.469	57.94
678.656	58.94
678.843	58.17
679.03	56.94
679.217	57.17
679.404	56.49
679.591	55.42
679.778	57.01
679.964	57.85
680.151	57.97
680.338	58.31
680.525	59.28
680.712	59.12
680.899	60.56
681.086	61.62
681.272	61.82
681.459	62.72
681.646	62.71
681.833	62.37
682.02	62.28
682.206	64.07
682.393	64.86
682.58	65.18
682.766	68.2
682.953	68.37
683.14	68.76
683.326	68.63
683.513	70.32
683.7	72.04
683.886	71.75
684.073	72.32
684.259	70.78
684.446	71.72
684.632	70.94
684.819	67.08
685.005	66.69
685.192	66.25
685.378	66.81
685.565	64.62
685.751	63.56
685.938	62.67
686.124	62.1
686.31	61.78
686.497	59.97
686.683	61.32
686.87	62.9
687.056	62.56
687.242	61.96
687.429	62.33
687.615	62.58
687.801	64.24
687.987	64.78
688.174	64.16
688.36	64.15
688.546	65.47
688.732	65.42
688.918	64.7
689.105	64.85
689.291	66.42
689.477	66.1
689.663	66.88
689.849	66.04
690.035	66.2
690.221	66.88
690.407	68.25
690.593	68.39
690.779	68
690.965	69.02
691.151	69.33
691.337	69.44
691.523	68.69
691.709	68.66
691.895	68.82
692.081	70.18
692.267	70.4
692.453	69.61
692.639	70.34
692.825	69.69
693.011	67.73
693.196	69.47
693.382	68.34
693.568	69.12
693.754	69.72
693.94	69.17
694.125	68.62
694.311	67.64
694.497	68.65
694.682	67.33
694.868	67.86
695.054	68.96
695.239	67.38
695.425	67.62
695.611	67.33
695.796	65.19
695.982	65.38
696.168	64.15
696.353	65.03
696.539	63.86
696.724	63.36
696.91	62.8
697.095	62.21
697.281	62.11
697.466	62.15
697.652	61.78
697.837	62.01
698.023	61.88
698.208	62.45
698.393	62.32
698.579	62.7
698.764	62.02
698.949	62.55
699.135	63.25
699.32	63.24
699.505	62.84
699.691	63.29
699.876	63.55
700.061	64.25
700.246	64.05
700.432	65.07
700.617	65.29
700.802	65.96
700.987	66.47
701.172	67.63
701.358	67.32
701.543	68.9
701.728	69.62
701.913	70.16
702.098	70.41
702.283	72.78
702.468	72.11
702.653	71.94
702.838	73.69
703.023	73.17
703.208	73.2
703.393	74.35
703.578	72.05
703.763	71.24
703.948	72.01
704.133	70.49
704.318	69.47
704.503	70.27
704.688	70.84
704.873	70.59
705.057	71
705.242	70.25
705.427	70.72
705.612	71.97
705.797	72.34
705.981	72.08
706.166	73.65
706.351	73.9
706.536	73.57
706.72	74.28
706.905	73.64
707.09	75.05
707.274	75.58
707.459	74.94
707.644	76.32
707.828	76.06
708.013	76.75
708.197	75.39
708.382	73.45
708.567	71.4
708.751	70.5
708.936	71.28
709.12	70.61
709.305	68.41
709.489	66.56
709.673	64.89
709.858	63.94
710.042	63.35
710.227	63.79
710.411	65.02
710.596	65.49
710.78	66.46
710.964	66.42
711.149	65.28
711.333	65.16
711.517	66.69
711.702	68.13
711.886	69.49
712.07	71.1
712.254	71.44
712.438	71.12
712.623	71.22
712.807	70.39
712.991	70.81
713.175	70.56
713.359	71.84
713.544	71.68
713.728	72.45
713.912	72.53
714.096	71.08
714.28	70.71
714.464	70.43
714.648	71.41
714.832	71.1
715.016	71.24
715.2	72.8
715.384	72.71
715.568	73.23
715.752	72.08
715.936	72.12
716.12	73.13
716.304	73.28
716.488	73.02
716.671	74.85
716.855	76.42
717.039	76.9
717.223	76.54
717.407	79.54
717.59	79.85
717.774	80.84
717.958	81.88
718.142	81.6
718.325	82.89
718.509	85.13
718.693	83.72
718.877	83.73
719.06	85.3
719.244	86.01
719.428	85.07
719.611	87.17
719.795	85.43
719.978	86.65
720.162	87.21
720.345	85.94
720.529	84.3
720.713	83.04
720.896	84.46
721.08	83.72
721.263	83.01
721.446	80.93
721.63	80.27
721.813	81.27
721.997	80.2
722.18	80.66
722.364	81.6
722.547	83.33
722.73	85.59
722.914	82.09
723.097	80.89
723.28	81.87
723.464	82.99
723.647	82.41
723.83	82.15
724.013	83.86
724.197	84.24
724.38	86.41
724.563	85.31
724.746	84.45
724.929	85.61
725.112	84.74
725.296	82.48
725.479	81.28
725.662	81.35
725.845	80.39
726.028	77.49
726.211	74.34
726.394	74.27
726.577	73.9
726.76	73.59
726.943	72.68
727.126	73.68
727.309	73.78
727.492	73.38
727.675	72.36
727.858	74.42
728.041	74.45
728.224	75.67
728.407	72.97
728.589	72.8
728.772	72.32
728.955	73.29
729.138	74.43
729.321	75.81
729.503	76.58
729.686	76.97
729.869	75.55
730.052	76.18
730.234	76.93
730.417	76.9
730.6	77.63
730.782	77.54
730.965	77.85
731.148	76.12
731.33	76.38
731.513	75.31
731.695	75.09
731.878	76.34
732.061	76.43
732.243	76.65
732.426	77.98
732.608	77.71
732.791	78.13
732.973	77.96
733.156	78.35
733.338	78.87
733.52	79.02
733.703	80.5
733.885	81.35
734.068	80.72
734.25	80.32
734.432	81.37
734.615	81.53
734.797	81.25
734.979	82.26
735.162	82.25
735.344	79.26
735.526	82.18
735.708	80.85
735.891	79.54
736.073	79.42
736.255	80.46
736.437	78.9
736.619	78.72
736.802	79.1
736.984	79.57
737.166	78.68
737.348	80.59
737.53	78.59
737.712	76.57
737.894	76.41
738.076	76.61
738.258	77.33
738.44	75.93
738.622	76.82
738.804	78.55
738.986	76.95
739.168	77
739.35	77.55
739.532	79.96
739.714	83.02
739.896	84.43
740.078	86.79
740.259	85.37
740.441	85.58
740.623	86.82
740.805	86.24
740.987	86.9
741.168	87.55
741.35	88.06
741.532	87.82
741.714	88.3
741.895	86.44
742.077	85.26
742.259	87.11
742.44	91.45
742.622	91.73
742.804	91.82
742.985	92.6
743.167	95.66
743.348	95.93
743.53	96.64
743.711	98.59
743.893	99.11
744.075	99.76
744.256	96.81
744.438	94.2
744.619	92.31
744.8	92.03
744.982	91.74
745.163	89.99
745.345	90.28
745.526	88.93
745.707	86.41
745.889	87.46
746.07	87.28
746.252	89.93
746.433	88.96
746.614	88.13
746.795	90.84
746.977	92.16
747.158	92.71
747.339	92.71
747.52	90.98
747.702	93.41
747.883	94.95
748.064	98.19
748.245	97.59
748.426	99.4
748.607	100.81
748.788	97.3
748.97	97.58
749.151	95.2
749.332	95.4
749.513	95.98
749.694	95.6
749.875	94.77
750.056	90.12
750.237	92.24
750.418	91.05
750.599	93.36
750.78	90.04
750.96	87.86
751.141	90.47
751.322	89.86
751.503	91.27
751.684	89.81
751.865	86.42
752.046	87.5
752.226	83.68
752.407	85.99
752.588	86.56
752.769	87.36
752.949	87.41
753.13	85.05
753.311	82.86
753.492	81.87
753.672	80.83
753.853	84.06
754.034	83.13
754.214	83.87
754.395	80.3
754.575	75.54
754.756	76.38
754.937	77.54
755.117	78.71
755.298	82.19
755.478	83.61
755.659	83.09
755.839	83.02
756.02	84.6
756.2	85.2
756.381	85.33
756.561	88.8
756.741	91.84
756.922	94.08
757.102	90.51
757.283	87.45
757.463	86.75
757.643	87.58
757.823	87.3
758.004	85.95
758.184	84.05
758.364	87.38
758.545	84.5
758.725	85.96
758.905	82.99
759.085	87.18
759.265	90.07
759.446	91.2
759.626	93.88
759.806	93.31
759.986	93.27
760.166	94.98
760.346	94.67
760.526	94.35
760.706	92.01
760.886	91.49
761.066	90.7
761.246	87.95
761.426	86.49
761.606	82.5
761.786	82.45
761.966	80.2
762.146	78.04
762.326	77.38
762.506	77.26
762.686	75.58
762.866	76.57
763.046	74.6
763.225	75.99
763.405	75.35
763.585	75.47
763.765	75.01
763.945	76.41
764.124	77.08
764.304	76.91
764.484	78.58
764.664	79.71
764.843	79.84
765.023	82.18
765.203	80.94
765.382	82.28
765.562	85.21
765.741	86.53
765.921	86.65
766.101	88.73
766.28	90.76
766.46	89.5
766.639	90.66
766.819	92.29
766.998	95.21
767.178	96.76
767.357	97.31
767.537	95.61
767.716	95.73
767.896	96.5
768.075	96.36
768.254	93.19
768.434	95.15
768.613	96.85
768.792	95.04
768.972	92.51
769.151	93.22
769.33	94.28
769.51	96.3
769.689	96.44
769.868	96.78
770.047	98.71
770.226	100.02
770.406	104.32
770.585	104.55
770.764	103.1
770.943	103.38
771.122	104.07
771.301	102.07
771.48	103.04
771.66	104.74
771.839	105.73
772.018	104.4
772.197	108.35
772.376	105.62
772.555	106.06
772.734	110.34
772.913	112.4
773.092	112.69
773.271	112.12
773.449	117.37
773.628	118.39
773.807	121.33
773.986	124.08
774.165	120.35
774.344	122.43
774.523	122.23
774.701	124.44
774.88	124.1
775.059	124.09
775.238	127.97
775.417	122.45
775.595	120.64
775.774	122.5
775.953	119.8
776.131	124.87
776.31	116.97
776.489	112.07
776.667	110.75
776.846	109.88
777.025	111.32
777.203	110.75
777.382	110.51
777.56	111.1
777.739	104.05
777.917	105.91
778.096	102.93
778.274	106.69
778.453	107.81
778.631	105.88
778.81	107.97
778.988	109.64
779.166	113.14
779.345	108.67
779.523	107.4
779.702	112.05
779.88	111.68
780.058	104.98
780.237	103.13
780.415	107.07
780.593	106.46
780.771	102.23
780.95	97.71
781.128	93.47
781.306	101.67
781.484	102.39
781.662	103.6
781.841	102.4
782.019	109.72
782.197	112.11
782.375	111.79
782.553	113.28
782.731	114.21
782.909	116.57
783.087	119.98
783.265	118.2
783.443	116.26
783.621	117.63
783.799	123.44
783.977	122.87
784.155	118.23
784.333	118.62
784.511	116.89
784.689	119.16
784.867	116.45
785.045	113.74
785.223	110.49
785.4	112.02
785.578	114.95
785.756	114.59
785.934	111.62
786.112	116.2
786.289	119.83
786.467	120.16
786.645	120.57
786.823	118.55
787	116.38
787.178	116.86
787.356	114.46
787.533	105.96
787.711	102.27
787.889	99.45
788.066	95.65
788.244	91.88
788.421	94.89
788.599	94.85
788.776	96.68
788.954	97.41
789.131	95.5
789.309	96.74
789.486	101.16
789.664	99.85
789.841	106.57
790.019	108.67
790.196	109.9
790.373	106.31
790.551	105.84
790.728	108.52
790.906	110.05
791.083	113.23
791.26	113.96
791.437	112.76
791.615	118.72
791.792	114.98
791.969	112.7
792.146	113.84
792.324	112.83
792.501	113.13
792.678	114.59
792.855	109.77
793.032	110.83
793.209	111.15
793.387	113.1
793.564	110.59
793.741	113.84
793.918	116.63
794.095	114.3
794.272	115.48
794.449	114.47
794.626	109.21
794.803	117.89
794.98	114.78
795.157	114.26
795.334	110.96
795.511	110.59
795.688	103.69
795.864	105.97
796.041	106.41
796.218	105.3
796.395	107.47
796.572	110.16
796.749	111.74
796.925	111.68
797.102	110.62
797.279	109.45
797.456	109.18
797.632	111.98
797.809	113.67
797.986	111.56
798.162	111.65
798.339	109.81
798.516	112.01
798.692	104.74
798.869	107.46
799.046	106.04
799.222	110.37
799.399	107.91
799.575	105.69
799.752	98.73
799.928	99.68
800.105	100.84
800.281	98.89
800.458	95.08
800.634	95.01
800.811	91.51
800.987	94.42
801.163	92.13
801.34	93.96
801.516	100.05
801.692	102.53
801.869	105.79
802.045	105.6
802.221	104.61
802.398	109.06
802.574	109.95
802.75	111.42
802.926	110.61
803.103	116.75
803.279	119.86
803.455	115.58
803.631	117.23
803.807	117.07
803.983	120.42
804.16	122.79
804.336	119.29
804.512	121.93
804.688	123.29
804.864	123.42
805.04	116.08
805.216	115.1
805.392	114.92
805.568	113.08
805.744	110.72
805.92	108.32
806.096	116.47
806.272	126.79
806.448	126.03
806.623	125.23
806.799	125.52
806.975	128.06
807.151	125.97
807.327	123.29
807.503	122.62
807.678	117.32
807.854	120.71
808.03	115
808.206	104.32
808.381	104.66
808.557	103.97
808.733	100.77
808.908	105.7
809.084	107.35
809.26	112.33
809.435	114.89
809.611	123.15
809.787	117.48
809.962	112.17
810.138	116.79
810.313	114.26
810.489	123.49
810.664	124.92
810.84	122.91
811.015	119.54
811.191	122.11
811.366	125.34
811.542	130.02
811.717	136.99
811.892	148.67
812.068	151.92
812.243	152.68
812.419	142.37
812.594	148.99
812.769	148.83
812.944	154.97
813.12	156.17
813.295	152.02
813.47	146.24
813.645	146.19
813.821	136.01
813.996	132.11
814.171	132.14
814.346	129.12
814.521	128.07
814.697	125.11
814.872	125.79
815.047	124.21
815.222	119.27
815.397	117.45
815.572	111.62
815.747	117.14
815.922	120.09
816.097	118.58
816.272	123.46
816.447	125.89
816.622	126.62
816.797	126.48
816.972	120.63
817.147	115.62
817.322	117.06
817.496	112.74
817.671	112.92
817.846	111.58
818.021	105.47
818.196	106.43
818.371	100.1
818.545	95.81
818.72	94.64
818.895	95.81
819.069	100.92
819.244	96.84
819.419	92.62
819.594	85.27
819.768	77.78
819.943	78.08
820.117	71.72
820.292	69.17
820.467	68.2
820.641	64.23
820.816	61.65
820.99	59.65
821.165	57.02
821.339	56.13
821.514	54.93
821.688	55.66
821.863	54.53
822.037	54.15
822.212	53.72
822.386	52.48
822.56	51.91
822.735	52.65
822.909	52.78
823.084	53.28
823.258	53.91
823.432	55.64
823.606	55.44
823.781	56.04
823.955	57.24
824.129	57.43
824.303	57.64
824.478	58.94
824.652	58.8
824.826	59.28
825	60.47
825.174	60.48
825.348	59.94
825.523	59.6
825.697	59.81
825.871	60.32
826.045	62.39
826.219	63.57
826.393	64.41
826.567	64.49
826.741	64.76
826.915	64.19
827.089	66.21
827.263	66.81
827.437	69.02
827.611	67.99
827.784	68.62
827.958	69.05
828.132	68.72
828.306	68.32
828.48	70.24
828.654	71.46
828.827	73.77
829.001	74.46
829.175	76.41
829.349	75.17
829.522	78.68
829.696	81.09
829.87	81.31
830.044	85.58
830.217	86.61
830.391	90.25
830.565	93.91
830.738	93.62
830.912	94.8
831.085	92.7
831.259	96.67
831.432	94.97
831.606	90.6
831.779	88.48
831.953	88.14
832.126	90.34
832.3	86.49
832.473	82.45
832.647	79.87
832.82	78.91
832.994	77.17
833.167	75.3
833.34	75.08
833.514	73.47
833.687	73.85
833.86	74.31
834.034	71.77
834.207	68.95
834.38	70.63
834.553	71.37
834.727	70.84
834.9	74.08
835.073	76.7
835.246	79.71
835.419	83.06
835.593	84.3
835.766	83.89
835.939	89.4
836.112	95.63
836.285	95.05
836.458	98.76
836.631	107.49
836.804	113.51
836.977	118.78
837.15	119.47
837.323	124.85
837.496	124.62
837.669	134.05
837.842	129.03
838.015	132.91
838.188	139.89
838.361	132.65
838.533	124.57
838.706	124.04
838.879	116.62
839.052	121.13
839.225	117.16
839.398	122.61
839.57	119.93
839.743	121.57
839.916	121.61
840.088	122.56
840.261	137.67
840.434	141.4
840.607	143.21
840.779	152.59
840.952	146.08
841.124	149.81
841.297	145.23
841.47	144.03
841.642	147.07
841.815	143.47
841.987	142.41
842.16	135.01
842.332	129.33
842.505	123.43
842.677	119.37
842.85	130.1
843.022	132.46
843.194	125.17
843.367	132.96
843.539	141.42
843.712	143.29
843.884	157.41
844.056	161.76
844.229	170.52
844.401	191.96
844.573	202.22
844.745	193.78
844.918	222.05
845.09	237.68
845.262	250.6
845.434	262.67
845.606	269.27
845.779	245.45
845.951	216.44
846.123	225.37
846.295	223.31
846.467	261.78
846.639	253.92
846.811	263.95
846.983	274.83
847.155	268.51
847.327	236.42
847.499	246.7
847.671	241.63
847.843	231.12
848.015	225.51
848.187	214.94
848.359	197.92
848.531	211.77
848.703	179.86
848.875	209.68
849.047	208.67
849.218	207.71
849.39	192.58
849.562	220.37
849.734	261.19
849.905	244.11
850.077	266.07
850.249	270.71
850.421	235.32
850.592	248.71
850.764	206.56
850.936	184.13
851.107	173.08
851.279	192.34
851.451	163.78
851.622	163.56
851.794	175.95
851.965	171.77
852.137	168.83
852.308	171.17
852.48	181.72
852.651	177.48
852.823	182.43
852.994	193.41
853.166	188.63
853.337	222.55
853.509	233.52
853.68	221.42
853.851	217.08
854.023	198.45
854.194	187.38
854.365	201.5
854.537	190.84
854.708	204.35
854.879	192.33
855.05	197.65
855.222	164.69
855.393	162.36
855.564	158.57
855.735	179.41
855.906	188.85
856.078	193.66
856.249	158.67
856.42	166.67
856.591	165.47
856.762	169.15
856.933	166.54
857.104	154.45
857.275	151.96
857.446	164.26
857.617	137.92
857.788	142.35
857.959	149.86
858.13	187.77
858.301	192.38
858.472	184.28
858.643	201.86
858.814	209.96
858.985	271.04
859.155	342.23
859.326	327.18
859.497	396.02
859.668	616.57
859.839	546.13
860.009	335.48
860.18	381.12
860.351	351.86
860.522	293.17
860.692	260.11
860.863	210.87
861.034	190.99
861.204	177.04
861.375	151.91
861.546	151.63
861.716	142.53
861.887	168.76
862.057	178.37
862.228	203.09
862.398	191.02
862.569	222.88
862.739	263.73
862.91	237.49
863.08	255.71
863.251	284.68
863.421	287.66
863.592	352.66
863.762	305.95
863.932	259.75
864.103	238.07
864.273	254.84
864.443	212.7
864.614	197.66
864.784	206.13
864.954	227
865.125	247.05
865.295	218.28
865.465	242.7
865.635	261.9
865.805	257.22
865.976	292.23
866.146	243.44
866.316	286.85
866.486	370.79
866.656	355.89
866.826	408.27
866.996	339.94
867.166	463.01
867.336	368.35
867.506	250.14
867.676	236.67
867.846	220.03
868.016	242.5
868.186	227.91
868.356	190.61
868.526	198.63
868.696	164.22
868.866	174.44
869.036	164.07
869.206	153.94
869.376	166.31
869.545	169.4
869.715	170.95
869.885	165.41
870.055	159.42
870.224	158.54
870.394	160.77
870.564	210.04
870.734	189.73
870.903	196.6
871.073	197.71
871.243	211.76
871.412	208.1
871.582	199.69
871.751	187.84
871.921	215.5
872.091	257.58
872.26	205.14
872.43	161.95
872.599	181.93
872.769	191.56
872.938	221.44
873.108	210.77
873.277	201.28
873.446	204.83
873.616	229.53
873.785	218.64
873.955	214.43
874.124	226.4
874.293	237.97
874.463	224.37
874.632	213.34
874.801	202.54
874.971	197.7
875.14	254.38
875.309	238.44
875.478	193.36
875.647	165.72
875.817	159.55
875.986	166.48
876.155	173.25
876.324	167.88
876.493	153.66
876.662	150.47
876.831	152.51
877	130.96
877.17	127.21
877.339	133.75
877.508	151.42
877.677	167.79
877.846	154.86
878.015	145.14
878.184	129.66
878.352	136.92
878.521	133.7
878.69	125.38
878.859	120.71
879.028	115.67
879.197	116.09
879.366	109.48
879.534	98.42
879.703	86.15
879.872	82.9
880.041	85.02
880.21	78.95
880.378	69.84
880.547	70.03
880.716	67.2
880.884	65.44
881.053	60.93
881.222	59.08
881.39	56.5
881.559	56.85
881.727	56.19
881.896	53.85
882.065	53.08
882.233	54.55
882.402	53.4
882.57	56.83
882.739	56.39
882.907	56.34
883.076	56.74
883.244	59.19
883.412	61.25
883.581	63.13
883.749	66.54
883.918	69.36
884.086	70.19
884.254	72.76
884.423	74.17
884.591	79.66
884.759	84.91
884.927	90.32
885.096	92.32
885.264	97.66
885.432	102.06
885.6	104.23
885.769	109.22
885.937	117.4
886.105	127.87
886.273	129.15
886.441	125.13
886.609	131.4
886.777	118.17
886.945	121.04
887.113	126.83
887.281	116.99
887.449	120.74
887.617	115.91
887.785	113.52
887.953	107.24
888.121	116.73
888.289	123.2
888.457	115.68
888.625	130.18
888.793	132.84
888.961	135.77
889.129	149.88
889.296	155.55
889.464	166.17
889.632	183.13
889.8	214.56
889.967	183.92
890.135	182.95
