Data from JASIL_2967_Reflection_2.txt Node
Date: Sat Nov 07 21:33:40 EST 2015
User: Geneva
Spectrometer: USB4E03002
Autoset integration time: false
Trigger mode: 4
Integration Time (sec): 1.000000E-1
Scans to average: 10
Electric dark correction enabled: true
Nonlinearity correction enabled: false
Boxcar width: 5
Stray light correction enabled: false
XAxis mode: Wavelengths
Stop averaging: false
Number of Pixels in Spectrum: 3648
>>>>>Begin Spectral Data<<<<<
177.575	32.82
177.794	95.55
178.014	84.63
178.233	189.31
178.452	48.6
178.672	-30.44
178.891	43.72
179.11	70.72
179.33	84.87
179.549	37.62
179.768	35.38
179.987	12.67
180.207	27.86
180.426	163.37
180.645	115.25
180.864	116.07
181.084	82.22
181.303	93.37
181.522	86.61
181.741	96.34
181.96	107.85
182.179	100.71
182.398	90.49
182.618	85.21
182.837	84.2
183.056	76.62
183.275	102.25
183.494	150.45
183.713	162.18
183.932	262.16
184.151	436.31
184.37	129.32
184.589	82.62
184.808	65.23
185.027	62.73
185.246	61.53
185.465	56.48
185.684	57
185.903	40.25
186.122	24.29
186.341	12.22
186.56	21.59
186.779	21.62
186.998	29.51
187.216	46.9
187.435	55.19
187.654	54.57
187.873	50.05
188.092	54.36
188.311	45.7
188.53	46.18
188.748	59.59
188.967	39.56
189.186	54.5
189.405	53.64
189.623	24.6
189.842	31.3
190.061	27.6
190.28	14.46
190.498	-6.71
190.717	-35.19
190.936	3.38
191.154	-106.93
191.373	766.91
191.592	-182.38
191.81	-354.44
192.029	-98.13
192.248	-206.5
192.466	-90.07
192.685	-21.34
192.904	4.2
193.122	17.67
193.341	10.61
193.559	42.44
193.778	41.66
193.996	62.7
194.215	84.07
194.433	101.5
194.652	101.55
194.87	86.8
195.089	82.51
195.307	100.72
195.526	116.86
195.744	88.01
195.963	78.11
196.181	66.94
196.399	42.89
196.618	32.37
196.836	35.46
197.055	34.28
197.273	32.94
197.491	29.95
197.71	26.2
197.928	-4.97
198.146	6.76
198.365	3.06
198.583	0
198.801	19.15
199.019	16.41
199.238	17.77
199.456	13.45
199.674	23.3
199.892	19.04
200.111	-0.44
200.329	29.01
200.547	-3.25
200.765	-4.16
200.983	-6.45
201.202	11.41
201.42	19.94
201.638	13.77
201.856	7.9
202.074	7.83
202.292	16.57
202.51	23.05
202.728	15.37
202.946	33.56
203.165	33.28
203.383	36.88
203.601	14.35
203.819	14.55
204.037	18.95
204.255	43.99
204.473	41.7
204.691	45.95
204.909	58.38
205.127	59.63
205.345	61.92
205.562	63.47
205.78	57.29
205.998	63.43
206.216	61.61
206.434	54.38
206.652	29.51
206.87	25.92
207.088	16.35
207.306	12.93
207.523	2.42
207.741	-13.23
207.959	-10.04
208.177	0.43
208.395	-10.96
208.612	-22.48
208.83	-1.33
209.048	4.88
209.266	-2.56
209.483	-9.19
209.701	-23.9
209.919	-18.97
210.136	2.06
210.354	30.37
210.572	29.96
210.79	35.76
211.007	41.95
211.225	39.76
211.442	30.13
211.66	32.16
211.878	31.48
212.095	30.05
212.313	34.16
212.53	32.93
212.748	25.07
212.966	22.79
213.183	22.82
213.401	25.8
213.618	28.3
213.836	25.45
214.053	16.69
214.271	21.97
214.488	26.37
214.705	15.11
214.923	19.14
215.14	24.35
215.358	26.5
215.575	27.87
215.793	26.47
216.01	19.97
216.227	24.36
216.445	29.34
216.662	25.8
216.879	23.74
217.097	25.27
217.314	20.05
217.531	17.28
217.749	7.01
217.966	1.5
218.183	0.05
218.4	-0.76
218.618	1.44
218.835	10.93
219.052	11.35
219.269	15.46
219.487	21.79
219.704	20.85
219.921	18.21
220.138	26.03
220.355	25.25
220.572	25.89
220.79	24.74
221.007	27.2
221.224	24.05
221.441	26.22
221.658	25.66
221.875	22.1
222.092	19.27
222.309	21.85
222.526	20.27
222.743	19.39
222.96	17.8
223.177	16.38
223.394	14
223.611	13.72
223.828	10.81
224.045	8.98
224.262	10.63
224.479	11.92
224.696	10.05
224.913	8.61
225.13	11.16
225.347	12.38
225.564	14.11
225.781	12.77
225.997	12.2
226.214	12.37
226.431	12.53
226.648	11.49
226.865	11.53
227.082	11.86
227.298	11.85
227.515	11.23
227.732	9.83
227.949	9.73
228.165	9.58
228.382	9.43
228.599	9.3
228.816	9.82
229.032	9.72
229.249	9.69
229.466	9.24
229.682	9.24
229.899	10.25
230.116	11.06
230.332	12.11
230.549	13.46
230.765	14.56
230.982	15.83
231.199	16.07
231.415	16.45
231.632	16.93
231.848	16.92
232.065	17.16
232.281	16.33
232.498	16.73
232.714	14.76
232.931	12.77
233.147	12.13
233.364	11.73
233.58	10.67
233.797	11.01
234.013	11.1
234.23	11.19
234.446	10.8
234.662	11.11
234.879	11.12
235.095	10.67
235.312	11.52
235.528	10.96
235.744	10.16
235.961	10.13
236.177	10.06
236.393	10.45
236.61	10.28
236.826	10.16
237.042	9.18
237.258	9.54
237.475	11.83
237.691	11.78
237.907	11.91
238.123	11.4
238.339	11.29
238.556	11.09
238.772	11.06
238.988	11.58
239.204	11.56
239.42	11.5
239.636	11.02
239.853	10.71
240.069	10.5
240.285	10.76
240.501	10.9
240.717	10.62
240.933	10.89
241.149	10.42
241.365	10.2
241.581	10.19
241.797	10.05
242.013	9.8
242.229	9.71
242.445	9.76
242.661	9.56
242.877	9.83
243.093	10.12
243.309	9.93
243.525	9.81
243.741	9.62
243.957	9.94
244.173	10.27
244.388	10.11
244.604	9.2
244.82	9.39
245.036	9.07
245.252	8.85
245.468	8.54
245.683	8.37
245.899	8.77
246.115	8.79
246.331	8.6
246.547	8.33
246.762	8.23
246.978	8.49
247.194	8.25
247.409	8.43
247.625	8.11
247.841	8.06
248.057	8.14
248.272	7.61
248.488	7.67
248.703	7.33
248.919	7.54
249.135	7.99
249.35	7.73
249.566	7.77
249.782	7.24
249.997	7.78
250.213	8.02
250.428	7.71
250.644	7.82
250.859	7.35
251.075	7.72
251.29	7.3
251.506	6.86
251.721	6.93
251.937	6.9
252.152	7.25
252.368	7.4
252.583	7.17
252.798	6.93
253.014	7.29
253.229	7.86
253.445	7.45
253.66	7.95
253.875	8.13
254.091	7.38
254.306	7.64
254.521	6.81
254.737	6.12
254.952	6.13
255.167	6.41
255.383	6.11
255.598	5.79
255.813	5.99
256.028	5.64
256.244	6.07
256.459	6.18
256.674	6.11
256.889	6.45
257.104	6.89
257.32	6.89
257.535	6.78
257.75	6.67
257.965	6.71
258.18	6.57
258.395	6.52
258.61	6.34
258.826	6.43
259.041	6.24
259.256	6.21
259.471	5.88
259.686	5.84
259.901	5.82
260.116	5.71
260.331	5.52
260.546	5.55
260.761	5.52
260.976	5.57
261.191	5.32
261.406	5.47
261.621	5.44
261.836	5.65
262.05	5.59
262.265	5.64
262.48	5.82
262.695	5.94
262.91	6.21
263.125	6.09
263.34	6.31
263.555	6.74
263.769	6.55
263.984	6.67
264.199	7.04
264.414	7.12
264.629	6.78
264.843	6.68
265.058	6.33
265.273	6.2
265.488	6.14
265.702	5.84
265.917	6.15
266.132	6.2
266.346	6.05
266.561	5.84
266.776	5.89
266.99	6.3
267.205	6.2
267.42	6.39
267.634	6.22
267.849	6.52
268.063	6.44
268.278	5.96
268.492	6
268.707	5.9
268.922	5.8
269.136	5.76
269.351	5.66
269.565	5.71
269.78	5.44
269.994	5.34
270.209	5.2
270.423	5.52
270.637	5.62
270.852	5.59
271.066	5.57
271.281	5.68
271.495	5.67
271.709	5.6
271.924	5.48
272.138	5.53
272.353	5.85
272.567	5.77
272.781	5.5
272.996	5.57
273.21	5.32
273.424	5.15
273.638	4.89
273.853	4.9
274.067	4.57
274.281	4.92
274.495	4.96
274.71	4.52
274.924	4.47
275.138	4.67
275.352	4.68
275.566	4.81
275.781	5.16
275.995	5.5
276.209	5.4
276.423	5.61
276.637	5.3
276.851	5.3
277.065	5.41
277.279	5.53
277.493	5.42
277.707	5.18
277.921	5.23
278.135	5.41
278.349	5.14
278.563	5.02
278.777	5
278.991	5.16
279.205	5.39
279.419	5.64
279.633	5.61
279.847	5.6
280.061	5.65
280.275	5.66
280.489	5.53
280.703	5.19
280.917	5.14
281.131	5.16
281.344	4.89
281.558	4.72
281.772	4.63
281.986	4.57
282.2	4.54
282.414	4.63
282.627	4.62
282.841	4.51
283.055	4.74
283.269	4.81
283.482	4.69
283.696	4.86
283.91	5.18
284.123	4.88
284.337	4.73
284.551	4.66
284.764	4.64
284.978	4.72
285.192	4.67
285.405	4.82
285.619	5.07
285.833	5.03
286.046	5.05
286.26	4.83
286.473	4.89
286.687	5.11
286.9	5.21
287.114	5.13
287.327	5.21
287.541	5.22
287.754	5.05
287.968	4.6
288.181	4.88
288.395	4.91
288.608	4.75
288.822	4.96
289.035	5.1
289.248	4.9
289.462	5.07
289.675	5
289.889	5.1
290.102	5.33
290.315	5.39
290.529	5.21
290.742	5.16
290.955	5.34
291.169	5.28
291.382	5.1
291.595	5.22
291.808	5.06
292.022	5.16
292.235	5.11
292.448	5
292.661	5.22
292.875	5.35
293.088	5.23
293.301	5.35
293.514	5.33
293.727	5.3
293.94	5.46
294.153	5.59
294.367	5.38
294.58	5.25
294.793	5.17
295.006	5.07
295.219	5.17
295.432	5.37
295.645	5.45
295.858	5.31
296.071	5.36
296.284	5.22
296.497	5.19
296.71	5.37
296.923	5.59
297.136	5.68
297.349	5.77
297.562	5.66
297.775	5.65
297.988	5.51
298.201	5.73
298.414	5.78
298.626	5.91
298.839	6.08
299.052	6.08
299.265	5.92
299.478	5.77
299.691	5.67
299.903	5.64
300.116	5.47
300.329	5.51
300.542	5.4
300.755	5.46
300.967	5.55
301.18	5.41
301.393	5.18
301.605	5.12
301.818	5.16
302.031	5.4
302.243	5.49
302.456	5.7
302.669	5.58
302.881	5.91
303.094	5.83
303.307	6.06
303.519	6.18
303.732	6.39
303.944	6.53
304.157	6.62
304.37	6.58
304.582	6.77
304.795	6.6
305.007	6.7
305.22	6.48
305.432	6.47
305.645	6.05
305.857	6.01
306.069	6.1
306.282	6.15
306.494	6.26
306.707	6.1
306.919	6.07
307.132	6.19
307.344	6.08
307.556	6.2
307.769	6.28
307.981	6.45
308.193	6.4
308.406	6.22
308.618	6.29
308.83	6.19
309.043	6.4
309.255	6.41
309.467	6.47
309.679	6.59
309.892	6.52
310.104	6.37
310.316	6.21
310.528	6.24
310.74	6.52
310.953	6.48
311.165	6.52
311.377	6.35
311.589	6.34
311.801	6.32
312.013	6.43
312.225	6.36
312.437	6.71
312.649	6.97
312.862	7.04
313.074	6.75
313.286	6.79
313.498	6.79
313.71	7.12
313.922	7.11
314.134	7.18
314.346	7.05
314.558	7.1
314.77	6.91
314.982	6.7
315.193	6.6
315.405	6.47
315.617	6.51
315.829	6.43
316.041	6.19
316.253	5.97
316.465	5.97
316.677	6.08
316.888	6.28
317.1	6.39
317.312	6.85
317.524	6.8
317.736	7.03
317.947	7.22
318.159	7.51
318.371	7.54
318.583	7.73
318.794	7.61
319.006	7.72
319.218	7.59
319.43	7.33
319.641	6.99
319.853	7.16
320.064	7.45
320.276	7.47
320.488	7.55
320.699	7.72
320.911	7.97
321.123	8.19
321.334	8.26
321.546	8.27
321.757	8.57
321.969	8.67
322.18	8.71
322.392	8.26
322.603	7.99
322.815	7.81
323.026	7.79
323.238	7.43
323.449	7.37
323.661	7.08
323.872	7.2
324.083	7.09
324.295	6.95
324.506	6.85
324.718	6.75
324.929	7.01
325.14	6.95
325.352	6.91
325.563	7.21
325.774	7.05
325.986	7.15
326.197	6.88
326.408	6.76
326.62	6.89
326.831	7.01
327.042	7.31
327.253	7.1
327.464	7.22
327.676	7.15
327.887	6.98
328.098	6.95
328.309	6.98
328.52	7.07
328.732	7.37
328.943	7.48
329.154	7.66
329.365	7.35
329.576	7.59
329.787	7.38
329.998	7.61
330.209	7.66
330.42	7.74
330.631	7.78
330.842	7.92
331.053	7.82
331.264	7.51
331.475	7.21
331.686	7.45
331.897	7.18
332.108	7.13
332.319	6.95
332.53	6.94
332.741	6.9
332.952	6.78
333.163	6.86
333.374	6.87
333.585	6.89
333.795	6.74
334.006	6.85
334.217	6.89
334.428	7.03
334.639	7.03
334.849	6.92
335.06	7.13
335.271	7.2
335.482	7.06
335.692	7.03
335.903	7.1
336.114	7.22
336.325	7.16
336.535	6.99
336.746	6.81
336.957	6.81
337.167	6.88
337.378	6.66
337.589	6.61
337.799	6.62
338.01	6.69
338.22	6.77
338.431	6.73
338.642	6.45
338.852	6.46
339.063	6.5
339.273	6.4
339.484	6.34
339.694	6.46
339.905	6.43
340.115	6.36
340.326	6.07
340.536	6.04
340.746	6.1
340.957	6.15
341.167	6.27
341.378	6.29
341.588	6.42
341.799	6.28
342.009	6.08
342.219	6.07
342.43	6.09
342.64	6.15
342.85	5.99
343.061	5.94
343.271	5.89
343.481	5.83
343.691	5.91
343.902	5.71
344.112	5.76
344.322	5.87
344.532	5.95
344.743	6.07
344.953	6
345.163	6.13
345.373	6.06
345.583	6.22
345.793	6.17
346.004	6.16
346.214	6.41
346.424	6.55
346.634	6.55
346.844	6.47
347.054	6.37
347.264	6.54
347.474	6.5
347.684	6.43
347.894	6.36
348.104	6.42
348.314	6.38
348.524	6.3
348.734	6.32
348.944	6.28
349.154	6.26
349.364	6.24
349.574	6.08
349.784	6.08
349.994	6.36
350.204	6.28
350.413	6.27
350.623	6.34
350.833	6.08
351.043	6
351.253	6.19
351.463	6.13
351.672	6.02
351.882	6.1
352.092	5.98
352.302	5.72
352.511	5.77
352.721	5.79
352.931	5.72
353.141	5.6
353.35	5.47
353.56	5.25
353.77	5.42
353.979	5.56
354.189	5.5
354.399	5.7
354.608	5.76
354.818	5.79
355.027	5.66
355.237	5.6
355.447	5.91
355.656	5.96
355.866	5.99
356.075	5.76
356.285	5.66
356.494	5.73
356.704	5.64
356.913	5.61
357.123	5.53
357.332	5.51
357.542	5.61
357.751	5.53
357.96	5.55
358.17	5.58
358.379	5.69
358.589	5.62
358.798	5.64
359.007	5.64
359.217	5.57
359.426	5.6
359.635	5.69
359.845	5.58
360.054	5.54
360.263	5.49
360.472	5.41
360.682	5.47
360.891	5.56
361.1	5.46
361.309	5.41
361.519	5.44
361.728	5.44
361.937	5.4
362.146	5.43
362.355	5.45
362.564	5.45
362.774	5.51
362.983	5.33
363.192	5.28
363.401	5.23
363.61	5.26
363.819	5.33
364.028	5.36
364.237	5.31
364.446	5.45
364.655	5.38
364.864	5.45
365.073	5.42
365.282	5.53
365.491	5.56
365.7	5.75
365.909	5.7
366.118	5.77
366.327	5.72
366.536	5.77
366.745	5.57
366.954	5.54
367.162	5.44
367.371	5.26
367.58	5.16
367.789	5.02
367.998	4.93
368.207	5.05
368.415	4.86
368.624	4.85
368.833	4.91
369.042	5.01
369.25	5.14
369.459	5.29
369.668	5.35
369.877	5.29
370.085	5.45
370.294	5.42
370.503	5.29
370.711	5.31
370.92	5.26
371.129	5.19
371.337	5.1
371.546	5
371.754	4.81
371.963	4.89
372.171	4.92
372.38	4.76
372.589	4.78
372.797	4.68
373.006	4.67
373.214	4.69
373.423	4.62
373.631	4.63
373.84	4.62
374.048	4.63
374.256	4.56
374.465	4.48
374.673	4.41
374.882	4.28
375.09	4.32
375.298	4.33
375.507	4.34
375.715	4.39
375.923	4.3
376.132	4.33
376.34	4.3
376.548	4.27
376.757	4.36
376.965	4.46
377.173	4.56
377.381	4.65
377.59	4.54
377.798	4.55
378.006	4.52
378.214	4.58
378.423	4.57
378.631	4.58
378.839	4.54
379.047	4.52
379.255	4.45
379.463	4.29
379.671	4.01
379.879	4.06
380.088	4.02
380.296	4.05
380.504	4.16
380.712	4.18
380.92	4.19
381.128	4.18
381.336	4.19
381.544	4.29
381.752	4.35
381.96	4.44
382.168	4.42
382.376	4.39
382.584	4.3
382.791	4.16
382.999	4.01
383.207	4.01
383.415	3.98
383.623	4.03
383.831	3.88
384.039	3.92
384.247	3.94
384.454	3.98
384.662	4.07
384.87	4.03
385.078	4.06
385.285	4.16
385.493	4.04
385.701	4.09
385.909	3.98
386.116	4.05
386.324	4.04
386.532	4.02
386.739	3.95
386.947	3.83
387.155	3.83
387.362	3.79
387.57	3.87
387.778	3.94
387.985	4.02
388.193	4.06
388.4	4.2
388.608	4.07
388.816	4.13
389.023	4.11
389.231	4.04
389.438	4.04
389.646	3.97
389.853	3.85
390.061	3.78
390.268	3.74
390.475	3.73
390.683	3.61
390.89	3.63
391.098	3.55
391.305	3.53
391.512	3.56
391.72	3.54
391.927	3.51
392.135	3.54
392.342	3.57
392.549	3.57
392.756	3.5
392.964	3.42
393.171	3.44
393.378	3.41
393.586	3.41
393.793	3.47
394	3.38
394.207	3.44
394.414	3.42
394.622	3.46
394.829	3.41
395.036	3.35
395.243	3.38
395.45	3.31
395.657	3.37
395.864	3.36
396.072	3.41
396.279	3.54
396.486	3.47
396.693	3.49
396.9	3.49
397.107	3.46
397.314	3.5
397.521	3.53
397.728	3.61
397.935	3.56
398.142	3.51
398.349	3.41
398.556	3.41
398.763	3.37
398.97	3.31
399.177	3.27
399.383	3.33
399.59	3.36
399.797	3.38
400.004	3.33
400.211	3.33
400.418	3.35
400.625	3.37
400.831	3.29
401.038	3.36
401.245	3.3
401.452	3.29
401.658	3.24
401.865	3.31
402.072	3.19
402.279	3.23
402.485	3.25
402.692	3.26
402.899	3.21
403.105	3.27
403.312	3.23
403.519	3.22
403.725	3.24
403.932	3.23
404.138	3.11
404.345	3.13
404.552	3.14
404.758	3.17
404.965	3.13
405.171	3.1
405.378	3.04
405.584	3.13
405.791	3.13
405.997	3.13
406.204	3.15
406.41	3.12
406.617	3.16
406.823	3.17
407.029	3.12
407.236	3.22
407.442	3.21
407.649	3.37
407.855	3.37
408.061	3.38
408.268	3.32
408.474	3.29
408.68	3.32
408.887	3.2
409.093	3.15
409.299	3.14
409.505	3.06
409.712	3.06
409.918	2.92
410.124	2.83
410.33	2.81
410.537	2.8
410.743	2.75
410.949	2.8
411.155	2.91
411.361	2.9
411.567	2.84
411.773	2.77
411.98	2.86
412.186	2.83
412.392	2.79
412.598	2.87
412.804	2.88
413.01	2.95
413.216	2.89
413.422	2.88
413.628	2.97
413.834	2.98
414.04	3.04
414.246	2.96
414.452	2.95
414.658	2.96
414.864	2.91
415.07	2.91
415.275	2.87
415.481	2.85
415.687	2.79
415.893	2.71
416.099	2.71
416.305	2.73
416.511	2.76
416.716	2.76
416.922	2.76
417.128	2.76
417.334	2.78
417.539	2.8
417.745	2.8
417.951	2.78
418.157	2.78
418.362	2.82
418.568	2.79
418.774	2.78
418.979	2.77
419.185	2.76
419.391	2.73
419.596	2.7
419.802	2.65
420.008	2.64
420.213	3.04
420.419	3.03
420.624	3.03
420.83	3.03
421.035	3.05
421.241	3.05
421.446	3.08
421.652	3.08
421.857	3.05
422.063	3.06
422.268	3.05
422.474	2.68
422.679	2.7
422.885	2.7
423.09	2.7
423.295	2.66
423.501	2.67
423.706	2.66
423.911	2.67
424.117	2.68
424.322	2.69
424.527	2.69
424.733	2.72
424.938	2.67
425.143	2.62
425.349	2.62
425.554	2.6
425.759	2.6
425.964	2.57
426.169	2.56
426.375	2.56
426.58	2.54
426.785	2.55
426.99	2.55
427.195	2.54
427.4	2.58
427.605	2.58
427.811	2.62
428.016	2.63
428.221	2.65
428.426	2.64
428.631	2.59
428.836	2.62
429.041	2.61
429.246	2.65
429.451	2.68
429.656	2.64
429.861	2.63
430.066	2.63
430.271	2.58
430.476	2.54
430.681	2.54
430.886	2.61
431.09	2.67
431.295	2.64
431.5	2.58
431.705	2.56
431.91	2.56
432.115	2.56
432.32	2.54
432.524	2.52
432.729	2.54
432.934	2.57
433.139	2.55
433.343	2.54
433.548	2.57
433.753	2.62
433.958	2.61
434.162	2.6
434.367	2.63
434.572	2.6
434.776	2.62
434.981	2.62
435.186	2.55
435.39	2.55
435.595	2.52
435.799	2.53
436.004	2.48
436.209	2.54
436.413	2.57
436.618	2.51
436.822	2.54
437.027	2.56
437.231	2.52
437.436	2.52
437.64	2.55
437.845	2.51
438.049	2.48
438.253	2.45
438.458	2.38
438.662	2.39
438.867	2.41
439.071	2.42
439.275	2.46
439.48	2.5
439.684	2.52
439.888	2.47
440.093	2.48
440.297	2.48
440.501	2.49
440.706	2.5
440.91	2.52
441.114	2.51
441.318	2.49
441.523	2.43
441.727	2.43
441.931	2.45
442.135	2.43
442.339	2.43
442.543	2.43
442.748	2.43
442.952	2.41
443.156	2.37
443.36	2.4
443.564	2.39
443.768	2.37
443.972	2.34
444.176	2.29
444.38	2.32
444.584	2.29
444.788	2.3
444.992	2.29
445.196	2.31
445.4	2.33
445.604	2.3
445.808	2.3
446.012	2.3
446.216	2.28
446.42	2.26
446.624	2.26
446.828	2.26
447.032	2.26
447.235	2.28
447.439	2.27
447.643	2.25
447.847	2.22
448.051	2.21
448.254	2.24
448.458	2.25
448.662	2.31
448.866	2.29
449.069	2.31
449.273	2.33
449.477	2.31
449.681	2.32
449.884	2.37
450.088	2.35
450.292	2.4
450.495	2.4
450.699	2.45
450.902	2.42
451.106	2.42
451.31	2.41
451.513	2.4
451.717	2.35
451.92	2.3
452.124	2.25
452.327	2.31
452.531	2.24
452.734	2.24
452.938	2.19
453.141	2.2
453.345	2.23
453.548	2.21
453.752	2.19
453.955	2.23
454.158	2.26
454.362	2.28
454.565	2.24
454.769	2.27
454.972	2.23
455.175	2.21
455.379	2.21
455.582	2.13
455.785	2.12
455.988	2.09
456.192	2.06
456.395	2.04
456.598	1.99
456.801	1.99
457.005	2.07
457.208	2.08
457.411	2.09
457.614	2.09
457.817	2.15
458.021	2.12
458.224	2.17
458.427	2.22
458.63	2.26
458.833	2.27
459.036	2.31
459.239	2.24
459.442	2.23
459.645	2.27
459.848	2.3
460.051	2.28
460.254	2.3
460.457	2.24
460.66	2.2
460.863	2.19
461.066	2.21
461.269	2.2
461.472	2.24
461.675	2.26
461.878	2.26
462.081	2.2
462.284	2.25
462.486	2.28
462.689	2.32
462.892	2.38
463.095	2.37
463.298	2.36
463.5	2.33
463.703	2.32
463.906	2.35
464.109	2.31
464.311	2.39
464.514	2.36
464.717	2.39
464.92	2.41
465.122	2.39
465.325	2.45
465.528	2.46
465.73	2.46
465.933	2.42
466.135	2.4
466.338	2.43
466.541	2.39
466.743	2.37
466.946	2.35
467.148	2.36
467.351	2.36
467.553	2.31
467.756	2.34
467.958	2.37
468.161	2.41
468.363	2.37
468.566	2.34
468.768	2.31
468.971	2.31
469.173	2.29
469.375	2.24
469.578	2.33
469.78	2.27
469.983	2.24
470.185	2.25
470.387	2.3
470.59	2.29
470.792	2.28
470.994	2.31
471.196	2.35
471.399	2.34
471.601	2.36
471.803	2.24
472.005	2.33
472.208	2.34
472.41	2.26
472.612	2.25
472.814	2.31
473.016	2.37
473.218	2.37
473.421	2.37
473.623	2.39
473.825	2.39
474.027	2.43
474.229	2.37
474.431	2.35
474.633	2.39
474.835	2.35
475.037	2.33
475.239	2.3
475.441	2.3
475.643	2.28
475.845	2.3
476.047	2.33
476.249	2.32
476.451	2.32
476.653	2.36
476.855	2.35
477.057	2.34
477.258	2.3
477.46	2.3
477.662	2.29
477.864	2.27
478.066	2.25
478.268	2.26
478.469	2.24
478.671	2.22
478.873	2.15
479.075	2.15
479.276	2.17
479.478	2.18
479.68	2.18
479.882	2.21
480.083	2.25
480.285	2.24
480.487	2.2
480.688	2.2
480.89	2.24
481.091	2.25
481.293	2.24
481.495	2.26
481.696	2.26
481.898	2.24
482.099	2.23
482.301	2.23
482.502	2.21
482.704	2.22
482.905	2.23
483.107	2.2
483.308	2.2
483.51	2.2
483.711	2.18
483.913	2.19
484.114	2.19
484.315	2.16
484.517	2.17
484.718	2.19
484.92	2.18
485.121	2.16
485.322	2.18
485.524	2.18
485.725	2.18
485.926	2.2
486.127	2.21
486.329	2.22
486.53	2.25
486.731	2.24
486.932	2.22
487.134	2.21
487.335	2.22
487.536	2.22
487.737	2.23
487.938	2.22
488.139	2.21
488.341	2.2
488.542	2.18
488.743	2.18
488.944	2.16
489.145	2.18
489.346	2.2
489.547	2.23
489.748	2.23
489.949	2.23
490.15	2.25
490.351	2.26
490.552	2.28
490.753	2.28
490.954	2.26
491.155	2.27
491.356	2.24
491.557	2.22
491.758	2.22
491.959	2.21
492.159	2.19
492.36	2.19
492.561	2.19
492.762	2.19
492.963	2.19
493.164	2.21
493.364	2.21
493.565	2.24
493.766	2.29
493.967	2.27
494.167	2.28
494.368	2.33
494.569	2.34
494.769	2.3
494.97	2.27
495.171	2.27
495.371	2.28
495.572	2.34
495.773	2.36
495.973	2.35
496.174	2.37
496.375	2.38
496.575	2.35
496.776	2.35
496.976	2.39
497.177	2.42
497.377	2.43
497.578	2.45
497.778	2.39
497.979	2.4
498.179	2.41
498.38	2.4
498.58	2.44
498.78	2.44
498.981	2.45
499.181	2.48
499.382	2.46
499.582	2.51
499.782	2.53
499.983	2.57
500.183	2.58
500.383	2.56
500.584	2.57
500.784	2.53
500.984	2.58
501.184	2.59
501.385	2.56
501.585	2.58
501.785	2.56
501.985	2.56
502.185	2.58
502.386	2.56
502.586	2.61
502.786	2.67
502.986	2.7
503.186	2.7
503.386	2.71
503.586	2.76
503.786	2.78
503.987	2.83
504.187	2.82
504.387	2.86
504.587	2.87
504.787	2.86
504.987	2.84
505.187	2.85
505.387	2.88
505.587	2.89
505.786	2.91
505.986	2.88
506.186	2.85
506.386	2.89
506.586	2.88
506.786	2.91
506.986	2.91
507.186	2.91
507.386	2.94
507.585	2.98
507.785	2.97
507.985	2.98
508.185	3.03
508.384	3.04
508.584	3.02
508.784	3.05
508.984	3.09
509.183	3.11
509.383	3.15
509.583	3.14
509.782	3.13
509.982	3.17
510.182	3.17
510.381	3.16
510.581	3.19
510.781	3.2
510.98	3.21
511.18	3.2
511.379	3.24
511.579	3.23
511.778	3.25
511.978	3.27
512.177	3.28
512.377	3.33
512.576	3.4
512.776	3.4
512.975	3.42
513.175	3.44
513.374	3.45
513.573	3.48
513.773	3.53
513.972	3.55
514.172	3.57
514.371	3.59
514.57	3.55
514.77	3.61
514.969	3.62
515.168	3.65
515.367	3.67
515.567	3.71
515.766	3.69
515.965	3.72
516.164	3.77
516.364	3.79
516.563	3.81
516.762	3.85
516.961	3.84
517.16	3.88
517.359	3.89
517.559	3.91
517.758	3.92
517.957	3.97
518.156	3.97
518.355	3.95
518.554	3.96
518.753	3.96
518.952	4
519.151	4.02
519.35	4.05
519.549	4.07
519.748	4.08
519.947	4.13
520.146	4.16
520.345	4.17
520.544	4.21
520.743	4.25
520.942	4.27
521.141	4.24
521.339	4.25
521.538	4.24
521.737	4.25
521.936	4.24
522.135	4.22
522.333	4.24
522.532	4.28
522.731	4.29
522.93	4.29
523.129	4.32
523.327	4.36
523.526	4.35
523.725	4.38
523.923	4.42
524.122	4.47
524.321	4.49
524.519	4.49
524.718	4.48
524.917	4.48
525.115	4.49
525.314	4.51
525.512	4.53
525.711	4.58
525.909	4.59
526.108	4.59
526.306	4.58
526.505	4.57
526.703	4.59
526.902	4.62
527.1	4.61
527.299	4.65
527.497	4.66
527.696	4.68
527.894	4.68
528.092	4.67
528.291	4.67
528.489	4.7
528.688	4.72
528.886	4.73
529.084	4.73
529.283	4.76
529.481	4.77
529.679	4.79
529.877	4.79
530.076	4.81
530.274	4.86
530.472	4.9
530.67	4.93
530.869	4.96
531.067	4.97
531.265	5
531.463	5.03
531.661	5.05
531.859	5.06
532.057	5.09
532.255	5.11
532.454	5.09
532.652	5.11
532.85	5.09
533.048	5.11
533.246	5.13
533.444	5.15
533.642	5.17
533.84	5.17
534.038	5.19
534.236	5.22
534.434	5.25
534.632	5.29
534.83	5.3
535.027	5.34
535.225	5.34
535.423	5.36
535.621	5.35
535.819	5.35
536.017	5.37
536.215	5.39
536.412	5.36
536.61	5.35
536.808	5.36
537.006	5.38
537.203	5.42
537.401	5.44
537.599	5.45
537.797	5.48
537.994	5.51
538.192	5.52
538.39	5.55
538.587	5.57
538.785	5.63
538.983	5.66
539.18	5.7
539.378	5.71
539.575	5.74
539.773	5.76
539.97	5.8
540.168	5.81
540.366	5.86
540.563	5.85
540.761	5.88
540.958	5.91
541.155	5.91
541.353	5.94
541.55	5.96
541.748	5.97
541.945	5.98
542.143	5.96
542.34	5.98
542.537	5.99
542.735	6.03
542.932	6.05
543.129	6.05
543.327	6.1
543.524	6.12
543.721	6.16
543.919	6.19
544.116	6.24
544.313	6.3
544.51	6.31
544.708	6.33
544.905	6.34
545.102	6.32
545.299	6.34
545.496	6.34
545.693	6.33
545.891	6.32
546.088	6.33
546.285	6.34
546.482	6.34
546.679	6.38
546.876	6.37
547.073	6.37
547.27	6.44
547.467	6.45
547.664	6.45
547.861	6.5
548.058	6.55
548.255	6.57
548.452	6.58
548.649	6.63
548.846	6.63
549.043	6.61
549.24	6.65
549.437	6.63
549.633	6.65
549.83	6.72
550.027	6.73
550.224	6.76
550.421	6.8
550.618	6.81
550.814	6.81
551.011	6.86
551.208	7.01
551.405	7.02
551.601	7.03
551.798	7.1
551.995	7.05
552.191	7.03
552.388	6.99
552.585	7.01
552.781	7.03
552.978	7.07
553.175	7.01
553.371	6.98
553.568	6.98
553.764	6.98
553.961	7
554.157	7.05
554.354	7.11
554.55	7.21
554.747	7.2
554.943	7.23
555.14	7.22
555.336	7.31
555.533	7.35
555.729	7.37
555.926	7.46
556.122	7.43
556.318	7.45
556.515	7.42
556.711	7.41
556.907	7.42
557.104	7.45
557.3	7.45
557.496	7.48
557.693	7.49
557.889	7.54
558.085	7.55
558.281	7.61
558.478	7.59
558.674	7.69
558.87	7.66
559.066	7.7
559.262	7.68
559.459	7.72
559.655	7.73
559.851	7.71
560.047	7.71
560.243	7.66
560.439	7.63
560.635	7.67
560.831	7.59
561.027	7.62
561.223	7.65
561.419	7.73
561.615	7.69
561.811	7.69
562.007	7.75
562.203	7.76
562.399	7.81
562.595	7.83
562.791	7.8
562.987	7.85
563.183	7.86
563.379	7.87
563.575	7.84
563.771	7.9
563.966	7.87
564.162	7.85
564.358	7.84
564.554	7.83
564.75	7.86
564.945	7.93
565.141	7.96
565.337	7.95
565.533	7.96
565.728	7.99
565.924	7.96
566.12	7.97
566.315	8.02
566.511	8.03
566.707	8.02
566.902	8.03
567.098	8
567.293	8
567.489	8.03
567.684	8.01
567.88	7.95
568.076	8
568.271	8.02
568.467	7.99
568.662	8.04
568.858	8.07
569.053	8.09
569.248	8.13
569.444	8.08
569.639	8.08
569.835	8.1
570.03	8.17
570.225	8.12
570.421	8.19
570.616	8.19
570.812	8.21
571.007	8.22
571.202	8.22
571.397	8.2
571.593	8.23
571.788	8.26
571.983	8.27
572.178	8.22
572.374	8.25
572.569	8.21
572.764	8.21
572.959	8.16
573.154	8.16
573.35	8.16
573.545	8.17
573.74	8.15
573.935	8.13
574.13	8.15
574.325	8.17
574.52	8.16
574.715	8.15
574.91	8.18
575.105	8.22
575.3	8.28
575.495	8.3
575.69	8.37
575.885	8.41
576.08	8.4
576.275	8.39
576.47	8.44
576.665	8.49
576.86	8.53
577.055	8.58
577.25	8.58
577.444	8.53
577.639	8.53
577.834	8.5
578.029	8.49
578.224	8.5
578.418	8.52
578.613	8.46
578.808	8.45
579.003	8.47
579.197	8.41
579.392	8.41
579.587	8.46
579.781	8.46
579.976	8.43
580.171	8.45
580.365	8.52
580.56	8.5
580.755	8.56
580.949	8.58
581.144	8.55
581.338	8.55
581.533	8.52
581.727	8.51
581.922	8.46
582.116	8.54
582.311	8.56
582.505	8.53
582.7	8.55
582.894	8.57
583.089	8.56
583.283	8.55
583.478	8.56
583.672	8.61
583.866	8.55
584.061	8.56
584.255	8.57
584.449	8.54
584.644	8.52
584.838	8.45
585.032	8.39
585.226	8.34
585.421	8.32
585.615	8.24
585.809	8.21
586.003	8.22
586.198	8.3
586.392	8.3
586.586	8.34
586.78	8.4
586.974	8.54
587.168	8.62
587.363	8.62
587.557	8.68
587.751	8.77
587.945	8.81
588.139	8.83
588.333	8.74
588.527	8.73
588.721	8.76
588.915	8.73
589.109	8.67
589.303	8.6
589.497	8.61
589.691	8.6
589.885	8.59
590.079	8.58
590.273	8.58
590.466	8.64
590.66	8.59
590.854	8.57
591.048	8.52
591.242	8.5
591.436	8.55
591.629	8.59
591.823	8.64
592.017	8.67
592.211	8.67
592.404	8.65
592.598	8.64
592.792	8.68
592.986	8.66
593.179	8.72
593.373	8.69
593.567	8.67
593.76	8.63
593.954	8.56
594.147	8.56
594.341	8.54
594.535	8.64
594.728	8.7
594.922	8.69
595.115	8.72
595.309	8.73
595.502	8.78
595.696	8.75
595.889	8.8
596.083	8.82
596.276	8.76
596.47	8.76
596.663	8.71
596.856	8.65
597.05	8.67
597.243	8.62
597.437	8.64
597.63	8.62
597.823	8.67
598.017	8.66
598.21	8.62
598.403	8.69
598.596	8.69
598.79	8.72
598.983	8.71
599.176	8.67
599.369	8.7
599.563	8.65
599.756	8.63
599.949	8.61
600.142	8.61
600.335	8.68
600.528	8.62
600.722	8.63
600.915	8.61
601.108	8.67
601.301	8.71
601.494	8.71
601.687	8.73
601.88	8.75
602.073	8.76
602.266	8.71
602.459	8.71
602.652	8.77
602.845	8.82
603.038	8.88
603.231	8.87
603.424	8.9
603.617	8.88
603.809	8.88
604.002	8.88
604.195	8.87
604.388	8.9
604.581	8.89
604.774	8.86
604.966	8.84
605.159	8.74
605.352	8.75
605.545	8.66
605.737	8.7
605.93	8.69
606.123	8.62
606.316	8.63
606.508	8.67
606.701	8.76
606.894	8.81
607.086	8.73
607.279	8.74
607.471	8.73
607.664	8.77
607.857	8.84
608.049	8.88
608.242	8.98
608.434	9.01
608.627	8.97
608.819	8.91
609.012	8.9
609.204	8.9
609.397	8.95
609.589	8.99
609.782	8.93
609.974	8.92
610.166	8.95
610.359	8.95
610.551	8.9
610.743	8.95
610.936	8.99
611.128	9
611.32	9.04
611.513	9.04
611.705	9.08
611.897	9.12
612.09	9.03
612.282	9.01
612.474	8.95
612.666	9.02
612.858	9
613.051	8.99
613.243	8.94
613.435	8.96
613.627	8.99
613.819	8.93
614.011	8.99
614.203	9.05
614.395	8.92
614.588	8.88
614.78	8.88
614.972	8.85
615.164	8.76
615.356	8.76
615.548	8.68
615.74	8.67
615.932	8.7
616.124	8.64
616.315	8.65
616.507	8.7
616.699	8.77
616.891	8.75
617.083	8.82
617.275	8.93
617.467	8.91
617.659	8.93
617.85	8.9
618.042	8.89
618.234	8.95
618.426	8.88
618.618	8.9
618.809	8.93
619.001	8.88
619.193	8.88
619.384	8.78
619.576	8.8
619.768	8.84
619.959	8.78
620.151	8.78
620.343	8.78
620.534	8.84
620.726	8.8
620.917	8.81
621.109	8.87
621.301	8.79
621.492	8.79
621.684	8.7
621.875	8.74
622.067	8.85
622.258	8.85
622.45	8.81
622.641	8.83
622.832	8.86
623.024	8.91
623.215	8.92
623.407	8.98
623.598	9.05
623.789	9.12
623.981	9.01
624.172	9.07
624.363	9.02
624.555	9.12
624.746	9.1
624.937	9.19
625.129	9.08
625.32	9.09
625.511	9.1
625.702	9.06
625.893	9.08
626.085	9.18
626.276	9.16
626.467	9.14
626.658	9.07
626.849	9.03
627.04	8.97
627.231	8.97
627.422	9.02
627.614	9.09
627.805	9.16
627.996	9.18
628.187	9.16
628.378	9.1
628.569	9.21
628.76	9.19
628.951	9.24
629.142	9.21
629.332	9.27
629.523	9.2
629.714	9.11
629.905	9.11
630.096	9.08
630.287	9.08
630.478	9.18
630.669	9.18
630.859	9.21
631.05	9.24
631.241	9.28
631.432	9.24
631.623	9.28
631.813	9.24
632.004	9.21
632.195	9.2
632.385	9.21
632.576	9.22
632.767	9.15
632.957	9.13
633.148	9.09
633.339	9.07
633.529	9.04
633.72	9
633.91	8.92
634.101	9
634.292	9
634.482	8.86
634.673	8.82
634.863	8.84
635.054	8.85
635.244	8.84
635.435	8.89
635.625	8.97
635.815	8.98
636.006	9.07
636.196	9.02
636.387	8.96
636.577	9.1
636.767	9.02
636.958	9.02
637.148	9
637.338	8.95
637.529	8.99
637.719	8.91
637.909	8.93
638.099	9.05
638.29	9.08
638.48	9.26
638.67	9.23
638.86	9.33
639.05	9.34
639.241	9.44
639.431	9.56
639.621	9.42
639.811	9.5
640.001	9.44
640.191	9.38
640.381	9.31
640.571	9.18
640.761	9.23
640.951	9.14
641.141	9.14
641.331	9
641.521	8.98
641.711	9.06
641.901	9.07
642.091	9.15
642.281	9.1
642.471	9.1
642.661	9.14
642.851	9.17
643.041	9.25
643.231	9.2
643.42	9.23
643.61	9.13
643.8	9.01
643.99	9.06
644.18	9.02
644.369	9.02
644.559	9.08
644.749	9.09
644.939	9.05
645.128	8.95
645.318	8.98
645.508	9.04
645.697	9.14
645.887	9.22
646.076	9.14
646.266	9.2
646.456	9.28
646.645	9.19
646.835	9.19
647.024	9.2
647.214	9.24
647.403	9.33
647.593	9.38
647.782	9.35
647.972	9.28
648.161	9.22
648.351	9.21
648.54	9.19
648.73	9.18
648.919	9.26
649.108	9.31
649.298	9.29
649.487	9.29
649.677	9.18
649.866	9.15
650.055	9.24
650.244	9.25
650.434	9.19
650.623	9.18
650.812	9.25
651.002	9.08
651.191	9.07
651.38	9.15
651.569	9.13
651.758	9.18
651.947	9.17
652.137	9.14
652.326	9.14
652.515	9.12
652.704	9.12
652.893	9.05
653.082	9.14
653.271	9.14
653.46	9.11
653.649	9.1
653.838	9.11
654.027	9.19
654.216	9.23
654.405	9.3
654.594	9.35
654.783	9.36
654.972	9.45
655.161	9.37
655.35	9.39
655.539	9.31
655.728	9.24
655.916	9.16
656.105	9.19
656.294	9.2
656.483	9.13
656.672	9.16
656.86	9.15
657.049	9.17
657.238	9.17
657.427	9.04
657.615	9.15
657.804	9.13
657.993	9.18
658.181	9.13
658.37	9.12
658.559	9.13
658.747	9.11
658.936	9.05
659.125	9
659.313	9.1
659.502	9.1
659.69	9.05
659.879	9.08
660.067	9.09
660.256	9.14
660.444	9.22
660.633	9.24
660.821	9.14
661.01	9.24
661.198	9.32
661.387	9.23
661.575	9.31
661.763	9.26
661.952	9.28
662.14	9.4
662.328	9.31
662.517	9.21
662.705	9.18
662.893	9.21
663.082	9.18
663.27	9.14
663.458	9.16
663.646	9.23
663.834	9.37
664.023	9.38
664.211	9.36
664.399	9.44
664.587	9.47
664.775	9.45
664.963	9.54
665.152	9.49
665.34	9.49
665.528	9.55
665.716	9.54
665.904	9.44
666.092	9.43
666.28	9.33
666.468	9.32
666.656	9.31
666.844	9.44
667.032	9.34
667.22	9.4
667.408	9.39
667.596	9.32
667.784	9.33
667.971	9.28
668.159	9.26
668.347	9.17
668.535	9.12
668.723	9.01
668.911	8.93
669.098	8.97
669.286	8.92
669.474	8.91
669.662	8.93
669.849	9.02
670.037	8.96
670.225	8.93
670.413	9.01
670.6	9.07
670.788	9.09
670.976	9.14
671.163	9.14
671.351	9.14
671.538	9.14
671.726	9.2
671.913	9.04
672.101	9.12
672.289	9.13
672.476	9.23
672.664	9.2
672.851	9.26
673.039	9.17
673.226	9.24
673.413	9.17
673.601	9.22
673.788	9.21
673.976	9.16
674.163	9.18
674.35	9.16
674.538	9.14
674.725	9.11
674.912	9.2
675.1	9.29
675.287	9.22
675.474	9.47
675.662	9.59
675.849	9.5
676.036	9.69
676.223	9.74
676.411	9.77
676.598	9.71
676.785	9.72
676.972	9.7
677.159	9.8
677.346	9.83
677.533	9.7
677.721	9.64
677.908	9.79
678.095	9.68
678.282	9.77
678.469	9.78
678.656	9.82
678.843	9.84
679.03	9.75
679.217	9.64
679.404	9.62
679.591	9.6
679.778	9.45
679.964	9.34
680.151	9.35
680.338	9.32
680.525	9.3
680.712	9.29
680.899	9.26
681.086	9.25
681.272	9.22
681.459	9.34
681.646	9.41
681.833	9.51
682.02	9.57
682.206	9.63
682.393	9.51
682.58	9.49
682.766	9.57
682.953	9.57
683.14	9.64
683.326	9.75
683.513	9.74
683.7	9.67
683.886	9.73
684.073	9.68
684.259	9.62
684.446	9.65
684.632	9.73
684.819	9.57
685.005	9.64
685.192	9.67
685.378	9.66
685.565	9.66
685.751	9.68
685.938	9.61
686.124	9.57
686.31	9.53
686.497	9.54
686.683	9.64
686.87	9.79
687.056	9.68
687.242	9.62
687.429	9.54
687.615	9.38
687.801	9.44
687.987	9.41
688.174	9.48
688.36	9.58
688.546	9.66
688.732	9.56
688.918	9.47
689.105	9.56
689.291	9.5
689.477	9.52
689.663	9.62
689.849	9.59
690.035	9.68
690.221	9.62
690.407	9.54
690.593	9.46
690.779	9.53
690.965	9.67
691.151	9.7
691.337	9.86
691.523	9.91
691.709	9.91
691.895	9.9
692.081	9.8
692.267	9.96
692.453	9.86
692.639	9.87
692.825	9.9
693.011	9.81
693.196	9.74
693.382	9.81
693.568	9.82
693.754	9.73
693.94	9.77
694.125	9.81
694.311	9.76
694.497	9.93
694.682	9.87
694.868	9.84
695.054	9.79
695.239	9.87
695.425	9.77
695.611	9.8
695.796	9.84
695.982	9.88
696.168	9.81
696.353	9.71
696.539	9.7
696.724	9.79
696.91	9.86
697.095	9.94
697.281	9.87
697.466	9.86
697.652	9.78
697.837	9.8
698.023	9.71
698.208	9.81
698.393	9.91
698.579	9.89
698.764	9.88
698.949	9.86
699.135	9.76
699.32	9.82
699.505	9.8
699.691	9.82
699.876	9.85
700.061	9.9
700.246	9.83
700.432	9.73
700.617	9.77
700.802	9.84
700.987	9.79
701.172	9.81
701.358	9.68
701.543	9.76
701.728	9.89
701.913	9.83
702.098	9.87
702.283	9.92
702.468	10.02
702.653	9.84
702.838	9.78
703.023	9.7
703.208	9.82
703.393	9.72
703.578	9.72
703.763	9.67
703.948	9.69
704.133	9.72
704.318	9.57
704.503	9.76
704.688	10.04
704.873	9.96
705.057	9.96
705.242	9.91
705.427	10.11
705.612	10.08
705.797	10.13
705.981	10.25
706.166	10.1
706.351	10.17
706.536	10.02
706.72	9.78
706.905	9.75
707.09	9.77
707.274	9.7
707.459	9.65
707.644	9.72
707.828	9.73
708.013	9.56
708.197	9.57
708.382	9.58
708.567	9.54
708.751	9.61
708.936	9.65
709.12	9.74
709.305	9.88
709.489	9.9
709.673	9.71
709.858	9.55
710.042	9.73
710.227	9.8
710.411	9.74
710.596	9.86
710.78	9.87
710.964	9.88
711.149	9.82
711.333	9.87
711.517	9.92
711.702	10.07
711.886	10.21
712.07	10.07
712.254	10.26
712.438	10.38
712.623	10.28
712.807	10.26
712.991	10.27
713.175	10.34
713.359	10.31
713.544	10.4
713.728	10.4
713.912	10.39
714.096	10.46
714.28	10.26
714.464	10.2
714.648	10.16
714.832	10.15
715.016	10.06
715.2	9.98
715.384	9.99
715.568	9.93
715.752	9.88
715.936	10
716.12	10.01
716.304	10
716.488	10.06
716.671	10.05
716.855	10.08
717.039	10.17
717.223	10.18
717.407	10.07
717.59	9.98
717.774	9.95
717.958	9.85
718.142	9.92
718.325	9.97
718.509	9.93
718.693	9.96
718.877	9.89
719.06	9.88
719.244	9.78
719.428	9.85
719.611	9.84
719.795	9.85
719.978	9.8
720.162	9.61
720.345	9.7
720.529	9.79
720.713	9.83
720.896	10.04
721.08	10.07
721.263	10.1
721.446	10.1
721.63	10.26
721.813	10.12
721.997	10.05
722.18	10.06
722.364	10.12
722.547	10.15
722.73	10.18
722.914	10.21
723.097	10.14
723.28	10.21
723.464	10.16
723.647	10.2
723.83	10.29
724.013	10.34
724.197	10.51
724.38	10.41
724.563	10.12
724.746	10.14
724.929	9.99
725.112	9.92
725.296	9.93
725.479	9.95
725.662	9.87
725.845	10
726.028	9.74
726.211	9.72
726.394	9.73
726.577	9.91
726.76	9.83
726.943	9.92
727.126	10.05
727.309	10.13
727.492	10.09
727.675	9.95
727.858	9.71
728.041	9.92
728.224	9.89
728.407	9.91
728.589	9.84
728.772	9.97
728.955	10.05
729.138	10
729.321	10.04
729.503	10.12
729.686	10.21
729.869	10.32
730.052	10.34
730.234	10.32
730.417	10.27
730.6	10.26
730.782	10.18
730.965	10.06
731.148	10.02
731.33	10.07
731.513	9.92
731.695	9.83
731.878	9.95
732.061	10.1
732.243	9.97
732.426	9.94
732.608	10.04
732.791	9.95
732.973	10.05
733.156	10.27
733.338	10.26
733.52	10.32
733.703	10.38
733.885	10.33
734.068	10.06
734.25	10.18
734.432	10.29
734.615	10.46
734.797	10.47
734.979	10.37
735.162	10.32
735.344	10.38
735.526	10.4
735.708	10.56
735.891	10.67
736.073	11.04
736.255	11.14
736.437	11.14
736.619	10.72
736.802	10.79
736.984	10.79
737.166	10.77
737.348	10.43
737.53	10.32
737.712	10.33
737.894	10.26
738.076	9.94
738.258	9.69
738.44	9.61
738.622	9.86
738.804	9.61
738.986	9.67
739.168	9.71
739.35	10
739.532	10.01
739.714	9.75
739.896	9.73
740.078	9.88
740.259	10.24
740.441	10.31
740.623	10.33
740.805	10.59
740.987	10.72
741.168	10.49
741.35	10.43
741.532	10.45
741.714	10.54
741.895	10.64
742.077	10.59
742.259	10.59
742.44	10.62
742.622	10.6
742.804	10.62
742.985	10.33
743.167	10.35
743.348	10.08
743.53	10.36
743.711	10.29
743.893	10.04
744.075	9.99
744.256	9.65
744.438	9.49
744.619	9.46
744.8	9.27
744.982	9.31
745.163	9.54
745.345	9.68
745.526	9.76
745.707	10.08
745.889	10.08
746.07	10.06
746.252	10.19
746.433	10.26
746.614	10.2
746.795	10.57
746.977	10.83
747.158	10.74
747.339	10.51
747.52	10.18
747.702	10.04
747.883	10.25
748.064	10.12
748.245	10.1
748.426	10.01
748.607	9.97
748.788	9.83
748.97	9.61
749.151	9.86
749.332	10.22
749.513	10.45
749.694	10.51
749.875	10.55
750.056	10.82
750.237	10.77
750.418	10.81
750.599	10.74
750.78	10.86
750.96	10.93
751.141	10.74
751.322	10.89
751.503	10.58
751.684	10.61
751.865	10.63
752.046	10.84
752.226	11.13
752.407	11.15
752.588	11.34
752.769	11.3
752.949	11.26
753.13	11.12
753.311	11.06
753.492	11.14
753.672	11.05
753.853	10.8
754.034	10.61
754.214	10.53
754.395	10.53
754.575	10.63
754.756	10.19
754.937	10.01
755.117	9.84
755.298	9.99
755.478	10.31
755.659	10.5
755.839	10.61
756.02	10.62
756.2	10.25
756.381	10
756.561	9.88
756.741	10.46
756.922	10.49
757.102	10.89
757.283	10.58
757.463	10.44
757.643	10.1
757.823	10.13
758.004	9.98
758.184	10.39
758.364	10.6
758.545	10.72
758.725	10.63
758.905	10.87
759.085	10.73
759.265	10.81
759.446	10.62
759.626	10.96
759.806	10.98
759.986	11.02
760.166	10.85
760.346	10.65
760.526	10.45
760.706	10.35
760.886	10.16
761.066	10.21
761.246	10.26
761.426	10.36
761.606	10.13
761.786	10.13
761.966	10.38
762.146	10.44
762.326	10.55
762.506	10.64
762.686	10.86
762.866	10.84
763.046	10.89
763.225	10.9
763.405	11.02
763.585	11.23
763.765	11.27
763.945	11.15
764.124	11.24
764.304	11.38
764.484	11.39
764.664	11.14
764.843	11.24
765.023	11.23
765.203	11.18
765.382	11.11
765.562	11.09
765.741	11.29
765.921	11.24
766.101	10.99
766.28	11.04
766.46	10.94
766.639	10.92
766.819	10.76
766.998	10.89
767.178	10.89
767.357	10.75
767.537	10.54
767.716	10.49
767.896	10.77
768.075	11.12
768.254	11.14
768.434	11.64
768.613	11.46
768.792	11.66
768.972	11.54
769.151	11.44
769.33	11.72
769.51	11.81
769.689	11.57
769.868	11.39
770.047	11.21
770.226	11.23
770.406	10.9
770.585	11.13
770.764	11.22
770.943	11.38
771.122	11.66
771.301	11.58
771.48	12.08
771.66	12.41
771.839	12.14
772.018	12.17
772.197	12.18
772.376	11.98
772.555	11.91
772.734	11.69
772.913	11.62
773.092	11.5
773.271	11.55
773.449	10.73
773.628	10.82
773.807	10.76
773.986	10.19
774.165	10.29
774.344	10.32
774.523	10.66
774.701	10.57
774.88	10.2
775.059	10.09
775.238	10.07
775.417	10.21
775.595	9.48
775.774	10.15
775.953	10.74
776.131	10.51
776.31	10.72
776.489	10.77
776.667	11.49
776.846	11.6
777.025	11.53
777.203	11.49
777.382	11.75
777.56	11.97
777.739	11.35
777.917	11.31
778.096	11.07
778.274	11.15
778.453	11.25
778.631	10.55
778.81	10.88
778.988	10.58
779.166	10.82
779.345	10.39
779.523	10.3
779.702	10.74
779.88	10.89
780.058	11.22
780.237	10.84
780.415	11.18
780.593	11.6
780.771	11.17
780.95	12.03
781.128	11.86
781.306	12.47
781.484	13.4
781.662	13.01
781.841	12.7
782.019	12.84
782.197	13.49
782.375	13.06
782.553	13.55
782.731	14.18
782.909	13.86
783.087	13.81
783.265	13.45
783.443	13.25
783.621	13.37
783.799	13.5
783.977	13.32
784.155	13.15
784.333	13.12
784.511	12.73
784.689	12.34
784.867	12.76
785.045	12.58
785.223	12.46
785.4	12.04
785.578	12.18
785.756	12.6
785.934	12.13
786.112	11.9
786.289	11.66
786.467	11.24
786.645	10.99
786.823	10.17
787	10.59
787.178	10.9
787.356	10.87
787.533	11.11
787.711	10.79
787.889	11.55
788.066	11.47
788.244	11.18
788.421	11.5
788.599	11.67
788.776	11.98
788.954	12.09
789.131	11.99
789.309	11.67
789.486	11.93
789.664	12.52
789.841	11.73
790.019	11.76
790.196	12.29
790.373	11.91
790.551	12.21
790.728	12.79
790.906	12.77
791.083	12.07
791.26	12.29
791.437	11.34
791.615	10.69
791.792	10.96
791.969	11.05
792.146	10.78
792.324	11.04
792.501	11.12
792.678	10.58
792.855	10.02
793.032	10.63
793.209	11.09
793.387	11.51
793.564	10.97
793.741	10.71
793.918	10.61
794.095	11.03
794.272	11.3
794.449	11.18
794.626	11.59
794.803	11.32
794.98	11.28
795.157	11.26
795.334	11.17
795.511	11.16
795.688	11.46
795.864	11.67
796.041	11.86
796.218	11.27
796.395	11.52
796.572	11.1
796.749	11.36
796.925	11.64
797.102	11.56
797.279	12.25
797.456	12.61
797.632	12.32
797.809	12.34
797.986	12.16
798.162	12.78
798.339	12.63
798.516	12.8
798.692	12.79
798.869	12.79
799.046	12.34
799.222	11.95
799.399	11.65
799.575	12.53
799.752	12.28
799.928	11.83
800.105	11.21
800.281	10.93
800.458	11.22
800.634	11.44
800.811	11.4
800.987	11.61
801.163	11.47
801.34	11.72
801.516	11.38
801.692	11.57
801.869	12.09
802.045	12.61
802.221	12.82
802.398	11.81
802.574	11.93
802.75	11.56
802.926	11.55
803.103	10.22
803.279	10.97
803.455	10.5
803.631	10.66
803.807	9.95
803.983	10.18
804.16	9.78
804.336	10.48
804.512	10.01
804.688	10.75
804.864	11.09
805.04	12.67
805.216	12.25
805.392	12.19
805.568	12.21
805.744	13.3
805.92	13.06
806.096	13.01
806.272	13.05
806.448	13.21
806.623	12.78
806.799	12.5
806.975	12.22
807.151	12.69
807.327	13.07
807.503	13.83
807.678	12.98
807.854	12.7
808.03	13.32
808.206	12.74
808.381	12.92
808.557	12.57
808.733	12.16
808.908	12.63
809.084	11.76
809.26	11.44
809.435	10.7
809.611	10.79
809.787	10.84
809.962	9.96
810.138	10.95
810.313	11.52
810.489	11.85
810.664	12.46
810.84	11.54
811.015	12.34
811.191	12.8
811.366	12.54
811.542	12.39
811.717	12.84
811.892	13.62
812.068	13.33
812.243	13.14
812.419	13.13
812.594	13.33
812.769	13.47
812.944	13.16
813.12	12.49
813.295	13.19
813.47	13.6
813.645	13.25
813.821	13.13
813.996	13.08
814.171	12.65
814.346	12.73
814.521	13
814.697	12.78
814.872	12.89
815.047	13.06
815.222	12.5
815.397	12.39
815.572	12.69
815.747	12.96
815.922	12.61
816.097	12.73
816.272	12.97
816.447	12.53
816.622	13.2
816.797	13.24
816.972	13.52
817.147	13.71
817.322	13.18
817.496	12.62
817.671	12.37
817.846	12.74
818.021	12.14
818.196	12.09
818.371	12.46
818.545	12.84
818.72	12.58
818.895	12.71
819.069	12.55
819.244	13.11
819.419	13.25
819.594	13.37
819.768	13.07
819.943	13.37
820.117	13.12
820.292	12.88
820.467	12.85
820.641	12.79
820.816	12.79
820.99	12.96
821.165	12.78
821.339	12.73
821.514	12.54
821.688	12.52
821.863	12.49
822.037	12.54
822.212	12.45
822.386	12.28
822.56	12.13
822.735	12.06
822.909	11.88
823.084	11.73
823.258	11.59
823.432	11.68
823.606	11.63
823.781	11.62
823.955	11.34
824.129	11.31
824.303	11.22
824.478	11.41
824.652	11.52
824.826	11.51
825	11.88
825.174	11.75
825.348	11.47
825.523	11.6
825.697	11.33
825.871	11.52
826.045	11.71
826.219	11.84
826.393	11.83
826.567	11.68
826.741	11.71
826.915	11.82
827.089	12.16
827.263	12.47
827.437	12.49
827.611	12.75
827.784	12.73
827.958	12.58
828.132	12.67
828.306	12.82
828.48	12.63
828.654	12.77
828.827	12.45
829.001	12.41
829.175	11.96
829.349	11.89
829.522	11.79
829.696	11.94
829.87	11.74
830.044	11.91
830.217	11.81
830.391	12.37
830.565	12.72
830.738	12.46
830.912	11.97
831.085	12.76
831.259	13.32
831.432	12.95
831.606	12.99
831.779	13.06
831.953	12.61
832.126	12.77
832.3	12.45
832.473	12.21
832.647	12.17
832.82	12.58
832.994	12.15
833.167	11.67
833.34	11.77
833.514	11.64
833.687	11.47
833.86	11.37
834.034	11.58
834.207	11.76
834.38	11.33
834.553	11.58
834.727	11.23
834.9	11.38
835.073	11.18
835.246	10.83
835.419	10.93
835.593	11.67
835.766	11.96
835.939	11.36
836.112	11.24
836.285	11.43
836.458	11.66
836.631	12.32
836.804	12.19
836.977	12.71
837.15	13.55
837.323	14.22
837.496	12.72
837.669	12.7
837.842	12.51
838.015	12.9
838.188	12.95
838.361	12.72
838.533	12.8
838.706	12.14
838.879	11.98
839.052	11.8
839.225	11.59
839.398	12.93
839.57	12.64
839.743	12.15
839.916	11.87
840.088	12.83
840.261	13.18
840.434	12.98
840.607	12.89
840.779	13.16
840.952	12.86
841.124	13.31
841.297	13.51
841.47	12.99
841.642	14.02
841.815	13.46
841.987	11.56
842.16	10.33
842.332	9.69
842.505	10.61
842.677	10.49
842.85	10.81
843.022	9.48
843.194	8.84
843.367	10.42
843.539	9.45
843.712	11.41
843.884	13.37
844.056	14.44
844.229	14.91
844.401	15.84
844.573	16.66
844.745	16.73
844.918	16.43
845.09	15.43
845.262	16.01
845.434	16.92
845.606	14.35
845.779	13.86
845.951	14.17
846.123	14.45
846.295	13.95
846.467	12.75
846.639	14.16
846.811	16.08
846.983	17.17
847.155	17
847.327	17.93
847.499	19.35
847.671	20.14
847.843	19.93
848.015	20.23
848.187	19.71
848.359	19.66
848.531	18.64
848.703	17.75
848.875	19.92
849.047	19.8
849.218	18.3
849.39	17.71
849.562	18.81
849.734	17.52
849.905	16.2
850.077	16.99
850.249	17.26
850.421	16.52
850.592	14.97
850.764	11.96
850.936	11.96
851.107	12.07
851.279	13.42
851.451	10.8
851.622	12.68
851.794	13.45
851.965	12.36
852.137	12.01
852.308	10.41
852.48	11
852.651	9.91
852.823	6.95
852.994	7.62
853.166	7.83
853.337	10.69
853.509	9.51
853.68	11.83
853.851	11.29
854.023	11.59
854.194	15.06
854.365	16.03
854.537	20.03
854.708	21.96
854.879	22.38
855.05	22.1
855.222	20.01
855.393	19.17
855.564	17.18
855.735	16.28
855.906	16.06
856.078	12.01
856.249	13.75
856.42	8.8
856.591	8.57
856.762	10.7
856.933	10.27
857.104	9.83
857.275	13.45
857.446	14.58
857.617	16.45
857.788	16.84
857.959	18.21
858.13	17.98
858.301	19.93
858.472	19.98
858.643	16.92
858.814	16.96
858.985	16.88
859.155	15.38
859.326	15.77
859.497	18.72
859.668	17.66
859.839	20.38
860.009	19.91
860.18	16.5
860.351	18.17
860.522	20.01
860.692	20.41
860.863	20.07
861.034	20.75
861.204	19.54
861.375	17.09
861.546	20.21
861.716	18.91
861.887	15.35
862.057	19.98
862.228	19.99
862.398	19.14
862.569	19.29
862.739	21.08
862.91	18.89
863.08	19.15
863.251	15.75
863.421	11.42
863.592	12.11
863.762	14.7
863.932	11.76
864.103	10.42
864.273	9.02
864.443	9.86
864.614	8.62
864.784	8.94
864.954	8.31
865.125	12.8
865.295	14.62
865.465	13.66
865.635	12.74
865.805	14.65
865.976	14.4
866.146	17.89
866.316	17.86
866.486	19.04
866.656	18.39
866.826	17.8
866.996	17.08
867.166	14.02
867.336	13.06
867.506	14.09
867.676	15.55
867.846	15.02
868.016	11.19
868.186	8.18
868.356	7.75
868.526	8.49
868.696	9.79
868.866	9.99
869.036	11.08
869.206	12.67
869.376	13.54
869.545	10.99
869.715	13.95
869.885	13.76
870.055	12.17
870.224	10.74
870.394	10.65
870.564	12.58
870.734	9.99
870.903	12.15
871.073	11.95
871.243	13.03
871.412	13.23
871.582	12.82
871.751	12.84
871.921	15.04
872.091	13.23
872.26	12.12
872.43	12.91
872.599	14.45
872.769	14.93
872.938	15.04
873.108	13.54
873.277	14.16
873.446	17.06
873.616	18.54
873.785	19.84
873.955	22.38
874.124	23.48
874.293	22.07
874.463	20.54
874.632	20.18
874.801	20.91
874.971	22
875.14	23.68
875.309	17.6
875.478	15.42
875.647	16.15
875.817	14.6
875.986	12.11
876.155	11.83
876.324	14.5
876.493	15.58
876.662	14.79
876.831	12.13
877	10.52
877.17	12.93
877.339	16.19
877.508	17.94
877.677	22.61
877.846	23.32
878.015	22.29
878.184	21.27
878.352	20.74
878.521	20.88
878.69	20.57
878.859	21
879.028	20.34
879.197	18.4
879.366	16.06
879.534	14.5
879.703	15.09
879.872	15.44
880.041	15.73
880.21	14.94
880.378	14.44
880.547	14.91
880.716	14.67
880.884	14.06
881.053	13.99
881.222	13.69
881.39	13.68
881.559	13.62
881.727	13.43
881.896	13.16
882.065	13
882.233	13.34
882.402	13.13
882.57	12.65
882.739	13.16
882.907	13.52
883.076	13.89
883.244	13.49
883.412	13.79
883.581	13.64
883.749	13.58
883.918	14.43
884.086	14.83
884.254	15.15
884.423	15.99
884.591	15.91
884.759	15.23
884.927	15.02
885.096	15.05
885.264	14.75
885.432	15
885.6	15.06
885.769	14.59
885.937	12.64
886.105	12.28
886.273	12.08
886.441	12.3
886.609	14.25
886.777	14.44
886.945	14.68
887.113	16.11
887.281	15.37
887.449	17.57
887.617	17.91
887.785	19
887.953	19.08
888.121	17.98
888.289	18.18
888.457	15.65
888.625	15.35
888.793	18.97
888.961	16.25
889.129	14.96
889.296	12.39
889.464	11.22
889.632	10.73
889.8	10.15
889.967	11.65
890.135	10.44
