Data from 2986_Reflection_02.txt Node
Date: Mon Nov 09 09:31:38 EST 2015
User: Geneva
Spectrometer: USB4E03002
Autoset integration time: false
Trigger mode: 4
Integration Time (sec): 1.000000E-1
Scans to average: 10
Electric dark correction enabled: false
Nonlinearity correction enabled: false
Boxcar width: 5
Stray light correction enabled: false
XAxis mode: Wavelengths
Stop averaging: false
Number of Pixels in Spectrum: 3648
>>>>>Begin Spectral Data<<<<<
177.575	-116.59
177.794	-120.36
178.014	-862.82
178.233	-1396.3
178.452	578.21
178.672	2234.09
178.891	629.41
179.11	366.48
179.33	430.67
179.549	420.5
179.768	292.7
179.987	308.59
180.207	377.97
180.426	451.67
180.645	531.54
180.864	-636.11
181.084	3247.37
181.303	-397.54
181.522	-220.77
181.741	-407.14
181.96	-224.57
182.179	-192.61
182.398	-1075.81
182.618	282.42
182.837	389.15
183.056	516.67
183.275	636.67
183.494	598.03
183.713	482.78
183.932	534.1
184.151	514.46
184.37	237.91
184.589	434.6
184.808	399.67
185.027	915.25
185.246	1626.67
185.465	570.22
185.684	539.22
185.903	409.7
186.122	282.39
186.341	432.02
186.56	313.93
186.779	-2040
186.998	575.32
187.216	-6446.67
187.435	1434.15
187.654	792
187.873	-1086.42
188.092	-5675
188.311	-1282.89
188.53	-609.66
188.748	-542.48
188.967	-396.7
189.186	-386.18
189.405	-601.16
189.623	-543.75
189.842	-168.37
190.061	-95.77
190.28	-74.87
190.498	-134.04
190.717	-232.24
190.936	-207.84
191.154	-166.32
191.373	-148.57
191.592	-101.92
191.81	-114.82
192.029	-138.19
192.248	-180.26
192.466	-420.25
192.685	636.42
192.904	752.99
193.122	635.29
193.341	1810
193.559	2042.86
193.778	-688.39
193.996	734.26
194.215	707.78
194.433	513.53
194.652	-1938.46
194.87	-3577.78
195.089	-748.33
195.307	-398.73
195.526	-183.15
195.744	-328.52
195.963	-757.25
196.181	-1121.25
196.399	-242.82
196.618	-305.65
196.836	8491.67
197.055	1291.3
197.273	-1160
197.491	1171.74
197.71	515.69
197.928	211.25
198.146	270.23
198.365	244.55
198.583	223.6
198.801	155.79
199.019	219.38
199.238	284.05
199.456	269.97
199.674	469.36
199.892	405.6
200.111	471.43
200.329	515.9
200.547	752.9
200.765	-8836.36
200.983	1791.8
201.202	-6077.78
201.42	1022.45
201.638	-464.74
201.856	-455.75
202.074	2707.69
202.292	-770.45
202.51	2965.52
202.728	-1848.94
202.946	670.59
203.165	666.39
203.383	411.16
203.601	257.19
203.819	2836
204.037	637.88
204.255	495.52
204.473	1164.71
204.691	2310.81
204.909	-1602.94
205.127	-855.56
205.345	-1890.91
205.562	-2037.14
205.78	-227.76
205.998	-209.54
206.216	-396.12
206.434	-640.82
206.652	-206.58
206.87	-161.38
207.088	-161.52
207.306	-333.97
207.523	-405.03
207.741	-163.02
207.959	-738.46
208.177	-512.39
208.395	-241.42
208.612	-189.32
208.83	-189.49
209.048	-632.56
209.266	-1967.74
209.483	1594.29
209.701	-2866.67
209.919	489.31
210.136	-10516.67
210.354	-508.06
210.572	-1247.37
210.79	340.7
211.007	200.81
211.225	160.06
211.442	285.41
211.66	191.45
211.878	298.57
212.095	-245.83
212.313	-276.62
212.53	-133.59
212.748	-518.97
212.966	1.38
213.183	-197.56
213.401	-177.08
213.618	275
213.836	229.09
214.053	143
214.271	218.99
214.488	-250.54
214.705	-69.54
214.923	-194.25
215.14	727.03
215.358	-183.23
215.575	-1151.28
215.793	-413.48
216.01	904.26
216.227	163.72
216.445	146.94
216.662	131.79
216.879	154.52
217.097	151.02
217.314	168.56
217.531	183.75
217.749	232.33
217.966	303.03
218.183	220.77
218.4	238.85
218.618	316.14
218.835	440.76
219.052	390.19
219.269	253.89
219.487	244.57
219.704	275.06
219.921	312.31
220.138	223.39
220.355	185.17
220.572	156.42
220.79	99.29
221.007	74.29
221.224	68.92
221.441	57.77
221.658	92.04
221.875	110.83
222.092	58.67
222.309	61.52
222.526	114.77
222.743	352.63
222.96	958.06
223.177	-590.63
223.394	-231
223.611	-382.89
223.828	-268.8
224.045	-497.54
224.262	586.11
224.479	-1815.62
224.696	-1075
224.913	-13475
225.13	411.05
225.347	340.95
225.564	270.5
225.781	179.8
225.997	117.79
226.214	91.98
226.431	90.92
226.648	96.66
226.865	88.38
227.082	89.55
227.298	87.45
227.515	78.1
227.732	65.93
227.949	57.16
228.165	56.77
228.382	56.95
228.599	58.59
228.816	52.62
229.032	47.49
229.249	49.15
229.466	32.01
229.682	36.09
229.899	41.85
230.116	38.53
230.332	54.81
230.549	65.28
230.765	52.37
230.982	36.15
231.199	48.8
231.415	54.75
231.632	61.27
231.848	79.8
232.065	55.59
232.281	45.55
232.498	65.79
232.714	67.48
232.931	69.39
233.147	75.13
233.364	76.71
233.58	80.26
233.797	94.36
234.013	98.76
234.23	96.2
234.446	104.59
234.662	113.98
234.879	128.81
235.095	115.1
235.312	98.52
235.528	86.37
235.744	85.9
235.961	70.04
236.177	55.87
236.393	55.98
236.61	57.87
236.826	49.65
237.042	54.02
237.258	52.47
237.475	54.12
237.691	54.04
237.907	55.64
238.123	55.46
238.339	57.3
238.556	58.02
238.772	53.83
238.988	50.86
239.204	54.21
239.42	52.16
239.636	45.43
239.853	40.94
240.069	38.65
240.285	41.04
240.501	38.8
240.717	39.08
240.933	43.19
241.149	38.98
241.365	33.51
241.581	34.83
241.797	32.47
242.013	38.73
242.229	39.52
242.445	39.68
242.661	38.81
242.877	41.97
243.093	46.56
243.309	48.77
243.525	48.77
243.741	50.15
243.957	48.2
244.173	41.06
244.388	32.32
244.604	30.9
244.82	28.96
245.036	27.71
245.252	24.58
245.468	21.13
245.683	20.51
245.899	21.08
246.115	22.44
246.331	21.8
246.547	21.05
246.762	22.09
246.978	20.98
247.194	20.46
247.409	22.56
247.625	25.42
247.841	23.75
248.057	26.55
248.272	32.24
248.488	35.7
248.703	37.41
248.919	47.86
249.135	48.95
249.35	54.9
249.566	51.61
249.782	45.84
249.997	44.04
250.213	41.62
250.428	37.59
250.644	32.89
250.859	27.94
251.075	26.15
251.29	21.31
251.506	23.91
251.721	20.34
251.937	24.58
252.152	23.92
252.368	19.69
252.583	28.1
252.798	27.49
253.014	31.31
253.229	41.39
253.445	49.34
253.66	45.32
253.875	46.59
254.091	51.68
254.306	50.6
254.521	49.52
254.737	53.12
254.952	50.56
255.167	56.21
255.383	49.77
255.598	45.35
255.813	40.07
256.028	44.59
256.244	41.11
256.459	38.46
256.674	35.28
256.889	30.07
257.104	32
257.32	27.76
257.535	20.55
257.75	19.09
257.965	16.98
258.18	15.98
258.395	13.54
258.61	11.38
258.826	11.01
259.041	12.55
259.256	15.48
259.471	14.06
259.686	14.72
259.901	16.69
260.116	18.37
260.331	19.86
260.546	25.84
260.761	28.68
260.976	34.09
261.191	35.76
261.406	28.14
261.621	24.32
261.836	27.49
262.05	26.66
262.265	22.8
262.48	22.32
262.695	26.61
262.91	25.05
263.125	27.18
263.34	23.24
263.555	22.19
263.769	34.61
263.984	33.06
264.199	27.64
264.414	29.9
264.629	36.22
264.843	38.56
265.058	35.9
265.273	31.39
265.488	26.18
265.702	23.5
265.917	20.98
266.132	22.57
266.346	25.83
266.561	26.27
266.776	26.05
266.99	23.22
267.205	22.44
267.42	24.72
267.634	25.13
267.849	24.73
268.063	26.96
268.278	25.95
268.492	21.83
268.707	18.25
268.922	15.13
269.136	18.51
269.351	18.48
269.565	20.06
269.78	17.88
269.994	17.29
270.209	22.27
270.423	23.99
270.637	25.1
270.852	27.07
271.066	29.01
271.281	30.25
271.495	30.07
271.709	28.39
271.924	25.54
272.138	25.94
272.353	26.29
272.567	20.63
272.781	19.33
272.996	20.06
273.21	18.26
273.424	17.23
273.638	16.07
273.853	15.73
274.067	16.62
274.281	18.95
274.495	20.01
274.71	17.74
274.924	22.54
275.138	22.38
275.352	22.58
275.566	20.13
275.781	22.37
275.995	24.33
276.209	22.61
276.423	24.38
276.637	25.68
276.851	24.86
277.065	26.84
277.279	25.94
277.493	25.07
277.707	22.78
277.921	23.9
278.135	24.06
278.349	25.31
278.563	27.09
278.777	25.12
278.991	22.84
279.205	26.85
279.419	28.97
279.633	27.44
279.847	30.27
280.061	30.15
280.275	29.07
280.489	27.59
280.703	25.59
280.917	23.41
281.131	23.55
281.344	18.86
281.558	13.25
281.772	9.54
281.986	10.58
282.2	10.32
282.414	12.44
282.627	12.79
282.841	11.78
283.055	15.27
283.269	16.28
283.482	16.32
283.696	21.9
283.91	22.22
284.123	23.12
284.337	22.28
284.551	22.28
284.764	20.09
284.978	21.79
285.192	24.05
285.405	22.87
285.619	24.14
285.833	25.35
286.046	22.08
286.26	23.62
286.473	24.09
286.687	24.56
286.9	23.84
287.114	25.6
287.327	25.43
287.541	22.17
287.754	21.78
287.968	18.24
288.181	16.66
288.395	17.3
288.608	18.57
288.822	20.39
289.035	20.63
289.248	21.4
289.462	19.97
289.675	20.15
289.889	20.54
290.102	20.37
290.315	19.98
290.529	22.02
290.742	22.76
290.955	23.74
291.169	20.51
291.382	22.02
291.595	17.68
291.808	17
292.022	16.26
292.235	16.45
292.448	16.37
292.661	20.2
292.875	18.94
293.088	18.51
293.301	13.47
293.514	13.14
293.727	12.74
293.94	15.32
294.153	16.06
294.367	14.51
294.58	14.97
294.793	12.77
295.006	10.23
295.219	10.62
295.432	10.17
295.645	11.92
295.858	11.76
296.071	8.24
296.284	11.05
296.497	11.83
296.71	12.56
296.923	14.02
297.136	16.82
297.349	18.74
297.562	18.13
297.775	18.09
297.988	19.22
298.201	19.81
298.414	23.03
298.626	19.6
298.839	21.16
299.052	22.43
299.265	19.46
299.478	17.72
299.691	19.96
299.903	19.44
300.116	22.4
300.329	22.9
300.542	25.63
300.755	26.26
300.967	28.34
301.18	27.02
301.393	25.33
301.605	26.17
301.818	27.57
302.031	23.55
302.243	24.73
302.456	20.12
302.669	18.06
302.881	17.83
303.094	16.44
303.307	14.33
303.519	14.7
303.732	16.77
303.944	17.73
304.157	16.5
304.37	14.96
304.582	12.98
304.795	20.69
305.007	23.49
305.22	21.27
305.432	22.04
305.645	18.84
305.857	21.93
306.069	20.03
306.282	21.26
306.494	21.68
306.707	26.53
306.919	26.59
307.132	25.25
307.344	23.22
307.556	25.24
307.769	25.7
307.981	27.09
308.193	24.68
308.406	24.26
308.618	20.49
308.83	18.61
309.043	19.6
309.255	21.03
309.467	17.9
309.679	16.89
309.892	15.34
310.104	14.42
310.316	16.31
310.528	15.7
310.74	16.1
310.953	18.28
311.165	20.26
311.377	20.2
311.589	19.49
311.801	22.93
312.013	24.59
312.225	28.1
312.437	28.79
312.649	28.61
312.862	28.34
313.074	30.74
313.286	29.07
313.498	27.64
313.71	23.82
313.922	24.43
314.134	22.34
314.346	22.04
314.558	18.58
314.77	15.83
314.982	17.69
315.193	20.83
315.405	21.82
315.617	26.56
315.829	27.68
316.041	29.26
316.253	30.35
316.465	30.31
316.677	33.93
316.888	35.14
317.1	35.41
317.312	32.26
317.524	32.1
317.736	25.44
317.947	24.04
318.159	23.68
318.371	26.11
318.583	25.08
318.794	24.49
319.006	21.16
319.218	18.29
319.43	17.2
319.641	19.52
319.853	16.06
320.064	20.73
320.276	21.87
320.488	20.86
320.699	15.81
320.911	13.05
321.123	14.21
321.334	13.01
321.546	13.16
321.757	19.13
321.969	21.15
322.18	25.17
322.392	26.54
322.603	26.1
322.815	27.55
323.026	27.17
323.238	24.32
323.449	25.04
323.661	24.19
323.872	26.03
324.083	23.53
324.295	23.05
324.506	23.13
324.718	19.82
324.929	21.36
325.14	22.41
325.352	24.35
325.563	27.43
325.774	27.49
325.986	28.95
326.197	28.56
326.408	27.37
326.62	26.73
326.831	23.24
327.042	24.99
327.253	21.29
327.464	17.32
327.676	17.19
327.887	18.39
328.098	13.89
328.309	10.88
328.52	8.13
328.732	9.75
328.943	9.14
329.154	12.85
329.365	11.61
329.576	14.66
329.787	20.38
329.998	23.86
330.209	23.35
330.42	23.46
330.631	23.46
330.842	23.3
331.053	24.19
331.264	25.89
331.475	22.96
331.686	21.86
331.897	23.68
332.108	19.79
332.319	19.47
332.53	20.88
332.741	24.3
332.952	25.72
333.163	30.27
333.374	28.26
333.585	27.22
333.795	28.69
334.006	29.94
334.217	25.29
334.428	27.13
334.639	25.34
334.849	23.19
335.06	21.69
335.271	18.17
335.482	15.36
335.692	17.15
335.903	17.06
336.114	17.2
336.325	17.24
336.535	20.01
336.746	20.35
336.957	20.76
337.167	21.55
337.378	20.72
337.589	23.93
337.799	24.51
338.01	25.85
338.22	25.5
338.431	25.08
338.642	26.82
338.852	26.95
339.063	24.54
339.273	22.68
339.484	21.89
339.694	22.56
339.905	24.46
340.115	23.28
340.326	20.96
340.536	20.41
340.746	18.48
340.957	19.33
341.167	16.16
341.378	16.39
341.588	15.6
341.799	15.95
342.009	14.6
342.219	12.65
342.43	13.64
342.64	13.81
342.85	16.76
343.061	17.63
343.271	16.53
343.481	18.73
343.691	18.97
343.902	19.26
344.112	20.53
344.322	22.99
344.532	24.29
344.743	22.9
344.953	24.43
345.163	22.03
345.373	23.41
345.583	24.36
345.793	23.75
346.004	23.91
346.214	24.38
346.424	23.38
346.634	22.29
346.844	21.19
347.054	20.68
347.264	20.06
347.474	20.29
347.684	20.71
347.894	17.81
348.104	17.31
348.314	19.62
348.524	19.83
348.734	19.76
348.944	19.81
349.154	19.89
349.364	20.54
349.574	18.49
349.784	18.76
349.994	18.59
350.204	20.73
350.413	22.49
350.623	21.45
350.833	21.68
351.043	22.03
351.253	22.9
351.463	23.33
351.672	26.61
351.882	28.77
352.092	28
352.302	25.86
352.511	23.64
352.721	21.95
352.931	20.24
353.141	18.21
353.35	17.22
353.56	17.28
353.77	14.05
353.979	12.38
354.189	10.47
354.399	9.99
354.608	9.33
354.818	9.56
355.027	8.06
355.237	8.21
355.447	9.65
355.656	8.87
355.866	6.4
356.075	9.95
356.285	8.55
356.494	9.49
356.704	11.41
356.913	14.07
357.123	16
357.332	18.42
357.542	19.38
357.751	20.19
357.96	20.71
358.17	21.5
358.379	20.5
358.589	20.35
358.798	19.75
359.007	18.1
359.217	17.87
359.426	16.06
359.635	15.39
359.845	13.71
360.054	12.18
360.263	11.62
360.472	12.16
360.682	11.23
360.891	11.46
361.1	11.74
361.309	11.66
361.519	10.68
361.728	11.86
361.937	11.21
362.146	13.2
362.355	12.66
362.564	13.21
362.774	11.74
362.983	11.86
363.192	10.76
363.401	10.6
363.61	12.03
363.819	12.55
364.028	12.29
364.237	10.48
364.446	9.29
364.655	9.77
364.864	10.61
365.073	12.81
365.282	13.86
365.491	14.71
365.7	15.41
365.909	14.48
366.118	14.7
366.327	14.77
366.536	17.43
366.745	18.1
366.954	18.22
367.162	16.99
367.371	16.88
367.58	17.17
367.789	17.01
367.998	16.52
368.207	16.53
368.415	16.91
368.624	15.91
368.833	14.6
369.042	14.16
369.25	15.42
369.459	15.53
369.668	16
369.877	14.21
370.085	15.15
370.294	14.44
370.503	14.35
370.711	14.48
370.92	13.88
371.129	14.86
371.337	14.58
371.546	14.66
371.754	15.23
371.963	14.45
372.171	15.74
372.38	16.51
372.589	16.62
372.797	17.85
373.006	16.58
373.214	17.1
373.423	17.55
373.631	17.21
373.84	17.78
374.048	15.03
374.256	14.51
374.465	15.6
374.673	13.67
374.882	13.3
375.09	13.55
375.298	14.05
375.507	15.21
375.715	13.78
375.923	13.7
376.132	11.46
376.34	13.43
376.548	13.77
376.757	12.25
376.965	12.44
377.173	13.72
377.381	12.15
377.59	11.94
377.798	12.56
378.006	13.36
378.214	14.46
378.423	15.53
378.631	15.7
378.839	14.76
379.047	13.55
379.255	13.34
379.463	13.9
379.671	13.86
379.879	14.61
380.088	12.38
380.296	12.29
380.504	11.14
380.712	11.22
380.92	10.86
381.128	12.21
381.336	14.43
381.544	14.95
381.752	14.04
381.96	12.46
382.168	11.67
382.376	12.73
382.584	13.11
382.791	13.06
382.999	13.29
383.207	13.76
383.415	12.87
383.623	13.41
383.831	12.56
384.039	13.42
384.247	14.13
384.454	13.51
384.662	12.73
384.87	12.16
385.078	12.84
385.285	12.64
385.493	13.6
385.701	13.01
385.909	11.78
386.116	12.92
386.324	11.89
386.532	12.69
386.739	12.96
386.947	13.18
387.155	13
387.362	12.97
387.57	12.91
387.778	12.34
387.985	13.84
388.193	12.66
388.4	12.79
388.608	12.02
388.816	11.91
389.023	12.69
389.231	12.67
389.438	12.2
389.646	11.81
389.853	12.23
390.061	11.81
390.268	10.41
390.475	12.18
390.683	12.12
390.89	13.29
391.098	13.48
391.305	13.52
391.512	13.14
391.72	13.45
391.927	12.29
392.135	10.36
392.342	10.09
392.549	10.59
392.756	10.46
392.964	9.42
393.171	8.2
393.378	7.87
393.586	6.07
393.793	7.24
394	7.74
394.207	8.77
394.414	9.83
394.622	10.83
394.829	11.35
395.036	11.06
395.243	11.01
395.45	12.06
395.657	12.08
395.864	13.31
396.072	12.08
396.279	11.86
396.486	12.09
396.693	11.6
396.9	11.2
397.107	11.74
397.314	11.85
397.521	12.58
397.728	12.29
397.935	12.93
398.142	12.6
398.349	12.74
398.556	12.51
398.763	12.29
398.97	13.17
399.177	12.96
399.383	12.22
399.59	11.39
399.797	11.7
400.004	11.05
400.211	10.55
400.418	10.95
400.625	10.28
400.831	9.83
401.038	10.02
401.245	9.05
401.452	8.89
401.658	7.58
401.865	7.32
402.072	6.29
402.279	6.95
402.485	7.4
402.692	6.76
402.899	7.6
403.105	7.98
403.312	8.39
403.519	9.63
403.725	9.72
403.932	10.21
404.138	10.56
404.345	11.42
404.552	10.74
404.758	11
404.965	12.18
405.171	11.66
405.378	12.42
405.584	11.61
405.791	11.19
405.997	11.28
406.204	11.42
406.41	11.68
406.617	11.5
406.823	11.24
407.029	10.51
407.236	10
407.442	10.1
407.649	10.18
407.855	10.9
408.061	10.7
408.268	9.7
408.474	9.41
408.68	9.23
408.887	8.36
409.093	10.09
409.299	10.99
409.505	10.82
409.712	10.43
409.918	10.52
410.124	9.64
410.33	10.1
410.537	10.36
410.743	10.4
410.949	11.39
411.155	12.03
411.361	10.32
411.567	9.61
411.773	9.95
411.98	10.44
412.186	9.43
412.392	10.92
412.598	11.28
412.804	11.36
413.01	11.93
413.216	11.79
413.422	12.01
413.628	13.15
413.834	13.52
414.04	12.41
414.246	12.4
414.452	12.56
414.658	10.8
414.864	10.28
415.07	9.75
415.275	8.81
415.481	8.07
415.687	8.43
415.893	8.09
416.099	6.56
416.305	6.31
416.511	6.09
416.716	5.2
416.922	5.99
417.128	5.37
417.334	6.45
417.539	7.01
417.745	6.38
417.951	6.06
418.157	5.75
418.362	6.45
418.568	6.82
418.774	6.43
418.979	7.15
419.185	6.87
419.391	6.91
419.596	6.1
419.802	5.62
420.008	6.08
420.213	10.22
420.419	10.22
420.624	10.22
420.83	10.57
421.035	10.86
421.241	10.87
421.446	10.83
421.652	10.98
421.857	11.27
422.063	11.33
422.268	10.79
422.474	6.93
422.679	6.41
422.885	6.86
423.09	6.41
423.295	5.92
423.501	5.82
423.706	5.63
423.911	5.38
424.117	5.16
424.322	5.23
424.527	5.67
424.733	5.12
424.938	5.15
425.143	4.59
425.349	5.12
425.554	6.34
425.759	6.6
425.964	7.2
426.169	7.23
426.375	7.58
426.58	7.81
426.785	7.94
426.99	7.55
427.195	8.03
427.4	8.07
427.605	7.68
427.811	6.64
428.016	6.53
428.221	6.9
428.426	7.96
428.631	7.41
428.836	6.65
429.041	6.74
429.246	7.4
429.451	8.04
429.656	8.11
429.861	8.06
430.066	8.14
430.271	7.91
430.476	7.28
430.681	6.46
430.886	7.16
431.09	7.53
431.295	7.27
431.5	7.77
431.705	7.55
431.91	7.37
432.115	7.38
432.32	7.69
432.524	7
432.729	7.1
432.934	7.06
433.139	6.39
433.343	6.96
433.548	6.78
433.753	6.65
433.958	6.84
434.162	7.4
434.367	7.66
434.572	7.74
434.776	7.94
434.981	7.69
435.186	8.13
435.39	8.37
435.595	8
435.799	8.51
436.004	7.95
436.209	7.49
436.413	7
436.618	7.08
436.822	7.39
437.027	7.63
437.231	7.62
437.436	7.94
437.64	7.68
437.845	7.72
438.049	7.55
438.253	8.17
438.458	8.15
438.662	8.12
438.867	8.01
439.071	7.49
439.275	7.08
439.48	7.27
439.684	6.4
439.888	6.92
440.093	7.34
440.297	7.07
440.501	6.67
440.706	6.77
440.91	6.48
441.114	6.41
441.318	6.23
441.523	7.39
441.727	7.32
441.931	8.33
442.135	8.5
442.339	7.89
442.543	8.31
442.748	8.36
442.952	7.98
443.156	8.22
443.36	7.67
443.564	8.06
443.768	7.5
443.972	7.48
444.176	6.77
444.38	6.59
444.584	7.06
444.788	6.87
444.992	6.55
445.196	5.83
445.4	5.67
445.604	5.7
445.808	5.78
446.012	5.62
446.216	5.29
446.42	5.48
446.624	5.3
446.828	4.73
447.032	4.62
447.235	4.94
447.439	5.6
447.643	5.97
447.847	6.55
448.051	6.17
448.254	6.26
448.458	6.27
448.662	5.78
448.866	5.86
449.069	5.65
449.273	6.44
449.477	6.23
449.681	6.45
449.884	6.29
450.088	6.08
450.292	6.98
450.495	7.3
450.699	7.32
450.902	7.7
451.106	7.7
451.31	7.52
451.513	7.59
451.717	7.97
451.92	8.85
452.124	8.69
452.327	8.74
452.531	8.51
452.734	8.6
452.938	8.61
453.141	8.66
453.345	8.78
453.548	9.71
453.752	9.54
453.955	8.85
454.158	8.6
454.362	8.88
454.565	8.71
454.769	8.3
454.972	7.66
455.175	7.86
455.379	7.67
455.582	7.75
455.785	7.17
455.988	6.4
456.192	6.57
456.395	6.31
456.598	6.03
456.801	5.98
457.005	5.36
457.208	6.02
457.411	6.47
457.614	6.34
457.817	6.24
458.021	6.1
458.224	5.97
458.427	6.09
458.63	6.08
458.833	6.08
459.036	6.07
459.239	6.71
459.442	6.18
459.645	5.94
459.848	6.11
460.051	5.9
460.254	5.88
460.457	5.67
460.66	5.67
460.863	5.32
461.066	5.58
461.269	5.59
461.472	5.4
461.675	5.53
461.878	5.49
462.081	5.38
462.284	5.98
462.486	6.66
462.689	6.62
462.892	6.2
463.095	6.22
463.298	5.82
463.5	6.16
463.703	6.22
463.906	6.82
464.109	6.55
464.311	6.72
464.514	6.16
464.717	6.29
464.92	7.03
465.122	7.92
465.325	8.5
465.528	8.53
465.73	7.81
465.933	7.29
466.135	7.41
466.338	7.58
466.541	7.29
466.743	7.52
466.946	7.36
467.148	7.67
467.351	6.52
467.553	6.61
467.756	6.84
467.958	6.77
468.161	7.11
468.363	6.41
468.566	6.96
468.768	7.72
468.971	7.55
469.173	7.76
469.375	6.91
469.578	6.92
469.78	5.98
469.983	5.67
470.185	6.41
470.387	6.26
470.59	6.04
470.792	5.19
470.994	4.54
471.196	4.51
471.399	4.33
471.601	5.18
471.803	5.91
472.005	6.12
472.208	6.24
472.41	5.82
472.612	6.44
472.814	7.27
473.016	7.51
473.218	7.53
473.421	7.95
473.623	7.75
473.825	7.5
474.027	6.93
474.229	7.32
474.431	7.12
474.633	7.41
474.835	7.12
475.037	6.81
475.239	6.76
475.441	7.19
475.643	7.12
475.845	6.81
476.047	6.66
476.249	6.97
476.451	7.09
476.653	7.54
476.855	8.02
477.057	7.63
477.258	7.47
477.46	7.78
477.662	7.64
477.864	7.61
478.066	7.91
478.268	7.72
478.469	7.29
478.671	6.93
478.873	7.18
479.075	6.49
479.276	6.54
479.478	6.01
479.68	5.98
479.882	6.07
480.083	5.62
480.285	5.42
480.487	5.08
480.688	5.35
480.89	5.25
481.091	4.75
481.293	4.46
481.495	4.24
481.696	4.42
481.898	4.24
482.099	3.92
482.301	3.85
482.502	3.8
482.704	3.87
482.905	3.84
483.107	3.88
483.308	3.75
483.51	3.86
483.711	3.9
483.913	4
484.114	4.07
484.315	4.19
484.517	4.38
484.718	4.56
484.92	4.78
485.121	4.73
485.322	4.71
485.524	4.87
485.725	4.9
485.926	4.91
486.127	4.7
486.329	4.52
486.53	4.73
486.731	4.66
486.932	4.5
487.134	4.42
487.335	4.46
487.536	4.49
487.737	4.55
487.938	4.55
488.139	4.47
488.341	4.51
488.542	4.47
488.743	4.48
488.944	4.34
489.145	4.38
489.346	4.04
489.547	4.07
489.748	3.7
489.949	3.46
490.15	3.29
490.351	3.42
490.552	3.71
490.753	3.81
490.954	3.65
491.155	3.8
491.356	3.93
491.557	4.16
491.758	4.33
491.959	4.69
492.159	5.08
492.36	5.34
492.561	5.54
492.762	5.25
492.963	5.67
493.164	5.89
493.364	5.54
493.565	5.37
493.766	5.52
493.967	5.46
494.167	5.01
494.368	4.95
494.569	5.28
494.769	5.59
494.97	5.76
495.171	5.63
495.371	5.12
495.572	5.46
495.773	5.46
495.973	5.27
496.174	4.97
496.375	5.29
496.575	5.09
496.776	5.2
496.976	5.02
497.177	5.01
497.377	5.25
497.578	5.32
497.778	5.39
497.979	5.64
498.179	6.02
498.38	6.23
498.58	6.16
498.78	6.26
498.981	5.92
499.181	5.56
499.382	5.99
499.582	5.57
499.782	5.95
499.983	6.26
500.183	6.26
500.383	6.66
500.584	6.82
500.784	7.27
500.984	7.37
501.184	7.33
501.385	7.38
501.585	6.5
501.785	6.98
501.985	7.46
502.185	7.05
502.386	7.24
502.586	6.39
502.786	5.93
502.986	6.04
503.186	5.9
503.386	5.88
503.586	6.34
503.786	6.65
503.987	6.21
504.187	5.73
504.387	5.78
504.587	5.44
504.787	5.98
504.987	6.69
505.187	6.14
505.387	6.38
505.587	6.59
505.786	6.52
505.986	6.55
506.186	6.79
506.386	7.15
506.586	7.42
506.786	7.53
506.986	6.95
507.186	6.6
507.386	6.53
507.585	6.53
507.785	6.14
507.985	5.92
508.185	5.97
508.384	5.57
508.584	4.99
508.784	4.79
508.984	4.59
509.183	5.16
509.383	5.45
509.583	5.71
509.782	5.46
509.982	6.03
510.182	6.07
510.381	6.06
510.581	5.73
510.781	5.83
510.98	5.82
511.18	5.67
511.379	5.65
511.579	5.13
511.778	5.27
511.978	5.39
512.177	5.07
512.377	5.28
512.576	5.93
512.776	6.39
512.975	6.82
513.175	7.08
513.374	7.56
513.573	7.49
513.773	7.98
513.972	7.43
514.172	7.78
514.371	8.13
514.57	7.81
514.77	7
514.969	7.32
515.168	6.85
515.367	6.62
515.567	6.24
515.766	6.01
515.965	5.58
516.164	6.01
516.364	5.61
516.563	5.38
516.762	5.46
516.961	5.69
517.16	5.45
517.359	5.29
517.559	5.38
517.758	5.62
517.957	6.05
518.156	6.47
518.355	6.67
518.554	6.85
518.753	7.02
518.952	7.2
519.151	7.1
519.35	7.26
519.549	7.48
519.748	7.56
519.947	7.4
520.146	6.92
520.345	6.4
520.544	6.17
520.743	5.94
520.942	5.76
521.141	5.85
521.339	5.7
521.538	5.44
521.737	5.45
521.936	5.71
522.135	5.6
522.333	6.14
522.532	6.37
522.731	6.52
522.93	6.72
523.129	6.78
523.327	6.31
523.526	6.54
523.725	6.54
523.923	6.61
524.122	6.18
524.321	6.18
524.519	5.67
524.718	5.8
524.917	5.91
525.115	6.11
525.314	6.23
525.512	6.35
525.711	6.26
525.909	6.41
526.108	6.19
526.306	6.16
526.505	6.27
526.703	6.48
526.902	6.52
527.1	6.45
527.299	6.28
527.497	6.01
527.696	5.94
527.894	6
528.092	6.12
528.291	6.19
528.489	6.56
528.688	6.64
528.886	6.55
529.084	6.69
529.283	6.68
529.481	6.83
529.679	7.31
529.877	7.36
530.076	7.47
530.274	7.63
530.472	7.66
530.67	7.46
530.869	7.44
531.067	7.61
531.265	7.57
531.463	7.78
531.661	7.54
531.859	7.29
532.057	7.54
532.255	7.36
532.454	7.29
532.652	7.56
532.85	7.53
533.048	7.82
533.246	7.91
533.444	7.67
533.642	7.75
533.84	7.97
534.038	8.43
534.236	8.07
534.434	8.18
534.632	8.02
534.83	7.99
535.027	8.08
535.225	7.7
535.423	7.52
535.621	7.71
535.819	7.32
536.017	7.54
536.215	7.3
536.412	7.54
536.61	7.79
536.808	7.66
537.006	7.71
537.203	7.37
537.401	8
537.599	7.97
537.797	8.23
537.994	8.6
538.192	8.83
538.39	8.52
538.587	8.68
538.785	8.83
538.983	8.86
539.18	8.56
539.378	8.44
539.575	8.16
539.773	8.23
539.97	7.95
540.168	7.74
540.366	7.58
540.563	7.89
540.761	7.72
540.958	7.43
541.155	7.53
541.353	7.49
541.55	7.93
541.748	7.72
541.945	7.7
542.143	8.2
542.34	8.4
542.537	8.25
542.735	7.95
542.932	7.96
543.129	8.1
543.327	7.82
543.524	8.08
543.721	7.66
543.919	8.07
544.116	7.98
544.313	7.4
544.51	7.63
544.708	7.81
544.905	7.87
545.102	8.35
545.299	8.14
545.496	8.54
545.693	8.77
545.891	9.35
546.088	9.31
546.285	9.36
546.482	9.6
546.679	9.4
546.876	9.61
547.073	9.8
547.27	9.94
547.467	10.28
547.664	9.93
547.861	9.53
548.058	9.39
548.255	9.75
548.452	10.68
548.649	10.75
548.846	10.69
549.043	10.28
549.24	10.73
549.437	10.43
549.633	10.67
549.83	11.06
550.027	12.09
550.224	12
550.421	11.4
550.618	10.67
550.814	10.96
551.011	11.15
551.208	11.51
551.405	11.37
551.601	11.62
551.798	11.54
551.995	11.05
552.191	10.72
552.388	10.59
552.585	11
552.781	10.83
552.978	10.81
553.175	10.59
553.371	10.84
553.568	11.17
553.764	11.08
553.961	11.2
554.157	12.61
554.354	12.66
554.55	13
554.747	12.6
554.943	13.13
555.14	13.14
555.336	13.15
555.533	13.18
555.729	13.05
555.926	13.16
556.122	13.21
556.318	12.83
556.515	13.19
556.711	13.61
556.907	14.26
557.104	14.63
557.3	14.33
557.496	15.06
557.693	14.84
557.889	14.84
558.085	15.09
558.281	15.31
558.478	15.63
558.674	15.09
558.87	14.46
559.066	14.1
559.262	14.07
559.459	14.33
559.655	13.58
559.851	13.62
560.047	13.52
560.243	13.11
560.439	13.08
560.635	12.21
560.831	12.61
561.027	12.88
561.223	13.12
561.419	12.5
561.615	12.55
561.811	12.88
562.007	12.5
562.203	13.12
562.399	13.43
562.595	13.27
562.791	13.86
562.987	13.97
563.183	13.69
563.379	13.26
563.575	13.76
563.771	13.5
563.966	13.47
564.162	13.74
564.358	12.9
564.554	13.15
564.75	13.11
564.945	12.85
565.141	13.02
565.337	13.02
565.533	12.82
565.728	12.82
565.924	13.32
566.12	13.26
566.315	13.13
566.511	13.17
566.707	13.03
566.902	13.07
567.098	13.37
567.293	12.79
567.489	13.43
567.684	14.19
567.88	13.38
568.076	13.18
568.271	13.96
568.467	14.49
568.662	14.78
568.858	14.42
569.053	14.28
569.248	13.59
569.444	13.3
569.639	12.42
569.835	12.36
570.03	13.11
570.225	13.15
570.421	12.28
570.616	11.83
570.812	11.91
571.007	11.97
571.202	12.07
571.397	12.28
571.593	12.96
571.788	13.14
571.983	13.23
572.178	13.37
572.374	13.59
572.569	14.1
572.764	14.58
572.959	14.52
573.154	14.57
573.35	14.5
573.545	14.65
573.74	14.04
573.935	14.7
574.13	14.4
574.325	14.08
574.52	13.94
574.715	13.65
574.91	13.11
575.105	13.08
575.3	13.47
575.495	13.77
575.69	14.86
575.885	16.09
576.08	15.66
576.275	15.31
576.47	15.34
576.665	15.5
576.86	15.92
577.055	16.21
577.25	16.06
577.444	15.57
577.639	15.48
577.834	14.31
578.029	13.4
578.224	14.14
578.418	14.99
578.613	15.51
578.808	15.05
579.003	15.3
579.197	15.23
579.392	15.55
579.587	16.18
579.781	15.99
579.976	16.88
580.171	16.64
580.365	16.36
580.56	15.85
580.755	16.09
580.949	16.05
581.144	15.9
581.338	15.96
581.533	15.85
581.727	15.36
581.922	15.78
582.116	15.85
582.311	15.79
582.505	15.23
582.7	15.82
582.894	15.78
583.089	16.01
583.283	15.72
583.478	15.61
583.672	16.4
583.866	15.81
584.061	15.75
584.255	14.88
584.449	14.92
584.644	15.31
584.838	15.34
585.032	15.94
585.226	16.14
585.421	15.76
585.615	16.36
585.809	15.58
586.003	16.51
586.198	16.35
586.392	17.27
586.586	17.68
586.78	17.66
586.974	16.95
587.168	15.48
587.363	15.28
587.557	16.16
587.751	15.38
587.945	15.88
588.139	15.77
588.333	16.41
588.527	16.38
588.721	16.01
588.915	16.61
589.109	16.69
589.303	16.64
589.497	16.52
589.691	15.96
589.885	16.78
590.079	16.93
590.273	16.76
590.466	15.84
590.66	15.5
590.854	15.22
591.048	14.84
591.242	15.25
591.436	15.39
591.629	15.43
591.823	15.54
592.017	15.51
592.211	14.71
592.404	15.28
592.598	15.73
592.792	15.48
592.986	16.06
593.179	15.41
593.373	14.91
593.567	14.81
593.76	15.15
593.954	15.34
594.147	15.37
594.341	15.06
594.535	14.7
594.728	14.66
594.922	15.13
595.115	15.05
595.309	15.03
595.502	15.24
595.696	15.92
595.889	15.76
596.083	16.14
596.276	15.52
596.47	16.28
596.663	16.4
596.856	16.38
597.05	15.59
597.243	15.81
597.437	15.87
597.63	15.54
597.823	16.02
598.017	16.09
598.21	15.23
598.403	15.53
598.596	15.46
598.79	15.62
598.983	15.85
599.176	16.79
599.369	16.7
599.563	16.44
599.756	16.86
599.949	15.6
600.142	16.12
600.335	17.1
600.528	17.96
600.722	17.8
600.915	18.06
601.108	18.23
601.301	18.02
601.494	17.78
601.687	18.82
601.88	19.17
602.073	19.08
602.266	17.91
602.459	17.24
602.652	16.78
602.845	16.71
603.038	15.89
603.231	15.95
603.424	15.56
603.617	15.83
603.809	15.22
604.002	15.4
604.195	15.5
604.388	15.85
604.581	15.16
604.774	15.36
604.966	15.67
605.159	16.36
605.352	15.9
605.545	16.5
605.737	16.82
605.93	16.73
606.123	16.14
606.316	16.09
606.508	16.48
606.701	17.63
606.894	17.53
607.086	17.84
607.279	17.58
607.471	17.37
607.664	16.68
607.857	15.91
608.049	16.7
608.242	16.8
608.434	17.15
608.627	16.59
608.819	16.04
609.012	14.85
609.204	14.22
609.397	14.44
609.589	15.12
609.782	15.54
609.974	15.87
610.166	15.02
610.359	15.89
610.551	16.29
610.743	17.05
610.936	17.51
611.128	18.98
611.32	19.1
611.513	18.75
611.705	18.61
611.897	18.91
612.09	19.28
612.282	19.58
612.474	19.36
612.666	19.07
612.858	18.67
613.051	18.91
613.243	19.24
613.435	20.32
613.627	20.12
613.819	19.77
614.011	20.55
614.203	19.71
614.395	21.04
614.588	20.49
614.78	20.34
614.972	20.91
615.164	20.53
615.356	20.78
615.548	20.07
615.74	19.93
615.932	20
616.124	19.22
616.315	19.56
616.507	18
616.699	17.33
616.891	17.04
617.083	16.55
617.275	17.21
617.467	17.16
617.659	17.22
617.85	18.62
618.042	17.78
618.234	17.97
618.426	17.97
618.618	18.79
618.809	18.68
619.001	18.58
619.193	18.59
619.384	18.91
619.576	18.42
619.768	17.7
619.959	17.23
620.151	18.71
620.343	19.16
620.534	19.74
620.726	19.48
620.917	20.02
621.109	20.73
621.301	21.21
621.492	21.07
621.684	20.31
621.875	20.29
622.067	19.4
622.258	18.87
622.45	18.44
622.641	17.9
622.832	18.27
623.024	19.18
623.215	19.28
623.407	18.69
623.598	18.52
623.789	18.76
623.981	19.3
624.172	19.86
624.363	19.78
624.555	20.12
624.746	19.7
624.937	18.68
625.129	18.69
625.32	18.64
625.511	18.95
625.702	18.9
625.893	19.3
626.085	19.45
626.276	19.78
626.467	20.05
626.658	19.93
626.849	20.56
627.04	20.51
627.231	19.39
627.422	18.77
627.614	18.04
627.805	17.93
627.996	18.02
628.187	17.53
628.378	17.08
628.569	17.58
628.76	17.94
628.951	17.99
629.142	18.99
629.332	19.63
629.523	19.61
629.714	19.68
629.905	20.34
630.096	19.99
630.287	20.51
630.478	20.99
630.669	21.07
630.859	19.08
631.05	18.43
631.241	18.36
631.432	19.07
631.623	20.12
631.813	21.36
632.004	19.99
632.195	19.88
632.385	19.73
632.576	18.48
632.767	17.67
632.957	18.74
633.148	19.58
633.339	19.92
633.529	20
633.72	19.1
633.91	18.39
634.101	19.21
634.292	19.22
634.482	19.51
634.673	20.22
634.863	19.74
635.054	20.89
635.244	20.7
635.435	20.71
635.625	20.66
635.815	20.88
636.006	21.61
636.196	21.21
636.387	21.24
636.577	21.63
636.767	22.47
636.958	23
637.148	21.46
637.338	22.02
637.529	21.37
637.719	21.83
637.909	22.31
638.099	22.42
638.29	23.02
638.48	23.7
638.67	22.52
638.86	21.43
639.05	21.03
639.241	22.75
639.431	21.71
639.621	22.12
639.811	20.77
640.001	22.11
640.191	21.64
640.381	21.68
640.571	22.21
640.761	22.28
640.951	21.97
641.141	23.24
641.331	21.9
641.521	22.79
641.711	22.52
641.901	23.8
642.091	22.1
642.281	21.25
642.471	21.08
642.661	21.41
642.851	22.45
643.041	23.72
643.231	23.98
643.42	23.99
643.61	24.31
643.8	25.35
643.99	22.94
644.18	24.29
644.369	24.43
644.559	25.25
644.749	22.95
644.939	22.67
645.128	21.46
645.318	20.67
645.508	21.12
645.697	20.7
645.887	20.82
646.076	22.58
646.266	21.54
646.456	21.15
646.645	20.57
646.835	20.82
647.024	19.7
647.214	20.26
647.403	20.47
647.593	19.71
647.782	19.66
647.972	17.46
648.161	18.17
648.351	17.6
648.54	18.94
648.73	19.91
648.919	21.55
649.108	21.87
649.298	21.68
649.487	21.56
649.677	22.81
649.866	23.23
650.055	24.23
650.244	23.88
650.434	25.51
650.623	25.38
650.812	25.27
651.002	24.75
651.191	25.75
651.38	24.97
651.569	25.2
651.758	24.67
651.947	23.73
652.137	24.02
652.326	23.71
652.515	23.46
652.704	21.96
652.893	21.24
653.082	21.53
653.271	20.71
653.46	21.17
653.649	22.06
653.838	21.02
654.027	20.85
654.216	20.26
654.405	20.14
654.594	20
654.783	22.56
654.972	21.15
655.161	21.15
655.35	21.59
655.539	22.68
655.728	21.2
655.916	22.42
656.105	22.39
656.294	23.33
656.483	23.62
656.672	22.64
656.86	20.76
657.049	22.03
657.238	20.91
657.427	20.86
657.615	20.29
657.804	19.97
657.993	18.52
658.181	19.06
658.37	19.05
658.559	18.16
658.747	18.5
658.936	18.5
659.125	18.47
659.313	18.88
659.502	19.43
659.69	19.61
659.879	20.96
660.067	21.26
660.256	21.95
660.444	20.81
660.633	21.76
660.821	21.79
661.01	22.9
661.198	23.47
661.387	22.67
661.575	22.99
661.763	24.54
661.952	23.67
662.14	25.85
662.328	24.38
662.517	25.92
662.705	26.07
662.893	26.23
663.082	25.49
663.27	24.81
663.458	27.1
663.646	25.3
663.834	24.97
664.023	26.46
664.211	26.16
664.399	28.82
664.587	30.05
664.775	28.95
664.963	28.9
665.152	29.71
665.34	30.04
665.528	28.25
665.716	29.64
665.904	28.96
666.092	26.92
666.28	27.7
666.468	25.97
666.656	23.81
666.844	25.15
667.032	26
667.22	26.62
667.408	26.02
667.596	27.38
667.784	26.19
667.971	26.9
668.159	27.52
668.347	27.08
668.535	26.99
668.723	28.04
668.911	27.55
669.098	27.08
669.286	24.85
669.474	25.49
669.662	24.36
669.849	25.85
670.037	25.48
670.225	25.81
670.413	24.2
670.6	24.87
670.788	24.44
670.976	23.99
671.163	25.01
671.351	26.89
671.538	27.17
671.726	26.77
671.913	25.12
672.101	25.25
672.289	24.38
672.476	25.4
672.664	25.86
672.851	25.33
673.039	25.98
673.226	25.35
673.413	25.91
673.601	25.43
673.788	25.88
673.976	26.72
674.163	25.77
674.35	26.15
674.538	25.08
674.725	24.16
674.912	25.08
675.1	24.18
675.287	23.49
675.474	20.68
675.662	22.07
675.849	22.57
676.036	23.08
676.223	24.58
676.411	25.14
676.598	25.55
676.785	25.22
676.972	23.89
677.159	25.25
677.346	24.32
677.533	26.47
677.721	24.03
677.908	23.89
678.095	23.4
678.282	22.34
678.469	21.5
678.656	22.11
678.843	22.66
679.03	22.74
679.217	21.39
679.404	21.56
679.591	20.7
679.778	20.33
679.964	19.5
680.151	18.01
680.338	18.77
680.525	19.74
680.712	18.08
680.899	18.01
681.086	18.34
681.272	19.34
681.459	19.11
681.646	19.23
681.833	21.47
682.02	22.73
682.206	25.09
682.393	24.89
682.58	23.47
682.766	26.36
682.953	26.27
683.14	27.87
683.326	26.94
683.513	28.02
683.7	30
683.886	29.64
684.073	29.28
684.259	29.29
684.446	29.56
684.632	29.41
684.819	29.44
685.005	28.88
685.192	28.62
685.378	28.83
685.565	28.82
685.751	26.65
685.938	26.1
686.124	25.22
686.31	24.43
686.497	22.66
686.683	23.41
686.87	22.17
687.056	22.47
687.242	21.97
687.429	21.93
687.615	21.35
687.801	23.25
687.987	23.15
688.174	23.96
688.36	24.93
688.546	25.8
688.732	25.36
688.918	24.78
689.105	25.35
689.291	25.59
689.477	26.07
689.663	27.16
689.849	26.35
690.035	28.31
690.221	29.72
690.407	30.37
690.593	30.89
690.779	31.5
690.965	33.34
691.151	32.11
691.337	31.86
691.523	29.97
691.709	27.08
691.895	27.21
692.081	26.21
692.267	26.43
692.453	25.13
692.639	24.68
692.825	23.99
693.011	21.87
693.196	22.56
693.382	21.23
693.568	24
693.754	25.79
693.94	25.43
694.125	25.27
694.311	25.41
694.497	25.3
694.682	26.27
694.868	27.34
695.054	26.89
695.239	26.55
695.425	26.17
695.611	25.44
695.796	25.81
695.982	25.11
696.168	25.31
696.353	24.33
696.539	23.51
696.724	22.31
696.91	22.28
697.095	22.26
697.281	21.39
697.466	22.23
697.652	22.11
697.837	21.79
698.023	21.73
698.208	20
698.393	18.71
698.579	19.68
698.764	19.94
698.949	20.02
699.135	20.28
699.32	21.7
699.505	21.47
699.691	21.21
699.876	21.57
700.061	22.63
700.246	24.71
700.432	26.56
700.617	25.95
700.802	27.03
700.987	27.26
701.172	28.46
701.358	27.68
701.543	28.57
701.728	28.2
701.913	27.74
702.098	27.54
702.283	26.21
702.468	26.34
702.653	26.63
702.838	26.2
703.023	25.87
703.208	27.12
703.393	29.63
703.578	28.79
703.763	30.29
703.948	32.49
704.133	33.7
704.318	33.34
704.503	33.42
704.688	34.21
704.873	32.77
705.057	33.64
705.242	34.8
705.427	32.24
705.612	31.02
705.797	31.35
705.981	29.6
706.166	28.95
706.351	28.09
706.536	27.42
706.72	27.91
706.905	28.81
707.09	28.63
707.274	27.68
707.459	28.06
707.644	30.27
707.828	29
708.013	28.8
708.197	27.35
708.382	30.66
708.567	31.32
708.751	31.15
708.936	30.27
709.12	30.5
709.305	28.34
709.489	26.35
709.673	25.23
709.858	25.35
710.042	26.21
710.227	27.44
710.411	24.49
710.596	23.08
710.78	21.15
710.964	22.15
711.149	22.33
711.333	22.04
711.517	24.83
711.702	25.23
711.886	23.51
712.07	22.89
712.254	22.03
712.438	24.34
712.623	25.73
712.807	26.27
712.991	27.21
713.175	25.87
713.359	26.03
713.544	27.13
713.728	26.86
713.912	28.35
714.096	27.8
714.28	27.73
714.464	27.63
714.648	27.36
714.832	28.29
715.016	26.6
715.2	24.78
715.384	25.13
715.568	22.14
715.752	20.55
715.936	22.07
716.12	21.95
716.304	22.04
716.488	23
716.671	22.76
716.855	20.97
717.039	20.8
717.223	21.06
717.407	22.01
717.59	23.78
717.774	26.45
717.958	27.2
718.142	26.25
718.325	24.97
718.509	23.6
718.693	22.51
718.877	24.14
719.06	26.37
719.244	29.95
719.428	28.35
719.611	27.55
719.795	29.16
719.978	28.8
720.162	29.36
720.345	29.37
720.529	30.9
720.713	31.97
720.896	30.07
721.08	30.39
721.263	29.36
721.446	29.54
721.63	31.85
721.813	29.94
721.997	26.91
722.18	30.57
722.364	33.48
722.547	33.69
722.73	34.73
722.914	35.25
723.097	32.96
723.28	35.04
723.464	36.71
723.647	36.83
723.83	39.01
724.013	39.42
724.197	37.25
724.38	35.34
724.563	32.88
724.746	33.58
724.929	35.25
725.112	34.66
725.296	32.6
725.479	33.24
725.662	30.42
725.845	28.17
726.028	29.17
726.211	30.34
726.394	32.53
726.577	32.7
726.76	29.64
726.943	28.46
727.126	27.93
727.309	27.35
727.492	25.63
727.675	28.28
727.858	29.75
728.041	29.82
728.224	27.71
728.407	26.09
728.589	27.43
728.772	29.93
728.955	32.93
729.138	34.33
729.321	33.17
729.503	32.9
729.686	32
729.869	29.32
730.052	28.96
730.234	32.19
730.417	33.51
730.6	33.32
730.782	33.09
730.965	32.07
731.148	29.28
731.33	33.83
731.513	32.59
731.695	30.95
731.878	31.64
732.061	33.51
732.243	32.35
732.426	32.02
732.608	32.03
732.791	31.81
732.973	33.88
733.156	36.85
733.338	32.85
733.52	36.36
733.703	36.74
733.885	38.73
734.068	38.36
734.25	37.96
734.432	35.94
734.615	36.86
734.797	38.01
734.979	34.32
735.162	36.43
735.344	37.46
735.526	36.96
735.708	39.58
735.891	37.65
736.073	37.34
736.255	37.32
736.437	37.12
736.619	34.46
736.802	34.96
736.984	35.2
737.166	34.89
737.348	35.6
737.53	32.91
737.712	31.43
737.894	31.47
738.076	32.33
738.258	32.04
738.44	34.04
738.622	36.78
738.804	33.99
738.986	35.22
739.168	34.64
739.35	36.63
739.532	38.74
739.714	38.44
739.896	40.16
740.078	40.86
740.259	43.17
740.441	43.46
740.623	42.26
740.805	42.1
740.987	40.19
741.168	40.02
741.35	36.18
741.532	36.31
741.714	42.19
741.895	46.14
742.077	45.26
742.259	40.96
742.44	38.53
742.622	39.99
742.804	43.25
742.985	49.15
743.167	50.03
743.348	50.72
743.53	53.13
743.711	47.2
743.893	44.79
744.075	46.08
744.256	48.11
744.438	52.23
744.619	51.77
744.8	51.08
744.982	47.75
745.163	50.73
745.345	51.97
745.526	51.93
745.707	49.76
745.889	49.04
746.07	46.38
746.252	48.33
746.433	46.82
746.614	47.85
746.795	47.22
746.977	46.86
747.158	44.15
747.339	45.47
747.52	42.86
747.702	46.76
747.883	44.05
748.064	45.02
748.245	47.15
748.426	46.74
748.607	44.08
748.788	49.12
748.97	49.65
749.151	49.58
749.332	52.95
749.513	54.35
749.694	55.92
749.875	57.09
750.056	58.86
750.237	58.95
750.418	59.81
750.599	62.9
750.78	56.28
750.96	55.75
751.141	56.88
751.322	56.89
751.503	55.8
751.684	54.35
751.865	53.71
752.046	51.43
752.226	51.42
752.407	52.91
752.588	51.71
752.769	53.88
752.949	54.03
753.13	51.45
753.311	50.29
753.492	53.17
753.672	52.63
753.853	54.93
754.034	58.74
754.214	57.52
754.395	55.38
754.575	54
754.756	54.05
754.937	52.48
755.117	55.12
755.298	53.56
755.478	49.29
755.659	47.55
755.839	46.73
756.02	44.62
756.2	42.57
756.381	42.18
756.561	39.9
756.741	38.44
756.922	37.74
757.102	37.93
757.283	37.33
757.463	41.75
757.643	41.85
757.823	38.8
758.004	39.2
758.184	40.78
758.364	44.03
758.545	43.83
758.725	42.94
758.905	44.17
759.085	44.04
759.265	44.73
759.446	40.11
759.626	38.47
759.806	37.34
759.986	31
760.166	28.57
760.346	22.4
760.526	24.23
760.706	26.88
760.886	27.67
761.066	27.18
761.246	22.62
761.426	25.34
761.606	25.61
761.786	26.79
761.966	29.34
762.146	29.45
762.326	31.78
762.506	31.61
762.686	29.89
762.866	28.38
763.046	29.48
763.225	33.18
763.405	31.57
763.585	33.55
763.765	34.08
763.945	36.73
764.124	38.9
764.304	37.75
764.484	38.08
764.664	37.8
764.843	40.86
765.023	39.83
765.203	32.24
765.382	35.29
765.562	37.06
765.741	38.08
765.921	36.04
766.101	34.73
766.28	38.07
766.46	40.62
766.639	44.47
766.819	46.25
766.998	46.58
767.178	52.26
767.357	54.73
767.537	49.93
767.716	51.49
767.896	52.03
768.075	55.61
768.254	56.13
768.434	52.97
768.613	53.19
768.792	53.44
768.972	54.92
769.151	55.73
769.33	54.36
769.51	57.56
769.689	61.15
769.868	64.81
770.047	58.4
770.226	58.81
770.406	62.1
770.585	59.97
770.764	55.41
770.943	54.97
771.122	54.38
771.301	54.34
771.48	56.85
771.66	52.76
771.839	45.92
772.018	51
772.197	51.02
772.376	50.47
772.555	54.28
772.734	59.99
772.913	59.15
773.092	57.39
773.271	53.4
773.449	53.33
773.628	54.01
773.807	54.3
773.986	52.39
774.165	49.88
774.344	48.4
774.523	48.99
774.701	50.65
774.88	53.9
775.059	58.1
775.238	61.95
775.417	62.13
775.595	58.17
775.774	65.29
775.953	67.8
776.131	71.75
776.31	71.5
776.489	65.28
776.667	60.58
776.846	62.04
777.025	59.34
777.203	57.99
777.382	57.76
777.56	65.5
777.739	63.76
777.917	67.56
778.096	64.8
778.274	69.29
778.453	74.04
778.631	75.46
778.81	74.25
778.988	76.11
779.166	74.43
779.345	70.73
779.523	66.48
779.702	64.27
779.88	62.65
780.058	68.68
780.237	69.08
780.415	65.93
780.593	69.27
780.771	63.04
780.95	65.16
781.128	67.39
781.306	68.58
781.484	72.5
781.662	64.13
781.841	58.79
782.019	57.75
782.197	56.26
782.375	58.9
782.553	54.87
782.731	58.97
782.909	60.58
783.087	60.97
783.265	65.17
783.443	59.3
783.621	75.37
783.799	73.72
783.977	70.63
784.155	66.27
784.333	71.86
784.511	71.52
784.689	69.79
784.867	65.25
785.045	64.84
785.223	65.41
785.4	69.75
785.578	64.84
785.756	66.89
785.934	66.27
786.112	68.01
786.289	58.52
786.467	59.72
786.645	60.99
786.823	61.07
787	63.83
787.178	57.96
787.356	56.49
787.533	61.18
787.711	62.18
787.889	62.02
788.066	62.18
788.244	77.15
788.421	74.29
788.599	74.84
788.776	80.93
788.954	73.46
789.131	71.88
789.309	73.91
789.486	71.08
789.664	66.37
789.841	65.73
790.019	65.32
790.196	59.54
790.373	62.96
790.551	63.25
790.728	57.7
790.906	62.08
791.083	68.77
791.26	69.43
791.437	69.36
791.615	76.65
791.792	76.66
791.969	88.43
792.146	91.33
792.324	77.49
792.501	79.15
792.678	83.21
792.855	76.79
793.032	76.25
793.209	76.26
793.387	74.56
793.564	67.49
793.741	68.71
793.918	64.88
794.095	61.76
794.272	72.77
794.449	68.98
794.626	72.04
794.803	75.98
794.98	75.76
795.157	69.54
795.334	69.23
795.511	68.66
795.688	63.91
795.864	65.33
796.041	63.56
796.218	58.51
796.395	52.12
796.572	40.52
796.749	39.97
796.925	47.53
797.102	54.43
797.279	57.17
797.456	69.39
797.632	69.29
797.809	65.74
797.986	69.3
798.162	77.18
798.339	80.67
798.516	76.6
798.692	75.79
798.869	77.05
799.046	77.59
799.222	86.02
799.399	75.58
799.575	80.53
799.752	84.3
799.928	77.51
800.105	75.68
800.281	85.12
800.458	105.06
800.634	117.48
800.811	111.96
800.987	105.25
801.163	98.3
801.34	100.87
801.516	100.85
801.692	94.37
801.869	93.3
802.045	93.37
802.221	84.9
802.398	79.12
802.574	73.86
802.75	80.11
802.926	80.38
803.103	70.58
803.279	72.28
803.455	71.49
803.631	69.88
803.807	79.31
803.983	73.37
804.16	78.84
804.336	82.51
804.512	74.88
804.688	62.37
804.864	57.65
805.04	59.21
805.216	52.37
805.392	55.11
805.568	52.41
805.744	53.99
805.92	60.98
806.096	57.36
806.272	63.66
806.448	65.33
806.623	72.36
806.799	78.36
806.975	81.85
807.151	91.56
807.327	84.49
807.503	83.41
807.678	90.11
807.854	88.61
808.03	100.37
808.206	86.79
808.381	80.68
808.557	76.06
808.733	74.77
808.908	79.81
809.084	81.21
809.26	85.36
809.435	90.43
809.611	79.78
809.787	85.81
809.962	84.94
810.138	86.48
810.313	89.66
810.489	96.03
810.664	104.7
810.84	98.61
811.015	98.31
811.191	89.93
811.366	95.54
811.542	100.16
811.717	110.39
811.892	106.84
812.068	105.14
812.243	104.88
812.419	99.2
812.594	94.26
812.769	89.08
812.944	86.47
813.12	94.79
813.295	81.09
813.47	92.26
813.645	79.85
813.821	70.46
813.996	64.25
814.171	66.36
814.346	67.72
814.521	69.97
814.697	79.83
814.872	87.39
815.047	90.95
815.222	94.4
815.397	88.37
815.572	104.59
815.747	100.91
815.922	106.2
816.097	114.04
816.272	110.15
816.447	120.76
816.622	113.57
816.797	102.75
816.972	102.69
817.147	103.03
817.322	100.14
817.496	82.38
817.671	96.9
817.846	108.77
818.021	101.64
818.196	97.78
818.371	95.99
818.545	78.38
818.72	83.44
818.895	79.12
819.069	81.1
819.244	75.55
819.419	72.38
819.594	61.8
819.768	48.9
819.943	41.81
820.117	36.18
820.292	28.62
820.467	27.81
820.641	23.74
820.816	20.28
820.99	18.32
821.165	18.81
821.339	19.85
821.514	21.11
821.688	22.04
821.863	21.56
822.037	21.64
822.212	23.4
822.386	23.08
822.56	24.88
822.735	27.58
822.909	31.42
823.084	32.54
823.258	30
823.432	28.57
823.606	28.43
823.781	32.32
823.955	35.35
824.129	34.42
824.303	40.4
824.478	39.56
824.652	36.01
824.826	34.3
825	35.12
825.174	41
825.348	38.01
825.523	37.03
825.697	35.64
825.871	33.85
826.045	35.2
826.219	33.76
826.393	33.72
826.567	35.39
826.741	34.44
826.915	34.9
827.089	33.44
827.263	40.91
827.437	42.17
827.611	45.71
827.784	50.37
827.958	52.83
828.132	62.16
828.306	71.54
828.48	77.71
828.654	77.27
828.827	86.97
829.001	84.18
829.175	79.28
829.349	73.19
829.522	66.59
829.696	69.53
829.87	75.82
830.044	62.13
830.217	55.91
830.391	65.48
830.565	65.34
830.738	57.01
830.912	61.98
831.085	58.77
831.259	65.06
831.432	63.65
831.606	61.7
831.779	46.73
831.953	46.87
832.126	44.69
832.3	37.7
832.473	37.12
832.647	37.69
832.82	36.74
832.994	35.66
833.167	36.04
833.34	39.93
833.514	39.3
833.687	39.42
833.86	36.98
834.034	34.89
834.207	37.79
834.38	44.28
834.553	42.5
834.727	47.92
834.9	55.56
835.073	63.07
835.246	71.27
835.419	77.46
835.593	86.26
835.766	100.93
835.939	102.8
836.112	98.75
836.285	92.93
836.458	97.78
836.631	103.66
836.804	111.42
836.977	98.34
837.15	89.27
837.323	87.76
837.496	95.87
837.669	96.33
837.842	109.03
838.015	123.41
838.188	121.37
838.361	120.9
838.533	107.31
838.706	98.16
838.879	114.18
839.052	120.53
839.225	118.77
839.398	118.55
839.57	108.43
839.743	103.48
839.916	112.65
840.088	119.5
840.261	121.83
840.434	135.54
840.607	140.69
840.779	134.91
840.952	119.2
841.124	127.37
841.297	125.6
841.47	122.87
841.642	117.25
841.815	125.72
841.987	121.23
842.16	132.78
842.332	133.89
842.505	127.63
842.677	128.57
842.85	111.6
843.022	111.12
843.194	109.77
843.367	143.24
843.539	142.65
843.712	134.12
843.884	146.73
844.056	142.31
844.229	169.95
844.401	181
844.573	247.68
844.745	570.21
844.918	498.44
845.09	708.82
845.262	5413.33
845.434	-3133.33
845.606	1692.45
845.779	4008.7
845.951	780.6
846.123	569.14
846.295	422.41
846.467	236.34
846.639	268.96
846.811	235.38
846.983	213.09
847.155	218.45
847.327	236.93
847.499	225.79
847.671	222.11
847.843	260.69
848.015	221.82
848.187	252.81
848.359	342.28
848.531	699.33
848.703	930.36
848.875	464.32
849.047	262.33
849.218	346.36
849.39	331.25
849.562	238.6
849.734	256.22
849.905	360.06
850.077	433.33
850.249	213.13
850.421	148.74
850.592	167.23
850.764	248.11
850.936	265.51
851.107	246.94
851.279	223.94
851.451	267.79
851.622	200.13
851.794	174.13
851.965	180.14
852.137	248.63
852.308	243.08
852.48	269.07
852.651	194.72
852.823	246.19
852.994	238.84
853.166	255.27
853.337	196.68
853.509	164.64
853.68	157.49
853.851	161.6
854.023	128.67
854.194	154.39
854.365	117.19
854.537	126.78
854.708	87.59
854.879	77.6
855.05	68.16
855.222	76.94
855.393	81.53
855.564	96.29
855.735	94.51
855.906	98.37
856.078	98.62
856.249	87.58
856.42	77.56
856.591	113.78
856.762	140.22
856.933	214.53
857.104	160.53
857.275	157.3
857.446	130.36
857.617	108.39
857.788	109.27
857.959	90.88
858.13	117.43
858.301	115.37
858.472	95.13
858.643	88.59
858.814	112.14
858.985	121.81
859.155	107.56
859.326	157.05
859.497	182.7
859.668	266.78
859.839	303.01
860.009	439.77
860.18	574.52
860.351	473.5
860.522	602.11
860.692	658.54
860.863	900
861.034	3402.63
861.204	1476
861.375	822.14
861.546	6007.14
861.716	1585.71
861.887	360.93
862.057	232.81
862.228	227.37
862.398	192.81
862.569	156.66
862.739	176.57
862.91	217.88
863.08	295.85
863.251	422.17
863.421	402.95
863.592	272.38
863.762	774.24
863.932	8115.38
864.103	828.29
864.273	1186.14
864.443	-673.78
864.614	-530.9
864.784	-1551.61
864.954	4418.18
865.125	495.65
865.295	328.9
865.465	458.14
865.635	378.87
865.805	345.99
865.976	16300
866.146	635.17
866.316	298.85
866.486	269.19
866.656	389.7
866.826	492.47
866.996	503.45
867.166	468.8
867.336	573.04
867.506	451.25
867.676	422.47
867.846	423.26
868.016	514.12
868.186	666.84
868.356	1050.39
868.526	573.61
868.696	337.19
868.866	378.52
869.036	660.26
869.206	520.29
869.376	406.78
869.545	519.4
869.715	366.45
869.885	303.34
870.055	280.43
870.224	354.11
870.394	558.05
870.564	707.89
870.734	404.98
870.903	403.88
871.073	341.78
871.243	351.07
871.412	285.34
871.582	346.76
871.751	376.23
871.921	287.31
872.091	322.7
872.26	222.89
872.43	229.87
872.599	333.96
872.769	259.67
872.938	368.41
873.108	416.96
873.277	352.05
873.446	255.01
873.616	246.18
873.785	307.29
873.955	214.26
874.124	308.01
874.293	276.17
874.463	280.1
874.632	366.86
874.801	320.33
874.971	217.89
875.14	295.15
875.309	226.59
875.478	239.53
875.647	198.39
875.817	161.97
875.986	161.39
876.155	144.15
876.324	169.33
876.493	141.16
876.662	135.76
876.831	165.3
877	121.94
877.17	147.75
877.339	152.87
877.508	175.97
877.677	234.82
877.846	213.73
878.015	211.86
878.184	168.98
878.352	160.19
878.521	153
878.69	124.95
878.859	189.88
879.028	155.79
879.197	134.39
879.366	118.86
879.534	87.4
879.703	70.5
879.872	62.2
880.041	67.95
880.21	63.49
880.378	57.4
880.547	57.15
880.716	54.86
880.884	48.87
881.053	50.15
881.222	45.91
881.39	44.99
881.559	46.54
881.727	44.49
881.896	45.43
882.065	44.23
882.233	52.71
882.402	50.69
882.57	46.16
882.739	47.41
882.907	48.35
883.076	48.26
883.244	52.93
883.412	61.97
883.581	67.67
883.749	75
883.918	96.42
884.086	110.41
884.254	213.47
884.423	263.7
884.591	256.66
884.759	684.76
884.927	3190.91
885.096	-2097.3
885.264	-1262.5
885.432	727.34
885.6	561.05
885.769	416.41
885.937	678.36
886.105	248.61
886.273	231.76
886.441	192.87
886.609	150.49
886.777	121.69
886.945	126.58
887.113	146.15
887.281	167.51
887.449	113.7
887.617	156.11
887.785	148.31
887.953	159.48
888.121	142.39
888.289	377.57
888.457	1733.33
888.625	-979.55
888.793	-1704.17
888.961	354.14
889.129	521.67
889.296	1250
889.464	306.35
889.632	321.19
889.8	483.64
889.967	1645.16
890.135	449.45
