Data from JASIL_2963_Reflection_1.txt Node
Date: Sat Nov 07 21:25:24 EST 2015
User: Geneva
Spectrometer: USB4E03002
Autoset integration time: false
Trigger mode: 4
Integration Time (sec): 1.000000E-1
Scans to average: 10
Electric dark correction enabled: true
Nonlinearity correction enabled: false
Boxcar width: 5
Stray light correction enabled: false
XAxis mode: Wavelengths
Stop averaging: false
Number of Pixels in Spectrum: 3648
>>>>>Begin Spectral Data<<<<<
177.575	81.03
177.794	87.44
178.014	49.49
178.233	5.35
178.452	31.15
178.672	-25.34
178.891	103.04
179.11	131.82
179.33	149.84
179.549	101.47
179.768	45.48
179.987	5.16
180.207	-75.5
180.426	366.49
180.645	140.79
180.864	137.34
181.084	114.93
181.303	166.27
181.522	105.43
181.741	102.07
181.96	89.29
182.179	68.49
182.398	64.12
182.618	73.8
182.837	81.6
183.056	115.16
183.275	123.96
183.494	89.25
183.713	80.19
183.932	213.95
184.151	470.62
184.37	156.73
184.589	118.28
184.808	98.94
185.027	100.95
185.246	85.47
185.465	66.07
185.684	61.23
185.903	56.93
186.122	57.28
186.341	43.6
186.56	33.24
186.779	41.54
186.998	60.72
187.216	77.66
187.435	60.32
187.654	68.32
187.873	68.47
188.092	54.91
188.311	56.37
188.53	53.58
188.748	61.05
188.967	28.56
189.186	24.66
189.405	23.71
189.623	-22.09
189.842	25.13
190.061	20.83
190.28	21.92
190.498	27.6
190.717	21.68
190.936	-0.33
191.154	-68.49
191.373	-1134.53
191.592	157.26
191.81	80.75
192.029	74.32
192.248	90.99
192.466	169.38
192.685	68.51
192.904	75.14
193.122	47.78
193.341	45.69
193.559	53.65
193.778	59.99
193.996	66.4
194.215	65.11
194.433	57.4
194.652	50.51
194.87	29.09
195.089	53.16
195.307	76.93
195.526	95.52
195.744	77.16
195.963	74.41
196.181	55.32
196.399	48.29
196.618	42.94
196.836	45.84
197.055	48.14
197.273	39.79
197.491	39.9
197.71	29.94
197.928	26.04
198.146	24.87
198.365	18.62
198.583	36.6
198.801	42.46
199.019	35.75
199.238	33.76
199.456	37.48
199.674	45.07
199.892	38.7
200.111	24.22
200.329	37.74
200.547	30.07
200.765	31.89
200.983	16.37
201.202	12.86
201.42	23.8
201.638	14.34
201.856	10.61
202.074	24.15
202.292	28.12
202.51	36.65
202.728	28.02
202.946	39.44
203.165	41.35
203.383	38.06
203.601	44.28
203.819	51.07
204.037	58.45
204.255	65.92
204.473	65.45
204.691	58.34
204.909	61.22
205.127	51.49
205.345	59.02
205.562	61.56
205.78	66.68
205.998	84.67
206.216	76.93
206.434	90.04
206.652	77.96
206.87	87.19
207.088	76.13
207.306	65.1
207.523	63.22
207.741	57.92
207.959	58.98
208.177	55.4
208.395	35.03
208.612	28.95
208.83	18.53
209.048	16.9
209.266	-24.1
209.483	-28.56
209.701	-7.34
209.919	-21.28
210.136	-23.75
210.354	5.75
210.572	21.21
210.79	29.77
211.007	34.17
211.225	34.85
211.442	37.1
211.66	48.49
211.878	46.88
212.095	36.37
212.313	43.47
212.53	50.37
212.748	37.14
212.966	40.17
213.183	42.48
213.401	43.99
213.618	45.62
213.836	41.17
214.053	38.73
214.271	35.64
214.488	36.79
214.705	30.8
214.923	20.04
215.14	29.16
215.358	28
215.575	24.11
215.793	28.6
216.01	23.88
216.227	23.74
216.445	15.55
216.662	12.81
216.879	22.3
217.097	26.4
217.314	19.06
217.531	20.35
217.749	15.81
217.966	21.17
218.183	12.45
218.4	13.33
218.618	17.67
218.835	22.58
219.052	26.21
219.269	19.74
219.487	21.46
219.704	23.06
219.921	22.82
220.138	23.99
220.355	20.92
220.572	20.88
220.79	21.06
221.007	21.6
221.224	22.08
221.441	21.22
221.658	20.76
221.875	20.55
222.092	22.4
222.309	16.05
222.526	14.19
222.743	12.09
222.96	13.2
223.177	13.02
223.394	11.62
223.611	11.98
223.828	12.87
224.045	15.36
224.262	13.18
224.479	15
224.696	19.25
224.913	19.47
225.13	21.29
225.347	20.04
225.564	19.9
225.781	17.21
225.997	16.83
226.214	15.65
226.431	14.9
226.648	15.21
226.865	14.53
227.082	14.16
227.298	13.96
227.515	12.58
227.732	11.38
227.949	11.59
228.165	11.6
228.382	10.93
228.599	11.02
228.816	10.71
229.032	9.9
229.249	10.22
229.466	9.63
229.682	9.69
229.899	10.74
230.116	12.06
230.332	12.75
230.549	13.89
230.765	15.34
230.982	15.89
231.199	17.14
231.415	17.9
231.632	16.74
231.848	17.59
232.065	18.21
232.281	18.2
232.498	18.25
232.714	16.97
232.931	17.28
233.147	16.47
233.364	15.95
233.58	16.06
233.797	15.9
234.013	16.91
234.23	16.43
234.446	15.83
234.662	15.68
234.879	16.09
235.095	16.07
235.312	15.7
235.528	16.03
235.744	15.23
235.961	13.9
236.177	13.34
236.393	12.83
236.61	13.11
236.826	12.84
237.042	12.43
237.258	12.33
237.475	12.94
237.691	13.1
237.907	12.46
238.123	13.44
238.339	14.09
238.556	14.06
238.772	14.03
238.988	13.98
239.204	13.75
239.42	13.8
239.636	14.11
239.853	13.86
240.069	13.3
240.285	13.63
240.501	13.3
240.717	13.27
240.933	13.68
241.149	13.61
241.365	13.76
241.581	13.83
241.797	13.68
242.013	13.46
242.229	13.52
242.445	13.6
242.661	13.41
242.877	13.64
243.093	13.56
243.309	13.63
243.525	13.36
243.741	13.56
243.957	13.53
244.173	13.8
244.388	13.47
244.604	13.21
244.82	13.14
245.036	12.73
245.252	12.44
245.468	11.95
245.683	11.71
245.899	11.82
246.115	11.35
246.331	11.34
246.547	11.04
246.762	10.95
246.978	10.93
247.194	10.88
247.409	11
247.625	10.91
247.841	11.1
248.057	10.98
248.272	10.68
248.488	11.1
248.703	10.68
248.919	10.82
249.135	10.75
249.35	10.3
249.566	9.87
249.782	9.56
249.997	10.05
250.213	9.73
250.428	10.01
250.644	10.04
250.859	9.53
251.075	9.84
251.29	9.6
251.506	9.65
251.721	10.05
251.937	10.03
252.152	10.27
252.368	10.15
252.583	10.57
252.798	10.26
253.014	10.49
253.229	10.78
253.445	10.62
253.66	10.97
253.875	10.69
254.091	9.5
254.306	9.94
254.521	9.51
254.737	9.19
254.952	8.63
255.167	8.6
255.383	8.94
255.598	8.95
255.813	9.02
256.028	8.79
256.244	8.85
256.459	9.18
256.674	8.73
256.889	8.51
257.104	8.59
257.32	8.48
257.535	8.52
257.75	8.14
257.965	7.98
258.18	8.01
258.395	8.14
258.61	8.04
258.826	8.09
259.041	8.07
259.256	8.07
259.471	7.96
259.686	8.09
259.901	8.14
260.116	8.23
260.331	8.27
260.546	8.41
260.761	8.33
260.976	8.62
261.191	8.67
261.406	8.65
261.621	8.76
261.836	8.3
262.05	7.93
262.265	7.48
262.48	7.66
262.695	7.52
262.91	7.2
263.125	7.26
263.34	7.07
263.555	7.19
263.769	7.08
263.984	7.01
264.199	7.84
264.414	8.03
264.629	8.08
264.843	7.6
265.058	7.6
265.273	7.81
265.488	7.49
265.702	7.4
265.917	7.6
266.132	7.83
266.346	8.01
266.561	7.98
266.776	7.94
266.99	8.18
267.205	8.3
267.42	8.23
267.634	7.84
267.849	8.09
268.063	7.78
268.278	7.36
268.492	7.34
268.707	7.38
268.922	7.4
269.136	7.56
269.351	7.45
269.565	7.56
269.78	7.5
269.994	7.59
270.209	7.56
270.423	7.99
270.637	8.15
270.852	8.2
271.066	8.01
271.281	7.87
271.495	7.78
271.709	7.86
271.924	7.79
272.138	7.76
272.353	7.95
272.567	7.74
272.781	7.66
272.996	7.62
273.21	7.3
273.424	7.19
273.638	7.33
273.853	7.36
274.067	6.94
274.281	6.91
274.495	7.01
274.71	6.87
274.924	7.15
275.138	7.13
275.352	7.13
275.566	7.38
275.781	7.53
275.995	7.49
276.209	7.53
276.423	7.95
276.637	7.82
276.851	7.82
277.065	7.59
277.279	7.49
277.493	7.38
277.707	7.1
277.921	7.27
278.135	7.45
278.349	7.23
278.563	7.06
278.777	6.75
278.991	7.06
279.205	7.28
279.419	7.59
279.633	7.55
279.847	7.51
280.061	7.8
280.275	7.64
280.489	7.48
280.703	7.4
280.917	7.46
281.131	7.48
281.344	7.26
281.558	7.04
281.772	7.05
281.986	6.9
282.2	7.19
282.414	7.26
282.627	7.27
282.841	7.41
283.055	7.58
283.269	7.31
283.482	7.25
283.696	7.27
283.91	7.54
284.123	7.28
284.337	7.31
284.551	7.13
284.764	7.11
284.978	7.28
285.192	7.24
285.405	7.28
285.619	7.61
285.833	7.53
286.046	7.47
286.26	7.41
286.473	7.58
286.687	7.65
286.9	7.8
287.114	7.54
287.327	7.62
287.541	7.55
287.754	7.38
287.968	7.24
288.181	7.56
288.395	7.78
288.608	7.71
288.822	7.75
289.035	7.83
289.248	7.71
289.462	8.03
289.675	7.93
289.889	7.98
290.102	8.24
290.315	8.29
290.529	8.27
290.742	8.2
290.955	8.2
291.169	8.19
291.382	8.13
291.595	8.1
291.808	7.97
292.022	8.33
292.235	8.25
292.448	8.41
292.661	8.45
292.875	8.46
293.088	8.49
293.301	8.68
293.514	8.52
293.727	8.65
293.94	8.89
294.153	8.87
294.367	8.48
294.58	8.5
294.793	8.15
295.006	8.13
295.219	8.31
295.432	8.47
295.645	8.48
295.858	8.38
296.071	8.41
296.284	8.37
296.497	8.45
296.71	8.71
296.923	8.73
297.136	8.92
297.349	9.13
297.562	8.99
297.775	9
297.988	8.96
298.201	9.26
298.414	9.29
298.626	9.28
298.839	9.26
299.052	9.2
299.265	9.21
299.478	9.18
299.691	8.93
299.903	9.08
300.116	8.88
300.329	8.94
300.542	8.81
300.755	8.97
300.967	8.99
301.18	9.05
301.393	8.94
301.605	8.97
301.818	8.97
302.031	9
302.243	8.97
302.456	9.35
302.669	9.34
302.881	9.56
303.094	9.53
303.307	9.63
303.519	9.73
303.732	9.82
303.944	9.93
304.157	10.03
304.37	10.35
304.582	10.48
304.795	10.22
305.007	10.25
305.22	10.39
305.432	10.35
305.645	10.35
305.857	10.44
306.069	10.62
306.282	10.46
306.494	10.51
306.707	10.31
306.919	10.42
307.132	10.34
307.344	10.14
307.556	9.96
307.769	9.99
307.981	9.83
308.193	9.88
308.406	9.43
308.618	9.68
308.83	9.61
309.043	9.74
309.255	9.66
309.467	9.82
309.679	10.03
309.892	10.11
310.104	9.97
310.316	10
310.528	9.9
310.74	10.22
310.953	10.33
311.165	10.45
311.377	10.28
311.589	10.2
311.801	10.05
312.013	9.96
312.225	9.98
312.437	10.25
312.649	10.31
312.862	10.27
313.074	9.99
313.286	9.78
313.498	9.67
313.71	10.04
313.922	10.22
314.134	10.46
314.346	10.57
314.558	10.55
314.77	10.29
314.982	10.14
315.193	10.24
315.405	10.4
315.617	10.29
315.829	10.25
316.041	10.13
316.253	9.95
316.465	9.8
316.677	9.71
316.888	9.63
317.1	9.9
317.312	10.36
317.524	10.43
317.736	10.54
317.947	10.85
318.159	11.04
318.371	11.07
318.583	11.2
318.794	11.25
319.006	11.34
319.218	11.36
319.43	11.04
319.641	10.79
319.853	10.79
320.064	10.63
320.276	10.5
320.488	10.33
320.699	10.09
320.911	10.21
321.123	10.71
321.334	10.75
321.546	10.87
321.757	11.13
321.969	11.14
322.18	10.96
322.392	10.88
322.603	10.81
322.815	10.72
323.026	10.69
323.238	10.52
323.449	10.27
323.661	10.2
323.872	10.28
324.083	10.16
324.295	10.07
324.506	10.06
324.718	10.15
324.929	10.36
325.14	10.4
325.352	10.6
325.563	10.56
325.774	10.6
325.986	10.58
326.197	10.43
326.408	10.57
326.62	10.8
326.831	11.01
327.042	11.13
327.253	11.02
327.464	11.12
327.676	10.82
327.887	11.01
328.098	10.88
328.309	11.02
328.52	11.38
328.732	11.58
328.943	11.39
329.154	11.51
329.365	11.4
329.576	11.64
329.787	11.55
329.998	11.94
330.209	11.87
330.42	11.79
330.631	11.78
330.842	11.53
331.053	11.33
331.264	11.33
331.475	11.05
331.686	11.1
331.897	10.81
332.108	10.8
332.319	10.64
332.53	10.64
332.741	10.69
332.952	10.65
333.163	10.69
333.374	10.77
333.585	10.82
333.795	10.74
334.006	10.84
334.217	10.92
334.428	11.14
334.639	11.22
334.849	11.37
335.06	11.41
335.271	11.37
335.482	11.3
335.692	11.28
335.903	11.33
336.114	11.44
336.325	11.5
336.535	11.53
336.746	11.34
336.957	11.38
337.167	11.35
337.378	11.25
337.589	11.19
337.799	11.42
338.01	11.43
338.22	11.59
338.431	11.59
338.642	11.64
338.852	11.48
339.063	11.55
339.273	11.32
339.484	11.33
339.694	11.41
339.905	11.42
340.115	10.96
340.326	10.73
340.536	10.7
340.746	10.64
340.957	10.46
341.167	10.4
341.378	10.3
341.588	10.4
341.799	10.1
342.009	10.1
342.219	10.04
342.43	10.23
342.64	10.17
342.85	10.02
343.061	10.14
343.271	10.25
343.481	10.46
343.691	10.41
343.902	10.49
344.112	10.59
344.322	10.6
344.532	10.64
344.743	10.79
344.953	10.74
345.163	10.77
345.373	10.63
345.583	10.64
345.793	10.47
346.004	10.42
346.214	10.39
346.424	10.51
346.634	10.49
346.844	10.54
347.054	10.49
347.264	10.77
347.474	10.77
347.684	10.7
347.894	10.5
348.104	10.54
348.314	10.61
348.524	10.55
348.734	10.44
348.944	10.34
349.154	10.36
349.364	10.13
349.574	9.88
349.784	9.81
349.994	9.93
350.204	9.83
350.413	9.64
350.623	9.63
350.833	9.42
351.043	9.31
351.253	9.48
351.463	9.33
351.672	9.4
351.882	9.46
352.092	9.39
352.302	9.28
352.511	9.33
352.721	9.41
352.931	9.45
353.141	9.36
353.35	9.24
353.56	8.97
353.77	9.09
353.979	9.3
354.189	9.27
354.399	9.46
354.608	9.48
354.818	9.5
355.027	9.63
355.237	9.53
355.447	9.78
355.656	9.99
355.866	10.05
356.075	9.9
356.285	9.58
356.494	9.55
356.704	9.35
356.913	9.31
357.123	9.21
357.332	9.19
357.542	9.25
357.751	9.09
357.96	8.98
358.17	8.95
358.379	9.02
358.589	9.11
358.798	9.19
359.007	9.19
359.217	9.16
359.426	9.22
359.635	9.06
359.845	9.03
360.054	9.02
360.263	8.97
360.472	9.03
360.682	9.02
360.891	9.03
361.1	8.97
361.309	8.92
361.519	8.95
361.728	8.92
361.937	9.06
362.146	8.96
362.355	9.02
362.564	9.02
362.774	8.96
362.983	8.95
363.192	8.86
363.401	8.79
363.61	8.87
363.819	8.89
364.028	8.89
364.237	8.77
364.446	8.86
364.655	8.77
364.864	8.83
365.073	8.84
365.282	8.89
365.491	8.9
365.7	8.98
365.909	8.93
366.118	8.97
366.327	8.9
366.536	8.87
366.745	8.83
366.954	8.9
367.162	8.83
367.371	8.72
367.58	8.6
367.789	8.48
367.998	8.45
368.207	8.49
368.415	8.42
368.624	8.41
368.833	8.44
369.042	8.49
369.25	8.49
369.459	8.53
369.668	8.55
369.877	8.43
370.085	8.53
370.294	8.51
370.503	8.45
370.711	8.42
370.92	8.38
371.129	8.45
371.337	8.38
371.546	8.17
371.754	8.07
371.963	8.06
372.171	8.1
372.38	7.96
372.589	8.01
372.797	8.05
373.006	7.96
373.214	7.94
373.423	7.78
373.631	7.86
373.84	8.02
374.048	8
374.256	7.99
374.465	7.89
374.673	7.98
374.882	7.85
375.09	7.77
375.298	7.81
375.507	7.77
375.715	7.79
375.923	7.59
376.132	7.45
376.34	7.35
376.548	7.33
376.757	7.43
376.965	7.46
377.173	7.49
377.381	7.49
377.59	7.4
377.798	7.46
378.006	7.43
378.214	7.59
378.423	7.6
378.631	7.71
378.839	7.64
379.047	7.65
379.255	7.55
379.463	7.51
379.671	7.44
379.879	7.48
380.088	7.37
380.296	7.46
380.504	7.38
380.712	7.4
380.92	7.46
381.128	7.46
381.336	7.45
381.544	7.41
381.752	7.42
381.96	7.38
382.168	7.35
382.376	7.41
382.584	7.25
382.791	7.22
382.999	7.13
383.207	7.06
383.415	7.05
383.623	7.04
383.831	7.08
384.039	7.06
384.247	7.18
384.454	7.23
384.662	7.32
384.87	7.48
385.078	7.48
385.285	7.57
385.493	7.51
385.701	7.51
385.909	7.44
386.116	7.48
386.324	7.4
386.532	7.33
386.739	7.2
386.947	7.02
387.155	6.87
387.362	6.83
387.57	6.86
387.778	6.82
387.985	6.87
388.193	6.88
388.4	6.9
388.608	6.86
388.816	6.77
389.023	6.85
389.231	6.82
389.438	6.8
389.646	6.8
389.853	6.8
390.061	6.82
390.268	6.76
390.475	6.68
390.683	6.62
390.89	6.67
391.098	6.69
391.305	6.65
391.512	6.61
391.72	6.58
391.927	6.57
392.135	6.44
392.342	6.43
392.549	6.45
392.756	6.49
392.964	6.45
393.171	6.42
393.378	6.46
393.586	6.43
393.793	6.55
394	6.51
394.207	6.47
394.414	6.52
394.622	6.55
394.829	6.46
395.036	6.39
395.243	6.39
395.45	6.36
395.657	6.35
395.864	6.33
396.072	6.36
396.279	6.44
396.486	6.39
396.693	6.44
396.9	6.42
397.107	6.42
397.314	6.48
397.521	6.45
397.728	6.41
397.935	6.35
398.142	6.4
398.349	6.27
398.556	6.25
398.763	6.35
398.97	6.29
399.177	6.25
399.383	6.32
399.59	6.23
399.797	6.34
400.004	6.31
400.211	6.32
400.418	6.26
400.625	6.27
400.831	6.29
401.038	6.22
401.245	6.19
401.452	6.17
401.658	6.12
401.865	6.15
402.072	6.05
402.279	6.15
402.485	6.04
402.692	6.03
402.899	6.01
403.105	6.09
403.312	6.1
403.519	6.09
403.725	6.15
403.932	6.16
404.138	6.2
404.345	6.18
404.552	6.13
404.758	6.23
404.965	6.25
405.171	6.23
405.378	6.11
405.584	6.11
405.791	6.12
405.997	6.07
406.204	6.03
406.41	6
406.617	5.98
406.823	6.02
407.029	6
407.236	6.03
407.442	6.06
407.649	6.19
407.855	6.2
408.061	6.18
408.268	6.16
408.474	6.12
408.68	6.12
408.887	6.1
409.093	6.05
409.299	6.01
409.505	5.97
409.712	5.99
409.918	5.9
410.124	5.85
410.33	5.84
410.537	5.91
410.743	5.97
410.949	5.93
411.155	6.04
411.361	6.03
411.567	6.01
411.773	5.93
411.98	5.93
412.186	5.84
412.392	5.82
412.598	5.81
412.804	5.77
413.01	5.81
413.216	5.8
413.422	5.73
413.628	5.79
413.834	5.77
414.04	5.88
414.246	5.85
414.452	5.91
414.658	5.94
414.864	5.96
415.07	5.96
415.275	5.91
415.481	5.89
415.687	5.78
415.893	5.78
416.099	5.83
416.305	5.8
416.511	5.78
416.716	5.72
416.922	5.67
417.128	5.64
417.334	5.62
417.539	5.56
417.745	5.56
417.951	5.58
418.157	5.55
418.362	5.52
418.568	5.51
418.774	5.46
418.979	5.45
419.185	5.43
419.391	5.39
419.596	5.38
419.802	5.41
420.008	5.39
420.213	5.73
420.419	5.7
420.624	5.7
420.83	5.68
421.035	5.69
421.241	5.7
421.446	5.75
421.652	5.77
421.857	5.72
422.063	5.67
422.268	5.69
422.474	5.39
422.679	5.39
422.885	5.4
423.09	5.4
423.295	5.41
423.501	5.4
423.706	5.38
423.911	5.39
424.117	5.4
424.322	5.42
424.527	5.41
424.733	5.35
424.938	5.38
425.143	5.37
425.349	5.34
425.554	5.33
425.759	5.34
425.964	5.34
426.169	5.33
426.375	5.34
426.58	5.33
426.785	5.34
426.99	5.39
427.195	5.27
427.4	5.27
427.605	5.3
427.811	5.28
428.016	5.3
428.221	5.32
428.426	5.33
428.631	5.29
428.836	5.33
429.041	5.34
429.246	5.38
429.451	5.49
429.656	5.49
429.861	5.48
430.066	5.51
430.271	5.46
430.476	5.43
430.681	5.39
430.886	5.39
431.09	5.39
431.295	5.35
431.5	5.26
431.705	5.2
431.91	5.18
432.115	5.17
432.32	5.19
432.524	5.2
432.729	5.17
432.934	5.16
433.139	5.18
433.343	5.24
433.548	5.22
433.753	5.28
433.958	5.28
434.162	5.27
434.367	5.26
434.572	5.24
434.776	5.27
434.981	5.29
435.186	5.26
435.39	5.27
435.595	5.2
435.799	5.21
436.004	5.21
436.209	5.22
436.413	5.24
436.618	5.21
436.822	5.18
437.027	5.12
437.231	5.13
437.436	5.16
437.64	5.14
437.845	5.11
438.049	5.11
438.253	5.06
438.458	5.07
438.662	5.04
438.867	5.08
439.071	5.1
439.275	5.13
439.48	5.1
439.684	5.1
439.888	5.06
440.093	5.05
440.297	5.06
440.501	5.08
440.706	5.05
440.91	5.11
441.114	5.1
441.318	5.04
441.523	5.04
441.727	5.05
441.931	5.12
442.135	5.15
442.339	5.16
442.543	5.21
442.748	5.17
442.952	5.18
443.156	5.13
443.36	5.12
443.564	5.14
443.768	5.14
443.972	5.11
444.176	5
444.38	5
444.584	5
444.788	4.96
444.992	4.96
445.196	4.97
445.4	4.98
445.604	4.94
445.808	4.96
446.012	4.92
446.216	4.9
446.42	4.92
446.624	4.93
446.828	4.93
447.032	4.89
447.235	4.9
447.439	4.9
447.643	4.91
447.847	4.96
448.051	4.92
448.254	4.95
448.458	4.96
448.662	5.01
448.866	4.97
449.069	4.97
449.273	5.04
449.477	5.05
449.681	5.05
449.884	5.05
450.088	5.01
450.292	5.06
450.495	5.11
450.699	5.13
450.902	5.06
451.106	5.04
451.31	5.05
451.513	4.99
451.717	4.92
451.92	4.9
452.124	4.87
452.327	4.88
452.531	4.88
452.734	4.88
452.938	4.87
453.141	4.86
453.345	4.91
453.548	4.91
453.752	4.94
453.955	4.96
454.158	4.94
454.362	4.95
454.565	4.93
454.769	4.9
454.972	4.84
455.175	4.79
455.379	4.84
455.582	4.81
455.785	4.82
455.988	4.81
456.192	4.8
456.395	4.81
456.598	4.82
456.801	4.83
457.005	4.83
457.208	4.83
457.411	4.82
457.614	4.82
457.817	4.81
458.021	4.77
458.224	4.77
458.427	4.83
458.63	4.81
458.833	4.79
459.036	4.81
459.239	4.82
459.442	4.83
459.645	4.86
459.848	4.86
460.051	4.83
460.254	4.84
460.457	4.85
460.66	4.78
460.863	4.79
461.066	4.82
461.269	4.81
461.472	4.81
461.675	4.81
461.878	4.83
462.081	4.82
462.284	4.86
462.486	4.94
462.689	4.94
462.892	5.01
463.095	5.04
463.298	4.99
463.5	5.02
463.703	5.01
463.906	4.97
464.109	4.94
464.311	4.96
464.514	5.01
464.717	4.96
464.92	4.94
465.122	4.93
465.325	4.96
465.528	4.96
465.73	4.9
465.933	4.94
466.135	4.99
466.338	5.02
466.541	4.99
466.743	4.97
466.946	4.89
467.148	4.96
467.351	4.92
467.553	4.89
467.756	4.94
467.958	4.99
468.161	4.96
468.363	4.94
468.566	4.89
468.768	4.87
468.971	4.86
469.173	4.91
469.375	4.84
469.578	4.89
469.78	4.82
469.983	4.81
470.185	4.81
470.387	4.81
470.59	4.75
470.792	4.78
470.994	4.8
471.196	4.8
471.399	4.75
471.601	4.72
471.803	4.66
472.005	4.72
472.208	4.67
472.41	4.63
472.612	4.64
472.814	4.69
473.016	4.67
473.218	4.69
473.421	4.72
473.623	4.78
473.825	4.86
474.027	4.93
474.229	4.89
474.431	4.95
474.633	4.95
474.835	4.93
475.037	4.85
475.239	4.88
475.441	4.86
475.643	4.76
475.845	4.76
476.047	4.73
476.249	4.64
476.451	4.66
476.653	4.66
476.855	4.65
477.057	4.66
477.258	4.72
477.46	4.69
477.662	4.7
477.864	4.75
478.066	4.73
478.268	4.75
478.469	4.8
478.671	4.79
478.873	4.73
479.075	4.74
479.276	4.71
479.478	4.69
479.68	4.66
479.882	4.64
480.083	4.69
480.285	4.68
480.487	4.64
480.688	4.62
480.89	4.62
481.091	4.61
481.293	4.61
481.495	4.61
481.696	4.6
481.898	4.6
482.099	4.6
482.301	4.58
482.502	4.57
482.704	4.58
482.905	4.57
483.107	4.58
483.308	4.59
483.51	4.57
483.711	4.57
483.913	4.57
484.114	4.57
484.315	4.56
484.517	4.58
484.718	4.6
484.92	4.6
485.121	4.61
485.322	4.6
485.524	4.61
485.725	4.64
485.926	4.64
486.127	4.66
486.329	4.67
486.53	4.67
486.731	4.64
486.932	4.63
487.134	4.62
487.335	4.61
487.536	4.61
487.737	4.6
487.938	4.6
488.139	4.59
488.341	4.59
488.542	4.59
488.743	4.6
488.944	4.59
489.145	4.59
489.346	4.59
489.547	4.61
489.748	4.6
489.949	4.61
490.15	4.61
490.351	4.66
490.552	4.66
490.753	4.64
490.954	4.63
491.155	4.64
491.356	4.62
491.557	4.63
491.758	4.66
491.959	4.68
492.159	4.66
492.36	4.67
492.561	4.63
492.762	4.64
492.963	4.66
493.164	4.66
493.364	4.67
493.565	4.71
493.766	4.73
493.967	4.68
494.167	4.7
494.368	4.74
494.569	4.72
494.769	4.74
494.97	4.73
495.171	4.73
495.371	4.74
495.572	4.75
495.773	4.79
495.973	4.78
496.174	4.76
496.375	4.76
496.575	4.75
496.776	4.78
496.976	4.81
497.177	4.83
497.377	4.85
497.578	4.87
497.778	4.86
497.979	4.84
498.179	4.88
498.38	4.9
498.58	4.9
498.78	4.91
498.981	4.88
499.181	4.87
499.382	4.85
499.582	4.85
499.782	4.89
499.983	4.9
500.183	4.93
500.383	4.92
500.584	4.92
500.784	4.96
500.984	4.94
501.184	4.99
501.385	4.98
501.585	5
501.785	5
501.985	4.99
502.185	4.96
502.386	4.98
502.586	5.01
502.786	5.04
502.986	5.04
503.186	5.06
503.386	5.05
503.586	5.08
503.786	5.13
503.987	5.13
504.187	5.14
504.387	5.2
504.587	5.2
504.787	5.18
504.987	5.2
505.187	5.17
505.387	5.21
505.587	5.23
505.786	5.23
505.986	5.22
506.186	5.25
506.386	5.26
506.586	5.24
506.786	5.27
506.986	5.28
507.186	5.27
507.386	5.35
507.585	5.37
507.785	5.38
507.985	5.38
508.185	5.41
508.384	5.41
508.584	5.41
508.784	5.45
508.984	5.46
509.183	5.47
509.383	5.51
509.583	5.47
509.782	5.49
509.982	5.5
510.182	5.5
510.381	5.51
510.581	5.57
510.781	5.56
510.98	5.57
511.18	5.58
511.379	5.59
511.579	5.59
511.778	5.62
511.978	5.62
512.177	5.64
512.377	5.69
512.576	5.71
512.776	5.7
512.975	5.71
513.175	5.74
513.374	5.72
513.573	5.74
513.773	5.74
513.972	5.77
514.172	5.81
514.371	5.83
514.57	5.8
514.77	5.82
514.969	5.81
515.168	5.84
515.367	5.88
515.567	5.89
515.766	5.92
515.965	5.95
516.164	6
516.364	5.99
516.563	6.01
516.762	6.05
516.961	6.06
517.16	6.12
517.359	6.18
517.559	6.17
517.758	6.2
517.957	6.21
518.156	6.24
518.355	6.24
518.554	6.25
518.753	6.26
518.952	6.27
519.151	6.28
519.35	6.29
519.549	6.27
519.748	6.32
519.947	6.35
520.146	6.38
520.345	6.4
520.544	6.42
520.743	6.47
520.942	6.48
521.141	6.5
521.339	6.53
521.538	6.53
521.737	6.56
521.936	6.54
522.135	6.58
522.333	6.59
522.532	6.56
522.731	6.59
522.93	6.62
523.129	6.65
523.327	6.67
523.526	6.66
523.725	6.7
523.923	6.7
524.122	6.71
524.321	6.72
524.519	6.7
524.718	6.69
524.917	6.71
525.115	6.7
525.314	6.73
525.512	6.76
525.711	6.82
525.909	6.82
526.108	6.83
526.306	6.86
526.505	6.84
526.703	6.88
526.902	6.92
527.1	6.92
527.299	6.95
527.497	6.97
527.696	6.98
527.894	6.98
528.092	6.98
528.291	7
528.489	7.02
528.688	7.04
528.886	7.06
529.084	7.08
529.283	7.09
529.481	7.1
529.679	7.1
529.877	7.12
530.076	7.13
530.274	7.17
530.472	7.19
530.67	7.22
530.869	7.26
531.067	7.28
531.265	7.31
531.463	7.34
531.661	7.34
531.859	7.39
532.057	7.42
532.255	7.43
532.454	7.41
532.652	7.42
532.85	7.41
533.048	7.41
533.246	7.43
533.444	7.42
533.642	7.45
533.84	7.45
534.038	7.44
534.236	7.48
534.434	7.51
534.632	7.56
534.83	7.59
535.027	7.64
535.225	7.67
535.423	7.69
535.621	7.73
535.819	7.76
536.017	7.8
536.215	7.83
536.412	7.8
536.61	7.83
536.808	7.83
537.006	7.84
537.203	7.9
537.401	7.9
537.599	7.93
537.797	7.95
537.994	7.94
538.192	8
538.39	8.01
538.587	8.02
538.785	8.04
538.983	8.08
539.18	8.12
539.378	8.12
539.575	8.17
539.773	8.19
539.97	8.21
540.168	8.21
540.366	8.21
540.563	8.23
540.761	8.27
540.958	8.29
541.155	8.31
541.353	8.35
541.55	8.38
541.748	8.39
541.945	8.43
542.143	8.43
542.34	8.5
542.537	8.53
542.735	8.58
542.932	8.61
543.129	8.65
543.327	8.68
543.524	8.69
543.721	8.72
543.919	8.75
544.116	8.78
544.313	8.85
544.51	8.85
544.708	8.87
544.905	8.86
545.102	8.85
545.299	8.87
545.496	8.87
545.693	8.91
545.891	8.91
546.088	8.95
546.285	8.96
546.482	8.96
546.679	8.99
546.876	9
547.073	9.06
547.27	9.17
547.467	9.23
547.664	9.26
547.861	9.32
548.058	9.36
548.255	9.38
548.452	9.44
548.649	9.49
548.846	9.54
549.043	9.55
549.24	9.57
549.437	9.53
549.633	9.51
549.83	9.55
550.027	9.57
550.224	9.66
550.421	9.65
550.618	9.66
550.814	9.7
551.011	9.73
551.208	9.84
551.405	9.87
551.601	9.88
551.798	9.93
551.995	9.98
552.191	10
552.388	9.96
552.585	10.02
552.781	10.08
552.978	10.12
553.175	10.15
553.371	10.13
553.568	10.16
553.764	10.25
553.961	10.28
554.157	10.31
554.354	10.31
554.55	10.39
554.747	10.43
554.943	10.49
555.14	10.49
555.336	10.54
555.533	10.57
555.729	10.66
555.926	10.7
556.122	10.74
556.318	10.75
556.515	10.77
556.711	10.82
556.907	10.82
557.104	10.82
557.3	10.85
557.496	10.89
557.693	10.95
557.889	10.95
558.085	10.97
558.281	10.98
558.478	11.01
558.674	11.09
558.87	11.07
559.066	11.11
559.262	11.11
559.459	11.12
559.655	11.15
559.851	11.15
560.047	11.17
560.243	11.19
560.439	11.21
560.635	11.24
560.831	11.24
561.027	11.31
561.223	11.34
561.419	11.41
561.615	11.43
561.811	11.46
562.007	11.44
562.203	11.45
562.399	11.46
562.595	11.5
562.791	11.52
562.987	11.57
563.183	11.58
563.379	11.61
563.575	11.65
563.771	11.78
563.966	11.79
564.162	11.89
564.358	11.96
564.554	11.96
564.75	11.98
564.945	12
565.141	11.98
565.337	12
565.533	12.02
565.728	12.08
565.924	12.04
566.12	12.09
566.315	12.1
566.511	12.07
566.707	12.13
566.902	12.15
567.098	12.13
567.293	12.18
567.489	12.21
567.684	12.24
567.88	12.2
568.076	12.21
568.271	12.19
568.467	12.21
568.662	12.29
568.858	12.3
569.053	12.31
569.248	12.4
569.444	12.43
569.639	12.44
569.835	12.49
570.03	12.56
570.225	12.55
570.421	12.61
570.616	12.66
570.812	12.65
571.007	12.64
571.202	12.67
571.397	12.68
571.593	12.67
571.788	12.7
571.983	12.71
572.178	12.7
572.374	12.78
572.569	12.78
572.764	12.79
572.959	12.8
573.154	12.88
573.35	12.9
573.545	12.92
573.74	12.94
573.935	12.97
574.13	13.03
574.325	13.01
574.52	13.01
574.715	13.02
574.91	13.02
575.105	13.04
575.3	13.06
575.495	13.12
575.69	13.13
575.885	13.18
576.08	13.21
576.275	13.18
576.47	13.25
576.665	13.26
576.86	13.3
577.055	13.32
577.25	13.36
577.444	13.41
577.639	13.43
577.834	13.49
578.029	13.54
578.224	13.55
578.418	13.59
578.613	13.6
578.808	13.68
579.003	13.71
579.197	13.74
579.392	13.75
579.587	13.71
579.781	13.71
579.976	13.65
580.171	13.59
580.365	13.64
580.56	13.62
580.755	13.67
580.949	13.67
581.144	13.67
581.338	13.69
581.533	13.75
581.727	13.78
581.922	13.76
582.116	13.83
582.311	13.87
582.505	13.85
582.7	13.87
582.894	13.86
583.089	13.81
583.283	13.8
583.478	13.82
583.672	13.77
583.866	13.8
584.061	13.83
584.255	13.8
584.449	13.84
584.644	13.87
584.838	13.89
585.032	13.86
585.226	13.89
585.421	13.91
585.615	13.89
585.809	13.9
586.003	13.87
586.198	13.91
586.392	13.91
586.586	13.95
586.78	13.92
586.974	13.99
587.168	14.04
587.363	13.97
587.557	14.06
587.751	14.05
587.945	14.04
588.139	14.03
588.333	14.02
588.527	14.11
588.721	14.11
588.915	14.09
589.109	14.03
589.303	13.96
589.497	14.05
589.691	14
589.885	14.04
590.079	14.05
590.273	14.13
590.466	14.15
590.66	14.12
590.854	14.15
591.048	14.15
591.242	14.19
591.436	14.28
591.629	14.29
591.823	14.31
592.017	14.3
592.211	14.28
592.404	14.26
592.598	14.2
592.792	14.21
592.986	14.17
593.179	14.23
593.373	14.17
593.567	14.14
593.76	14.16
593.954	14.17
594.147	14.2
594.341	14.24
594.535	14.28
594.728	14.33
594.922	14.33
595.115	14.35
595.309	14.38
595.502	14.49
595.696	14.49
595.889	14.51
596.083	14.47
596.276	14.4
596.47	14.39
596.663	14.39
596.856	14.43
597.05	14.38
597.243	14.34
597.437	14.32
597.63	14.28
597.823	14.29
598.017	14.31
598.21	14.36
598.403	14.42
598.596	14.46
598.79	14.45
598.983	14.45
599.176	14.49
599.369	14.54
599.563	14.54
599.756	14.59
599.949	14.57
600.142	14.53
600.335	14.51
600.528	14.52
600.722	14.55
600.915	14.54
601.108	14.55
601.301	14.63
601.494	14.62
601.687	14.6
601.88	14.57
602.073	14.64
602.266	14.62
602.459	14.64
602.652	14.64
602.845	14.65
603.038	14.66
603.231	14.63
603.424	14.6
603.617	14.64
603.809	14.62
604.002	14.63
604.195	14.61
604.388	14.65
604.581	14.64
604.774	14.66
604.966	14.67
605.159	14.64
605.352	14.71
605.545	14.72
605.737	14.7
605.93	14.74
606.123	14.67
606.316	14.7
606.508	14.71
606.701	14.79
606.894	14.84
607.086	14.88
607.279	14.92
607.471	14.88
607.664	14.89
607.857	14.95
608.049	15.01
608.242	15.07
608.434	15.08
608.627	15.07
608.819	14.99
609.012	14.99
609.204	14.97
609.397	14.98
609.589	14.99
609.782	14.95
609.974	14.89
610.166	14.91
610.359	14.9
610.551	14.84
610.743	14.85
610.936	14.88
611.128	14.91
611.32	14.93
611.513	14.96
611.705	14.97
611.897	14.99
612.09	15.03
612.282	15
612.474	14.98
612.666	15.08
612.858	15.06
613.051	15.03
613.243	14.97
613.435	14.99
613.627	14.93
613.819	14.93
614.011	14.96
614.203	14.92
614.395	14.91
614.588	14.96
614.78	14.85
614.972	14.91
615.164	14.85
615.356	14.86
615.548	14.84
615.74	14.9
615.932	14.86
616.124	14.83
616.315	14.88
616.507	14.89
616.699	14.95
616.891	15.03
617.083	15.04
617.275	15.18
617.467	15.1
617.659	15.03
617.85	15
618.042	14.97
618.234	14.97
618.426	15
618.618	15.04
618.809	15
619.001	14.99
619.193	14.97
619.384	14.91
619.576	15.01
619.768	15.17
619.959	15.16
620.151	15.25
620.343	15.28
620.534	15.28
620.726	15.24
620.917	15.28
621.109	15.28
621.301	15.28
621.492	15.22
621.684	15.16
621.875	15.08
622.067	15.09
622.258	15.08
622.45	15.09
622.641	15.1
622.832	15.1
623.024	15.06
623.215	15.09
623.407	15.06
623.598	15.12
623.789	15.18
623.981	15.08
624.172	15.16
624.363	15.19
624.555	15.22
624.746	15.22
624.937	15.23
625.129	15.19
625.32	15.13
625.511	15.12
625.702	15.07
625.893	15.05
626.085	15.17
626.276	15.16
626.467	15.16
626.658	15.13
626.849	15.11
627.04	15.13
627.231	15.17
627.422	15.21
627.614	15.29
627.805	15.38
627.996	15.39
628.187	15.32
628.378	15.28
628.569	15.24
628.76	15.21
628.951	15.23
629.142	15.21
629.332	15.15
629.523	15.19
629.714	15.19
629.905	15.17
630.096	15.15
630.287	15.2
630.478	15.22
630.669	15.33
630.859	15.33
631.05	15.33
631.241	15.38
631.432	15.4
631.623	15.39
631.813	15.34
632.004	15.32
632.195	15.4
632.385	15.37
632.576	15.33
632.767	15.21
632.957	15.31
633.148	15.29
633.339	15.18
633.529	15.24
633.72	15.29
633.91	15.23
634.101	15.26
634.292	15.15
634.482	15.11
634.673	15.1
634.863	15.17
635.054	15.11
635.244	15.18
635.435	15.27
635.625	15.26
635.815	15.24
636.006	15.3
636.196	15.36
636.387	15.4
636.577	15.44
636.767	15.48
636.958	15.47
637.148	15.41
637.338	15.37
637.529	15.4
637.719	15.42
637.909	15.32
638.099	15.43
638.29	15.35
638.48	15.48
638.67	15.5
638.86	15.52
639.05	15.56
639.241	15.68
639.431	15.66
639.621	15.63
639.811	15.62
640.001	15.62
640.191	15.49
640.381	15.4
640.571	15.26
640.761	15.33
640.951	15.27
641.141	15.22
641.331	15.18
641.521	15.18
641.711	15.14
641.901	15.12
642.091	15.16
642.281	15.2
642.471	15.23
642.661	15.33
642.851	15.34
643.041	15.37
643.231	15.3
643.42	15.28
643.61	15.25
643.8	15.23
643.99	15.32
644.18	15.27
644.369	15.28
644.559	15.36
644.749	15.29
644.939	15.19
645.128	15.11
645.318	15.21
645.508	15.25
645.697	15.28
645.887	15.38
646.076	15.33
646.266	15.44
646.456	15.37
646.645	15.39
646.835	15.43
647.024	15.55
647.214	15.63
647.403	15.55
647.593	15.6
647.782	15.6
647.972	15.54
648.161	15.42
648.351	15.39
648.54	15.45
648.73	15.41
648.919	15.43
649.108	15.35
649.298	15.29
649.487	15.39
649.677	15.31
649.866	15.39
650.055	15.46
650.244	15.56
650.434	15.61
650.623	15.54
650.812	15.53
651.002	15.45
651.191	15.49
651.38	15.62
651.569	15.59
651.758	15.61
651.947	15.48
652.137	15.39
652.326	15.36
652.515	15.34
652.704	15.5
652.893	15.53
653.082	15.62
653.271	15.63
653.46	15.58
653.649	15.64
653.838	15.63
654.027	15.71
654.216	15.71
654.405	15.84
654.594	15.76
654.783	15.69
654.972	15.67
655.161	15.67
655.35	15.67
655.539	15.63
655.728	15.67
655.916	15.59
656.105	15.64
656.294	15.7
656.483	15.55
656.672	15.64
656.86	15.57
657.049	15.61
657.238	15.62
657.427	15.51
657.615	15.5
657.804	15.42
657.993	15.43
658.181	15.34
658.37	15.32
658.559	15.36
658.747	15.37
658.936	15.5
659.125	15.38
659.313	15.38
659.502	15.43
659.69	15.45
659.879	15.44
660.067	15.51
660.256	15.59
660.444	15.68
660.633	15.66
660.821	15.59
661.01	15.51
661.198	15.63
661.387	15.6
661.575	15.69
661.763	15.77
661.952	15.75
662.14	15.82
662.328	15.77
662.517	15.72
662.705	15.72
662.893	15.76
663.082	15.77
663.27	15.71
663.458	15.67
663.646	15.65
663.834	15.71
664.023	15.71
664.211	15.71
664.399	15.7
664.587	15.64
664.775	15.67
664.963	15.74
665.152	15.72
665.34	15.78
665.528	15.81
665.716	15.78
665.904	15.67
666.092	15.77
666.28	15.75
666.468	15.83
666.656	15.87
666.844	15.93
667.032	15.87
667.22	15.86
667.408	15.82
667.596	15.91
667.784	15.95
667.971	15.97
668.159	15.92
668.347	15.91
668.535	15.83
668.723	15.83
668.911	15.76
669.098	15.64
669.286	15.66
669.474	15.79
669.662	15.74
669.849	15.76
670.037	15.73
670.225	15.72
670.413	15.72
670.6	15.8
670.788	15.83
670.976	15.86
671.163	15.96
671.351	15.94
671.538	15.86
671.726	15.94
671.913	15.86
672.101	15.7
672.289	15.83
672.476	15.81
672.664	15.75
672.851	15.76
673.039	15.84
673.226	15.82
673.413	15.84
673.601	15.79
673.788	15.71
673.976	15.6
674.163	15.71
674.35	15.53
674.538	15.53
674.725	15.55
674.912	15.54
675.1	15.5
675.287	15.57
675.474	15.61
675.662	15.81
675.849	15.8
676.036	15.95
676.223	16.12
676.411	16.14
676.598	16.18
676.785	16.23
676.972	16.17
677.159	16.31
677.346	16.24
677.533	16.19
677.721	16.06
677.908	16.17
678.095	16.22
678.282	16.23
678.469	16.24
678.656	16.18
678.843	16.1
679.03	16.2
679.217	16.1
679.404	16.09
679.591	16.08
679.778	16.04
679.964	16
680.151	15.95
680.338	15.88
680.525	15.92
680.712	15.98
680.899	16.09
681.086	16.07
681.272	16.01
681.459	16.05
681.646	16.04
681.833	16.09
682.02	16.09
682.206	16.12
682.393	16.15
682.58	16.04
682.766	16.07
682.953	16.01
683.14	16.1
683.326	16.18
683.513	16.23
683.7	16.32
683.886	16.31
684.073	16.21
684.259	16.18
684.446	16.21
684.632	16.32
684.819	16.3
685.005	16.19
685.192	16.01
685.378	16.04
685.565	15.93
685.751	15.92
685.938	15.98
686.124	15.97
686.31	15.93
686.497	15.85
686.683	15.89
686.87	15.91
687.056	15.97
687.242	16
687.429	16.01
687.615	16.03
687.801	16.14
687.987	16.11
688.174	16.17
688.36	16.24
688.546	16.28
688.732	16.27
688.918	16.21
689.105	16.23
689.291	16.25
689.477	16.24
689.663	16.28
689.849	15.98
690.035	16.08
690.221	16.07
690.407	15.96
690.593	15.91
690.779	16.01
690.965	16.11
691.151	16.21
691.337	16.32
691.523	16.35
691.709	16.38
691.895	16.54
692.081	16.5
692.267	16.61
692.453	16.69
692.639	16.69
692.825	16.61
693.011	16.53
693.196	16.39
693.382	16.35
693.568	16.32
693.754	16.22
693.94	16.2
694.125	16.12
694.311	16.03
694.497	16.19
694.682	16.19
694.868	16.27
695.054	16.38
695.239	16.4
695.425	16.39
695.611	16.45
695.796	16.59
695.982	16.69
696.168	16.65
696.353	16.69
696.539	16.54
696.724	16.52
696.91	16.42
697.095	16.29
697.281	16.32
697.466	16.23
697.652	16.16
697.837	16.15
698.023	16.11
698.208	16.17
698.393	16.16
698.579	16.21
698.764	16.26
698.949	16.28
699.135	16.33
699.32	16.32
699.505	16.39
699.691	16.36
699.876	16.3
700.061	16.37
700.246	16.35
700.432	16.35
700.617	16.37
700.802	16.48
700.987	16.5
701.172	16.24
701.358	16.12
701.543	16.24
701.728	16.28
701.913	16.22
702.098	16.18
702.283	16.11
702.468	16.16
702.653	15.95
702.838	15.96
703.023	15.92
703.208	16.28
703.393	16.27
703.578	16.22
703.763	16.17
703.948	16.26
704.133	16.38
704.318	16.42
704.503	16.4
704.688	16.55
704.873	16.29
705.057	16.32
705.242	16.21
705.427	16.35
705.612	16.32
705.797	16.5
705.981	16.58
706.166	16.57
706.351	16.61
706.536	16.77
706.72	16.69
706.905	16.76
707.09	16.7
707.274	16.69
707.459	16.56
707.644	16.51
707.828	16.37
708.013	16.37
708.197	16.28
708.382	16.29
708.567	16.07
708.751	16.13
708.936	16.11
709.12	16.24
709.305	16.26
709.489	16.41
709.673	16.36
709.858	16.39
710.042	16.41
710.227	16.3
710.411	16.14
710.596	16.33
710.78	16.39
710.964	16.41
711.149	16.39
711.333	16.45
711.517	16.47
711.702	16.68
711.886	16.71
712.07	16.63
712.254	16.83
712.438	17.03
712.623	17.05
712.807	16.97
712.991	16.99
713.175	16.92
713.359	17.01
713.544	17.13
713.728	16.93
713.912	16.82
714.096	16.87
714.28	16.84
714.464	16.77
714.648	16.61
714.832	16.7
715.016	16.62
715.2	16.52
715.384	16.5
715.568	16.31
715.752	16.36
715.936	16.45
716.12	16.48
716.304	16.37
716.488	16.3
716.671	16.32
716.855	16.17
717.039	16.42
717.223	16.54
717.407	16.41
717.59	16.3
717.774	16.2
717.958	16.3
718.142	16.16
718.325	16.31
718.509	16.53
718.693	16.51
718.877	16.48
719.06	16.21
719.244	16.12
719.428	16.21
719.611	16.44
719.795	16.4
719.978	16.44
720.162	16.58
720.345	16.48
720.529	16.32
720.713	16.4
720.896	16.55
721.08	16.61
721.263	16.62
721.446	16.56
721.63	16.51
721.813	16.62
721.997	16.46
722.18	16.63
722.364	16.72
722.547	16.79
722.73	16.64
722.914	16.72
723.097	16.83
723.28	16.72
723.464	16.73
723.647	16.88
723.83	16.93
724.013	16.87
724.197	16.79
724.38	16.71
724.563	16.59
724.746	16.75
724.929	16.8
725.112	16.68
725.296	16.82
725.479	16.81
725.662	16.61
725.845	16.71
726.028	16.57
726.211	16.52
726.394	16.51
726.577	16.61
726.76	16.56
726.943	16.49
727.126	16.43
727.309	16.48
727.492	16.68
727.675	16.62
727.858	16.39
728.041	16.56
728.224	16.5
728.407	16.41
728.589	16.43
728.772	16.4
728.955	16.44
729.138	16.55
729.321	16.39
729.503	16.45
729.686	16.53
729.869	16.66
730.052	16.81
730.234	16.81
730.417	16.89
730.6	16.7
730.782	16.75
730.965	16.64
731.148	16.58
731.33	16.69
731.513	16.54
731.695	16.61
731.878	16.73
732.061	16.53
732.243	16.45
732.426	16.48
732.608	16.82
732.791	16.76
732.973	16.67
733.156	16.86
733.338	16.95
733.52	16.87
733.703	16.88
733.885	16.95
734.068	16.87
734.25	16.84
734.432	16.87
734.615	16.78
734.797	16.75
734.979	16.8
735.162	16.63
735.344	16.56
735.526	16.59
735.708	16.58
735.891	16.45
736.073	16.76
736.255	17.13
736.437	17.12
736.619	16.74
736.802	16.91
736.984	16.96
737.166	17.08
737.348	17.03
737.53	17.05
737.712	17.07
737.894	16.97
738.076	16.9
738.258	16.55
738.44	16.47
738.622	16.74
738.804	16.57
738.986	16.65
739.168	16.72
739.35	17.03
739.532	17
739.714	16.81
739.896	16.89
740.078	16.73
740.259	16.99
740.441	17.08
740.623	16.99
740.805	17.04
740.987	17.06
741.168	16.8
741.35	16.46
741.532	16.55
741.714	16.77
741.895	16.86
742.077	17
742.259	16.87
742.44	16.84
742.622	16.67
742.804	16.75
742.985	16.63
743.167	16.8
743.348	16.86
743.53	17
743.711	16.92
743.893	16.73
744.075	16.66
744.256	16.45
744.438	16.28
744.619	16.26
744.8	16.2
744.982	16.37
745.163	16.41
745.345	16.26
745.526	16.24
745.707	16.28
745.889	16.16
746.07	16.23
746.252	16.53
746.433	16.69
746.614	16.92
746.795	17.13
746.977	17.14
747.158	17.25
747.339	17.23
747.52	16.95
747.702	17.07
747.883	17.08
748.064	16.92
748.245	16.68
748.426	16.53
748.607	16.76
748.788	16.65
748.97	16.37
749.151	16.29
749.332	16.51
749.513	17.03
749.694	16.88
749.875	17.15
750.056	17.42
750.237	17.52
750.418	17.75
750.599	17.32
750.78	17.23
750.96	17.52
751.141	17.82
751.322	17.94
751.503	17.4
751.684	17.2
751.865	17.18
752.046	17.09
752.226	17.26
752.407	17.13
752.588	17.49
752.769	17.74
752.949	17.74
753.13	17.37
753.311	17.36
753.492	17.66
753.672	17.68
753.853	17.66
754.034	17.72
754.214	17.76
754.395	17.51
754.575	17.4
754.756	17.13
754.937	16.97
755.117	17.05
755.298	17.12
755.478	17.06
755.659	17.29
755.839	17.12
756.02	16.97
756.2	16.58
756.381	16.81
756.561	16.43
756.741	16.65
756.922	16.81
757.102	16.94
757.283	16.8
757.463	16.69
757.643	16.59
757.823	16.84
758.004	16.76
758.184	17.28
758.364	17.6
758.545	17.92
758.725	17.92
758.905	17.82
759.085	17.87
759.265	17.71
759.446	17.58
759.626	17.77
759.806	17.86
759.986	17.88
760.166	17.47
760.346	17.13
760.526	17.08
760.706	17.11
760.886	17.2
761.066	17.03
761.246	17.23
761.426	17.2
761.606	16.96
761.786	16.85
761.966	17.21
762.146	17.29
762.326	17.4
762.506	17.47
762.686	17.38
762.866	17.19
763.046	17.07
763.225	17.04
763.405	17.15
763.585	17.38
763.765	17.34
763.945	17.07
764.124	17.18
764.304	17.15
764.484	17.22
764.664	17.23
764.843	17.32
765.023	17.55
765.203	17.48
765.382	17.61
765.562	17.48
765.741	17.48
765.921	17.52
766.101	17.45
766.28	17.55
766.46	17.33
766.639	17.37
766.819	17.29
766.998	17.36
767.178	17.32
767.357	17.18
767.537	17.03
767.716	17.2
767.896	17.43
768.075	17.32
768.254	17.4
768.434	17.57
768.613	17.31
768.792	17.61
768.972	17.42
769.151	17.71
769.33	17.91
769.51	18.21
769.689	17.83
769.868	17.72
770.047	17.83
770.226	17.67
770.406	17.69
770.585	17.88
770.764	17.82
770.943	17.84
771.122	17.71
771.301	17.35
771.48	17.73
771.66	18.18
771.839	18.18
772.018	18.17
772.197	18.47
772.376	18.19
772.555	18.41
772.734	18.24
772.913	18.41
773.092	18.27
773.271	18.39
773.449	17.71
773.628	17.55
773.807	17.54
773.986	17.43
774.165	17.28
774.344	17.31
774.523	17.22
774.701	17.4
774.88	16.99
775.059	17.4
775.238	17.13
775.417	17.15
775.595	17.31
775.774	17.81
775.953	17.81
776.131	17.14
776.31	17.15
776.489	16.92
776.667	16.84
776.846	17.24
777.025	16.98
777.203	17.64
777.382	17.62
777.56	17.26
777.739	16.88
777.917	16.91
778.096	17.46
778.274	17.94
778.453	18.45
778.631	18.41
778.81	18.15
778.988	18.06
779.166	18
779.345	18
779.523	18.13
779.702	18.16
779.88	18.2
780.058	18.21
780.237	17.98
780.415	18.01
780.593	17.84
780.771	17.91
780.95	18.08
781.128	17.6
781.306	18.18
781.484	18.09
781.662	18.03
781.841	17.91
782.019	17.75
782.197	17.7
782.375	17.38
782.553	18.03
782.731	18.23
782.909	18.13
783.087	18.53
783.265	18.27
783.443	18.44
783.621	18
783.799	18.62
783.977	18.74
784.155	18.23
784.333	18.26
784.511	17.74
784.689	17.52
784.867	18.18
785.045	17.54
785.223	17.48
785.4	17.27
785.578	17.68
785.756	17.34
785.934	17.04
786.112	17.29
786.289	17.18
786.467	17.15
786.645	17.68
786.823	17.22
787	17.71
787.178	17.59
787.356	17.76
787.533	17.84
787.711	18.11
787.889	18.84
788.066	19.15
788.244	18.9
788.421	19.01
788.599	18.54
788.776	18.35
788.954	18.39
789.131	18.49
789.309	18.24
789.486	18.66
789.664	18.61
789.841	17.79
790.019	17.69
790.196	17.98
790.373	17.92
790.551	17.74
790.728	17.97
790.906	17.8
791.083	17.04
791.26	17.07
791.437	16.22
791.615	16.11
791.792	16.44
791.969	16.66
792.146	16.58
792.324	17.07
792.501	17.82
792.678	17.68
792.855	17.41
793.032	18.07
793.209	18.56
793.387	19.13
793.564	18.78
793.741	19.16
793.918	18.71
794.095	18.68
794.272	18.69
794.449	18.25
794.626	18.22
794.803	17.99
794.98	17.82
795.157	17.66
795.334	17.21
795.511	17.07
795.688	16.89
795.864	17.1
796.041	17.4
796.218	17.12
796.395	17.16
796.572	17.09
796.749	17.07
796.925	17.74
797.102	17.6
797.279	17.67
797.456	18.1
797.632	17.95
797.809	18.21
797.986	17.75
798.162	18.07
798.339	18.17
798.516	18.08
798.692	18.69
798.869	18.33
799.046	18.12
799.222	18.44
799.399	18.31
799.575	18.43
799.752	17.95
799.928	18.19
800.105	17.69
800.281	17.47
800.458	17.6
800.634	17.41
800.811	17.58
800.987	18.1
801.163	17.69
801.34	17.39
801.516	17.4
801.692	17.54
801.869	17.74
802.045	18.16
802.221	18.4
802.398	18.39
802.574	18.76
802.75	18.77
802.926	18.94
803.103	18.86
803.279	19.95
803.455	19.9
803.631	20.43
803.807	19.77
803.983	19.3
804.16	19.15
804.336	19.22
804.512	18.39
804.688	18.96
804.864	18.51
805.04	19.53
805.216	18.88
805.392	18.64
805.568	18.49
805.744	19.21
805.92	19.05
806.096	19.14
806.272	19.53
806.448	20.2
806.623	19.28
806.799	19.39
806.975	18.66
807.151	18.46
807.327	18.19
807.503	18.61
807.678	18.07
807.854	18.51
808.03	18.83
808.206	18.64
808.381	18.48
808.557	18.48
808.733	18.36
808.908	18.23
809.084	18.65
809.26	18.63
809.435	18.37
809.611	19.07
809.787	19.12
809.962	18.78
810.138	18.22
810.313	18.67
810.489	18.24
810.664	18.63
810.84	18.22
811.015	18.91
811.191	19.34
811.366	18.74
811.542	18.23
811.717	17.9
811.892	18.24
812.068	18.59
812.243	18.64
812.419	19.2
812.594	19.55
812.769	20.69
812.944	19.96
813.12	19.54
813.295	19.77
813.47	20.21
813.645	20.47
813.821	20.58
813.996	20.8
814.171	20.73
814.346	20.76
814.521	20.09
814.697	19.44
814.872	19.47
815.047	19.75
815.222	19.33
815.397	19.27
815.572	19.32
815.747	19.2
815.922	18.41
816.097	17.71
816.272	17.65
816.447	17.85
816.622	17.95
816.797	17.91
816.972	18.67
817.147	19.59
817.322	18.79
817.496	18.63
817.671	18.96
817.846	19.51
818.021	19.37
818.196	18.85
818.371	19.13
818.545	19.22
818.72	19.18
818.895	18.81
819.069	18.48
819.244	19.11
819.419	19.09
819.594	18.73
819.768	18.64
819.943	18.8
820.117	18.93
820.292	18.76
820.467	18.78
820.641	18.69
820.816	18.36
820.99	18.32
821.165	18.09
821.339	18.07
821.514	17.96
821.688	17.92
821.863	17.89
822.037	17.99
822.212	17.93
822.386	17.84
822.56	17.78
822.735	17.94
822.909	17.94
823.084	18.01
823.258	17.98
823.432	17.99
823.606	17.97
823.781	18.05
823.955	18.02
824.129	17.92
824.303	17.8
824.478	17.8
824.652	17.8
824.826	17.56
825	17.5
825.174	17.38
825.348	17.47
825.523	17.72
825.697	17.36
825.871	17.25
826.045	17.5
826.219	17.68
826.393	17.72
826.567	17.84
826.741	18.15
826.915	18.31
827.089	18.41
827.263	18.54
827.437	18.69
827.611	18.96
827.784	18.91
827.958	18.81
828.132	18.87
828.306	19.01
828.48	18.76
828.654	18.73
828.827	18.6
829.001	18.98
829.175	18.7
829.349	18.57
829.522	19.05
829.696	19.68
829.87	20.13
830.044	20.28
830.217	20.52
830.391	20.68
830.565	21.04
830.738	20.92
830.912	20.32
831.085	20.67
831.259	20.61
831.432	20.28
831.606	20.14
831.779	19.76
831.953	19.28
832.126	19
832.3	18.87
832.473	18.6
832.647	18.91
832.82	18.98
832.994	18.95
833.167	18.57
833.34	18.52
833.514	17.96
833.687	17.86
833.86	17.82
834.034	17.8
834.207	18.03
834.38	17.63
834.553	17.59
834.727	17.75
834.9	17.11
835.073	17.09
835.246	16.88
835.419	17.27
835.593	17.52
835.766	18.1
835.939	17.52
836.112	17.31
836.285	17.71
836.458	17.59
836.631	17.97
836.804	18.71
836.977	18.73
837.15	18.73
837.323	17.89
837.496	16.77
837.669	16.46
837.842	17.4
838.015	17.43
838.188	17.45
838.361	18.06
838.533	17.7
838.706	17.18
838.879	17.77
839.052	17.61
839.225	18.85
839.398	20.19
839.57	19.16
839.743	18.79
839.916	19.34
840.088	19.06
840.261	18.93
840.434	18.27
840.607	18.69
840.779	18.73
840.952	19.45
841.124	19.74
841.297	20.19
841.47	21.45
841.642	22.08
841.815	20.77
841.987	20.85
842.16	20.3
842.332	20.7
842.505	20.36
842.677	20.01
842.85	20.23
843.022	20.26
843.194	20.55
843.367	20.84
843.539	19.61
843.712	20.63
843.884	22.07
844.056	21.59
844.229	21.66
844.401	22.28
844.573	23.01
844.745	22.54
844.918	22.4
845.09	21.39
845.262	20.26
845.434	21.43
845.606	21.25
845.779	20.59
845.951	21.54
846.123	22.42
846.295	22.88
846.467	22.6
846.639	22.17
846.811	21.66
846.983	20.44
847.155	20.42
847.327	20.01
847.499	19.7
847.671	19.27
847.843	17.81
848.015	17.41
848.187	17.89
848.359	16.84
848.531	17.33
848.703	16.77
848.875	18.19
849.047	20.06
849.218	21.4
849.39	22.22
849.562	24.3
849.734	24.08
849.905	23
850.077	23.18
850.249	21.97
850.421	21.48
850.592	20.03
850.764	17.53
850.936	15.34
851.107	14.02
851.279	13.08
851.451	11.21
851.622	12.57
851.794	15.65
851.965	15.2
852.137	17.54
852.308	16
852.48	17.24
852.651	18.78
852.823	19.53
852.994	21.37
853.166	22.02
853.337	21.58
853.509	22.21
853.68	20.94
853.851	22.14
854.023	22.52
854.194	25.26
854.365	26.89
854.537	27.33
854.708	26.69
854.879	23.55
855.05	23.4
855.222	24.58
855.393	24.19
855.564	20.66
855.735	16.84
855.906	17.36
856.078	15.27
856.249	16.72
856.42	14.21
856.591	14.89
856.762	18.96
856.933	19.72
857.104	17.72
857.275	17.88
857.446	19.95
857.617	21.57
857.788	21.91
857.959	20.79
858.13	19.14
858.301	21.79
858.472	21.76
858.643	18.55
858.814	17.93
858.985	20
859.155	21.59
859.326	22.49
859.497	24.57
859.668	21.61
859.839	24.98
860.009	26.58
860.18	24.2
860.351	24.85
860.522	24.74
860.692	24.42
860.863	24.23
861.034	23.38
861.204	25.41
861.375	24.19
861.546	24.34
861.716	21.11
861.887	18.06
862.057	19.45
862.228	19.29
862.398	19.11
862.569	23.08
862.739	21.89
862.91	22.99
863.08	20.8
863.251	16.63
863.421	15.93
863.592	18.23
863.762	19.26
863.932	19.4
864.103	20.26
864.273	21.13
864.443	18.35
864.614	17.03
864.784	15.14
864.954	14.4
865.125	18.06
865.295	21.89
865.465	20.6
865.635	18.17
865.805	17.49
865.976	15.22
866.146	14.79
866.316	12.69
866.486	13.38
866.656	12.18
866.826	11.78
866.996	10.79
867.166	8.13
867.336	9.72
867.506	12.61
867.676	11.91
867.846	12.25
868.016	14.49
868.186	15.84
868.356	16.29
868.526	17.71
868.696	19.51
868.866	21.59
869.036	20.35
869.206	22.59
869.376	23.16
869.545	24.72
869.715	23.83
869.885	22.94
870.055	23.81
870.224	25.63
870.394	27.33
870.564	28.89
870.734	25.23
870.903	26.5
871.073	24.45
871.243	25.92
871.412	26.64
871.582	29.08
871.751	28.61
871.921	29.42
872.091	27.47
872.26	26.53
872.43	23.68
872.599	24.58
872.769	25.6
872.938	24.47
873.108	24.39
873.277	23.38
873.446	23.97
873.616	22.76
873.785	21.87
873.955	23.57
874.124	24.14
874.293	24.15
874.463	26.53
874.632	24
874.801	24.53
874.971	22.27
875.14	23.11
875.309	20.12
875.478	20.4
875.647	21.43
875.817	21.37
875.986	17.87
876.155	18.66
876.324	17.17
876.493	21.03
876.662	22.85
876.831	21.57
877	23.11
877.17	26.43
877.339	29.82
877.508	29.48
877.677	30.12
877.846	31.16
878.015	30.98
878.184	31.21
878.352	29.9
878.521	28.99
878.69	30.1
878.859	28.52
879.028	25.51
879.197	23.57
879.366	22.31
879.534	22.22
879.703	21.59
879.872	21.85
880.041	22.69
880.21	22.3
880.378	21.73
880.547	21.66
880.716	21.45
880.884	21.73
881.053	21.29
881.222	20.68
881.39	20.26
881.559	20.68
881.727	20.63
881.896	20.34
882.065	20.03
882.233	20.18
882.402	20.12
882.57	19.86
882.739	19.59
882.907	19.85
883.076	20.39
883.244	20.36
883.412	20.25
883.581	19.59
883.749	19.28
883.918	19.56
884.086	19.69
884.254	19.39
884.423	19.95
884.591	20.67
884.759	19.86
884.927	19.71
885.096	18.97
885.264	18.25
885.432	18.98
885.6	18.86
885.769	18.2
885.937	18.47
886.105	18.07
886.273	17.09
886.441	16.49
886.609	19.15
886.777	18.54
886.945	20.56
887.113	21.25
887.281	21.37
887.449	22.7
887.617	23.93
887.785	22.72
887.953	23.14
888.121	22.35
888.289	23.91
888.457	22.61
888.625	24.41
888.793	24.05
888.961	22.97
889.129	23.57
889.296	23.64
889.464	23.58
889.632	23.96
889.8	24.97
889.967	27.43
890.135	25.12
