Data from JASIL_3157_Reflection_1.txt Node
Date: Thu Nov 12 21:38:01 EST 2015
User: Geneva
Spectrometer: USB4E03002
Autoset integration time: false
Trigger mode: 4
Integration Time (sec): 1.000000E-1
Scans to average: 10
Electric dark correction enabled: true
Nonlinearity correction enabled: false
Boxcar width: 5
Stray light correction enabled: false
XAxis mode: Wavelengths
Stop averaging: false
Number of Pixels in Spectrum: 3648
>>>>>Begin Spectral Data<<<<<
177.575	117.93
177.794	204.72
178.014	304.13
178.233	-57.62
178.452	-10552.17
178.672	-129.43
178.891	-21.26
179.11	-168.47
179.33	-47.52
179.549	-186.63
179.768	381.05
179.987	103.4
180.207	-25.51
180.426	-13.53
180.645	-14.66
180.864	-19.49
181.084	0.75
181.303	-4.29
181.522	11.43
181.741	5.19
181.96	11.43
182.179	-6.09
182.398	-9.61
182.618	-16.37
182.837	-21.65
183.056	-4.31
183.275	-34.02
183.494	-36.62
183.713	-55.07
183.932	-71.54
184.151	-67.1
184.37	-166.4
184.589	-97.01
184.808	-101.45
185.027	-129.76
185.246	-95.94
185.465	-142.06
185.684	-152.41
185.903	-306.85
186.122	-138.29
186.341	-155.72
186.56	-140.38
186.779	-68.61
186.998	-38.31
187.216	-152.63
187.435	-179.42
187.654	-224.87
187.873	-348.84
188.092	-112.39
188.311	-114.71
188.53	-140.65
188.748	-160.17
188.967	-295.15
189.186	-139.27
189.405	-127.42
189.623	-66.71
189.842	-54.74
190.061	-95.72
190.28	-60.53
190.498	-93.66
190.717	-46.11
190.936	-12.47
191.154	-48.48
191.373	-15.05
191.592	-34.55
191.81	-47.51
192.029	-20.33
192.248	-15.63
192.466	2.23
192.685	16.42
192.904	-2.34
193.122	-6.4
193.341	-8.54
193.559	45.75
193.778	54.86
193.996	22.63
194.215	-47.56
194.433	-108.71
194.652	-70.84
194.87	-54.71
195.089	-58.99
195.307	-38.72
195.526	-56.32
195.744	-56.68
195.963	-35.78
196.181	-11.47
196.399	-9.74
196.618	14.87
196.836	38.42
197.055	40.86
197.273	60.36
197.491	71.24
197.71	70.65
197.928	161.89
198.146	76.09
198.365	-118.64
198.583	160.43
198.801	124.42
199.019	29.08
199.238	94.85
199.456	189.01
199.674	96.54
199.892	140.75
200.111	631
200.329	2413.91
200.547	220.75
200.765	681.92
200.983	-828.5
201.202	-547.88
201.42	-212.27
201.638	-214.95
201.856	-272.11
202.074	-116.99
202.292	-474.74
202.51	-196.46
202.728	-162.44
202.946	-179.62
203.165	-152.19
203.383	-75.6
203.601	-25.78
203.819	-40.83
204.037	-52.85
204.255	-57.17
204.473	-27.4
204.691	-12
204.909	-101.8
205.127	-145.2
205.345	-78.8
205.562	-91.1
205.78	-172.68
205.998	-213.91
206.216	-188.58
206.434	-121.39
206.652	-62.43
206.87	-136.58
207.088	6.19
207.306	0.27
207.523	37.8
207.741	39.14
207.959	13.18
208.177	22.89
208.395	-9.7
208.612	-79.3
208.83	-1056.19
209.048	1054.5
209.266	-24353.57
209.483	327.06
209.701	327.61
209.919	-3672.59
210.136	436.28
210.354	369.96
210.572	-16816.67
210.79	-8150
211.007	1713.14
211.225	-258.86
211.442	-195.76
211.66	-224.39
211.878	-252.65
212.095	68.87
212.313	61.75
212.53	74.34
212.748	93.6
212.966	106.86
213.183	121.64
213.401	99.84
213.618	102.39
213.836	92.91
214.053	88.94
214.271	89.42
214.488	-13.56
214.705	15.08
214.923	-12.12
215.14	-4.17
215.358	-18.77
215.575	-42.11
215.793	-66.03
216.01	-69.14
216.227	-130.82
216.445	-351.43
216.662	-96.8
216.879	-48.72
217.097	-97.63
217.314	-436.63
217.531	-770.88
217.749	-657.35
217.966	-218.67
218.183	-88.22
218.4	-48.79
218.618	-211.03
218.835	-166.85
219.052	-244.39
219.269	-1069.33
219.487	-286.86
219.704	-108.94
219.921	-69.05
220.138	-39.23
220.355	-5.23
220.572	59.28
220.79	-103.93
221.007	-24.76
221.224	-16.11
221.441	-22.4
221.658	-25.71
221.875	-96.17
222.092	-79.51
222.309	-429.13
222.526	-262.64
222.743	-267.48
222.96	-299.31
223.177	-235.52
223.394	-156.2
223.611	-397.93
223.828	-118.01
224.045	-1110.76
224.262	84.82
224.479	13.02
224.696	-27
224.913	49.09
225.13	-77.8
225.347	-100.36
225.564	-11.84
225.781	74.8
225.997	122.65
226.214	100.27
226.431	120.61
226.648	187.77
226.865	166.7
227.082	126.87
227.298	91.46
227.515	81.5
227.732	65.13
227.949	51.02
228.165	33.19
228.382	23.07
228.599	22.96
228.816	10.9
229.032	15.6
229.249	18.59
229.466	25.93
229.682	5.21
229.899	11.87
230.116	15.76
230.332	22.7
230.549	17.86
230.765	20.26
230.982	10.61
231.199	20.77
231.415	7.93
231.632	6.09
231.848	1.96
232.065	16.03
232.281	21.12
232.498	14.2
232.714	15.65
232.931	29.6
233.147	27.92
233.364	31.53
233.58	42.21
233.797	61.37
234.013	58.01
234.23	79.71
234.446	62.27
234.662	61.99
234.879	63.29
235.095	60.38
235.312	52.32
235.528	60.64
235.744	70.61
235.961	51.14
236.177	44.09
236.393	66.22
236.61	22.86
236.826	22.9
237.042	14.56
237.258	8.25
237.475	27.66
237.691	42.16
237.907	79.31
238.123	86.26
238.339	69.57
238.556	51.01
238.772	54.35
238.988	53.34
239.204	71.34
239.42	65.77
239.636	54.75
239.853	49.25
240.069	43.46
240.285	30.58
240.501	23.15
240.717	29.85
240.933	34.41
241.149	31.54
241.365	28.89
241.581	21.64
241.797	25.96
242.013	26.31
242.229	24.68
242.445	26.82
242.661	28.48
242.877	34.58
243.093	37.27
243.309	33.19
243.525	36.2
243.741	37.4
243.957	36.67
244.173	30.02
244.388	20.76
244.604	22.69
244.82	16.13
245.036	13.44
245.252	12.41
245.468	10.23
245.683	9.71
245.899	4.49
246.115	5.89
246.331	7.84
246.547	6.94
246.762	10.93
246.978	8.83
247.194	8.69
247.409	9.58
247.625	6.65
247.841	6
248.057	7.34
248.272	8.7
248.488	6.83
248.703	9.99
248.919	14.49
249.135	10.89
249.35	13.83
249.566	18.38
249.782	18.36
249.997	22.38
250.213	18.95
250.428	13.09
250.644	6.98
250.859	7.49
251.075	-2.21
251.29	4.49
251.506	8.23
251.721	0.85
251.937	3.87
252.152	6.58
252.368	1.05
252.583	-5.66
252.798	4.79
253.014	11.01
253.229	5.4
253.445	10.57
253.66	8.44
253.875	4.67
254.091	8.25
254.306	10.46
254.521	2.61
254.737	14.24
254.952	25.06
255.167	16.23
255.383	29.24
255.598	30.79
255.813	30.17
256.028	24.84
256.244	25.02
256.459	29.18
256.674	24.76
256.889	29.03
257.104	28.56
257.32	26.31
257.535	22.16
257.75	12.34
257.965	12.57
258.18	9.04
258.395	5.49
258.61	7.46
258.826	7.66
259.041	7.72
259.256	4.74
259.471	1.65
259.686	-0.2
259.901	1.79
260.116	6.37
260.331	5.03
260.546	5.38
260.761	6.86
260.976	6.77
261.191	5.62
261.406	4.6
261.621	3.22
261.836	4.12
262.05	6.56
262.265	6.27
262.48	10.76
262.695	15.71
262.91	20.72
263.125	23.7
263.34	22.94
263.555	21.77
263.769	15.05
263.984	16.9
264.199	16.66
264.414	18.2
264.629	17.25
264.843	7.75
265.058	3.58
265.273	-0.07
265.488	-3.05
265.702	-4.46
265.917	-2.7
266.132	-6.2
266.346	-2.56
266.561	-6.62
266.776	-7.68
266.99	-8.65
267.205	-8.74
267.42	-7.42
267.634	-5.24
267.849	-0.49
268.063	2.22
268.278	2.79
268.492	5.01
268.707	2.43
268.922	7.21
269.136	11.07
269.351	14.85
269.565	18.25
269.78	18.67
269.994	19.42
270.209	18.54
270.423	16.79
270.637	15.56
270.852	19.97
271.066	19.1
271.281	18.91
271.495	14.41
271.709	11.24
271.924	10.34
272.138	10.28
272.353	6.8
272.567	6.62
272.781	7.19
272.996	9.63
273.21	6.01
273.424	8.1
273.638	8.86
273.853	9.47
274.067	10.08
274.281	8.67
274.495	7.86
274.71	10.85
274.924	8.46
275.138	7.05
275.352	1.44
275.566	2.05
275.781	0.86
275.995	1.37
276.209	-0.94
276.423	-3.63
276.637	-1.76
276.851	-3.61
277.065	-10.38
277.279	-14.87
277.493	-10.09
277.707	-5.66
277.921	-0.44
278.135	1.38
278.349	9.28
278.563	12.07
278.777	13.11
278.991	13.04
279.205	15.39
279.419	18.25
279.633	20
279.847	19.68
280.061	18.74
280.275	18.05
280.489	15.83
280.703	5.38
280.917	9
281.131	9.64
281.344	8.23
281.558	8.03
281.772	8.74
281.986	10.16
282.2	8.99
282.414	9.08
282.627	6.7
282.841	7.12
283.055	11.88
283.269	9.75
283.482	9.62
283.696	6.93
283.91	7.73
284.123	5.37
284.337	5.73
284.551	3.88
284.764	6.87
284.978	9.11
285.192	9.86
285.405	8.33
285.619	10.13
285.833	11.59
286.046	15.51
286.26	15.68
286.473	16.64
286.687	15.87
286.9	18.06
287.114	16.21
287.327	14.2
287.541	12.6
287.754	12.51
287.968	9.18
288.181	7.23
288.395	5.28
288.608	6.25
288.822	5.45
289.035	5.12
289.248	3.5
289.462	2.29
289.675	3.32
289.889	4.62
290.102	4.69
290.315	7.58
290.529	7.93
290.742	6.88
290.955	5.57
291.169	8.7
291.382	9.95
291.595	11.94
291.808	14.54
292.022	14.42
292.235	14.26
292.448	12.73
292.661	10.09
292.875	9.69
293.088	10.36
293.301	10.88
293.514	7.62
293.727	6.77
293.94	4.44
294.153	5.18
294.367	1.33
294.58	1.97
294.793	3.37
295.006	2.36
295.219	1.49
295.432	0.64
295.645	-0.35
295.858	2.1
296.071	0.8
296.284	1.76
296.497	2.15
296.71	3.99
296.923	4.55
297.136	4.07
297.349	5.8
297.562	7.46
297.775	9.52
297.988	11.24
298.201	11.38
298.414	15.56
298.626	15.66
298.839	13.62
299.052	15.93
299.265	15.39
299.478	16.3
299.691	13.99
299.903	13.29
300.116	13.33
300.329	13.05
300.542	11.98
300.755	9.38
300.967	10.35
301.18	11.97
301.393	11.14
301.605	11.16
301.818	8.74
302.031	9.78
302.243	9.13
302.456	9.79
302.669	9.56
302.881	6.67
303.094	6.07
303.307	5.07
303.519	6.47
303.732	6.46
303.944	4.5
304.157	6.37
304.37	7.24
304.582	9.1
304.795	6.33
305.007	7.92
305.22	10.72
305.432	11.85
305.645	12.95
305.857	13
306.069	13.7
306.282	15.41
306.494	16.09
306.707	16.41
306.919	13.8
307.132	14.77
307.344	10.63
307.556	10.44
307.769	7.84
307.981	7.26
308.193	1.22
308.406	0.5
308.618	2.11
308.83	2.01
309.043	1.75
309.255	3.82
309.467	3.67
309.679	7.29
309.892	7.5
310.104	8.67
310.316	7.46
310.528	10.91
310.74	10.74
310.953	8.52
311.165	8.51
311.377	9.07
311.589	8.4
311.801	6.69
312.013	3.66
312.225	2.48
312.437	2.04
312.649	1.28
312.862	4.06
313.074	1.59
313.286	5.09
313.498	6.62
313.71	3
313.922	4.66
314.134	4.51
314.346	5.36
314.558	6.56
314.77	7.08
314.982	10.23
315.193	4.68
315.405	5.93
315.617	4.07
315.829	1.42
316.041	4.55
316.253	7
316.465	7.9
316.677	9.56
316.888	10.75
317.1	13.07
317.312	12.15
317.524	12.87
317.736	12.6
317.947	10.97
318.159	14.49
318.371	17.48
318.583	16.76
318.794	17.2
319.006	15.96
319.218	13.92
319.43	13.08
319.641	13.35
319.853	16.35
320.064	19.32
320.276	19.08
320.488	15.08
320.699	13.38
320.911	14.25
321.123	14.84
321.334	13.67
321.546	16.22
321.757	14.92
321.969	16.29
322.18	12.65
322.392	11.45
322.603	12.81
322.815	17.65
323.026	14.52
323.238	11.28
323.449	14.64
323.661	16.33
323.872	15.57
324.083	15.39
324.295	16.8
324.506	17.46
324.718	17.4
324.929	17.43
325.14	14.86
325.352	15.13
325.563	18.13
325.774	16.04
325.986	15.14
326.197	15.14
326.408	17.37
326.62	15.46
326.831	15.41
327.042	16.05
327.253	15.6
327.464	14.98
327.676	16.81
327.887	14.03
328.098	15.1
328.309	17.31
328.52	18.04
328.732	16.96
328.943	16.35
329.154	18.45
329.365	17.42
329.576	18.51
329.787	18.35
329.998	17.04
330.209	18.51
330.42	17.57
330.631	15.93
330.842	16.56
331.053	15.01
331.264	17.33
331.475	17.35
331.686	17.78
331.897	19.48
332.108	20.34
332.319	21.92
332.53	20.77
332.741	20.71
332.952	22.11
333.163	20.91
333.374	20.29
333.585	18.59
333.795	16.73
334.006	15.97
334.217	15.76
334.428	16.66
334.639	16.43
334.849	16.4
335.06	17.46
335.271	16.09
335.482	15.83
335.692	16.87
335.903	16.53
336.114	16.94
336.325	18.18
336.535	17.76
336.746	16.13
336.957	15.87
337.167	16.29
337.378	12.65
337.589	13.43
337.799	14.47
338.01	15.54
338.22	16.4
338.431	18.64
338.642	17.16
338.852	16.81
339.063	16.78
339.273	16.6
339.484	17.31
339.694	20.15
339.905	19.71
340.115	16.96
340.326	17.19
340.536	17.59
340.746	16.17
340.957	16.88
341.167	16.05
341.378	16.89
341.588	17.44
341.799	16.67
342.009	17.44
342.219	18.03
342.43	20.52
342.64	20.01
342.85	18.54
343.061	19.13
343.271	19.24
343.481	18.7
343.691	17.97
343.902	17.9
344.112	18.84
344.322	18.18
344.532	17.39
344.743	17.44
344.953	18.65
345.163	20.21
345.373	19.01
345.583	19.99
345.793	21.17
346.004	21.27
346.214	20.32
346.424	19.76
346.634	23.07
346.844	23.44
347.054	25.43
347.264	23.4
347.474	22.97
347.684	22.77
347.894	22.1
348.104	21.06
348.314	21.13
348.524	22.25
348.734	23.56
348.944	20.95
349.154	21.74
349.364	19.78
349.574	21.31
349.784	22
349.994	23.14
350.204	22
350.413	20.74
350.623	21.62
350.833	21.14
351.043	19.42
351.253	18.05
351.463	16.98
351.672	17.09
351.882	17.02
352.092	13.74
352.302	11.38
352.511	10.86
352.721	10.46
352.931	9.66
353.141	10.67
353.35	12.16
353.56	12.99
353.77	11.75
353.979	10.09
354.189	8.97
354.399	12.58
354.608	13.61
354.818	13.82
355.027	15.94
355.237	16.83
355.447	16.84
355.656	16.31
355.866	15.98
356.075	18.05
356.285	17.88
356.494	18.96
356.704	17.24
356.913	16.78
357.123	18.44
357.332	18.49
357.542	18.36
357.751	17.87
357.96	17.02
358.17	18.05
358.379	19.42
358.589	19.55
358.798	17.69
359.007	17.99
359.217	18.82
359.426	19.11
359.635	18.88
359.845	17.69
360.054	16.96
360.263	17.42
360.472	17.35
360.682	16.2
360.891	17.47
361.1	17.75
361.309	18.68
361.519	18.86
361.728	17.8
361.937	17.73
362.146	18.64
362.355	18.97
362.564	19.08
362.774	17.97
362.983	17.27
363.192	15.87
363.401	15.26
363.61	13.85
363.819	12.36
364.028	13.17
364.237	14.29
364.446	14.24
364.655	14.2
364.864	14.01
365.073	16.65
365.282	16.31
365.491	17.24
365.7	18.26
365.909	19.82
366.118	20.45
366.327	19.85
366.536	18.89
366.745	18.39
366.954	17.78
367.162	15.78
367.371	14.15
367.58	14.79
367.789	14.82
367.998	15.14
368.207	14.09
368.415	13.59
368.624	12.84
368.833	13.02
369.042	14.2
369.25	16.27
369.459	19.08
369.668	18.37
369.877	18.4
370.085	19.75
370.294	19.58
370.503	18.17
370.711	19.23
370.92	19.96
371.129	19.86
371.337	19.16
371.546	18.43
371.754	18.89
371.963	18.65
372.171	19.15
372.38	17.33
372.589	17.34
372.797	18.08
373.006	17.3
373.214	16.69
373.423	16.49
373.631	16.1
373.84	16.49
374.048	14.79
374.256	15.68
374.465	14.82
374.673	14.48
374.882	13.94
375.09	14.09
375.298	14.2
375.507	15.77
375.715	15.04
375.923	15.23
376.132	14.04
376.34	15.05
376.548	14.77
376.757	14.38
376.965	16.31
377.173	17.05
377.381	16.71
377.59	16.02
377.798	13.94
378.006	14.93
378.214	13.9
378.423	14.9
378.631	14.51
378.839	14.42
379.047	15.24
379.255	13.77
379.463	13.45
379.671	12.97
379.879	13.42
380.088	14.72
380.296	14.32
380.504	14.78
380.712	14.76
380.92	15.02
381.128	15.6
381.336	15.86
381.544	15.16
381.752	14.48
381.96	15.24
382.168	16.72
382.376	16.97
382.584	18.1
382.791	18.7
382.999	17.87
383.207	17.3
383.415	17.29
383.623	16.96
383.831	17.66
384.039	18
384.247	17.81
384.454	17.4
384.662	16.89
384.87	15.92
385.078	15.99
385.285	15.68
385.493	16.24
385.701	16.62
385.909	16.97
386.116	16.98
386.324	16.87
386.532	17.5
386.739	16.81
386.947	16.82
387.155	16.6
387.362	15.94
387.57	15.7
387.778	15.52
387.985	14.27
388.193	13.75
388.4	12.6
388.608	13.31
388.816	12.27
389.023	13.35
389.231	13.09
389.438	12.69
389.646	12.36
389.853	12.15
390.061	11.58
390.268	11.2
390.475	12.33
390.683	13.33
390.89	12.56
391.098	13.87
391.305	12.7
391.512	12.92
391.72	12.69
391.927	14.06
392.135	14.44
392.342	14.58
392.549	14.96
392.756	14.34
392.964	14.28
393.171	14.26
393.378	13.37
393.586	13.44
393.793	13.86
394	14.86
394.207	14.35
394.414	14.85
394.622	14.93
394.829	13.83
395.036	12.79
395.243	12.75
395.45	13.39
395.657	13.52
395.864	13.29
396.072	12.35
396.279	12.35
396.486	11.84
396.693	11.79
396.9	11.55
397.107	12.11
397.314	13.68
397.521	13.51
397.728	12.11
397.935	11.52
398.142	10.27
398.349	10.55
398.556	10.4
398.763	10.94
398.97	11.33
399.177	12.04
399.383	13.42
399.59	12.88
399.797	12.93
400.004	14.49
400.211	15.03
400.418	17
400.625	17.31
400.831	16.97
401.038	17
401.245	15.71
401.452	14.85
401.658	14.45
401.865	13.76
402.072	13.4
402.279	12.04
402.485	11.59
402.692	10.54
402.899	9.12
403.105	10.23
403.312	10.05
403.519	9.8
403.725	10.07
403.932	9.66
404.138	9.52
404.345	10.07
404.552	10.61
404.758	10.26
404.965	11.22
405.171	11.85
405.378	10.79
405.584	10.79
405.791	11.46
405.997	11.09
406.204	10.56
406.41	10.06
406.617	9.73
406.823	10.37
407.029	10.9
407.236	9.73
407.442	10.59
407.649	10.15
407.855	9.99
408.061	8.83
408.268	9.44
408.474	11.52
408.68	11.98
408.887	12.8
409.093	12.25
409.299	10.78
409.505	12.29
409.712	11.69
409.918	12.06
410.124	12.09
410.33	12.79
410.537	12.56
410.743	11.26
410.949	12.24
411.155	11.86
411.361	12.21
411.567	13.62
411.773	13.36
411.98	13.95
412.186	14
412.392	14.31
412.598	14.77
412.804	14.75
413.01	14.98
413.216	14.5
413.422	13.84
413.628	14.51
413.834	14.98
414.04	13.94
414.246	14.23
414.452	14.91
414.658	14.36
414.864	13.61
415.07	14.8
415.275	14.02
415.481	14.07
415.687	13.81
415.893	13.02
416.099	12.85
416.305	13.45
416.511	13.6
416.716	12.71
416.922	12.61
417.128	13.05
417.334	12.22
417.539	12.24
417.745	12.4
417.951	13.03
418.157	12.64
418.362	12.74
418.568	12.82
418.774	12.49
418.979	12.57
419.185	12.6
419.391	12.46
419.596	12.63
419.802	12.87
420.008	12.75
420.213	8.02
420.419	8.38
420.624	8.51
420.83	8.41
421.035	8.28
421.241	8.77
421.446	8.7
421.652	9.1
421.857	8.91
422.063	8.82
422.268	8.58
422.474	12.63
422.679	12.92
422.885	12.59
423.09	12.19
423.295	12.51
423.501	11.78
423.706	11.85
423.911	11.54
424.117	11.21
424.322	11.14
424.527	11.14
424.733	11.33
424.938	10.85
425.143	10.35
425.349	10.68
425.554	10.17
425.759	10.75
425.964	10.95
426.169	11.27
426.375	11.53
426.58	11.78
426.785	11.9
426.99	11.83
427.195	12.22
427.4	12.65
427.605	12.43
427.811	13.71
428.016	13.25
428.221	12.24
428.426	11.78
428.631	11.71
428.836	11.71
429.041	11.64
429.246	11.14
429.451	10.57
429.656	11.38
429.861	11.55
430.066	10.73
430.271	11.86
430.476	13.27
430.681	13.35
430.886	13.39
431.09	13.05
431.295	13.31
431.5	13.7
431.705	13.78
431.91	13.41
432.115	13.73
432.32	13.35
432.524	13.05
432.729	12.18
432.934	12.26
433.139	12.58
433.343	12.72
433.548	12.3
433.753	12.15
433.958	12.69
434.162	12.62
434.367	12.36
434.572	12.25
434.776	11.86
434.981	12.33
435.186	12.65
435.39	12.34
435.595	11.81
435.799	12.58
436.004	12.69
436.209	12
436.413	11.89
436.618	11.47
436.822	11.71
437.027	11.65
437.231	11.59
437.436	11.13
437.64	10.84
437.845	11.57
438.049	10.98
438.253	10.99
438.458	11.61
438.662	11.82
438.867	12.16
439.071	11.96
439.275	11.53
439.48	11.29
439.684	11.73
439.888	12.09
440.093	11.43
440.297	11.46
440.501	11.88
440.706	11.11
440.91	11.01
441.114	10.85
441.318	10.73
441.523	10.94
441.727	11.48
441.931	11.34
442.135	11.33
442.339	11.58
442.543	12.33
442.748	11.96
442.952	12.44
443.156	12.46
443.36	12.44
443.564	12.65
443.768	12.62
443.972	11.65
444.176	11.71
444.38	11.77
444.584	11.94
444.788	11.35
444.992	11.4
445.196	11.78
445.4	11.41
445.604	11.47
445.808	11.52
446.012	11.77
446.216	12.13
446.42	12.02
446.624	11.89
446.828	11.79
447.032	11.49
447.235	11.65
447.439	11.43
447.643	11.75
447.847	11.08
448.051	10.95
448.254	10.95
448.458	11.58
448.662	11.49
448.866	11.39
449.069	10.87
449.273	11.22
449.477	11.11
449.681	10.68
449.884	10.42
450.088	11.32
450.292	12.26
450.495	12.36
450.699	12.23
450.902	12.56
451.106	12.96
451.31	13.99
451.513	14.09
451.717	14.25
451.92	14.07
452.124	14.02
452.327	13.81
452.531	12.95
452.734	12.78
452.938	12.28
453.141	12.78
453.345	12.34
453.548	12.09
453.752	11.73
453.955	11.3
454.158	12.27
454.362	12
454.565	12.92
454.769	13.12
454.972	12.55
455.175	12.52
455.379	12.08
455.582	11.95
455.785	12.08
455.988	12.43
456.192	12.42
456.395	11.87
456.598	12.81
456.801	12.14
457.005	11.78
457.208	12.4
457.411	11.95
457.614	11.24
457.817	11.35
458.021	11.09
458.224	10.94
458.427	10.99
458.63	10.97
458.833	10.66
459.036	10.78
459.239	11.18
459.442	11.08
459.645	11.5
459.848	11.86
460.051	11.98
460.254	12.14
460.457	12.38
460.66	12.29
460.863	12.64
461.066	13.08
461.269	12.8
461.472	12.28
461.675	12.15
461.878	12.01
462.081	12.16
462.284	12.07
462.486	12.41
462.689	12.13
462.892	12.53
463.095	12.01
463.298	11.21
463.5	11.07
463.703	11
463.906	10.78
464.109	10.8
464.311	10.68
464.514	10.81
464.717	10.27
464.92	10.77
465.122	10.61
465.325	10.84
465.528	11.39
465.73	11.33
465.933	11.71
466.135	11.56
466.338	11.81
466.541	11.33
466.743	11.74
466.946	11.77
467.148	11.6
467.351	12.19
467.553	11.9
467.756	11.53
467.958	11.86
468.161	11.95
468.363	12.74
468.566	12.72
468.768	12.85
468.971	12.17
469.173	12.48
469.375	12.6
469.578	11.51
469.78	11.72
469.983	11.61
470.185	10.92
470.387	10.98
470.59	11.31
470.792	11.09
470.994	10.99
471.196	10.64
471.399	10.21
471.601	10.11
471.803	10.84
472.005	10.47
472.208	10.48
472.41	10.92
472.612	10.57
472.814	10.1
473.016	9.91
473.218	10.16
473.421	10.96
473.623	11.37
473.825	11.23
474.027	11.07
474.229	11.57
474.431	11.87
474.633	12.47
474.835	13
475.037	12.84
475.239	13.18
475.441	13.54
475.643	12.95
475.845	12.31
476.047	12.67
476.249	12.69
476.451	13.18
476.653	13.28
476.855	13.1
477.057	13.07
477.258	13.52
477.46	13.53
477.662	13.31
477.864	14.05
478.066	14.03
478.268	13.75
478.469	13.44
478.671	12.92
478.873	12.89
479.075	12.54
479.276	12.6
479.478	12.5
479.68	12.17
479.882	12.15
480.083	12.15
480.285	12.43
480.487	12.55
480.688	12.84
480.89	12.69
481.091	12.6
481.293	12.65
481.495	12.43
481.696	11.87
481.898	12.02
482.099	11.84
482.301	11.6
482.502	11.68
482.704	11.58
482.905	11.55
483.107	11.72
483.308	11.63
483.51	11.67
483.711	11.67
483.913	11.84
484.114	11.79
484.315	11.91
484.517	12
484.718	12.11
484.92	12.18
485.121	12.15
485.322	12.11
485.524	12.27
485.725	12.21
485.926	12.25
486.127	12.22
486.329	12.14
486.53	12.06
486.731	11.9
486.932	11.61
487.134	11.62
487.335	11.69
487.536	11.68
487.737	11.68
487.938	11.64
488.139	11.41
488.341	11.54
488.542	11.57
488.743	11.65
488.944	11.74
489.145	11.9
489.346	11.66
489.547	11.58
489.748	11.53
489.949	11.5
490.15	11.66
490.351	11.96
490.552	11.9
490.753	11.92
490.954	11.61
491.155	11.69
491.356	11.57
491.557	11.67
491.758	11.67
491.959	11.59
492.159	11.56
492.36	11.52
492.561	11.46
492.762	11.1
492.963	11.07
493.164	11.48
493.364	11.53
493.565	11.56
493.766	11.73
493.967	12.13
494.167	12.27
494.368	12.16
494.569	12.02
494.769	11.95
494.97	12.41
495.171	12.23
495.371	11.92
495.572	11.85
495.773	11.8
495.973	11.88
496.174	11.55
496.375	11.77
496.575	12.24
496.776	12.51
496.976	12.64
497.177	12.69
497.377	12.66
497.578	12.77
497.778	12.73
497.979	12.98
498.179	13.12
498.38	13.41
498.58	13.05
498.78	13
498.981	12.77
499.181	12.79
499.382	12.77
499.582	13.18
499.782	13.22
499.983	13.26
500.183	13.64
500.383	13.66
500.584	13.62
500.784	13.72
500.984	13.73
501.184	13.7
501.385	13.67
501.585	13.9
501.785	14.19
501.985	14.92
502.185	14.86
502.386	14.56
502.586	14.21
502.786	14.05
502.986	14.34
503.186	13.91
503.386	13.95
503.586	13.75
503.786	13.82
503.987	13.48
504.187	12.74
504.387	13.04
504.587	12.9
504.787	13.35
504.987	13.21
505.187	12.87
505.387	13.34
505.587	13.61
505.786	13.87
505.986	13.72
506.186	13.66
506.386	13.96
506.586	13.9
506.786	14.19
506.986	14.11
507.186	14.1
507.386	14.07
507.585	13.58
507.785	13.84
507.985	14.16
508.185	13.97
508.384	13.88
508.584	13.42
508.784	13.33
508.984	13.1
509.183	12.71
509.383	13.2
509.583	13.41
509.782	13.91
509.982	13.88
510.182	13.74
510.381	14.03
510.581	14.55
510.781	14.83
510.98	14.82
511.18	15.28
511.379	15.54
511.579	15.6
511.778	15.87
511.978	15.65
512.177	15.47
512.377	15.14
512.576	14.94
512.776	14.72
512.975	15.26
513.175	15.65
513.374	15.35
513.573	15.17
513.773	15.16
513.972	15.16
514.172	15.42
514.371	15.55
514.57	16.1
514.77	16.63
514.969	16.96
515.168	16.8
515.367	17.07
515.567	17.64
515.766	18.03
515.965	17.67
516.164	17.54
516.364	17.49
516.563	17.44
516.762	17.24
516.961	17.14
517.16	16.89
517.359	17.07
517.559	16.68
517.758	16.18
517.957	16.46
518.156	16.74
518.355	16.96
518.554	17.06
518.753	17.23
518.952	17.42
519.151	17.38
519.35	17.8
519.549	17.5
519.748	17.78
519.947	18
520.146	17.62
520.345	17.43
520.544	17.38
520.743	17.42
520.942	17.65
521.141	17.27
521.339	17.66
521.538	17.24
521.737	17.25
521.936	17.55
522.135	18.06
522.333	18.29
522.532	18.99
522.731	19.31
522.93	19.22
523.129	18.6
523.327	19.06
523.526	19.04
523.725	19.33
523.923	19.47
524.122	18.87
524.321	18.87
524.519	19.18
524.718	18.86
524.917	18.55
525.115	18.57
525.314	19.06
525.512	18.85
525.711	18.63
525.909	18.9
526.108	18.93
526.306	18.91
526.505	19.09
526.703	18.93
526.902	18.84
527.1	19
527.299	19.15
527.497	19.03
527.696	19.18
527.894	19.31
528.092	19.09
528.291	19.19
528.489	19.36
528.688	19.27
528.886	19.41
529.084	19.59
529.283	19.72
529.481	19.63
529.679	19.7
529.877	19.7
530.076	19.7
530.274	19.86
530.472	19.88
530.67	20.06
530.869	19.93
531.067	19.63
531.265	19.85
531.463	19.85
531.661	19.81
531.859	19.91
532.057	20.04
532.255	20.21
532.454	20.21
532.652	20.32
532.85	20.33
533.048	20.61
533.246	20.76
533.444	20.6
533.642	20.45
533.84	20.63
534.038	20.68
534.236	20.8
534.434	20.77
534.632	21.08
534.83	21.05
535.027	21.28
535.225	21.36
535.423	21.48
535.621	21.75
535.819	22
536.017	22.06
536.215	22.23
536.412	21.97
536.61	22.02
536.808	22.23
537.006	22.51
537.203	22.76
537.401	22.34
537.599	22.45
537.797	22.5
537.994	22.68
538.192	22.79
538.39	22.87
538.587	23.22
538.785	22.99
538.983	22.65
539.18	22.63
539.378	22.46
539.575	22.75
539.773	22.59
539.97	22.49
540.168	22.53
540.366	22.5
540.563	22.4
540.761	22.47
540.958	22.65
541.155	22.68
541.353	22.62
541.55	22.56
541.748	22.58
541.945	22.86
542.143	22.87
542.34	22.68
542.537	22.94
542.735	23.06
542.932	23.07
543.129	23.22
543.327	23.41
543.524	23.26
543.721	23.32
543.919	23.09
544.116	22.84
544.313	22.73
544.51	23.06
544.708	23.14
544.905	23.21
545.102	23.46
545.299	23.51
545.496	23.28
545.693	23.43
545.891	23.35
546.088	23.63
546.285	23.84
546.482	24.35
546.679	24.17
546.876	24.05
547.073	24.16
547.27	24.05
547.467	23.91
547.664	24.33
547.861	24.41
548.058	24.97
548.255	25.2
548.452	25.47
548.649	25.59
548.846	25.89
549.043	25.92
549.24	26.17
549.437	26.39
549.633	26.78
549.83	26.96
550.027	27.3
550.224	27.32
550.421	26.98
550.618	27.02
550.814	26.51
551.011	26.88
551.208	26.89
551.405	26.71
551.601	26.35
551.798	26.24
551.995	25.89
552.191	25.78
552.388	25.2
552.585	25.3
552.781	25.28
552.978	25.37
553.175	24.87
553.371	24.56
553.568	24.7
553.764	24.82
553.961	24.8
554.157	24.92
554.354	25.31
554.55	25.8
554.747	26.66
554.943	26.47
555.14	26.79
555.336	27.28
555.533	27.73
555.729	27.4
555.926	27.49
556.122	27.82
556.318	28.05
556.515	28.65
556.711	28.77
556.907	27.74
557.104	28.22
557.3	28.24
557.496	28.09
557.693	28.31
557.889	27.96
558.085	28.24
558.281	27.86
558.478	27.64
558.674	27.07
558.87	27.55
559.066	28.03
559.262	27.65
559.459	27.54
559.655	27.86
559.851	27.63
560.047	28.31
560.243	27.94
560.439	28.32
560.635	28.61
560.831	28.68
561.027	28.23
561.223	28.63
561.419	28.57
561.615	28.66
561.811	27.92
562.007	28.36
562.203	28.66
562.399	28.5
562.595	28.44
562.791	28.34
562.987	28.79
563.183	29.16
563.379	28.96
563.575	29.45
563.771	29.41
563.966	29.73
564.162	30.01
564.358	30.28
564.554	30.7
564.75	30.54
564.945	30.96
565.141	30.7
565.337	30.52
565.533	30.31
565.728	30.04
565.924	30.63
566.12	31.08
566.315	30.62
566.511	30.3
566.707	30.96
566.902	31.23
567.098	30.85
567.293	30.79
567.489	30.32
567.684	30.87
567.88	30.76
568.076	30.15
568.271	30.29
568.467	30.99
568.662	30.55
568.858	30.3
569.053	30.26
569.248	30.2
569.444	30.49
569.639	30.81
569.835	30.79
570.03	31.44
570.225	31.63
570.421	31.49
570.616	31.48
570.812	31.63
571.007	31.29
571.202	30.85
571.397	31.14
571.593	31.26
571.788	31.4
571.983	31.02
572.178	30.83
572.374	31.07
572.569	31
572.764	31.05
572.959	31.67
573.154	31.72
573.35	32.7
573.545	32.56
573.74	32.66
573.935	33.05
574.13	33.15
574.325	33.49
574.52	33.35
574.715	33.47
574.91	33.49
575.105	33.22
575.3	33.36
575.495	33.14
575.69	33.49
575.885	33.52
576.08	32.88
576.275	33.63
576.47	33.49
576.665	33.73
576.86	33.79
577.055	33.48
577.25	34.28
577.444	34.8
577.639	33.77
577.834	33.51
578.029	33.4
578.224	33.65
578.418	33.36
578.613	33.58
578.808	33.78
579.003	33.59
579.197	34.19
579.392	33.87
579.587	33.71
579.781	34.49
579.976	34.08
580.171	34.39
580.365	34.78
580.56	34.63
580.755	34.54
580.949	34.3
581.144	34.45
581.338	33.59
581.533	33.42
581.727	32.75
581.922	33.24
582.116	33.94
582.311	33.14
582.505	33.59
582.7	34.22
582.894	34.08
583.089	33.99
583.283	34.23
583.478	34.97
583.672	35.2
583.866	36
584.061	36.31
584.255	36.61
584.449	37.32
584.644	36.79
584.838	36.9
585.032	37.43
585.226	37.16
585.421	37.35
585.615	37.14
585.809	37.02
586.003	37.04
586.198	36.24
586.392	36.01
586.586	36.28
586.78	36.9
586.974	36.39
587.168	36.56
587.363	37.33
587.557	37.26
587.751	36.96
587.945	37.18
588.139	37.73
588.333	38.49
588.527	38.81
588.721	38.48
588.915	38.33
589.109	38.45
589.303	38.66
589.497	38.45
589.691	38.25
589.885	38.93
590.079	38.54
590.273	37.71
590.466	37.56
590.66	36.62
590.854	36.36
591.048	36.34
591.242	36.64
591.436	35.79
591.629	36.09
591.823	36.16
592.017	35.64
592.211	35.7
592.404	35.84
592.598	35.7
592.792	36.38
592.986	36.84
593.179	36.98
593.373	36.86
593.567	36.88
593.76	36.83
593.954	36.77
594.147	37.1
594.341	37.48
594.535	37.67
594.728	37.47
594.922	37.54
595.115	37.56
595.309	37.49
595.502	37.45
595.696	38.06
595.889	37.99
596.083	37.92
596.276	37.91
596.47	38.09
596.663	38.52
596.856	39.07
597.05	38.79
597.243	38.44
597.437	38.52
597.63	37.99
597.823	37.65
598.017	37.99
598.21	38.55
598.403	38.25
598.596	37.95
598.79	37.44
598.983	37.56
599.176	38.29
599.369	38.58
599.563	38.75
599.756	39.55
599.949	39.9
600.142	39.47
600.335	39.58
600.528	40.2
600.722	40.38
600.915	40.43
601.108	39.86
601.301	39.94
601.494	39.86
601.687	39.12
601.88	39.37
602.073	38.27
602.266	38.23
602.459	37.7
602.652	37.03
602.845	36.77
603.038	36.91
603.231	36.67
603.424	36.04
603.617	35.75
603.809	36.22
604.002	35.59
604.195	36.44
604.388	36.51
604.581	37.13
604.774	37.61
604.966	37.4
605.159	37.47
605.352	38.43
605.545	38.52
605.737	39.03
605.93	39.06
606.123	39.65
606.316	38.91
606.508	38.69
606.701	38.58
606.894	38.82
607.086	39.45
607.279	39.48
607.471	39.83
607.664	40.26
607.857	39.62
608.049	39.73
608.242	39.67
608.434	40.5
608.627	40.94
608.819	40.54
609.012	40.31
609.204	40.64
609.397	40.73
609.589	39.82
609.782	40.12
609.974	40.87
610.166	41.09
610.359	40.97
610.551	40.67
610.743	40.74
610.936	41.12
611.128	40.58
611.32	40.52
611.513	40.01
611.705	39.8
611.897	39.2
612.09	39
612.282	39.13
612.474	39.36
612.666	39.42
612.858	39.52
613.051	39.64
613.243	40.69
613.435	40.48
613.627	40.37
613.819	41.57
614.011	42.1
614.203	42.07
614.395	41.4
614.588	41.4
614.78	42.04
614.972	41.6
615.164	41.81
615.356	41.27
615.548	40.7
615.74	41.85
615.932	41.19
616.124	42.07
616.315	42.67
616.507	43.23
616.699	43.78
616.891	43.07
617.083	44.1
617.275	43.84
617.467	43.05
617.659	43.67
617.85	42.01
618.042	42.27
618.234	41.79
618.426	41.72
618.618	41.29
618.809	40.04
619.001	40.08
619.193	39.37
619.384	39.45
619.576	40.18
619.768	40.2
619.959	40.24
620.151	39.67
620.343	38.74
620.534	37.97
620.726	37.94
620.917	38.77
621.109	39.43
621.301	39.27
621.492	39.09
621.684	39.29
621.875	38.48
622.067	39.35
622.258	39.43
622.45	40.8
622.641	42.19
622.832	42.32
623.024	42.12
623.215	41.75
623.407	41.53
623.598	40.82
623.789	41.31
623.981	41.75
624.172	42.03
624.363	42.5
624.555	41.88
624.746	41.38
624.937	41.85
625.129	42.46
625.32	41.83
625.511	42.01
625.702	42.72
625.893	42.61
626.085	42.84
626.276	42.28
626.467	42.17
626.658	42.23
626.849	41.25
627.04	40.65
627.231	40.45
627.422	41.42
627.614	40.94
627.805	40.29
627.996	40.1
628.187	39.82
628.378	40.01
628.569	40.06
628.76	40.03
628.951	40.91
629.142	40.83
629.332	40.28
629.523	39.71
629.714	40.38
629.905	41.36
630.096	41.24
630.287	41.87
630.478	41.53
630.669	42.06
630.859	41.13
631.05	41.51
631.241	42.12
631.432	41.97
631.623	42.1
631.813	41.68
632.004	41.1
632.195	41.39
632.385	41.59
632.576	42.03
632.767	41.78
632.957	43.63
633.148	43.39
633.339	43.32
633.529	43.81
633.72	43.45
633.91	44.11
634.101	45.11
634.292	44.77
634.482	44.1
634.673	44.63
634.863	43.84
635.054	42.04
635.244	42.19
635.435	42.23
635.625	43.27
635.815	44.45
636.006	43.55
636.196	42.58
636.387	43.72
636.577	43.98
636.767	44.53
636.958	45.01
637.148	46.33
637.338	46.3
637.529	46.54
637.719	45.16
637.909	43.56
638.099	43.55
638.29	44.35
638.48	43.24
638.67	42.73
638.86	42.2
639.05	41.89
639.241	40.98
639.431	40.48
639.621	40.54
639.811	40.55
640.001	40.59
640.191	41.06
640.381	40.32
640.571	40.69
640.761	40.54
640.951	39.25
641.141	39.84
641.331	40.33
641.521	39.46
641.711	37.99
641.901	38.78
642.091	38.92
642.281	39.12
642.471	38.9
642.661	38.79
642.851	39.85
643.041	41.17
643.231	41.38
643.42	41.76
643.61	43.1
643.8	44.63
643.99	44.33
644.18	45.18
644.369	45.2
644.559	46.2
644.749	45.74
644.939	45.26
645.128	45.36
645.318	45.46
645.508	45.46
645.697	45.79
645.887	45.7
646.076	45.8
646.266	45.76
646.456	46.27
646.645	46.18
646.835	47.53
647.024	48.23
647.214	46.82
647.403	45.03
647.593	45.71
647.782	44.36
647.972	43.61
648.161	43.48
648.351	43.45
648.54	43.33
648.73	42.76
648.919	41.99
649.108	41.81
649.298	42.63
649.487	44.04
649.677	44.04
649.866	44.87
650.055	45.04
650.244	44.75
650.434	45.44
650.623	45.73
650.812	45.73
651.002	45.86
651.191	46.09
651.38	46.23
651.569	46.17
651.758	45.23
651.947	45.92
652.137	45.25
652.326	45.59
652.515	44.22
652.704	43.91
652.893	43.93
653.082	43.18
653.271	42.64
653.46	42.35
653.649	42.06
653.838	42.44
654.027	42.35
654.216	43.1
654.405	43.61
654.594	44.9
654.783	44.73
654.972	44.65
655.161	45.63
655.35	45.13
655.539	45.49
655.728	45.73
655.916	45.53
656.105	45.61
656.294	46.42
656.483	45.72
656.672	45.36
656.86	44.67
657.049	44.87
657.238	44.97
657.427	45.48
657.615	45.01
657.804	45.15
657.993	44.86
658.181	43.82
658.37	43.05
658.559	42.42
658.747	42.4
658.936	42.6
659.125	42.26
659.313	42.67
659.502	42.09
659.69	42.65
659.879	43.56
660.067	44.06
660.256	44.67
660.444	45.53
660.633	46.91
660.821	47.79
661.01	47.72
661.198	48.74
661.387	47.39
661.575	48.04
661.763	47.7
661.952	46.68
662.14	45.29
662.328	45.45
662.517	45.6
662.705	45.69
662.893	44.92
663.082	46
663.27	46.23
663.458	46.1
663.646	45.86
663.834	45.82
664.023	45.38
664.211	45.61
664.399	45.57
664.587	45.46
664.775	44.61
664.963	45.4
665.152	45.02
665.34	44.69
665.528	45.38
665.716	45.88
665.904	46.15
666.092	46.23
666.28	46.63
666.468	45.56
666.656	44.99
666.844	46.2
667.032	46.25
667.22	46.38
667.408	46.53
667.596	46.18
667.784	46.43
667.971	47.53
668.159	47.7
668.347	47.51
668.535	48.25
668.723	49.04
668.911	48.62
669.098	47.07
669.286	46.82
669.474	46.73
669.662	46.76
669.849	45.68
670.037	43.38
670.225	43.47
670.413	44.66
670.6	45.8
670.788	45.33
670.976	45.24
671.163	45.77
671.351	46.09
671.538	46.85
671.726	48.07
671.913	48.45
672.101	49.68
672.289	50.17
672.476	48.73
672.664	47.85
672.851	47.12
673.039	45.35
673.226	45.94
673.413	45.98
673.601	45.08
673.788	43.99
673.976	44.1
674.163	44.43
674.35	44.82
674.538	45.62
674.725	46.62
674.912	46.73
675.1	48.17
675.287	48.76
675.474	47.72
675.662	46.4
675.849	46.79
676.036	47.32
676.223	46.58
676.411	46.51
676.598	46.04
676.785	44.68
676.972	45.26
677.159	45.96
677.346	45.34
677.533	46.28
677.721	46.72
677.908	46.82
678.095	47.16
678.282	47.71
678.469	47.25
678.656	47.09
678.843	48.39
679.03	47.95
679.217	47.78
679.404	46.89
679.591	46.57
679.778	47.67
679.964	46.99
680.151	47.34
680.338	47.05
680.525	46.12
680.712	46.14
680.899	45.87
681.086	46.68
681.272	46.79
681.459	47.33
681.646	47.23
681.833	46.76
682.02	47.56
682.206	46.11
682.393	46.55
682.58	47.17
682.766	47.94
682.953	46.49
683.14	46.73
683.326	46.68
683.513	46.76
683.7	46.79
683.886	46.48
684.073	45.6
684.259	47.56
684.446	48.49
684.632	49.81
684.819	49.38
685.005	50
685.192	49.67
685.378	49.93
685.565	50.42
685.751	50.39
685.938	50.64
686.124	51.29
686.31	50.87
686.497	50.24
686.683	51.08
686.87	50.53
687.056	51.79
687.242	52.16
687.429	51.12
687.615	50.74
687.801	50.98
687.987	49.75
688.174	50.11
688.36	49.64
688.546	49.01
688.732	46.3
688.918	46.09
689.105	45.17
689.291	45.08
689.477	44.17
689.663	43.68
689.849	43.5
690.035	44.84
690.221	45.95
690.407	46.04
690.593	46.8
690.779	48.13
690.965	48.7
691.151	48.55
691.337	47.01
691.523	49.66
691.709	50.01
691.895	51.33
692.081	49.93
692.267	48.35
692.453	48.66
692.639	48.62
692.825	47.68
693.011	48.29
693.196	47.87
693.382	48.98
693.568	46.7
693.754	46.55
693.94	45.71
694.125	47.17
694.311	48.3
694.497	46.66
694.682	46.09
694.868	45.29
695.054	46.23
695.239	46.14
695.425	45.01
695.611	45.96
695.796	45.33
695.982	45.07
696.168	44.42
696.353	44.24
696.539	45.06
696.724	45.46
696.91	46.69
697.095	45.35
697.281	45.52
697.466	46.23
697.652	45.83
697.837	46.43
698.023	45.23
698.208	45.09
698.393	43.85
698.579	43.53
698.764	43.22
698.949	43.6
699.135	44.16
699.32	44.62
699.505	43.46
699.691	44.07
699.876	43.99
700.061	46.93
700.246	46.26
700.432	46.67
700.617	46.8
700.802	45.51
700.987	44.8
701.172	44.56
701.358	44.98
701.543	46.03
701.728	45.39
701.913	44.03
702.098	42.41
702.283	43.33
702.468	43.15
702.653	43.21
702.838	45.07
703.023	43.12
703.208	44.12
703.393	42.01
703.578	42.46
703.763	42.52
703.948	43.96
704.133	44.93
704.318	45.55
704.503	45.1
704.688	45.27
704.873	44.82
705.057	47.03
705.242	45.21
705.427	46.67
705.612	45.99
705.797	46.77
705.981	48.22
706.166	46.79
706.351	46.43
706.536	46.42
706.72	46.82
706.905	45.96
707.09	45.48
707.274	45.68
707.459	44.43
707.644	46.41
707.828	43.85
708.013	42.16
708.197	43.74
708.382	44.94
708.567	46.28
708.751	45.15
708.936	48.27
709.12	49.35
709.305	49.69
709.489	50.23
709.673	48.76
709.858	51.06
710.042	50.82
710.227	49.58
710.411	49.37
710.596	49.2
710.78	49.69
710.964	46.16
711.149	47.51
711.333	49.22
711.517	49.51
711.702	48.89
711.886	49.26
712.07	49.36
712.254	49.01
712.438	48.84
712.623	49.78
712.807	50.49
712.991	50.53
713.175	49.61
713.359	49
713.544	48.16
713.728	48.61
713.912	48.77
714.096	50.68
714.28	51.05
714.464	49.38
714.648	47.09
714.832	46.33
715.016	48.27
715.2	46.47
715.384	46.61
715.568	47.2
715.752	46.76
715.936	44.37
716.12	42.26
716.304	41.42
716.488	42.91
716.671	43.83
716.855	42.56
717.039	41.52
717.223	41.85
717.407	41.39
717.59	41.66
717.774	42.72
717.958	42.61
718.142	43.9
718.325	46.2
718.509	44.9
718.693	45.36
718.877	45.59
719.06	45.34
719.244	44.45
719.428	45.37
719.611	44.5
719.795	44.54
719.978	45.69
720.162	44.83
720.345	45.86
720.529	49.22
720.713	49.71
720.896	51.25
721.08	53.1
721.263	53.53
721.446	54.34
721.63	57.38
721.813	58.4
721.997	58.98
722.18	57.81
722.364	54.04
722.547	51.93
722.73	51.72
722.914	52.18
723.097	51.69
723.28	51.97
723.464	50.97
723.647	49.06
723.83	48.39
724.013	49.25
724.197	49.38
724.38	50.28
724.563	50.68
724.746	51.3
724.929	51.67
725.112	53.86
725.296	55.7
725.479	53.55
725.662	54.98
725.845	54.79
726.028	54.65
726.211	56.72
726.394	56.27
726.577	59.16
726.76	62.64
726.943	63.19
727.126	61.21
727.309	60.95
727.492	60.25
727.675	58.1
727.858	56.54
728.041	55.26
728.224	53.51
728.407	53.92
728.589	50.89
728.772	45.27
728.955	43.36
729.138	43.86
729.321	42.92
729.503	41.79
729.686	42.41
729.869	44.02
730.052	45.4
730.234	48.51
730.417	49.27
730.6	51.2
730.782	52.59
730.965	50.95
731.148	50.48
731.33	50.6
731.513	52.95
731.695	55.81
731.878	54.91
732.061	54.22
732.243	50.59
732.426	48.06
732.608	45.13
732.791	44.71
732.973	47.67
733.156	48.22
733.338	47.1
733.52	47.2
733.703	46.32
733.885	46
734.068	46.74
734.25	48.42
734.432	51.05
734.615	51
734.797	51.57
734.979	49.97
735.162	48.71
735.344	49.5
735.526	51.61
735.708	51.75
735.891	51.29
736.073	51.58
736.255	50.04
736.437	48.8
736.619	51.53
736.802	52.11
736.984	52.09
737.166	50.29
737.348	49.85
737.53	45.51
737.712	40.68
737.894	41.39
738.076	40.33
738.258	41.79
738.44	42.61
738.622	40.29
738.804	40.07
738.986	39.72
739.168	40.83
739.35	41.55
739.532	42.23
739.714	46.31
739.896	50.09
740.078	50.73
740.259	54.33
740.441	53.13
740.623	53.52
740.805	56.45
740.987	59.11
741.168	59.17
741.35	57.95
741.532	56.58
741.714	55.4
741.895	55.2
742.077	57.17
742.259	51.51
742.44	53.11
742.622	54.46
742.804	51.18
742.985	48.29
743.167	49.31
743.348	52.84
743.53	57.84
743.711	58.17
743.893	57.3
744.075	58.62
744.256	65.25
744.438	64.31
744.619	64.81
744.8	62.36
744.982	66.01
745.163	66.3
745.345	61.72
745.526	59.69
745.707	61.59
745.889	57.51
746.07	54.52
746.252	49.27
746.433	52.64
746.614	52.17
746.795	52.89
746.977	48.88
747.158	46.53
747.339	48.67
747.52	51.05
747.702	49.92
747.883	49.9
748.064	50.92
748.245	50.32
748.426	44.29
748.607	45.44
748.788	46.13
748.97	46.1
749.151	48.19
749.332	46.48
749.513	44.5
749.694	44.62
749.875	47.7
750.056	49.77
750.237	49.03
750.418	53.31
750.599	50.68
750.78	49.22
750.96	48.12
751.141	47.44
751.322	47.27
751.503	44.66
751.684	45.64
751.865	46.45
752.046	43.31
752.226	47.11
752.407	50.13
752.588	50.35
752.769	54.52
752.949	58.25
753.13	58.93
753.311	57.26
753.492	58.55
753.672	55.39
753.853	57.82
754.034	57.05
754.214	53.34
754.395	51.72
754.575	49.93
754.756	49.88
754.937	50.5
755.117	48.28
755.298	55.39
755.478	58.46
755.659	61.72
755.839	59.41
756.02	61.29
756.2	62.33
756.381	59.91
756.561	58.4
756.741	56.78
756.922	55.29
757.102	58.22
757.283	53.71
757.463	55.3
757.643	50.74
757.823	47.84
758.004	50.65
758.184	53.57
758.364	54.61
758.545	56.65
758.725	53.87
758.905	54.99
759.085	55.32
759.265	54.67
759.446	49.01
759.626	50.09
759.806	51.83
759.986	45.83
760.166	41.25
760.346	42.84
760.526	43.92
760.706	46.57
760.886	45.59
761.066	42.34
761.246	44.66
761.426	46.07
761.606	46.37
761.786	45.9
761.966	46.91
762.146	50.16
762.326	46.97
762.506	48.5
762.686	50.01
762.866	49.25
763.046	52
763.225	51.5
763.405	51.37
763.585	50.32
763.765	50.68
763.945	52.3
764.124	51.03
764.304	52.73
764.484	49.32
764.664	46.55
764.843	48.55
765.023	45.07
765.203	47.48
765.382	48.28
765.562	48.56
765.741	50.99
765.921	51.39
766.101	51.67
766.28	49.76
766.46	52.88
766.639	55.09
766.819	57.06
766.998	62.3
767.178	59.09
767.357	61.63
767.537	61.49
767.716	59.09
767.896	55.3
768.075	56.15
768.254	59.11
768.434	57.19
768.613	56.37
768.792	47.93
768.972	46.84
769.151	50.48
769.33	52.32
769.51	55.01
769.689	53.5
769.868	55.74
770.047	55.46
770.226	54.85
770.406	56.95
770.585	56.64
770.764	59.75
770.943	57.74
771.122	51.63
771.301	49.32
771.48	49.76
771.66	47.8
771.839	49.47
772.018	49.38
772.197	50.78
772.376	49.02
772.555	49.11
772.734	50.45
772.913	52
773.092	54.21
773.271	53.4
773.449	55.96
773.628	57.43
773.807	56.83
773.986	59.14
774.165	61.36
774.344	60.02
774.523	57.43
774.701	59.71
774.88	59.16
775.059	59.78
775.238	55.95
775.417	56.4
775.595	55.99
775.774	51.76
775.953	46.61
776.131	43.06
776.31	45.03
776.489	48.89
776.667	44.57
776.846	48.19
777.025	49.01
777.203	51.24
777.382	45.53
777.56	48.98
777.739	51.45
777.917	59.22
778.096	57.17
778.274	52.92
778.453	53.69
778.631	58.39
778.81	56.43
778.988	56.32
779.166	58.41
779.345	57.49
779.523	56.13
779.702	56.05
779.88	50.61
780.058	47.7
780.237	52.14
780.415	54.54
780.593	54.14
780.771	52.9
780.95	52.94
781.128	49.86
781.306	52.07
781.484	46.91
781.662	48.2
781.841	47.05
782.019	52.53
782.197	51.89
782.375	51.02
782.553	52.09
782.731	52.27
782.909	51.06
783.087	49.87
783.265	58.09
783.443	61.37
783.621	58.56
783.799	61.37
783.977	59.23
784.155	61
784.333	58.3
784.511	57.52
784.689	58.05
784.867	57.26
785.045	59.82
785.223	53.92
785.4	59.08
785.578	57.32
785.756	56.56
785.934	53.96
786.112	52.41
786.289	52.78
786.467	50.16
786.645	48.37
786.823	51.61
787	54.98
787.178	57.01
787.356	53.73
787.533	57.71
787.711	61.56
787.889	64.55
788.066	64.1
788.244	64.57
788.421	67.82
788.599	68.16
788.776	66.68
788.954	64.7
789.131	62.02
789.309	57.04
789.486	53.31
789.664	50.78
789.841	50.49
790.019	54.28
790.196	54.76
790.373	48.02
790.551	48.58
790.728	53.85
790.906	52.24
791.083	55.51
791.26	64.27
791.437	66.01
791.615	69.8
791.792	71.65
791.969	64.98
792.146	66.27
792.324	68.66
792.501	64.44
792.678	58.11
792.855	57.39
793.032	52.52
793.209	53.68
793.387	52.44
793.564	48.36
793.741	48.87
793.918	52.85
794.095	53.26
794.272	54.93
794.449	57.18
794.626	55.34
794.803	55.59
794.98	56.64
795.157	53.27
795.334	54.06
795.511	51.76
795.688	51.95
795.864	49.46
796.041	49.51
796.218	47.9
796.395	54.31
796.572	60.66
796.749	59.42
796.925	61.14
797.102	58.87
797.279	65.11
797.456	65.3
797.632	61.92
797.809	64.08
797.986	62.16
798.162	64.7
798.339	60.11
798.516	56.1
798.692	59.86
798.869	61.85
799.046	65.59
799.222	57.66
799.399	64.54
799.575	63.97
799.752	57.44
799.928	53.82
800.105	51.28
800.281	51.08
800.458	50.66
800.634	47.62
800.811	44.79
800.987	43.04
801.163	47.06
801.34	39.13
801.516	35.01
801.692	41.58
801.869	44.43
802.045	46.76
802.221	46.89
802.398	48.4
802.574	45.46
802.75	44.39
802.926	45.63
803.103	48.16
803.279	57.43
803.455	64.45
803.631	65.75
803.807	65.41
803.983	63.25
804.16	62.66
804.336	59.34
804.512	66.13
804.688	63.66
804.864	69.55
805.04	63.67
805.216	55.77
805.392	50.06
805.568	45.85
805.744	52.71
805.92	48.01
806.096	49.43
806.272	43.59
806.448	43.79
806.623	43.99
806.799	43.2
806.975	44.66
807.151	46.63
807.327	52.96
807.503	55.84
807.678	52.16
807.854	59.66
808.03	56.69
808.206	59.71
808.381	64.29
808.557	76.69
808.733	74.6
808.908	74.49
809.084	83.27
809.26	73.58
809.435	69.58
809.611	63.2
809.787	59.69
809.962	63.27
810.138	70.59
810.313	66.7
810.489	61.94
810.664	56.54
810.84	56.74
811.015	40.83
811.191	48.25
811.366	56.32
811.542	56.22
811.717	61.5
811.892	66.73
812.068	62.74
812.243	62.11
812.419	53.11
812.594	46.26
812.769	50.86
812.944	64.4
813.12	60.44
813.295	54.43
813.47	63.9
813.645	60.93
813.821	54.58
813.996	50.94
814.171	47.81
814.346	57.88
814.521	66.3
814.697	53.39
814.872	54.8
815.047	64.32
815.222	64.76
815.397	55.03
815.572	57.22
815.747	56.46
815.922	66.3
816.097	67.9
816.272	58.48
816.447	59.67
816.622	62.98
816.797	60.14
816.972	50.04
817.147	46.23
817.322	51.29
817.496	48.65
817.671	40.22
817.846	30.53
818.021	26.62
818.196	35.65
818.371	34.6
818.545	38.44
818.72	35.72
818.895	33.25
819.069	33.33
819.244	35.23
819.419	36.48
819.594	45.76
819.768	48.33
819.943	48.04
820.117	46.13
820.292	44.59
820.467	44.49
820.641	44.28
820.816	46.33
820.99	45.28
821.165	43.78
821.339	43.12
821.514	41.67
821.688	42.11
821.863	41.77
822.037	41.85
822.212	41.45
822.386	41.02
822.56	40.34
822.735	40.6
822.909	41.88
823.084	42.22
823.258	42.18
823.432	41.62
823.606	40.32
823.781	40.86
823.955	40.84
824.129	40.85
824.303	41.42
824.478	42.98
824.652	41.55
824.826	39.89
825	42.46
825.174	43.53
825.348	45.18
825.523	45.41
825.697	45.25
825.871	45.46
826.045	45.44
826.219	44.25
826.393	42.99
826.567	45.26
826.741	47.08
826.915	44.03
827.089	43.22
827.263	42.53
827.437	43.35
827.611	44.31
827.784	43.27
827.958	43.9
828.132	46.36
828.306	49.24
828.48	46.38
828.654	46.02
828.827	49.28
829.001	45.41
829.175	46.78
829.349	48.96
829.522	45.02
829.696	46.42
829.87	52.48
830.044	53.44
830.217	50.96
830.391	52.24
830.565	51.76
830.738	49.38
830.912	54.99
831.085	52.61
831.259	49.26
831.432	53.8
831.606	53.86
831.779	46.73
831.953	45.32
832.126	54.14
832.3	52.31
832.473	48.66
832.647	44.33
832.82	46.44
832.994	47.05
833.167	48.13
833.34	46.07
833.514	43.92
833.687	45.4
833.86	44.31
834.034	39.46
834.207	38.97
834.38	40.88
834.553	41.86
834.727	42.11
834.9	45.55
835.073	46.8
835.246	46.4
835.419	47.63
835.593	45.15
835.766	44.76
835.939	39.73
836.112	40.96
836.285	41.14
836.458	44.45
836.631	45.42
836.804	39.85
836.977	35.47
837.15	41.24
837.323	38.77
837.496	40.56
837.669	30.63
837.842	34.74
838.015	32.34
838.188	32.37
838.361	36.35
838.533	32.79
838.706	39.21
838.879	44.72
839.052	44.87
839.225	50.48
839.398	57.81
839.57	59.18
839.743	63.48
839.916	59.5
840.088	55.96
840.261	56.8
840.434	58.26
840.607	59.06
840.779	55.83
840.952	51.89
841.124	52.92
841.297	48.92
841.47	49.06
841.642	47.59
841.815	60.29
841.987	62.49
842.16	59.03
842.332	56.6
842.505	47.79
842.677	62.65
842.85	67.03
843.022	64.89
843.194	73.16
843.367	104.97
843.539	93.24
843.712	76.76
843.884	90.52
844.056	75.19
844.229	92.5
844.401	120.42
844.573	91.65
844.745	73.82
844.918	74.22
845.09	101.91
845.262	93.29
845.434	103.88
845.606	63.04
845.779	82.75
845.951	284.77
846.123	242.9
846.295	246.98
846.467	192.54
846.639	257
846.811	607.5
846.983	334.47
847.155	459.3
847.327	243.49
847.499	194.68
847.671	235.35
847.843	184.76
848.015	186.86
848.187	173.65
848.359	748.07
848.531	-470.93
848.703	546.06
848.875	-1384.69
849.047	1968.77
849.218	-793.96
849.39	-168.01
849.562	-133.33
849.734	-115.07
849.905	-136.88
850.077	-288.08
850.249	850.66
850.421	699.34
850.592	-782.46
850.764	375.34
850.936	308.95
851.107	137.72
851.279	109.13
851.451	62.76
851.622	53.48
851.794	51.25
851.965	31.28
852.137	42.74
852.308	53.98
852.48	69.1
852.651	58.43
852.823	59.49
852.994	52.79
853.166	76.96
853.337	116.19
853.509	252.5
853.68	-1471.25
853.851	266.1
854.023	206.53
854.194	233.86
854.365	228.09
854.537	194.41
854.708	190.94
854.879	183.4
855.05	201.08
855.222	262.83
855.393	485.22
855.564	1311.24
855.735	-1008.68
855.906	-3243.27
856.078	-702.03
856.249	-1723.86
856.42	-38607.14
856.591	1530.87
856.762	11264.47
856.933	766.32
857.104	1168.22
857.275	265.6
857.446	140.06
857.617	116.35
857.788	104.82
857.959	97.54
858.13	95.07
858.301	133.9
858.472	165.03
858.643	122.85
858.814	156.38
858.985	128.65
859.155	158.9
859.326	175.92
859.497	551.61
859.668	-103.87
859.839	-46.16
860.009	26.94
860.18	22.91
860.351	30.49
860.522	-9.13
860.692	-4.66
860.863	0.19
861.034	-93.69
861.204	-63.37
861.375	-37.76
861.546	-135.01
861.716	-72.16
861.887	-211.3
862.057	14574
862.228	293.75
862.398	666.88
862.569	394.46
862.739	416.39
862.91	226.03
863.08	146.49
863.251	126.17
863.421	129.94
863.592	130.28
863.762	159.66
863.932	169.38
864.103	205.28
864.273	300.42
864.443	620.12
864.614	147.13
864.784	230
864.954	267.63
865.125	517.95
865.295	336.45
865.465	666.51
865.635	263.19
865.805	172.52
865.976	87.96
866.146	47.12
866.316	57.98
866.486	85.74
866.656	90.28
866.826	86.56
866.996	138.3
867.166	219.62
867.336	240.12
867.506	1371.13
867.676	-59.33
867.846	-26.42
868.016	-43.09
868.186	-47.22
868.356	-78.52
868.526	-42.34
868.696	-24.44
868.866	23.5
869.036	-33.03
869.206	12.72
869.376	-32.98
869.545	66.42
869.715	82.24
869.885	27.34
870.055	27.66
870.224	19.47
870.394	53.45
870.564	72.9
870.734	72.73
870.903	74.65
871.073	87.08
871.243	54.41
871.412	66.05
871.582	114.7
871.751	166.36
871.921	204.52
872.091	183.19
872.26	182.11
872.43	176.88
872.599	117.69
872.769	96.69
872.938	74.28
873.108	96.66
873.277	93.39
873.446	69.87
873.616	83.51
873.785	69.9
873.955	92.79
874.124	45.45
874.293	54.63
874.463	59.88
874.632	64.1
874.801	60.01
874.971	78.65
875.14	188.2
875.309	163.13
875.478	158.21
875.647	146.05
875.817	105.99
875.986	166.37
876.155	109.45
876.324	129.21
876.493	138.81
876.662	207.69
876.831	222.31
877	150.25
877.17	155.79
877.339	178.76
877.508	188.72
877.677	184.48
877.846	240.39
878.015	302.23
878.184	270.05
878.352	227.71
878.521	199.95
878.69	171.55
878.859	162.66
879.028	132.68
879.197	109.45
879.366	100.58
879.534	97.8
879.703	73.76
879.872	77.08
880.041	75.21
880.21	68.97
880.378	57.91
880.547	44.12
880.716	42.53
880.884	42.49
881.053	41.85
881.222	42.77
881.39	43
881.559	43.59
881.727	38.24
881.896	39.92
882.065	39.14
882.233	35.82
882.402	33.58
882.57	30.06
882.739	31.33
882.907	33.18
883.076	31.38
883.244	31.11
883.412	28.16
883.581	28.33
883.749	28.74
883.918	31.62
884.086	37.24
884.254	49.43
884.423	60.78
884.591	57.89
884.759	61.41
884.927	59.29
885.096	50.73
885.264	54.49
885.432	61.72
885.6	55.01
885.769	63.37
885.937	64.84
886.105	50.81
886.273	36.96
886.441	43.31
886.609	32.47
886.777	45.16
886.945	48.15
887.113	37.83
887.281	32.2
887.449	45.41
887.617	58.14
887.785	60
887.953	63.58
888.121	60.89
888.289	53.57
888.457	90.6
888.625	54.54
888.793	72.19
888.961	290.76
889.129	129.58
889.296	120.7
889.464	101.55
889.632	91
889.8	119.49
889.967	115.21
890.135	109.52
