Data from JASIL_3084_Reflection_01.txt Node
Date: Mon Nov 09 12:02:34 EST 2015
User: Geneva
Spectrometer: USB4E03002
Autoset integration time: false
Trigger mode: 4
Integration Time (sec): 1.000000E-1
Scans to average: 10
Electric dark correction enabled: false
Nonlinearity correction enabled: false
Boxcar width: 5
Stray light correction enabled: false
XAxis mode: Wavelengths
Stop averaging: false
Number of Pixels in Spectrum: 3648
>>>>>Begin Spectral Data<<<<<
177.575	210.24
177.794	-1121.05
178.014	491.84
178.233	221.39
178.452	248.55
178.672	236.36
178.891	167.95
179.11	330.21
179.33	169.27
179.549	124.1
179.768	164.06
179.987	120.57
180.207	103.17
180.426	122.87
180.645	167.72
180.864	134.24
181.084	144.83
181.303	247.39
181.522	238.37
181.741	4000
181.96	-281.58
182.179	-553.85
182.398	-172.49
182.618	-115.99
182.837	-192.86
183.056	-199.47
183.275	-1313.89
183.494	304.35
183.713	5875
183.932	1100
184.151	119.61
184.37	37.53
184.589	53.96
184.808	42.97
185.027	19.39
185.246	11.26
185.465	22.45
185.684	61.69
185.903	338.3
186.122	405.66
186.341	262.79
186.56	415.79
186.779	-161.97
186.998	-344.94
187.216	-1116
187.435	-168.84
187.654	4614.29
187.873	664.71
188.092	251
188.311	149.59
188.53	211.52
188.748	177.27
188.967	156.04
189.186	143.53
189.405	124.72
189.623	138.6
189.842	161.64
190.061	221.79
190.28	303.23
190.498	1074.24
190.717	474.44
190.936	270
191.154	269.29
191.373	483.48
191.592	451.75
191.81	829.89
192.029	343.66
192.248	260.38
192.466	202.74
192.685	169.69
192.904	134.74
193.122	139.43
193.341	122.18
193.559	126.3
193.778	136.49
193.996	172.65
194.215	178.34
194.433	167.8
194.652	123.57
194.87	141.08
195.089	215.54
195.307	500
195.526	662.96
195.744	1111.43
195.963	320.28
196.181	530.11
196.399	152.43
196.618	164.96
196.836	151.79
197.055	205.65
197.273	232.76
197.491	163.75
197.71	113.08
197.928	123.99
198.146	127.27
198.365	133.49
198.583	126.9
198.801	131.42
199.019	145.14
199.238	312.96
199.456	366.06
199.674	977.08
199.892	-4709.09
200.111	-719.48
200.329	24333.33
200.547	415.91
200.765	257.35
200.983	223.48
201.202	277.14
201.42	220.41
201.638	156.77
201.856	132.69
202.074	91.19
202.292	92.88
202.51	97.83
202.728	75.84
202.946	93.51
203.165	88.33
203.383	99.4
203.601	70.82
203.819	54.99
204.037	65.7
204.255	61.23
204.473	122.96
204.691	97.38
204.909	78.8
205.127	76.67
205.345	50.91
205.562	78.05
205.78	73.41
205.998	87.82
206.216	133.11
206.434	103.61
206.652	114.54
206.87	103.66
207.088	83.51
207.306	78.59
207.523	92.2
207.741	133.59
207.959	715.15
208.177	-434.38
208.395	984.38
208.612	3411.11
208.83	429.27
209.048	342.72
209.266	12600
209.483	-584.09
209.701	-175.98
209.919	-127.46
210.136	-197.25
210.354	1135.48
210.572	1290.2
210.79	-458.26
211.007	-639.06
211.225	-230.29
211.442	-76.67
211.66	-111.24
211.878	-36.53
212.095	-246.77
212.313	235.9
212.53	627.27
212.748	-115.56
212.966	-171.43
213.183	1183.33
213.401	-39.86
213.618	54.75
213.836	17.76
214.053	-4.51
214.271	-192.31
214.488	2.8
214.705	1.2
214.923	12.46
215.14	36.96
215.358	29.52
215.575	40.37
215.793	-20.9
216.01	-154.2
216.227	-36.59
216.445	32.38
216.662	74.88
216.879	-39.1
217.097	-18.79
217.314	-168.75
217.531	452.27
217.749	1171.87
217.966	-3940
218.183	40000
218.4	-250.93
218.618	373.53
218.835	-1520.59
219.052	-293.6
219.269	-207.04
219.487	-200.57
219.704	-1512
219.921	-159.09
220.138	127.19
220.355	329.03
220.572	111.27
220.79	123.56
221.007	139.46
221.224	94.92
221.441	45.86
221.658	26.32
221.875	39.25
222.092	36.25
222.309	98.02
222.526	101.27
222.743	86.97
222.96	85.29
223.177	49.22
223.394	47.45
223.611	59.97
223.828	69.04
224.045	80.83
224.262	70.95
224.479	71.97
224.696	62.98
224.913	65.5
225.13	41.68
225.347	58.02
225.564	58.19
225.781	52.59
225.997	47.95
226.214	54.29
226.431	54.1
226.648	56.38
226.865	41.44
227.082	35.11
227.298	25.06
227.515	32.57
227.732	26.67
227.949	32.8
228.165	33.86
228.382	33.32
228.599	31.92
228.816	27.78
229.032	26.58
229.249	27.75
229.466	28.5
229.682	38.15
229.899	27.73
230.116	29.12
230.332	20.49
230.549	14.81
230.765	14.94
230.982	5.91
231.199	2
231.415	5.05
231.632	19.55
231.848	20.45
232.065	28.65
232.281	25.51
232.498	13.35
232.714	9.77
232.931	16.56
233.147	12.18
233.364	15.3
233.58	16.44
233.797	9.98
234.013	5.5
234.23	-7.93
234.446	-4.56
234.662	14.89
234.879	15.37
235.095	17.69
235.312	11.9
235.528	22.37
235.744	15.38
235.961	6.78
236.177	11.72
236.393	11.31
236.61	22.77
236.826	8.15
237.042	-15.12
237.258	-11.78
237.475	-21.68
237.691	-17.46
237.907	-22.52
238.123	-15.36
238.339	-1.85
238.556	-0.24
238.772	10.53
238.988	12.15
239.204	17.52
239.42	21.28
239.636	35.97
239.853	31.64
240.069	24.55
240.285	27.02
240.501	24.25
240.717	21.44
240.933	20.12
241.149	17.31
241.365	18.61
241.581	13.9
241.797	15.71
242.013	10.36
242.229	12.27
242.445	14.27
242.661	10.65
242.877	10.1
243.093	10.39
243.309	8.75
243.525	9.55
243.741	5.83
243.957	6.9
244.173	2.34
244.388	5.04
244.604	4.52
244.82	7.22
245.036	9.62
245.252	11.6
245.468	9.51
245.683	9.26
245.899	11.11
246.115	11.68
246.331	13.33
246.547	13.87
246.762	14.25
246.978	15.99
247.194	13.44
247.409	10.9
247.625	10.81
247.841	12.19
248.057	16.34
248.272	13.42
248.488	9.84
248.703	5.29
248.919	9.31
249.135	5.15
249.35	-0.43
249.566	8.33
249.782	3.02
249.997	-3.64
250.213	-1.13
250.428	-8.03
250.644	-5.26
250.859	1.49
251.075	5.48
251.29	0.62
251.506	4.15
251.721	8.08
251.937	5.75
252.152	10.41
252.368	13.17
252.583	14.93
252.798	15.29
253.014	17.27
253.229	16.41
253.445	9.67
253.66	10.6
253.875	7.14
254.091	1.34
254.306	6.4
254.521	4.13
254.737	4.04
254.952	3.47
255.167	11.26
255.383	14.3
255.598	17.22
255.813	22.25
256.028	24.6
256.244	23.51
256.459	25.87
256.674	19.73
256.889	20.11
257.104	16.34
257.32	15.64
257.535	12.48
257.75	7.02
257.965	3.25
258.18	2.56
258.395	-0.34
258.61	1.79
258.826	1.67
259.041	2.61
259.256	1.7
259.471	1.17
259.686	-0.18
259.901	1.26
260.116	3.23
260.331	2.53
260.546	2.47
260.761	7.77
260.976	6.04
261.191	6.3
261.406	6.92
261.621	7.04
261.836	13.62
262.05	13.42
262.265	12.94
262.48	13.25
262.695	18.58
262.91	20.72
263.125	19.15
263.34	17.51
263.555	16.44
263.769	16.52
263.984	17.05
264.199	11.36
264.414	12.11
264.629	9.39
264.843	9.23
265.058	4.91
265.273	6.72
265.488	2.76
265.702	1.65
265.917	4.34
266.132	3.47
266.346	6.03
266.561	8.72
266.776	14.09
266.99	11.54
267.205	12.73
267.42	12.36
267.634	6.63
267.849	10.85
268.063	11.04
268.278	9.57
268.492	8.72
268.707	7.21
268.922	5.86
269.136	-3.28
269.351	3.07
269.565	4.89
269.78	9.2
269.994	12.5
270.209	10.51
270.423	14.69
270.637	13.97
270.852	13.06
271.066	15.74
271.281	16.18
271.495	17.72
271.709	14.9
271.924	10.4
272.138	7.63
272.353	8.97
272.567	10.11
272.781	6.8
272.996	9.58
273.21	10.53
273.424	5.12
273.638	2.97
273.853	4.39
274.067	3.18
274.281	4.42
274.495	7.65
274.71	8.34
274.924	6.64
275.138	4.7
275.352	-3.22
275.566	-1.54
275.781	-1.58
275.995	1.48
276.209	4.08
276.423	8.23
276.637	9.89
276.851	4.42
277.065	4.98
277.279	4.39
277.493	4.19
277.707	8.44
277.921	7.07
278.135	10.12
278.349	9.32
278.563	5.6
278.777	7.39
278.991	6.31
279.205	9.22
279.419	3.09
279.633	1.99
279.847	2.49
280.061	4.56
280.275	4.68
280.489	6.93
280.703	5.85
280.917	8.52
281.131	5.25
281.344	6.58
281.558	3.79
281.772	4.99
281.986	7.08
282.2	8.89
282.414	4.45
282.627	5.23
282.841	0.71
283.055	0.89
283.269	0.32
283.482	2.12
283.696	3.65
283.91	6.97
284.123	7.23
284.337	7.17
284.551	5.44
284.764	7.37
284.978	5.7
285.192	6.95
285.405	9.23
285.619	7.3
285.833	7.96
286.046	8.62
286.26	6.74
286.473	6.73
286.687	5.47
286.9	8.45
287.114	6.95
287.327	7.85
287.541	8.5
287.754	6.64
287.968	8.06
288.181	6.63
288.395	4.9
288.608	5.98
288.822	6.98
289.035	6.25
289.248	6.54
289.462	7.81
289.675	7.24
289.889	8.18
290.102	7.66
290.315	8.64
290.529	6.52
290.742	5.81
290.955	7.19
291.169	9.22
291.382	10.67
291.595	7.32
291.808	7.49
292.022	7.53
292.235	4.62
292.448	5.67
292.661	4.57
292.875	7.53
293.088	8.27
293.301	8.18
293.514	6.11
293.727	7.28
293.94	9.07
294.153	9.82
294.367	11.11
294.58	11.75
294.793	10.72
295.006	9.47
295.219	8.43
295.432	7.94
295.645	9.46
295.858	8.27
296.071	9.69
296.284	7.94
296.497	7
296.71	7.12
296.923	6.98
297.136	7.62
297.349	8.74
297.562	9.87
297.775	9.53
297.988	8.42
298.201	6.75
298.414	5.28
298.626	6.17
298.839	8.42
299.052	6.55
299.265	7.75
299.478	8.03
299.691	6.28
299.903	6.11
300.116	4.73
300.329	1.76
300.542	5.01
300.755	4.77
300.967	4.49
301.18	3.46
301.393	3.84
301.605	2.89
301.818	0.77
302.031	3.86
302.243	3.45
302.456	3.94
302.669	6.16
302.881	8.07
303.094	5.89
303.307	8.09
303.519	8.91
303.732	7.32
303.944	8.13
304.157	9.57
304.37	7.86
304.582	6.39
304.795	8.06
305.007	5.78
305.22	4.14
305.432	6.81
305.645	4.69
305.857	2.46
306.069	4.25
306.282	2.83
306.494	2.08
306.707	-1.21
306.919	0.27
307.132	-1.22
307.344	2.32
307.556	1.43
307.769	-1.03
307.981	-0.56
308.193	-0.68
308.406	0.62
308.618	3.16
308.83	3.46
309.043	6.72
309.255	6.52
309.467	5.12
309.679	5.33
309.892	6.22
310.104	11.03
310.316	10.35
310.528	10.56
310.74	10.32
310.953	8.63
311.165	10.34
311.377	9.13
311.589	9.41
311.801	10.47
312.013	7.02
312.225	7.46
312.437	-0.02
312.649	0.11
312.862	0.38
313.074	-3.72
313.286	-2.18
313.498	-4.31
313.71	-2.68
313.922	-2.26
314.134	0.73
314.346	4.83
314.558	5.64
314.77	11.72
314.982	11.97
315.193	13.52
315.405	13.42
315.617	13.17
315.829	11.69
316.041	12.79
316.253	14.38
316.465	14.93
316.677	13.63
316.888	9.88
317.1	9.95
317.312	9.69
317.524	8.51
317.736	12.71
317.947	12.55
318.159	13.14
318.371	10.21
318.583	9.82
318.794	11.6
319.006	10.48
319.218	13.51
319.43	10.77
319.641	11.54
319.853	11.57
320.064	12.83
320.276	13.23
320.488	12.87
320.699	14.56
320.911	12.62
321.123	9.61
321.334	12.56
321.546	15.02
321.757	12.63
321.969	12.93
322.18	15.11
322.392	16.04
322.603	13.73
322.815	13.89
323.026	13.22
323.238	14.73
323.449	15.9
323.661	14.45
323.872	10.6
324.083	12.31
324.295	8.62
324.506	7.21
324.718	2.41
324.929	5.85
325.14	6.95
325.352	5.82
325.563	5.23
325.774	5.08
325.986	4.82
326.197	5.66
326.408	5.19
326.62	8.61
326.831	5.8
327.042	8.86
327.253	6.91
327.464	8.18
327.676	12.9
327.887	10.51
328.098	8.23
328.309	7.14
328.52	7.49
328.732	4.62
328.943	7.11
329.154	9.88
329.365	8.1
329.576	7.77
329.787	5.65
329.998	3.56
330.209	6.06
330.42	9.14
330.631	10.54
330.842	12.2
331.053	14.25
331.264	10.98
331.475	11.03
331.686	12.23
331.897	12.65
332.108	11.42
332.319	10.28
332.53	10.07
332.741	8.44
332.952	8.8
333.163	8.2
333.374	11.93
333.585	14.76
333.795	14.68
334.006	13.29
334.217	12.69
334.428	15.27
334.639	15.66
334.849	16.35
335.06	14.93
335.271	13.01
335.482	10.27
335.692	5.34
335.903	4.72
336.114	5.25
336.325	4.91
336.535	4.33
336.746	5.12
336.957	4.67
337.167	4.32
337.378	7.58
337.589	8.88
337.799	11.26
338.01	13.51
338.22	12.99
338.431	10.1
338.642	10.81
338.852	10.54
339.063	8.21
339.273	7.03
339.484	8.02
339.694	7.35
339.905	7.21
340.115	7.61
340.326	7.34
340.536	5.14
340.746	4.1
340.957	5.05
341.167	5.82
341.378	6.11
341.588	7.44
341.799	7.42
342.009	8.2
342.219	8.24
342.43	7.03
342.64	6.95
342.85	8.07
343.061	9.95
343.271	8.89
343.481	10.56
343.691	12.42
343.902	12.64
344.112	10.57
344.322	8.69
344.532	9.18
344.743	9.65
344.953	11.39
345.163	13.54
345.373	14.81
345.583	15.41
345.793	13.8
346.004	14.17
346.214	12.51
346.424	12.53
346.634	13.71
346.844	14.21
347.054	13.64
347.264	11.62
347.474	9.73
347.684	9.31
347.894	9.36
348.104	10.49
348.314	7.65
348.524	6.82
348.734	7.63
348.944	7.05
349.154	7.02
349.364	7.99
349.574	8.35
349.784	7.21
349.994	7.95
350.204	7.29
350.413	7.88
350.623	7.92
350.833	8.72
351.043	8.53
351.253	8.84
351.463	7.82
351.672	6.01
351.882	8.07
352.092	9.44
352.302	8.2
352.511	7.74
352.721	5.38
352.931	5.53
353.141	4.25
353.35	4.69
353.56	4.66
353.77	5.12
353.979	6.07
354.189	4.61
354.399	5.16
354.608	6.67
354.818	9.48
355.027	11.35
355.237	12.43
355.447	15.39
355.656	14.68
355.866	15.25
356.075	14.26
356.285	14.54
356.494	14.57
356.704	14.11
356.913	12.21
357.123	10.41
357.332	8.9
357.542	7.33
357.751	5.36
357.96	4.96
358.17	6.12
358.379	6.89
358.589	6.77
358.798	7.24
359.007	6.96
359.217	8.02
359.426	8.09
359.635	9.88
359.845	11.34
360.054	11.84
360.263	12.36
360.472	10.3
360.682	10.01
360.891	9.67
361.1	8.68
361.309	8.53
361.519	7.92
361.728	7.01
361.937	5.72
362.146	5.86
362.355	6.93
362.564	8.07
362.774	7.11
362.983	9.02
363.192	10.34
363.401	10.28
363.61	10.72
363.819	13.02
364.028	14.64
364.237	14.05
364.446	13.04
364.655	12
364.864	11.05
365.073	13.13
365.282	11.32
365.491	9.6
365.7	9.9
365.909	10.18
366.118	8.46
366.327	8.16
366.536	9.64
366.745	8.68
366.954	9.43
367.162	10.18
367.371	9.68
367.58	9.55
367.789	10.08
367.998	10.51
368.207	11.46
368.415	12.65
368.624	10.77
368.833	9.96
369.042	9.5
369.25	10.09
369.459	9.6
369.668	9.52
369.877	9.39
370.085	8.47
370.294	8.79
370.503	8.03
370.711	7.47
370.92	9.04
371.129	9.94
371.337	11.74
371.546	10.79
371.754	11.29
371.963	11.16
372.171	12.96
372.38	14.32
372.589	14.88
372.797	14.48
373.006	14.46
373.214	13.91
373.423	14.92
373.631	13.41
373.84	12.41
374.048	11.97
374.256	12.28
374.465	9.96
374.673	10.75
374.882	9.01
375.09	8.23
375.298	7.53
375.507	6.73
375.715	5.71
375.923	8.02
376.132	6.9
376.34	7.64
376.548	6.77
376.757	7.97
376.965	6.91
377.173	8.32
377.381	9
377.59	9.36
377.798	11.09
378.006	9.17
378.214	8.85
378.423	9.92
378.631	8.48
378.839	8.83
379.047	8.33
379.255	9.59
379.463	9.21
379.671	10.59
379.879	10.08
380.088	8.45
380.296	9.27
380.504	8.79
380.712	8.82
380.92	7.44
381.128	6.17
381.336	5.12
381.544	2.73
381.752	1.69
381.96	0.3
382.168	0.05
382.376	1.38
382.584	2.84
382.791	1.44
382.999	1.62
383.207	3.62
383.415	4.24
383.623	5.31
383.831	6.96
384.039	6.89
384.247	6.75
384.454	6.46
384.662	6.7
384.87	5.71
385.078	7.8
385.285	6.85
385.493	6.99
385.701	8.26
385.909	8.75
386.116	7.92
386.324	8.57
386.532	8.72
386.739	10.03
386.947	9.49
387.155	10
387.362	10.37
387.57	10.02
387.778	9.14
387.985	7.53
388.193	8.04
388.4	8.51
388.608	8.4
388.816	7.91
389.023	9.19
389.231	7.69
389.438	8.83
389.646	8.66
389.853	9.76
390.061	10.83
390.268	12.48
390.475	11.71
390.683	12.02
390.89	11.02
391.098	11.57
391.305	10.21
391.512	11.8
391.72	10.49
391.927	9.04
392.135	9.83
392.342	9.04
392.549	8.77
392.756	8.88
392.964	8.41
393.171	9.16
393.378	9.29
393.586	10.28
393.793	10.44
394	10.46
394.207	10.84
394.414	11.44
394.622	12.15
394.829	12.34
395.036	11.98
395.243	12.12
395.45	12.33
395.657	13.52
395.864	12.41
396.072	12.33
396.279	12.47
396.486	13.05
396.693	11.29
396.9	11.66
397.107	11.81
397.314	13.04
397.521	12
397.728	11.89
397.935	10.1
398.142	10.64
398.349	10.45
398.556	10.51
398.763	10.02
398.97	11.13
399.177	10.8
399.383	10.55
399.59	10.3
399.797	10.44
400.004	10.46
400.211	10.91
400.418	11.14
400.625	10.92
400.831	10.51
401.038	10.74
401.245	11.85
401.452	11.55
401.658	11.58
401.865	11.06
402.072	12.1
402.279	12.02
402.485	12.63
402.692	12.22
402.899	12.34
403.105	12.18
403.312	11.97
403.519	9.84
403.725	10.01
403.932	9.59
404.138	10
404.345	9.47
404.552	10.48
404.758	9.96
404.965	10.37
405.171	11.57
405.378	12.49
405.584	12.74
405.791	13.15
405.997	13.61
406.204	13.47
406.41	13.34
406.617	12.9
406.823	11.9
407.029	12.44
407.236	11.69
407.442	10
407.649	9.26
407.855	8.94
408.061	9.3
408.268	8.16
408.474	8.48
408.68	8.59
408.887	8.48
409.093	8.41
409.299	7.98
409.505	8.78
409.712	8.97
409.918	8.68
410.124	8.98
410.33	9.2
410.537	10.13
410.743	10.32
410.949	11.04
411.155	11.05
411.361	11.5
411.567	11.69
411.773	11.39
411.98	11.67
412.186	11.98
412.392	11.56
412.598	12.35
412.804	11.18
413.01	11.03
413.216	9.57
413.422	9.93
413.628	9.78
413.834	9.36
414.04	9.19
414.246	9.63
414.452	9.84
414.658	10.07
414.864	10.13
415.07	11.59
415.275	11.7
415.481	12.38
415.687	12.42
415.893	12.59
416.099	12.76
416.305	11.98
416.511	10.7
416.716	11.45
416.922	11.85
417.128	11.92
417.334	11.4
417.539	11.54
417.745	10.72
417.951	10.53
418.157	10.6
418.362	10.41
418.568	10.43
418.774	10.64
418.979	9.58
419.185	9.18
419.391	7.91
419.596	8.04
419.802	7.81
420.008	8.22
420.213	3.67
420.419	3.29
420.624	3.35
420.83	3.82
421.035	3.95
421.241	4.73
421.446	4.52
421.652	4.84
421.857	4.66
422.063	4.28
422.268	4.24
422.474	8.9
422.679	9.42
422.885	9.36
423.09	9
423.295	9.22
423.501	8.99
423.706	9.08
423.911	9.3
424.117	8.92
424.322	9
424.527	9.22
424.733	9.47
424.938	8.88
425.143	9.05
425.349	9.35
425.554	8.87
425.759	9.07
425.964	9.54
426.169	9.39
426.375	9.98
426.58	10.32
426.785	10.52
426.99	10.44
427.195	10.18
427.4	9.88
427.605	10.37
427.811	11.21
428.016	10.6
428.221	10.73
428.426	11.2
428.631	10.7
428.836	11.31
429.041	10.53
429.246	11.08
429.451	11.6
429.656	12.51
429.861	12.6
430.066	11.92
430.271	11.72
430.476	11.27
430.681	10.83
430.886	11.07
431.09	10.6
431.295	11.04
431.5	10.03
431.705	10.39
431.91	9.69
432.115	9.1
432.32	9.17
432.524	9.91
432.729	9.91
432.934	10.23
433.139	10.76
433.343	10.77
433.548	10.73
433.753	11.35
433.958	11.42
434.162	11.63
434.367	11.33
434.572	11.69
434.776	11.09
434.981	10.89
435.186	11.05
435.39	10.66
435.595	10.57
435.799	10.25
436.004	9.93
436.209	9.34
436.413	8.67
436.618	8.96
436.822	8.79
437.027	9.14
437.231	9.36
437.436	9.54
437.64	9.38
437.845	9.77
438.049	10.14
438.253	10.22
438.458	10.01
438.662	10.46
438.867	10.35
439.071	10.28
439.275	9.68
439.48	9.86
439.684	9.5
439.888	9.42
440.093	8.95
440.297	8.54
440.501	8.56
440.706	8.42
440.91	8.34
441.114	8.18
441.318	8.64
441.523	9.18
441.727	9.01
441.931	9.04
442.135	9.49
442.339	9.65
442.543	9.71
442.748	9.59
442.952	10.03
443.156	10.02
443.36	10.25
443.564	9.7
443.768	9.49
443.972	9.52
444.176	9.26
444.38	8.94
444.584	8.84
444.788	8.77
444.992	9.07
445.196	8.99
445.4	9.12
445.604	9.44
445.808	9.83
446.012	9.75
446.216	9.49
446.42	9.74
446.624	9.61
446.828	10.04
447.032	10.23
447.235	10.08
447.439	9.91
447.643	10.03
447.847	9.88
448.051	8.97
448.254	8.93
448.458	8.9
448.662	8.88
448.866	9.13
449.069	8.98
449.273	9.17
449.477	9.21
449.681	9.9
449.884	9.64
450.088	9.24
450.292	10.71
450.495	11.23
450.699	11.57
450.902	11.04
451.106	11.07
451.31	11.11
451.513	11.29
451.717	10.92
451.92	10.8
452.124	10.38
452.327	10.71
452.531	10.49
452.734	10.22
452.938	10.59
453.141	11.42
453.345	11.64
453.548	10.53
453.752	10.11
453.955	10.27
454.158	10.46
454.362	10.59
454.565	9.82
454.769	8.91
454.972	8.77
455.175	8.44
455.379	8.58
455.582	8.51
455.785	9.55
455.988	9.13
456.192	9.43
456.395	8.88
456.598	8.89
456.801	9.46
457.005	10.01
457.208	9.82
457.411	9.64
457.614	8.77
457.817	8.57
458.021	8.09
458.224	8.49
458.427	8.27
458.63	8.13
458.833	8.36
459.036	8.41
459.239	8.13
459.442	8.37
459.645	8.07
459.848	8.07
460.051	7.77
460.254	8.11
460.457	7.68
460.66	7.34
460.863	7.25
461.066	6.91
461.269	6.46
461.472	7.29
461.675	6.94
461.878	7.64
462.081	8.25
462.284	8.39
462.486	8.02
462.689	8.37
462.892	9.41
463.095	10.03
463.298	10.57
463.5	10.78
463.703	9.25
463.906	9.56
464.109	9.26
464.311	8.92
464.514	9.17
464.717	9.91
464.92	9.9
465.122	9.06
465.325	8.92
465.528	8.87
465.73	8.18
465.933	8.6
466.135	8.72
466.338	8.65
466.541	9.56
466.743	9.87
466.946	9.26
467.148	9.05
467.351	9.4
467.553	9.46
467.756	9.08
467.958	10.14
468.161	10.26
468.363	10.31
468.566	10.02
468.768	8.88
468.971	8.43
469.173	8.54
469.375	8.9
469.578	8.92
469.78	8.51
469.983	9.13
470.185	9.06
470.387	9.3
470.59	8.71
470.792	8.19
470.994	9.27
471.196	9.3
471.399	9.57
471.601	9.21
471.803	9.31
472.005	8.99
472.208	9.06
472.41	8.8
472.612	8.74
472.814	9.19
473.016	9.9
473.218	9.49
473.421	9.77
473.623	9.93
473.825	10.16
474.027	10.25
474.229	10.28
474.431	9.69
474.633	10
474.835	9.8
475.037	9.41
475.239	9.4
475.441	9.25
475.643	9.5
475.845	9.39
476.047	9.33
476.249	9.24
476.451	9.75
476.653	10.15
476.855	10.03
477.057	10.29
477.258	10.59
477.46	10.65
477.662	10.62
477.864	10.65
478.066	10.34
478.268	10.41
478.469	10.82
478.671	10.81
478.873	10.42
479.075	10.33
479.276	10.21
479.478	10.2
479.68	9.92
479.882	9.75
480.083	9.67
480.285	9.88
480.487	9.37
480.688	8.87
480.89	8.66
481.091	8.86
481.293	8.79
481.495	8.74
481.696	8.89
481.898	8.82
482.099	8.9
482.301	8.65
482.502	8.53
482.704	8.75
482.905	8.68
483.107	8.74
483.308	8.52
483.51	8.43
483.711	8.45
483.913	8.38
484.114	8.56
484.315	8.54
484.517	8.65
484.718	8.61
484.92	8.71
485.121	8.69
485.322	8.69
485.524	8.79
485.725	8.78
485.926	8.72
486.127	8.67
486.329	8.56
486.53	8.58
486.731	8.44
486.932	8.58
487.134	8.44
487.335	8.6
487.536	8.58
487.737	8.65
487.938	8.66
488.139	8.76
488.341	8.73
488.542	8.87
488.743	8.6
488.944	8.53
489.145	8.47
489.346	8.71
489.547	8.43
489.748	8.41
489.949	8.6
490.15	8.62
490.351	8.65
490.552	8.77
490.753	8.63
490.954	8.75
491.155	8.82
491.356	8.83
491.557	8.47
491.758	8.68
491.959	8.68
492.159	8.61
492.36	8.78
492.561	8.75
492.762	8.66
492.963	8.84
493.164	9.02
493.364	9.52
493.565	9.67
493.766	9.81
493.967	9.89
494.167	9.86
494.368	9.87
494.569	9.79
494.769	10.09
494.97	10.24
495.171	10.16
495.371	10.31
495.572	10.26
495.773	10.15
495.973	10.44
496.174	10
496.375	10.13
496.575	10.21
496.776	10.36
496.976	10.42
497.177	10.05
497.377	9.83
497.578	9.96
497.778	9.71
497.979	9.66
498.179	9.42
498.38	9.68
498.58	9.78
498.78	9.66
498.981	9.53
499.181	8.99
499.382	10.15
499.582	10.66
499.782	9.97
499.983	9.98
500.183	10.23
500.383	10.61
500.584	10.74
500.784	10.82
500.984	11.03
501.184	11.14
501.385	11.25
501.585	9.86
501.785	9.52
501.985	10.38
502.185	10.78
502.386	10.55
502.586	10.4
502.786	10.5
502.986	10.66
503.186	10.47
503.386	10.59
503.586	10.63
503.786	11.16
503.987	11.37
504.187	11.34
504.387	10.85
504.587	11.13
504.787	11.29
504.987	11.25
505.187	11
505.387	11.13
505.587	10.49
505.786	10.42
505.986	10.41
506.186	10.33
506.386	10.58
506.586	11
506.786	11.02
506.986	10.55
507.186	10.66
507.386	10.63
507.585	10.4
507.785	11.35
507.985	11.65
508.185	11.54
508.384	11.61
508.584	10.85
508.784	10.62
508.984	10.58
509.183	10.55
509.383	10.43
509.583	10.57
509.782	10.92
509.982	11.05
510.182	10.79
510.381	10.74
510.581	10.8
510.781	11.05
510.98	11.17
511.18	11.18
511.379	11.65
511.579	11.88
511.778	11.96
511.978	11.58
512.177	10.92
512.377	11.05
512.576	11.5
512.776	11.36
512.975	11.42
513.175	12.11
513.374	11.98
513.573	12.1
513.773	12.15
513.972	12.09
514.172	12.44
514.371	13.22
514.57	13.47
514.77	13.06
514.969	13.2
515.168	13.11
515.367	12.96
515.567	12.98
515.766	13.1
515.965	13.29
516.164	13.42
516.364	13.11
516.563	12.73
516.762	12.62
516.961	12.6
517.16	12.49
517.359	12.56
517.559	12.16
517.758	12.53
517.957	12.3
518.156	12.15
518.355	12.62
518.554	13.18
518.753	12.72
518.952	12.5
519.151	13.02
519.35	13.19
519.549	13.46
519.748	13.73
519.947	13.74
520.146	14.22
520.345	14.19
520.544	14.38
520.743	14.2
520.942	14.94
521.141	15.07
521.339	15.14
521.538	15.62
521.737	15.54
521.936	15.59
522.135	15.71
522.333	15.74
522.532	15.9
522.731	15.32
522.93	15.48
523.129	15.4
523.327	15.62
523.526	15.55
523.725	15.59
523.923	16.08
524.122	16.05
524.321	16.05
524.519	15.96
524.718	16.16
524.917	16.15
525.115	15.7
525.314	15.73
525.512	15.81
525.711	15.98
525.909	15.93
526.108	15.79
526.306	15.72
526.505	15.5
526.703	15.65
526.902	15.56
527.1	15.67
527.299	16.05
527.497	16.22
527.696	16.23
527.894	16.25
528.092	16.28
528.291	16.53
528.489	16.8
528.688	17.08
528.886	17.25
529.084	17.54
529.283	17.64
529.481	17.67
529.679	17.65
529.877	18.14
530.076	18.34
530.274	18.4
530.472	18.11
530.67	18.23
530.869	18.19
531.067	17.9
531.265	17.63
531.463	17.85
531.661	18.16
531.859	18.1
532.057	18.22
532.255	18.04
532.454	18.15
532.652	18.43
532.85	18.2
533.048	18.22
533.246	18.82
533.444	19.18
533.642	19.18
533.84	19.01
534.038	19.31
534.236	19.07
534.434	19.36
534.632	19.41
534.83	19.38
535.027	19.62
535.225	20.04
535.423	19.99
535.621	20.09
535.819	20.17
536.017	20.07
536.215	20.26
536.412	20.35
536.61	20.6
536.808	21.01
537.006	21.12
537.203	21.43
537.401	21.5
537.599	21.4
537.797	21.44
537.994	21.89
538.192	22.41
538.39	22.62
538.587	22.77
538.785	22.38
538.983	22.13
539.18	22.01
539.378	21.91
539.575	22
539.773	21.93
539.97	22.14
540.168	21.94
540.366	21.99
540.563	21.94
540.761	22
540.958	22.22
541.155	22.55
541.353	22.83
541.55	23.03
541.748	23.11
541.945	23.46
542.143	23.62
542.34	23.95
542.537	24.11
542.735	24.33
542.932	24.37
543.129	24.82
543.327	24.77
543.524	25.29
543.721	25.32
543.919	25.33
544.116	25.32
544.313	25.51
544.51	25.57
544.708	25.79
544.905	25.76
545.102	26.49
545.299	26.45
545.496	26.65
545.693	26.3
545.891	26.99
546.088	27.34
546.285	27.68
546.482	28.02
546.679	28.3
546.876	28.63
547.073	28.79
547.27	28.48
547.467	28.27
547.664	28.59
547.861	29.27
548.058	28.94
548.255	29.32
548.452	29.37
548.649	29.13
548.846	29.19
549.043	29.37
549.24	29.51
549.437	30.07
549.633	30.95
549.83	31.26
550.027	31.13
550.224	31.39
550.421	31.44
550.618	31.29
550.814	31.08
551.011	31.46
551.208	31.09
551.405	31.7
551.601	31.78
551.798	31.27
551.995	31.32
552.191	31.41
552.388	31.43
552.585	31.52
552.781	32.05
552.978	32.06
553.175	31.96
553.371	32.55
553.568	32.47
553.764	32.44
553.961	32.91
554.157	32.64
554.354	32.7
554.55	32.75
554.747	32.66
554.943	32.5
555.14	33.41
555.336	33.11
555.533	33.65
555.729	34.49
555.926	34.2
556.122	34.44
556.318	35.15
556.515	35.27
556.711	36.09
556.907	36.4
557.104	36.58
557.3	36.07
557.496	36.81
557.693	36.18
557.889	35.54
558.085	36.15
558.281	35.8
558.478	34.84
558.674	34.84
558.87	34.18
559.066	34.31
559.262	34.63
559.459	35.2
559.655	35.1
559.851	34.69
560.047	35.07
560.243	35.08
560.439	36.12
560.635	36.46
560.831	36.41
561.027	36.58
561.223	36.42
561.419	36.31
561.615	36.69
561.811	36.9
562.007	37.48
562.203	36.89
562.399	36.78
562.595	36.18
562.791	36
562.987	35.88
563.183	36.18
563.379	36.5
563.575	36.41
563.771	36.36
563.966	36
564.162	35.89
564.358	36.09
564.554	36.27
564.75	35.87
564.945	36.31
565.141	36.36
565.337	36.51
565.533	36.11
565.728	35.85
565.924	35.57
566.12	35.83
566.315	36.29
566.511	36.81
566.707	37.37
566.902	37.67
567.098	37.38
567.293	37.67
567.489	36.91
567.684	37.43
567.88	37.52
568.076	36.56
568.271	36.94
568.467	36.6
568.662	35.97
568.858	35.22
569.053	35.19
569.248	35.05
569.444	35.19
569.639	35.74
569.835	35.92
570.03	36.34
570.225	37.36
570.421	36.83
570.616	36.76
570.812	37.56
571.007	37.6
571.202	37.75
571.397	38.11
571.593	38.1
571.788	37.96
571.983	37.35
572.178	37.3
572.374	37.48
572.569	37.73
572.764	37.62
572.959	36.65
573.154	37.13
573.35	37.36
573.545	37.36
573.74	37.29
573.935	37.52
574.13	38.38
574.325	38.1
574.52	37.87
574.715	37.59
574.91	38.37
575.105	39.7
575.3	39.16
575.495	39.33
575.69	39.86
575.885	40.3
576.08	40.13
576.275	39.96
576.47	40.49
576.665	40.73
576.86	41.42
577.055	41.08
577.25	40.42
577.444	41.16
577.639	41.79
577.834	41.63
578.029	41.51
578.224	41.83
578.418	42.13
578.613	42.49
578.808	42.8
579.003	42.82
579.197	42.63
579.392	42.3
579.587	41.65
579.781	41.83
579.976	41.98
580.171	41.91
580.365	42.27
580.56	41.35
580.755	41.05
580.949	41.12
581.144	40.96
581.338	41.11
581.533	41.78
581.727	42.42
581.922	41.25
582.116	41.87
582.311	42.1
582.505	43.38
582.7	43.79
582.894	43.76
583.089	44
583.283	44.57
583.478	45.11
583.672	44.97
583.866	45.19
584.061	45.61
584.255	45.98
584.449	46.14
584.644	44.73
584.838	45.43
585.032	46.22
585.226	45.74
585.421	45.83
585.615	45.6
585.809	45.6
586.003	45.05
586.198	45.24
586.392	44.55
586.586	44.67
586.78	45.59
586.974	45.77
587.168	45.06
587.363	45.02
587.557	44.82
587.751	44.63
587.945	44.83
588.139	45.77
588.333	45.37
588.527	45.08
588.721	44.72
588.915	44.47
589.109	43.98
589.303	44.55
589.497	45.88
589.691	46.11
589.885	46.6
590.079	46.25
590.273	45.26
590.466	45.07
590.66	45.4
590.854	45.79
591.048	45.21
591.242	45.33
591.436	45.23
591.629	43.81
591.823	44.34
592.017	43.92
592.211	44.21
592.404	44.22
592.598	44.46
592.792	43.91
592.986	44.23
593.179	44.35
593.373	43.65
593.567	43.73
593.76	44.41
593.954	43.59
594.147	43.38
594.341	42.84
594.535	43.81
594.728	43.92
594.922	44.65
595.115	44.14
595.309	44.59
595.502	45.49
595.696	45.08
595.889	44.75
596.083	45.08
596.276	45.62
596.47	46
596.663	45.47
596.856	46.15
597.05	45.82
597.243	46.23
597.437	45.92
597.63	45.72
597.823	46.85
598.017	47.43
598.21	47.51
598.403	47.85
598.596	48.19
598.79	47.9
598.983	47.54
599.176	47.58
599.369	48.67
599.563	49.4
599.756	49.91
599.949	49.63
600.142	49.7
600.335	50.16
600.528	50.39
600.722	51.39
600.915	52.07
601.108	52.4
601.301	52.55
601.494	51.71
601.687	50.92
601.88	50.28
602.073	49.91
602.266	49.54
602.459	49.37
602.652	49.12
602.845	48.38
603.038	48.71
603.231	48.18
603.424	48.92
603.617	49.27
603.809	49.53
604.002	50.12
604.195	49.9
604.388	50.06
604.581	49.73
604.774	49.66
604.966	50.29
605.159	50.53
605.352	51.29
605.545	50.8
605.737	50.52
605.93	51.16
606.123	50.4
606.316	51.58
606.508	52.46
606.701	52.6
606.894	53.04
607.086	52.58
607.279	52.35
607.471	51.77
607.664	52.19
607.857	52.02
608.049	51.81
608.242	52.87
608.434	52.03
608.627	51.6
608.819	52.27
609.012	52.27
609.204	52.06
609.397	52.05
609.589	53.25
609.782	52.95
609.974	53.41
610.166	52.99
610.359	52.9
610.551	53.58
610.743	53.66
610.936	53.19
611.128	53.67
611.32	54.84
611.513	55.45
611.705	55.43
611.897	55.79
612.09	55.83
612.282	57.24
612.474	56.83
612.666	58.67
612.858	59.07
613.051	59.19
613.243	59.76
613.435	60.37
613.627	61.02
613.819	61.65
614.011	61.4
614.203	61.46
614.395	61.16
614.588	61.09
614.78	59.12
614.972	59.15
615.164	60.25
615.356	59.75
615.548	58.71
615.74	57.52
615.932	56.77
616.124	57.32
616.315	57.23
616.507	57.17
616.699	56.93
616.891	57.53
617.083	57.99
617.275	57.73
617.467	58.18
617.659	59.18
617.85	59.43
618.042	58.97
618.234	57.94
618.426	58.47
618.618	58.8
618.809	59.53
619.001	59.13
619.193	58.64
619.384	57.89
619.576	57.07
619.768	56.45
619.959	55.66
620.151	55.67
620.343	56.07
620.534	56.56
620.726	56.1
620.917	55.6
621.109	56.96
621.301	56.54
621.492	57.62
621.684	59.05
621.875	59.26
622.067	59.88
622.258	60.32
622.45	60.65
622.641	59.24
622.832	59.52
623.024	60.08
623.215	59.14
623.407	60.01
623.598	60.65
623.789	59.01
623.981	58.33
624.172	57.8
624.363	57.06
624.555	56.31
624.746	56.69
624.937	56.02
625.129	56.35
625.32	55.95
625.511	55.84
625.702	54.61
625.893	54.9
626.085	55.71
626.276	56.81
626.467	57.4
626.658	58.94
626.849	59.29
627.04	59.53
627.231	59.68
627.422	60.34
627.614	60.39
627.805	60.41
627.996	60.22
628.187	60
628.378	60.12
628.569	60.73
628.76	60.1
628.951	60.17
629.142	60.96
629.332	61.25
629.523	61.11
629.714	60.38
629.905	61.25
630.096	61.76
630.287	61.38
630.478	61.2
630.669	60.39
630.859	60.63
631.05	61.17
631.241	60.44
631.432	60.11
631.623	60.07
631.813	60.83
632.004	61.01
632.195	60.47
632.385	61.33
632.576	59.66
632.767	60.35
632.957	60.09
633.148	60.3
633.339	60.26
633.529	60.07
633.72	60.12
633.91	59.62
634.101	59.35
634.292	59.79
634.482	59.96
634.673	61.35
634.863	61.15
635.054	61.81
635.244	61.19
635.435	61.81
635.625	62.38
635.815	63.7
636.006	64.76
636.196	65.17
636.387	65.81
636.577	66
636.767	66.16
636.958	66.27
637.148	66.26
637.338	66.3
637.529	66.99
637.719	67.23
637.909	66.74
638.099	65.81
638.29	64.63
638.48	64.83
638.67	64.47
638.86	65.08
639.05	65.1
639.241	65.43
639.431	65.27
639.621	65.17
639.811	64.48
640.001	64.71
640.191	64.67
640.381	66.96
640.571	67.21
640.761	66.65
640.951	67.18
641.141	67.41
641.331	67.05
641.521	67.79
641.711	67.24
641.901	68.37
642.091	68.35
642.281	69.17
642.471	68.4
642.661	68.72
642.851	69.27
643.041	68.93
643.231	68.58
643.42	67.6
643.61	67.28
643.8	67.49
643.99	67.36
644.18	66.33
644.369	67.91
644.559	66.93
644.749	66.38
644.939	66.01
645.128	65.68
645.318	66.57
645.508	67.38
645.697	67.55
645.887	66.74
646.076	65.59
646.266	67.03
646.456	65.14
646.645	65.67
646.835	65.35
647.024	66.23
647.214	67.03
647.403	66.13
647.593	66.56
647.782	67.26
647.972	68.52
648.161	69.86
648.351	68.9
648.54	68.9
648.73	68.76
648.919	68.5
649.108	68.21
649.298	67.01
649.487	67
649.677	67.5
649.866	67.18
650.055	67.2
650.244	66.43
650.434	67.06
650.623	67.28
650.812	67.55
651.002	68.35
651.191	68.56
651.38	69.83
651.569	69.12
651.758	69.23
651.947	69.78
652.137	69.46
652.326	69.07
652.515	69.32
652.704	68.77
652.893	69.03
653.082	67.94
653.271	67.19
653.46	65.59
653.649	66.34
653.838	64.81
654.027	63.82
654.216	62.7
654.405	63.24
654.594	62.62
654.783	64.02
654.972	63.35
655.161	64.46
655.35	64.58
655.539	65.55
655.728	65.47
655.916	65.28
656.105	65.79
656.294	66.7
656.483	66.69
656.672	65.78
656.86	65.15
657.049	65.26
657.238	64.11
657.427	65.27
657.615	64.67
657.804	65.03
657.993	64.88
658.181	64.42
658.37	64.55
658.559	64.11
658.747	64.09
658.936	64.19
659.125	64.48
659.313	65.18
659.502	64.88
659.69	65.23
659.879	65.32
660.067	66.98
660.256	67.1
660.444	67.03
660.633	67.2
660.821	68.08
661.01	68.73
661.198	69
661.387	69.53
661.575	68.96
661.763	69.31
661.952	69.22
662.14	68.65
662.328	69.27
662.517	70.29
662.705	71.02
662.893	72.86
663.082	72.12
663.27	71.96
663.458	72.22
663.646	72.31
663.834	73.14
664.023	74.07
664.211	73.96
664.399	74.74
664.587	74.09
664.775	74.86
664.963	73.65
665.152	73.56
665.34	73.34
665.528	74.55
665.716	75.35
665.904	73.94
666.092	72.67
666.28	73.46
666.468	73.08
666.656	73.36
666.844	73.16
667.032	73.13
667.22	74.39
667.408	75.69
667.596	74.53
667.784	74.59
667.971	75.63
668.159	76.01
668.347	76.46
668.535	75.89
668.723	75.26
668.911	74.59
669.098	74.12
669.286	73.46
669.474	72.61
669.662	72.84
669.849	72.81
670.037	72.42
670.225	73.41
670.413	73.5
670.6	73.26
670.788	73.71
670.976	73.76
671.163	74.9
671.351	75.4
671.538	74.9
671.726	74.9
671.913	74.24
672.101	75.44
672.289	75.3
672.476	74.6
672.664	76.25
672.851	77.23
673.039	78.45
673.226	78.07
673.413	77.49
673.601	78.41
673.788	78.42
673.976	79.48
674.163	78.23
674.35	78.26
674.538	78.52
674.725	78.28
674.912	78.33
675.1	76.56
675.287	78.47
675.474	78.21
675.662	78
675.849	78.34
676.036	77.52
676.223	78
676.411	77.58
676.598	76.71
676.785	75.23
676.972	74.91
677.159	74.49
677.346	72.73
677.533	72.28
677.721	71.73
677.908	71
678.095	69.99
678.282	69.77
678.469	68.81
678.656	70.25
678.843	71.22
679.03	69.3
679.217	69.57
679.404	69.08
679.591	69.02
679.778	69.31
679.964	69.94
680.151	71.49
680.338	71.38
680.525	72.69
680.712	71.69
680.899	70.73
681.086	71.42
681.272	72.99
681.459	73.69
681.646	75.33
681.833	75.43
682.02	75.61
682.206	75.18
682.393	75.34
682.58	75.8
682.766	75.8
682.953	77.02
683.14	77.29
683.326	77.15
683.513	76.33
683.7	75.6
683.886	75.71
684.073	73.99
684.259	73.45
684.446	73.4
684.632	73.36
684.819	73.92
685.005	72.45
685.192	73.42
685.378	72.77
685.565	72.29
685.751	71.78
685.938	71.67
686.124	72.12
686.31	71.81
686.497	71.62
686.683	70.32
686.87	70.29
687.056	70.17
687.242	68.11
687.429	67.96
687.615	68.89
687.801	69.55
687.987	69.61
688.174	68.93
688.36	68.88
688.546	70.92
688.732	70.24
688.918	68.89
689.105	68.71
689.291	69.34
689.477	69.43
689.663	68.42
689.849	66.64
690.035	65.17
690.221	65.55
690.407	66.58
690.593	64.42
690.779	65.33
690.965	66.31
691.151	68.6
691.337	69.34
691.523	68.07
691.709	67.04
691.895	69.35
692.081	70.71
692.267	70.68
692.453	69.38
692.639	70.62
692.825	69.5
693.011	68.93
693.196	66.72
693.382	67.45
693.568	68.46
693.754	70.49
693.94	68.31
694.125	70.34
694.311	70.69
694.497	71.97
694.682	71.18
694.868	73.71
695.054	73.9
695.239	74.5
695.425	71.62
695.611	72.52
695.796	71.58
695.982	70.64
696.168	69.28
696.353	69.02
696.539	68.66
696.724	66.59
696.91	64
697.095	62.95
697.281	62.86
697.466	64.28
697.652	62.94
697.837	62.62
698.023	63.73
698.208	62.9
698.393	63.68
698.579	63.66
698.764	64.76
698.949	65.21
699.135	65.16
699.32	66.49
699.505	66.77
699.691	68.62
699.876	71.05
700.061	72.74
700.246	73.44
700.432	74.57
700.617	74.71
700.802	76.86
700.987	80.56
701.172	84.48
701.358	86.57
701.543	87.32
701.728	87.62
701.913	86.24
702.098	85.42
702.283	87.76
702.468	86.63
702.653	87.22
702.838	88.5
703.023	88.47
703.208	86.07
703.393	84.83
703.578	85.38
703.763	85.05
703.948	86.37
704.133	86.87
704.318	85.39
704.503	85.73
704.688	87.63
704.873	85.06
705.057	83.32
705.242	85.34
705.427	83.03
705.612	84.36
705.797	85.03
705.981	84.92
706.166	86.59
706.351	87.98
706.536	88.58
706.72	86.1
706.905	87.7
707.09	88.71
707.274	87.52
707.459	90.43
707.644	88.8
707.828	86.9
708.013	87.92
708.197	87.24
708.382	84.71
708.567	83.29
708.751	86.66
708.936	86.23
709.12	86.51
709.305	87.19
709.489	85.37
709.673	84.48
709.858	86.7
710.042	84.41
710.227	84.06
710.411	84.86
710.596	86.47
710.78	83.59
710.964	84.29
711.149	82.35
711.333	82.71
711.517	84.78
711.702	86.73
711.886	84.72
712.07	87.72
712.254	88.09
712.438	88.48
712.623	88.5
712.807	87.59
712.991	86.4
713.175	86.61
713.359	84.17
713.544	81.26
713.728	79.4
713.912	80.41
714.096	78.47
714.28	75.83
714.464	73.45
714.648	72.38
714.832	72.31
715.016	71.81
715.2	72.27
715.384	73.67
715.568	74.91
715.752	75.31
715.936	72.76
716.12	69.88
716.304	68.77
716.488	70.54
716.671	69.99
716.855	69.96
717.039	68.48
717.223	69
717.407	68.38
717.59	66.32
717.774	64.95
717.958	66.73
718.142	69.02
718.325	70.35
718.509	73.34
718.693	73.92
718.877	75.92
719.06	78.59
719.244	79.02
719.428	81.55
719.611	84.65
719.795	88.46
719.978	86.59
720.162	90.57
720.345	91.23
720.529	91.84
720.713	89.93
720.896	89.64
721.08	90.89
721.263	90.16
721.446	90.83
721.63	87.4
721.813	85.54
721.997	87.54
722.18	86.6
722.364	88.21
722.547	82.58
722.73	83.79
722.914	79.22
723.097	75.23
723.28	75.33
723.464	70.53
723.647	74.09
723.83	74.04
724.013	76.42
724.197	75.78
724.38	73.51
724.563	75.18
724.746	77.52
724.929	80.29
725.112	80.51
725.296	79.6
725.479	81.44
725.662	77.26
725.845	76.82
726.028	74.7
726.211	72.37
726.394	72.33
726.577	70.43
726.76	70.36
726.943	69.7
727.126	71.03
727.309	71.64
727.492	69.77
727.675	71.51
727.858	71.61
728.041	72.09
728.224	74.04
728.407	78.04
728.589	81.48
728.772	78.86
728.955	81.94
729.138	82.2
729.321	81.92
729.503	83.09
729.686	84.94
729.869	87.19
730.052	86.95
730.234	87.16
730.417	84.98
730.6	84.78
730.782	84.74
730.965	85.95
731.148	87.81
731.33	87.7
731.513	88.2
731.695	87.22
731.878	86.41
732.061	87.05
732.243	86.55
732.426	87.66
732.608	90.34
732.791	94.4
732.973	91.68
733.156	91.52
733.338	89.04
733.52	86.7
733.703	88.86
733.885	90.13
734.068	92.39
734.25	94.44
734.432	96.15
734.615	96.59
734.797	99.01
734.979	101.84
735.162	100.53
735.344	103.53
735.526	107.35
735.708	108.18
735.891	106.4
736.073	102.07
736.255	102.51
736.437	101.51
736.619	100.5
736.802	98
736.984	96.14
737.166	95.57
737.348	95.08
737.53	93.64
737.712	93.92
737.894	93.58
738.076	99.25
738.258	98.64
738.44	100.64
738.622	102.07
738.804	105.95
738.986	109.89
739.168	111.31
739.35	113.8
739.532	115.49
739.714	116.36
739.896	118.1
740.078	112.31
740.259	111.09
740.441	111.37
740.623	107.56
740.805	107.89
740.987	106.71
741.168	106.99
741.35	109.16
741.532	110.88
741.714	107.67
741.895	111.4
742.077	114.47
742.259	114.17
742.44	114.55
742.622	115.61
742.804	113.3
742.985	115.16
743.167	119.16
743.348	119.87
743.53	121.7
743.711	125.1
743.893	121.39
744.075	121.43
744.256	123.38
744.438	122.76
744.619	124.32
744.8	121.38
744.982	122.95
745.163	123.98
745.345	120.63
745.526	118.49
745.707	117.65
745.889	120.22
746.07	120.43
746.252	122.11
746.433	118.23
746.614	116.45
746.795	116.23
746.977	113.01
747.158	111.17
747.339	112.25
747.52	114.94
747.702	112.61
747.883	110.27
748.064	113.6
748.245	113.83
748.426	115.66
748.607	116.45
748.788	119.4
748.97	125.72
749.151	122.84
749.332	121.78
749.513	129.6
749.694	131.3
749.875	133.7
750.056	128.36
750.237	129.77
750.418	130.74
750.599	133.25
750.78	135.53
750.96	127.22
751.141	135.45
751.322	140.09
751.503	133.45
751.684	134.21
751.865	136.12
752.046	137.45
752.226	139.45
752.407	143.12
752.588	134.55
752.769	127.87
752.949	131.91
753.13	126.67
753.311	127.72
753.492	129.34
753.672	127.21
753.853	126.27
754.034	126.82
754.214	123.06
754.395	118.59
754.575	119.19
754.756	118.21
754.937	114.15
755.117	114.79
755.298	113.45
755.478	106.73
755.659	110
755.839	107.99
756.02	106.23
756.2	109.03
756.381	110.11
756.561	114.82
756.741	116.12
756.922	111.87
757.102	107.15
757.283	107.57
757.463	108.7
757.643	102.64
757.823	96.5
758.004	92.42
758.184	87.47
758.364	79.4
758.545	74.27
758.725	70.78
758.905	71.7
759.085	72.04
759.265	66.6
759.446	68.68
759.626	74.42
759.806	77.99
759.986	83.41
760.166	82.68
760.346	82.5
760.526	82.18
760.706	80.9
760.886	81.27
761.066	79.05
761.246	75.82
761.426	72.52
761.606	67.13
761.786	65.53
761.966	66.09
762.146	63.45
762.326	65.79
762.506	64.47
762.686	65.43
762.866	65.6
763.046	64.91
763.225	68.35
763.405	69.57
763.585	73.33
763.765	76.08
763.945	75.73
764.124	80.29
764.304	83.4
764.484	91.15
764.664	93.21
764.843	96.19
765.023	102.87
765.203	102.87
765.382	106.05
765.562	106.95
765.741	111.76
765.921	114.85
766.101	121.95
766.28	122.02
766.46	120.87
766.639	127.35
766.819	129.41
766.998	130.76
767.178	134.94
767.357	137.11
767.537	140.25
767.716	135.72
767.896	143.82
768.075	139.07
768.254	135.53
768.434	130.58
768.613	129.7
768.792	131.79
768.972	138.2
769.151	132.87
769.33	135.73
769.51	137.99
769.689	146.99
769.868	149.29
770.047	151.37
770.226	160.6
770.406	169.06
770.585	165.94
770.764	159.08
770.943	156.23
771.122	168.58
771.301	159.76
771.48	158.39
771.66	157.33
771.839	154.57
772.018	154.06
772.197	150.26
772.376	155.02
772.555	161.09
772.734	172.08
772.913	177.51
773.092	174.67
773.271	182.84
773.449	189.45
773.628	181.16
773.807	187.24
773.986	197.53
774.165	195.15
774.344	188.07
774.523	183.89
774.701	169.05
774.88	156.36
775.059	152.76
775.238	150.22
775.417	150.85
775.595	144.71
775.774	136.6
775.953	132.59
776.131	138.9
776.31	136.69
776.489	133.96
776.667	142.8
776.846	146.89
777.025	141.82
777.203	140.96
777.382	140.1
777.56	146.54
777.739	153.68
777.917	153.95
778.096	148.93
778.274	155.31
778.453	159.32
778.631	165.57
778.81	170.47
778.988	181.55
779.166	185.22
779.345	181.1
779.523	178.25
779.702	173.93
779.88	170.76
780.058	179.03
780.237	170.24
780.415	171.95
780.593	161.84
780.771	171.05
780.95	164.51
781.128	154.98
781.306	151.8
781.484	149.11
781.662	155.74
781.841	155.29
782.019	150.73
782.197	163.11
782.375	162.08
782.553	161.99
782.731	156.09
782.909	167.74
783.087	179.22
783.265	210.54
783.443	208.73
783.621	194.77
783.799	199.62
783.977	207.18
784.155	187.99
784.333	190.38
784.511	195.43
784.689	184.83
784.867	168.44
785.045	171.99
785.223	150.82
785.4	148.11
785.578	146.42
785.756	140.69
785.934	125.93
786.112	124.79
786.289	117.16
786.467	107.65
786.645	110.15
786.823	118.97
787	119.59
787.178	125.93
787.356	128.29
787.533	126.92
787.711	126.4
787.889	134.53
788.066	142.32
788.244	144.46
788.421	155.76
788.599	148.92
788.776	143.1
788.954	138.17
789.131	130.19
789.309	122.68
789.486	114.45
789.664	124.1
789.841	123.47
790.019	123.89
790.196	127.47
790.373	126.86
790.551	136.61
790.728	135.81
790.906	134.46
791.083	143.51
791.26	151.47
791.437	163.67
791.615	152.75
791.792	150.36
791.969	151.85
792.146	155.16
792.324	150.34
792.501	147.36
792.678	138.38
792.855	143.52
793.032	140.34
793.209	142.1
793.387	143.51
793.564	142.6
793.741	149.37
793.918	140.05
794.095	133.9
794.272	141.83
794.449	135.91
794.626	136.04
794.803	124.8
794.98	121.73
795.157	122.46
795.334	117.55
795.511	117.53
795.688	111.43
795.864	110.39
796.041	113.51
796.218	111
796.395	111.13
796.572	110.45
796.749	113.59
796.925	109.27
797.102	116.05
797.279	123.69
797.456	122.37
797.632	125.62
797.809	141.91
797.986	142.9
798.162	134.4
798.339	133.79
798.516	136.01
798.692	138.56
798.869	146.06
799.046	128.19
799.222	123.67
799.399	116.48
799.575	118.34
799.752	102.45
799.928	100.72
800.105	105.91
800.281	112.03
800.458	116.83
800.634	123.44
800.811	113.2
800.987	119.67
801.163	111.49
801.34	122.57
801.516	118.67
801.692	129.77
801.869	130.8
802.045	127.33
802.221	123.95
802.398	116.3
802.574	111.96
802.75	119.19
802.926	127.78
803.103	140.71
803.279	134.62
803.455	142.66
803.631	141.07
803.807	136.83
803.983	145.95
804.16	139.37
804.336	147.91
804.512	135.84
804.688	139.1
804.864	133.76
805.04	131.46
805.216	129.5
805.392	119.91
805.568	121.06
805.744	133.16
805.92	119.72
806.096	126.81
806.272	135.41
806.448	148.41
806.623	157.12
806.799	157.88
806.975	157.25
807.151	186.44
807.327	186.96
807.503	211.7
807.678	200.29
807.854	238.1
808.03	202.54
808.206	176.05
808.381	170.01
808.557	170.38
808.733	174.41
808.908	183.79
809.084	159.05
809.26	166.99
809.435	143.32
809.611	147.33
809.787	134.43
809.962	140.05
810.138	145.53
810.313	144.31
810.489	128.58
810.664	119.27
810.84	117.26
811.015	108.61
811.191	103.87
811.366	106.62
811.542	108.45
811.717	114.37
811.892	122.43
812.068	122.72
812.243	125.9
812.419	130.9
812.594	130.02
812.769	118.02
812.944	120.26
813.12	139.78
813.295	132.64
813.47	125.43
813.645	121.21
813.821	118.05
813.996	109.57
814.171	101.67
814.346	96.79
814.521	106.13
814.697	116.85
814.872	107.99
815.047	105.97
815.222	125.78
815.397	117.9
815.572	123.89
815.747	116.07
815.922	122.34
816.097	132.91
816.272	130.93
816.447	120.45
816.622	116.61
816.797	117.49
816.972	109.49
817.147	97.83
817.322	91.9
817.496	84.14
817.671	89
817.846	77.48
818.021	70.86
818.196	73.24
818.371	68.71
818.545	64.5
818.72	65.11
818.895	60.64
819.069	64.18
819.244	69.53
819.419	65.38
819.594	64.59
819.768	62.37
819.943	58.8
820.117	54.3
820.292	55.23
820.467	52.66
820.641	49.5
820.816	48.53
820.99	45.42
821.165	43.34
821.339	43.64
821.514	42.28
821.688	42.65
821.863	44.79
822.037	45.37
822.212	42.36
822.386	41.54
822.56	43.54
822.735	46.18
822.909	47.79
823.084	48.78
823.258	50.77
823.432	53.57
823.606	57.97
823.781	56.26
823.955	57
824.129	65.91
824.303	70.02
824.478	69.22
824.652	66.67
824.826	68.14
825	68.61
825.174	64.55
825.348	62.21
825.523	59.43
825.697	59.87
825.871	58.58
826.045	58.13
826.219	58.16
826.393	60.04
826.567	59.85
826.741	60.24
826.915	61.15
827.089	64.98
827.263	68.51
827.437	74.13
827.611	74.61
827.784	78.71
827.958	83.21
828.132	90.91
828.306	94.74
828.48	107.45
828.654	124.32
828.827	127.67
829.001	130.1
829.175	132.85
829.349	123.69
829.522	144.27
829.696	145.36
829.87	147.17
830.044	153.38
830.217	150.63
830.391	145.42
830.565	132.71
830.738	129.68
830.912	111.83
831.085	102.88
831.259	101.29
831.432	90.86
831.606	89.73
831.779	80.71
831.953	74.66
832.126	66.31
832.3	65.14
832.473	67.23
832.647	67.64
832.82	68.06
832.994	64.03
833.167	62.61
833.34	61.07
833.514	59.1
833.687	58.61
833.86	61.59
834.034	68.7
834.207	70.06
834.38	68.68
834.553	66.79
834.727	70.37
834.9	72.76
835.073	77.37
835.246	84.73
835.419	85.95
835.593	103.05
835.766	107.94
835.939	100.62
836.112	108.29
836.285	127.63
836.458	137.53
836.631	155.39
836.804	146.9
836.977	159.5
837.15	181.13
837.323	169.08
837.496	128.16
837.669	137.42
837.842	157.36
838.015	147.82
838.188	144.92
838.361	134.57
838.533	126.89
838.706	131.07
838.879	141.11
839.052	123.16
839.225	127.55
839.398	142.07
839.57	137.7
839.743	143.15
839.916	131.7
840.088	133.09
840.261	149.59
840.434	147.47
840.607	161.35
840.779	150.21
840.952	156.57
841.124	137.99
841.297	127.41
841.47	154.01
841.642	143.21
841.815	147.2
841.987	128.63
842.16	112.54
842.332	134.65
842.505	130.84
842.677	126.94
842.85	132.57
843.022	154.51
843.194	146.75
843.367	132.37
843.539	130.77
843.712	135.44
843.884	145.21
844.056	206.36
844.229	195.38
844.401	194.52
844.573	211.4
844.745	214.81
844.918	225.44
845.09	280.41
845.262	277.94
845.434	273.06
845.606	250
845.779	333.89
845.951	226.73
846.123	191.3
846.295	204.29
846.467	209.63
846.639	193.38
846.811	195.93
846.983	205.1
847.155	246.49
847.327	271.78
847.499	326.42
847.671	341.25
847.843	877.46
848.015	3729.03
848.187	-2568.89
848.359	3315.79
848.531	-1953.7
848.703	35700
848.875	-998.94
849.047	1102.13
849.218	502.63
849.39	484.96
849.562	424.48
849.734	371.61
849.905	586.29
850.077	615.98
850.249	536.32
850.421	2252.94
850.592	721.02
850.764	881.56
850.936	4540
851.107	18933.33
851.279	943.31
851.451	429.32
851.622	479.23
851.794	313.49
851.965	288.91
852.137	267.8
852.308	202.79
852.48	269.75
852.651	269.11
852.823	287.84
852.994	244.88
853.166	271.91
853.337	257.05
853.509	203.49
853.68	242.95
853.851	207.12
854.023	240.04
854.194	292.89
854.365	326.92
854.537	259.05
854.708	218.72
854.879	296.16
855.05	263.65
855.222	287.36
855.393	447.69
855.564	274.88
855.735	303.69
855.906	401.34
856.078	318.58
856.249	302.47
856.42	282.72
856.591	289.95
856.762	275.63
856.933	333.45
857.104	303.02
857.275	315.1
857.446	412.63
857.617	305.12
857.788	291.32
857.959	279.07
858.13	275.54
858.301	277.91
858.472	281.28
858.643	213.88
858.814	242.83
858.985	295.56
859.155	334.93
859.326	307.46
859.497	915.13
859.668	284.88
859.839	324.38
860.009	319.94
860.18	362.6
860.351	327.62
860.522	410.64
860.692	364.09
860.863	278.36
861.034	179.36
861.204	188.29
861.375	149.81
861.546	215.75
861.716	247.16
861.887	218.03
862.057	222.11
862.228	199.69
862.398	216.57
862.569	228.12
862.739	184.74
862.91	173.16
863.08	196.83
863.251	311.92
863.421	260.87
863.592	250
863.762	361.05
863.932	752.75
864.103	-686.05
864.273	-2160.71
864.443	-492.5
864.614	-193.15
864.784	-193.52
864.954	-3256.67
865.125	12714.29
865.295	-1361.19
865.465	-1624.56
865.635	-11350
865.805	1079.75
865.976	-13383.33
866.146	-1993.18
866.316	-3380
866.486	2257.14
866.656	-617.11
866.826	-277.19
866.996	-1659.62
867.166	706.99
867.336	1068.83
867.506	1092.86
867.676	365.79
867.846	306.46
868.016	303.52
868.186	292.7
868.356	200
868.526	150.53
868.696	181.2
868.866	265.57
869.036	596.75
869.206	280.27
869.376	341.54
869.545	5510.53
869.715	2642.11
869.885	435.75
870.055	309.96
870.224	843.02
870.394	-1414.29
870.564	749.25
870.734	468
870.903	193.85
871.073	257.77
871.243	183.14
871.412	141.07
871.582	133.04
871.751	196.11
871.921	198.01
872.091	163.93
872.26	139.97
872.43	193.38
872.599	209.28
872.769	176.97
872.938	147.48
873.108	135.03
873.277	111.29
873.446	100.27
873.616	91.44
873.785	79.58
873.955	96.55
874.124	121.02
874.293	113.82
874.463	104.59
874.632	133.97
874.801	199.59
874.971	276.59
875.14	298.97
875.309	380.29
875.478	654.4
875.647	731.22
875.817	401.33
875.986	306.86
876.155	214.94
876.324	209.04
876.493	185.93
876.662	145.12
876.831	108.78
877	121.5
877.17	126.4
877.339	123.74
877.508	104.58
877.677	116.53
877.846	131.96
878.015	159
878.184	147.98
878.352	163.13
878.521	177.26
878.69	185.22
878.859	147.18
879.028	95.66
879.197	75.67
879.366	81.86
879.534	81.09
879.703	73.65
879.872	70.28
880.041	76.34
880.21	78.24
880.378	79.7
880.547	79.52
880.716	70.49
880.884	74.27
881.053	79.71
881.222	78.65
881.39	69.45
881.559	67.52
881.727	69.87
881.896	61.2
882.065	62.07
882.233	63.82
882.402	67.62
882.57	67.44
882.739	72.91
882.907	67.36
883.076	63.95
883.244	83.61
883.412	85.22
883.581	97.9
883.749	96.73
883.918	90.24
884.086	93.62
884.254	98.3
884.423	99.58
884.591	112.7
884.759	128.74
884.927	173.5
885.096	125.54
885.264	122.4
885.432	111.92
885.6	110.82
885.769	129.66
885.937	110.47
886.105	127.27
886.273	175.71
886.441	108.12
886.609	160.33
886.777	58.76
886.945	-29.55
887.113	-27.49
887.281	-8250
887.449	-144.44
887.617	0
887.785	-191.19
887.953	-139.74
888.121	-252.26
888.289	-255.89
888.457	-1227.4
888.625	-33700
888.793	4460
888.961	11037.5
889.129	1926.53
889.296	583.91
889.464	2008.33
889.632	543.75
889.8	515.69
889.967	660
890.135	290.91
