Data from JASIL_3305_Reflection_2.txt Node
Date: Tue Nov 17 19:48:20 EST 2015
User: Geneva
Spectrometer: USB4E03002
Autoset integration time: false
Trigger mode: 4
Integration Time (sec): 1.000000E-1
Scans to average: 10
Electric dark correction enabled: false
Nonlinearity correction enabled: false
Boxcar width: 5
Stray light correction enabled: false
XAxis mode: Wavelengths
Stop averaging: false
Number of Pixels in Spectrum: 3648
>>>>>Begin Spectral Data<<<<<
177.575	-74.26
177.794	-113.04
178.014	-113.48
178.233	-158.49
178.452	-208.33
178.672	-277.95
178.891	-887.93
179.11	6000
179.33	1556.52
179.549	1474.51
179.768	-8290.91
179.987	743.18
180.207	379.92
180.426	726.71
180.645	878.4
180.864	5805.88
181.084	546.99
181.303	405.36
181.522	539.66
181.741	491.57
181.96	784.85
182.179	4576.47
182.398	-848.05
182.618	-337.81
182.837	-246.19
183.056	-293.99
183.275	-319.44
183.494	-91.52
183.713	-69.83
183.932	-46.51
184.151	-20.37
184.37	-43.15
184.589	-36.51
184.808	-43.17
185.027	-50.88
185.246	-112.84
185.465	-104.23
185.684	-144.83
185.903	-270.23
186.122	-358.75
186.341	-834.51
186.56	-612.5
186.779	-3192.59
186.998	-354.5
187.216	-305
187.435	-307.88
187.654	-244.24
187.873	-208.93
188.092	-223.08
188.311	-292.14
188.53	-197.28
188.748	-56.6
188.967	-48.82
189.186	-59.13
189.405	-211.07
189.623	-170
189.842	-169.83
190.061	-121.38
190.28	-55.08
190.498	-96.68
190.717	-64.33
190.936	-65.81
191.154	-209.34
191.373	-522.99
191.592	1069.77
191.81	525.24
192.029	626.32
192.248	359.31
192.466	424.31
192.685	198.95
192.904	426.73
193.122	354.21
193.341	421.43
193.559	589.83
193.778	645.3
193.996	544.08
194.215	1504.35
194.433	726.43
194.652	646.85
194.87	617.5
195.089	709.23
195.307	1371.93
195.526	-695.92
195.744	-458.99
195.963	-508.67
196.181	-676.86
196.399	-1003.45
196.618	1265.79
196.836	751.77
197.055	703.38
197.273	785.82
197.491	963.96
197.71	485.71
197.928	402.98
198.146	392.81
198.365	1847.62
198.583	1122.22
198.801	-412.1
199.019	-64.83
199.238	-24.87
199.456	-33.07
199.674	-66.57
199.892	-32.93
200.111	-27.93
200.329	-31.45
200.547	-72.76
200.765	1154.9
200.983	-379.49
201.202	844.74
201.42	290.36
201.638	237.22
201.856	314.53
202.074	412
202.292	230.36
202.51	246.55
202.728	352.33
202.946	3239.29
203.165	1723.08
203.383	416.97
203.601	580.2
203.819	1110.91
204.037	-3245.45
204.255	-4429.63
204.473	-734.97
204.691	-611.18
204.909	-328.32
205.127	-1433.33
205.345	402.42
205.562	-331.78
205.78	-45.15
205.998	-40.77
206.216	10.02
206.434	-45.03
206.652	-34.86
206.87	-123.95
207.088	-127.14
207.306	-309.25
207.523	-234.39
207.741	-157.36
207.959	-248.65
208.177	-272.54
208.395	-224.02
208.612	-295.37
208.83	-124.46
209.048	-168.22
209.266	-175.41
209.483	-114.34
209.701	-124.47
209.919	-127.81
210.136	-175.66
210.354	-191.79
210.572	-248.14
210.79	-269
211.007	-569.72
211.225	-5906.67
211.442	1406.78
211.66	3204
211.878	346.84
212.095	944.5
212.313	1408.47
212.53	696.21
212.748	617.53
212.966	442.9
213.183	572.76
213.401	-7150
213.618	-516.27
213.836	-422.18
214.053	-591.74
214.271	-404.17
214.488	-185.71
214.705	-136.82
214.923	-144.51
215.14	-95.01
215.358	-78.31
215.575	-72.97
215.793	-139.11
216.01	-388.63
216.227	-721.55
216.445	-586.81
216.662	-318.97
216.879	-316.09
217.097	-202.03
217.314	-259.92
217.531	9962.5
217.749	842.57
217.966	434.62
218.183	277.85
218.4	425.81
218.618	371.71
218.835	273.49
219.052	226.47
219.269	288.55
219.487	159.14
219.704	166.51
219.921	166.85
220.138	224.37
220.355	219.35
220.572	195.33
220.79	179.58
221.007	262.56
221.224	295.06
221.441	317.42
221.658	338.03
221.875	-1557.14
222.092	-570.45
222.309	1393.94
222.526	276.97
222.743	262.8
222.96	313.67
223.177	1067.44
223.394	793.42
223.611	537.06
223.828	291.2
224.045	167.43
224.262	158.26
224.479	187.56
224.696	429.33
224.913	615.7
225.13	594.34
225.347	442.07
225.564	246.18
225.781	143.17
225.997	129.43
226.214	135.37
226.431	114.17
226.648	96.41
226.865	71.85
227.082	53.98
227.298	59.56
227.515	52.56
227.732	53.59
227.949	44.1
228.165	35.03
228.382	32.34
228.599	25.93
228.816	29.8
229.032	33.53
229.249	38.2
229.466	42.9
229.682	41.83
229.899	43.38
230.116	43.61
230.332	46.27
230.549	50.82
230.765	46.18
230.982	47.02
231.199	48.25
231.415	50.23
231.632	48.74
231.848	37.56
232.065	36.47
232.281	38.89
232.498	48.5
232.714	54.31
232.931	62.8
233.147	71.7
233.364	74.14
233.58	81.92
233.797	72.39
234.013	84.28
234.23	96.24
234.446	99.8
234.662	123.74
234.879	162.45
235.095	111.51
235.312	105.35
235.528	91.74
235.744	123.94
235.961	110.35
236.177	122.98
236.393	146.59
236.61	128.63
236.826	117.5
237.042	81.44
237.258	76.15
237.475	95.98
237.691	110.19
237.907	77.33
238.123	65.13
238.339	75.02
238.556	64.8
238.772	55.41
238.988	46.8
239.204	32.92
239.42	40.63
239.636	34.58
239.853	29.48
240.069	29.34
240.285	27.63
240.501	25.02
240.717	25.79
240.933	26.92
241.149	22.18
241.365	24.5
241.581	23.92
241.797	24.88
242.013	29.32
242.229	31.29
242.445	28.22
242.661	28.41
242.877	33.75
243.093	34.11
243.309	36.78
243.525	38.86
243.741	42.86
243.957	46.21
244.173	43.17
244.388	39.38
244.604	35.67
244.82	34.89
245.036	38.08
245.252	33.66
245.468	31.05
245.683	29.37
245.899	29.14
246.115	25.99
246.331	23.74
246.547	23.42
246.762	23.39
246.978	23.75
247.194	24.77
247.409	21.96
247.625	19.8
247.841	19.78
248.057	20.98
248.272	21.3
248.488	19.21
248.703	20.98
248.919	23.99
249.135	19.77
249.35	15.48
249.566	14.35
249.782	15.73
249.997	19.86
250.213	25.21
250.428	25.67
250.644	26.9
250.859	28.49
251.075	26.33
251.29	20.26
251.506	19.92
251.721	23.6
251.937	21.66
252.152	24.01
252.368	26.33
252.583	20.8
252.798	16.58
253.014	14.74
253.229	16.91
253.445	23.33
253.66	31.04
253.875	37.84
254.091	32.63
254.306	31.25
254.521	21.91
254.737	16.81
254.952	13.55
255.167	12.89
255.383	10.09
255.598	10
255.813	3.12
256.028	-1.38
256.244	2.65
256.459	9.58
256.674	12.49
256.889	16.93
257.104	14.04
257.32	14.74
257.535	11.65
257.75	12.38
257.965	9.86
258.18	8.41
258.395	8.06
258.61	6.27
258.826	5.02
259.041	3.61
259.256	2.65
259.471	1.98
259.686	2.67
259.901	2.25
260.116	2.56
260.331	4.42
260.546	8.17
260.761	7.94
260.976	8.57
261.191	10.3
261.406	15.53
261.621	15.73
261.836	20.28
262.05	18.8
262.265	24.56
262.48	22.33
262.695	20.09
262.91	14.64
263.125	18.53
263.34	17.69
263.555	14.63
263.769	14.55
263.984	11.6
264.199	11.19
264.414	14.68
264.629	13.31
264.843	17.61
265.058	18.26
265.273	16.22
265.488	18.21
265.702	18.75
265.917	18.89
266.132	16.58
266.346	18.11
266.561	19.96
266.776	19.96
266.99	19.62
267.205	16.94
267.42	15.76
267.634	15.74
267.849	13.52
268.063	11.88
268.278	12.54
268.492	11.29
268.707	12.88
268.922	10.49
269.136	10.22
269.351	8.26
269.565	12.2
269.78	12.35
269.994	12.99
270.209	12.46
270.423	12.37
270.637	12.03
270.852	13.21
271.066	11.86
271.281	12.97
271.495	10.93
271.709	12.79
271.924	10.94
272.138	10.78
272.353	10.83
272.567	11.95
272.781	10.79
272.996	10.92
273.21	10.88
273.424	10.3
273.638	10.11
273.853	12.15
274.067	11.31
274.281	9.66
274.495	11.27
274.71	13.89
274.924	13.8
275.138	17.67
275.352	16.93
275.566	15.08
275.781	14.34
275.995	14.03
276.209	13.64
276.423	14.26
276.637	13.35
276.851	8.82
277.065	7.19
277.279	4.12
277.493	2.04
277.707	1.1
277.921	4.8
278.135	11.14
278.349	9.01
278.563	7.06
278.777	7.12
278.991	9.13
279.205	12.71
279.419	11.71
279.633	14.7
279.847	15.9
280.061	16.67
280.275	14.34
280.489	9.67
280.703	9.05
280.917	12.96
281.131	11.19
281.344	13.17
281.558	11.4
281.772	12.13
281.986	11.19
282.2	9.5
282.414	10.52
282.627	11.76
282.841	14.32
283.055	12.22
283.269	11.16
283.482	12.96
283.696	11.69
283.91	12.68
284.123	12.82
284.337	13.59
284.551	13.33
284.764	12.68
284.978	12.9
285.192	10.66
285.405	11.31
285.619	10.08
285.833	8.97
286.046	10
286.26	10.42
286.473	10.46
286.687	10.81
286.9	12.2
287.114	12.26
287.327	10.46
287.541	10.1
287.754	12.53
287.968	13.94
288.181	13.26
288.395	13.12
288.608	12.13
288.822	12.75
289.035	11.42
289.248	11.78
289.462	11.85
289.675	11.9
289.889	11.86
290.102	11.47
290.315	11.76
290.529	13.49
290.742	11.17
290.955	13.57
291.169	11.96
291.382	11.16
291.595	10.57
291.808	11.46
292.022	11.79
292.235	13.54
292.448	13
292.661	13.29
292.875	13.1
293.088	14.42
293.301	12.32
293.514	11.1
293.727	11.68
293.94	9.51
294.153	8.43
294.367	8.98
294.58	8.38
294.793	7.93
295.006	6.53
295.219	5.96
295.432	4.64
295.645	5.2
295.858	7.29
296.071	7.69
296.284	8.66
296.497	8.83
296.71	9.85
296.923	9.52
297.136	9.34
297.349	10.13
297.562	9.93
297.775	10.31
297.988	9.91
298.201	10.27
298.414	10.88
298.626	10.54
298.839	10.63
299.052	9.91
299.265	11.47
299.478	12.84
299.691	13.28
299.903	14.53
300.116	15.05
300.329	15.3
300.542	14.35
300.755	13.18
300.967	12.61
301.18	12.68
301.393	10.75
301.605	10.33
301.818	8.68
302.031	8.79
302.243	7.51
302.456	8.37
302.669	8.37
302.881	8.13
303.094	9.69
303.307	10.87
303.519	11.39
303.732	14.15
303.944	14.12
304.157	16.96
304.37	17.15
304.582	16.98
304.795	17.71
305.007	19.11
305.22	19.12
305.432	18.37
305.645	18.83
305.857	18.38
306.069	15.58
306.282	15.26
306.494	13.48
306.707	12.24
306.919	11.76
307.132	11.23
307.344	10.05
307.556	10.38
307.769	9.58
307.981	8.51
308.193	7.69
308.406	8.63
308.618	6.98
308.83	6.6
309.043	6.64
309.255	7.99
309.467	7.17
309.679	6.01
309.892	6.26
310.104	6.63
310.316	8.15
310.528	8.61
310.74	7.94
310.953	8.36
311.165	9.53
311.377	10.76
311.589	9.99
311.801	9.44
312.013	9.79
312.225	9.15
312.437	8.96
312.649	8.3
312.862	8.95
313.074	10.27
313.286	11.55
313.498	11.25
313.71	9.19
313.922	9.57
314.134	11.85
314.346	11.98
314.558	11.98
314.77	12.62
314.982	12.61
315.193	12.22
315.405	11.76
315.617	11.48
315.829	10.73
316.041	12.1
316.253	12.12
316.465	12.08
316.677	12.61
316.888	14.9
317.1	13.56
317.312	13.23
317.524	14.89
317.736	16.48
317.947	15.47
318.159	16.13
318.371	16.31
318.583	14.74
318.794	14.77
319.006	16.25
319.218	15.54
319.43	18
319.641	19.98
319.853	19.52
320.064	19.08
320.276	20.57
320.488	20.81
320.699	19.07
320.911	21.36
321.123	20.89
321.334	19.81
321.546	18.36
321.757	16.32
321.969	15.15
322.18	13.19
322.392	12.15
322.603	10.7
322.815	10.23
323.026	10.27
323.238	9.91
323.449	10.49
323.661	10.23
323.872	9.51
324.083	10.48
324.295	10.24
324.506	11.19
324.718	10.97
324.929	11.47
325.14	10.98
325.352	10.4
325.563	9.84
325.774	8.4
325.986	8.54
326.197	10.11
326.408	10.37
326.62	10.22
326.831	9.98
327.042	11.9
327.253	13.28
327.464	14.2
327.676	16.12
327.887	15.89
328.098	15.91
328.309	15.98
328.52	16.08
328.732	15.34
328.943	15.56
329.154	17
329.365	16.88
329.576	14.38
329.787	14.52
329.998	15.87
330.209	17.48
330.42	18.22
330.631	18.36
330.842	18.62
331.053	18.46
331.264	20.29
331.475	20.8
331.686	20.71
331.897	19.88
332.108	19.77
332.319	16.99
332.53	15.44
332.741	16.44
332.952	15.96
333.163	14.88
333.374	17.25
333.585	14.82
333.795	13.74
334.006	12.16
334.217	15.26
334.428	13.9
334.639	14.07
334.849	16.33
335.06	15.83
335.271	16.44
335.482	16.65
335.692	14.11
335.903	13.7
336.114	14.36
336.325	15.86
336.535	14.74
336.746	17.18
336.957	17.39
337.167	15.75
337.378	15.46
337.589	17.02
337.799	15.95
338.01	16.42
338.22	17.19
338.431	15.67
338.642	14.82
338.852	15.35
339.063	13.31
339.273	14.51
339.484	14.37
339.694	13.98
339.905	12.56
340.115	13.19
340.326	13.3
340.536	13.34
340.746	13.32
340.957	13.26
341.167	12.56
341.378	13.35
341.588	12.03
341.799	12.15
342.009	12.84
342.219	12.24
342.43	13.22
342.64	13.34
342.85	15.2
343.061	15.13
343.271	14.72
343.481	14.11
343.691	13.3
343.902	13.63
344.112	14.5
344.322	13.13
344.532	13.08
344.743	13.09
344.953	13.39
345.163	9.63
345.373	10.52
345.583	10.63
345.793	13.01
346.004	14.32
346.214	15.42
346.424	15.68
346.634	15.82
346.844	17.43
347.054	16.97
347.264	17.17
347.474	18.45
347.684	18.46
347.894	17.27
348.104	14.89
348.314	14.25
348.524	13.51
348.734	12.8
348.944	13.26
349.154	10.78
349.364	10.51
349.574	9.65
349.784	9.83
349.994	9.97
350.204	10.94
350.413	11.49
350.623	11.58
350.833	12.2
351.043	12.32
351.253	12.67
351.463	13.05
351.672	12.62
351.882	11.83
352.092	12.55
352.302	12.23
352.511	12.08
352.721	11.56
352.931	11.17
353.141	9.97
353.35	9.66
353.56	8.4
353.77	9.57
353.979	10.51
354.189	12.18
354.399	11.73
354.608	11.87
354.818	12.1
355.027	12.54
355.237	12.63
355.447	12.45
355.656	12.33
355.866	13.21
356.075	12.52
356.285	11.57
356.494	11.51
356.704	11.83
356.913	11.58
357.123	11.79
357.332	11.52
357.542	11.87
357.751	12.23
357.96	11.45
358.17	11.32
358.379	11.12
358.589	11.41
358.798	11.56
359.007	11.97
359.217	12.55
359.426	12.18
359.635	11.98
359.845	11.31
360.054	10.21
360.263	10.93
360.472	10.64
360.682	10.34
360.891	10.68
361.1	10.69
361.309	10.89
361.519	10.31
361.728	10.19
361.937	10.77
362.146	10.88
362.355	11.72
362.564	11.31
362.774	11.83
362.983	12.3
363.192	12.19
363.401	12.35
363.61	12.1
363.819	12.85
364.028	12.92
364.237	12.97
364.446	13.18
364.655	12.48
364.864	12.86
365.073	12.3
365.282	11.84
365.491	12.22
365.7	11.97
365.909	10.39
366.118	9.3
366.327	9.32
366.536	8.3
366.745	8.56
366.954	9.33
367.162	9.39
367.371	9.64
367.58	10.7
367.789	10.56
367.998	10.6
368.207	10.8
368.415	12.11
368.624	12.08
368.833	12.06
369.042	11.37
369.25	11.77
369.459	11.64
369.668	11.73
369.877	11.66
370.085	11.58
370.294	11.3
370.503	12.21
370.711	11.26
370.92	11.56
371.129	12.33
371.337	11.97
371.546	11.13
371.754	10.73
371.963	10.32
372.171	9.28
372.38	9.5
372.589	8.99
372.797	8.7
373.006	9.01
373.214	8.07
373.423	7.78
373.631	9.15
373.84	7.9
374.048	8.05
374.256	8.46
374.465	10.27
374.673	10.32
374.882	8.89
375.09	8.67
375.298	9.08
375.507	8.57
375.715	8.79
375.923	7.63
376.132	9.36
376.34	8.69
376.548	9.04
376.757	7.76
376.965	7.55
377.173	8.87
377.381	9.41
377.59	8.54
377.798	9.24
378.006	8.21
378.214	9.43
378.423	8.94
378.631	8.99
378.839	8.88
379.047	9.67
379.255	10.54
379.463	10.75
379.671	10.79
379.879	10.93
380.088	10.95
380.296	12.88
380.504	12.17
380.712	12.57
380.92	12.7
381.128	12.46
381.336	12.09
381.544	10.37
381.752	10.15
381.96	9.74
382.168	9.59
382.376	10.67
382.584	9.72
382.791	9.31
382.999	8.37
383.207	8.73
383.415	9.06
383.623	8.96
383.831	9.46
384.039	9.11
384.247	9.19
384.454	9.6
384.662	8.73
384.87	8.97
385.078	8.92
385.285	9.48
385.493	10.11
385.701	9.73
385.909	9.72
386.116	10.01
386.324	10.08
386.532	9.96
386.739	9.88
386.947	9.42
387.155	9
387.362	9.27
387.57	8.77
387.778	7.2
387.985	5.8
388.193	5.42
388.4	5.1
388.608	5.88
388.816	5.36
389.023	5.76
389.231	6.64
389.438	6.63
389.646	6.64
389.853	7.51
390.061	8.41
390.268	9.28
390.475	9.15
390.683	9.35
390.89	9.04
391.098	9.18
391.305	8.38
391.512	8.43
391.72	8.31
391.927	8.36
392.135	8.36
392.342	8.23
392.549	7.88
392.756	7.49
392.964	6.89
393.171	6.94
393.378	7.42
393.586	7.99
393.793	7.43
394	7.8
394.207	7.55
394.414	6.44
394.622	6.48
394.829	7.17
395.036	7.56
395.243	8.54
395.45	8.5
395.657	7.87
395.864	8.08
396.072	8.4
396.279	7.87
396.486	8.02
396.693	9.09
396.9	8.83
397.107	9.55
397.314	9.89
397.521	8.47
397.728	8.36
397.935	8.3
398.142	8.38
398.349	7.85
398.556	8.65
398.763	8.81
398.97	8.86
399.177	9.13
399.383	8.17
399.59	8.41
399.797	9.2
400.004	9.23
400.211	9.23
400.418	8.34
400.625	8.93
400.831	8.47
401.038	7.77
401.245	7.23
401.452	7.29
401.658	7.79
401.865	7.53
402.072	7.23
402.279	6.68
402.485	7.19
402.692	7.63
402.899	6.67
403.105	6.46
403.312	6.64
403.519	7.05
403.725	6.78
403.932	6.33
404.138	6.43
404.345	6.22
404.552	6.56
404.758	6.83
404.965	6.42
405.171	6.9
405.378	7.14
405.584	7.63
405.791	7.35
405.997	7.6
406.204	7.99
406.41	7.9
406.617	8.19
406.823	7.86
407.029	7.2
407.236	8.13
407.442	8.12
407.649	7.61
407.855	6.69
408.061	6.5
408.268	6.47
408.474	6.24
408.68	5.76
408.887	5.54
409.093	6.49
409.299	6.85
409.505	5.59
409.712	5.47
409.918	5.93
410.124	6.15
410.33	6.37
410.537	5.98
410.743	5.37
410.949	5.55
411.155	5.32
411.361	4.74
411.567	4
411.773	4.98
411.98	5.27
412.186	5.48
412.392	5.71
412.598	5.32
412.804	5.75
413.01	6.3
413.216	6.41
413.422	6.68
413.628	6.95
413.834	6.79
414.04	6.55
414.246	6.15
414.452	5.7
414.658	5.2
414.864	5.62
415.07	5.74
415.275	5.42
415.481	5.97
415.687	6.35
415.893	5.99
416.099	6.37
416.305	5.94
416.511	6.14
416.716	6.03
416.922	6.53
417.128	6.4
417.334	6.15
417.539	6.17
417.745	5.76
417.951	5.24
418.157	5.37
418.362	5.68
418.568	5.6
418.774	5.52
418.979	5.6
419.185	5.29
419.391	5.33
419.596	5.18
419.802	5.21
420.008	4.63
420.213	5.13
420.419	5.18
420.624	4.92
420.83	5.25
421.035	5.46
421.241	5.39
421.446	5.44
421.652	5.5
421.857	5.75
422.063	5.65
422.268	6.04
422.474	5.56
422.679	5.36
422.885	5.29
423.09	5
423.295	4.71
423.501	4.65
423.706	4.6
423.911	4.48
424.117	4.31
424.322	4.69
424.527	4.64
424.733	4.94
424.938	4.96
425.143	5.1
425.349	4.86
425.554	4.89
425.759	4.94
425.964	4.88
426.169	4.7
426.375	4.74
426.58	4.44
426.785	4.19
426.99	4.28
427.195	4.07
427.4	4.01
427.605	4.46
427.811	4.71
428.016	4.73
428.221	5.12
428.426	5.44
428.631	5.1
428.836	4.63
429.041	5.13
429.246	4.86
429.451	5.05
429.656	5.25
429.861	5.72
430.066	5.5
430.271	5.76
430.476	5.43
430.681	5.26
430.886	5.5
431.09	5.56
431.295	5.43
431.5	5.65
431.705	5.98
431.91	5.65
432.115	5.1
432.32	5.27
432.524	5.31
432.729	5.42
432.934	5.5
433.139	5.61
433.343	5.59
433.548	5.7
433.753	5.04
433.958	4.67
434.162	5
434.367	5.04
434.572	4.62
434.776	4.07
434.981	4.28
435.186	4.02
435.39	4.07
435.595	3.96
435.799	3.91
436.004	4.29
436.209	4.59
436.413	4.25
436.618	4.46
436.822	4.97
437.027	5.13
437.231	4.65
437.436	4.85
437.64	4.8
437.845	4.84
438.049	4.44
438.253	4.45
438.458	3.95
438.662	4.14
438.867	3.94
439.071	3.69
439.275	4.07
439.48	4.45
439.684	4.5
439.888	4.46
440.093	4.61
440.297	4.77
440.501	4.94
440.706	5.13
440.91	4.91
441.114	4.76
441.318	5.24
441.523	5.03
441.727	4.88
441.931	5.21
442.135	5.3
442.339	5.57
442.543	5.77
442.748	5.51
442.952	5.36
443.156	5.11
443.36	5.58
443.564	5
443.768	4.96
443.972	5.19
444.176	4.8
444.38	4.79
444.584	4.78
444.788	4.76
444.992	4.83
445.196	4.94
445.4	5.11
445.604	4.62
445.808	4.59
446.012	4.59
446.216	4.35
446.42	4.07
446.624	4.09
446.828	4.11
447.032	4.07
447.235	4.21
447.439	4.07
447.643	4.27
447.847	4.64
448.051	5.03
448.254	4.91
448.458	4.9
448.662	5.12
448.866	5.02
449.069	4.82
449.273	4.6
449.477	4.55
449.681	4.85
449.884	4.81
450.088	4.48
450.292	4.06
450.495	4.08
450.699	4.54
450.902	4.39
451.106	4.22
451.31	4.3
451.513	4.59
451.717	4.38
451.92	4.46
452.124	4.4
452.327	4.71
452.531	4.81
452.734	4.74
452.938	4.19
453.141	4.27
453.345	4.34
453.548	4.31
453.752	4.28
453.955	4.57
454.158	4.22
454.362	4.51
454.565	4.12
454.769	4.8
454.972	5.05
455.175	5.21
455.379	5.49
455.582	5.85
455.785	5.48
455.988	5.31
456.192	4.92
456.395	4.92
456.598	4.93
456.801	5.44
457.005	4.8
457.208	4.74
457.411	4.69
457.614	4.63
457.817	4.09
458.021	4.19
458.224	4.13
458.427	4.3
458.63	4.33
458.833	4.36
459.036	4.27
459.239	4.05
459.442	3.66
459.645	3.79
459.848	3.65
460.051	3.88
460.254	4.06
460.457	4.46
460.66	4.54
460.863	4.58
461.066	4.4
461.269	4.46
461.472	4.86
461.675	5.25
461.878	5.34
462.081	5.45
462.284	5.61
462.486	5.19
462.689	4.95
462.892	5.02
463.095	5.19
463.298	5.04
463.5	5.41
463.703	5.53
463.906	5.48
464.109	5.55
464.311	5.48
464.514	5.4
464.717	5.49
464.92	5.81
465.122	5.44
465.325	5.42
465.528	5.35
465.73	4.84
465.933	4.53
466.135	4.6
466.338	4.29
466.541	4.55
466.743	4.29
466.946	4.49
467.148	4.4
467.351	4.54
467.553	4.26
467.756	4.51
467.958	4.55
468.161	4.54
468.363	4.56
468.566	4.54
468.768	4.3
468.971	4.62
469.173	5.06
469.375	4.74
469.578	4.18
469.78	4.37
469.983	4.65
470.185	4.24
470.387	4.69
470.59	4.59
470.792	4.84
470.994	4.97
471.196	4.91
471.399	4.02
471.601	4.39
471.803	4.4
472.005	4.69
472.208	4.46
472.41	4.71
472.612	4.51
472.814	4.79
473.016	4.84
473.218	4.82
473.421	4.51
473.623	5
473.825	4.79
474.027	5.25
474.229	5.65
474.431	5.37
474.633	5.38
474.835	4.98
475.037	5
475.239	4.5
475.441	4.69
475.643	4.84
475.845	4.53
476.047	4.36
476.249	4.15
476.451	3.29
476.653	3.31
476.855	3.54
477.057	3.91
477.258	3.45
477.46	3.79
477.662	3.59
477.864	3.57
478.066	4.07
478.268	4.3
478.469	4.68
478.671	4.77
478.873	4.79
479.075	4.6
479.276	4.72
479.478	4.97
479.68	5.05
479.882	5.13
480.083	5.35
480.285	4.97
480.487	4.93
480.688	4.86
480.89	5.18
481.091	5
481.293	4.92
481.495	4.66
481.696	4.5
481.898	4.26
482.099	4.24
482.301	4.02
482.502	4.01
482.704	3.9
482.905	3.86
483.107	3.7
483.308	3.7
483.51	3.68
483.711	3.65
483.913	3.67
484.114	3.72
484.315	3.59
484.517	3.72
484.718	3.67
484.92	3.81
485.121	3.72
485.322	3.65
485.524	3.68
485.725	3.73
485.926	3.72
486.127	3.72
486.329	3.62
486.53	3.65
486.731	3.53
486.932	3.57
487.134	3.48
487.335	3.44
487.536	3.51
487.737	3.57
487.938	3.52
488.139	3.7
488.341	3.58
488.542	3.71
488.743	3.97
488.944	4.13
489.145	4.07
489.346	4.07
489.547	4.18
489.748	4.11
489.949	3.98
490.15	3.96
490.351	3.79
490.552	3.95
490.753	3.92
490.954	3.77
491.155	3.67
491.356	3.72
491.557	3.65
491.758	3.77
491.959	3.87
492.159	4.05
492.36	4.05
492.561	3.98
492.762	3.92
492.963	3.79
493.164	3.72
493.364	3.93
493.565	4.07
493.766	3.96
493.967	3.78
494.167	3.76
494.368	3.51
494.569	3.57
494.769	3.74
494.97	3.72
495.171	4.11
495.371	4.04
495.572	3.95
495.773	3.85
495.973	4.1
496.174	4.08
496.375	4.33
496.575	4.29
496.776	4.28
496.976	4.23
497.177	4.23
497.377	4.13
497.578	4.12
497.778	3.85
497.979	3.88
498.179	3.85
498.38	4.11
498.58	4
498.78	4.23
498.981	4.45
499.181	4.33
499.382	4.31
499.582	4.11
499.782	4.33
499.983	4.52
500.183	4.69
500.383	4.86
500.584	4.59
500.784	4.46
500.984	4.4
501.184	4.28
501.385	4.54
501.585	4.47
501.785	4.5
501.985	4.45
502.185	4.6
502.386	4.55
502.586	4.55
502.786	4.76
502.986	4.47
503.186	4.73
503.386	4.82
503.586	5.07
503.786	5.38
503.987	5.34
504.187	5.5
504.387	5.54
504.587	5.45
504.787	5.17
504.987	5.42
505.187	5.69
505.387	5.19
505.587	5.46
505.786	5.1
505.986	5.13
506.186	5.25
506.386	5.3
506.586	5.33
506.786	5.22
506.986	5.38
507.186	4.99
507.386	5.32
507.585	5.7
507.785	5.74
507.985	5.69
508.185	5.72
508.384	5.96
508.584	5.85
508.784	5.95
508.984	6.14
509.183	6.46
509.383	6.65
509.583	6.69
509.782	6.36
509.982	6.1
510.182	6.29
510.381	6.29
510.581	6.06
510.781	6.29
510.98	6.19
511.18	6.36
511.379	6.09
511.579	5.95
511.778	5.92
511.978	6.27
512.177	6.29
512.377	6.21
512.576	6.06
512.776	6
512.975	5.64
513.175	5.69
513.374	5.69
513.573	5.81
513.773	5.95
513.972	5.86
514.172	5.83
514.371	5.85
514.57	6.05
514.77	6.53
514.969	6.53
515.168	6.89
515.367	6.96
515.567	6.82
515.766	6.97
515.965	6.85
516.164	6.74
516.364	6.74
516.563	6.77
516.762	7
516.961	6.8
517.16	6.95
517.359	6.83
517.559	6.67
517.758	6.87
517.957	6.84
518.156	7.07
518.355	7.2
518.554	7.13
518.753	7.04
518.952	6.69
519.151	6.62
519.35	6.86
519.549	6.86
519.748	7.09
519.947	6.82
520.146	6.87
520.345	6.96
520.544	6.9
520.743	6.99
520.942	6.96
521.141	7.28
521.339	7.48
521.538	7.74
521.737	7.74
521.936	7.72
522.135	8.09
522.333	8.25
522.532	8.19
522.731	8.19
522.93	8.35
523.129	8.53
523.327	8.71
523.526	8.84
523.725	8.34
523.923	8.75
524.122	8.77
524.321	8.75
524.519	8.72
524.718	8.61
524.917	8.74
525.115	8.82
525.314	8.84
525.512	8.69
525.711	8.54
525.909	8.78
526.108	8.87
526.306	8.72
526.505	8.69
526.703	8.5
526.902	8.57
527.1	8.57
527.299	8.51
527.497	8.5
527.696	8.58
527.894	8.69
528.092	8.67
528.291	8.54
528.489	8.64
528.688	8.68
528.886	8.92
529.084	9.04
529.283	9.1
529.481	9.17
529.679	9.35
529.877	9.41
530.076	9.4
530.274	9.7
530.472	9.61
530.67	9.75
530.869	9.98
531.067	10.02
531.265	9.84
531.463	9.98
531.661	10.07
531.859	10.11
532.057	10
532.255	10.17
532.454	9.97
532.652	10.03
532.85	10.05
533.048	9.89
533.246	9.82
533.444	9.92
533.642	9.9
533.84	10.06
534.038	10.13
534.236	10.34
534.434	10.29
534.632	10.39
534.83	10.6
535.027	10.81
535.225	11.04
535.423	11.05
535.621	11.25
535.819	11.26
536.017	11.14
536.215	11.19
536.412	11.24
536.61	11.15
536.808	11.3
537.006	11.39
537.203	11.16
537.401	11.12
537.599	11.36
537.797	11.23
537.994	11.32
538.192	11.5
538.39	11.46
538.587	11.53
538.785	11.62
538.983	11.45
539.18	11.42
539.378	11.55
539.575	11.5
539.773	11.26
539.97	11.33
540.168	11.41
540.366	11.29
540.563	11.24
540.761	11.2
540.958	11.23
541.155	11.29
541.353	11.39
541.55	11.45
541.748	11.48
541.945	11.89
542.143	11.93
542.34	12.03
542.537	12.32
542.735	12.63
542.932	12.92
543.129	13.1
543.327	13.18
543.524	12.88
543.721	12.76
543.919	12.87
544.116	12.54
544.313	12.81
544.51	12.68
544.708	12.6
544.905	12.51
545.102	12.18
545.299	12.33
545.496	12.4
545.693	12.6
545.891	12.75
546.088	12.89
546.285	12.96
546.482	12.78
546.679	12.93
546.876	12.94
547.073	13.03
547.27	13.17
547.467	13.07
547.664	13.37
547.861	13.66
548.058	13.77
548.255	13.8
548.452	14.06
548.649	14.5
548.846	14.74
549.043	14.78
549.24	14.88
549.437	14.95
549.633	15.11
549.83	14.75
550.027	14.92
550.224	15.06
550.421	15.17
550.618	14.89
550.814	14.58
551.011	14.12
551.208	13.93
551.405	13.83
551.601	13.81
551.798	13.35
551.995	13.41
552.191	13.48
552.388	13.55
552.585	13.46
552.781	13.3
552.978	13.49
553.175	13.8
553.371	13.76
553.568	13.65
553.764	13.81
553.961	14.01
554.157	13.95
554.354	13.34
554.55	12.88
554.747	12.76
554.943	13.41
555.14	13.42
555.336	13.47
555.533	13.93
555.729	14.14
555.926	14.52
556.122	14.76
556.318	15.13
556.515	16.03
556.711	16.46
556.907	16.64
557.104	16.46
557.3	16.77
557.496	16.25
557.693	16.16
557.889	16.35
558.085	16.07
558.281	16.39
558.478	16.38
558.674	16.14
558.87	16.39
559.066	16.74
559.262	16.63
559.459	16.17
559.655	16.71
559.851	16.35
560.047	16
560.243	15.95
560.439	15.77
560.635	16.28
560.831	16.6
561.027	16.52
561.223	16.59
561.419	16.7
561.615	16.89
561.811	16.65
562.007	17.33
562.203	17.55
562.399	17.78
562.595	17.65
562.791	17.57
562.987	17.3
563.183	16.95
563.379	16.59
563.575	16.86
563.771	17.17
563.966	17.43
564.162	17.45
564.358	17.59
564.554	17.3
564.75	17.17
564.945	17.03
565.141	17.06
565.337	17
565.533	17.34
565.728	16.92
565.924	16.54
566.12	16.45
566.315	16.32
566.511	16.2
566.707	16.57
566.902	17.01
567.098	17.02
567.293	16.95
567.489	17.16
567.684	16.98
567.88	17.06
568.076	17.08
568.271	17.1
568.467	17.18
568.662	17.03
568.858	16.87
569.053	16.62
569.248	16.38
569.444	16.36
569.639	16.5
569.835	16.7
570.03	16.69
570.225	16.99
570.421	16.85
570.616	16.97
570.812	17.3
571.007	17.27
571.202	17.59
571.397	17.6
571.593	17.55
571.788	17.79
571.983	17.39
572.178	17.77
572.374	17.34
572.569	17.53
572.764	17.62
572.959	17.57
573.154	17.57
573.35	17.51
573.545	17.4
573.74	17.58
573.935	17.41
574.13	17.6
574.325	17.41
574.52	17.7
574.715	17.79
574.91	17.82
575.105	18
575.3	18.44
575.495	18.39
575.69	18.8
575.885	18.74
576.08	18.57
576.275	18.77
576.47	18.98
576.665	19.14
576.86	19
577.055	18.91
577.25	18.19
577.444	17.69
577.639	17.52
577.834	17.65
578.029	17.99
578.224	18.04
578.418	17.76
578.613	17.52
578.808	17.85
579.003	17.55
579.197	17.37
579.392	18.09
579.587	18.34
579.781	18.38
579.976	18.48
580.171	18.69
580.365	18.8
580.56	18.56
580.755	18.57
580.949	17.89
581.144	18.53
581.338	18.44
581.533	18.32
581.727	18.72
581.922	18.57
582.116	18.14
582.311	18.09
582.505	18.45
582.7	18.91
582.894	19.12
583.089	19.48
583.283	19.23
583.478	19.61
583.672	19.33
583.866	18.54
584.061	19.07
584.255	19.2
584.449	19.33
584.644	19.42
584.838	19.83
585.032	20.05
585.226	19.76
585.421	19.83
585.615	19.74
585.809	20.27
586.003	20.89
586.198	21.07
586.392	21.06
586.586	20.64
586.78	20.33
586.974	19.87
587.168	19.61
587.363	20.04
587.557	20.15
587.751	20.46
587.945	20.65
588.139	20.46
588.333	20.08
588.527	19.71
588.721	19.8
588.915	19.58
589.109	19.16
589.303	19.35
589.497	19.47
589.691	19.12
589.885	18.74
590.079	18.68
590.273	19.16
590.466	19.37
590.66	19.77
590.854	19.67
591.048	19.8
591.242	20.1
591.436	20.14
591.629	19.78
591.823	19.9
592.017	20.08
592.211	20.21
592.404	20.14
592.598	20.24
592.792	20.49
592.986	20.46
593.179	20.54
593.373	20.99
593.567	20.65
593.76	21
593.954	21.23
594.147	21.21
594.341	20.6
594.535	20.12
594.728	20.14
594.922	19.81
595.115	19.52
595.309	19.65
595.502	19.71
595.696	19.83
595.889	19.76
596.083	19.77
596.276	19.97
596.47	20.31
596.663	20.33
596.856	19.88
597.05	20.21
597.243	20.5
597.437	20.88
597.63	21.02
597.823	20.87
598.017	20.81
598.21	20.44
598.403	20.07
598.596	19.94
598.79	20.56
598.983	20.69
599.176	20.1
599.369	20.25
599.563	19.9
599.756	19.59
599.949	20.25
600.142	20.47
600.335	21.42
600.528	21.5
600.722	21.77
600.915	21.36
601.108	21.86
601.301	22.32
601.494	22.25
601.687	22.55
601.88	22.57
602.073	21.76
602.266	21.45
602.459	21.1
602.652	20.91
602.845	20.6
603.038	20.84
603.231	20.7
603.424	20.41
603.617	20.48
603.809	20.33
604.002	20.21
604.195	20.36
604.388	20.23
604.581	20.27
604.774	20.51
604.966	20.78
605.159	20.63
605.352	20.44
605.545	20.82
605.737	20.89
605.93	21.03
606.123	20.96
606.316	21.37
606.508	22.12
606.701	21.86
606.894	21.46
607.086	21.59
607.279	21.75
607.471	21.94
607.664	21.79
607.857	21.81
608.049	21.47
608.242	21.36
608.434	21.47
608.627	21.55
608.819	21.71
609.012	21.99
609.204	21.52
609.397	21.76
609.589	21.87
609.782	21.98
609.974	21.59
610.166	21.56
610.359	21.8
610.551	22.06
610.743	21.73
610.936	21.4
611.128	21.64
611.32	22.12
611.513	21.77
611.705	21.94
611.897	21.91
612.09	22.52
612.282	22.56
612.474	22.85
612.666	22.97
612.858	22.9
613.051	23.55
613.243	22.8
613.435	22.87
613.627	22.66
613.819	22.21
614.011	21.97
614.203	22.33
614.395	22.27
614.588	22.81
614.78	23.18
614.972	24.08
615.164	23.91
615.356	25.15
615.548	25.12
615.74	25.09
615.932	25.25
616.124	25.45
616.315	25.6
616.507	25.99
616.699	25.3
616.891	24.81
617.083	24.59
617.275	24.53
617.467	23.8
617.659	23.38
617.85	23.39
618.042	23.98
618.234	24.04
618.426	23.55
618.618	23.26
618.809	23.51
619.001	23.53
619.193	22.32
619.384	22.67
619.576	22.98
619.768	23.23
619.959	23.26
620.151	22.88
620.343	22.62
620.534	22.41
620.726	23.25
620.917	23.18
621.109	22.73
621.301	23.75
621.492	23.61
621.684	23.81
621.875	24
622.067	23.76
622.258	23.94
622.45	24.42
622.641	24.04
622.832	24.02
623.024	23.63
623.215	24.04
623.407	23.76
623.598	23.7
623.789	23.72
623.981	23.57
624.172	24.12
624.363	24.05
624.555	23.92
624.746	24.11
624.937	24.2
625.129	24.49
625.32	23.81
625.511	23.39
625.702	23.12
625.893	22.92
626.085	22.83
626.276	22.98
626.467	22.9
626.658	22.76
626.849	23.04
627.04	22.78
627.231	22.78
627.422	23.03
627.614	23.61
627.805	23.96
627.996	23.84
628.187	24.2
628.378	24.1
628.569	23.9
628.76	24.1
628.951	23.74
629.142	23.85
629.332	23.67
629.523	24.29
629.714	24.34
629.905	24.59
630.096	24.47
630.287	24.29
630.478	24.35
630.669	24.62
630.859	25.1
631.05	25.15
631.241	24.23
631.432	24.25
631.623	23.86
631.813	23.34
632.004	23.01
632.195	23.41
632.385	23.53
632.576	22.83
632.767	22.17
632.957	21.8
633.148	21.81
633.339	21.85
633.529	21.96
633.72	21.93
633.91	21.76
634.101	21.47
634.292	21.88
634.482	21.47
634.673	22.5
634.863	22.64
635.054	22.37
635.244	23.36
635.435	23.56
635.625	24.05
635.815	23.99
636.006	24.94
636.196	25.08
636.387	24.32
636.577	24.79
636.767	25.09
636.958	24.7
637.148	25.17
637.338	24.69
637.529	24.68
637.719	24.72
637.909	25.36
638.099	25.57
638.29	25.56
638.48	25.95
638.67	25.86
638.86	24.77
639.05	25.76
639.241	25.21
639.431	25.44
639.621	26.18
639.811	25.16
640.001	24.74
640.191	24.57
640.381	24.81
640.571	25.52
640.761	26.23
640.951	26.76
641.141	26.03
641.331	26.9
641.521	27.66
641.711	27.6
641.901	28.3
642.091	28.74
642.281	27.89
642.471	28.44
642.661	28.14
642.851	27.32
643.041	26.89
643.231	27.98
643.42	27.53
643.61	26.51
643.8	26.3
643.99	26
644.18	25.4
644.369	26.8
644.559	26.41
644.749	25.93
644.939	26.11
645.128	26.78
645.318	26.58
645.508	26.81
645.697	26.61
645.887	27.01
646.076	27.46
646.266	28.32
646.456	26.57
646.645	26.57
646.835	27.22
647.024	27.09
647.214	26.76
647.403	26.32
647.593	26.32
647.782	27.16
647.972	26.26
648.161	26.32
648.351	25.73
648.54	26.89
648.73	27.43
648.919	26.79
649.108	27.14
649.298	26.74
649.487	27.71
649.677	27.73
649.866	26.81
650.055	27.28
650.244	27.14
650.434	27.69
650.623	27.26
650.812	26.93
651.002	27
651.191	27.15
651.38	27.45
651.569	27.06
651.758	26.9
651.947	27.28
652.137	26.95
652.326	27.05
652.515	26.78
652.704	26.96
652.893	25.95
653.082	26.1
653.271	26.41
653.46	26.07
653.649	25.78
653.838	24.87
654.027	25.47
654.216	25.62
654.405	26.37
654.594	26.51
654.783	26.44
654.972	27.07
655.161	26.64
655.35	26.03
655.539	25.94
655.728	26.17
655.916	26.99
656.105	26.58
656.294	26.9
656.483	26.13
656.672	25.59
656.86	25.94
657.049	25.81
657.238	25.82
657.427	25.63
657.615	26.04
657.804	25.76
657.993	25.31
658.181	25.34
658.37	25.3
658.559	24.61
658.747	25.19
658.936	25.3
659.125	26.21
659.313	25.94
659.502	26.35
659.69	26.29
659.879	26.74
660.067	26.71
660.256	26.92
660.444	27.24
660.633	27.47
660.821	27.16
661.01	26.95
661.198	25.77
661.387	26.42
661.575	27.14
661.763	27.52
661.952	27.97
662.14	28.4
662.328	28.51
662.517	29.3
662.705	29.83
662.893	30.24
663.082	30.39
663.27	30.96
663.458	31.01
663.646	30.04
663.834	29.22
664.023	28.59
664.211	28.36
664.399	27.74
664.587	26.89
664.775	27.14
664.963	26.76
665.152	26.1
665.34	26.59
665.528	26.66
665.716	27.52
665.904	28.14
666.092	27.5
666.28	27.9
666.468	27.83
666.656	28.08
666.844	27.97
667.032	27.69
667.22	28.62
667.408	28.11
667.596	28.28
667.784	28.13
667.971	28.93
668.159	28.54
668.347	29.02
668.535	28.67
668.723	28.14
668.911	27.5
669.098	26.71
669.286	26.46
669.474	27.45
669.662	27.07
669.849	26.4
670.037	26.13
670.225	26.99
670.413	26.59
670.6	26.46
670.788	26.24
670.976	27.72
671.163	29.06
671.351	29.08
671.538	28.03
671.726	29.24
671.913	29.59
672.101	28.85
672.289	29.3
672.476	30.03
672.664	30.78
672.851	30.24
673.039	29.59
673.226	29.27
673.413	28.82
673.601	29.73
673.788	28.51
673.976	28.72
674.163	28.47
674.35	27.76
674.538	27.66
674.725	27.95
674.912	28.26
675.1	28.82
675.287	28.68
675.474	28.85
675.662	27.37
675.849	28.28
676.036	27.94
676.223	28.19
676.411	29.21
676.598	28.22
676.785	28.72
676.972	29.92
677.159	28.49
677.346	27.83
677.533	28.34
677.721	28.74
677.908	28.14
678.095	27.98
678.282	27.69
678.469	25.99
678.656	26.5
678.843	25.58
679.03	25.48
679.217	26.09
679.404	26.38
679.591	26.11
679.778	26.86
679.964	26.66
680.151	26.8
680.338	27.45
680.525	28.79
680.712	29.59
680.899	29.78
681.086	29.92
681.272	30.14
681.459	30.84
681.646	30.43
681.833	29.38
682.02	29.8
682.206	29.74
682.393	29.41
682.58	28.77
682.766	30.78
682.953	30.8
683.14	29.74
683.326	30.18
683.513	30.54
683.7	30.08
683.886	31.2
684.073	31.19
684.259	30.72
684.446	31.67
684.632	32.08
684.819	28.39
685.005	28.37
685.192	27.43
685.378	28.13
685.565	27.4
685.751	28.22
685.938	27.55
686.124	27.67
686.31	28.06
686.497	26.49
686.683	26.51
686.87	27.25
687.056	27.64
687.242	27.78
687.429	27.34
687.615	27.41
687.801	27.17
687.987	27.27
688.174	27.23
688.36	27.75
688.546	28.55
688.732	29.01
688.918	28.52
689.105	28.53
689.291	29.7
689.477	28.74
689.663	28.77
689.849	29.54
690.035	29.52
690.221	28.85
690.407	28.31
690.593	28.24
690.779	28.44
690.965	29.67
691.151	29.48
691.337	31.19
691.523	31.6
691.709	31.65
691.895	31.89
692.081	32.12
692.267	34.06
692.453	33.9
692.639	34.7
692.825	33.51
693.011	31.82
693.196	32.23
693.382	30.1
693.568	30.4
693.754	31.31
693.94	31.46
694.125	31.25
694.311	29.34
694.497	30.15
694.682	29.77
694.868	30.88
695.054	30.8
695.239	31.53
695.425	32.75
695.611	32.23
695.796	31.27
695.982	30.09
696.168	30.09
696.353	29.94
696.539	29.41
696.724	28.52
696.91	28.32
697.095	28.76
697.281	28.38
697.466	27.84
697.652	27.26
697.837	26.89
698.023	27.79
698.208	28.23
698.393	28.82
698.579	29.94
698.764	30.28
698.949	29.84
699.135	30.94
699.32	30.83
699.505	30.68
699.691	31.82
699.876	31.65
700.061	31.08
700.246	30.88
700.432	31.19
700.617	29.72
700.802	30.09
700.987	30.74
701.172	31.11
701.358	31.98
701.543	32.98
701.728	32.09
701.913	33.66
702.098	32.86
702.283	34.22
702.468	33.71
702.653	33.63
702.838	33.86
703.023	33.92
703.208	31.87
703.393	32.44
703.578	31.35
703.763	32.79
703.948	32
704.133	33.44
704.318	32.75
704.503	32.93
704.688	34.43
704.873	33.65
705.057	35.19
705.242	35.61
705.427	34.19
705.612	34.45
705.797	33.41
705.981	33.36
706.166	34.23
706.351	33.13
706.536	34.5
706.72	34.02
706.905	34.57
707.09	33.99
707.274	34.14
707.459	33.94
707.644	34.38
707.828	34.59
708.013	35.25
708.197	33.87
708.382	34.33
708.567	31.71
708.751	32.55
708.936	32.83
709.12	32.8
709.305	32.61
709.489	32.82
709.673	32.91
709.858	32.94
710.042	32.46
710.227	33.39
710.411	33.71
710.596	33.96
710.78	32.96
710.964	32.59
711.149	32.08
711.333	32.02
711.517	31.01
711.702	31.87
711.886	32.17
712.07	31.6
712.254	30.77
712.438	31.93
712.623	32.47
712.807	32.69
712.991	33.68
713.175	33.73
713.359	33.38
713.544	34.36
713.728	33.59
713.912	33.8
714.096	35.44
714.28	35.27
714.464	34.44
714.648	36.18
714.832	37.01
715.016	36.6
715.2	36.47
715.384	36.34
715.568	36.38
715.752	35.17
715.936	34.68
716.12	33.55
716.304	34.06
716.488	33.08
716.671	32.29
716.855	31.47
717.039	31.72
717.223	32.5
717.407	33.76
717.59	33.46
717.774	35.34
717.958	36.49
718.142	37.81
718.325	38.9
718.509	40.71
718.693	40.19
718.877	40.34
719.06	41.94
719.244	41.53
719.428	41.83
719.611	43.76
719.795	42.86
719.978	42.94
720.162	41.96
720.345	41.39
720.529	41.24
720.713	40.19
720.896	40.73
721.08	39.86
721.263	40.26
721.446	39.42
721.63	38.5
721.813	40.91
721.997	40.09
722.18	40.19
722.364	40.68
722.547	40.88
722.73	43.25
722.914	41.85
723.097	40.65
723.28	39.42
723.464	39.42
723.647	39.92
723.83	38.32
724.013	37.95
724.197	38.09
724.38	37.8
724.563	37.34
724.746	34.82
724.929	35.2
725.112	36
725.296	36.41
725.479	35.95
725.662	35.7
725.845	35.45
726.028	36.48
726.211	35.52
726.394	35.16
726.577	34.68
726.76	34.07
726.943	34.55
727.126	32.87
727.309	32.99
727.492	32.75
727.675	31.75
727.858	31.36
728.041	30.86
728.224	31.27
728.407	30.33
728.589	30.61
728.772	31.81
728.955	31.69
729.138	32.88
729.321	32.66
729.503	32.17
729.686	31.69
729.869	30.89
730.052	30.77
730.234	31.42
730.417	31.69
730.6	31.19
730.782	31.78
730.965	32.21
731.148	32.32
731.33	32.52
731.513	33.76
731.695	35.24
731.878	37.34
732.061	37.55
732.243	37.46
732.426	37.36
732.608	36.09
732.791	35.9
732.973	35.35
733.156	35.7
733.338	35.98
733.52	36.53
733.703	35.97
733.885	36.65
734.068	36.1
734.25	38.35
734.432	39.44
734.615	40.34
734.797	41.75
734.979	42.99
735.162	43.3
735.344	42.78
735.526	41.99
735.708	40.1
735.891	38.63
736.073	38.78
736.255	37.27
736.437	38.26
736.619	39.15
736.802	37.44
736.984	37.04
737.166	36.49
737.348	36.01
737.53	37.14
737.712	38.24
737.894	37.73
738.076	39.69
738.258	38.91
738.44	36.31
738.622	35.76
738.804	37.64
738.986	36.57
739.168	36.77
739.35	38.9
739.532	39.6
739.714	41.53
739.896	42.68
740.078	40.57
740.259	41.63
740.441	45.32
740.623	47.77
740.805	47.1
740.987	48.7
741.168	46.27
741.35	46.53
741.532	44.58
741.714	42.65
741.895	41.22
742.077	41.17
742.259	42.83
742.44	41.11
742.622	40.27
742.804	39.09
742.985	38.39
743.167	40.36
743.348	37.99
743.53	40.57
743.711	40.87
743.893	40.52
744.075	43.6
744.256	39.78
744.438	38.01
744.619	35.83
744.8	35.7
744.982	35.73
745.163	36.26
745.345	36.6
745.526	34.28
745.707	35.12
745.889	36.51
746.07	34.39
746.252	35.43
746.433	37.31
746.614	39.25
746.795	42.04
746.977	44.25
747.158	45.36
747.339	47.63
747.52	49.69
747.702	49.87
747.883	49.22
748.064	51.53
748.245	52.15
748.426	51.81
748.607	51.24
748.788	49.45
748.97	47.86
749.151	47.89
749.332	48.05
749.513	44.25
749.694	45.48
749.875	47.15
750.056	45.54
750.237	45.85
750.418	47.77
750.599	48.28
750.78	45.17
750.96	44.86
751.141	44.39
751.322	42.3
751.503	46.17
751.684	46.47
751.865	44.98
752.046	45.21
752.226	44.14
752.407	41.82
752.588	44.09
752.769	47.29
752.949	45.48
753.13	43.2
753.311	42.68
753.492	40.26
753.672	40.48
753.853	40.11
754.034	37.99
754.214	39.54
754.395	39.16
754.575	36.21
754.756	35.94
754.937	37.92
755.117	39.4
755.298	40.74
755.478	40.48
755.659	39.06
755.839	39.99
756.02	40.39
756.2	39.05
756.381	40.44
756.561	42.9
756.741	43.14
756.922	41.89
757.102	40.98
757.283	39.78
757.463	41.88
757.643	41.18
757.823	39.43
758.004	39.01
758.184	40.39
758.364	38.77
758.545	37.11
758.725	37.13
758.905	37.63
759.085	40.11
759.265	39.76
759.446	38.57
759.626	39.89
759.806	40.31
759.986	41.57
760.166	41.69
760.346	42.55
760.526	41.81
760.706	41.63
760.886	41.97
761.066	40.81
761.246	41.96
761.426	41.26
761.606	39.21
761.786	39.85
761.966	39.67
762.146	38.04
762.326	38.44
762.506	37.62
762.686	37.22
762.866	36.28
763.046	35.8
763.225	35.16
763.405	34.45
763.585	33.96
763.765	33.49
763.945	33.29
764.124	33.47
764.304	34.29
764.484	34.67
764.664	33.41
764.843	34.82
765.023	34.64
765.203	35.05
765.382	37.21
765.562	41.08
765.741	41.36
765.921	41.2
766.101	43.05
766.28	43.67
766.46	45.91
766.639	48.51
766.819	49.3
766.998	53.3
767.178	53.22
767.357	53.1
767.537	50.68
767.716	51.98
767.896	51.67
768.075	51.85
768.254	50.19
768.434	49.04
768.613	48.32
768.792	47.09
768.972	43.91
769.151	45.2
769.33	45.39
769.51	45.63
769.689	45.08
769.868	46.19
770.047	44.3
770.226	45.28
770.406	45.31
770.585	46.36
770.764	46.64
770.943	47.02
771.122	48.32
771.301	49.42
771.48	51.44
771.66	51.75
771.839	54.16
772.018	56.24
772.197	55.45
772.376	57.82
772.555	56.76
772.734	58.3
772.913	59.52
773.092	59.09
773.271	58.41
773.449	61.55
773.628	60.47
773.807	60.12
773.986	56.65
774.165	54.88
774.344	53.07
774.523	54.58
774.701	56.18
774.88	52.71
775.059	52.44
775.238	51.7
775.417	47.52
775.595	48.2
775.774	48.07
775.953	49.09
776.131	49.53
776.31	49.52
776.489	45.73
776.667	40.66
776.846	46.01
777.025	42.15
777.203	46.57
777.382	46.8
777.56	47.79
777.739	45.77
777.917	47.18
778.096	47.49
778.274	48.71
778.453	48.4
778.631	47.56
778.81	46.28
778.988	53.32
779.166	53.21
779.345	52.85
779.523	51.65
779.702	53.23
779.88	53.79
780.058	54.25
780.237	54.25
780.415	57.47
780.593	60.72
780.771	58.39
780.95	52.81
781.128	49.69
781.306	49.64
781.484	51.42
781.662	51.87
781.841	51.45
782.019	50.84
782.197	50.93
782.375	51.51
782.553	49.53
782.731	55.44
782.909	55.83
783.087	55.65
783.265	56.2
783.443	52.39
783.621	48.99
783.799	53.03
783.977	54.04
784.155	53.62
784.333	52.15
784.511	52.71
784.689	42.48
784.867	45.57
785.045	48.26
785.223	47.91
785.4	51.84
785.578	53.56
785.756	50.19
785.934	49.7
786.112	49.64
786.289	48.07
786.467	47.67
786.645	55.04
786.823	54.51
787	50.6
787.178	54.8
787.356	52.12
787.533	50.97
787.711	51.31
787.889	50.07
788.066	50.54
788.244	51.44
788.421	54.1
788.599	53.07
788.776	49.48
788.954	50.9
789.131	50.31
789.309	53.09
789.486	52.07
789.664	53.58
789.841	55.49
790.019	52.82
790.196	54.9
790.373	54.27
790.551	53.42
790.728	57.72
790.906	58.41
791.083	52.95
791.26	50.58
791.437	52.76
791.615	48.88
791.792	48.44
791.969	50.71
792.146	49.56
792.324	47.08
792.501	49.47
792.678	50.58
792.855	50.26
793.032	55.18
793.209	56.53
793.387	60.45
793.564	58.97
793.741	59.76
793.918	58.44
794.095	58.63
794.272	62.38
794.449	56.86
794.626	56.08
794.803	59.87
794.98	58.22
795.157	60.5
795.334	53.75
795.511	54.93
795.688	53.74
795.864	55.44
796.041	54.4
796.218	50.49
796.395	52.77
796.572	49.53
796.749	48.63
796.925	49.56
797.102	45.53
797.279	52.61
797.456	53.64
797.632	54.26
797.809	52.18
797.986	51.07
798.162	54.39
798.339	58.53
798.516	60.69
798.692	56.76
798.869	55.78
799.046	55.36
799.222	51.41
799.399	45.36
799.575	45.08
799.752	47.97
799.928	48.18
800.105	46.49
800.281	41.27
800.458	44.44
800.634	45.35
800.811	46.98
800.987	47.2
801.163	47.82
801.34	52.34
801.516	54.3
801.692	57.94
801.869	61.07
802.045	62.12
802.221	66.4
802.398	65.87
802.574	68.13
802.75	66.25
802.926	67.91
803.103	71.18
803.279	74.76
803.455	75.87
803.631	70.91
803.807	69.2
803.983	69.95
804.16	68.07
804.336	67.65
804.512	66.04
804.688	66.58
804.864	63.84
805.04	60.75
805.216	63.66
805.392	62.74
805.568	60.82
805.744	66.96
805.92	63.39
806.096	61.55
806.272	66.55
806.448	68.18
806.623	63.4
806.799	67.95
806.975	65.16
807.151	63
807.327	59.4
807.503	61.3
807.678	54.63
807.854	60.31
808.03	62.17
808.206	56.03
808.381	56.46
808.557	58.28
808.733	59.57
808.908	66.33
809.084	65.23
809.26	69.76
809.435	70.95
809.611	72.48
809.787	65.94
809.962	68.18
810.138	73.14
810.313	72.51
810.489	80.85
810.664	77.71
810.84	73.5
811.015	74.53
811.191	70.9
811.366	70.2
811.542	73.01
811.717	76.34
811.892	72.97
812.068	69.72
812.243	70.11
812.419	63.19
812.594	66.57
812.769	70.92
812.944	73.31
813.12	75.27
813.295	74.57
813.47	76.42
813.645	74.14
813.821	71.48
813.996	72.07
814.171	68.94
814.346	71.12
814.521	64
814.697	60.55
814.872	57.64
815.047	55.61
815.222	53.32
815.397	49.11
815.572	45.77
815.747	51.54
815.922	50.92
816.097	49.53
816.272	51.13
816.447	56.72
816.622	58.97
816.797	55.85
816.972	54.34
817.147	59.44
817.322	58.61
817.496	59.65
817.671	62.15
817.846	64.29
818.021	65.26
818.196	63.41
818.371	61.2
818.545	61.38
818.72	60.68
818.895	61.47
819.069	57.41
819.244	55.11
819.419	53.72
819.594	47.61
819.768	40.98
819.943	39.83
820.117	36.48
820.292	35.48
820.467	33.24
820.641	32.4
820.816	31.9
820.99	30.87
821.165	29.89
821.339	29.08
821.514	28.67
821.688	29.25
821.863	28.17
822.037	28.05
822.212	27.77
822.386	27.22
822.56	26.18
822.735	27.23
822.909	27.22
823.084	26.29
823.258	26.98
823.432	27.4
823.606	27.33
823.781	28.24
823.955	29.34
824.129	29.27
824.303	29.27
824.478	30.85
824.652	30.61
824.826	30.45
825	32.86
825.174	32.14
825.348	32.72
825.523	32.03
825.697	31.13
825.871	31.18
826.045	31.82
826.219	31.98
826.393	31.8
826.567	30
826.741	31.06
826.915	30.48
827.089	31.74
827.263	30
827.437	31.86
827.611	32.73
827.784	33.07
827.958	34.55
828.132	34.26
828.306	35.61
828.48	37.54
828.654	37.69
828.827	38.72
829.001	41.38
829.175	44.22
829.349	47.01
829.522	47.84
829.696	49.35
829.87	48.66
830.044	52.6
830.217	53.07
830.391	51.94
830.565	53.63
830.738	56.06
830.912	53.44
831.085	52.22
831.259	47.29
831.432	44.29
831.606	43.36
831.779	42.1
831.953	40.67
832.126	41.16
832.3	43.48
832.473	42.37
832.647	39.93
832.82	39.15
832.994	39.2
833.167	40.7
833.34	42.91
833.514	40.5
833.687	40.12
833.86	42.05
834.034	40.94
834.207	39.6
834.38	38.46
834.553	38.84
834.727	40.83
834.9	40.3
835.073	40.6
835.246	37.9
835.419	39.54
835.593	38.94
835.766	36
835.939	36.34
836.112	37.28
836.285	38.73
836.458	37.32
836.631	34.77
836.804	37.17
836.977	36.38
837.15	42.58
837.323	49.5
837.496	53.32
837.669	66.62
837.842	60.96
838.015	65.91
838.188	72.21
838.361	73.56
838.533	75.39
838.706	75.29
838.879	72.15
839.052	71
839.225	67.53
839.398	68.86
839.57	65.66
839.743	72.2
839.916	68.1
840.088	65.71
840.261	72.47
840.434	73.07
840.607	70.87
840.779	75.11
840.952	78.38
841.124	84.1
841.297	80.63
841.47	83.4
841.642	87.81
841.815	93.23
841.987	102.57
842.16	99.21
842.332	97.7
842.505	97.7
842.677	98.48
842.85	107.74
843.022	109.71
843.194	113.11
843.367	107.54
843.539	109.24
843.712	114.05
843.884	108.83
844.056	104.52
844.229	107.25
844.401	112.82
844.573	112.09
844.745	97.12
844.918	109.82
845.09	109.08
845.262	132
845.434	143.71
845.606	141.67
845.779	148.65
845.951	132.49
846.123	145.74
846.295	149.84
846.467	190.62
846.639	194.62
846.811	187.7
846.983	186.73
847.155	165.58
847.327	141.83
847.499	141.62
847.671	143.44
847.843	150.68
848.015	134.2
848.187	132.27
848.359	117.89
848.531	130.83
848.703	116.05
848.875	123.3
849.047	122.98
849.218	125.99
849.39	122.7
849.562	126.66
849.734	144.74
849.905	137.86
850.077	143.61
850.249	130.11
850.421	107.16
850.592	102.58
850.764	97.41
850.936	89.47
851.107	79.77
851.279	77.43
851.451	71.66
851.622	67.88
851.794	82.12
851.965	89.32
852.137	92.83
852.308	101.34
852.48	109.99
852.651	117.63
852.823	118.64
852.994	122.84
853.166	129.5
853.337	149.92
853.509	161.54
853.68	152.83
853.851	143.5
854.023	139.71
854.194	120.81
854.365	128.92
854.537	122.73
854.708	132.47
854.879	121.49
855.05	116.44
855.222	102.7
855.393	97.68
855.564	90.21
855.735	97.66
855.906	97.07
856.078	101.89
856.249	89.33
856.42	87.65
856.591	88.66
856.762	99.01
856.933	97.26
857.104	89.16
857.275	85.07
857.446	94.58
857.617	86.64
857.788	86.84
857.959	85.33
858.13	86.64
858.301	82.71
858.472	86.3
858.643	87.7
858.814	93.84
858.985	102.75
859.155	136.36
859.326	143.6
859.497	149.65
859.668	226.51
859.839	219.89
860.009	164.17
860.18	197.93
860.351	153.72
860.522	144.92
860.692	138.18
860.863	118.59
861.034	94.55
861.204	85.36
861.375	86.61
861.546	86.3
861.716	87.24
861.887	98.06
862.057	100.3
862.228	114.27
862.398	108.66
862.569	122.02
862.739	162.32
862.91	164.49
863.08	166.17
863.251	183.33
863.421	186.58
863.592	214.27
863.762	194.05
863.932	167.69
864.103	153.59
864.273	147.27
864.443	123.45
864.614	98.92
864.784	88.52
864.954	98.46
865.125	101.02
865.295	93.35
865.465	97.37
865.635	96.78
865.805	89.41
865.976	100.73
866.146	97.28
866.316	112.45
866.486	157.67
866.656	153.25
866.826	128.27
866.996	130.64
867.166	149.39
867.336	121.87
867.506	87.22
867.676	83.01
867.846	76.83
868.016	94.58
868.186	84.47
868.356	77.5
868.526	75.16
868.696	80.32
868.866	71.6
869.036	74.72
869.206	77.82
869.376	80.05
869.545	88.25
869.715	109.68
869.885	112.98
870.055	113.72
870.224	108.74
870.394	113.49
870.564	129.78
870.734	124.21
870.903	129.08
871.073	125.24
871.243	140.86
871.412	150.85
871.582	130.82
871.751	114.33
871.921	116.81
872.091	137.19
872.26	121.76
872.43	107.11
872.599	119
872.769	120.61
872.938	142.69
873.108	133.59
873.277	119.94
873.446	121.1
873.616	140.94
873.785	141.58
873.955	135.35
874.124	142.98
874.293	141.32
874.463	128.42
874.632	126.39
874.801	116.03
874.971	117.2
875.14	123.8
875.309	110.1
875.478	78.1
875.647	75.84
875.817	79.81
875.986	85.88
876.155	90.41
876.324	86.91
876.493	74.81
876.662	70.24
876.831	66.37
877	67.98
877.17	70.89
877.339	74.12
877.508	85.87
877.677	86.05
877.846	72.88
878.015	76.18
878.184	75.27
878.352	83.75
878.521	80.52
878.69	80.55
878.859	72.73
879.028	69.75
879.197	73.73
879.366	66.14
879.534	56.97
879.703	51.83
879.872	44.07
880.041	42.82
880.21	38.33
880.378	36
880.547	33.88
880.716	38.8
880.884	40.21
881.053	35.11
881.222	34.1
881.39	35.47
881.559	34.28
881.727	34.96
881.896	32.93
882.065	34.16
882.233	34.87
882.402	34.29
882.57	33.17
882.739	30.32
882.907	32.53
883.076	32.23
883.244	31.07
883.412	31.35
883.581	33.13
883.749	36.2
883.918	36.15
884.086	36.17
884.254	38.3
884.423	39.96
884.591	43.26
884.759	43.34
884.927	45.61
885.096	46.79
885.264	51.17
885.432	53.25
885.6	55.68
885.769	54.12
885.937	57.98
886.105	62.59
886.273	62.96
886.441	64.86
886.609	70.14
886.777	69.15
886.945	70.19
887.113	77.35
887.281	67.77
887.449	72.99
887.617	80.63
887.785	81.65
887.953	83.09
888.121	84.08
888.289	84.98
888.457	77.08
888.625	84.03
888.793	83.85
888.961	72.68
889.129	82.24
889.296	66.38
889.464	58.67
889.632	51.29
889.8	22.74
889.967	27.62
890.135	21.51
