Data from JASIL_3307_Reflection_1.txt Node
Date: Tue Nov 17 19:51:13 EST 2015
User: Geneva
Spectrometer: USB4E03002
Autoset integration time: false
Trigger mode: 4
Integration Time (sec): 1.000000E-1
Scans to average: 10
Electric dark correction enabled: false
Nonlinearity correction enabled: false
Boxcar width: 5
Stray light correction enabled: false
XAxis mode: Wavelengths
Stop averaging: false
Number of Pixels in Spectrum: 3648
>>>>>Begin Spectral Data<<<<<
177.575	-146.53
177.794	-379.35
178.014	-496.63
178.233	-813.21
178.452	-853.33
178.672	-511.02
178.891	-1553.45
179.11	10670
179.33	2730.43
179.549	2668.63
179.768	-12427.27
179.987	970.45
180.207	458.61
180.426	812.33
180.645	977.6
180.864	6976.47
181.084	712.65
181.303	500.45
181.522	629.89
181.741	530.34
181.96	826.26
182.179	4252.94
182.398	-1005.19
182.618	-423.38
182.837	-341.43
183.056	-378.14
183.275	-293.33
183.494	-91
183.713	-104.96
183.932	-77.46
184.151	-73.41
184.37	-71.14
184.589	-112.83
184.808	-97.05
185.027	-93.86
185.246	-145.91
185.465	-138.1
185.684	-231.47
185.903	-426.21
186.122	-563.75
186.341	-1241.59
186.56	-867.26
186.779	-5533.33
186.998	-692.06
187.216	-664.44
187.435	-620
187.654	-549.09
187.873	-419.2
188.092	-556.41
188.311	-598.57
188.53	-377.72
188.748	-157.68
188.967	-163.3
189.186	-69.18
189.405	-217.18
189.623	-222.81
189.842	-239.39
190.061	-203.19
190.28	-114.44
190.498	-145.85
190.717	-123.29
190.936	-133.97
191.154	-351.1
191.373	-813.79
191.592	1725.58
191.81	628.16
192.029	613.68
192.248	240.2
192.466	379.56
192.685	185.05
192.904	419.8
193.122	294.87
193.341	360.5
193.559	518.64
193.778	576.24
193.996	546.45
194.215	1569.57
194.433	847.86
194.652	876.92
194.87	753.12
195.089	976.15
195.307	1789.47
195.526	-1074.49
195.744	-772.66
195.963	-805.33
196.181	-1047.93
196.399	-1522.99
196.618	1778.95
196.836	960.28
197.055	1013.51
197.273	1048.51
197.491	1106.31
197.71	580.16
197.928	478.81
198.146	456.16
198.365	2680.95
198.583	1600
198.801	-688.71
199.019	-213.66
199.238	-180.26
199.456	-157.88
199.674	-216.86
199.892	-179.02
200.111	-148.12
200.329	-151.08
200.547	-194.55
200.765	1570.59
200.983	-682.91
201.202	1096.05
201.42	324.29
201.638	240.45
201.856	373.08
202.074	480
202.292	330.36
202.51	283.48
202.728	365.23
202.946	3553.57
203.165	1821.15
203.383	379.06
203.601	520.81
203.819	1062.73
204.037	-3039.39
204.255	-3774.07
204.473	-753.15
204.691	-622.94
204.909	-482.3
205.127	-2187.5
205.345	567.27
205.562	-624.81
205.78	-113
205.998	-100.68
206.216	-60.77
206.434	-84.82
206.652	-109.79
206.87	-183.83
207.088	-124.76
207.306	-280.92
207.523	-211.76
207.741	-130.98
207.959	-242.34
208.177	-391.19
208.395	-413.24
208.612	-422.22
208.83	-269.97
209.048	-288.34
209.266	-288.4
209.483	-176.03
209.701	-152.49
209.919	-162
210.136	-218.31
210.354	-240.55
210.572	-263.66
210.79	-312.33
211.007	-647.89
211.225	-7460
211.442	1708.47
211.66	4060
211.878	415.28
212.095	1151.31
212.313	1799.15
212.53	984.83
212.748	802.79
212.966	605.22
213.183	789.88
213.401	-10872.22
213.618	-708.73
213.836	-579.86
214.053	-789.91
214.271	-549.68
214.488	-357.14
214.705	-327.62
214.923	-228.19
215.14	-160.71
215.358	-125.59
215.575	-102.25
215.793	-153.31
216.01	-449.76
216.227	-910.34
216.445	-711.81
216.662	-366.38
216.879	-342.17
217.097	-246.8
217.314	-368.48
217.531	12512.5
217.749	1100
217.966	618.68
218.183	396.54
218.4	648.39
218.618	624.34
218.835	380.32
219.052	368.75
219.269	386.87
219.487	180.72
219.704	182.64
219.921	215.37
220.138	251.03
220.355	234.22
220.572	242.68
220.79	207.39
221.007	286.49
221.224	423.95
221.441	440.15
221.658	461.54
221.875	-2422.86
222.092	-992.05
222.309	2603.03
222.526	556.36
222.743	503.38
222.96	643.88
223.177	2167.44
223.394	1273.68
223.611	717.48
223.828	452.4
224.045	343.97
224.262	271.79
224.479	283.33
224.696	537.98
224.913	850.41
225.13	830.19
225.347	543.45
225.564	275.16
225.781	153.01
225.997	130.33
226.214	112.34
226.431	104.13
226.648	78.26
226.865	56.55
227.082	48.25
227.298	54.49
227.515	44.07
227.732	47.9
227.949	48.19
228.165	52.54
228.382	51.72
228.599	48.53
228.816	48.91
229.032	53.86
229.249	62.72
229.466	61.69
229.682	59.74
229.899	66.54
230.116	71.52
230.332	68.06
230.549	67.62
230.765	68.63
230.982	64.3
231.199	74.91
231.415	83.69
231.632	91.7
231.848	98.09
232.065	90.95
232.281	87.41
232.498	89.47
232.714	86.38
232.931	87.63
233.147	89.48
233.364	97.34
233.58	91.99
233.797	90.3
234.013	83.76
234.23	101.02
234.446	114.62
234.662	130.87
234.879	169.65
235.095	163.21
235.312	130.82
235.528	138.94
235.744	149.61
235.961	180.81
236.177	120.21
236.393	159.09
236.61	112.24
236.826	87.87
237.042	77.84
237.258	91.11
237.475	101.76
237.691	129.81
237.907	83.41
238.123	78.85
238.339	79.3
238.556	88.91
238.772	72.12
238.988	62.26
239.204	56.02
239.42	60.58
239.636	46.26
239.853	37.71
240.069	38.73
240.285	38.71
240.501	39.3
240.717	34.71
240.933	36.14
241.149	32.74
241.365	34.53
241.581	36.82
241.797	32.98
242.013	36.9
242.229	38.73
242.445	33.85
242.661	34.8
242.877	34.81
243.093	39.3
243.309	35.38
243.525	35.71
243.741	38.45
243.957	37.64
244.173	35.78
244.388	33.05
244.604	31.3
244.82	33.68
245.036	32.57
245.252	29.69
245.468	26.16
245.683	26.69
245.899	25.29
246.115	22.67
246.331	21.67
246.547	22.92
246.762	22.93
246.978	21.12
247.194	22.46
247.409	18.85
247.625	18.85
247.841	20.06
248.057	20.35
248.272	20.86
248.488	20.99
248.703	20.2
248.919	21.83
249.135	23.56
249.35	30.15
249.566	26.78
249.782	32.82
249.997	34.14
250.213	35.87
250.428	34.76
250.644	37.48
250.859	36.18
251.075	31.36
251.29	28.84
251.506	25.27
251.721	24.91
251.937	21.66
252.152	20.39
252.368	16.64
252.583	11.74
252.798	12.62
253.014	11.65
253.229	15.62
253.445	23.56
253.66	27.27
253.875	27.06
254.091	28.24
254.306	35.22
254.521	28.54
254.737	28.66
254.952	34.27
255.167	29.63
255.383	24.21
255.598	21
255.813	21.65
256.028	15.63
256.244	15.57
256.459	16.45
256.674	19.82
256.889	25.29
257.104	23.69
257.32	21.99
257.535	21.13
257.75	22.56
257.965	20.5
258.18	17.55
258.395	16.34
258.61	15.31
258.826	12.1
259.041	9.83
259.256	7.2
259.471	7.59
259.686	8.3
259.901	7.48
260.116	6.51
260.331	6.39
260.546	8.5
260.761	10.79
260.976	13.6
261.191	16.47
261.406	18.93
261.621	20.19
261.836	21.57
262.05	20.68
262.265	23.35
262.48	23.17
262.695	24.21
262.91	24.13
263.125	22.31
263.34	16.58
263.555	13.3
263.769	11.9
263.984	10.3
264.199	14.27
264.414	13.15
264.629	11.02
264.843	14.75
265.058	14.17
265.273	8.94
265.488	10.71
265.702	13.97
265.917	14.67
266.132	15.06
266.346	16.25
266.561	16.23
266.776	14.86
266.99	15.55
267.205	15.52
267.42	13.86
267.634	14.94
267.849	13.72
268.063	12.35
268.278	12.54
268.492	11.1
268.707	13.93
268.922	12.77
269.136	15.73
269.351	15.48
269.565	15.55
269.78	17.55
269.994	22.03
270.209	18.8
270.423	18.47
270.637	16.75
270.852	17.37
271.066	16.71
271.281	16.56
271.495	15.65
271.709	16.41
271.924	15.96
272.138	13.95
272.353	13.47
272.567	15.82
272.781	15.31
272.996	15.1
273.21	14.98
273.424	14.18
273.638	15.2
273.853	16.18
274.067	17.4
274.281	16.74
274.495	19.76
274.71	20.4
274.924	22.55
275.138	24.95
275.352	25.57
275.566	27.66
275.781	26.28
275.995	26.22
276.209	23.78
276.423	19.77
276.637	18.4
276.851	18.53
277.065	14.97
277.279	11.82
277.493	10.17
277.707	11.28
277.921	9.66
278.135	13.52
278.349	11.62
278.563	13.48
278.777	13.75
278.991	16.6
279.205	18.71
279.419	16.54
279.633	17.05
279.847	17.41
280.061	17.03
280.275	18.04
280.489	15.18
280.703	14.09
280.917	15.52
281.131	16.1
281.344	15.52
281.558	11.84
281.772	13.44
281.986	14.21
282.2	13.53
282.414	14.82
282.627	11.93
282.841	13.86
283.055	13.33
283.269	12.06
283.482	12.65
283.696	12.97
283.91	12.94
284.123	12.57
284.337	12.85
284.551	12.93
284.764	11.7
284.978	12.02
285.192	11.56
285.405	13.27
285.619	13.67
285.833	14.48
286.046	14.1
286.26	14.32
286.473	15.76
286.687	14.95
286.9	15.87
287.114	16.25
287.327	17.45
287.541	16.89
287.754	15.14
287.968	16.42
288.181	14.82
288.395	13.32
288.608	13.9
288.822	12.96
289.035	13.11
289.248	12.27
289.462	12.61
289.675	12.81
289.889	13.95
290.102	15.15
290.315	12.53
290.529	14.27
290.742	13.86
290.955	14.16
291.169	14.37
291.382	14.49
291.595	13.97
291.808	15.17
292.022	15.02
292.235	15.97
292.448	15.67
292.661	17.51
292.875	18.08
293.088	19.73
293.301	19.68
293.514	19.13
293.727	17.85
293.94	16.67
294.153	15.46
294.367	17.18
294.58	14.3
294.793	12.09
295.006	12.23
295.219	9.81
295.432	8.12
295.645	9.06
295.858	9.78
296.071	10.25
296.284	10.48
296.497	10.7
296.71	9.74
296.923	10.44
297.136	11.61
297.349	11.22
297.562	12.04
297.775	11.82
297.988	10.52
298.201	11.01
298.414	12.66
298.626	11.7
298.839	10.55
299.052	9.74
299.265	9.7
299.478	10.72
299.691	9.36
299.903	8.35
300.116	8.88
300.329	7.62
300.542	7.87
300.755	6.23
300.967	8.46
301.18	9.56
301.393	10.04
301.605	9.75
301.818	8.66
302.031	9.81
302.243	10.51
302.456	11.33
302.669	12.65
302.881	11.22
303.094	13.28
303.307	12.27
303.519	13.48
303.732	13.41
303.944	14.12
304.157	16.74
304.37	16.9
304.582	17.92
304.795	20
305.007	20.3
305.22	20.34
305.432	18.97
305.645	19.68
305.857	18.14
306.069	18.48
306.282	18.45
306.494	15.97
306.707	15.98
306.919	14.41
307.132	13.52
307.344	12.66
307.556	13.1
307.769	11.4
307.981	11.92
308.193	12.44
308.406	11.26
308.618	10.3
308.83	10.97
309.043	9.89
309.255	11.44
309.467	11.42
309.679	11.68
309.892	11.42
310.104	12.33
310.316	13.72
310.528	13.13
310.74	13.85
310.953	13.99
311.165	13.89
311.377	14.62
311.589	14.55
311.801	13.41
312.013	14.58
312.225	14.4
312.437	14.97
312.649	13.23
312.862	14.13
313.074	13.69
313.286	14.53
313.498	13.92
313.71	14.79
313.922	13.22
314.134	14.34
314.346	13.79
314.558	14.58
314.77	14.32
314.982	14.23
315.193	13.96
315.405	14.94
315.617	15.11
315.829	16.97
316.041	17.03
316.253	15.85
316.465	16.75
316.677	16.09
316.888	16.98
317.1	16.95
317.312	18.17
317.524	20.31
317.736	20.87
317.947	20.55
318.159	19.18
318.371	19.7
318.583	21.04
318.794	22.12
319.006	22.91
319.218	21.16
319.43	22.07
319.641	23.31
319.853	22.55
320.064	21.13
320.276	23.01
320.488	23.03
320.699	23.15
320.911	24.61
321.123	22.74
321.334	22.67
321.546	23.41
321.757	24.62
321.969	24.29
322.18	24.08
322.392	22.62
322.603	21.11
322.815	19.8
323.026	19.13
323.238	18.08
323.449	18.15
323.661	17.28
323.872	16.96
324.083	13.83
324.295	13.05
324.506	12.55
324.718	14.35
324.929	14.7
325.14	17.07
325.352	17.7
325.563	18.49
325.774	17.76
325.986	19.09
326.197	18.59
326.408	20.59
326.62	19.95
326.831	19.98
327.042	20.64
327.253	20.02
327.464	19.85
327.676	19.17
327.887	18.83
328.098	19.96
328.309	18.88
328.52	21
328.732	20.71
328.943	21.78
329.154	21.78
329.365	22.27
329.576	23.18
329.787	24.08
329.998	24.94
330.209	26.58
330.42	27.63
330.631	28.81
330.842	28.12
331.053	26.69
331.264	27.09
331.475	27.16
331.686	27.92
331.897	26.55
332.108	25.76
332.319	24.9
332.53	22.64
332.741	21.45
332.952	21.69
333.163	22.27
333.374	23.8
333.585	23.37
333.795	24.75
334.006	22.62
334.217	23.8
334.428	23.18
334.639	23.72
334.849	24.33
335.06	24.35
335.271	24.34
335.482	22.68
335.692	22.91
335.903	22.31
336.114	20.94
336.325	22.03
336.535	22.14
336.746	22.03
336.957	20.31
337.167	19.48
337.378	19.91
337.589	20.51
337.799	20.05
338.01	20.22
338.22	20.8
338.431	19.45
338.642	19.32
338.852	18.08
339.063	17.53
339.273	19.77
339.484	21.45
339.694	20.71
339.905	18.49
340.115	19
340.326	17.64
340.536	17.25
340.746	17.92
340.957	17.71
341.167	18.95
341.378	19.73
341.588	19.07
341.799	18.09
342.009	18.21
342.219	19.15
342.43	20.49
342.64	20.03
342.85	19.44
343.061	20.79
343.271	19.64
343.481	17.85
343.691	17.95
343.902	17.79
344.112	18.52
344.322	18.01
344.532	17.89
344.743	17.97
344.953	18.62
345.163	19.06
345.373	17.84
345.583	19.05
345.793	21.25
346.004	21.87
346.214	22.4
346.424	21.8
346.634	22.55
346.844	23.04
347.054	21.74
347.264	20.88
347.474	20.2
347.684	20.46
347.894	19.79
348.104	18.7
348.314	18.02
348.524	16.53
348.734	16.21
348.944	15.25
349.154	14.54
349.364	14.98
349.574	15.93
349.784	16.64
349.994	16.81
350.204	17.03
350.413	16.45
350.623	16.8
350.833	18.51
351.043	19.41
351.253	20.75
351.463	20.65
351.672	20.69
351.882	19.78
352.092	20.24
352.302	21.55
352.511	21.59
352.721	21.45
352.931	20.44
353.141	19.7
353.35	18.67
353.56	18.14
353.77	18.37
353.979	18.49
354.189	18.63
354.399	17.66
354.608	16.38
354.818	16.29
355.027	17.95
355.237	18.09
355.447	18.76
355.656	19.09
355.866	17.78
356.075	17.68
356.285	17.91
356.494	18.81
356.704	19.27
356.913	19.22
357.123	18.43
357.332	17.62
357.542	17.59
357.751	16.99
357.96	16.32
358.17	16.85
358.379	17.15
358.589	16.37
358.798	16.64
359.007	17.31
359.217	17.39
359.426	17.13
359.635	17.31
359.845	17.5
360.054	16.99
360.263	17.65
360.472	17.94
360.682	18.11
360.891	18.49
361.1	17.34
361.309	17.63
361.519	17.4
361.728	18.03
361.937	17.88
362.146	17.61
362.355	17.96
362.564	17.26
362.774	16.52
362.983	16.17
363.192	16.4
363.401	17.26
363.61	16.32
363.819	16.09
364.028	16.23
364.237	16.09
364.446	17.27
364.655	16.22
364.864	16.9
365.073	17.98
365.282	17.12
365.491	16.38
365.7	17.22
365.909	16.57
366.118	17.06
366.327	16.63
366.536	15.45
366.745	14.47
366.954	15.88
367.162	16.11
367.371	15.67
367.58	16.65
367.789	17.44
367.998	16.17
368.207	15.71
368.415	16.18
368.624	15.96
368.833	15.89
369.042	15.87
369.25	15.29
369.459	15.37
369.668	15.11
369.877	14.86
370.085	14.38
370.294	14.98
370.503	16.02
370.711	15.89
370.92	16.39
371.129	17.69
371.337	16.67
371.546	16.39
371.754	15.08
371.963	15.72
372.171	15.22
372.38	15.31
372.589	15.46
372.797	14.7
373.006	14.42
373.214	13.98
373.423	13.51
373.631	14.55
373.84	14.06
374.048	15.3
374.256	14.93
374.465	16.35
374.673	17.17
374.882	15.5
375.09	15.87
375.298	16.19
375.507	15.63
375.715	15.38
375.923	15.49
376.132	15.99
376.34	14.49
376.548	14.8
376.757	14.17
376.965	12.91
377.173	14.35
377.381	14.57
377.59	13.02
377.798	14.48
378.006	14.25
378.214	14.27
378.423	13.68
378.631	14.62
378.839	14.13
379.047	14.71
379.255	16.14
379.463	15.38
379.671	15.43
379.879	16.56
380.088	15.68
380.296	16.35
380.504	15.99
380.712	16.23
380.92	16.02
381.128	16.81
381.336	16.01
381.544	14.64
381.752	14.12
381.96	13.71
382.168	13.1
382.376	14.05
382.584	13.16
382.791	13.21
382.999	13.3
383.207	13.16
383.415	12.75
383.623	12.76
383.831	13.13
384.039	13.7
384.247	13.96
384.454	14.33
384.662	13.5
384.87	14.66
385.078	14.77
385.285	14.9
385.493	15.43
385.701	15.69
385.909	15.72
386.116	15.89
386.324	15.64
386.532	14.82
386.739	15.42
386.947	15.01
387.155	14.61
387.362	14.34
387.57	14.01
387.778	12.99
387.985	11.16
388.193	10.68
388.4	10.49
388.608	10.58
388.816	11.34
389.023	10.93
389.231	11.89
389.438	11.59
389.646	12.19
389.853	12.69
390.061	13.29
390.268	14.21
390.475	14.49
390.683	14.07
390.89	14.49
391.098	14.32
391.305	13.52
391.512	13.51
391.72	13.63
391.927	13.43
392.135	13.06
392.342	12.64
392.549	12.36
392.756	12.19
392.964	11.86
393.171	12.17
393.378	11.73
393.586	12.14
393.793	11.67
394	11.37
394.207	10.73
394.414	11.15
394.622	11.9
394.829	12.32
395.036	12.48
395.243	12.42
395.45	11.63
395.657	11.57
395.864	11.72
396.072	12.04
396.279	12.39
396.486	12.57
396.693	12.44
396.9	11.91
397.107	12.2
397.314	11.78
397.521	12.63
397.728	12.94
397.935	13.42
398.142	13.08
398.349	12.26
398.556	12.6
398.763	13.06
398.97	13.74
399.177	13.56
399.383	13.36
399.59	14.03
399.797	14.11
400.004	13.88
400.211	13.66
400.418	13.94
400.625	14.38
400.831	14.01
401.038	13.35
401.245	12.18
401.452	12.36
401.658	12.27
401.865	11.85
402.072	10.88
402.279	10.51
402.485	10.72
402.692	10.94
402.899	9.95
403.105	9.36
403.312	9.66
403.519	10.06
403.725	9.98
403.932	9.72
404.138	9.9
404.345	10.33
404.552	10.44
404.758	10.31
404.965	10.12
405.171	10.71
405.378	11.86
405.584	11.6
405.791	11.28
405.997	11.53
406.204	11.54
406.41	11.36
406.617	11.42
406.823	10.97
407.029	10.49
407.236	10.69
407.442	10.75
407.649	10.17
407.855	10.19
408.061	10.04
408.268	9.89
408.474	9.77
408.68	9.55
408.887	10.11
409.093	11.15
409.299	11.23
409.505	10.58
409.712	10.73
409.918	10.25
410.124	9.84
410.33	10.39
410.537	10.5
410.743	10.16
410.949	11.07
411.155	10.46
411.361	9.59
411.567	9.29
411.773	10.08
411.98	10.23
412.186	10.92
412.392	11.11
412.598	10.47
412.804	9.89
413.01	10.7
413.216	10.78
413.422	10.17
413.628	10.76
413.834	10.86
414.04	10.23
414.246	10.36
414.452	9.77
414.658	9.48
414.864	10.4
415.07	10.56
415.275	9.84
415.481	8.88
415.687	9.51
415.893	9.42
416.099	10.1
416.305	10.14
416.511	9.95
416.716	9.88
416.922	10.37
417.128	9.8
417.334	9.76
417.539	10.07
417.745	10.56
417.951	10.35
418.157	10.6
418.362	10.29
418.568	10.19
418.774	9.69
418.979	9.71
419.185	9.8
419.391	9.73
419.596	9.88
419.802	9.81
420.008	9.31
420.213	6.66
420.419	6.44
420.624	6.39
420.83	6.41
421.035	6.65
421.241	6.65
421.446	6.42
421.652	6.61
421.857	6.59
422.063	6.57
422.268	6.83
422.474	9.24
422.679	9
422.885	8.88
423.09	8.91
423.295	8.88
423.501	9.01
423.706	9.03
423.911	8.88
424.117	8.83
424.322	8.83
424.527	8.68
424.733	8.87
424.938	9.09
425.143	9.15
425.349	8.65
425.554	8.6
425.759	8.38
425.964	8.14
426.169	8.07
426.375	8.13
426.58	8.46
426.785	8.47
426.99	8.28
427.195	8.15
427.4	8.2
427.605	9.25
427.811	9.5
428.016	9.7
428.221	9.83
428.426	10.1
428.631	10.02
428.836	9.39
429.041	9.53
429.246	9.4
429.451	9.48
429.656	9.63
429.861	9.23
430.066	9.2
430.271	9.52
430.476	9.72
430.681	9.17
430.886	9.27
431.09	9.44
431.295	9.22
431.5	9.84
431.705	9.82
431.91	9.89
432.115	9.64
432.32	9.24
432.524	8.76
432.729	8.69
432.934	9.04
433.139	8.86
433.343	8.8
433.548	8.94
433.753	8.24
433.958	8.36
434.162	8.39
434.367	8.8
434.572	8.66
434.776	8.78
434.981	9.12
435.186	9.15
435.39	9.27
435.595	9.25
435.799	9.19
436.004	9.38
436.209	9.4
436.413	9.29
436.618	8.74
436.822	9.21
437.027	9.19
437.231	8.92
437.436	8.83
437.64	8.82
437.845	9.03
438.049	8.8
438.253	8.6
438.458	8.47
438.662	8.65
438.867	8.56
439.071	8.78
439.275	8.9
439.48	8.81
439.684	9.16
439.888	9.14
440.093	9.08
440.297	9.42
440.501	9.7
440.706	10.26
440.91	9.91
441.114	10.31
441.318	10.34
441.523	10.07
441.727	9.95
441.931	9.83
442.135	9.75
442.339	9.59
442.543	9.49
442.748	9.71
442.952	8.95
443.156	8.6
443.36	8.47
443.564	8.35
443.768	8.83
443.972	9.37
444.176	9
444.38	8.99
444.584	8.89
444.788	8.68
444.992	8.39
445.196	8.39
445.4	8.66
445.604	8.44
445.808	8.09
446.012	7.74
446.216	7.38
446.42	7.17
446.624	7.21
446.828	7.4
447.032	7.42
447.235	7.53
447.439	7.39
447.643	7.49
447.847	7.6
448.051	7.89
448.254	7.77
448.458	7.71
448.662	7.94
448.866	7.84
449.069	7.98
449.273	7.88
449.477	7.86
449.681	7.96
449.884	8.19
450.088	8.14
450.292	8.1
450.495	8.31
450.699	8.6
450.902	8.73
451.106	8.79
451.31	8.64
451.513	9.05
451.717	8.91
451.92	9.1
452.124	9.42
452.327	9.72
452.531	9.79
452.734	9.73
452.938	9.23
453.141	9.2
453.345	9.27
453.548	9.05
453.752	9.03
453.955	9.02
454.158	8.93
454.362	8.21
454.565	7.84
454.769	8.19
454.972	8.61
455.175	9.32
455.379	9.58
455.582	9.66
455.785	9.78
455.988	9.67
456.192	9.63
456.395	9.49
456.598	9.9
456.801	10.31
457.005	9.5
457.208	8.92
457.411	8.16
457.614	7.8
457.817	7.85
458.021	7.71
458.224	7.66
458.427	7.41
458.63	7.31
458.833	7.32
459.036	7.28
459.239	7.6
459.442	7.64
459.645	7.91
459.848	8.12
460.051	8.01
460.254	8.43
460.457	8.58
460.66	9.17
460.863	9.4
461.066	9.29
461.269	8.98
461.472	8.91
461.675	9.18
461.878	9.51
462.081	9.65
462.284	9.65
462.486	9.28
462.689	8.85
462.892	8.55
463.095	8.75
463.298	8.61
463.5	9.2
463.703	9.41
463.906	9.49
464.109	9.21
464.311	8.98
464.514	9.18
464.717	9.22
464.92	9.46
465.122	9.66
465.325	9.45
465.528	9.2
465.73	9.1
465.933	8.96
466.135	8.93
466.338	9
466.541	8.88
466.743	8.64
466.946	8.35
467.148	8.35
467.351	8.13
467.553	7.98
467.756	8.31
467.958	8.33
468.161	8.56
468.363	8.66
468.566	8.53
468.768	8.67
468.971	8.96
469.173	9.8
469.375	9.8
469.578	9.49
469.78	9.79
469.983	9.66
470.185	9.47
470.387	9.42
470.59	8.87
470.792	9.02
470.994	8.78
471.196	8.44
471.399	7.67
471.601	7.85
471.803	8.35
472.005	8.37
472.208	8.9
472.41	8.68
472.612	8.48
472.814	8.87
473.016	8.36
473.218	8.41
473.421	8.37
473.623	8.33
473.825	8.18
474.027	8.58
474.229	8.92
474.431	8.03
474.633	7.88
474.835	7.38
475.037	7.24
475.239	7.78
475.441	8.05
475.643	8.27
475.845	8.26
476.047	8.45
476.249	7.66
476.451	6.92
476.653	7.22
476.855	7.55
477.057	8.03
477.258	7.76
477.46	7.73
477.662	7.84
477.864	7.85
478.066	8.13
478.268	8.15
478.469	8.79
478.671	8.93
478.873	8.89
479.075	8.62
479.276	8.55
479.478	8.5
479.68	8.4
479.882	8.15
480.083	8.26
480.285	7.94
480.487	7.94
480.688	7.7
480.89	7.81
481.091	7.88
481.293	8.09
481.495	7.97
481.696	7.91
481.898	7.79
482.099	7.79
482.301	7.58
482.502	7.68
482.704	7.58
482.905	7.57
483.107	7.51
483.308	7.47
483.51	7.44
483.711	7.46
483.913	7.58
484.114	7.55
484.315	7.49
484.517	7.59
484.718	7.53
484.92	7.56
485.121	7.55
485.322	7.67
485.524	7.71
485.725	7.65
485.926	7.78
486.127	7.81
486.329	7.91
486.53	7.88
486.731	7.71
486.932	7.67
487.134	7.67
487.335	7.58
487.536	7.59
487.737	7.59
487.938	7.67
488.139	7.6
488.341	7.43
488.542	7.47
488.743	7.62
488.944	7.79
489.145	7.86
489.346	7.94
489.547	7.96
489.748	7.96
489.949	8.04
490.15	7.98
490.351	7.87
490.552	7.94
490.753	7.9
490.954	7.83
491.155	7.86
491.356	7.83
491.557	7.78
491.758	8.03
491.959	8.02
492.159	8.05
492.36	8.07
492.561	8.27
492.762	8.37
492.963	8.41
493.164	8.57
493.364	8.6
493.565	8.65
493.766	8.71
493.967	8.54
494.167	8.43
494.368	8.2
494.569	8.19
494.769	8.15
494.97	8.18
495.171	8.44
495.371	8.28
495.572	8.35
495.773	8.48
495.973	8.5
496.174	8.45
496.375	8.6
496.575	8.65
496.776	8.7
496.976	8.35
497.177	8.29
497.377	8.18
497.578	8.19
497.778	8.1
497.979	8.26
498.179	8.23
498.38	8.37
498.58	8.19
498.78	8.23
498.981	8.37
499.181	8.5
499.382	8.76
499.582	8.52
499.782	8.85
499.983	9.14
500.183	9.14
500.383	8.95
500.584	8.74
500.784	8.88
500.984	8.9
501.184	8.83
501.385	9.15
501.585	9.08
501.785	9.31
501.985	8.91
502.185	8.89
502.386	8.73
502.586	9.1
502.786	9.45
502.986	9.12
503.186	9.2
503.386	9.22
503.586	9.19
503.786	9.18
503.987	9.15
504.187	9.43
504.387	9.33
504.587	9.24
504.787	9.06
504.987	8.79
505.187	9.16
505.387	9.16
505.587	8.95
505.786	9.03
505.986	9.38
506.186	9.44
506.386	9.61
506.586	9.78
506.786	9.88
506.986	10.06
507.186	10.21
507.386	10.33
507.585	10.63
507.785	10.72
507.985	10.76
508.185	10.64
508.384	11
508.584	10.96
508.784	11.09
508.984	11.39
509.183	11.4
509.383	11.35
509.583	11.51
509.782	11.19
509.982	11.82
510.182	11.98
510.381	11.72
510.581	11.42
510.781	11.36
510.98	11.21
511.18	11.25
511.379	11.3
511.579	11.22
511.778	11.24
511.978	11.37
512.177	10.92
512.377	10.87
512.576	11
512.776	10.9
512.975	11
513.175	11.28
513.374	11.25
513.573	11.47
513.773	11.78
513.972	11.79
514.172	12.09
514.371	12.33
514.57	12.39
514.77	12.53
514.969	12.43
515.168	12.81
515.367	12.87
515.567	12.66
515.766	12.72
515.965	12.69
516.164	12.87
516.364	12.5
516.563	12.66
516.762	12.98
516.961	12.92
517.16	13.29
517.359	13.04
517.559	12.76
517.758	12.78
517.957	12.59
518.156	12.79
518.355	12.73
518.554	12.95
518.753	12.66
518.952	12.36
519.151	12.32
519.35	12.44
519.549	12.53
519.748	12.63
519.947	12.72
520.146	12.87
520.345	12.88
520.544	12.48
520.743	12.46
520.942	12.61
521.141	12.81
521.339	13.15
521.538	13.35
521.737	13.29
521.936	13.5
522.135	13.79
522.333	13.92
522.532	13.96
522.731	14.36
522.93	14.49
523.129	14.68
523.327	15.01
523.526	15.04
523.725	14.74
523.923	14.78
524.122	14.77
524.321	14.58
524.519	14.57
524.718	14.58
524.917	14.7
525.115	14.59
525.314	14.55
525.512	14.44
525.711	14.44
525.909	14.43
526.108	14.54
526.306	14.57
526.505	14.58
526.703	14.48
526.902	14.38
527.1	14.31
527.299	14.41
527.497	14.44
527.696	14.38
527.894	14.39
528.092	14.46
528.291	14.44
528.489	14.56
528.688	14.6
528.886	14.76
529.084	14.87
529.283	14.95
529.481	14.98
529.679	15.14
529.877	15.28
530.076	15.35
530.274	15.66
530.472	15.77
530.67	15.8
530.869	15.93
531.067	15.87
531.265	15.94
531.463	16.06
531.661	16.28
531.859	16.3
532.057	16.35
532.255	16.54
532.454	16.33
532.652	16.28
532.85	16.11
533.048	16.16
533.246	16.46
533.444	16.5
533.642	16.49
533.84	16.61
534.038	16.74
534.236	16.7
534.434	16.74
534.632	17.05
534.83	17.24
535.027	17.42
535.225	17.64
535.423	17.58
535.621	17.72
535.819	17.77
536.017	17.74
536.215	17.7
536.412	17.95
536.61	17.82
536.808	17.87
537.006	17.88
537.203	18.13
537.401	18.07
537.599	17.97
537.797	18.12
537.994	18.26
538.192	18.49
538.39	18.5
538.587	18.36
538.785	18.41
538.983	18.37
539.18	18.6
539.378	18.57
539.575	18.63
539.773	18.57
539.97	18.49
540.168	18.43
540.366	18.19
540.563	18.2
540.761	18.2
540.958	18.19
541.155	18.3
541.353	18.34
541.55	18.38
541.748	18.44
541.945	18.62
542.143	18.55
542.34	18.6
542.537	18.82
542.735	18.94
542.932	19.14
543.129	19.43
543.327	19.07
543.524	18.84
543.721	18.71
543.919	18.5
544.116	18.43
544.313	18.98
544.51	19.02
544.708	19.19
544.905	19.09
545.102	18.9
545.299	18.99
545.496	19.16
545.693	19.25
545.891	19.19
546.088	19.09
546.285	19.15
546.482	18.88
546.679	19.03
546.876	18.93
547.073	19.23
547.27	19.25
547.467	19.03
547.664	19.16
547.861	19.52
548.058	19.65
548.255	20.12
548.452	20.25
548.649	20.28
548.846	20.57
549.043	20.43
549.24	20.32
549.437	20.41
549.633	20.39
549.83	20.63
550.027	20.47
550.224	20.9
550.421	20.93
550.618	20.94
550.814	20.89
551.011	20.64
551.208	20.9
551.405	21.02
551.601	20.98
551.798	20.99
551.995	20.65
552.191	20.56
552.388	20.5
552.585	20.73
552.781	20.62
552.978	20.89
553.175	21.15
553.371	21.16
553.568	21.09
553.764	21.32
553.961	21.58
554.157	21.95
554.354	21.99
554.55	22.33
554.747	22.48
554.943	23.07
555.14	23
555.336	22.87
555.533	22.58
555.729	22.61
555.926	22.51
556.122	22.47
556.318	22.47
556.515	22.86
556.711	22.69
556.907	22.4
557.104	22.3
557.3	22.32
557.496	22.05
557.693	22.34
557.889	22.18
558.085	22.37
558.281	22.57
558.478	22.55
558.674	22.36
558.87	22.13
559.066	22.2
559.262	22.04
559.459	21.8
559.655	22.17
559.851	22.15
560.047	22.65
560.243	22.56
560.439	22.46
560.635	22.81
560.831	23.2
561.027	23.32
561.223	23.64
561.419	23.46
561.615	23.75
561.811	23.52
562.007	23.66
562.203	23.24
562.399	23.46
562.595	23.42
562.791	23.49
562.987	23.16
563.183	22.85
563.379	22.46
563.575	22.69
563.771	22.96
563.966	23.01
564.162	23.24
564.358	23.4
564.554	23.18
564.75	23.02
564.945	22.68
565.141	23.1
565.337	23.12
565.533	23.05
565.728	22.62
565.924	22.37
566.12	22.58
566.315	22.3
566.511	21.9
566.707	22.31
566.902	22.43
567.098	22.58
567.293	21.95
567.489	22.28
567.684	22.41
567.88	22.92
568.076	23.06
568.271	23.14
568.467	22.95
568.662	22.95
568.858	23.06
569.053	22.97
569.248	22.81
569.444	23.24
569.639	23.53
569.835	23.85
570.03	23.53
570.225	23.65
570.421	23.54
570.616	24.09
570.812	24.48
571.007	24.56
571.202	24.73
571.397	24.59
571.593	24.02
571.788	23.88
571.983	23.46
572.178	23.92
572.374	23.34
572.569	23.01
572.764	22.96
572.959	23.01
573.154	22.29
573.35	22.54
573.545	22.81
573.74	23.26
573.935	23.31
574.13	23.47
574.325	22.84
574.52	23.37
574.715	23.61
574.91	23.49
575.105	23.68
575.3	24.32
575.495	23.97
575.69	24.06
575.885	24.23
576.08	23.68
576.275	23.94
576.47	24.75
576.665	24.66
576.86	24.58
577.055	24.45
577.25	24.05
577.444	23.61
577.639	23.7
577.834	24.01
578.029	24.18
578.224	24.5
578.418	24.34
578.613	24.02
578.808	24.41
579.003	24.32
579.197	24.53
579.392	24.91
579.587	25.38
579.781	25.62
579.976	25.03
580.171	24.77
580.365	24.47
580.56	24.5
580.755	24.55
580.949	23.87
581.144	24.09
581.338	23.69
581.533	23.25
581.727	23.03
581.922	22.65
582.116	22.54
582.311	22.52
582.505	23.22
582.7	23.02
582.894	23.14
583.089	23.25
583.283	23.83
583.478	24.79
583.672	25.08
583.866	25.19
584.061	25.5
584.255	26
584.449	25.88
584.644	26.03
584.838	26.28
585.032	26.21
585.226	26.46
585.421	26.25
585.615	25.8
585.809	25.29
586.003	25.22
586.198	25.52
586.392	25.22
586.586	25.78
586.78	25.35
586.974	25.53
587.168	25.58
587.363	26
587.557	25.63
587.751	24.98
587.945	25.78
588.139	25.6
588.333	25.33
588.527	25.67
588.721	25.07
588.915	24.79
589.109	24.73
589.303	24.9
589.497	24.54
589.691	24.87
589.885	25.01
590.079	24.72
590.273	24.61
590.466	24.73
590.66	24.5
590.854	24.59
591.048	25.18
591.242	25.23
591.436	24.97
591.629	24.98
591.823	25.09
592.017	25.32
592.211	25.79
592.404	26.4
592.598	25.66
592.792	25.73
592.986	25.34
593.179	25.16
593.373	25.27
593.567	25.41
593.76	25.65
593.954	25.56
594.147	25.48
594.341	25.08
594.535	25.12
594.728	25.51
594.922	25.63
595.115	25.87
595.309	25.94
595.502	26.12
595.696	25.92
595.889	25.47
596.083	25.32
596.276	25.58
596.47	25.67
596.663	25.69
596.856	25.84
597.05	26.03
597.243	26.09
597.437	26.21
597.63	25.64
597.823	25.47
598.017	25.98
598.21	25.55
598.403	25.14
598.596	24.93
598.79	24.87
598.983	24.7
599.176	23.98
599.369	24.16
599.563	24.01
599.756	24.09
599.949	24.88
600.142	24.82
600.335	25.4
600.528	25.75
600.722	25.9
600.915	26
601.108	26.04
601.301	26.72
601.494	27.04
601.687	27.07
601.88	26.97
602.073	26.36
602.266	26.48
602.459	26.56
602.652	26.42
602.845	26.47
603.038	26.22
603.231	26.45
603.424	26.13
603.617	25.77
603.809	25.78
604.002	26.19
604.195	26.38
604.388	26.18
604.581	26.28
604.774	26.88
604.966	26.86
605.159	26.68
605.352	26.36
605.545	26.7
605.737	27.05
605.93	27.4
606.123	27.06
606.316	27.7
606.508	27.6
606.701	27.31
606.894	26.41
607.086	26.6
607.279	26.76
607.471	27.28
607.664	27.1
607.857	27.14
608.049	26.85
608.242	26.82
608.434	26.46
608.627	27.37
608.819	27.57
609.012	27.5
609.204	27.37
609.397	27.84
609.589	27.12
609.782	27.04
609.974	26.83
610.166	26.9
610.359	26.82
610.551	27.01
610.743	26.45
610.936	26.61
611.128	27.37
611.32	27.88
611.513	27.71
611.705	28.5
611.897	28.9
612.09	28.99
612.282	29.55
612.474	30.12
612.666	30.37
612.858	30.3
613.051	29.96
613.243	29.34
613.435	29.36
613.627	29.32
613.819	29.54
614.011	28.9
614.203	29.24
614.395	28.89
614.588	29.21
614.78	29.29
614.972	29.57
615.164	30.51
615.356	30.9
615.548	30.38
615.74	30.46
615.932	30.13
616.124	31.24
616.315	30.96
616.507	30.89
616.699	31.17
616.891	30.73
617.083	30.31
617.275	30.41
617.467	30.41
617.659	30.66
617.85	30.58
618.042	31.26
618.234	30.32
618.426	29.99
618.618	29.7
618.809	28.99
619.001	29.66
619.193	30.61
619.384	29.89
619.576	29.69
619.768	29.53
619.959	29.95
620.151	30.03
620.343	30.35
620.534	30.69
620.726	31.08
620.917	31.45
621.109	30.56
621.301	30.39
621.492	30.59
621.684	30.55
621.875	31.02
622.067	29.94
622.258	29.29
622.45	29.46
622.641	29.62
622.832	30.06
623.024	29.28
623.215	29.44
623.407	29.15
623.598	28.91
623.789	29.09
623.981	28.58
624.172	29.34
624.363	29.54
624.555	29.33
624.746	28.74
624.937	28.13
625.129	28.2
625.32	28.02
625.511	27.99
625.702	27.48
625.893	27.6
626.085	27.47
626.276	26.78
626.467	26.67
626.658	26.79
626.849	26.99
627.04	27.57
627.231	27.73
627.422	27.7
627.614	27.76
627.805	28.33
627.996	28.51
628.187	28.98
628.378	29.91
628.569	29.63
628.76	29.73
628.951	30.11
629.142	30.08
629.332	30.37
629.523	30.9
629.714	31.1
629.905	31.1
630.096	30.35
630.287	29.95
630.478	30
630.669	29.91
630.859	29.64
631.05	30.22
631.241	29.01
631.432	28.89
631.623	28.5
631.813	27.67
632.004	27.76
632.195	28.41
632.385	28.28
632.576	27.8
632.767	28.12
632.957	28.12
633.148	27.32
633.339	27.3
633.529	27.58
633.72	27.46
633.91	28.08
634.101	27.57
634.292	27.78
634.482	27.87
634.673	28.06
634.863	27.93
635.054	28.13
635.244	29.02
635.435	30.08
635.625	30.6
635.815	31.23
636.006	30.97
636.196	31.82
636.387	31.3
636.577	32.33
636.767	33.01
636.958	33.26
637.148	33.42
637.338	33.01
637.529	33.23
637.719	32.21
637.909	32.18
638.099	32.33
638.29	31.07
638.48	31.13
638.67	30.58
638.86	30.34
639.05	30.04
639.241	30.36
639.431	30.58
639.621	30.73
639.811	30.68
640.001	30.6
640.191	30.64
640.381	32.06
640.571	32.87
640.761	33.26
640.951	32.59
641.141	32.5
641.331	32.04
641.521	32.3
641.711	31.61
641.901	32.05
642.091	32.07
642.281	31.85
642.471	31.81
642.661	32.13
642.851	31.36
643.041	31.61
643.231	32.37
643.42	32.24
643.61	32.01
643.8	32.54
643.99	33.15
644.18	32.91
644.369	32.95
644.559	33.26
644.749	32.22
644.939	32.08
645.128	32.53
645.318	32.42
645.508	32.33
645.697	31.57
645.887	31.11
646.076	30.47
646.266	30.74
646.456	29.89
646.645	29.77
646.835	30.22
647.024	30.64
647.214	30.05
647.403	30.05
647.593	30.72
647.782	30.95
647.972	31.29
648.161	31.6
648.351	31.42
648.54	32.73
648.73	32.29
648.919	31.9
649.108	32.02
649.298	31.93
649.487	32
649.677	32.13
649.866	32.45
650.055	31.8
650.244	31.47
650.434	32.05
650.623	32.01
650.812	32.34
651.002	32.91
651.191	32.96
651.38	33.27
651.569	33.2
651.758	32.54
651.947	32.63
652.137	32.6
652.326	32.46
652.515	32.3
652.704	31.97
652.893	30.48
653.082	30.38
653.271	30.07
653.46	29.09
653.649	29.01
653.838	29.8
654.027	29.69
654.216	30.3
654.405	30.37
654.594	29.83
654.783	29.33
654.972	30.79
655.161	30.72
655.35	30.64
655.539	32.17
655.728	32.29
655.916	31.28
656.105	31.75
656.294	31.79
656.483	31.89
656.672	31.65
656.86	32.02
657.049	31.6
657.238	31.33
657.427	31.81
657.615	30.5
657.804	30.71
657.993	31.73
658.181	31.69
658.37	31.1
658.559	30.49
658.747	31.01
658.936	31
659.125	30.04
659.313	30.07
659.502	30.01
659.69	30.49
659.879	30.37
660.067	29.48
660.256	29.57
660.444	30.69
660.633	31.42
660.821	32.12
661.01	32.04
661.198	33.42
661.387	33.43
661.575	33.45
661.763	34.14
661.952	33.57
662.14	33.9
662.328	34.04
662.517	34.05
662.705	34.71
662.893	34.06
663.082	34.2
663.27	34.35
663.458	35.22
663.646	35.29
663.834	34.55
664.023	34.78
664.211	34.67
664.399	34.06
664.587	33.9
664.775	33.22
664.963	33.63
665.152	34.46
665.34	33.97
665.528	33.08
665.716	33.58
665.904	34.42
666.092	34.6
666.28	34.79
666.468	34.16
666.656	34.9
666.844	35
667.032	33.75
667.22	33.63
667.408	33.24
667.596	34.05
667.784	34.03
667.971	34.45
668.159	34.58
668.347	34.59
668.535	35.66
668.723	34.5
668.911	34.24
669.098	34.37
669.286	34.02
669.474	35.02
669.662	34.99
669.849	34.48
670.037	34.74
670.225	35.47
670.413	35.31
670.6	34.68
670.788	36.09
670.976	36.66
671.163	36.95
671.351	37.52
671.538	37.46
671.726	37.7
671.913	37.47
672.101	36.33
672.289	36.39
672.476	37.11
672.664	37.71
672.851	35.86
673.039	36.52
673.226	36.74
673.413	35.93
673.601	35.95
673.788	34.63
673.976	35.61
674.163	35.66
674.35	35.11
674.538	35.19
674.725	34.85
674.912	35.24
675.1	34.74
675.287	35.08
675.474	34.56
675.662	34.01
675.849	35.02
676.036	33.85
676.223	34.25
676.411	33.69
676.598	32.51
676.785	33.34
676.972	33.78
677.159	33.3
677.346	31.97
677.533	33.12
677.721	33.77
677.908	33.3
678.095	33.51
678.282	32.8
678.469	32.42
678.656	32.93
678.843	31.56
679.03	31.48
679.217	31.64
679.404	32.17
679.591	32.01
679.778	31.76
679.964	32.04
680.151	31.58
680.338	32.04
680.525	32.2
680.712	32.42
680.899	33.07
681.086	33.03
681.272	33.59
681.459	34.25
681.646	33.54
681.833	33.76
682.02	33.35
682.206	33.59
682.393	33.96
682.58	35.12
682.766	37.55
682.953	37.43
683.14	37.79
683.326	37.83
683.513	37.82
683.7	39.67
683.886	39.62
684.073	40.15
684.259	40.27
684.446	40.46
684.632	40.15
684.819	36.08
685.005	37.13
685.192	37.08
685.378	36.66
685.565	36.43
685.751	35.4
685.938	34.82
686.124	35
686.31	35.8
686.497	35.45
686.683	35.06
686.87	36.38
687.056	35.81
687.242	35.12
687.429	35.17
687.615	35.96
687.801	35.92
687.987	36.13
688.174	36.07
688.36	36.02
688.546	35.31
688.732	34.79
688.918	34.25
689.105	34
689.291	35.36
689.477	35.74
689.663	35.14
689.849	35.49
690.035	35.76
690.221	35.61
690.407	36.71
690.593	38.43
690.779	39.31
690.965	40.71
691.151	40.75
691.337	40.64
691.523	39.38
691.709	39.29
691.895	38.38
692.081	39.1
692.267	40.24
692.453	38.68
692.639	38.84
692.825	38.75
693.011	37.78
693.196	38.7
693.382	37.28
693.568	38.76
693.754	38.9
693.94	40.01
694.125	39.49
694.311	38.34
694.497	38.7
694.682	38.25
694.868	38.36
695.054	37.83
695.239	38.27
695.425	38.67
695.611	37.7
695.796	36.38
695.982	36.36
696.168	36.05
696.353	36.07
696.539	35.96
696.724	34.23
696.91	33.4
697.095	33.76
697.281	33.3
697.466	33.61
697.652	33.9
697.837	34.75
698.023	35.23
698.208	35.88
698.393	35.7
698.579	35.7
698.764	35.93
698.949	35.89
699.135	36.08
699.32	35.48
699.505	35.83
699.691	36.11
699.876	35.07
700.061	34.46
700.246	34.24
700.432	34.64
700.617	34.78
700.802	35.32
700.987	36.86
701.172	38.66
701.358	38.81
701.543	39.14
701.728	39.78
701.913	41.99
702.098	43.17
702.283	43.01
702.468	43.57
702.653	43.65
702.838	44.7
703.023	44.55
703.208	43.06
703.393	44.56
703.578	43.07
703.763	41.74
703.948	40.85
704.133	39.31
704.318	38.29
704.503	37.62
704.688	38.07
704.873	37.89
705.057	38.59
705.242	38.86
705.427	38.13
705.612	38.65
705.797	38.79
705.981	39.36
706.166	39.99
706.351	41.53
706.536	42.18
706.72	42.31
706.905	42.72
707.09	42.53
707.274	41.52
707.459	41.12
707.644	41.46
707.828	42.78
708.013	42.59
708.197	42.74
708.382	42.07
708.567	40.02
708.751	40.25
708.936	39.39
709.12	39.22
709.305	40.32
709.489	40.44
709.673	39.13
709.858	37.58
710.042	37.02
710.227	36.78
710.411	37.69
710.596	39.14
710.78	38.02
710.964	38.22
711.149	37.31
711.333	36.4
711.517	35.77
711.702	37.17
711.886	38.13
712.07	38.01
712.254	38.7
712.438	38.21
712.623	37.21
712.807	37.57
712.991	37.85
713.175	39.19
713.359	39.34
713.544	40.82
713.728	41.65
713.912	41.78
714.096	43.2
714.28	42.12
714.464	41.02
714.648	41.85
714.832	43.37
715.016	43.71
715.2	43.93
715.384	44.57
715.568	43.58
715.752	42.24
715.936	42.1
716.12	41.1
716.304	41.48
716.488	41.68
716.671	42.92
716.855	42.38
717.039	42
717.223	42.65
717.407	42.72
717.59	43.33
717.774	45.24
717.958	45.84
718.142	46.99
718.325	47.8
718.509	48.9
718.693	49.6
718.877	49.41
719.06	50.61
719.244	48.17
719.428	48.42
719.611	49.85
719.795	47.97
719.978	48.41
720.162	48.52
720.345	48.89
720.529	48.67
720.713	46.5
720.896	45.56
721.08	46.5
721.263	48.38
721.446	48.4
721.63	48.45
721.813	50.44
721.997	51.04
722.18	51.26
722.364	50.97
722.547	50.39
722.73	51.27
722.914	51.18
723.097	49.73
723.28	49.84
723.464	48.38
723.647	48.32
723.83	46.5
724.013	46.59
724.197	45.91
724.38	46.37
724.563	47.01
724.746	46.09
724.929	45.63
725.112	45.11
725.296	42.76
725.479	42.49
725.662	41.67
725.845	41.18
726.028	38.83
726.211	38.19
726.394	37.69
726.577	37.6
726.76	36.88
726.943	38.27
727.126	37.91
727.309	38.5
727.492	37.82
727.675	38.05
727.858	38.25
728.041	39.5
728.224	40.46
728.407	39.83
728.589	39.99
728.772	41.62
728.955	40.45
729.138	41.45
729.321	41.89
729.503	42.55
729.686	42.23
729.869	41.67
730.052	41.82
730.234	41.3
730.417	41.38
730.6	42.4
730.782	43.15
730.965	44.37
731.148	43.55
731.33	43.57
731.513	43.73
731.695	43.71
731.878	46.08
732.061	45.15
732.243	46.19
732.426	45.94
732.608	44.77
732.791	43.5
732.973	43.86
733.156	45.29
733.338	46.58
733.52	47.42
733.703	46.8
733.885	45.9
734.068	46.55
734.25	47.43
734.432	48.42
734.615	48.26
734.797	48.5
734.979	48.38
735.162	48.33
735.344	48.26
735.526	48.22
735.708	48.74
735.891	47.26
736.073	46.06
736.255	44.28
736.437	44.64
736.619	44.8
736.802	43.63
736.984	44.71
737.166	43.84
737.348	42.54
737.53	42.51
737.712	41.68
737.894	41.88
738.076	44.03
738.258	44.23
738.44	42.59
738.622	42.89
738.804	47.94
738.986	45.85
739.168	45.34
739.35	46.02
739.532	47.11
739.714	49.18
739.896	51.4
740.078	49.64
740.259	50.32
740.441	50.09
740.623	50.75
740.805	48.11
740.987	48.36
741.168	50.02
741.35	50.07
741.532	49.77
741.714	50.58
741.895	48.12
742.077	50.31
742.259	50.65
742.44	52.88
742.622	53.21
742.804	51.18
742.985	52.17
743.167	52.93
743.348	51.24
743.53	52.28
743.711	51.02
743.893	51
744.075	50.93
744.256	51.25
744.438	48.85
744.619	48.86
744.8	49.55
744.982	48.69
745.163	45.51
745.345	47.75
745.526	47.61
745.707	48.56
745.889	50.28
746.07	48.79
746.252	47.59
746.433	48.85
746.614	49.17
746.795	51.49
746.977	55.48
747.158	57.14
747.339	57.56
747.52	58.22
747.702	58.13
747.883	59.04
748.064	60.7
748.245	62.22
748.426	65.95
748.607	66.31
748.788	64.46
748.97	61.58
749.151	60.93
749.332	60.32
749.513	56.76
749.694	56.04
749.875	57.21
750.056	56.28
750.237	56.76
750.418	54.37
750.599	53.12
750.78	52.99
750.96	50.86
751.141	51.55
751.322	49.32
751.503	51.95
751.684	51.68
751.865	49.62
752.046	50.5
752.226	49.93
752.407	48.8
752.588	51.5
752.769	51.61
752.949	53.2
753.13	51.5
753.311	54.36
753.492	53.98
753.672	52.05
753.853	54.24
754.034	53.3
754.214	52.56
754.395	54.4
754.575	52.41
754.756	49.78
754.937	50.79
755.117	53.33
755.298	55.49
755.478	55.27
755.659	56.98
755.839	56.42
756.02	56.33
756.2	56.73
756.381	55.58
756.561	56.54
756.741	57.53
756.922	56.51
757.102	54.83
757.283	51.59
757.463	52.76
757.643	55.87
757.823	55.46
758.004	55.06
758.184	55.76
758.364	55.03
758.545	54.45
758.725	55.32
758.905	56.7
759.085	57.87
759.265	58.28
759.446	57.9
759.626	57.77
759.806	57.05
759.986	56.88
760.166	55.68
760.346	58.08
760.526	55.88
760.706	55.8
760.886	54.97
761.066	54.45
761.246	53.7
761.426	52.52
761.606	49.73
761.786	49.36
761.966	48.76
762.146	47.49
762.326	46.29
762.506	45.95
762.686	45.62
762.866	44.19
763.046	44.07
763.225	43.85
763.405	43.02
763.585	42.5
763.765	42.15
763.945	41.36
764.124	41.83
764.304	42.52
764.484	42.67
764.664	42.3
764.843	45
765.023	46.08
765.203	46.77
765.382	49.15
765.562	51
765.741	54.79
765.921	55.94
766.101	56.86
766.28	57.31
766.46	59.35
766.639	61.68
766.819	61.99
766.998	62.45
767.178	62.6
767.357	62.53
767.537	62.33
767.716	59.96
767.896	59.05
768.075	59.49
768.254	57.9
768.434	57.47
768.613	55.43
768.792	54.22
768.972	51.26
769.151	51.28
769.33	51.5
769.51	53.45
769.689	54.26
769.868	55.27
770.047	55.91
770.226	57.19
770.406	58.27
770.585	60.37
770.764	59.97
770.943	60.93
771.122	63.16
771.301	62.51
771.48	62.98
771.66	59.91
771.839	62.41
772.018	63.1
772.197	63.23
772.376	62.8
772.555	59.91
772.734	62.39
772.913	67.44
773.092	64.89
773.271	64.31
773.449	64.11
773.628	67.37
773.807	65.71
773.986	65.42
774.165	64.04
774.344	63.83
774.523	65.07
774.701	66.01
774.88	62.62
775.059	63.25
775.238	66.43
775.417	65.55
775.595	64.4
775.774	68.61
775.953	65.99
776.131	66.27
776.31	66.83
776.489	64.42
776.667	63.95
776.846	69.46
777.025	70.44
777.203	69.73
777.382	68.53
777.56	69.13
777.739	63.34
777.917	63.9
778.096	65.82
778.274	67.46
778.453	69.91
778.631	68.78
778.81	66.98
778.988	70.15
779.166	69.37
779.345	66.44
779.523	66.09
779.702	70.14
779.88	72.2
780.058	69.03
780.237	66.11
780.415	69.2
780.593	63.21
780.771	61.58
780.95	57.27
781.128	58.49
781.306	59.7
781.484	62.45
781.662	60.45
781.841	59.72
782.019	61.58
782.197	64.72
782.375	62.3
782.553	67.36
782.731	67.48
782.909	68.94
783.087	66.87
783.265	71.46
783.443	69.9
783.621	71.23
783.799	73.96
783.977	73.88
784.155	71.35
784.333	77.52
784.511	76.63
784.689	78.59
784.867	76.67
785.045	79.15
785.223	72.33
785.4	71.7
785.578	72.52
785.756	70.01
785.934	68.13
786.112	68.44
786.289	64.78
786.467	62.64
786.645	62.87
786.823	61.12
787	56.91
787.178	59.63
787.356	56.75
787.533	57.55
787.711	58.03
787.889	59.78
788.066	57.79
788.244	55.46
788.421	56.58
788.599	54.55
788.776	55.33
788.954	58.99
789.131	60.22
789.309	64.07
789.486	61.4
789.664	61.95
789.841	65.28
790.019	68.44
790.196	71.95
790.373	70.85
790.551	71.37
790.728	71.83
790.906	70.61
791.083	72.71
791.26	70.28
791.437	74.59
791.615	77.23
791.792	75.33
791.969	71.93
792.146	70.15
792.324	70.02
792.501	72.12
792.678	79.13
792.855	75.16
793.032	72.9
793.209	72.26
793.387	74.25
793.564	71.54
793.741	69.34
793.918	70.53
794.095	72.24
794.272	74.33
794.449	72.6
794.626	68.81
794.803	71.55
794.98	69.02
795.157	72.2
795.334	69.65
795.511	69.77
795.688	68.21
795.864	70.54
796.041	69.01
796.218	70.25
796.395	71.52
796.572	71.15
796.749	71.77
796.925	71.98
797.102	69.88
797.279	66.4
797.456	67.24
797.632	68.02
797.809	65.37
797.986	66.16
798.162	66.5
798.339	66.49
798.516	62.84
798.692	63.34
798.869	66.42
799.046	63.79
799.222	68.09
799.399	64.24
799.575	65.67
799.752	65.62
799.928	66.67
800.105	65.39
800.281	63.11
800.458	67.24
800.634	64.95
800.811	64.25
800.987	64.58
801.163	62.77
801.34	64.29
801.516	62.91
801.692	64
801.869	67.34
802.045	68.78
802.221	71.04
802.398	70.82
802.574	74.93
802.75	70.84
802.926	77.64
803.103	83.66
803.279	89.13
803.455	93.13
803.631	94.93
803.807	87.78
803.983	85.88
804.16	84.07
804.336	79.51
804.512	79.52
804.688	82.48
804.864	81.98
805.04	76.95
805.216	74.85
805.392	73.97
805.568	72.09
805.744	76.61
805.92	77.27
806.096	78.66
806.272	87.23
806.448	83.16
806.623	84.6
806.799	77.22
806.975	73.52
807.151	74.35
807.327	71.68
807.503	67.94
807.678	62.72
807.854	65.27
808.03	65.49
808.206	60.65
808.381	62.43
808.557	61.64
808.733	67.38
808.908	72.21
809.084	71.4
809.26	75.57
809.435	82.69
809.611	84.34
809.787	75.35
809.962	77.31
810.138	79.26
810.313	77.36
810.489	81.16
810.664	78.51
810.84	77.46
811.015	76.61
811.191	75.53
811.366	75.29
811.542	80.53
811.717	90.13
811.892	90.24
812.068	92.3
812.243	97.05
812.419	91.15
812.594	91.86
812.769	92.04
812.944	97.69
813.12	101.92
813.295	99.84
813.47	99.33
813.645	98.82
813.821	92.84
813.996	81.42
814.171	78.44
814.346	78.07
814.521	81.93
814.697	83.57
814.872	80.26
815.047	75.05
815.222	72.84
815.397	68.44
815.572	63.57
815.747	72.15
815.922	78.55
816.097	81.22
816.272	80.74
816.447	83.28
816.622	82.87
816.797	84.13
816.972	83.96
817.147	81.85
817.322	83.76
817.496	85.35
817.671	82.81
817.846	85.11
818.021	77.9
818.196	80.84
818.371	74.34
818.545	70.03
818.72	68.23
818.895	65.24
819.069	61.7
819.244	57.56
819.419	53.26
819.594	48.03
819.768	44.02
819.943	45.35
820.117	40.84
820.292	37.98
820.467	37
820.641	35.64
820.816	35.19
820.99	35.06
821.165	34.48
821.339	33.84
821.514	33.2
821.688	32.6
821.863	30.9
822.037	31.51
822.212	32.1
822.386	31.62
822.56	30.86
822.735	31.24
822.909	31.47
823.084	31.08
823.258	31.59
823.432	32.19
823.606	32.63
823.781	33.78
823.955	33.53
824.129	33.2
824.303	33.46
824.478	34.27
824.652	34.42
824.826	34.69
825	37.05
825.174	36.93
825.348	37.31
825.523	36.9
825.697	36.67
825.871	37.58
826.045	37.39
826.219	38.41
826.393	38.44
826.567	37.85
826.741	38.51
826.915	37.45
827.089	38.9
827.263	38.68
827.437	41.13
827.611	42.07
827.784	42.05
827.958	43.99
828.132	43.1
828.306	45.68
828.48	47.85
828.654	45.95
828.827	45.38
829.001	47.44
829.175	47.86
829.349	47.2
829.522	46.36
829.696	46.49
829.87	45.34
830.044	48.31
830.217	45.66
830.391	47.17
830.565	50.34
830.738	49.93
830.912	49.28
831.085	51.02
831.259	50.42
831.432	52.57
831.606	53.5
831.779	52.05
831.953	50.81
832.126	51.89
832.3	48.82
832.473	50.26
832.647	49.55
832.82	48.05
832.994	48.18
833.167	47.62
833.34	46.55
833.514	46.17
833.687	45.19
833.86	44.59
834.034	42.68
834.207	42.36
834.38	39.52
834.553	39.28
834.727	40.16
834.9	37.63
835.073	40.99
835.246	40.22
835.419	40.06
835.593	43.93
835.766	45.91
835.939	50.26
836.112	52.77
836.285	54.22
836.458	58.92
836.631	59.76
836.804	69.02
836.977	64.79
837.15	66.55
837.323	75.6
837.496	78.57
837.669	77.13
837.842	77.33
838.015	84.82
838.188	87.8
838.361	81.2
838.533	81.75
838.706	76.25
838.879	76.97
839.052	83.01
839.225	79.3
839.398	79.4
839.57	85.91
839.743	85.32
839.916	78.94
840.088	80.56
840.261	95.74
840.434	95.59
840.607	99.15
840.779	102.28
840.952	97.65
841.124	102.14
841.297	96.04
841.47	92.63
841.642	101.52
841.815	98.24
841.987	101.82
842.16	93.43
842.332	90.34
842.505	95.98
842.677	90.54
842.85	101.62
843.022	98.72
843.194	102.3
843.367	104.76
843.539	101.56
843.712	110.02
843.884	117.23
844.056	111.79
844.229	117.1
844.401	121.19
844.573	132.8
844.745	124.03
844.918	138.6
845.09	136.59
845.262	147.16
845.434	152.4
845.606	144.48
845.779	135.51
845.951	141.88
846.123	152.69
846.295	157.34
846.467	178.66
846.639	170.4
846.811	175.76
846.983	186.16
847.155	177.65
847.327	177.07
847.499	184.16
847.671	183.84
847.843	170.49
848.015	159.06
848.187	153.15
848.359	155.55
848.531	162.64
848.703	139.57
848.875	154.31
849.047	143.25
849.218	130.52
849.39	126.23
849.562	141.43
849.734	161.74
849.905	145.39
850.077	158.54
850.249	132.21
850.421	120.69
850.592	134.62
850.764	136.18
850.936	119.48
851.107	122.86
851.279	132.87
851.451	114.28
851.622	112.7
851.794	123.76
851.965	122.65
852.137	125.78
852.308	133.94
852.48	134.98
852.651	134.99
852.823	144.89
852.994	142.83
853.166	148.23
853.337	161.76
853.509	170.3
853.68	157.95
853.851	143.67
854.023	143.3
854.194	133.51
854.365	149.17
854.537	138.34
854.708	153.51
854.879	136.38
855.05	132.63
855.222	120.46
855.393	124.39
855.564	134.28
855.735	148.93
855.906	149.68
856.078	145.28
856.249	125.4
856.42	121.33
856.591	116.87
856.762	130.85
856.933	137.79
857.104	134.24
857.275	124.57
857.446	129.27
857.617	122.15
857.788	115.23
857.959	122.85
858.13	142.32
858.301	150.51
858.472	146.03
858.643	156.81
858.814	155.34
858.985	190.09
859.155	249.85
859.326	233.72
859.497	255.71
859.668	452.41
859.839	442.27
860.009	280.7
860.18	301.04
860.351	288.29
860.522	238.85
860.692	223.12
860.863	192.39
861.034	169.41
861.204	159.1
861.375	141.83
861.546	124.28
861.716	113.97
861.887	124.81
862.057	143.03
862.228	138.15
862.398	130.74
862.569	137.31
862.739	160.02
862.91	148.55
863.08	150.31
863.251	155.28
863.421	156.93
863.592	185.99
863.762	182.58
863.932	145.76
864.103	158.3
864.273	165.58
864.443	152.04
864.614	125.02
864.784	138.33
864.954	152.25
865.125	177.89
865.295	183.7
865.465	202.03
865.635	209.52
865.805	210.87
865.976	220.23
866.146	208.04
866.316	243.56
866.486	320.89
866.656	273.99
866.826	285.77
866.996	239.18
867.166	269.92
867.336	217.74
867.506	152.45
867.676	142.51
867.846	135.43
868.016	134.96
868.186	115.68
868.356	105.99
868.526	110.56
868.696	103.75
868.866	106.44
869.036	109.68
869.206	102.08
869.376	110.23
869.545	115.56
869.715	118.53
869.885	122.7
870.055	126.71
870.224	124.12
870.394	131.54
870.564	160.79
870.734	154.66
870.903	162.23
871.073	168.64
871.243	175.11
871.412	183.05
871.582	174.12
871.751	173.18
871.921	181
872.091	229.06
872.26	177.55
872.43	151.36
872.599	147.04
872.769	143.29
872.938	170.59
873.108	168.12
873.277	157.02
873.446	157.65
873.616	167.91
873.785	171.74
873.955	152.46
874.124	155.52
874.293	150.39
874.463	149.9
874.632	146.45
874.801	139.76
874.971	127.6
875.14	152.4
875.309	150.27
875.478	121.1
875.647	112.08
875.817	109.72
875.986	117.14
876.155	127.94
876.324	134.32
876.493	120.47
876.662	115.03
876.831	121.2
877	104.45
877.17	102.23
877.339	106.56
877.508	110.1
877.677	110.88
877.846	107.95
878.015	94.23
878.184	77.5
878.352	84.68
878.521	83.99
878.69	78.06
878.859	70.63
879.028	73.65
879.197	72.05
879.366	67.53
879.534	64.08
879.703	55.71
879.872	54.87
880.041	54.45
880.21	50.72
880.378	45.01
880.547	45.87
880.716	47.61
880.884	43.47
881.053	42.45
881.222	40.82
881.39	42.76
881.559	40.9
881.727	42.25
881.896	40.77
882.065	40.91
882.233	40.84
882.402	39.07
882.57	40.54
882.739	38.48
882.907	38.85
883.076	38.06
883.244	35.73
883.412	36.89
883.581	36.8
883.749	38.24
883.918	39.25
884.086	41.6
884.254	43.28
884.423	44.83
884.591	48.83
884.759	48.63
884.927	52.95
885.096	55.21
885.264	61.26
885.432	64.62
885.6	64.69
885.769	64.87
885.937	66.01
886.105	80.4
886.273	74.41
886.441	79.64
886.609	93.72
886.777	87.96
886.945	93.41
887.113	96.76
887.281	88.89
887.449	99.75
887.617	102.17
887.785	98.84
887.953	93.06
888.121	103.09
888.289	107.41
888.457	102.72
888.625	117.61
888.793	117.28
888.961	121.34
889.129	135.28
889.296	130.03
889.464	138.58
889.632	157.69
889.8	165.72
889.967	153.5
890.135	145.35
