Data from JASIL_3278_Reflection_1.txt Node
Date: Tue Nov 17 19:10:42 EST 2015
User: Geneva
Spectrometer: USB4E03002
Autoset integration time: false
Trigger mode: 4
Integration Time (sec): 1.000000E-1
Scans to average: 10
Electric dark correction enabled: false
Nonlinearity correction enabled: false
Boxcar width: 5
Stray light correction enabled: false
XAxis mode: Wavelengths
Stop averaging: false
Number of Pixels in Spectrum: 3648
>>>>>Begin Spectral Data<<<<<
177.575	366.18
177.794	257.58
178.014	336.84
178.233	4287.5
178.452	-1208.33
178.672	-44.93
178.891	-107.5
179.11	-19.38
179.33	33.46
179.549	14.93
179.768	-5.43
179.987	36.8
180.207	-90.28
180.426	65.22
180.645	81.73
180.864	63.87
181.084	57.79
181.303	42.01
181.522	34.88
181.741	53.24
181.96	49.58
182.179	62.24
182.398	17.98
182.618	-41.94
182.837	-11.05
183.056	3008.33
183.275	120.91
183.494	76.35
183.713	72.22
183.932	68.62
184.151	75.22
184.37	61.18
184.589	47.52
184.808	31.92
185.027	38.86
185.246	20.26
185.465	-50.13
185.684	-1515
185.903	170.77
186.122	145.42
186.341	142.97
186.56	124.52
186.779	75.57
186.998	62.31
187.216	61.9
187.435	114.38
187.654	135.57
187.873	149.41
188.092	171.66
188.311	153.13
188.53	146.22
188.748	136.9
188.967	138.73
189.186	186.27
189.405	132.42
189.623	122.32
189.842	93.07
190.061	112.07
190.28	65.33
190.498	45.33
190.717	-2275
190.936	-138.83
191.154	-85.25
191.373	4.43
191.592	-245.45
191.81	148.2
192.029	-315.38
192.248	1510
192.466	94.02
192.685	400
192.904	97.87
193.122	31.06
193.341	19.44
193.559	19.69
193.778	74.29
193.996	84.73
194.215	93.98
194.433	106.27
194.652	49.83
194.87	-21.18
195.089	26.71
195.307	115.91
195.526	986.21
195.744	-132.46
195.963	134.41
196.181	95.35
196.399	150.81
196.618	148.1
196.836	264.77
197.055	291.3
197.273	456.55
197.491	603.15
197.71	658.26
197.928	694.52
198.146	189.49
198.365	198.59
198.583	137.5
198.801	154.44
199.019	164.65
199.238	97.59
199.456	79.08
199.674	65.56
199.892	77.84
200.111	75.44
200.329	103.48
200.547	96.04
200.765	130.77
200.983	209.16
201.202	116.36
201.42	152.75
201.638	154.04
201.856	708.16
202.074	-1576.92
202.292	276.47
202.51	562.96
202.728	19.29
202.946	10.06
203.165	-20.6
203.383	44.02
203.601	1.33
203.819	15.38
204.037	52.28
204.255	-25.45
204.473	-16.62
204.691	8.1
204.909	27.67
205.127	7.77
205.345	4.86
205.562	14.89
205.78	-135.65
205.998	9.49
206.216	-18.06
206.434	-21.07
206.652	0.54
206.87	16.33
207.088	10.42
207.306	15.98
207.523	35.04
207.741	55.73
207.959	47.29
208.177	22.48
208.395	28.24
208.612	48.16
208.83	28.92
209.048	18.79
209.266	3.64
209.483	-12.18
209.701	14.92
209.919	-2.33
210.136	-1.47
210.354	6.47
210.572	43.98
210.79	36.55
211.007	56
211.225	97.11
211.442	125.15
211.66	140.42
211.878	137.09
212.095	-13.94
212.313	9.99
212.53	25.08
212.748	25.59
212.966	19.76
213.183	15.41
213.401	-5.57
213.618	-15.82
213.836	-33.03
214.053	-32.51
214.271	-25.06
214.488	495.83
214.705	231.43
214.923	228.08
215.14	146.23
215.358	82.66
215.575	92.59
215.793	91.84
216.01	68.72
216.227	69.63
216.445	47.23
216.662	56.72
216.879	49.1
217.097	53.59
217.314	43.95
217.531	47.65
217.749	59.76
217.966	37.1
218.183	3.81
218.4	-4.38
218.618	-96.98
218.835	-64.37
219.052	-47.52
219.269	-42.77
219.487	-47.76
219.704	-46.39
219.921	-58.6
220.138	-59.26
220.355	8.99
220.572	26.57
220.79	35.37
221.007	77.01
221.224	77.64
221.441	26.01
221.658	19.43
221.875	0.8
222.092	1.85
222.309	31.34
222.526	36.42
222.743	-35.38
222.96	31.1
223.177	52.71
223.394	5.23
223.611	28.54
223.828	18.96
224.045	-28.89
224.262	-8.37
224.479	-14.91
224.696	-8.21
224.913	-3.45
225.13	23.07
225.347	19.86
225.564	11.8
225.781	15.67
225.997	19.48
226.214	29.06
226.431	24.78
226.648	25.36
226.865	21.81
227.082	21.92
227.298	15.95
227.515	14.88
227.732	10.87
227.949	9.92
228.165	6.12
228.382	1.32
228.599	0
228.816	4.98
229.032	3.29
229.249	3.45
229.466	2.76
229.682	5.2
229.899	1.03
230.116	0.24
230.332	-6.82
230.549	-0.3
230.765	-4.16
230.982	0.67
231.199	-1.12
231.415	5.7
231.632	0.75
231.848	-13.45
232.065	-12.34
232.281	-6.17
232.498	-11.17
232.714	-11.2
232.931	-6.54
233.147	-1.76
233.364	-8.77
233.58	-5.98
233.797	-8.36
234.013	-9.47
234.23	-2.65
234.446	-7.52
234.662	-7.74
234.879	-3.77
235.095	-4.93
235.312	-15.67
235.528	-8.58
235.744	-7.48
235.961	-9.09
236.177	-14.13
236.393	-5.36
236.61	-4.29
236.826	-1.62
237.042	-3.86
237.258	-0.81
237.475	9.02
237.691	16.96
237.907	8.96
238.123	2.88
238.339	4.64
238.556	4.6
238.772	9.39
238.988	11.4
239.204	10.34
239.42	7.6
239.636	6.98
239.853	2.66
240.069	-4.64
240.285	-0.94
240.501	2.56
240.717	2.1
240.933	2.26
241.149	3.8
241.365	0.02
241.581	1.68
241.797	-2.81
242.013	-1.33
242.229	3.18
242.445	5.39
242.661	2.76
242.877	1.05
243.093	1.49
243.309	0.09
243.525	-5.99
243.741	-3.3
243.957	-5.33
244.173	6.67
244.388	3.79
244.604	0.54
244.82	3.79
245.036	6.16
245.252	9.99
245.468	9.49
245.683	8.83
245.899	10.9
246.115	10
246.331	11.06
246.547	10.44
246.762	11.1
246.978	11.98
247.194	12.94
247.409	11.58
247.625	13.29
247.841	16.45
248.057	17.11
248.272	14.78
248.488	16.46
248.703	15.94
248.919	15.21
249.135	15.74
249.35	17.36
249.566	15.01
249.782	20.05
249.997	14.92
250.213	9.16
250.428	10.69
250.644	13.76
250.859	14.57
251.075	17.24
251.29	16.93
251.506	14.16
251.721	15.74
251.937	17.03
252.152	11.43
252.368	10.5
252.583	15.37
252.798	15.11
253.014	15.54
253.229	15.77
253.445	19.4
253.66	18.77
253.875	24.43
254.091	16.03
254.306	15.82
254.521	18.17
254.737	17.66
254.952	14.15
255.167	12.43
255.383	8.53
255.598	8.96
255.813	2.92
256.028	3.61
256.244	2.67
256.459	5.1
256.674	0.28
256.889	1.58
257.104	2.95
257.32	5.47
257.535	5.74
257.75	7.24
257.965	6.38
258.18	5.4
258.395	5.8
258.61	5.02
258.826	4.78
259.041	6.82
259.256	6.52
259.471	6.15
259.686	3.9
259.901	4.81
260.116	3.91
260.331	3.68
260.546	2.63
260.761	2.78
260.976	3.76
261.191	3.92
261.406	4.02
261.621	2.48
261.836	2.31
262.05	4.19
262.265	2.81
262.48	3.13
262.695	3.06
262.91	6.09
263.125	3.93
263.34	2.57
263.555	3.02
263.769	-2.79
263.984	2.12
264.199	5.52
264.414	5.41
264.629	6.67
264.843	6.57
265.058	5.68
265.273	7.23
265.488	6.76
265.702	5.17
265.917	6.31
266.132	10.63
266.346	8.16
266.561	7.99
266.776	6.19
266.99	4.47
267.205	4.69
267.42	5.3
267.634	5.75
267.849	7.27
268.063	9.79
268.278	6.68
268.492	7.27
268.707	6.98
268.922	5.92
269.136	9.32
269.351	10.44
269.565	8.52
269.78	8.08
269.994	5.4
270.209	3.95
270.423	4.1
270.637	5.76
270.852	2.67
271.066	4.36
271.281	3.09
271.495	2.96
271.709	0.78
271.924	2.19
272.138	3.89
272.353	4.45
272.567	6.4
272.781	6.19
272.996	6.72
273.21	7.46
273.424	6.88
273.638	6.2
273.853	6.65
274.067	9.03
274.281	11.68
274.495	9.88
274.71	11.12
274.924	11.33
275.138	9.33
275.352	7.66
275.566	9.03
275.781	8.32
275.995	9.57
276.209	8.81
276.423	8.6
276.637	9.06
276.851	8.56
277.065	7
277.279	5.65
277.493	8.28
277.707	9.2
277.921	10.25
278.135	10.25
278.349	12.01
278.563	12.21
278.777	11.73
278.991	9.38
279.205	11.31
279.419	11.68
279.633	11.22
279.847	10.61
280.061	11.44
280.275	10.45
280.489	11.6
280.703	10.46
280.917	9.86
281.131	10.23
281.344	10.43
281.558	8.59
281.772	8.84
281.986	7.59
282.2	7.12
282.414	6.88
282.627	6.32
282.841	5.44
283.055	4.92
283.269	3.58
283.482	3.28
283.696	2.69
283.91	2.16
284.123	1.63
284.337	3.27
284.551	3.57
284.764	2.8
284.978	3.04
285.192	3.08
285.405	2.83
285.619	2.9
285.833	3.47
286.046	2.09
286.26	3.64
286.473	3.99
286.687	3.76
286.9	3.99
287.114	3.8
287.327	3.67
287.541	2.39
287.754	3.63
287.968	3.45
288.181	4.08
288.395	6.7
288.608	8.18
288.822	7.46
289.035	7.33
289.248	6.71
289.462	7.28
289.675	5.11
289.889	5.45
290.102	4.07
290.315	5.39
290.529	5.56
290.742	4.62
290.955	1.61
291.169	1.17
291.382	1.88
291.595	2.52
291.808	1.29
292.022	5.16
292.235	4.84
292.448	6.39
292.661	6.3
292.875	6.12
293.088	5.48
293.301	5.46
293.514	6.19
293.727	6.59
293.94	5.7
294.153	6.33
294.367	5.33
294.58	5.28
294.793	4.48
295.006	4.38
295.219	2.06
295.432	3.25
295.645	5.5
295.858	5
296.071	5.08
296.284	5.62
296.497	5.55
296.71	4.97
296.923	5.99
297.136	5.91
297.349	6.89
297.562	7.84
297.775	7.75
297.988	5.71
298.201	5.36
298.414	4.11
298.626	4.68
298.839	4.24
299.052	4.48
299.265	3.63
299.478	3.32
299.691	0.99
299.903	1.88
300.116	0.48
300.329	1.49
300.542	4.44
300.755	4.61
300.967	5.16
301.18	6.51
301.393	7.39
301.605	7.68
301.818	7.81
302.031	7.64
302.243	8.03
302.456	8.92
302.669	9.52
302.881	7.57
303.094	8.31
303.307	5.78
303.519	3.74
303.732	4.22
303.944	4.27
304.157	4.55
304.37	5.68
304.582	4.93
304.795	5.37
305.007	4.87
305.22	4.46
305.432	2.99
305.645	4.32
305.857	6.38
306.069	4.89
306.282	4.12
306.494	3.97
306.707	3.9
306.919	3.52
307.132	2.38
307.344	3.82
307.556	5.49
307.769	5.34
307.981	6.46
308.193	6.61
308.406	6.93
308.618	8.34
308.83	8.56
309.043	9.08
309.255	8.93
309.467	9.01
309.679	8.34
309.892	7.16
310.104	7.7
310.316	6.07
310.528	5.5
310.74	4.83
310.953	4.82
311.165	5.01
311.377	3.95
311.589	4.94
311.801	5.15
312.013	5.08
312.225	6.02
312.437	6.25
312.649	7.9
312.862	7.22
313.074	8.36
313.286	7.51
313.498	8.31
313.71	8.39
313.922	9.34
314.134	11.5
314.346	11.06
314.558	10.46
314.77	10.07
314.982	9.19
315.193	9.45
315.405	9.51
315.617	10.79
315.829	8.85
316.041	10.78
316.253	8.61
316.465	6.57
316.677	9.06
316.888	8.76
317.1	7.8
317.312	7.71
317.524	7.59
317.736	8.47
317.947	8.15
318.159	9.92
318.371	7.58
318.583	9.46
318.794	12.17
319.006	10.63
319.218	9.72
319.43	11.03
319.641	11.1
319.853	11.16
320.064	9.14
320.276	8.07
320.488	6.96
320.699	7.55
320.911	4.91
321.123	1.83
321.334	-0.16
321.546	-1.08
321.757	-1.53
321.969	-1.97
322.18	-1.82
322.392	-0.61
322.603	-0.27
322.815	-0.43
323.026	0.32
323.238	2.2
323.449	2.9
323.661	3.73
323.872	6.22
324.083	4.68
324.295	5.42
324.506	5.09
324.718	6.55
324.929	6.53
325.14	6.39
325.352	5.78
325.563	6.26
325.774	5.3
325.986	6.37
326.197	7.26
326.408	9.48
326.62	9.14
326.831	9.39
327.042	7.66
327.253	8.09
327.464	9.62
327.676	10.16
327.887	8.13
328.098	8.42
328.309	6.93
328.52	5.97
328.732	5.33
328.943	4.1
329.154	4.48
329.365	4.38
329.576	4.39
329.787	3.37
329.998	2.21
330.209	3.11
330.42	3.11
330.631	3.73
330.842	5.73
331.053	5.94
331.264	9.86
331.475	10.01
331.686	9.85
331.897	9.91
332.108	10.08
332.319	11.39
332.53	10.48
332.741	12.03
332.952	11.39
333.163	9.97
333.374	9.08
333.585	8.44
333.795	7.4
334.006	8.94
334.217	8.04
334.428	7.55
334.639	7.59
334.849	8.59
335.06	6.17
335.271	6.76
335.482	6.57
335.692	9.52
335.903	7.38
336.114	10.43
336.325	9.73
336.535	9.7
336.746	10.92
336.957	10.25
337.167	9.25
337.378	10.57
337.589	10.61
337.799	9.22
338.01	8.03
338.22	8.47
338.431	6.69
338.642	5.66
338.852	4.35
339.063	2.42
339.273	2.71
339.484	3.54
339.694	3.66
339.905	4.65
340.115	7.07
340.326	7.28
340.536	8.04
340.746	9.01
340.957	10.23
341.167	11.11
341.378	11.25
341.588	10.97
341.799	11.44
342.009	11.44
342.219	10.62
342.43	9.41
342.64	7.7
342.85	6.54
343.061	5.83
343.271	6.48
343.481	6.42
343.691	7.4
343.902	7.38
344.112	7.85
344.322	7.8
344.532	7.3
344.743	7.5
344.953	7.89
345.163	8.32
345.373	7.45
345.583	6.39
345.793	8.68
346.004	8.22
346.214	7.99
346.424	7.77
346.634	7.83
346.844	8.4
347.054	8.57
347.264	10.1
347.474	10.77
347.684	11.11
347.894	11.04
348.104	9.37
348.314	10.3
348.524	11.29
348.734	10.18
348.944	8.68
349.154	8.33
349.364	7.42
349.574	4.95
349.784	5.09
349.994	5.56
350.204	6.1
350.413	5.84
350.623	4.97
350.833	4.55
351.043	5
351.253	6.8
351.463	7.38
351.672	7.39
351.882	9.29
352.092	8.33
352.302	8.04
352.511	7.28
352.721	7.87
352.931	7.26
353.141	6.5
353.35	6.4
353.56	6.7
353.77	5.9
353.979	6.94
354.189	7.89
354.399	8.12
354.608	8.59
354.818	8.8
355.027	9.38
355.237	10.59
355.447	11.45
355.656	11.56
355.866	10.97
356.075	11.99
356.285	11.56
356.494	9.87
356.704	10.25
356.913	9.59
357.123	9.69
357.332	8.36
357.542	7.52
357.751	6.91
357.96	7.02
358.17	6.59
358.379	6.73
358.589	5.88
358.798	5.48
359.007	5.76
359.217	6.16
359.426	5.9
359.635	6.4
359.845	6.71
360.054	7.2
360.263	6.94
360.472	7.37
360.682	6.04
360.891	6.56
361.1	7.69
361.309	6.95
361.519	7.07
361.728	7.37
361.937	7.46
362.146	7.05
362.355	7.02
362.564	7.13
362.774	6.78
362.983	6.91
363.192	7.77
363.401	6.76
363.61	6.8
363.819	7.8
364.028	8.04
364.237	7.75
364.446	8.24
364.655	8.7
364.864	8.31
365.073	8.49
365.282	9.17
365.491	8.21
365.7	8.9
365.909	8.79
366.118	7.53
366.327	6.65
366.536	6.68
366.745	5.79
366.954	5.75
367.162	6.5
367.371	7.12
367.58	7.9
367.789	7.98
367.998	8.28
368.207	8.73
368.415	8.74
368.624	8.87
368.833	8.77
369.042	9.37
369.25	8.93
369.459	8.38
369.668	7.57
369.877	7.04
370.085	7
370.294	6.27
370.503	6.28
370.711	6.29
370.92	7
371.129	6.97
371.337	7.07
371.546	6.99
371.754	6.89
371.963	7.31
372.171	6.57
372.38	7.06
372.589	6.62
372.797	6.41
373.006	6.8
373.214	6.75
373.423	6.99
373.631	6.14
373.84	5.89
374.048	6.67
374.256	6.03
374.465	7.4
374.673	7.93
374.882	7.88
375.09	8.83
375.298	7.85
375.507	6.68
375.715	6.45
375.923	7.75
376.132	7.31
376.34	6.82
376.548	7.05
376.757	6.9
376.965	7
377.173	7.2
377.381	6.19
377.59	6.63
377.798	7.81
378.006	7.2
378.214	6.31
378.423	6.46
378.631	7.1
378.839	6.99
379.047	6.32
379.255	5.02
379.463	5.21
379.671	5.98
379.879	6.36
380.088	5.58
380.296	6.03
380.504	6.84
380.712	7.35
380.92	7.12
381.128	6.96
381.336	7.73
381.544	8.46
381.752	8.68
381.96	7.94
382.168	6.97
382.376	7.74
382.584	6.82
382.791	6.32
382.999	6.47
383.207	6.03
383.415	6.94
383.623	6.85
383.831	5.9
384.039	6.12
384.247	5.63
384.454	5.38
384.662	5.4
384.87	7.12
385.078	7.03
385.285	5.91
385.493	5.72
385.701	5.22
385.909	5.15
386.116	6.21
386.324	6.25
386.532	7.39
386.739	8.32
386.947	8.35
387.155	8.15
387.362	8.48
387.57	9.28
387.778	9.06
387.985	9.09
388.193	9.36
388.4	8.94
388.608	8.28
388.816	7.46
389.023	6.77
389.231	6.69
389.438	6.31
389.646	5.38
389.853	5.54
390.061	5.43
390.268	4.65
390.475	3.7
390.683	3.59
390.89	3.77
391.098	4.08
391.305	4.13
391.512	4.22
391.72	4.88
391.927	5.22
392.135	5.28
392.342	6.37
392.549	6.69
392.756	6.82
392.964	7
393.171	6.95
393.378	7.48
393.586	7.74
393.793	7.68
394	6.59
394.207	6.67
394.414	6.5
394.622	5.9
394.829	6.46
395.036	7.58
395.243	7.47
395.45	7.33
395.657	7.65
395.864	7.94
396.072	7.19
396.279	7.12
396.486	7.52
396.693	7.22
396.9	6.99
397.107	6.12
397.314	5.16
397.521	4.87
397.728	5.05
397.935	4.17
398.142	3.79
398.349	4.72
398.556	4.9
398.763	4.74
398.97	4.34
399.177	4.64
399.383	5.27
399.59	5.31
399.797	5.78
400.004	5.97
400.211	5.72
400.418	6.6
400.625	6
400.831	6.38
401.038	5.73
401.245	6.25
401.452	6.64
401.658	6.35
401.865	6.68
402.072	6.26
402.279	6.36
402.485	6.21
402.692	5.52
402.899	6.01
403.105	5.69
403.312	5.72
403.519	5.45
403.725	4.72
403.932	4.98
404.138	4.46
404.345	4.5
404.552	4.23
404.758	4.73
404.965	4.64
405.171	4.48
405.378	4.76
405.584	4.98
405.791	5.38
405.997	5.56
406.204	5.45
406.41	5.46
406.617	4.89
406.823	4.9
407.029	4.94
407.236	4.9
407.442	4.75
407.649	4.58
407.855	4.67
408.061	4.6
408.268	4.7
408.474	4.18
408.68	3.95
408.887	4.07
409.093	4.39
409.299	4.82
409.505	4.36
409.712	4.26
409.918	4.49
410.124	4.78
410.33	4.77
410.537	5.37
410.743	5.88
410.949	6.51
411.155	7.25
411.361	6.84
411.567	5.67
411.773	6.7
411.98	6.47
412.186	7.27
412.392	7.29
412.598	7.71
412.804	7.72
413.01	7.94
413.216	7.46
413.422	7.04
413.628	7.2
413.834	7.74
414.04	7.24
414.246	7.52
414.452	6.23
414.658	6.23
414.864	5.62
415.07	4.79
415.275	4.19
415.481	3.93
415.687	3.99
415.893	3.53
416.099	3.24
416.305	3.42
416.511	3.14
416.716	4.12
416.922	3.86
417.128	3.7
417.334	3.94
417.539	4.25
417.745	4.72
417.951	4.75
418.157	4.77
418.362	5.03
418.568	4.79
418.774	4.95
418.979	4.79
419.185	4.77
419.391	5.06
419.596	4.97
419.802	4.99
420.008	4.9
420.213	5
420.419	5.13
420.624	4.95
420.83	5.03
421.035	5.07
421.241	4.86
421.446	5.15
421.652	5.19
421.857	5.03
422.063	4.86
422.268	4.62
422.474	4.33
422.679	4.4
422.885	4.51
423.09	4.62
423.295	5.05
423.501	5.01
423.706	4.71
423.911	4.28
424.117	4.26
424.322	4.02
424.527	4.13
424.733	4.29
424.938	4.08
425.143	4.38
425.349	4.39
425.554	4.04
425.759	4.32
425.964	4.32
426.169	4.84
426.375	5.13
426.58	5.5
426.785	5.42
426.99	5.31
427.195	5.71
427.4	5.26
427.605	4.98
427.811	4.89
428.016	4.7
428.221	4.44
428.426	4.49
428.631	3.9
428.836	3.47
429.041	3.37
429.246	3.43
429.451	3.02
429.656	3.24
429.861	2.95
430.066	2.63
430.271	2.54
430.476	2.93
430.681	2.6
430.886	3.12
431.09	3.78
431.295	3.94
431.5	4.2
431.705	4.54
431.91	4.25
432.115	4.7
432.32	4.97
432.524	4.97
432.729	4.86
432.934	5.09
433.139	4.85
433.343	4.66
433.548	4.68
433.753	4.55
433.958	4.78
434.162	4.77
434.367	5.08
434.572	4.94
434.776	4.84
434.981	4.83
435.186	5.16
435.39	5.56
435.595	5.67
435.799	6.22
436.004	6.41
436.209	5.86
436.413	6.31
436.618	6.01
436.822	5.83
437.027	5.88
437.231	5.84
437.436	5.34
437.64	5.12
437.845	5.05
438.049	4.58
438.253	4.28
438.458	4.49
438.662	3.83
438.867	3.52
439.071	3.65
439.275	3.87
439.48	4.1
439.684	4.04
439.888	4.17
440.093	4.23
440.297	4.18
440.501	4.35
440.706	4.14
440.91	4.47
441.114	4.65
441.318	4.7
441.523	4.4
441.727	4.29
441.931	4.5
442.135	4.29
442.339	4.08
442.543	4.04
442.748	3.7
442.952	3.84
443.156	3.79
443.36	4.07
443.564	3.5
443.768	3.41
443.972	3.55
444.176	3.17
444.38	3.26
444.584	3.31
444.788	3.54
444.992	3.79
445.196	3.81
445.4	3.5
445.604	3.15
445.808	3.72
446.012	3.62
446.216	3.27
446.42	3.55
446.624	4.03
446.828	3.91
447.032	3.85
447.235	3.7
447.439	4.08
447.643	4.54
447.847	4.93
448.051	4.5
448.254	4.91
448.458	5.05
448.662	4.74
448.866	4.34
449.069	4.69
449.273	4.39
449.477	4.46
449.681	3.84
449.884	3.82
450.088	3.45
450.292	3.89
450.495	3.52
450.699	3.64
450.902	4.2
451.106	4.1
451.31	3.89
451.513	3.97
451.717	3.84
451.92	4.05
452.124	4.12
452.327	4.48
452.531	4.32
452.734	4.64
452.938	4.87
453.141	4.73
453.345	4.64
453.548	4.72
453.752	4.79
453.955	4.8
454.158	4.79
454.362	4.67
454.565	4.66
454.769	4.83
454.972	4.59
455.175	4.67
455.379	4.58
455.582	4.87
455.785	4.92
455.988	5.25
456.192	5.18
456.395	4.94
456.598	4.98
456.801	4.73
457.005	5.03
457.208	4.85
457.411	4.66
457.614	4.52
457.817	4.13
458.021	4.14
458.224	4.16
458.427	4.31
458.63	4.28
458.833	4.19
459.036	4.33
459.239	3.98
459.442	4.04
459.645	3.98
459.848	3.99
460.051	4.14
460.254	4.16
460.457	3.76
460.66	3.82
460.863	3.68
461.066	3.63
461.269	3.26
461.472	3.31
461.675	3.23
461.878	3.36
462.081	3.45
462.284	3.72
462.486	3.53
462.689	3.52
462.892	3.24
463.095	3.48
463.298	3.38
463.5	3.7
463.703	3.25
463.906	3.8
464.109	3.51
464.311	3.46
464.514	3.31
464.717	3.36
464.92	3.83
465.122	4.31
465.325	4.36
465.528	4.38
465.73	4.08
465.933	4.56
466.135	4.71
466.338	5.1
466.541	5.42
466.743	5.75
466.946	5.69
467.148	5.89
467.351	5.63
467.553	5.68
467.756	6.05
467.958	6.53
468.161	6.41
468.363	6.08
468.566	5.74
468.768	5.59
468.971	5.32
469.173	5.27
469.375	4.93
469.578	4.81
469.78	4.91
469.983	4.81
470.185	4.75
470.387	4.58
470.59	4.68
470.792	4.76
470.994	4.29
471.196	4.03
471.399	3.98
471.601	3.96
471.803	4.18
472.005	4.2
472.208	4.06
472.41	3.36
472.612	3.67
472.814	3.93
473.016	4.4
473.218	4.97
473.421	5.37
473.623	5.87
473.825	6.1
474.027	6.09
474.229	6.29
474.431	6.5
474.633	6.62
474.835	6.64
475.037	6.17
475.239	5.99
475.441	5.35
475.643	5.18
475.845	4.93
476.047	4.84
476.249	4.72
476.451	4.26
476.653	3.95
476.855	4.2
477.057	4.28
477.258	4.08
477.46	3.82
477.662	3.84
477.864	3.57
478.066	3.57
478.268	3.2
478.469	3.49
478.671	3.77
478.873	4.02
479.075	3.81
479.276	3.58
479.478	3.48
479.68	3.66
479.882	3.91
480.083	4.54
480.285	4.39
480.487	4.63
480.688	4.31
480.89	4.29
481.091	4.01
481.293	3.91
481.495	4.02
481.696	4.26
481.898	4.22
482.099	4.3
482.301	4.07
482.502	4.08
482.704	3.92
482.905	3.92
483.107	3.82
483.308	3.85
483.51	3.97
483.711	3.93
483.913	3.84
484.114	3.82
484.315	3.73
484.517	3.68
484.718	3.71
484.92	3.88
485.121	3.84
485.322	3.92
485.524	3.92
485.725	3.85
485.926	3.78
486.127	3.75
486.329	3.78
486.53	3.84
486.731	3.91
486.932	3.97
487.134	3.91
487.335	4.01
487.536	4.06
487.737	4.12
487.938	4.13
488.139	4.04
488.341	4.04
488.542	3.94
488.743	3.77
488.944	3.63
489.145	3.66
489.346	3.75
489.547	3.64
489.748	3.5
489.949	3.48
490.15	3.48
490.351	3.76
490.552	3.79
490.753	3.85
490.954	3.92
491.155	4.06
491.356	4.02
491.557	4.03
491.758	4.13
491.959	4.14
492.159	4.3
492.36	4.38
492.561	4.31
492.762	4.59
492.963	4.89
493.164	4.97
493.364	4.94
493.565	4.95
493.766	5.05
493.967	5.15
494.167	5.15
494.368	4.9
494.569	5.01
494.769	5.11
494.97	4.87
495.171	4.46
495.371	4.5
495.572	4.65
495.773	4.53
495.973	4.37
496.174	4.27
496.375	4.38
496.575	4.59
496.776	4.66
496.976	4.55
497.177	4.71
497.377	4.87
497.578	5.09
497.778	4.73
497.979	4.77
498.179	4.85
498.38	5.13
498.58	5.32
498.78	4.99
498.981	4.99
499.181	5.01
499.382	4.94
499.582	4.88
499.782	4.28
499.983	4.74
500.183	4.8
500.383	4.69
500.584	4.4
500.784	4.4
500.984	4.8
501.184	4.74
501.385	4.85
501.585	5.02
501.785	5.17
501.985	5.64
502.185	5.65
502.386	5.84
502.586	6.22
502.786	6.01
502.986	5.64
503.186	5.72
503.386	5.78
503.586	5.81
503.786	5.29
503.987	5.16
504.187	4.95
504.387	4.96
504.587	5.15
504.787	4.7
504.987	5.07
505.187	5.23
505.387	4.85
505.587	4.82
505.786	4.72
505.986	5.24
506.186	5.31
506.386	5.2
506.586	5.33
506.786	4.68
506.986	5.17
507.186	5.21
507.386	5.48
507.585	5.79
507.785	6.16
507.985	6.15
508.185	5.85
508.384	5.89
508.584	6.24
508.784	6.33
508.984	6.43
509.183	6.14
509.383	6.07
509.583	5.84
509.782	6.01
509.982	5.65
510.182	5.77
510.381	5.82
510.581	5.79
510.781	5.68
510.98	5.19
511.18	5.58
511.379	5.45
511.579	5.27
511.778	5.46
511.978	5.58
512.177	5.71
512.377	5.58
512.576	5.65
512.776	5.86
512.975	6.1
513.175	6.39
513.374	6.25
513.573	6.58
513.773	6.82
513.972	7.15
514.172	7.05
514.371	7.3
514.57	7.19
514.77	7.44
514.969	7.4
515.168	7.13
515.367	7.19
515.567	7.18
515.766	7.43
515.965	7.37
516.164	7.16
516.364	7.13
516.563	7.09
516.762	7.07
516.961	7.12
517.16	7.14
517.359	7.24
517.559	7.27
517.758	7.32
517.957	7.03
518.156	7.06
518.355	7
518.554	6.91
518.753	6.76
518.952	7.04
519.151	6.79
519.35	6.71
519.549	6.67
519.748	6.81
519.947	7.05
520.146	7.39
520.345	7.6
520.544	7.43
520.743	7.44
520.942	7.91
521.141	7.59
521.339	7.88
521.538	7.84
521.737	7.93
521.936	7.85
522.135	7.81
522.333	7.8
522.532	7.68
522.731	8.03
522.93	8.18
523.129	7.77
523.327	7.85
523.526	7.88
523.725	8.42
523.923	8.62
524.122	8.68
524.321	8.72
524.519	8.69
524.718	8.68
524.917	8.44
525.115	8.44
525.314	8.43
525.512	8.74
525.711	8.89
525.909	8.56
526.108	8.66
526.306	8.68
526.505	8.6
526.703	8.66
526.902	8.81
527.1	8.93
527.299	8.94
527.497	9.03
527.696	9.07
527.894	9.03
528.092	9.11
528.291	9.04
528.489	8.87
528.688	9.06
528.886	9.13
529.084	9.13
529.283	9.25
529.481	9.27
529.679	9.17
529.877	9.13
530.076	9.22
530.274	9.34
530.472	9.32
530.67	9.71
530.869	9.43
531.067	9.27
531.265	9.49
531.463	9.34
531.661	9.46
531.859	9.63
532.057	9.61
532.255	9.68
532.454	9.51
532.652	9.64
532.85	9.64
533.048	9.68
533.246	9.88
533.444	9.91
533.642	10.02
533.84	9.89
534.038	9.9
534.236	9.86
534.434	9.83
534.632	10.1
534.83	9.95
535.027	10.08
535.225	10.26
535.423	10.07
535.621	9.86
535.819	10
536.017	10.12
536.215	10.07
536.412	10.06
536.61	10.21
536.808	10.15
537.006	10.29
537.203	10.1
537.401	10.15
537.599	10.29
537.797	10.21
537.994	10.14
538.192	10.23
538.39	10.68
538.587	11.07
538.785	10.89
538.983	11.03
539.18	11.25
539.378	11.21
539.575	11.18
539.773	11.38
539.97	11.72
540.168	11.65
540.366	11.75
540.563	11.45
540.761	11.42
540.958	11.38
541.155	11.4
541.353	11.31
541.55	11.3
541.748	11.39
541.945	11.38
542.143	11.36
542.34	11.56
542.537	11.43
542.735	11.7
542.932	11.81
543.129	11.91
543.327	11.93
543.524	11.94
543.721	12.37
543.919	12.32
544.116	12.18
544.313	12.07
544.51	12.12
544.708	12.26
544.905	12.21
545.102	12.24
545.299	12.27
545.496	12.38
545.693	12.46
545.891	12.18
546.088	12.24
546.285	12.27
546.482	12.45
546.679	12.55
546.876	12.64
547.073	12.74
547.27	12.67
547.467	12.96
547.664	12.82
547.861	13.05
548.058	13.04
548.255	13.29
548.452	13.45
548.649	13.37
548.846	13.66
549.043	13.67
549.24	13.7
549.437	13.53
549.633	13.36
549.83	13.2
550.027	13.3
550.224	13.73
550.421	14.09
550.618	14.07
550.814	13.91
551.011	13.71
551.208	13.78
551.405	14.04
551.601	14.5
551.798	14.56
551.995	14.88
552.191	15.1
552.388	14.98
552.585	14.49
552.781	14.8
552.978	15.06
553.175	14.83
553.371	15.04
553.568	15.35
553.764	15.03
553.961	15.6
554.157	15.72
554.354	15.52
554.55	15.56
554.747	16.01
554.943	15.79
555.14	15.98
555.336	16.62
555.533	16.44
555.729	16.03
555.926	16.4
556.122	16.18
556.318	16.23
556.515	16.23
556.711	16.39
556.907	16.14
557.104	16.35
557.3	16.35
557.496	16.22
557.693	16.18
557.889	16.15
558.085	16.02
558.281	15.75
558.478	15.92
558.674	16.27
558.87	16.49
559.066	16.59
559.262	17.21
559.459	16.83
559.655	16.79
559.851	17.01
560.047	17.48
560.243	17.8
560.439	18.02
560.635	17.91
560.831	17.58
561.027	17.56
561.223	17.86
561.419	16.94
561.615	17.13
561.811	16.95
562.007	17.34
562.203	16.66
562.399	16.39
562.595	16.23
562.791	16.27
562.987	16.37
563.183	15.93
563.379	15.85
563.575	16.5
563.771	16.93
563.966	16.83
564.162	16.73
564.358	17.05
564.554	17.36
564.75	17.69
564.945	17.76
565.141	17.83
565.337	18.38
565.533	18.51
565.728	18.79
565.924	18.43
566.12	18.84
566.315	18.89
566.511	19.04
566.707	18.7
566.902	19
567.098	19.11
567.293	19.16
567.489	19.31
567.684	19.26
567.88	19.15
568.076	19.44
568.271	19.56
568.467	19.97
568.662	20.1
568.858	20.56
569.053	20.44
569.248	20.69
569.444	21.18
569.639	21.12
569.835	21.28
570.03	21.41
570.225	21.44
570.421	21.27
570.616	20.57
570.812	20.67
571.007	20.94
571.202	20.8
571.397	20.8
571.593	20.52
571.788	20.52
571.983	20.57
572.178	20.24
572.374	20.08
572.569	20.04
572.764	20.21
572.959	20.28
573.154	20.24
573.35	20.21
573.545	20.12
573.74	20.33
573.935	20.53
574.13	20.36
574.325	20.77
574.52	21.25
574.715	21.48
574.91	21.89
575.105	21.76
575.3	21.85
575.495	22.15
575.69	22.46
575.885	22.42
576.08	22.2
576.275	22.17
576.47	22.01
576.665	22.17
576.86	22.07
577.055	22.32
577.25	22.4
577.444	22.27
577.639	22.27
577.834	22.2
578.029	22.84
578.224	23.2
578.418	23.63
578.613	24.38
578.808	24.45
579.003	24.79
579.197	24.11
579.392	24.48
579.587	24.67
579.781	24.41
579.976	24.28
580.171	23.97
580.365	23.41
580.56	23.58
580.755	23.31
580.949	23.16
581.144	23.16
581.338	23.98
581.533	24.11
581.727	23.91
581.922	24.33
582.116	24.4
582.311	23.76
582.505	24.63
582.7	24.64
582.894	24.29
583.089	24.45
583.283	24.68
583.478	24.51
583.672	24.51
583.866	24.68
584.061	24.59
584.255	24.78
584.449	25.66
584.644	25.33
584.838	24.91
585.032	25.08
585.226	24.8
585.421	24.56
585.615	24.3
585.809	24.09
586.003	23.79
586.198	23.58
586.392	23.95
586.586	23.7
586.78	23.86
586.974	24.6
587.168	24.5
587.363	24.54
587.557	24.81
587.751	25.24
587.945	25.21
588.139	25.85
588.333	26.04
588.527	26.31
588.721	26.2
588.915	26.16
589.109	26.16
589.303	26.42
589.497	26.15
589.691	25.93
589.885	26.12
590.079	26.45
590.273	26.68
590.466	26.62
590.66	25.81
590.854	25.63
591.048	26.06
591.242	25.73
591.436	25.37
591.629	26.18
591.823	26.48
592.017	26.2
592.211	26.5
592.404	25.9
592.598	26.18
592.792	26.59
592.986	26.68
593.179	26.06
593.373	26.34
593.567	26.47
593.76	26.1
593.954	26.22
594.147	26.35
594.341	26.02
594.535	26.49
594.728	26.24
594.922	26.3
595.115	26.43
595.309	26.45
595.502	25.97
595.696	26.31
595.889	26.35
596.083	26.41
596.276	26.33
596.47	26.32
596.663	26.42
596.856	26.46
597.05	26.33
597.243	26.7
597.437	27.16
597.63	27.91
597.823	27.93
598.017	28.31
598.21	27.91
598.403	28.28
598.596	28.65
598.79	28.43
598.983	28.71
599.176	28.54
599.369	28.29
599.563	27.84
599.756	27.25
599.949	26.78
600.142	26.41
600.335	26.76
600.528	26.38
600.722	26.07
600.915	25.56
601.108	25.66
601.301	25.92
601.494	25.9
601.687	25.88
601.88	25.63
602.073	26.06
602.266	25.96
602.459	25.39
602.652	25.25
602.845	25.46
603.038	25.81
603.231	25.76
603.424	25.97
603.617	26.48
603.809	26.85
604.002	26.96
604.195	26.53
604.388	26.16
604.581	26.57
604.774	26.93
604.966	26.67
605.159	26.65
605.352	27.01
605.545	26.95
605.737	26.61
605.93	26.43
606.123	26.31
606.316	26.47
606.508	26.96
606.701	27.2
606.894	26.78
607.086	26.95
607.279	27.59
607.471	27.64
607.664	27.79
607.857	27.67
608.049	27.92
608.242	28.53
608.434	28.82
608.627	28.97
608.819	28.91
609.012	29.19
609.204	29.01
609.397	28.44
609.589	27.84
609.782	27.75
609.974	27.89
610.166	27.99
610.359	28
610.551	28.41
610.743	28.61
610.936	28.38
611.128	29.07
611.32	29.15
611.513	29.52
611.705	30.08
611.897	29.96
612.09	29.98
612.282	29.42
612.474	28.96
612.666	28.3
612.858	28.61
613.051	28.53
613.243	27.8
613.435	27.87
613.627	27.73
613.819	27.03
614.011	27.35
614.203	27.3
614.395	27.35
614.588	28.07
614.78	28.28
614.972	27.63
615.164	28.76
615.356	28.67
615.548	29.17
615.74	28.77
615.932	29.76
616.124	29.91
616.315	29.84
616.507	30.05
616.699	29.39
616.891	28.95
617.083	29.22
617.275	28.99
617.467	29.51
617.659	29.72
617.85	29.89
618.042	30
618.234	29.06
618.426	29.25
618.618	28.95
618.809	29.7
619.001	29.87
619.193	30.34
619.384	30.34
619.576	29.91
619.768	29.75
619.959	29.4
620.151	28.71
620.343	29.25
620.534	29.06
620.726	29.47
620.917	29.52
621.109	30.13
621.301	30.25
621.492	30.05
621.684	30.3
621.875	30.12
622.067	31.34
622.258	31.45
622.45	32.12
622.641	32.31
622.832	31.66
623.024	31.02
623.215	31.14
623.407	31.03
623.598	30.52
623.789	31.13
623.981	31.18
624.172	30.95
624.363	31.21
624.555	30.71
624.746	30.56
624.937	31.17
625.129	31.04
625.32	30.83
625.511	30.55
625.702	30.74
625.893	30.3
626.085	30.35
626.276	30.2
626.467	29.84
626.658	29.74
626.849	30.07
627.04	30.05
627.231	31.01
627.422	31.33
627.614	31.69
627.805	32.11
627.996	32.4
628.187	32.39
628.378	32.43
628.569	32.78
628.76	32.79
628.951	32.88
629.142	33.03
629.332	32.69
629.523	32.08
629.714	31.48
629.905	31.25
630.096	31.7
630.287	32.06
630.478	32.22
630.669	32.12
630.859	32
631.05	31.27
631.241	31.52
631.432	31.32
631.623	31.74
631.813	31.79
632.004	32.1
632.195	31.73
632.385	31.29
632.576	30.74
632.767	30.45
632.957	31.23
633.148	31.33
633.339	31.02
633.529	30.95
633.72	30.64
633.91	30.95
634.101	30.49
634.292	30.31
634.482	30.47
634.673	31.29
634.863	32.11
635.054	31.65
635.244	31.8
635.435	31.58
635.625	31.37
635.815	31.71
636.006	31.59
636.196	32.22
636.387	32.28
636.577	32.37
636.767	31.9
636.958	31.68
637.148	31.59
637.338	32.13
637.529	31.67
637.719	32.2
637.909	32.28
638.099	32.43
638.29	32.07
638.48	31.9
638.67	32.57
638.86	32.7
639.05	32.33
639.241	32.61
639.431	33.15
639.621	33.97
639.811	34.46
640.001	34.55
640.191	34.29
640.381	34.66
640.571	35.16
640.761	34.53
640.951	34.85
641.141	35.11
641.331	35.05
641.521	34.3
641.711	34.5
641.901	33.66
642.091	33.49
642.281	34.25
642.471	34.03
642.661	32.96
642.851	32.53
643.041	32.18
643.231	31.76
643.42	31.9
643.61	31.74
643.8	31.83
643.99	32.5
644.18	32.75
644.369	32.04
644.559	32.1
644.749	32.73
644.939	33.33
645.128	32.55
645.318	32.95
645.508	33.51
645.697	33.35
645.887	32.93
646.076	31.94
646.266	32.05
646.456	32.26
646.645	32.61
646.835	32.78
647.024	32.5
647.214	33.35
647.403	33.94
647.593	33.03
647.782	33.31
647.972	33.89
648.161	34.52
648.351	34
648.54	33.99
648.73	33.21
648.919	33.08
649.108	33.27
649.298	33.66
649.487	33.22
649.677	33.49
649.866	33.67
650.055	33.38
650.244	33.22
650.434	33.04
650.623	33.09
650.812	33.57
651.002	33.66
651.191	33.75
651.38	33.34
651.569	33.48
651.758	33.04
651.947	33.03
652.137	33.31
652.326	33.1
652.515	32.89
652.704	33.4
652.893	33.47
653.082	33.79
653.271	33.39
653.46	33.88
653.649	34.35
653.838	34.83
654.027	34.39
654.216	34.49
654.405	35.03
654.594	35.81
654.783	35.39
654.972	34.68
655.161	33.98
655.35	34.56
655.539	34.43
655.728	33.87
655.916	33.03
656.105	32.96
656.294	32.91
656.483	32.62
656.672	32.74
656.86	33.37
657.049	34.18
657.238	33.84
657.427	33.92
657.615	32.73
657.804	31.58
657.993	31.84
658.181	31.87
658.37	31.32
658.559	31.68
658.747	31.43
658.936	30.35
659.125	29.86
659.313	30.88
659.502	30.9
659.69	31.75
659.879	32.44
660.067	33.39
660.256	33.74
660.444	34.26
660.633	33.18
660.821	33.08
661.01	33.95
661.198	34.22
661.387	33.25
661.575	32.74
661.763	32.33
661.952	32.95
662.14	32.8
662.328	32.83
662.517	32.79
662.705	33.87
662.893	33.84
663.082	33.6
663.27	33.29
663.458	34.3
663.646	34.63
663.834	35.59
664.023	35.81
664.211	34.96
664.399	35.57
664.587	35.38
664.775	35.59
664.963	35.82
665.152	35.93
665.34	36.8
665.528	36.29
665.716	36.34
665.904	35.24
666.092	34.73
666.28	34.9
666.468	33.97
666.656	33.6
666.844	33.17
667.032	33.45
667.22	33.43
667.408	32.97
667.596	33.65
667.784	33.34
667.971	33.82
668.159	34.39
668.347	35.4
668.535	35.42
668.723	35.83
668.911	35.96
669.098	36.12
669.286	36.47
669.474	36.15
669.662	36.24
669.849	36.38
670.037	36.75
670.225	36.8
670.413	37.15
670.6	36.84
670.788	37.35
670.976	37.8
671.163	36.99
671.351	36.3
671.538	36.2
671.726	35.09
671.913	35.95
672.101	36.38
672.289	36.83
672.476	36.59
672.664	37.63
672.851	36.93
673.039	36.4
673.226	36.41
673.413	36.6
673.601	36.94
673.788	38.15
673.976	36.59
674.163	36.93
674.35	37.1
674.538	36.48
674.725	37.33
674.912	37.25
675.1	37.97
675.287	38.47
675.474	38.84
675.662	38.75
675.849	38.47
676.036	38.49
676.223	37.31
676.411	36.77
676.598	36.27
676.785	34.73
676.972	35.61
677.159	34.08
677.346	33.76
677.533	32.85
677.721	32.25
677.908	32.38
678.095	33.11
678.282	34.07
678.469	34.09
678.656	34.43
678.843	33.62
679.03	32.6
679.217	33.7
679.404	34.39
679.591	35.06
679.778	35.94
679.964	35.39
680.151	35.08
680.338	34.23
680.525	34.27
680.712	34
680.899	35.61
681.086	35.75
681.272	35.42
681.459	35.87
681.646	36.47
681.833	36.79
682.02	36.51
682.206	36.7
682.393	37.4
682.58	37.16
682.766	38.99
682.953	38.35
683.14	39.06
683.326	39.25
683.513	37.57
683.7	36.72
683.886	36.23
684.073	37.38
684.259	37.59
684.446	37.28
684.632	37.35
684.819	36.07
685.005	36.14
685.192	36.15
685.378	36.03
685.565	37.18
685.751	37.53
685.938	37.61
686.124	36.88
686.31	37.65
686.497	37.91
686.683	38.54
686.87	39.06
687.056	39.46
687.242	39.43
687.429	40.23
687.615	40.67
687.801	40.47
687.987	41.11
688.174	40.63
688.36	39.64
688.546	39.27
688.732	38.36
688.918	38.14
689.105	37.14
689.291	37.11
689.477	35.62
689.663	35.53
689.849	35.55
690.035	35.53
690.221	36.36
690.407	37.53
690.593	37.84
690.779	38.08
690.965	37.51
691.151	38.8
691.337	39.17
691.523	39.82
691.709	39.13
691.895	39.95
692.081	38.63
692.267	38.24
692.453	37.63
692.639	39.42
692.825	39.76
693.011	40.4
693.196	40.05
693.382	39.46
693.568	40.05
693.754	39.69
693.94	38.51
694.125	39.47
694.311	40.08
694.497	39.76
694.682	38.75
694.868	39.76
695.054	38.89
695.239	38.18
695.425	38.07
695.611	38.88
695.796	39.03
695.982	38.65
696.168	37.99
696.353	38.42
696.539	36.96
696.724	36.12
696.91	35.85
697.095	36.1
697.281	36.72
697.466	36.57
697.652	34.83
697.837	34.93
698.023	35.52
698.208	35.05
698.393	33.97
698.579	34.42
698.764	33.96
698.949	33.29
699.135	32.83
699.32	32.02
699.505	32.62
699.691	33.26
699.876	33.1
700.061	32.1
700.246	32.8
700.432	34.3
700.617	35.41
700.802	36.24
700.987	36.84
701.172	36.82
701.358	36.72
701.543	36.5
701.728	36.93
701.913	35.68
702.098	36.77
702.283	37.94
702.468	36.63
702.653	35.93
702.838	35.94
703.023	36.75
703.208	37.26
703.393	39.15
703.578	40.22
703.763	40.47
703.948	41.2
704.133	40.86
704.318	40.2
704.503	40.54
704.688	40.46
704.873	39.16
705.057	39.4
705.242	40.03
705.427	38.35
705.612	38.01
705.797	37.21
705.981	38.29
706.166	39.55
706.351	39.46
706.536	39.23
706.72	39.6
706.905	40
707.09	38.64
707.274	38.67
707.459	40.43
707.644	39.65
707.828	39.78
708.013	39.42
708.197	38.09
708.382	37.53
708.567	37.16
708.751	35.79
708.936	38.13
709.12	37.23
709.305	37.26
709.489	36.07
709.673	37.32
709.858	38.2
710.042	37.87
710.227	36.93
710.411	37.06
710.596	37.57
710.78	38.43
710.964	36.53
711.149	38.69
711.333	38.8
711.517	38.72
711.702	37.89
711.886	36.57
712.07	35.44
712.254	37.12
712.438	37.17
712.623	37.82
712.807	37.19
712.991	38.75
713.175	36.87
713.359	36.85
713.544	37.29
713.728	37.76
713.912	39.27
714.096	40.72
714.28	39.96
714.464	40.73
714.648	39.98
714.832	41.23
715.016	40.44
715.2	40.61
715.384	39.7
715.568	40.59
715.752	39.55
715.936	39.69
716.12	39.59
716.304	39.34
716.488	38.29
716.671	38.53
716.855	38.16
717.039	36.92
717.223	37.86
717.407	38.23
717.59	37.53
717.774	38.5
717.958	37.34
718.142	36.33
718.325	38.13
718.509	38.58
718.693	37.84
718.877	37.53
719.06	38.6
719.244	38.76
719.428	39.4
719.611	38.8
719.795	38.14
719.978	38.71
720.162	39.21
720.345	37.95
720.529	38.85
720.713	39.73
720.896	41.69
721.08	43.05
721.263	42.92
721.446	42.45
721.63	42.04
721.813	42.1
721.997	44.6
722.18	44.4
722.364	45.16
722.547	44.59
722.73	45.81
722.914	44.63
723.097	43.02
723.28	43.6
723.464	43.14
723.647	43.26
723.83	43.45
724.013	41.62
724.197	43.51
724.38	43.61
724.563	43
724.746	41.52
724.929	41.4
725.112	41.04
725.296	40.23
725.479	41.57
725.662	42.08
725.845	41.35
726.028	41.03
726.211	41.05
726.394	40.94
726.577	41.24
726.76	42.15
726.943	41.46
727.126	41.58
727.309	40.26
727.492	39.18
727.675	37.84
727.858	38.57
728.041	37.69
728.224	37.97
728.407	38.35
728.589	37.72
728.772	37.68
728.955	37.06
729.138	36.57
729.321	37.33
729.503	39.9
729.686	41.19
729.869	40.65
730.052	42.47
730.234	41.24
730.417	41.01
730.6	41.88
730.782	41.35
730.965	42.8
731.148	46.18
731.33	47.62
731.513	45.97
731.695	46.76
731.878	48.06
732.061	45.49
732.243	44.75
732.426	45.07
732.608	44.52
732.791	43.81
732.973	43.52
733.156	41.94
733.338	41.74
733.52	41.76
733.703	41.31
733.885	40.11
734.068	40.75
734.25	41.65
734.432	42.27
734.615	40.95
734.797	42.1
734.979	41.9
735.162	41.93
735.344	41.37
735.526	41.22
735.708	41.24
735.891	40.8
736.073	41.22
736.255	41.52
736.437	41.82
736.619	43.47
736.802	43.61
736.984	44.09
737.166	42.75
737.348	43.39
737.53	42.33
737.712	42.23
737.894	44.43
738.076	46.29
738.258	46.12
738.44	44.15
738.622	44.15
738.804	44.71
738.986	44.67
739.168	46.5
739.35	47.53
739.532	48.87
739.714	48.85
739.896	49.66
740.078	50.21
740.259	50.31
740.441	50.75
740.623	53.22
740.805	52.69
740.987	53.26
741.168	50.35
741.35	48.09
741.532	47.91
741.714	48.89
741.895	47.72
742.077	44.63
742.259	45.19
742.44	45.99
742.622	44.86
742.804	45.01
742.985	42.49
743.167	43.54
743.348	43.77
743.53	45.16
743.711	45.89
743.893	44.69
744.075	44.69
744.256	44.46
744.438	45.73
744.619	45.49
744.8	44.4
744.982	49.42
745.163	50.29
745.345	51.41
745.526	50.41
745.707	48.25
745.889	48.41
746.07	49.91
746.252	51.22
746.433	48.28
746.614	48.77
746.795	52.11
746.977	48.64
747.158	47.85
747.339	47.32
747.52	46.53
747.702	45.65
747.883	46.33
748.064	46.98
748.245	45.36
748.426	45.92
748.607	43.66
748.788	38.64
748.97	39.4
749.151	40.8
749.332	40.65
749.513	41.5
749.694	42.68
749.875	44.39
750.056	42.04
750.237	43.19
750.418	43.4
750.599	44.83
750.78	49.66
750.96	49.92
751.141	49.88
751.322	49.13
751.503	49.57
751.684	51.51
751.865	49.88
752.046	52.26
752.226	49.22
752.407	49.36
752.588	49.58
752.769	48.12
752.949	47.16
753.13	45.97
753.311	47.46
753.492	46.26
753.672	45.92
753.853	46.4
754.034	45.91
754.214	48.3
754.395	48.95
754.575	50.27
754.756	49.66
754.937	50.05
755.117	49.1
755.298	49.81
755.478	50.31
755.659	50.37
755.839	49.85
756.02	49.77
756.2	50.89
756.381	51.09
756.561	48.58
756.741	48.68
756.922	48.69
757.102	51.08
757.283	50.55
757.463	52.17
757.643	50.96
757.823	52.98
758.004	52.7
758.184	49.96
758.364	49.11
758.545	50.21
758.725	51.33
758.905	52.43
759.085	50.13
759.265	49.04
759.446	48.48
759.626	49.12
759.806	46.51
759.986	43.89
760.166	44.32
760.346	45.12
760.526	44.79
760.706	44.96
760.886	42.37
761.066	44.36
761.246	45.45
761.426	44.66
761.606	44.33
761.786	43.24
761.966	45.79
762.146	46.19
762.326	45.87
762.506	45.27
762.686	45.18
762.866	44.89
763.046	44.62
763.225	42.83
763.405	43.02
763.585	43.11
763.765	44.86
763.945	45
764.124	46.34
764.304	45.41
764.484	46.39
764.664	44.89
764.843	44.02
765.023	43.42
765.203	44.4
765.382	44.44
765.562	43.18
765.741	42.82
765.921	41.82
766.101	42.27
766.28	41.58
766.46	43.06
766.639	44.75
766.819	47.05
766.998	47.83
767.178	47.89
767.357	47.76
767.537	51.42
767.716	53.02
767.896	53.55
768.075	51.43
768.254	53.78
768.434	51.36
768.613	49.63
768.792	48.99
768.972	48.14
769.151	49.7
769.33	49.52
769.51	47.01
769.689	46.42
769.868	47
770.047	46.08
770.226	44.59
770.406	46.26
770.585	47.37
770.764	50.17
770.943	51.93
771.122	51.69
771.301	52.37
771.48	54.27
771.66	51.4
771.839	52.16
772.018	54.54
772.197	55.7
772.376	54.09
772.555	56.23
772.734	53.92
772.913	51.19
773.092	51.71
773.271	50.2
773.449	50.87
773.628	50.76
773.807	50.95
773.986	48.3
774.165	52.52
774.344	55.27
774.523	55.19
774.701	56.27
774.88	57.31
775.059	57.13
775.238	58.46
775.417	55.04
775.595	58.01
775.774	57.69
775.953	64.34
776.131	61.21
776.31	57.41
776.489	55
776.667	57.12
776.846	58.8
777.025	60.79
777.203	60.86
777.382	62.92
777.56	62.28
777.739	61.36
777.917	59.54
778.096	56.8
778.274	57.68
778.453	59.72
778.631	55.89
778.81	54.68
778.988	52.78
779.166	51.23
779.345	48.62
779.523	48.46
779.702	47.55
779.88	44.59
780.058	47.59
780.237	50.47
780.415	51.35
780.593	52.67
780.771	52.82
780.95	54.22
781.128	54.57
781.306	56.57
781.484	54.31
781.662	55.7
781.841	56.73
782.019	57.28
782.197	54.51
782.375	50.38
782.553	54.24
782.731	54.2
782.909	53.45
783.087	52.49
783.265	52.04
783.443	54.33
783.621	56.02
783.799	56.95
783.977	56.36
784.155	55.76
784.333	57.33
784.511	54.14
784.689	54.36
784.867	52.99
785.045	54.1
785.223	55.67
785.4	56.64
785.578	54.93
785.756	54.78
785.934	54.42
786.112	55.2
786.289	55.7
786.467	53.49
786.645	50.88
786.823	49.68
787	49.91
787.178	49.56
787.356	47.95
787.533	43.66
787.711	43.26
787.889	41.98
788.066	41.53
788.244	40.58
788.421	42.49
788.599	48.56
788.776	49.03
788.954	48.47
789.131	50.09
789.309	48.16
789.486	50.52
789.664	52.43
789.841	51.68
790.019	50.66
790.196	48.99
790.373	47.91
790.551	44.38
790.728	44.16
790.906	47.03
791.083	51.97
791.26	55.6
791.437	58.08
791.615	57.25
791.792	55.82
791.969	60.76
792.146	62.4
792.324	66.02
792.501	67.32
792.678	68.73
792.855	69.71
793.032	61.97
793.209	62.67
793.387	63.3
793.564	63.68
793.741	66.06
793.918	64.49
794.095	67.29
794.272	66.22
794.449	63.68
794.626	67.3
794.803	62.69
794.98	61.49
795.157	61.85
795.334	58.57
795.511	58.95
795.688	58.75
795.864	56.89
796.041	56.6
796.218	56.43
796.395	55.88
796.572	50.89
796.749	56.5
796.925	59.17
797.102	58.19
797.279	59.21
797.456	56.88
797.632	59.07
797.809	58.65
797.986	56.46
798.162	50.62
798.339	52.99
798.516	52.92
798.692	48.69
798.869	45.94
799.046	43.04
799.222	42.63
799.399	43.46
799.575	44.74
799.752	46.01
799.928	48.54
800.105	53.96
800.281	51.78
800.458	54.05
800.634	56.82
800.811	58.93
800.987	64.18
801.163	68.3
801.34	69.25
801.516	69.44
801.692	69.52
801.869	66.53
802.045	66.94
802.221	69.35
802.398	67.5
802.574	67.25
802.75	69.76
802.926	66.79
803.103	67.88
803.279	66.78
803.455	65.1
803.631	66.8
803.807	66.07
803.983	65.09
804.16	62.8
804.336	62.52
804.512	59.29
804.688	51.06
804.864	51.19
805.04	47.24
805.216	46.26
805.392	45.85
805.568	44.43
805.744	48.68
805.92	51.72
806.096	56.52
806.272	54.05
806.448	51.51
806.623	56.64
806.799	56.14
806.975	54.7
807.151	54.76
807.327	55.35
807.503	53.13
807.678	56.53
807.854	55.6
808.03	51.49
808.206	58.2
808.381	64.85
808.557	62.73
808.733	61.03
808.908	60.97
809.084	62.01
809.26	58.58
809.435	59.8
809.611	52.18
809.787	52.57
809.962	52.73
810.138	50.61
810.313	49.06
810.489	50.28
810.664	51.66
810.84	52.81
811.015	52.67
811.191	55.29
811.366	57.99
811.542	62.1
811.717	58.93
811.892	58.56
812.068	55.98
812.243	53.5
812.419	55.69
812.594	55.17
812.769	53.01
812.944	56.26
813.12	56.68
813.295	50.45
813.47	45.38
813.645	47.12
813.821	45.19
813.996	44.15
814.171	42.33
814.346	37.92
814.521	38.93
814.697	40.99
814.872	34.87
815.047	33.04
815.222	38.5
815.397	38.11
815.572	40.27
815.747	46.22
815.922	47.55
816.097	53.27
816.272	57.19
816.447	58.98
816.622	60.95
816.797	62.51
816.972	63.77
817.147	58.1
817.322	59.88
817.496	58.56
817.671	62.08
817.846	62.11
818.021	58.9
818.196	53.78
818.371	48.21
818.545	45.5
818.72	42.77
818.895	44.51
819.069	48.54
819.244	48.4
819.419	48.42
819.594	44.5
819.768	42.73
819.943	40.79
820.117	39.78
820.292	39.25
820.467	38.65
820.641	39
820.816	36.69
820.99	35.69
821.165	34.83
821.339	33.5
821.514	33.44
821.688	32.8
821.863	33.35
822.037	33.7
822.212	33.64
822.386	33.91
822.56	33.47
822.735	33.03
822.909	32.59
823.084	32.9
823.258	32.72
823.432	33.39
823.606	33.34
823.781	32.29
823.955	32.38
824.129	33.04
824.303	32.67
824.478	32.26
824.652	32.14
824.826	32.42
825	32.05
825.174	33.15
825.348	31.73
825.523	32.74
825.697	32.7
825.871	32.2
826.045	32.2
826.219	32.43
826.393	32.43
826.567	33.8
826.741	34.93
826.915	36.01
827.089	36.8
827.263	36.83
827.437	36.97
827.611	38.2
827.784	40.26
827.958	39.83
828.132	38.97
828.306	39.64
828.48	40.64
828.654	40
828.827	41.08
829.001	42.18
829.175	42.79
829.349	45.18
829.522	44.24
829.696	43.99
829.87	46.25
830.044	49.71
830.217	52.11
830.391	51.41
830.565	51.34
830.738	49.56
830.912	49.01
831.085	49.21
831.259	46.49
831.432	48.38
831.606	45.69
831.779	41.99
831.953	39.69
832.126	40.21
832.3	36.75
832.473	36.78
832.647	38.58
832.82	36.65
832.994	36.76
833.167	37.43
833.34	36.27
833.514	39.79
833.687	41
833.86	39.72
834.034	37.51
834.207	41.33
834.38	41.66
834.553	41.06
834.727	40.07
834.9	41.54
835.073	40.17
835.246	40.17
835.419	36.26
835.593	37.46
835.766	41.38
835.939	40.65
836.112	40.36
836.285	37.47
836.458	35.08
836.631	35.27
836.804	33.98
836.977	36.58
837.15	40.12
837.323	42.21
837.496	43.53
837.669	39.29
837.842	43.2
838.015	40.9
838.188	41.73
838.361	42.2
838.533	43.24
838.706	39.2
838.879	38.9
839.052	41.52
839.225	44.69
839.398	42.94
839.57	43.87
839.743	44.59
839.916	45.8
840.088	49.2
840.261	48.9
840.434	50.06
840.607	49.98
840.779	52.98
840.952	45.01
841.124	43.7
841.297	47.09
841.47	48.92
841.642	53.86
841.815	58.44
841.987	52.94
842.16	58.39
842.332	55.68
842.505	58.7
842.677	57.74
842.85	66.76
843.022	60.59
843.194	54.1
843.367	53.93
843.539	57.43
843.712	60.02
843.884	65.8
844.056	66.97
844.229	72.32
844.401	65.47
844.573	61.11
844.745	52.31
844.918	51.5
845.09	56.23
845.262	58.24
845.434	48.36
845.606	37.47
845.779	37.73
845.951	40.86
846.123	37.45
846.295	57.07
846.467	65.54
846.639	61.93
846.811	63.6
846.983	69.31
847.155	70.2
847.327	65.49
847.499	67.74
847.671	70.4
847.843	54.11
848.015	54.55
848.187	52.06
848.359	53.03
848.531	57.91
848.703	63.84
848.875	66.42
849.047	67.26
849.218	72.12
849.39	75.39
849.562	78.33
849.734	91.85
849.905	100.62
850.077	88.95
850.249	93.72
850.421	103.4
850.592	99.26
850.764	94.26
850.936	87.31
851.107	96.49
851.279	87.08
851.451	79.08
851.622	73.61
851.794	71.19
851.965	80.62
852.137	76.48
852.308	80.73
852.48	78.18
852.651	73.66
852.823	88.76
852.994	76.02
853.166	77.62
853.337	79.01
853.509	71.02
853.68	73.95
853.851	70.69
854.023	67.39
854.194	51.73
854.365	54.85
854.537	47.41
854.708	37.14
854.879	38.58
855.05	38.19
855.222	40.45
855.393	47.7
855.564	36.14
855.735	34.88
855.906	33.41
856.078	40.19
856.249	47.41
856.42	59.83
856.591	64.02
856.762	68.96
856.933	80.12
857.104	88.19
857.275	91.81
857.446	107.77
857.617	96.75
857.788	95.55
857.959	88.49
858.13	82.52
858.301	72.92
858.472	56.19
858.643	54.11
858.814	51.5
858.985	55.38
859.155	48.18
859.326	52.19
859.497	52.34
859.668	47.03
859.839	46.46
860.009	47.19
860.18	62.1
860.351	73.23
860.522	67.84
860.692	69.04
860.863	66.86
861.034	73.15
861.204	71.85
861.375	77.33
861.546	83.42
861.716	78.42
861.887	79.29
862.057	65.79
862.228	67.32
862.398	60.54
862.569	61.42
862.739	52.56
862.91	53.38
863.08	47.8
863.251	48.23
863.421	38.35
863.592	59.19
863.762	59.75
863.932	49.21
864.103	39.83
864.273	37.91
864.443	27.5
864.614	31.2
864.784	34.73
864.954	32.82
865.125	20.51
865.295	36.14
865.465	7.84
865.635	3.61
865.805	27.62
865.976	41.03
866.146	48.54
866.316	44.56
866.486	53.55
866.656	47.57
866.826	49.54
866.996	54.6
867.166	60.61
867.336	64.73
867.506	68.9
867.676	69.74
867.846	66.2
868.016	71.25
868.186	74.18
868.356	78.17
868.526	80.12
868.696	70.99
868.866	70.63
869.036	65.77
869.206	63.76
869.376	55.16
869.545	42.76
869.715	51.19
869.885	31.27
870.055	42.6
870.224	38.11
870.394	27.27
870.564	28.53
870.734	18.42
870.903	22.52
871.073	27.76
871.243	33.71
871.412	42.06
871.582	51.5
871.751	54.16
871.921	49.17
872.091	46.95
872.26	55.18
872.43	77.14
872.599	77.34
872.769	85
872.938	75.51
873.108	68.79
873.277	64.55
873.446	60.66
873.616	71.8
873.785	82.25
873.955	61.69
874.124	66.24
874.293	48.95
874.463	53.73
874.632	51.7
874.801	54.62
874.971	54.97
875.14	56.42
875.309	35.46
875.478	42.65
875.647	39.11
875.817	46.06
875.986	41.76
876.155	40.87
876.324	45.33
876.493	41.56
876.662	39.24
876.831	38.8
877	40.98
877.17	56.92
877.339	49.83
877.508	50.13
877.677	46.76
877.846	46.16
878.015	50.47
878.184	48.28
878.352	44.78
878.521	51.26
878.69	45.72
878.859	49.76
879.028	51.76
879.197	56.44
879.366	55.54
879.534	57.89
879.703	56.75
879.872	53.31
880.041	51.74
880.21	50.13
880.378	46.79
880.547	45.58
880.716	41.47
880.884	39.85
881.053	37.68
881.222	38.89
881.39	35.98
881.559	36.24
881.727	35.79
881.896	35.12
882.065	35.54
882.233	34.46
882.402	34.79
882.57	35.71
882.739	34.81
882.907	33.87
883.076	32.4
883.244	34.05
883.412	35.06
883.581	33.78
883.749	34.14
883.918	33.09
884.086	33.61
884.254	34.86
884.423	33.68
884.591	34.11
884.759	35.02
884.927	36.76
885.096	33.42
885.264	28.99
885.432	30.47
885.6	33.45
885.769	39.43
885.937	41.04
886.105	41.27
886.273	42.97
886.441	39.99
886.609	41.81
886.777	35.47
886.945	35.42
887.113	38.67
887.281	38.87
887.449	33.26
887.617	28.29
887.785	28.52
887.953	28.97
888.121	27.73
888.289	38.19
888.457	40.87
888.625	48.43
888.793	58.01
888.961	63.95
889.129	65.59
889.296	70
889.464	67.72
889.632	70.56
889.8	73.52
889.967	76.92
890.135	75.03
