Data from JASIL_3021_Reflection_01.txt Node
Date: Mon Nov 09 10:45:00 EST 2015
User: Geneva
Spectrometer: USB4E03002
Autoset integration time: false
Trigger mode: 4
Integration Time (sec): 1.000000E-1
Scans to average: 10
Electric dark correction enabled: false
Nonlinearity correction enabled: false
Boxcar width: 5
Stray light correction enabled: false
XAxis mode: Wavelengths
Stop averaging: false
Number of Pixels in Spectrum: 3648
>>>>>Begin Spectral Data<<<<<
177.575	78.67
177.794	51.74
178.014	47.3
178.233	40.3
178.452	45.89
178.672	7.02
178.891	-573.91
179.11	604.88
179.33	4418.18
179.549	432.05
179.768	315.26
179.987	1000
180.207	-871.67
180.426	-937.31
180.645	-178.2
180.864	-127.1
181.084	-145.93
181.303	-128.47
181.522	-175.41
181.741	-189
181.96	-280
182.179	-160
182.398	-189.81
182.618	-334.6
182.837	-435.92
183.056	-1062.11
183.275	829.63
183.494	-1020
183.713	-2497.5
183.932	-1055.32
184.151	-2693.94
184.37	-450.79
184.589	-5583.33
184.808	516.67
185.027	314.55
185.246	192.58
185.465	120.59
185.684	187.86
185.903	85.02
186.122	69.54
186.341	81.03
186.56	110.17
186.779	-232.65
186.998	169.23
187.216	74
187.435	-39.58
187.654	-32.53
187.873	-55.47
188.092	-59.8
188.311	-60.4
188.53	-80.51
188.748	-58.36
188.967	-177.55
189.186	631.18
189.405	336.52
189.623	514.95
189.842	698.41
190.061	-8060
190.28	-267.02
190.498	-255.24
190.717	-164.29
190.936	-228.16
191.154	-229.08
191.373	-246.23
191.592	-274.83
191.81	-170.74
192.029	-213.76
192.248	-198.27
192.466	-196.9
192.685	-210.34
192.904	-2713.04
193.122	744.93
193.341	-7200
193.559	2591.67
193.778	230.68
193.996	391.07
194.215	290.43
194.433	222.94
194.652	151.9
194.87	111.53
195.089	153.21
195.307	286.67
195.526	304.32
195.744	358.05
195.963	554.41
196.181	-1931.91
196.399	-549.4
196.618	-570.8
196.836	-389.95
197.055	-374.3
197.273	-383.98
197.491	-332
197.71	-231.7
197.928	-189.33
198.146	-253.06
198.365	-311.27
198.583	-7300
198.801	336.28
199.019	357.53
199.238	202.85
199.456	364.49
199.674	554.02
199.892	874.07
200.111	947
200.329	1216.07
200.547	-3541.67
200.765	449.35
200.983	-177.48
201.202	-131.55
201.42	-30.8
201.638	8.01
201.856	-63.7
202.074	-126.26
202.292	-266.67
202.51	-181.94
202.728	-7175
202.946	303.79
203.165	-2842.11
203.383	1200
203.601	2659.09
203.819	-620.93
204.037	-630
204.255	-212.5
204.473	-187.97
204.691	-399.02
204.909	2147.62
205.127	-1739.39
205.345	-1052.94
205.562	966.67
205.78	-872
205.998	-568.12
206.216	-456.6
206.434	-713.48
206.652	-10371.43
206.87	1500
207.088	464.24
207.306	478.98
207.523	484.09
207.741	620.88
207.959	196.4
208.177	141.39
208.395	276.13
208.612	173.45
208.83	154.13
209.048	177.18
209.266	253.68
209.483	454.1
209.701	-1200
209.919	14000
210.136	747.27
210.354	5658.33
210.572	-1463.83
210.79	-1719.44
211.007	580.29
211.225	489.47
211.442	1821.05
211.66	-476.23
211.878	-963.16
212.095	-2954.72
212.313	-56366.67
212.53	-1391.8
212.748	-636.49
212.966	-3541.46
213.183	-74400
213.401	-590.27
213.618	-414.56
213.836	-458.57
214.053	-594.37
214.271	-875.84
214.488	-133.86
214.705	-157.49
214.923	-199.49
215.14	-433.07
215.358	-278.77
215.575	-78.37
215.793	-460.61
216.01	-1241.67
216.227	-959.26
216.445	312.8
216.662	595.92
216.879	203.77
217.097	184.98
217.314	251.61
217.531	398.28
217.749	-53.02
217.966	-173.08
218.183	-23.14
218.4	-1.33
218.618	39.5
218.835	29.86
219.052	52.72
219.269	19.52
219.487	-7.53
219.704	-26.52
219.921	-94.48
220.138	-211.11
220.355	-196.45
220.572	-19266.67
220.79	612.04
221.007	507.35
221.224	742.71
221.441	585.23
221.658	-308.53
221.875	-191.79
222.092	-114.46
222.309	-80.56
222.526	-79.34
222.743	-80.09
222.96	-91.54
223.177	-61.44
223.394	-57.35
223.611	-52.18
223.828	-56.86
224.045	-80.39
224.262	-100
224.479	-100.52
224.696	-83.64
224.913	-82.09
225.13	-66.73
225.347	-41.64
225.564	-62.9
225.781	-53.98
225.997	-34.51
226.214	-32.03
226.431	-17.53
226.648	-10.99
226.865	-10.79
227.082	-5.17
227.298	-2.82
227.515	-10.81
227.732	-12.73
227.949	-10.39
228.165	-13.6
228.382	-18.39
228.599	-13.95
228.816	-17.69
229.032	-20.6
229.249	-26.29
229.466	-30.54
229.682	-36.84
229.899	-27.53
230.116	-32.59
230.332	-32.92
230.549	-34.79
230.765	-47.67
230.982	-53.68
231.199	-48.65
231.415	-48.31
231.632	-57.97
231.848	-64.76
232.065	-48.67
232.281	-62.15
232.498	-61.51
232.714	-52.4
232.931	-35.75
233.147	-29.64
233.364	-24.18
233.58	-37.33
233.797	-44.45
234.013	-31.62
234.23	-31.03
234.446	-31.96
234.662	-20.38
234.879	-17.37
235.095	-13.68
235.312	-19.01
235.528	-27.29
235.744	-31.79
235.961	-34.43
236.177	-39.29
236.393	-43.3
236.61	-53.18
236.826	-54.85
237.042	-49.53
237.258	-45.25
237.475	-51.89
237.691	-50.55
237.907	-36.14
238.123	-35.9
238.339	-18.76
238.556	-8.86
238.772	-9.07
238.988	-9.24
239.204	-3.22
239.42	-1.46
239.636	-2.92
239.853	-1.93
240.069	-3.65
240.285	-10.16
240.501	-6.4
240.717	-7.39
240.933	-5.48
241.149	-2.4
241.365	-0.74
241.581	-3.78
241.797	-3.91
242.013	-1.51
242.229	-1.92
242.445	-3.67
242.661	0.9
242.877	-2.92
243.093	-7.28
243.309	-9.68
243.525	-14.95
243.741	-7.71
243.957	-7.03
244.173	-13.24
244.388	-12.82
244.604	-8.99
244.82	-6.01
245.036	-4.71
245.252	-1.21
245.468	-0.54
245.683	-0.39
245.899	1.2
246.115	-0.16
246.331	-0.56
246.547	0.38
246.762	-1.49
246.978	-2.53
247.194	-2.59
247.409	-3.89
247.625	-7.23
247.841	-5.16
248.057	-5.5
248.272	-9.07
248.488	-10.58
248.703	-10.34
248.919	-13.03
249.135	-13.39
249.35	-13.76
249.566	-11.43
249.782	-20.2
249.997	-21.82
250.213	-22.61
250.428	-20.32
250.644	-20.41
250.859	-18.08
251.075	-17.65
251.29	-16.61
251.506	-10.74
251.721	-13.4
251.937	-17.3
252.152	-10.86
252.368	-8.89
252.583	-9.78
252.798	-9.89
253.014	-5.15
253.229	-6.84
253.445	-11.33
253.66	-11.97
253.875	-18.94
254.091	-19.38
254.306	-17.95
254.521	-15.35
254.737	-22.83
254.952	-15.97
255.167	-21.92
255.383	-25.73
255.598	-24.23
255.813	-16.97
256.028	-17.4
256.244	-11.71
256.459	-9.88
256.674	-9.22
256.889	-9.55
257.104	-4.22
257.32	-6.16
257.535	-3.35
257.75	-1.06
257.965	0.87
258.18	1.95
258.395	1.26
258.61	0.38
258.826	0.55
259.041	-0.42
259.256	0.03
259.471	-1.46
259.686	-1.91
259.901	-2.7
260.116	-7.01
260.331	-8.62
260.546	-12.9
260.761	-10.94
260.976	-10.56
261.191	-12.92
261.406	-11.71
261.621	-13.7
261.836	-11.69
262.05	-12.71
262.265	-15.05
262.48	-11.29
262.695	-14.43
262.91	-9.82
263.125	-11.94
263.34	-17.74
263.555	-13.83
263.769	-13.79
263.984	-13.2
264.199	-12.44
264.414	-12.12
264.629	-13.13
264.843	-10.45
265.058	-9.63
265.273	-11.8
265.488	-11.49
265.702	-9.7
265.917	-9.53
266.132	-6.38
266.346	-5.93
266.561	-4.37
266.776	-4.37
266.99	-4.14
267.205	-2.59
267.42	-1.04
267.634	-0.43
267.849	-0.22
268.063	0.9
268.278	0.17
268.492	0.48
268.707	-2.48
268.922	-1.44
269.136	-0.39
269.351	0.84
269.565	0.25
269.78	-0.52
269.994	-1.58
270.209	-2.07
270.423	-2.59
270.637	-1.62
270.852	-1.43
271.066	2.67
271.281	0.17
271.495	0.74
271.709	0.26
271.924	-0.88
272.138	-2.16
272.353	-3.83
272.567	-4.55
272.781	-4.68
272.996	-7.56
273.21	-10.62
273.424	-11.8
273.638	-9.09
273.853	-10.43
274.067	-9.4
274.281	-10.96
274.495	-11.74
274.71	-10.28
274.924	-10.39
275.138	-9.34
275.352	-7.93
275.566	-8.22
275.781	-11.4
275.995	-14.72
276.209	-16.11
276.423	-17.86
276.637	-14.9
276.851	-13.32
277.065	-10.27
277.279	-9.74
277.493	-11.57
277.707	-12.25
277.921	-10.38
278.135	-8.59
278.349	-7.74
278.563	-9.93
278.777	-7.7
278.991	-6.88
279.205	-6.36
279.419	-8.76
279.633	-8.7
279.847	-6.95
280.061	-9.1
280.275	-11.83
280.489	-11.97
280.703	-11.85
280.917	-7.65
281.131	-8.94
281.344	-10.81
281.558	-12.57
281.772	-12.35
281.986	-12.19
282.2	-13.95
282.414	-8.21
282.627	-6.46
282.841	-7.26
283.055	-6.44
283.269	-8.63
283.482	-9.01
283.696	-6.33
283.91	-4.88
284.123	-4.69
284.337	-4.45
284.551	-3.8
284.764	-6.44
284.978	-4.42
285.192	-2.57
285.405	-1.15
285.619	-0.79
285.833	-1
286.046	-4
286.26	-3.87
286.473	-2.49
286.687	-3.39
286.9	-1.71
287.114	-2.02
287.327	-3.51
287.541	-4.91
287.754	-6.5
287.968	-3.83
288.181	-3.52
288.395	-1.09
288.608	-1.61
288.822	-3.95
289.035	-3.01
289.248	-5.12
289.462	-5.62
289.675	-7.41
289.889	-7.71
290.102	-8.72
290.315	-10.74
290.529	-7.78
290.742	-8.96
290.955	-9.85
291.169	-8.56
291.382	-7.77
291.595	-7.62
291.808	-5.65
292.022	-6.3
292.235	-6.33
292.448	-7.12
292.661	-7.52
292.875	-8.96
293.088	-9.35
293.301	-7.28
293.514	-7.76
293.727	-6.98
293.94	-6.8
294.153	-7.55
294.367	-7.38
294.58	-6.91
294.793	-4.58
295.006	-3.09
295.219	-4.31
295.432	-3.73
295.645	-4.55
295.858	-2.17
296.071	-3.28
296.284	-2.92
296.497	-0.55
296.71	-0.75
296.923	-0.83
297.136	-4.54
297.349	-6.66
297.562	-8.33
297.775	-9.64
297.988	-9.84
298.201	-14.14
298.414	-14.45
298.626	-13.86
298.839	-16.74
299.052	-13.32
299.265	-13.47
299.478	-10.9
299.691	-8.71
299.903	-6.71
300.116	-4.93
300.329	-3.96
300.542	-0.36
300.755	0.61
300.967	-0.98
301.18	-1.41
301.393	-1.47
301.605	-2.56
301.818	-3.58
302.031	-6.05
302.243	-5.55
302.456	-6.09
302.669	-6.43
302.881	-8.6
303.094	-10.01
303.307	-9.79
303.519	-11.11
303.732	-14.69
303.944	-14.97
304.157	-13.6
304.37	-13.04
304.582	-13.94
304.795	-12.8
305.007	-12.75
305.22	-12.1
305.432	-12.38
305.645	-10.65
305.857	-12.46
306.069	-11
306.282	-10.54
306.494	-8.74
306.707	-7.42
306.919	-7.19
307.132	-7.94
307.344	-8.79
307.556	-7.15
307.769	-5.63
307.981	-6.31
308.193	-2.78
308.406	-0.98
308.618	-2.62
308.83	-4.26
309.043	-4.68
309.255	-3.28
309.467	-4.22
309.679	-3.52
309.892	-4.48
310.104	-4.65
310.316	-3.07
310.528	-4.54
310.74	-6.07
310.953	-2.3
311.165	-1.77
311.377	0.5
311.589	-1.52
311.801	0.35
312.013	1.36
312.225	0.24
312.437	-0.75
312.649	-5.21
312.862	-3.05
313.074	-3.32
313.286	-4.27
313.498	-5.08
313.71	-8.16
313.922	-5.17
314.134	-6.97
314.346	-7.39
314.558	-8.11
314.77	-8.97
314.982	-6.28
315.193	-5.99
315.405	-6.82
315.617	-7.74
315.829	-4.9
316.041	-1.67
316.253	-1.74
316.465	-2.54
316.677	-2.99
316.888	-1.71
317.1	-0.32
317.312	0.23
317.524	-1.4
317.736	0.15
317.947	0.63
318.159	1.93
318.371	-1.7
318.583	-1.31
318.794	0.35
319.006	-0.53
319.218	-0.48
319.43	0.4
319.641	-1.23
319.853	-1.97
320.064	-4.38
320.276	-2.32
320.488	-3.9
320.699	-0.13
320.911	-1.54
321.123	0.29
321.334	-0.56
321.546	0.04
321.757	-0.53
321.969	4.03
322.18	5.24
322.392	10.46
322.603	9.81
322.815	7.87
323.026	5.35
323.238	4.25
323.449	1.3
323.661	3.16
323.872	1.37
324.083	2.08
324.295	-0.57
324.506	-1.8
324.718	-4.54
324.929	-6.75
325.14	-7.85
325.352	-9.75
325.563	-10.3
325.774	-9.89
325.986	-10.78
326.197	-8.29
326.408	-9.23
326.62	-8.9
326.831	-7.51
327.042	-3.72
327.253	-3.42
327.464	-0.72
327.676	3.69
327.887	6.43
328.098	6.2
328.309	5.93
328.52	7.15
328.732	8.37
328.943	9.64
329.154	9.45
329.365	4.34
329.576	2.52
329.787	0.92
329.998	-0.62
330.209	-1.7
330.42	-0.73
330.631	4.27
330.842	1.39
331.053	1.84
331.264	-0.32
331.475	-0.07
331.686	1.51
331.897	3.46
332.108	3.13
332.319	3.18
332.53	1.89
332.741	2.68
332.952	-1.13
333.163	-0.97
333.374	-3.56
333.585	-1.76
333.795	-0.76
334.006	-1.34
334.217	-0.72
334.428	-0.44
334.639	-1.74
334.849	-1.06
335.06	-2.92
335.271	0.41
335.482	2.76
335.692	3.64
335.903	2.59
336.114	2.42
336.325	3.08
336.535	5.02
336.746	4.58
336.957	3.73
337.167	4.1
337.378	3.56
337.589	-0.18
337.799	-1.48
338.01	0.42
338.22	1.6
338.431	1.01
338.642	-1.3
338.852	-5.23
339.063	-6
339.273	-2.22
339.484	-2.34
339.694	-2.29
339.905	-1.06
340.115	-1.8
340.326	-3.09
340.536	-4.16
340.746	-4.28
340.957	-2.77
341.167	0.88
341.378	2.5
341.588	-0.91
341.799	-2.06
342.009	0.14
342.219	-0.99
342.43	-1.01
342.64	-1.59
342.85	0.25
343.061	1.09
343.271	0.4
343.481	-1.9
343.691	-2.86
343.902	-3.38
344.112	-3.98
344.322	-7.09
344.532	-5.62
344.743	-4.74
344.953	-4.22
345.163	-3.76
345.373	-2.26
345.583	-0.8
345.793	-0
346.004	1.18
346.214	4
346.424	5.36
346.634	7.56
346.844	7.58
347.054	7.33
347.264	7.89
347.474	6.47
347.684	5.2
347.894	3.8
348.104	5.36
348.314	4.39
348.524	4.93
348.734	6.15
348.944	4.7
349.154	5.15
349.364	5.56
349.574	5.36
349.784	4.29
349.994	3.4
350.204	5.15
350.413	1.4
350.623	2.51
350.833	-0.11
351.043	-1.51
351.253	-1.11
351.463	-3.62
351.672	-5.91
351.882	-4.11
352.092	-2.79
352.302	-2.91
352.511	-3.82
352.721	-2.27
352.931	-3.14
353.141	-2.34
353.35	-1.7
353.56	1.42
353.77	3.36
353.979	4.09
354.189	3.77
354.399	4.85
354.608	7.34
354.818	6.21
355.027	5.47
355.237	5.78
355.447	5.74
355.656	4.83
355.866	2.07
356.075	1.64
356.285	1.49
356.494	0.81
356.704	0.04
356.913	-2.26
357.123	0.14
357.332	-0
357.542	0.31
357.751	-0.87
357.96	-1.07
358.17	0.58
358.379	0.62
358.589	2.25
358.798	0.86
359.007	2.14
359.217	2.57
359.426	3.15
359.635	3.43
359.845	4.13
360.054	5.06
360.263	4.53
360.472	3.98
360.682	4.53
360.891	3.98
361.1	5.43
361.309	4.11
361.519	3.81
361.728	2.37
361.937	3
362.146	2.87
362.355	3.71
362.564	5.3
362.774	6.28
362.983	5.87
363.192	6.61
363.401	5.76
363.61	5.88
363.819	5.86
364.028	4.72
364.237	4.43
364.446	3.94
364.655	2.29
364.864	3.54
365.073	2.69
365.282	1.47
365.491	1.84
365.7	2.9
365.909	3.89
366.118	5.37
366.327	6.67
366.536	7.68
366.745	6.97
366.954	8.02
367.162	6.04
367.371	6.63
367.58	7.41
367.789	6.17
367.998	5.84
368.207	6.44
368.415	4.84
368.624	3.31
368.833	3.57
369.042	3.89
369.25	2.53
369.459	3.25
369.668	2.17
369.877	1.57
370.085	1.55
370.294	1.78
370.503	0.25
370.711	-1.12
370.92	-0.61
371.129	-2.23
371.337	-2.15
371.546	-0.03
371.754	-0.7
371.963	1.16
372.171	2.89
372.38	3.33
372.589	2.79
372.797	3.39
373.006	5.62
373.214	7.06
373.423	7.59
373.631	8.95
373.84	8.93
374.048	9.6
374.256	8.43
374.465	7.53
374.673	7.39
374.882	7.07
375.09	6.92
375.298	5.84
375.507	6.49
375.715	6.42
375.923	5.52
376.132	5.09
376.34	5.23
376.548	5.1
376.757	4.49
376.965	3.81
377.173	3.66
377.381	4.45
377.59	6.08
377.798	5.08
378.006	5.46
378.214	4.99
378.423	5.97
378.631	6.02
378.839	5.45
379.047	6.4
379.255	7.28
379.463	7.73
379.671	7.29
379.879	5.44
380.088	5.22
380.296	4.83
380.504	5.89
380.712	5.12
380.92	4.12
381.128	4.8
381.336	3.48
381.544	2.37
381.752	2.2
381.96	2.11
382.168	3.1
382.376	4.76
382.584	4.27
382.791	2.38
382.999	1.26
383.207	2.7
383.415	2
383.623	3.03
383.831	3.01
384.039	3.76
384.247	4.07
384.454	3.12
384.662	0.94
384.87	2.03
385.078	3.41
385.285	3.97
385.493	3.02
385.701	4.6
385.909	5.67
386.116	4.64
386.324	4.37
386.532	2.59
386.739	3.02
386.947	3.82
387.155	3.28
387.362	2.87
387.57	3.59
387.778	2.79
387.985	0.9
388.193	-0.56
388.4	1.23
388.608	0.98
388.816	1.42
389.023	2.61
389.231	3.39
389.438	2.69
389.646	1.12
389.853	0.11
390.061	1.11
390.268	2.75
390.475	3.21
390.683	3.38
390.89	2.03
391.098	2.57
391.305	1.59
391.512	0.86
391.72	0.98
391.927	3.2
392.135	4.47
392.342	4.23
392.549	2.47
392.756	2.89
392.964	4.31
393.171	5.16
393.378	5.54
393.586	5.45
393.793	5.5
394	6.44
394.207	5.61
394.414	4.98
394.622	4.49
394.829	5.1
395.036	5.11
395.243	3.79
395.45	3.72
395.657	3.01
395.864	2.23
396.072	1.65
396.279	1.5
396.486	2.75
396.693	2.69
396.9	2.48
397.107	2.45
397.314	1.47
397.521	0.12
397.728	0.35
397.935	0.25
398.142	1.58
398.349	1.98
398.556	0.87
398.763	-1.46
398.97	-1.55
399.177	-0.9
399.383	0.45
399.59	0.83
399.797	1.7
400.004	1.91
400.211	3.86
400.418	3.3
400.625	2.95
400.831	3
401.038	4.99
401.245	5.88
401.452	6.36
401.658	4.84
401.865	5.41
402.072	5.59
402.279	6.59
402.485	4.46
402.692	4.43
402.899	4.67
403.105	5.58
403.312	5.48
403.519	5.58
403.725	5.93
403.932	6.04
404.138	6.33
404.345	6.61
404.552	5.81
404.758	6.62
404.965	6.16
405.171	6.71
405.378	5.6
405.584	4.46
405.791	3.64
405.997	3.91
406.204	4.31
406.41	3.74
406.617	3.93
406.823	4.19
407.029	4.62
407.236	6.26
407.442	4.96
407.649	6.14
407.855	7.37
408.061	7.79
408.268	7.3
408.474	6.18
408.68	5.8
408.887	4.97
409.093	5.26
409.299	3.92
409.505	2.93
409.712	3.56
409.918	3.88
410.124	3.78
410.33	2.68
410.537	2.84
410.743	3.62
410.949	3.62
411.155	4.23
411.361	3.44
411.567	4.26
411.773	4.99
411.98	4.74
412.186	4.67
412.392	3.97
412.598	4.12
412.804	2.95
413.01	4.09
413.216	4.82
413.422	4.74
413.628	4.89
413.834	4.85
414.04	4.26
414.246	4.77
414.452	4.16
414.658	3.99
414.864	4.14
415.07	4.49
415.275	3.26
415.481	2.52
415.687	2.69
415.893	2.56
416.099	2.68
416.305	2.13
416.511	1.91
416.716	2.17
416.922	2.23
417.128	2.07
417.334	2.08
417.539	2.05
417.745	2.4
417.951	2.52
418.157	2.58
418.362	2.12
418.568	2.18
418.774	2.15
418.979	1.76
419.185	2.71
419.391	2.98
419.596	3.36
419.802	3.34
420.008	3.03
420.213	-0.94
420.419	-0.95
420.624	-0.78
420.83	-0.63
421.035	-0.47
421.241	-0.03
421.446	-0.54
421.652	-0.47
421.857	-1.22
422.063	-0.98
422.268	-1
422.474	2.68
422.679	2.32
422.885	2.45
423.09	2.34
423.295	2.08
423.501	1.89
423.706	1.96
423.911	1.8
424.117	1.74
424.322	1.81
424.527	2.07
424.733	2.32
424.938	2.74
425.143	2.75
425.349	2.9
425.554	2.8
425.759	3.06
425.964	3.13
426.169	3.33
426.375	3.31
426.58	2.87
426.785	2.42
426.99	2.01
427.195	1.48
427.4	1.55
427.605	1.54
427.811	2.09
428.016	0.92
428.221	0.48
428.426	-0.35
428.631	0.4
428.836	1.12
429.041	1.09
429.246	0.65
429.451	1.2
429.656	0.34
429.861	0.78
430.066	0.5
430.271	0.83
430.476	1.09
430.681	1.73
430.886	1.67
431.09	1.48
431.295	1.47
431.5	1.92
431.705	2.16
431.91	2.35
432.115	2.34
432.32	2.09
432.524	2.64
432.729	2.6
432.934	2.88
433.139	3.29
433.343	3.28
433.548	3.26
433.753	2.93
433.958	2.73
434.162	2.69
434.367	2.55
434.572	2.17
434.776	2.02
434.981	1.26
435.186	0.44
435.39	0.02
435.595	0.05
435.799	-0.16
436.004	0.32
436.209	0.11
436.413	0.32
436.618	0.24
436.822	1.14
437.027	0.83
437.231	1.66
437.436	1.79
437.64	1.77
437.845	1.88
438.049	2.49
438.253	2.26
438.458	2.65
438.662	2.58
438.867	2.31
439.071	2.8
439.275	3.34
439.48	2.73
439.684	3.27
439.888	3.58
440.093	3.74
440.297	3.6
440.501	3.44
440.706	3.28
440.91	3.37
441.114	3.49
441.318	3.15
441.523	2.45
441.727	2.62
441.931	2.49
442.135	2.29
442.339	1.92
442.543	2
442.748	2.72
442.952	2.73
443.156	2.75
443.36	3.26
443.564	2.89
443.768	3.76
443.972	4.19
444.176	3.41
444.38	3.89
444.584	4.67
444.788	4.78
444.992	4.24
445.196	4.44
445.4	4.43
445.604	3.73
445.808	3.59
446.012	3.42
446.216	2.74
446.42	3.28
446.624	2.87
446.828	2
447.032	1.9
447.235	1.89
447.439	1.18
447.643	1.92
447.847	1.96
448.051	2.67
448.254	2.06
448.458	2.17
448.662	2.25
448.866	1.82
449.069	1.96
449.273	1.47
449.477	2.14
449.681	3.04
449.884	2.85
450.088	2.99
450.292	3.46
450.495	4.43
450.699	5.05
450.902	5.29
451.106	5.45
451.31	5.19
451.513	5.54
451.717	5.13
451.92	4.77
452.124	4.44
452.327	4.58
452.531	3.44
452.734	2.81
452.938	2.09
453.141	1.68
453.345	1.47
453.548	1.87
453.752	1.51
453.955	1.25
454.158	1.44
454.362	1.33
454.565	1.33
454.769	1.25
454.972	1.64
455.175	1.65
455.379	1.06
455.582	0.96
455.785	1.05
455.988	1.07
456.192	1.46
456.395	1.58
456.598	1.94
456.801	1.5
457.005	2.09
457.208	1.47
457.411	1.86
457.614	2.35
457.817	3
458.021	2.95
458.224	3.26
458.427	3.5
458.63	3.43
458.833	3.03
459.036	3.5
459.239	3.44
459.442	3.19
459.645	3.14
459.848	3.16
460.051	2.73
460.254	2.7
460.457	2.23
460.66	1.49
460.863	1.29
461.066	0.57
461.269	0.67
461.472	-0.12
461.675	0.54
461.878	0.13
462.081	0.41
462.284	-0.22
462.486	-0.14
462.689	0.33
462.892	0.94
463.095	0.63
463.298	1.68
463.5	1.46
463.703	1.69
463.906	1.63
464.109	2.19
464.311	1.5
464.514	2.18
464.717	1.85
464.92	1.84
465.122	1.65
465.325	1.77
465.528	1.99
465.73	1.64
465.933	2.1
466.135	2.43
466.338	2.03
466.541	1.91
466.743	1.85
466.946	1.83
467.148	1.58
467.351	1.56
467.553	1.83
467.756	1.69
467.958	1.84
468.161	2.04
468.363	2.29
468.566	3.08
468.768	3.5
468.971	3.05
469.173	3.32
469.375	3.67
469.578	3.53
469.78	3.03
469.983	3.05
470.185	3.31
470.387	2.99
470.59	2.59
470.792	2.27
470.994	2.6
471.196	3.19
471.399	3.58
471.601	3.73
471.803	3.81
472.005	3.97
472.208	3.44
472.41	3.8
472.612	3.96
472.814	3.62
473.016	4.61
473.218	4.21
473.421	3.85
473.623	3.49
473.825	3.19
474.027	3.59
474.229	3.77
474.431	3.94
474.633	3.88
474.835	3.89
475.037	3.77
475.239	2.75
475.441	2.97
475.643	2.62
475.845	2.42
476.047	2.46
476.249	2.14
476.451	2.02
476.653	2.55
476.855	2.88
477.057	2.93
477.258	2.79
477.46	2.49
477.662	1.86
477.864	2.44
478.066	2.82
478.268	2.43
478.469	2.64
478.671	3
478.873	2.51
479.075	1.97
479.276	2.29
479.478	2.42
479.68	3.19
479.882	3.68
480.083	3.38
480.285	3.12
480.487	3.51
480.688	3.43
480.89	3.27
481.091	3.18
481.293	3.1
481.495	2.85
481.696	3.2
481.898	3.09
482.099	3.09
482.301	3.15
482.502	3.18
482.704	3.2
482.905	3.37
483.107	3.4
483.308	3.51
483.51	3.54
483.711	3.72
483.913	3.67
484.114	3.51
484.315	3.41
484.517	3.56
484.718	3.73
484.92	3.83
485.121	3.64
485.322	3.61
485.524	3.73
485.725	3.75
485.926	3.7
486.127	3.55
486.329	3.53
486.53	3.83
486.731	3.89
486.932	3.81
487.134	3.73
487.335	3.55
487.536	3.77
487.737	3.59
487.938	3.66
488.139	3.47
488.341	3.61
488.542	3.74
488.743	3.52
488.944	3.57
489.145	3.42
489.346	3.63
489.547	3.77
489.748	3.4
489.949	3.56
490.15	3.51
490.351	3.69
490.552	3.54
490.753	3.46
490.954	3.65
491.155	3.37
491.356	3.2
491.557	2.94
491.758	3.02
491.959	3.16
492.159	3.02
492.36	2.94
492.561	2.75
492.762	2.85
492.963	3.02
493.164	2.54
493.364	2.52
493.565	2.48
493.766	2.52
493.967	2.37
494.167	2.28
494.368	2.56
494.569	2.68
494.769	2.63
494.97	2.53
495.171	2.95
495.371	3.56
495.572	3.59
495.773	4.22
495.973	4.42
496.174	4.73
496.375	4.66
496.575	4.35
496.776	4.23
496.976	3.85
497.177	3.94
497.377	3.19
497.578	2.09
497.778	2.18
497.979	1.51
498.179	1.26
498.38	1.13
498.58	1.01
498.78	1.05
498.981	1.12
499.181	0.87
499.382	0.9
499.582	1.1
499.782	2.2
499.983	2.04
500.183	2.36
500.383	2.48
500.584	2.66
500.784	2.99
500.984	2.69
501.184	2.66
501.385	3.62
501.585	3.41
501.785	3.36
501.985	2.73
502.185	3.41
502.386	3.62
502.586	3.61
502.786	3.11
502.986	3.06
503.186	3.85
503.386	3.6
503.586	2.84
503.786	2.86
503.987	3.05
504.187	3.05
504.387	2.37
504.587	2.34
504.787	1.99
504.987	2.14
505.187	2.5
505.387	2.01
505.587	2.12
505.786	2.65
505.986	3.01
506.186	3.4
506.386	3.66
506.586	3.6
506.786	3.37
506.986	3.53
507.186	3.54
507.386	3.36
507.585	3.84
507.785	3.79
507.985	3.84
508.185	3.67
508.384	3.4
508.584	3.69
508.784	4.22
508.984	4.52
509.183	4.63
509.383	4.7
509.583	4.4
509.782	3.88
509.982	4.25
510.182	4.12
510.381	4.35
510.581	4.1
510.781	3.79
510.98	3.85
511.18	3.73
511.379	3.7
511.579	3.72
511.778	3.73
511.978	4.07
512.177	4.15
512.377	4.06
512.576	4.24
512.776	4.68
512.975	5.15
513.175	4.37
513.374	4.12
513.573	4.15
513.773	3.93
513.972	4.32
514.172	4.09
514.371	4.4
514.57	4.79
514.77	4.72
514.969	4.57
515.168	4.27
515.367	4.94
515.567	5.03
515.766	4.91
515.965	5.34
516.164	5.4
516.364	5.65
516.563	5.47
516.762	5.58
516.961	5.12
517.16	5.1
517.359	4.91
517.559	4.77
517.758	4.83
517.957	4.82
518.156	4.75
518.355	4.72
518.554	4.4
518.753	4.02
518.952	3.49
519.151	3.54
519.35	3.6
519.549	4.23
519.748	4.37
519.947	4.77
520.146	5.31
520.345	5.49
520.544	5.4
520.743	5.36
520.942	5.45
521.141	6.02
521.339	6.42
521.538	6.39
521.737	6.12
521.936	6.16
522.135	5.87
522.333	5.38
522.532	5.11
522.731	5.04
522.93	4.79
523.129	4.93
523.327	4.81
523.526	4.89
523.725	4.7
523.923	4.58
524.122	4.69
524.321	4.84
524.519	5.28
524.718	5.23
524.917	5.29
525.115	5.87
525.314	5.83
525.512	5.85
525.711	5.87
525.909	6.16
526.108	6.02
526.306	6.03
526.505	6.18
526.703	5.89
526.902	5.93
527.1	6.14
527.299	6.2
527.497	6.32
527.696	6.35
527.894	6.44
528.092	6.47
528.291	6.59
528.489	6.87
528.688	6.86
528.886	7.2
529.084	7.34
529.283	7.25
529.481	7.12
529.679	7.1
529.877	7.16
530.076	7.3
530.274	7.44
530.472	7.33
530.67	7.01
530.869	7.21
531.067	7.04
531.265	7.36
531.463	7.28
531.661	7.57
531.859	7.57
532.057	7.73
532.255	7.68
532.454	7.58
532.652	7.7
532.85	7.75
533.048	7.61
533.246	7.52
533.444	7.19
533.642	7.37
533.84	7.46
534.038	7.5
534.236	7.16
534.434	7.36
534.632	7.51
534.83	7.71
535.027	7.72
535.225	7.87
535.423	8.19
535.621	8.2
535.819	8.21
536.017	8
536.215	8.13
536.412	8.46
536.61	7.8
536.808	7.65
537.006	7.63
537.203	7.26
537.401	7.02
537.599	7.17
537.797	7.32
537.994	7.22
538.192	7.12
538.39	7.23
538.587	7.32
538.785	7.58
538.983	7.87
539.18	7.71
539.378	7.98
539.575	8.27
539.773	7.95
539.97	8.03
540.168	8.2
540.366	8.12
540.563	8.07
540.761	8.29
540.958	8.41
541.155	8.24
541.353	8.54
541.55	8.53
541.748	8.23
541.945	8.48
542.143	8.48
542.34	8.8
542.537	9.1
542.735	9.07
542.932	8.88
543.129	8.96
543.327	9.39
543.524	9.42
543.721	9.48
543.919	9.92
544.116	9.79
544.313	9.7
544.51	9.47
544.708	9.62
544.905	9.63
545.102	9.33
545.299	9.23
545.496	8.9
545.693	8.77
545.891	8.5
546.088	8.34
546.285	8.27
546.482	8.72
546.679	8.59
546.876	8.53
547.073	9.16
547.27	9.3
547.467	9.29
547.664	9.05
547.861	8.83
548.058	9.18
548.255	9.26
548.452	9.48
548.649	8.98
548.846	9.5
549.043	9.41
549.24	8.85
549.437	9.04
549.633	8.71
549.83	9.2
550.027	9.56
550.224	9.75
550.421	9.88
550.618	9.93
550.814	10.29
551.011	10.35
551.208	10.33
551.405	10.7
551.601	10.08
551.798	11.1
551.995	11.13
552.191	11.12
552.388	11.22
552.585	10.8
552.781	11.1
552.978	10.96
553.175	10.55
553.371	10.61
553.568	10.21
553.764	10.85
553.961	10.48
554.157	10.52
554.354	10.96
554.55	10.97
554.747	11.68
554.943	11.19
555.14	11.64
555.336	11.74
555.533	11.8
555.729	11.77
555.926	11.85
556.122	12.33
556.318	12.75
556.515	12.37
556.711	13.18
556.907	12.89
557.104	13.25
557.3	12.85
557.496	12.96
557.693	12.97
557.889	13.8
558.085	14.57
558.281	14.08
558.478	14.23
558.674	14.67
558.87	14.54
559.066	14.57
559.262	14.53
559.459	14.15
559.655	14.05
559.851	14.13
560.047	13.68
560.243	12.96
560.439	12.82
560.635	12.26
560.831	12.42
561.027	11.98
561.223	11.85
561.419	12.16
561.615	13.1
561.811	12.9
562.007	12.82
562.203	12.65
562.399	13.04
562.595	13.86
562.791	13.75
562.987	13.2
563.183	13.38
563.379	13.5
563.575	12.92
563.771	12.72
563.966	12.86
564.162	13.2
564.358	13.35
564.554	13.73
564.75	13.27
564.945	13.78
565.141	13.92
565.337	14.02
565.533	14.3
565.728	14.96
565.924	14.42
566.12	14.89
566.315	14.62
566.511	14.84
566.707	14.37
566.902	14.81
567.098	14.78
567.293	14.66
567.489	14.14
567.684	14.3
567.88	14.3
568.076	14.51
568.271	14.02
568.467	14.03
568.662	13.4
568.858	13.98
569.053	13.73
569.248	14.15
569.444	14.34
569.639	14.88
569.835	14.39
570.03	13.84
570.225	13.88
570.421	13.95
570.616	14.13
570.812	14.51
571.007	14.07
571.202	14.21
571.397	13.92
571.593	14.37
571.788	14.48
571.983	14.71
572.178	15.15
572.374	15.79
572.569	15.59
572.764	16.38
572.959	16.22
573.154	16.4
573.35	16.02
573.545	15.74
573.74	14.99
573.935	14.81
574.13	14.95
574.325	14.94
574.52	15.12
574.715	15.89
574.91	14.94
575.105	15.31
575.3	15.35
575.495	15.26
575.69	15.89
575.885	16.66
576.08	16.7
576.275	16.65
576.47	16.55
576.665	16.36
576.86	15.93
577.055	16.77
577.25	16.34
577.444	15.74
577.639	16.18
577.834	16.17
578.029	15.73
578.224	15.37
578.418	15.65
578.613	14.7
578.808	14.56
579.003	14.22
579.197	13.92
579.392	13.98
579.587	15.02
579.781	15.44
579.976	15.26
580.171	14.9
580.365	14.96
580.56	15.03
580.755	16.24
580.949	16.18
581.144	15.94
581.338	15.85
581.533	16.14
581.727	15.94
581.922	15.48
582.116	14.71
582.311	15.27
582.505	16.06
582.7	16.35
582.894	16.38
583.089	17.49
583.283	17.76
583.478	17.38
583.672	17.45
583.866	16.61
584.061	17.13
584.255	17.19
584.449	16.57
584.644	16.41
584.838	16.05
585.032	15.48
585.226	14.34
585.421	14.44
585.615	14.85
585.809	14.64
586.003	15.27
586.198	14.99
586.392	15.03
586.586	15.1
586.78	15.08
586.974	14.82
587.168	15.13
587.363	14.63
587.557	14.19
587.751	13.77
587.945	13.71
588.139	13.64
588.333	13.12
588.527	13.23
588.721	13.05
588.915	12.79
589.109	12.63
589.303	12.64
589.497	12.74
589.691	13.84
589.885	13.85
590.079	14.79
590.273	14.48
590.466	15.47
590.66	16.01
590.854	16.38
591.048	16.89
591.242	16.86
591.436	16.64
591.629	17.13
591.823	16.61
592.017	18.2
592.211	17.65
592.404	18.55
592.598	18.54
592.792	18.32
592.986	18.12
593.179	18.04
593.373	18.3
593.567	18.68
593.76	18.49
593.954	18.51
594.147	17.09
594.341	16.71
594.535	16.5
594.728	15.5
594.922	15.81
595.115	16.23
595.309	15.82
595.502	15.26
595.696	15.22
595.889	15.66
596.083	16.01
596.276	16.2
596.47	16.16
596.663	16.23
596.856	16.89
597.05	16.84
597.243	16.6
597.437	16.93
597.63	17.88
597.823	17.86
598.017	18.21
598.21	18.19
598.403	18.28
598.596	18.92
598.79	18.41
598.983	18.21
599.176	17.88
599.369	18.73
599.563	18.68
599.756	18.81
599.949	18.69
600.142	18.23
600.335	18.15
600.528	18.03
600.722	18.36
600.915	18.41
601.108	17.91
601.301	18.33
601.494	18.15
601.687	18.53
601.88	17.68
602.073	17.51
602.266	17.57
602.459	17.3
602.652	17.96
602.845	17.55
603.038	17.71
603.231	18.28
603.424	18.04
603.617	17.88
603.809	17.58
604.002	17.34
604.195	17.72
604.388	17.41
604.581	18.18
604.774	17.31
604.966	16.96
605.159	16.42
605.352	16.3
605.545	15.78
605.737	15.72
605.93	15.15
606.123	16.66
606.316	16.19
606.508	16.14
606.701	15.26
606.894	16.19
607.086	16.13
607.279	16.64
607.471	16.37
607.664	16.59
607.857	16.78
608.049	16.61
608.242	15.73
608.434	15.91
608.627	16.09
608.819	16.6
609.012	16.66
609.204	16.54
609.397	16.6
609.589	16.85
609.782	17.22
609.974	17.45
610.166	17.93
610.359	18.33
610.551	18.7
610.743	18.53
610.936	17.39
611.128	16.38
611.32	17.22
611.513	16.84
611.705	16.82
611.897	17.12
612.09	16.29
612.282	16.39
612.474	16.01
612.666	16.56
612.858	16.7
613.051	17.87
613.243	18.74
613.435	18.32
613.627	18.67
613.819	18.55
614.011	18.07
614.203	18.4
614.395	17.89
614.588	18.49
614.78	17.8
614.972	17.91
615.164	17.51
615.356	17.14
615.548	17.72
615.74	17.66
615.932	17.68
616.124	17.93
616.315	17.95
616.507	19.1
616.699	18.66
616.891	19.2
617.083	19.44
617.275	19.72
617.467	19.06
617.659	18.49
617.85	19.73
618.042	20.14
618.234	20.09
618.426	20.09
618.618	19.98
618.809	20.31
619.001	20.04
619.193	20.31
619.384	19.63
619.576	20.28
619.768	20.88
619.959	19.27
620.151	18.71
620.343	17.96
620.534	17.8
620.726	17.8
620.917	18.27
621.109	18.25
621.301	16.98
621.492	18.22
621.684	18.25
621.875	17.66
622.067	17.55
622.258	18.23
622.45	19.03
622.641	19.68
622.832	19.51
623.024	19.46
623.215	18.58
623.407	18.99
623.598	18.41
623.789	18.28
623.981	19.15
624.172	19.12
624.363	18.68
624.555	18.98
624.746	19.31
624.937	19.18
625.129	18.51
625.32	19.55
625.511	19.12
625.702	19.27
625.893	19.01
626.085	18.41
626.276	18.92
626.467	19.36
626.658	18.8
626.849	17.58
627.04	17.96
627.231	18.78
627.422	17.91
627.614	18.12
627.805	17.68
627.996	17.77
628.187	18
628.378	18.34
628.569	18.13
628.76	19.23
628.951	19.05
629.142	18.43
629.332	18.4
629.523	19.21
629.714	19.91
629.905	20.16
630.096	20.42
630.287	20.9
630.478	21.4
630.669	21.43
630.859	20.38
631.05	20.75
631.241	20.65
631.432	20.52
631.623	20.66
631.813	20.02
632.004	20.04
632.195	19.86
632.385	19.24
632.576	19.52
632.767	19.03
632.957	18.36
633.148	18.79
633.339	19.14
633.529	18.13
633.72	18.41
633.91	18.79
634.101	18.74
634.292	18.93
634.482	19.13
634.673	17.26
634.863	18.56
635.054	19.34
635.244	19.83
635.435	19.34
635.625	19.55
635.815	18.82
636.006	18.86
636.196	18.48
636.387	17.85
636.577	17.29
636.767	18.56
636.958	17.89
637.148	17.26
637.338	15.42
637.529	16.12
637.719	16.73
637.909	18.28
638.099	17.74
638.29	17.84
638.48	18.09
638.67	18.25
638.86	18.26
639.05	17.76
639.241	18
639.431	19.77
639.621	19.89
639.811	20.34
640.001	18.93
640.191	20.7
640.381	22.78
640.571	22.64
640.761	22.84
640.951	22.94
641.141	23.82
641.331	23.74
641.521	23.51
641.711	22.8
641.901	21.57
642.091	20.41
642.281	19.28
642.471	15.87
642.661	16.88
642.851	17.41
643.041	17.81
643.231	17.95
643.42	17.8
643.61	18.45
643.8	18.82
643.99	19.25
644.18	20.45
644.369	19.62
644.559	21.39
644.749	20.6
644.939	20.26
645.128	18.57
645.318	17.7
645.508	18.82
645.697	17.99
645.887	17.33
646.076	17.94
646.266	17.48
646.456	18.39
646.645	19.07
646.835	19.91
647.024	19.75
647.214	20.7
647.403	21
647.593	20.95
647.782	20.52
647.972	21.63
648.161	21.4
648.351	22.34
648.54	22.38
648.73	21.4
648.919	20.47
649.108	20.82
649.298	19.06
649.487	18.59
649.677	18.43
649.866	19.31
650.055	19.12
650.244	18.71
650.434	18.33
650.623	18.33
650.812	17.75
651.002	18.41
651.191	17.56
651.38	19.65
651.569	19.89
651.758	20.71
651.947	19.75
652.137	19.86
652.326	19.9
652.515	19.23
652.704	19.17
652.893	19.94
653.082	19.84
653.271	20.86
653.46	21.29
653.649	21.27
653.838	19.95
654.027	20.2
654.216	19.11
654.405	19.24
654.594	19.35
654.783	20.31
654.972	19.9
655.161	20.73
655.35	20.27
655.539	19.15
655.728	20.4
655.916	20.25
656.105	19.79
656.294	19.89
656.483	18.61
656.672	18.47
656.86	18.23
657.049	19.22
657.238	18.68
657.427	19.18
657.615	18.81
657.804	17.56
657.993	18.33
658.181	18.75
658.37	19.82
658.559	21.16
658.747	21.57
658.936	20.74
659.125	19.16
659.313	18.8
659.502	19.05
659.69	19.38
659.879	19.39
660.067	19.45
660.256	19.58
660.444	18.73
660.633	18.85
660.821	19.16
661.01	20.09
661.198	21.26
661.387	21.75
661.575	20.78
661.763	21.76
661.952	19.87
662.14	20.2
662.328	22.56
662.517	22.8
662.705	21.69
662.893	22.89
663.082	22.27
663.27	21.93
663.458	21.67
663.646	21.29
663.834	20.72
664.023	22.46
664.211	21.8
664.399	19.97
664.587	19.54
664.775	19.59
664.963	18.02
665.152	16.55
665.34	17.4
665.528	15.79
665.716	16.68
665.904	15.7
666.092	16.97
666.28	16.87
666.468	17.56
666.656	16.87
666.844	17.98
667.032	17.2
667.22	19.69
667.408	20.12
667.596	21.69
667.784	21.59
667.971	22.03
668.159	21.47
668.347	20.75
668.535	18.93
668.723	20.91
668.911	20.59
669.098	21.02
669.286	20.41
669.474	20.21
669.662	20.34
669.849	19.97
670.037	19.25
670.225	18.85
670.413	20.08
670.6	20.92
670.788	20.05
670.976	17.88
671.163	18.72
671.351	17.16
671.538	16.57
671.726	16.44
671.913	16.14
672.101	17.36
672.289	18.1
672.476	16.92
672.664	16.62
672.851	15.97
673.039	18.46
673.226	19.14
673.413	19.55
673.601	20.4
673.788	20.65
673.976	20.14
674.163	21.74
674.35	22.93
674.538	24.03
674.725	24.88
674.912	25.32
675.1	22.82
675.287	21.71
675.474	22.35
675.662	21.58
675.849	20.23
676.036	20.06
676.223	18.71
676.411	17.45
676.598	17.13
676.785	16.42
676.972	16.97
677.159	18.98
677.346	18.91
677.533	18.62
677.721	19.14
677.908	20.18
678.095	22.03
678.282	21.38
678.469	21.1
678.656	20.82
678.843	21.1
679.03	20.74
679.217	21.58
679.404	21.86
679.591	20.86
679.778	20.7
679.964	20.13
680.151	19.31
680.338	19.32
680.525	19.54
680.712	20.58
680.899	20.28
681.086	21.05
681.272	19.96
681.459	18.74
681.646	20.82
681.833	20.96
682.02	21.24
682.206	21.94
682.393	23.15
682.58	22.92
682.766	21.62
682.953	23.34
683.14	21.73
683.326	21.55
683.513	22.47
683.7	21.14
683.886	21.26
684.073	20.33
684.259	19.1
684.446	18.1
684.632	18.53
684.819	20.24
685.005	17.06
685.192	17.21
685.378	16.06
685.565	16.5
685.751	17.48
685.938	17.37
686.124	16.12
686.31	16.35
686.497	16.48
686.683	16.06
686.87	13.81
687.056	14.77
687.242	14.65
687.429	13.81
687.615	13.41
687.801	13.97
687.987	13.95
688.174	15.65
688.36	16.38
688.546	15.59
688.732	15.88
688.918	16.82
689.105	16.21
689.291	15.18
689.477	18.1
689.663	19.16
689.849	17.69
690.035	15.78
690.221	16.56
690.407	17.1
690.593	18.82
690.779	18.12
690.965	18.33
691.151	20.45
691.337	20.8
691.523	19.41
691.709	18.37
691.895	19.49
692.081	20.83
692.267	19.68
692.453	19.63
692.639	19.16
692.825	18.49
693.011	18.19
693.196	17.21
693.382	18.23
693.568	18.17
693.754	17.07
693.94	16.12
694.125	15.13
694.311	15.01
694.497	14.02
694.682	14.56
694.868	15.47
695.054	16.14
695.239	13.89
695.425	13.82
695.611	13.72
695.796	13.75
695.982	14.88
696.168	16.35
696.353	16.7
696.539	16.87
696.724	16.13
696.91	16.29
697.095	15.14
697.281	17.3
697.466	18.58
697.652	19.16
697.837	20.29
698.023	19.36
698.208	18.61
698.393	19.77
698.579	19.21
698.764	20.34
698.949	20.78
699.135	21.9
699.32	21.43
699.505	19.03
699.691	19.81
699.876	19.35
700.061	19.42
700.246	20.83
700.432	21.38
700.617	20.69
700.802	20.57
700.987	18.52
701.172	17.75
701.358	15.95
701.543	18.5
701.728	18.19
701.913	18.52
702.098	19.53
702.283	18.32
702.468	14.01
702.653	19.33
702.838	16.89
703.023	18.78
703.208	20.03
703.393	23.45
703.578	21.78
703.763	19.89
703.948	18.17
704.133	18.99
704.318	19.72
704.503	21.36
704.688	17.69
704.873	19.68
705.057	19.4
705.242	18.41
705.427	16.92
705.612	17.53
705.797	18.25
705.981	19.54
706.166	19.55
706.351	20.65
706.536	20.09
706.72	20.33
706.905	18.48
707.09	18.65
707.274	18.93
707.459	18.8
707.644	19.49
707.828	21.14
708.013	22.18
708.197	22.7
708.382	20.33
708.567	22.09
708.751	24.09
708.936	24.61
709.12	25.02
709.305	25.59
709.489	27.1
709.673	27.88
709.858	27.55
710.042	28.47
710.227	26.28
710.411	25.33
710.596	24.89
710.78	24.94
710.964	23.21
711.149	22.64
711.333	20.83
711.517	21.09
711.702	21.64
711.886	22.34
712.07	20.72
712.254	21.3
712.438	23.04
712.623	23.06
712.807	22.59
712.991	24.36
713.175	24.48
713.359	26.27
713.544	25.38
713.728	23.83
713.912	21.8
714.096	23
714.28	22.74
714.464	23.74
714.648	23.55
714.832	22.01
715.016	20.25
715.2	19.49
715.384	16.9
715.568	17.16
715.752	18.27
715.936	19.02
716.12	16.1
716.304	16.93
716.488	16.15
716.671	15.98
716.855	15.97
717.039	17.25
717.223	17.03
717.407	18.53
717.59	17.02
717.774	15.21
717.958	16.94
718.142	17.09
718.325	16.45
718.509	14.29
718.693	15.83
718.877	16.44
719.06	17.09
719.244	16.84
719.428	17.41
719.611	15.92
719.795	16.41
719.978	14.76
720.162	14.33
720.345	14.77
720.529	16.76
720.713	15.19
720.896	12.55
721.08	14.6
721.263	14.8
721.446	14.2
721.63	12.63
721.813	10.55
721.997	8.21
722.18	9.54
722.364	6.75
722.547	6.91
722.73	6.67
722.914	8.69
723.097	8.16
723.28	7.03
723.464	7.79
723.647	9.05
723.83	8.91
724.013	13.02
724.197	12.76
724.38	13.81
724.563	13.7
724.746	11.83
724.929	9.78
725.112	11.01
725.296	11.22
725.479	9.71
725.662	13.44
725.845	16.94
726.028	14.8
726.211	14.47
726.394	16.05
726.577	14.69
726.76	17.96
726.943	18.19
727.126	16.83
727.309	20.2
727.492	23
727.675	22.24
727.858	20.34
728.041	20.84
728.224	22.9
728.407	21.27
728.589	22.59
728.772	21.76
728.955	23.1
729.138	23.03
729.321	21.21
729.503	18.03
729.686	16.92
729.869	15.66
730.052	16.08
730.234	16.83
730.417	18.02
730.6	17.29
730.782	17.31
730.965	17.44
731.148	16.41
731.33	15.58
731.513	17.34
731.695	15.99
731.878	17.04
732.061	15.12
732.243	13.79
732.426	14.61
732.608	14.84
732.791	16.37
732.973	17.05
733.156	17.18
733.338	16.17
733.52	18.09
733.703	19.46
733.885	20.06
734.068	20.03
734.25	20.72
734.432	18.68
734.615	17.79
734.797	18.86
734.979	18.5
735.162	20.69
735.344	22.68
735.526	23.7
735.708	25.51
735.891	24.2
736.073	26.15
736.255	24.94
736.437	26.29
736.619	26.78
736.802	23.06
736.984	22.7
737.166	21.02
737.348	24.97
737.53	22.54
737.712	21.51
737.894	21.77
738.076	23.52
738.258	24.37
738.44	25.2
738.622	27.84
738.804	28.32
738.986	26.59
739.168	27.47
739.35	25.03
739.532	25.61
739.714	27.07
739.896	27.15
740.078	26.9
740.259	24.21
740.441	24.07
740.623	20.58
740.805	19.73
740.987	20.45
741.168	21.7
741.35	22.75
741.532	21.11
741.714	19.53
741.895	20.59
742.077	18.41
742.259	20.98
742.44	22.86
742.622	22.95
742.804	24.93
742.985	24.54
743.167	24.51
743.348	24.7
743.53	26.16
743.711	27.71
743.893	28.22
744.075	29.44
744.256	31.49
744.438	30.48
744.619	30.63
744.8	32.11
744.982	33.52
745.163	31.43
745.345	29.67
745.526	29.35
745.707	28.26
745.889	23.5
746.07	21.35
746.252	19.14
746.433	16.7
746.614	16.77
746.795	15.34
746.977	14.97
747.158	17.86
747.339	17.98
747.52	17.96
747.702	16.08
747.883	23.08
748.064	21.29
748.245	21.51
748.426	23.5
748.607	26.4
748.788	26.74
748.97	28.48
749.151	28.06
749.332	27.51
749.513	28.22
749.694	30.78
749.875	26.38
750.056	25.51
750.237	22.45
750.418	21.44
750.599	20.46
750.78	20.35
750.96	22.74
751.141	16.93
751.322	13.32
751.503	15.18
751.684	12.4
751.865	14.81
752.046	18.15
752.226	20.02
752.407	19.51
752.588	15.18
752.769	15.36
752.949	9.94
753.13	15
753.311	20.55
753.492	17.15
753.672	22.69
753.853	20.19
754.034	21.95
754.214	21.18
754.395	21.21
754.575	24.64
754.756	24.01
754.937	27.34
755.117	25.41
755.298	20.11
755.478	23.43
755.659	19.32
755.839	22.13
756.02	21.35
756.2	23.2
756.381	21.46
756.561	22.53
756.741	20.31
756.922	18.77
757.102	18.07
757.283	20.49
757.463	18.02
757.643	16.3
757.823	15.09
758.004	16.54
758.184	16.89
758.364	15.12
758.545	13.92
758.725	13.05
758.905	12.95
759.085	9.93
759.265	9.03
759.446	4.19
759.626	5.18
759.806	2.32
759.986	-1.22
760.166	-6.81
760.346	-2.69
760.526	-3.44
760.706	-0.27
760.886	1.89
761.066	7.04
761.246	5.4
761.426	10.78
761.606	13.78
761.786	14.63
761.966	12.75
762.146	14.56
762.326	14.25
762.506	13.06
762.686	11.6
762.866	12.02
763.046	10.65
763.225	13.27
763.405	14.26
763.585	12.67
763.765	11.01
763.945	14.96
764.124	15.06
764.304	15.31
764.484	16.03
764.664	18.92
764.843	16.84
765.023	18.29
765.203	19.03
765.382	19.26
765.562	17.24
765.741	22.82
765.921	21.29
766.101	23.98
766.28	23.98
766.46	23.44
766.639	20.36
766.819	20.39
766.998	22.82
767.178	25.46
767.357	19.98
767.537	21.4
767.716	24.5
767.896	23.67
768.075	23.32
768.254	20.12
768.434	18.42
768.613	23.12
768.792	25.96
768.972	23.04
769.151	19
769.33	23.2
769.51	29.59
769.689	28.08
769.868	28.14
770.047	24.86
770.226	29.84
770.406	34.37
770.585	36.32
770.764	30.35
770.943	32.02
771.122	31.87
771.301	26.23
771.48	17.98
771.66	11.77
771.839	12.33
772.018	11.2
772.197	12.69
772.376	10.82
772.555	4.16
772.734	9.89
772.913	4.96
773.092	-0.58
773.271	8.46
773.449	6.2
773.628	14.19
773.807	7.94
773.986	10.22
774.165	5.67
774.344	14.04
774.523	17.44
774.701	13.01
774.88	13.94
775.059	23.5
775.238	19.78
775.417	24.62
775.595	20.65
775.774	31.86
775.953	31.34
776.131	35.6
776.31	30.34
776.489	31.55
776.667	33.91
776.846	37.28
777.025	37.63
777.203	39.92
777.382	35.1
777.56	36.35
777.739	29.78
777.917	32.05
778.096	30.61
778.274	32.02
778.453	25.86
778.631	28.04
778.81	22.35
778.988	14.46
779.166	9.19
779.345	14.63
779.523	14.49
779.702	16.37
779.88	15.99
780.058	15.76
780.237	20.56
780.415	26.82
780.593	22.42
780.771	29.81
780.95	30.83
781.128	30.03
781.306	29.97
781.484	34.01
781.662	33.85
781.841	39.34
782.019	30.5
782.197	27.03
782.375	25.39
782.553	26.43
782.731	23.26
782.909	24.42
783.087	28.13
783.265	23.25
783.443	24.42
783.621	24.46
783.799	17.68
783.977	25.13
784.155	23.81
784.333	21.73
784.511	22.89
784.689	23.16
784.867	22.36
785.045	24.27
785.223	25.38
785.4	14.78
785.578	16.48
785.756	22.26
785.934	24.03
786.112	24.33
786.289	25.11
786.467	28.29
786.645	28.53
786.823	28.57
787	25.12
787.178	25.91
787.356	28.46
787.533	23
787.711	15.18
787.889	12.89
788.066	12.34
788.244	13.1
788.421	11.2
788.599	13.85
788.776	9.53
788.954	11.03
789.131	5.24
789.309	6.32
789.486	12.62
789.664	14.9
789.841	11.51
790.019	-0.41
790.196	-1.55
790.373	3.79
790.551	-11.43
790.728	-15.28
790.906	-19.22
791.083	5.85
791.26	1
791.437	-5.24
791.615	-14.96
791.792	-7.93
791.969	15.62
792.146	13.87
792.324	5.27
792.501	-11.48
792.678	9.46
792.855	4.92
793.032	-11.61
793.209	-14.02
793.387	-13.73
793.564	-6.15
793.741	-3.42
793.918	-7.53
794.095	1.83
794.272	-3.41
794.449	1.92
794.626	-1.92
794.803	2.18
794.98	7.47
795.157	10.28
795.334	13.15
795.511	7.4
795.688	4.05
795.864	5.08
796.041	-7.25
796.218	0.11
796.395	5.34
796.572	4.96
796.749	-4.26
796.925	-4.75
797.102	2.01
797.279	0.58
797.456	0.23
797.632	-3.34
797.809	-6.57
797.986	-7.62
798.162	-5.47
798.339	-6.01
798.516	-8.6
798.692	3.36
798.869	0.55
799.046	4.95
799.222	7.97
799.399	10.65
799.575	16.17
799.752	16.67
799.928	25.17
800.105	13.92
800.281	17.96
800.458	21.5
800.634	17.7
800.811	17.83
800.987	10.49
801.163	4.28
801.34	-6.77
801.516	-0.65
801.692	-6.96
801.869	-4.9
802.045	1.66
802.221	2.73
802.398	-2.86
802.574	5.56
802.75	5.6
802.926	-3.49
803.103	1.25
803.279	7.59
803.455	2.17
803.631	4.23
803.807	-3.29
803.983	0.37
804.16	-6.43
804.336	-10.49
804.512	-31.68
804.688	-37.63
804.864	-29.02
805.04	-35.32
805.216	-24.49
805.392	-10.68
805.568	2.57
805.744	5.12
805.92	10.26
806.096	13.9
806.272	31.46
806.448	36.66
806.623	34.79
806.799	32.88
806.975	24.79
807.151	24.36
807.327	18.1
807.503	14.05
807.678	19.58
807.854	10.01
808.03	10.58
808.206	3.04
808.381	10.45
808.557	16.62
808.733	14.63
808.908	31.58
809.084	35.29
809.26	24.21
809.435	19.73
809.611	4.79
809.787	11.93
809.962	13.55
810.138	4
810.313	-32.75
810.489	-35.38
810.664	-40.2
810.84	-62.16
811.015	-71.02
811.191	-69.12
811.366	-79.37
811.542	-54.06
811.717	-49.89
811.892	-62.77
812.068	-45.22
812.243	-9.92
812.419	5.37
812.594	9.55
812.769	25.33
812.944	24.34
813.12	38.97
813.295	36.71
813.47	20.64
813.645	11.45
813.821	13.78
813.996	2.02
814.171	3.12
814.346	7.94
814.521	13.03
814.697	9.78
814.872	4.94
815.047	4.05
815.222	-12.67
815.397	-12.44
815.572	3.86
815.747	-2.39
815.922	-1.23
816.097	-6.35
816.272	-2.72
816.447	-9.39
816.622	-6.42
816.797	-5.15
816.972	-5.2
817.147	-6.7
817.322	6.45
817.496	7.67
817.671	1.59
817.846	1.85
818.021	6.72
818.196	-3.31
818.371	5.8
818.545	3.11
818.72	2.03
818.895	1.45
819.069	6.41
819.244	-2.14
819.419	-2.14
819.594	0.77
819.768	6.18
819.943	7.3
820.117	10.98
820.292	10.06
820.467	11.04
820.641	11.52
820.816	12.86
820.99	11.91
821.165	13.64
821.339	12.73
821.514	14.33
821.688	13.69
821.863	13.08
822.037	11.66
822.212	10.38
822.386	10.27
822.56	11.16
822.735	11.23
822.909	12.96
823.084	12.89
823.258	13.4
823.432	12.09
823.606	14.59
823.781	13.53
823.955	15.73
824.129	17.94
824.303	18.35
824.478	18.76
824.652	15.27
824.826	16.8
825	16.27
825.174	15.1
825.348	14.16
825.523	12.34
825.697	13.75
825.871	12.02
826.045	14.37
826.219	12.56
826.393	8.56
826.567	7.42
826.741	5.68
826.915	3.49
827.089	3.38
827.263	2.08
827.437	-2.06
827.611	0.42
827.784	1.82
827.958	-6.41
828.132	-4.2
828.306	-8.19
828.48	-3.75
828.654	1.86
828.827	-4.41
829.001	-3.58
829.175	1.1
829.349	-4.17
829.522	-2.75
829.696	-0.07
829.87	3.74
830.044	-11.09
830.217	2.81
830.391	4.13
830.565	-4.18
830.738	12.54
830.912	2.87
831.085	7.17
831.259	10.14
831.432	0.14
831.606	-0.33
831.779	-6.74
831.953	1.57
832.126	12.25
832.3	9.53
832.473	14.84
832.647	10.4
832.82	13.4
832.994	11.54
833.167	15.26
833.34	15.84
833.514	12.18
833.687	20.56
833.86	24.09
834.034	19.66
834.207	21.87
834.38	19.3
834.553	20.56
834.727	20.55
834.9	12.35
835.073	10.26
835.246	8.48
835.419	12.26
835.593	-9.87
835.766	-20.15
835.939	-41.94
836.112	-65.95
836.285	-82.8
836.458	-67.16
836.631	-80.15
836.804	-29.49
836.977	-35.5
837.15	-21.02
837.323	-49.17
837.496	-54.71
837.669	-54.66
837.842	-21.62
838.015	-14.48
838.188	-30.9
838.361	-27.23
838.533	-17.66
838.706	-33.58
838.879	-31.84
839.052	-53.2
839.225	-28.52
839.398	-4.49
839.57	-9.82
839.743	-20.68
839.916	-22.23
840.088	-11.1
840.261	-17.35
840.434	-22.4
840.607	-32.33
840.779	-40.28
840.952	-27.37
841.124	-25.06
841.297	-29.3
841.47	-80.74
841.642	-13.93
841.815	-10.17
841.987	-29.32
842.16	-8.9
842.332	21.3
842.505	23.52
842.677	24.28
842.85	-2.72
843.022	11.25
843.194	-42.35
843.367	-7.31
843.539	-38.73
843.712	-45.37
843.884	-19.9
844.056	-45.59
844.229	-89.09
844.401	-60.94
844.573	-61.64
844.745	-61.88
844.918	-169.96
845.09	-70.45
845.262	-6.65
845.434	2.13
845.606	-80.36
845.779	579.55
845.951	-4350
846.123	414.71
846.295	-230.61
846.467	705.26
846.639	695.65
846.811	-90.91
846.983	-97.95
847.155	-422.5
847.327	-233.96
847.499	-23.95
847.671	13.58
847.843	-46.36
848.015	-85.51
848.187	-102.86
848.359	-42.47
848.531	-100
848.703	-211.5
848.875	-328.66
849.047	-1555
849.218	-3843.75
849.39	925.93
849.562	-13200
849.734	1978.57
849.905	-4557.14
850.077	664.86
850.249	298.57
850.421	-401.59
850.592	-114.63
850.764	-1.2
850.936	66.25
851.107	39.83
851.279	57.78
851.451	9.97
851.622	-43.02
851.794	-41.13
851.965	-72.39
852.137	-113.66
852.308	-2844.44
852.48	183.33
852.651	103.14
852.823	203.97
852.994	1355.56
853.166	-6425
853.337	1722.22
853.509	-273.37
853.68	-18225
853.851	-758.89
854.023	-497.2
854.194	-564.41
854.365	-291.98
854.537	-203.68
854.708	-278.54
854.879	-231.43
855.05	-198.34
855.222	-85.02
855.393	-149.36
855.564	-74.32
855.735	-47.45
855.906	-15.62
856.078	-76.75
856.249	-83.66
856.42	-172.22
856.591	-203.55
856.762	2200
856.933	1507.69
857.104	613.33
857.275	-9675
857.446	-423.08
857.617	3266.67
857.788	-10200
857.959	-57.14
858.13	-89.8
858.301	-26.74
858.472	-49.44
858.643	-13.04
858.814	-68.4
858.985	-57.39
859.155	-190.62
859.326	-502.97
859.497	-221.03
859.668	-317.46
859.839	-483.04
860.009	-346.43
860.18	-208.97
860.351	-116.11
860.522	-55.82
860.692	-69
860.863	-95.68
861.034	-80.99
861.204	-73.37
861.375	-265.12
861.546	-90.11
861.716	-127.89
861.887	-101.86
862.057	-292.65
862.228	-557.14
862.398	159.36
862.569	354.9
862.739	868.18
862.91	-105.43
863.08	-1314.29
863.251	-0
863.421	109.33
863.592	1100
863.762	211.69
863.932	-419.51
864.103	488.89
864.273	-200
864.443	-438.1
864.614	-132.76
864.784	-165.05
864.954	-62.4
865.125	-69.01
865.295	-64.71
865.465	-43.25
865.635	-53.91
865.805	-88.42
865.976	-47.72
866.146	-30.57
866.316	-6.64
866.486	18.39
866.656	13.32
866.826	16.79
866.996	23.11
867.166	35.6
867.336	18.64
867.506	37.14
867.676	28.92
867.846	28.83
868.016	22.53
868.186	-4.51
868.356	-138.55
868.526	-15.15
868.696	470.59
868.866	-41.79
869.036	-274.07
869.206	462.16
869.376	-577.78
869.545	884
869.715	1080.95
869.885	-260.29
870.055	-158.97
870.224	106.03
870.394	42.57
870.564	46.51
870.734	-89.29
870.903	-35.19
871.073	-150
871.243	-169.35
871.412	-100.46
871.582	-396.74
871.751	2045.45
871.921	397.47
872.091	166.79
872.26	185.4
872.43	179.86
872.599	272.36
872.769	292.9
872.938	399.56
873.108	324.81
873.277	687.9
873.446	-4823.08
873.616	594.62
873.785	-142.8
873.955	-72.12
874.124	-106.2
874.293	-136.6
874.463	-829.73
874.632	433.33
874.801	219.09
874.971	115.77
875.14	125.82
875.309	131.11
875.478	331.87
875.647	160.89
875.817	242.11
875.986	246.43
876.155	-46600
876.324	-214.39
876.493	-149.53
876.662	-261.9
876.831	-39.27
877	-32.7
877.17	-42.28
877.339	-151.87
877.508	-148.11
877.677	0
877.846	1683.33
878.015	741.67
878.184	419.49
878.352	5433.33
878.521	-502.94
878.69	-100
878.859	-107.1
879.028	-22.15
879.197	9.47
879.366	15.33
879.534	23.35
879.703	28.02
879.872	24.36
880.041	22.83
880.21	30.77
880.378	33.97
880.547	21.64
880.716	26.65
880.884	18.66
881.053	14.36
881.222	17.17
881.39	15.22
881.559	17.38
881.727	16.13
881.896	9.98
882.065	-2.45
882.233	-3.61
882.402	-4.09
882.57	-15.8
882.739	-22.65
882.907	-29.76
883.076	-34.91
883.244	-39.45
883.412	-61.75
883.581	-43.24
883.749	-46.4
883.918	-41.23
884.086	-53.01
884.254	-44.01
884.423	-17.4
884.591	21.49
884.759	48.45
884.927	47.55
885.096	54.92
885.264	60.3
885.432	42.95
885.6	59.93
885.769	34.9
885.937	59.94
886.105	41.46
886.273	37.53
886.441	9.63
886.609	7.91
886.777	0.97
886.945	5.67
887.113	13.23
887.281	5.78
887.449	14.81
887.617	0.38
887.785	-13.28
887.953	-56.62
888.121	-108.47
888.289	-24.17
888.457	-165.38
888.625	-176.19
888.793	278.95
888.961	468.75
889.129	2566.67
889.296	401.56
889.464	725
889.632	500
889.8	443.52
889.967	225.47
890.135	152.54
