Data from JASIL_3377_Reflection_1.txt Node
Date: Thu Nov 19 18:50:42 EST 2015
User: Geneva
Spectrometer: USB4E03002
Autoset integration time: false
Trigger mode: 4
Integration Time (sec): 1.000000E-1
Scans to average: 10
Electric dark correction enabled: false
Nonlinearity correction enabled: false
Boxcar width: 5
Stray light correction enabled: false
XAxis mode: Wavelengths
Stop averaging: false
Number of Pixels in Spectrum: 3648
>>>>>Begin Spectral Data<<<<<
177.575	137.17
177.794	131.94
178.014	134.56
178.233	133.81
178.452	144.55
178.672	137.97
178.891	137.4
179.11	132.3
179.33	129.39
179.549	133.95
179.768	128.21
179.987	130.61
180.207	139.69
180.426	139.01
180.645	140.31
180.864	136.01
181.084	144.29
181.303	152.45
181.522	146.76
181.741	169.9
181.96	166.83
182.179	170.03
182.398	185.19
182.618	171.1
182.837	172.02
183.056	164.04
183.275	165.45
183.494	149.85
183.713	139.95
183.932	143.71
184.151	124.88
184.37	127.45
184.589	119.25
184.808	117.43
185.027	113.54
185.246	108.67
185.465	111.34
185.684	104.84
185.903	112.86
186.122	108.62
186.341	111.61
186.56	114.08
186.779	118.77
186.998	124.2
187.216	125.92
187.435	128.29
187.654	134.38
187.873	139.8
188.092	154.96
188.311	155.77
188.53	165.06
188.748	172.57
188.967	174.48
189.186	161.63
189.405	160.4
189.623	156.47
189.842	156.04
190.061	156.2
190.28	143.51
190.498	140.41
190.717	138.05
190.936	131.83
191.154	133.41
191.373	119.74
191.592	115.35
191.81	119.7
192.029	110.71
192.248	121.35
192.466	130.74
192.685	127.48
192.904	117.92
193.122	125.87
193.341	123.7
193.559	111.55
193.778	131.24
193.996	130.24
194.215	122.44
194.433	123.1
194.652	114.03
194.87	103.37
195.089	118.72
195.307	127.45
195.526	125.23
195.744	128.25
195.963	130.59
196.181	123.71
196.399	122
196.618	121.82
196.836	126.75
197.055	126.66
197.273	135.7
197.491	122.54
197.71	125.51
197.928	116.45
198.146	126.09
198.365	125.35
198.583	123.52
198.801	120.01
199.019	114.87
199.238	119.14
199.456	118.64
199.674	107.59
199.892	112.53
200.111	102.46
200.329	109.25
200.547	109.84
200.765	116.09
200.983	116.09
201.202	127.42
201.42	135.92
201.638	124.7
201.856	123.63
202.074	125.68
202.292	123.27
202.51	124.22
202.728	121.64
202.946	113.44
203.165	110.62
203.383	115.7
203.601	114.87
203.819	114.27
204.037	121.78
204.255	116.63
204.473	116.65
204.691	119.73
204.909	124.39
205.127	127.23
205.345	136.63
205.562	137.11
205.78	134.96
205.998	138.53
206.216	131.15
206.434	125.47
206.652	144.58
206.87	145.04
207.088	138.33
207.306	135.81
207.523	134.25
207.741	123.95
207.959	123.22
208.177	127.07
208.395	115.83
208.612	127.14
208.83	133.48
209.048	121.28
209.266	124.78
209.483	129.93
209.701	133.76
209.919	134.68
210.136	140.36
210.354	147.31
210.572	143.36
210.79	160.62
211.007	164.73
211.225	165.06
211.442	165.38
211.66	162.72
211.878	165.05
212.095	222.73
212.313	198.09
212.53	190.9
212.748	164.75
212.966	184.37
213.183	209.66
213.401	179.45
213.618	175.25
213.836	192.64
214.053	201.86
214.271	163.65
214.488	136.59
214.705	126.58
214.923	122.11
215.14	125.17
215.358	121.18
215.575	113.69
215.793	120.69
216.01	117.87
216.227	118.42
216.445	115.55
216.662	132.55
216.879	124.44
217.097	129.93
217.314	143.13
217.531	137.67
217.749	136.25
217.966	139.04
218.183	138.98
218.4	139.53
218.618	138.83
218.835	142.76
219.052	131.49
219.269	142.13
219.487	147.38
219.704	151.87
219.921	158.73
220.138	143.67
220.355	142.57
220.572	133.94
220.79	132.81
221.007	134.29
221.224	131.32
221.441	126.21
221.658	127.98
221.875	126.6
222.092	116.92
222.309	114.52
222.526	126.17
222.743	112.76
222.96	112.92
223.177	112.89
223.394	107.82
223.611	104.95
223.828	106.86
224.045	101.09
224.262	106.01
224.479	101.81
224.696	106.76
224.913	100.43
225.13	106.38
225.347	108.93
225.564	111.07
225.781	108.15
225.997	107.47
226.214	98.99
226.431	96.52
226.648	90.1
226.865	87.7
227.082	77.15
227.298	75.6
227.515	70.88
227.732	67.95
227.949	63.03
228.165	58.68
228.382	58.19
228.599	59.73
228.816	59.69
229.032	59.01
229.249	59.81
229.466	62.08
229.682	61.18
229.899	65.28
230.116	65.32
230.332	68.95
230.549	73.28
230.765	76.03
230.982	80.71
231.199	81.03
231.415	81.51
231.632	80.81
231.848	87.32
232.065	86.22
232.281	86.05
232.498	82.64
232.714	81.85
232.931	79.61
233.147	75.84
233.364	70.25
233.58	70.58
233.797	67.54
234.013	70.48
234.23	67.23
234.446	70.54
234.662	70.79
234.879	73
235.095	74.32
235.312	76.3
235.528	76.42
235.744	79.04
235.961	79.77
236.177	82.17
236.393	78.65
236.61	83.34
236.826	81.67
237.042	82.28
237.258	79.71
237.475	78.88
237.691	79.35
237.907	78.17
238.123	76.12
238.339	75.44
238.556	76.32
238.772	78.47
238.988	72.92
239.204	72.21
239.42	66.64
239.636	65.97
239.853	65.15
240.069	61.21
240.285	58.02
240.501	55.33
240.717	50.62
240.933	47.86
241.149	44.14
241.365	40.96
241.581	40.54
241.797	40.97
242.013	39.76
242.229	38.49
242.445	38.71
242.661	42.62
242.877	42.54
243.093	42.81
243.309	42.61
243.525	46.34
243.741	47.56
243.957	48.05
244.173	47.63
244.388	48.79
244.604	45.68
244.82	43.54
245.036	40.61
245.252	40.25
245.468	39.36
245.683	37.93
245.899	35.27
246.115	33.35
246.331	31.94
246.547	30.87
246.762	29.83
246.978	30.89
247.194	30.9
247.409	30.36
247.625	29.94
247.841	30.57
248.057	30.86
248.272	30.17
248.488	31.39
248.703	31.11
248.919	32.37
249.135	33.76
249.35	32.62
249.566	35.12
249.782	37.2
249.997	38.02
250.213	38.7
250.428	37.94
250.644	39.74
250.859	40.26
251.075	40.31
251.29	38.86
251.506	39.94
251.721	41.14
251.937	41.73
252.152	40.03
252.368	39.08
252.583	42.06
252.798	43.11
253.014	43.31
253.229	44.42
253.445	47.41
253.66	52.04
253.875	52.34
254.091	52.07
254.306	52.6
254.521	55.37
254.737	58.68
254.952	52.95
255.167	52.46
255.383	52.83
255.598	53.05
255.813	50.54
256.028	47.88
256.244	47.07
256.459	47.75
256.674	43.07
256.889	40.57
257.104	38.47
257.32	39.15
257.535	36.83
257.75	34.39
257.965	32.05
258.18	30.97
258.395	28.9
258.61	27
258.826	24.67
259.041	24.5
259.256	23.15
259.471	23.57
259.686	22.92
259.901	23.6
260.116	23.79
260.331	23.92
260.546	23.48
260.761	24.21
260.976	25.47
261.191	27.12
261.406	28.55
261.621	30.24
261.836	29.93
262.05	30.45
262.265	30.99
262.48	32.31
262.695	34.11
262.91	36.97
263.125	38.41
263.34	37.56
263.555	38.36
263.769	37.65
263.984	37.24
264.199	38.98
264.414	39.66
264.629	38.39
264.843	39.12
265.058	38.49
265.273	36.86
265.488	34.57
265.702	34.4
265.917	33.92
266.132	34.63
266.346	35.49
266.561	35.11
266.776	36.41
266.99	35.95
267.205	35.11
267.42	33.98
267.634	34.04
267.849	34.73
268.063	34.49
268.278	33
268.492	33.06
268.707	32.47
268.922	32.26
269.136	29.89
269.351	29.94
269.565	29.56
269.78	29.44
269.994	29.22
270.209	28.59
270.423	29.69
270.637	30.75
270.852	29.78
271.066	30.17
271.281	30.01
271.495	29.98
271.709	29.72
271.924	30.23
272.138	30.74
272.353	29.88
272.567	29.86
272.781	29.63
272.996	29.11
273.21	27.91
273.424	27.85
273.638	27.52
273.853	28.22
274.067	29.78
274.281	28.17
274.495	27.41
274.71	28.64
274.924	29.25
275.138	29.54
275.352	30.32
275.566	32.77
275.781	31.17
275.995	30.08
276.209	30.55
276.423	29.29
276.637	30.17
276.851	30.45
277.065	29.62
277.279	29.85
277.493	30.55
277.707	30.26
277.921	28.15
278.135	29.35
278.349	30.73
278.563	30.92
278.777	30.47
278.991	31.19
279.205	30.57
279.419	29.84
279.633	29.03
279.847	28.01
280.061	28.64
280.275	30.7
280.489	31.14
280.703	28.91
280.917	28.75
281.131	29.22
281.344	27.8
281.558	27.78
281.772	29.05
281.986	29.04
282.2	27.71
282.414	26.52
282.627	25.81
282.841	25.31
283.055	25.23
283.269	24.32
283.482	23.35
283.696	23.37
283.91	24.03
284.123	22.55
284.337	22.24
284.551	23.1
284.764	23.66
284.978	23.64
285.192	23.58
285.405	24.05
285.619	24.72
285.833	25.57
286.046	26.11
286.26	25.85
286.473	26.65
286.687	27.19
286.9	26.05
287.114	24.88
287.327	24.65
287.541	25.37
287.754	26.73
287.968	26.44
288.181	27.01
288.395	26.57
288.608	26.2
288.822	26.06
289.035	25.22
289.248	25.09
289.462	25.09
289.675	24.57
289.889	23.69
290.102	23.29
290.315	22.16
290.529	22.53
290.742	23.33
290.955	23.82
291.169	24.14
291.382	24.43
291.595	24.68
291.808	26.64
292.022	26.73
292.235	26.23
292.448	25.63
292.661	24.66
292.875	22.94
293.088	22.94
293.301	23.55
293.514	23.05
293.727	23.19
293.94	23.65
294.153	23.39
294.367	23.53
294.58	22.8
294.793	23.63
295.006	24.34
295.219	24.47
295.432	24.01
295.645	22.29
295.858	23.4
296.071	23.29
296.284	23.08
296.497	22.11
296.71	21.33
296.923	21.8
297.136	20.78
297.349	21.72
297.562	20.82
297.775	21.38
297.988	22.56
298.201	22.47
298.414	22.35
298.626	22.04
298.839	22.64
299.052	24.67
299.265	25.16
299.478	24.47
299.691	24.96
299.903	25.45
300.116	24.13
300.329	24.49
300.542	22.7
300.755	23.8
300.967	24
301.18	23.44
301.393	21.84
301.605	22.89
301.818	23.55
302.031	23.1
302.243	23.62
302.456	23.52
302.669	22.16
302.881	23.63
303.094	22.28
303.307	23.36
303.519	23.92
303.732	24.59
303.944	24.4
304.157	25.24
304.37	25.03
304.582	26.45
304.795	28.25
305.007	28.57
305.22	28.27
305.432	29.28
305.645	29.34
305.857	29.97
306.069	30.76
306.282	30.63
306.494	31.18
306.707	30.37
306.919	29.14
307.132	27.24
307.344	27.27
307.556	26.4
307.769	26.18
307.981	26.58
308.193	24.93
308.406	23.74
308.618	23.07
308.83	22.81
309.043	22.07
309.255	22.41
309.467	21.98
309.679	21.5
309.892	23.02
310.104	22.98
310.316	22.38
310.528	23.52
310.74	23.3
310.953	22.73
311.165	22.29
311.377	22.88
311.589	21.96
311.801	22.22
312.013	22.91
312.225	22.56
312.437	22.24
312.649	21.23
312.862	21.44
313.074	22.03
313.286	22.88
313.498	25.29
313.71	25.34
313.922	26.53
314.134	26.65
314.346	27.04
314.558	26.59
314.77	27.29
314.982	29
315.193	29.32
315.405	29.5
315.617	28.93
315.829	27.11
316.041	28.09
316.253	28.34
316.465	29.04
316.677	28.77
316.888	29.24
317.1	28.77
317.312	28.29
317.524	27.32
317.736	27.82
317.947	30.11
318.159	29
318.371	29.52
318.583	29.11
318.794	28.11
319.006	29.58
319.218	28.87
319.43	28.55
319.641	28.74
319.853	28.64
320.064	27.37
320.276	26.65
320.488	27.29
320.699	27.15
320.911	26
321.123	26.99
321.334	25.75
321.546	26.37
321.757	27.49
321.969	26.7
322.18	27.49
322.392	27.81
322.603	27.66
322.815	27.68
323.026	27.85
323.238	27.75
323.449	28.83
323.661	27.43
323.872	25.86
324.083	25.36
324.295	25.51
324.506	25.06
324.718	25.38
324.929	24.31
325.14	24.62
325.352	23.3
325.563	23.74
325.774	22.03
325.986	23.45
326.197	24.72
326.408	24.1
326.62	23.57
326.831	23.19
327.042	22.53
327.253	22.7
327.464	22.81
327.676	23.97
327.887	24.64
328.098	25.21
328.309	25.64
328.52	25.27
328.732	26.25
328.943	27.17
329.154	28.57
329.365	29.13
329.576	28.29
329.787	28.1
329.998	28.12
330.209	27.84
330.42	27.94
330.631	27.96
330.842	28.61
331.053	28.26
331.264	28.12
331.475	27.63
331.686	27.59
331.897	28.71
332.108	28.56
332.319	28.29
332.53	28.58
332.741	29.54
332.952	28.67
333.163	28.63
333.374	28.91
333.585	28.36
333.795	27.57
334.006	27.64
334.217	26.59
334.428	26.75
334.639	27.29
334.849	27.11
335.06	26.88
335.271	26.31
335.482	24.61
335.692	24.32
335.903	24.46
336.114	24.92
336.325	24.5
336.535	25.97
336.746	25.86
336.957	25.58
337.167	25.41
337.378	24.85
337.589	26
337.799	28.1
338.01	28.63
338.22	28.83
338.431	28.15
338.642	28.42
338.852	27.9
339.063	28.32
339.273	27.37
339.484	27.8
339.694	28.16
339.905	27.53
340.115	27.09
340.326	26.21
340.536	26.57
340.746	26.65
340.957	26.84
341.167	28.19
341.378	26.77
341.588	26.79
341.799	25.86
342.009	25.81
342.219	26.36
342.43	24.99
342.64	25.63
342.85	25.31
343.061	25.6
343.271	24.82
343.481	23.16
343.691	23.14
343.902	22.72
344.112	23.26
344.322	22.77
344.532	22
344.743	22.79
344.953	23.44
345.163	22.14
345.373	22.12
345.583	22.84
345.793	22.9
346.004	23.61
346.214	23.52
346.424	23.72
346.634	23.34
346.844	23.88
347.054	23.84
347.264	22.67
347.474	23.87
347.684	24.09
347.894	22.48
348.104	23.04
348.314	22.62
348.524	21.91
348.734	21.61
348.944	22.61
349.154	21.7
349.364	21.56
349.574	20.71
349.784	20.92
349.994	20.06
350.204	21.66
350.413	21.5
350.623	22.04
350.833	22.88
351.043	23.2
351.253	22.61
351.463	23
351.672	23
351.882	24.76
352.092	24.69
352.302	24.92
352.511	24.42
352.721	24.43
352.931	24.48
353.141	25.04
353.35	25.21
353.56	25.19
353.77	25.62
353.979	25.57
354.189	25.17
354.399	24.57
354.608	24.29
354.818	23.98
355.027	23.37
355.237	23.27
355.447	22.9
355.656	21.69
355.866	21.22
356.075	21.37
356.285	21.41
356.494	20.81
356.704	20.59
356.913	20.69
357.123	20.54
357.332	20.56
357.542	20.3
357.751	20.16
357.96	21.14
358.17	21.69
358.379	21.34
358.589	20.68
358.798	20.81
359.007	20.64
359.217	20.85
359.426	20.76
359.635	20.89
359.845	20.8
360.054	21.26
360.263	20.22
360.472	19.51
360.682	18.69
360.891	19.12
361.1	18.95
361.309	19.48
361.519	18.75
361.728	19.05
361.937	18.21
362.146	18.2
362.355	17.21
362.564	17.39
362.774	17.9
362.983	18.87
363.192	19.5
363.401	19.31
363.61	19.25
363.819	20.14
364.028	19.47
364.237	20.15
364.446	20.2
364.655	20.81
364.864	20.98
365.073	21.35
365.282	20.47
365.491	19.14
365.7	19.29
365.909	19
366.118	19.56
366.327	19.87
366.536	20.26
366.745	20.09
366.954	19.63
367.162	19.5
367.371	18.95
367.58	19.9
367.789	20.9
367.998	20.44
368.207	20.17
368.415	19.09
368.624	19.12
368.833	18.75
369.042	18.22
369.25	19.03
369.459	20.14
369.668	20.29
369.877	19.46
370.085	19.03
370.294	19.62
370.503	19.59
370.711	20.12
370.92	19.93
371.129	19.96
371.337	20.1
371.546	19.59
371.754	18.8
371.963	18.87
372.171	19.23
372.38	19.01
372.589	18.99
372.797	20.02
373.006	19.88
373.214	20.37
373.423	20.37
373.631	21.17
373.84	20.9
374.048	20.16
374.256	19.83
374.465	19.27
374.673	18.62
374.882	18.25
375.09	17.99
375.298	17.58
375.507	17.03
375.715	16.95
375.923	16.26
376.132	16.66
376.34	16.99
376.548	17.02
376.757	17.05
376.965	17.38
377.173	17.41
377.381	16.53
377.59	16.14
377.798	16.31
378.006	16.39
378.214	16.51
378.423	17.05
378.631	17.1
378.839	17.17
379.047	17.34
379.255	17.64
379.463	18.29
379.671	18.75
379.879	19.04
380.088	18.96
380.296	18.63
380.504	18.81
380.712	18.02
380.92	17.87
381.128	17.96
381.336	18.79
381.544	19.19
381.752	18.93
381.96	19.03
382.168	19.15
382.376	19.69
382.584	20.26
382.791	19.77
382.999	19.9
383.207	20.1
383.415	19.62
383.623	19.33
383.831	18.61
384.039	17.89
384.247	17.52
384.454	17.59
384.662	17.32
384.87	17.04
385.078	17.59
385.285	17.4
385.493	16.63
385.701	16.56
385.909	15.88
386.116	16.29
386.324	16.41
386.532	16.35
386.739	16.63
386.947	16.52
387.155	16.77
387.362	16.31
387.57	16.15
387.778	16.45
387.985	16.51
388.193	16.64
388.4	15.94
388.608	16.04
388.816	16.22
389.023	15.34
389.231	15.15
389.438	14.15
389.646	14.43
389.853	14.47
390.061	14.6
390.268	14.62
390.475	14.57
390.683	14.94
390.89	14.98
391.098	15.02
391.305	15.57
391.512	15.72
391.72	15.71
391.927	15.37
392.135	15.22
392.342	15.58
392.549	15.53
392.756	15.51
392.964	14.99
393.171	15.04
393.378	15.1
393.586	15.12
393.793	14.83
394	15.3
394.207	15.06
394.414	14.88
394.622	14.41
394.829	14.06
395.036	13.95
395.243	14.52
395.45	14.79
395.657	14.57
395.864	14.41
396.072	14.36
396.279	14.77
396.486	14.88
396.693	14.98
396.9	14.9
397.107	15.08
397.314	15.28
397.521	15.19
397.728	14.64
397.935	14.61
398.142	14.78
398.349	14.63
398.556	14.27
398.763	14.69
398.97	14.94
399.177	15.19
399.383	15.47
399.59	15.27
399.797	15.54
400.004	16.07
400.211	16.34
400.418	15.76
400.625	16.06
400.831	15.56
401.038	15.95
401.245	16.19
401.452	16.14
401.658	15.78
401.865	16.1
402.072	15.6
402.279	15.04
402.485	15.08
402.692	15.54
402.899	15.73
403.105	16.37
403.312	15.36
403.519	14.51
403.725	14.87
403.932	14.98
404.138	14
404.345	14.29
404.552	14.07
404.758	13.75
404.965	13.63
405.171	13.34
405.378	13.08
405.584	13.26
405.791	13.69
405.997	13.29
406.204	14.16
406.41	14.85
406.617	14.84
406.823	15.26
407.029	15.52
407.236	15.38
407.442	15.8
407.649	15.65
407.855	15.77
408.061	16.06
408.268	16.17
408.474	15.26
408.68	15.31
408.887	15.17
409.093	15.58
409.299	15.57
409.505	15.71
409.712	15.21
409.918	15.39
410.124	15.66
410.33	15.66
410.537	15.47
410.743	15.9
410.949	15.79
411.155	15.95
411.361	15.45
411.567	15.41
411.773	15.22
411.98	15.48
412.186	15.99
412.392	16.16
412.598	15.84
412.804	15.75
413.01	15.29
413.216	15.4
413.422	15.87
413.628	15.89
413.834	15.94
414.04	15.96
414.246	16.34
414.452	15.93
414.658	15.2
414.864	15.61
415.07	15.97
415.275	16.2
415.481	16.26
415.687	15.9
415.893	16.45
416.099	16.59
416.305	16.81
416.511	16.38
416.716	16.07
416.922	16.27
417.128	16.11
417.334	15.91
417.539	15.78
417.745	15.79
417.951	15.53
418.157	15.31
418.362	14.97
418.568	14.93
418.774	15.05
418.979	15.23
419.185	15.14
419.391	15.02
419.596	15.31
419.802	15.21
420.008	15.05
420.213	13.5
420.419	13.55
420.624	13.59
420.83	13.7
421.035	13.67
421.241	13.68
421.446	13.72
421.652	13.94
421.857	13.92
422.063	14.06
422.268	14.19
422.474	15.94
422.679	15.72
422.885	15.96
423.09	15.93
423.295	15.9
423.501	16.03
423.706	16.24
423.911	16.32
424.117	16.18
424.322	16.37
424.527	16.42
424.733	16.49
424.938	16.81
425.143	16.84
425.349	17.16
425.554	17.5
425.759	17.65
425.964	17.89
426.169	18.05
426.375	18.08
426.58	18.11
426.785	18.13
426.99	18.17
427.195	18.29
427.4	18.23
427.605	17.8
427.811	17.73
428.016	18.19
428.221	17.83
428.426	17.95
428.631	18.12
428.836	18.3
429.041	18.68
429.246	18.38
429.451	18.74
429.656	19.14
429.861	19.61
430.066	19.86
430.271	19.56
430.476	20.13
430.681	19.95
430.886	20.08
431.09	20.35
431.295	20.82
431.5	21.55
431.705	21.52
431.91	21.2
432.115	21.19
432.32	21.2
432.524	21.39
432.729	21.37
432.934	21.86
433.139	22.08
433.343	22.2
433.548	21.91
433.753	22.04
433.958	21.98
434.162	22.66
434.367	22.85
434.572	23.07
434.776	23.29
434.981	23.53
435.186	23.32
435.39	23.66
435.595	23.77
435.799	24.07
436.004	23.98
436.209	24.35
436.413	24.2
436.618	24.42
436.822	24.61
437.027	24.67
437.231	24.86
437.436	25.21
437.64	25.05
437.845	25
438.049	25.07
438.253	25
438.458	25.09
438.662	25.52
438.867	25.74
439.071	25.76
439.275	25.63
439.48	25.46
439.684	25.45
439.888	25.72
440.093	25.75
440.297	25.84
440.501	26.07
440.706	26.25
440.91	26.14
441.114	25.81
441.318	25.77
441.523	25.93
441.727	26.22
441.931	26.34
442.135	26.4
442.339	26.48
442.543	26.5
442.748	27.08
442.952	27.09
443.156	27.21
443.36	27.88
443.564	28.13
443.768	28.24
443.972	28.12
444.176	28.65
444.38	29
444.584	29.36
444.788	29.69
444.992	29.57
445.196	29.6
445.4	29.65
445.604	29.59
445.808	29.83
446.012	29.86
446.216	30.35
446.42	30.12
446.624	30.19
446.828	30.09
447.032	30.03
447.235	29.98
447.439	30.27
447.643	30.48
447.847	30.63
448.051	30.71
448.254	31.09
448.458	31.08
448.662	31.24
448.866	31.21
449.069	31.66
449.273	32.07
449.477	32.49
449.681	32.66
449.884	32.72
450.088	32.71
450.292	32.81
450.495	32.91
450.699	33.06
450.902	33.47
451.106	33.6
451.31	33.62
451.513	33.51
451.717	33.45
451.92	33.24
452.124	33.63
452.327	33.78
452.531	34.13
452.734	34.27
452.938	34.73
453.141	34.38
453.345	34.88
453.548	35
453.752	35.22
453.955	35.45
454.158	35.56
454.362	35.48
454.565	35.55
454.769	35.57
454.972	35.55
455.175	35.17
455.379	35.88
455.582	35.65
455.785	35.84
455.988	36.09
456.192	36.39
456.395	36.63
456.598	37.06
456.801	37.39
457.005	37.44
457.208	37.39
457.411	37.41
457.614	36.89
457.817	36.99
458.021	36.89
458.224	36.69
458.427	36.47
458.63	36.35
458.833	36.22
459.036	36.18
459.239	36.3
459.442	36.63
459.645	36.7
459.848	36.82
460.051	36.9
460.254	37.1
460.457	37.32
460.66	37.5
460.863	37.67
461.066	37.63
461.269	37.7
461.472	37.88
461.675	37.95
461.878	38.35
462.081	38.42
462.284	38.32
462.486	38.5
462.689	39.06
462.892	39.11
463.095	39.31
463.298	39.48
463.5	39.5
463.703	39.28
463.906	39.21
464.109	38.98
464.311	39.32
464.514	39.43
464.717	39.46
464.92	39
465.122	38.91
465.325	39.32
465.528	39.36
465.73	39.48
465.933	39.44
466.135	39.71
466.338	39.95
466.541	40.03
466.743	40.03
466.946	39.97
467.148	39.99
467.351	40.08
467.553	39.84
467.756	39.93
467.958	40.09
468.161	40.38
468.363	40.3
468.566	40.12
468.768	40.29
468.971	40.54
469.173	40.7
469.375	40.82
469.578	41.05
469.78	40.86
469.983	40.94
470.185	40.69
470.387	40.6
470.59	40.85
470.792	41.18
470.994	40.79
471.196	40.49
471.399	40.27
471.601	40.22
471.803	40.24
472.005	40.57
472.208	40.78
472.41	41.25
472.612	40.91
472.814	40.86
473.016	40.79
473.218	41.05
473.421	41.3
473.623	41.5
473.825	41.7
474.027	42.05
474.229	42.31
474.431	42.2
474.633	41.97
474.835	42.39
475.037	42.39
475.239	42.37
475.441	42.44
475.643	42.81
475.845	42.51
476.047	42.44
476.249	42.18
476.451	42.17
476.653	42.29
476.855	42.15
477.057	42.07
477.258	42
477.46	41.98
477.662	41.94
477.864	41.77
478.066	41.92
478.268	41.85
478.469	41.92
478.671	41.77
478.873	41.66
479.075	41.83
479.276	41.89
479.478	41.75
479.68	41.91
479.882	42.03
480.083	41.92
480.285	42.01
480.487	42.13
480.688	41.86
480.89	42.03
481.091	42.07
481.293	41.93
481.495	41.89
481.696	42.01
481.898	41.93
482.099	41.81
482.301	41.72
482.502	41.54
482.704	41.47
482.905	41.44
483.107	41.26
483.308	41.17
483.51	41.05
483.711	41.01
483.913	40.94
484.114	40.91
484.315	40.95
484.517	40.88
484.718	41.01
484.92	41.05
485.121	41.16
485.322	41.24
485.524	41.37
485.725	41.6
485.926	41.71
486.127	41.78
486.329	41.62
486.53	41.62
486.731	41.73
486.932	41.8
487.134	41.74
487.335	41.71
487.536	41.7
487.737	41.74
487.938	41.73
488.139	41.62
488.341	41.65
488.542	41.83
488.743	41.78
488.944	41.9
489.145	41.73
489.346	41.82
489.547	41.91
489.748	42.11
489.949	42.08
490.15	42.2
490.351	42.29
490.552	42.42
490.753	42.31
490.954	42.37
491.155	42.4
491.356	42.49
491.557	42.59
491.758	42.66
491.959	42.65
492.159	42.65
492.36	42.69
492.561	42.82
492.762	42.72
492.963	42.94
493.164	43.09
493.364	43.06
493.565	43.05
493.766	43.04
493.967	43.01
494.167	42.9
494.368	43.12
494.569	43.17
494.769	43.29
494.97	43.33
495.171	43.45
495.371	43.2
495.572	43.4
495.773	43.72
495.973	43.88
496.174	43.94
496.375	43.92
496.575	43.91
496.776	44.07
496.976	43.97
497.177	44.16
497.377	44.23
497.578	44.47
497.778	44.52
497.979	44.5
498.179	44.48
498.38	44.27
498.58	44.29
498.78	44.33
498.981	44.27
499.181	44.36
499.382	44.22
499.582	44.24
499.782	44.2
499.983	44.09
500.183	44.35
500.383	44.22
500.584	44.56
500.784	44.54
500.984	44.52
501.184	44.42
501.385	44.49
501.585	44.62
501.785	44.63
501.985	44.81
502.185	44.9
502.386	44.74
502.586	44.73
502.786	44.53
502.986	44.79
503.186	44.45
503.386	44.31
503.586	44.31
503.786	44.17
503.987	44.05
504.187	43.96
504.387	44.02
504.587	43.82
504.787	43.78
504.987	43.81
505.187	43.71
505.387	43.94
505.587	44.35
505.786	44.32
505.986	44.5
506.186	44.5
506.386	44.64
506.586	44.56
506.786	44.7
506.986	44.9
507.186	45
507.386	45.1
507.585	45.21
507.785	44.91
507.985	44.99
508.185	45.13
508.384	45.39
508.584	45.48
508.784	45.55
508.984	45.64
509.183	45.46
509.383	45.59
509.583	45.8
509.782	45.79
509.982	46.05
510.182	46.11
510.381	45.98
510.581	46.17
510.781	45.96
510.98	45.98
511.18	46.18
511.379	46.43
511.579	46.4
511.778	46.26
511.978	46.15
512.177	46.26
512.377	46.16
512.576	46.11
512.776	45.84
512.975	45.94
513.175	46.04
513.374	45.8
513.573	45.83
513.773	46.02
513.972	46.05
514.172	46.34
514.371	46.18
514.57	46.34
514.77	46.72
514.969	46.74
515.168	46.63
515.367	46.43
515.567	46.34
515.766	46.17
515.965	46.03
516.164	45.98
516.364	45.97
516.563	45.84
516.762	45.78
516.961	45.59
517.16	45.43
517.359	45.59
517.559	45.54
517.758	45.54
517.957	45.57
518.156	45.68
518.355	45.78
518.554	45.71
518.753	45.8
518.952	45.63
519.151	45.57
519.35	45.65
519.549	45.61
519.748	45.63
519.947	45.67
520.146	45.68
520.345	45.39
520.544	45.25
520.743	45.26
520.942	45.26
521.141	45.58
521.339	45.58
521.538	45.69
521.737	45.79
521.936	46.03
522.135	45.85
522.333	45.99
522.532	46.07
522.731	45.96
522.93	46.09
523.129	45.92
523.327	45.6
523.526	45.61
523.725	45.55
523.923	45.57
524.122	45.43
524.321	45.41
524.519	45.44
524.718	45.52
524.917	45.45
525.115	45.18
525.314	45.27
525.512	45.36
525.711	45.34
525.909	45.13
526.108	44.93
526.306	45.06
526.505	45.24
526.703	45.12
526.902	45.05
527.1	45.01
527.299	44.91
527.497	44.8
527.696	44.75
527.894	44.7
528.092	44.73
528.291	44.61
528.489	44.39
528.688	44.26
528.886	44.25
529.084	44.2
529.283	44.19
529.481	44.22
529.679	44.2
529.877	44.2
530.076	44.25
530.274	44.23
530.472	44.52
530.67	44.57
530.869	44.64
531.067	44.48
531.265	44.54
531.463	44.68
531.661	44.77
531.859	44.75
532.057	44.83
532.255	44.71
532.454	44.7
532.652	44.61
532.85	44.82
533.048	44.86
533.246	44.99
533.444	44.91
533.642	44.86
533.84	44.76
534.038	44.92
534.236	44.79
534.434	44.9
534.632	44.92
534.83	44.79
535.027	44.69
535.225	44.59
535.423	44.45
535.621	44.6
535.819	44.51
536.017	44.65
536.215	44.56
536.412	44.7
536.61	44.6
536.808	44.82
537.006	44.67
537.203	44.6
537.401	44.71
537.599	44.91
537.797	44.94
537.994	45.21
538.192	45.28
538.39	45.56
538.587	45.74
538.785	45.95
538.983	45.85
539.18	46.13
539.378	46.16
539.575	46.34
539.773	46.3
539.97	46.31
540.168	46.19
540.366	46.28
540.563	46.22
540.761	46.1
540.958	46.05
541.155	46.08
541.353	46.16
541.55	46.07
541.748	45.93
541.945	45.93
542.143	45.96
542.34	46.22
542.537	46.26
542.735	46.37
542.932	46.47
543.129	46.71
543.327	46.83
543.524	47.06
543.721	47.6
543.919	47.95
544.116	48.29
544.313	48.49
544.51	48.63
544.708	49.01
544.905	48.99
545.102	49.24
545.299	49.38
545.496	49.57
545.693	49.49
545.891	49.13
546.088	48.98
546.285	48.92
546.482	48.79
546.679	48.32
546.876	47.88
547.073	47.93
547.27	47.77
547.467	47.53
547.664	47.42
547.861	47.44
548.058	47.55
548.255	47.48
548.452	47.44
548.649	47.34
548.846	47.49
549.043	47.64
549.24	47.65
549.437	47.72
549.633	47.4
549.83	47.13
550.027	46.88
550.224	47.06
550.421	47.16
550.618	46.99
550.814	47.26
551.011	47.17
551.208	46.59
551.405	46.43
551.601	46.3
551.798	46.61
551.995	46.69
552.191	46.9
552.388	46.7
552.585	46.56
552.781	46.39
552.978	46.1
553.175	46.27
553.371	46.87
553.568	46.89
553.764	47.02
553.961	46.94
554.157	47.08
554.354	46.87
554.55	46.74
554.747	46.76
554.943	47.22
555.14	47.47
555.336	47.52
555.533	47.12
555.729	46.86
555.926	46.49
556.122	46.5
556.318	46.48
556.515	46.68
556.711	46.9
556.907	47.41
557.104	47.15
557.3	47.2
557.496	46.98
557.693	46.95
557.889	47.26
558.085	47.59
558.281	47.44
558.478	47.4
558.674	47.31
558.87	47.42
559.066	47.02
559.262	47.01
559.459	46.8
559.655	46.83
559.851	47.33
560.047	47.34
560.243	46.78
560.439	46.67
560.635	46.53
560.831	46.75
561.027	46.43
561.223	46.37
561.419	46.16
561.615	46.04
561.811	46.16
562.007	46.07
562.203	45.75
562.399	46.18
562.595	46.26
562.791	46.27
562.987	45.93
563.183	45.91
563.379	45.9
563.575	46.15
563.771	46.2
563.966	46.17
564.162	45.95
564.358	46.07
564.554	46.04
564.75	45.94
564.945	45.8
565.141	45.58
565.337	45.8
565.533	45.87
565.728	45.58
565.924	45.53
566.12	45.49
566.315	45.38
566.511	45.33
566.707	45.19
566.902	45.24
567.098	45.22
567.293	45.48
567.489	45.4
567.684	45.44
567.88	45.76
568.076	45.86
568.271	45.94
568.467	46.08
568.662	46.31
568.858	46.45
569.053	46.51
569.248	46.63
569.444	46.48
569.639	45.96
569.835	45.69
570.03	45.33
570.225	45.55
570.421	45.39
570.616	45.24
570.812	44.99
571.007	44.82
571.202	44.81
571.397	44.54
571.593	44.77
571.788	45.32
571.983	45.31
572.178	45.86
572.374	45.62
572.569	45.85
572.764	46.02
572.959	46.17
573.154	46.27
573.35	46.27
573.545	46.62
573.74	46.55
573.935	46.54
574.13	46.83
574.325	46.53
574.52	46.96
574.715	46.94
574.91	46.7
575.105	46.73
575.3	47.09
575.495	47.42
575.69	47.67
575.885	47.9
576.08	47.97
576.275	48.03
576.47	48.19
576.665	48.07
576.86	48.2
577.055	48.5
577.25	48.83
577.444	48.97
577.639	49.1
577.834	49.07
578.029	49.13
578.224	49.27
578.418	49.27
578.613	49.42
578.808	49.65
579.003	49.83
579.197	49.87
579.392	49.74
579.587	49.6
579.781	49.38
579.976	49.07
580.171	49.09
580.365	48.93
580.56	48.86
580.755	49.12
580.949	48.95
581.144	48.71
581.338	49.01
581.533	49.08
581.727	49.22
581.922	49.17
582.116	49.66
582.311	49.63
582.505	49.75
582.7	50.15
582.894	49.63
583.089	49.78
583.283	49.86
583.478	49.72
583.672	49.83
583.866	49.78
584.061	50.26
584.255	50.1
584.449	50.31
584.644	49.97
584.838	49.45
585.032	49.88
585.226	49.68
585.421	49.61
585.615	49.56
585.809	49.6
586.003	49.57
586.198	49.48
586.392	49.45
586.586	49.28
586.78	49.99
586.974	50.16
587.168	50.13
587.363	49.94
587.557	50.13
587.751	49.96
587.945	50.33
588.139	50.17
588.333	49.93
588.527	50.14
588.721	50.17
588.915	49.61
589.109	49.55
589.303	49.08
589.497	49.03
589.691	48.47
589.885	48.8
590.079	48.64
590.273	48.73
590.466	48.48
590.66	48.4
590.854	48.23
591.048	48.56
591.242	48.76
591.436	48.91
591.629	49.05
591.823	49.66
592.017	49.79
592.211	49.76
592.404	49.84
592.598	50.25
592.792	50.39
592.986	50.48
593.179	50.5
593.373	50.88
593.567	51.39
593.76	51.71
593.954	51.72
594.147	51.33
594.341	51.37
594.535	51.21
594.728	50.83
594.922	50.75
595.115	51.02
595.309	50.92
595.502	50.71
595.696	50.3
595.889	50.11
596.083	49.74
596.276	49.89
596.47	49.69
596.663	49.83
596.856	50.18
597.05	50.1
597.243	50.08
597.437	50.32
597.63	50.31
597.823	50.37
598.017	50.33
598.21	50.89
598.403	51.12
598.596	51.23
598.79	51.59
598.983	51.54
599.176	51.42
599.369	51.16
599.563	51.27
599.756	51.11
599.949	51.31
600.142	51.44
600.335	51.46
600.528	51.36
600.722	51.14
600.915	50.75
601.108	50.63
601.301	50.58
601.494	50.91
601.687	50.8
601.88	51.05
602.073	51.01
602.266	51.22
602.459	51.22
602.652	50.99
602.845	50.71
603.038	50.78
603.231	50.91
603.424	51.03
603.617	50.96
603.809	50.64
604.002	50.39
604.195	50.52
604.388	50.03
604.581	49.85
604.774	50.22
604.966	50.74
605.159	50.58
605.352	50.51
605.545	50.46
605.737	50.27
605.93	50.4
606.123	50.73
606.316	51
606.508	51.52
606.701	51.73
606.894	51.43
607.086	51.25
607.279	51.65
607.471	51.73
607.664	52
607.857	52.66
608.049	53.48
608.242	53.71
608.434	53.92
608.627	54.12
608.819	54.54
609.012	55.66
609.204	56.77
609.397	57.96
609.589	59.38
609.782	60.9
609.974	61.88
610.166	62.92
610.359	64.01
610.551	64.85
610.743	66.12
610.936	66.92
611.128	66.95
611.32	67.06
611.513	66.76
611.705	66.52
611.897	66.04
612.09	65.18
612.282	64.15
612.474	63.45
612.666	63.01
612.858	62.06
613.051	61.7
613.243	61.38
613.435	60.78
613.627	60.31
613.819	59.73
614.011	59.52
614.203	59.03
614.395	58.89
614.588	58.82
614.78	58.66
614.972	58.21
615.164	57.55
615.356	57.05
615.548	56.96
615.74	56.26
615.932	55.64
616.124	54.77
616.315	54.85
616.507	54.36
616.699	53.92
616.891	53.8
617.083	54.41
617.275	54.53
617.467	54.61
617.659	54.47
617.85	55.11
618.042	55.04
618.234	55.12
618.426	55.05
618.618	55.53
618.809	55.09
619.001	54.8
619.193	54.86
619.384	54.75
619.576	54.47
619.768	54.48
619.959	53.91
620.151	54.52
620.343	54.88
620.534	54.99
620.726	54.28
620.917	54.55
621.109	54.52
621.301	54.1
621.492	54.27
621.684	54.7
621.875	54.95
622.067	55.05
622.258	54.9
622.45	55.06
622.641	55.1
622.832	55.54
623.024	55.9
623.215	56.05
623.407	55.58
623.598	55.24
623.789	55.32
623.981	54.68
624.172	54.39
624.363	53.66
624.555	53.34
624.746	53.08
624.937	52.67
625.129	52.47
625.32	52.31
625.511	52.87
625.702	52.97
625.893	52.93
626.085	53.32
626.276	53.34
626.467	53.45
626.658	53.24
626.849	53.24
627.04	53.93
627.231	53.75
627.422	53.78
627.614	53.53
627.805	53.59
627.996	53.42
628.187	53.42
628.378	53.69
628.569	54.43
628.76	55.04
628.951	54.87
629.142	54.66
629.332	55.02
629.523	55.05
629.714	55.71
629.905	55.86
630.096	56.25
630.287	56.47
630.478	56.65
630.669	56.46
630.859	56.4
631.05	56.83
631.241	56.75
631.432	56.72
631.623	56.82
631.813	56.22
632.004	56.21
632.195	55.43
632.385	55.01
632.576	54.78
632.767	54.57
632.957	54.28
633.148	54.06
633.339	53.7
633.529	53.37
633.72	52.8
633.91	52.56
634.101	52.05
634.292	52.43
634.482	52.2
634.673	52.48
634.863	52.39
635.054	51.82
635.244	52.44
635.435	52.47
635.625	52.77
635.815	53.18
636.006	53.21
636.196	53.31
636.387	53
636.577	53.31
636.767	52.7
636.958	52.68
637.148	52.44
637.338	51.57
637.529	51.89
637.719	52.13
637.909	52.19
638.099	52.49
638.29	52.82
638.48	52.86
638.67	53.16
638.86	53.64
639.05	53.56
639.241	54.12
639.431	54.11
639.621	54.24
639.811	54
640.001	53.66
640.191	53.68
640.381	53.99
640.571	54.12
640.761	53.79
640.951	53.5
641.141	53.94
641.331	53.76
641.521	54.33
641.711	54
641.901	54.08
642.091	54.85
642.281	54.58
642.471	54.22
642.661	54.58
642.851	54.81
643.041	55.02
643.231	54.98
643.42	55.57
643.61	55.48
643.8	55.38
643.99	55.49
644.18	54.92
644.369	55.12
644.559	55.16
644.749	54.91
644.939	54.62
645.128	54.26
645.318	53.68
645.508	53.22
645.697	53.24
645.887	53.17
646.076	53.24
646.266	53.16
646.456	53.33
646.645	53.57
646.835	53.43
647.024	53.29
647.214	53.83
647.403	54.45
647.593	54.36
647.782	54.12
647.972	54.38
648.161	53.92
648.351	54.61
648.54	54.35
648.73	54.62
648.919	54.82
649.108	54.86
649.298	54.66
649.487	54.78
649.677	55.33
649.866	55.59
650.055	55.68
650.244	56.32
650.434	56.05
650.623	55.94
650.812	55.42
651.002	55.61
651.191	56.04
651.38	56.33
651.569	56.02
651.758	55.81
651.947	55.6
652.137	55.53
652.326	55.11
652.515	54.77
652.704	55.04
652.893	55.34
653.082	54.74
653.271	54.57
653.46	53.84
653.649	53.83
653.838	53.76
654.027	53.61
654.216	53.6
654.405	53.43
654.594	53.6
654.783	53.54
654.972	52.73
655.161	53.22
655.35	53.17
655.539	53.57
655.728	53.84
655.916	53.8
656.105	53.68
656.294	53.3
656.483	53.29
656.672	52.82
656.86	52.95
657.049	53.41
657.238	53.03
657.427	52.79
657.615	52.79
657.804	52.7
657.993	51.87
658.181	52.34
658.37	52.32
658.559	52.21
658.747	52.48
658.936	52.42
659.125	51.81
659.313	52.14
659.502	52.1
659.69	52.02
659.879	51.75
660.067	52.45
660.256	52.09
660.444	52.91
660.633	53.09
660.821	52.99
661.01	52.98
661.198	54.42
661.387	54.22
661.575	54.43
661.763	55.02
661.952	55.16
662.14	55.33
662.328	55.68
662.517	55.26
662.705	55.14
662.893	55.91
663.082	56.15
663.27	55.9
663.458	56.24
663.646	56.39
663.834	55.88
664.023	56.27
664.211	56.17
664.399	56.33
664.587	55.91
664.775	56.42
664.963	56.06
665.152	55.93
665.34	55.67
665.528	56.4
665.716	56.35
665.904	56.88
666.092	56.6
666.28	57.18
666.468	57.13
666.656	57.82
666.844	57.59
667.032	57.7
667.22	57.46
667.408	57.6
667.596	56.76
667.784	57.44
667.971	57.22
668.159	56.98
668.347	56.76
668.535	56.98
668.723	57.15
668.911	57.14
669.098	56.99
669.286	57.65
669.474	57.15
669.662	57.44
669.849	56.67
670.037	56.27
670.225	57.04
670.413	56.55
670.6	55.8
670.788	55.52
670.976	55.38
671.163	55.46
671.351	55.24
671.538	54.98
671.726	54.88
671.913	55.83
672.101	56.34
672.289	56.14
672.476	56.12
672.664	56.92
672.851	56.71
673.039	57.27
673.226	56.78
673.413	56.3
673.601	57.01
673.788	56.82
673.976	55.73
674.163	55.6
674.35	55.57
674.538	56.29
674.725	55.67
674.912	55.29
675.1	54.98
675.287	55.77
675.474	55.52
675.662	55.45
675.849	55.18
676.036	55.41
676.223	55.51
676.411	55.18
676.598	54.53
676.785	55.29
676.972	55.89
677.159	55.88
677.346	56.11
677.533	56.58
677.721	56.82
677.908	56.59
678.095	56.07
678.282	55.78
678.469	56.29
678.656	56.07
678.843	55.52
679.03	55.53
679.217	55.47
679.404	54.11
679.591	53.62
679.778	53.42
679.964	53.29
680.151	54.04
680.338	54.07
680.525	53.61
680.712	54.25
680.899	54.29
681.086	53.93
681.272	54.21
681.459	54.91
681.646	55.35
681.833	55.35
682.02	55.69
682.206	55.33
682.393	55.2
682.58	55.54
682.766	55.58
682.953	56.13
683.14	56.26
683.326	56.18
683.513	56.48
683.7	56.13
683.886	55.8
684.073	56.03
684.259	56.51
684.446	56.33
684.632	56.33
684.819	55.63
685.005	55.16
685.192	55.4
685.378	55.61
685.565	55.51
685.751	55.54
685.938	54.83
686.124	55.25
686.31	55.05
686.497	55.74
686.683	55.53
686.87	55.63
687.056	55.74
687.242	55.94
687.429	55.84
687.615	56.09
687.801	56.1
687.987	57.07
688.174	57
688.36	57.05
688.546	56.12
688.732	55.64
688.918	55.81
689.105	56.21
689.291	55.8
689.477	55.75
689.663	55.83
689.849	56.65
690.035	57.01
690.221	57.24
690.407	57.19
690.593	58.12
690.779	59.91
690.965	60.26
691.151	60.05
691.337	60.66
691.523	60.7
691.709	61
691.895	60.43
692.081	59.93
692.267	60.13
692.453	60.11
692.639	60.42
692.825	59.51
693.011	59.78
693.196	59.1
693.382	59
693.568	57.89
693.754	57.77
693.94	58.16
694.125	58.21
694.311	57.13
694.497	56.74
694.682	56.16
694.868	56.45
695.054	55.59
695.239	56.23
695.425	55.8
695.611	56.27
695.796	55.67
695.982	55.63
696.168	55.48
696.353	55.73
696.539	55.68
696.724	55.49
696.91	54.68
697.095	54.85
697.281	54.86
697.466	54.34
697.652	54.78
697.837	55.02
698.023	54.77
698.208	54.36
698.393	54.16
698.579	54.73
698.764	54.56
698.949	54.91
699.135	54.78
699.32	54.66
699.505	55.09
699.691	55.17
699.876	54.6
700.061	54.61
700.246	55.38
700.432	55.46
700.617	54.99
700.802	55.08
700.987	55.25
701.172	57.02
701.358	56.58
701.543	56.5
701.728	56.33
701.913	57.53
702.098	58.68
702.283	59.04
702.468	58.68
702.653	59.21
702.838	60.67
703.023	61.2
703.208	60
703.393	60.94
703.578	61.21
703.763	61.71
703.948	61.89
704.133	61.13
704.318	61.45
704.503	62.91
704.688	63.32
704.873	62.45
705.057	62.3
705.242	63.14
705.427	62.79
705.612	63.31
705.797	63.09
705.981	63.17
706.166	62.91
706.351	63.58
706.536	62.82
706.72	61.54
706.905	60.89
707.09	60.78
707.274	60.33
707.459	61.4
707.644	60.78
707.828	61.42
708.013	61.2
708.197	61.34
708.382	60.16
708.567	60.31
708.751	60.79
708.936	61.69
709.12	61.12
709.305	60.61
709.489	60.46
709.673	60.49
709.858	59.88
710.042	59.9
710.227	59.69
710.411	58.92
710.596	60.03
710.78	59.71
710.964	59.41
711.149	60.76
711.333	60.17
711.517	60.11
711.702	60.66
711.886	60.96
712.07	60.02
712.254	60.62
712.438	61.93
712.623	60.65
712.807	61.32
712.991	61.14
713.175	59.37
713.359	59.33
713.544	58.56
713.728	59.21
713.912	58.68
714.096	59.33
714.28	58.87
714.464	58.08
714.648	58.17
714.832	58.07
715.016	57.68
715.2	57.77
715.384	59.07
715.568	59.54
715.752	57.79
715.936	58.04
716.12	58.07
716.304	58.15
716.488	58.26
716.671	58.61
716.855	59.08
717.039	59.71
717.223	59.75
717.407	59.49
717.59	59.95
717.774	60.29
717.958	60.71
718.142	61.34
718.325	61.27
718.509	61.15
718.693	62.31
718.877	61.74
719.06	60.96
719.244	61.77
719.428	62.68
719.611	62.3
719.795	62.9
719.978	62.31
720.162	61.95
720.345	62.11
720.529	61.75
720.713	61.02
720.896	62.09
721.08	63.25
721.263	63.58
721.446	63.29
721.63	62.77
721.813	63.87
721.997	63.72
722.18	63.11
722.364	63.08
722.547	63.7
722.73	62.72
722.914	62.15
723.097	62.26
723.28	61.26
723.464	60.35
723.647	61
723.83	60.39
724.013	61.36
724.197	61.5
724.38	61.99
724.563	61.12
724.746	62.12
724.929	60.83
725.112	61.2
725.296	61.09
725.479	60.91
725.662	60.87
725.845	60.29
726.028	59.44
726.211	59.9
726.394	59.68
726.577	60.18
726.76	59.58
726.943	60.78
727.126	59.3
727.309	59.8
727.492	60.8
727.675	60.01
727.858	59.65
728.041	59.41
728.224	59.53
728.407	58.81
728.589	58.09
728.772	57.82
728.955	57.68
729.138	58.24
729.321	57.85
729.503	56.55
729.686	56.71
729.869	56.86
730.052	56.67
730.234	57.11
730.417	56.88
730.6	58.65
730.782	59.06
730.965	58.52
731.148	58.08
731.33	59.05
731.513	60.05
731.695	59.57
731.878	59.68
732.061	60.75
732.243	60.1
732.426	59.78
732.608	59.96
732.791	60.25
732.973	60.03
733.156	61.3
733.338	60.34
733.52	60.5
733.703	61.21
733.885	61.02
734.068	61.4
734.25	61.85
734.432	63.34
734.615	62.43
734.797	61.33
734.979	62.36
735.162	61.41
735.344	61.8
735.526	61.26
735.708	61.6
735.891	62.9
736.073	61.21
736.255	60.85
736.437	60.62
736.619	61.65
736.802	62.94
736.984	62.66
737.166	63.39
737.348	64.46
737.53	64.57
737.712	63.4
737.894	61.89
738.076	63.04
738.258	64.24
738.44	64.56
738.622	63.91
738.804	63.4
738.986	63.48
739.168	63.38
739.35	61.98
739.532	62.5
739.714	64.07
739.896	65.07
740.078	64.77
740.259	63.2
740.441	62.85
740.623	62.86
740.805	62.96
740.987	62.74
741.168	62.8
741.35	64.29
741.532	63.57
741.714	63.04
741.895	63.93
742.077	64.58
742.259	65.29
742.44	66.67
742.622	67.42
742.804	67.82
742.985	68.74
743.167	69.11
743.348	67.72
743.53	68.95
743.711	69.02
743.893	67.57
744.075	68.58
744.256	67.81
744.438	65.6
744.619	64.3
744.8	64.32
744.982	64.36
745.163	63.75
745.345	63.31
745.526	62.66
745.707	63.44
745.889	64.44
746.07	63.4
746.252	64.46
746.433	65.46
746.614	67.27
746.795	68.54
746.977	70.01
747.158	69.02
747.339	69.59
747.52	69.39
747.702	69.63
747.883	68.98
748.064	67.84
748.245	67.17
748.426	67.52
748.607	65.13
748.788	63.37
748.97	61.73
749.151	64.51
749.332	65.65
749.513	67.68
749.694	66.49
749.875	67.42
750.056	68.31
750.237	69.34
750.418	69.52
750.599	70.47
750.78	71.53
750.96	70.88
751.141	68.9
751.322	67.6
751.503	65.52
751.684	65.03
751.865	63.41
752.046	64.49
752.226	63.01
752.407	62.46
752.588	63.13
752.769	63.26
752.949	63.64
753.13	64.3
753.311	66.89
753.492	67.22
753.672	67.6
753.853	68.41
754.034	67.82
754.214	69.37
754.395	70.32
754.575	70.75
754.756	71.74
754.937	72.59
755.117	74.33
755.298	72.54
755.478	72.17
755.659	72.77
755.839	73.54
756.02	75.31
756.2	73.52
756.381	71.51
756.561	69.29
756.741	68.92
756.922	69.03
757.102	66.34
757.283	67.01
757.463	66.27
757.643	66.29
757.823	65.21
758.004	61.71
758.184	62.76
758.364	65.27
758.545	68.44
758.725	67.61
758.905	66.59
759.085	67.18
759.265	67.5
759.446	67.48
759.626	67.7
759.806	67.93
759.986	70.26
760.166	70.45
760.346	67.79
760.526	66.89
760.706	64.41
760.886	64.9
761.066	64.96
761.246	64.69
761.426	63.93
761.606	62.63
761.786	61.69
761.966	62.14
762.146	60.91
762.326	63.01
762.506	61.27
762.686	61.67
762.866	60.47
763.046	59.97
763.225	59.18
763.405	59.83
763.585	59.96
763.765	60.39
763.945	58.47
764.124	58.98
764.304	57.77
764.484	58.54
764.664	59.51
764.843	61.23
765.023	60.69
765.203	61.96
765.382	62.92
765.562	63.23
765.741	63.94
765.921	65.29
766.101	66.05
766.28	66.91
766.46	67.59
766.639	66.99
766.819	66.77
766.998	68.04
767.178	66.78
767.357	65.52
767.537	65.17
767.716	66.37
767.896	65.47
768.075	65.38
768.254	65.7
768.434	65.51
768.613	65.53
768.792	64.14
768.972	64.35
769.151	64.8
769.33	66.85
769.51	68.16
769.689	66.93
769.868	68.63
770.047	67.71
770.226	67.8
770.406	67.48
770.585	68.6
770.764	68.91
770.943	69.99
771.122	70.59
771.301	71.14
771.48	72.57
771.66	73.42
771.839	73.23
772.018	74.03
772.197	73.28
772.376	73.73
772.555	73.78
772.734	73.2
772.913	71.9
773.092	72.11
773.271	70.06
773.449	69.7
773.628	68.17
773.807	67.12
773.986	65.53
774.165	66
774.344	65.58
774.523	66.49
774.701	67.32
774.88	67.88
775.059	67.15
775.238	69.8
775.417	68.24
775.595	67.79
775.774	68.76
775.953	70.88
776.131	71.1
776.31	72.5
776.489	71.75
776.667	73.22
776.846	74.66
777.025	74.76
777.203	70.49
777.382	69.71
777.56	70.55
777.739	71.65
777.917	72.77
778.096	72.37
778.274	71.8
778.453	71.97
778.631	72.24
778.81	72
778.988	73.54
779.166	74.94
779.345	76.52
779.523	78.25
779.702	77.49
779.88	75.69
780.058	76.21
780.237	76.88
780.415	76.58
780.593	76.48
780.771	75.04
780.95	73.59
781.128	73.28
781.306	72.64
781.484	72.85
781.662	71.93
781.841	72.96
782.019	72.14
782.197	71.06
782.375	71.86
782.553	71.74
782.731	72.81
782.909	72.91
783.087	74.44
783.265	74.82
783.443	73.51
783.621	74.42
783.799	74.67
783.977	74.53
784.155	75.46
784.333	76.59
784.511	76.49
784.689	74.79
784.867	76.97
785.045	76.05
785.223	75.35
785.4	73.77
785.578	73.02
785.756	71.92
785.934	73.75
786.112	72.86
786.289	71.93
786.467	71.16
786.645	72.99
786.823	71.13
787	71.82
787.178	73.4
787.356	74.8
787.533	74.74
787.711	74.09
787.889	72.54
788.066	72.49
788.244	70.97
788.421	71.69
788.599	69.73
788.776	68.94
788.954	70.17
789.131	69.41
789.309	69.9
789.486	70.5
789.664	71.6
789.841	71.23
790.019	73.68
790.196	75.17
790.373	74.64
790.551	74.52
790.728	77.13
790.906	75.71
791.083	74.6
791.26	77.58
791.437	79.49
791.615	80.37
791.792	81.59
791.969	79.79
792.146	80.78
792.324	82.63
792.501	84.43
792.678	81.35
792.855	80.1
793.032	79.54
793.209	79.42
793.387	79.64
793.564	77.02
793.741	78.77
793.918	77.26
794.095	77.26
794.272	76.06
794.449	76.74
794.626	76.71
794.803	77.92
794.98	80.2
795.157	78.44
795.334	75.37
795.511	75.34
795.688	73.02
795.864	75.8
796.041	75.21
796.218	73.62
796.395	73.63
796.572	74.07
796.749	75.25
796.925	74.37
797.102	72.67
797.279	73.54
797.456	75.25
797.632	74.94
797.809	73.96
797.986	72.25
798.162	74
798.339	72.36
798.516	72.89
798.692	72.83
798.869	73.08
799.046	71.64
799.222	72.34
799.399	71.83
799.575	71.91
799.752	71.24
799.928	74.14
800.105	74.24
800.281	73.78
800.458	73.64
800.634	71.94
800.811	72.26
800.987	73.44
801.163	73.25
801.34	74.79
801.516	73.34
801.692	74.2
801.869	72.88
802.045	70.24
802.221	70.78
802.398	71.26
802.574	72.36
802.75	72.35
802.926	72.07
803.103	74.92
803.279	74.1
803.455	77.38
803.631	78.44
803.807	78.59
803.983	81.45
804.16	84.69
804.336	83.98
804.512	81.97
804.688	83.65
804.864	87.63
805.04	83.74
805.216	84.67
805.392	85.36
805.568	84.09
805.744	86.47
805.92	87.51
806.096	86.57
806.272	88.33
806.448	89.4
806.623	86.88
806.799	85.63
806.975	89.75
807.151	86.14
807.327	87.9
807.503	85.82
807.678	82.64
807.854	80.04
808.03	76.85
808.206	75.69
808.381	75.14
808.557	77.09
808.733	75.71
808.908	72.53
809.084	75.05
809.26	74.49
809.435	77.44
809.611	80.22
809.787	83.77
809.962	86.32
810.138	86.6
810.313	89.8
810.489	90.62
810.664	92.67
810.84	96.35
811.015	95.39
811.191	92.17
811.366	90.69
811.542	89.74
811.717	88.14
811.892	87.06
812.068	89.04
812.243	86.62
812.419	86.5
812.594	87.33
812.769	82.43
812.944	81.64
813.12	84.17
813.295	84.21
813.47	84.7
813.645	82.33
813.821	81.21
813.996	79.09
814.171	80.5
814.346	81.38
814.521	78.64
814.697	77.7
814.872	80.3
815.047	78.38
815.222	77.45
815.397	74.08
815.572	74.87
815.747	77.08
815.922	76.27
816.097	75.83
816.272	73.53
816.447	75.48
816.622	77.7
816.797	77.2
816.972	76.69
817.147	77.3
817.322	79.49
817.496	80.16
817.671	79.59
817.846	80.16
818.021	82.3
818.196	82.06
818.371	79.62
818.545	79.63
818.72	75.56
818.895	75.72
819.069	75.81
819.244	75.06
819.419	71.91
819.594	71.92
819.768	71.4
819.943	67.88
820.117	67.54
820.292	65.21
820.467	61.89
820.641	61.23
820.816	59.12
820.99	58.43
821.165	56.8
821.339	56.2
821.514	54.56
821.688	53.62
821.863	52.54
822.037	51.28
822.212	51.85
822.386	52.42
822.56	52.32
822.735	52.6
822.909	51.57
823.084	51.29
823.258	51.99
823.432	52.23
823.606	52.63
823.781	53.69
823.955	55.07
824.129	54.88
824.303	55.01
824.478	55.5
824.652	55.75
824.826	57.56
825	59.34
825.174	60.08
825.348	59.85
825.523	59.83
825.697	59.89
825.871	59.15
826.045	58.63
826.219	59.49
826.393	59.2
826.567	59.14
826.741	58.51
826.915	57.98
827.089	58.04
827.263	58.65
827.437	59.51
827.611	58.99
827.784	60.63
827.958	61.64
828.132	60.46
828.306	62.17
828.48	62.71
828.654	63.78
828.827	64.88
829.001	65.27
829.175	65.55
829.349	66.17
829.522	67.41
829.696	67.68
829.87	69.03
830.044	72.46
830.217	72.02
830.391	71.8
830.565	71.28
830.738	74.44
830.912	72.82
831.085	74.76
831.259	74.53
831.432	75.1
831.606	73.98
831.779	73.65
831.953	70.19
832.126	71.19
832.3	72.63
832.473	72.11
832.647	66.7
832.82	67.44
832.994	67.04
833.167	65.67
833.34	66.57
833.514	67.01
833.687	65.66
833.86	66.45
834.034	65.75
834.207	65.44
834.38	64.48
834.553	66.82
834.727	66.67
834.9	64.41
835.073	66.57
835.246	66.34
835.419	64.73
835.593	66.68
835.766	69.11
835.939	70.31
836.112	68.57
836.285	70.34
836.458	69.64
836.631	71.9
836.804	77.11
836.977	75.42
837.15	76.31
837.323	77.47
837.496	78.04
837.669	74.03
837.842	75.52
838.015	77.06
838.188	79.17
838.361	76.27
838.533	75.52
838.706	74.57
838.879	73.6
839.052	74.84
839.225	78.06
839.398	75.77
839.57	77.04
839.743	74.91
839.916	74.54
840.088	74.35
840.261	79.82
840.434	77.46
840.607	78.58
840.779	79.97
840.952	76.79
841.124	76.76
841.297	77.82
841.47	81.16
841.642	81.91
841.815	85.46
841.987	85.67
842.16	82.96
842.332	85.42
842.505	85.77
842.677	87.29
842.85	90.79
843.022	88.26
843.194	89.71
843.367	90.31
843.539	94.01
843.712	92.65
843.884	94.08
844.056	99.43
844.229	102.13
844.401	100.09
844.573	99.44
844.745	102.48
844.918	107.42
845.09	108.72
845.262	105.13
845.434	108.15
845.606	114.43
845.779	115.72
845.951	111.73
846.123	115.57
846.295	115.87
846.467	117.96
846.639	116.91
846.811	112.69
846.983	109.81
847.155	112.93
847.327	108.61
847.499	108.26
847.671	106.51
847.843	107.45
848.015	104.71
848.187	106.66
848.359	106.28
848.531	101.97
848.703	103.49
848.875	103.58
849.047	103.9
849.218	100
849.39	94.27
849.562	95.9
849.734	91.57
849.905	90.54
850.077	89.11
850.249	95.12
850.421	97
850.592	97.51
850.764	95.84
850.936	94.32
851.107	93.36
851.279	101.75
851.451	101.42
851.622	107.26
851.794	103.77
851.965	108.87
852.137	102.76
852.308	106.33
852.48	110.92
852.651	112.96
852.823	117.61
852.994	126.15
853.166	114.06
853.337	120.4
853.509	119.8
853.68	120.87
853.851	116.96
854.023	113.02
854.194	103.92
854.365	103.66
854.537	102.45
854.708	98.4
854.879	97.06
855.05	96.26
855.222	92.89
855.393	93.47
855.564	94.79
855.735	90.25
855.906	91.51
856.078	96.42
856.249	96.39
856.42	97.33
856.591	94.52
856.762	95.36
856.933	98
857.104	97.99
857.275	94.66
857.446	95.71
857.617	103.87
857.788	107.67
857.959	110.43
858.13	105.68
858.301	111.27
858.472	117.62
858.643	115.65
858.814	116.61
858.985	112.44
859.155	115.39
859.326	118.97
859.497	118.64
859.668	116.88
859.839	113.66
860.009	114.29
860.18	110
860.351	106.35
860.522	107.52
860.692	105.3
860.863	107.22
861.034	100.78
861.204	100.26
861.375	103.26
861.546	106.1
861.716	109.29
861.887	108.66
862.057	110.23
862.228	111.69
862.398	112.6
862.569	110.03
862.739	110.24
862.91	112.85
863.08	111.05
863.251	99.39
863.421	94.5
863.592	95.74
863.762	100.31
863.932	100.48
864.103	100.36
864.273	94.42
864.443	101.22
864.614	94.22
864.784	99.57
864.954	99.71
865.125	108.93
865.295	116.79
865.465	110.21
865.635	106.08
865.805	109.67
865.976	110.05
866.146	114.49
866.316	113.02
866.486	119.78
866.656	116.34
866.826	117.28
866.996	113.53
867.166	108.2
867.336	113.89
867.506	114.04
867.676	113.49
867.846	111.44
868.016	115.4
868.186	114.03
868.356	115.4
868.526	114.23
868.696	112.23
868.866	115.59
869.036	121.56
869.206	116.55
869.376	114.71
869.545	108.38
869.715	109.96
869.885	107.85
870.055	109.71
870.224	102.31
870.394	105.02
870.564	106.18
870.734	103.68
870.903	101.71
871.073	100.89
871.243	105.3
871.412	99.9
871.582	102.67
871.751	102.17
871.921	112.09
872.091	113
872.26	113.82
872.43	115.96
872.599	121.32
872.769	116.03
872.938	112.7
873.108	111.97
873.277	110.34
873.446	106.65
873.616	107.05
873.785	98.23
873.955	96.28
874.124	93.21
874.293	93.57
874.463	87.06
874.632	87.6
874.801	89.07
874.971	90.75
875.14	95.44
875.309	94.02
875.478	95.62
875.647	98.74
875.817	102.81
875.986	104
876.155	95.81
876.324	93.18
876.493	90.94
876.662	96.05
876.831	94.37
877	95.26
877.17	99.62
877.339	97.59
877.508	93.94
877.677	91.89
877.846	97.88
878.015	103.09
878.184	112.97
878.352	121.3
878.521	110.48
878.69	104.63
878.859	109.62
879.028	102.05
879.197	97.46
879.366	97.46
879.534	97.16
879.703	95.2
879.872	92.41
880.041	87.52
880.21	83.24
880.378	82.57
880.547	80.03
880.716	76.48
880.884	76.21
881.053	76.91
881.222	73.51
881.39	71.94
881.559	67.85
881.727	67.58
881.896	67.56
882.065	64.4
882.233	63.71
882.402	63.38
882.57	61.95
882.739	61.61
882.907	60.03
883.076	59.74
883.244	59.61
883.412	61.13
883.581	59.27
883.749	58.53
883.918	62.8
884.086	64.04
884.254	65.53
884.423	66.21
884.591	69.61
884.759	73.35
884.927	75.49
885.096	79.06
885.264	79.24
885.432	85.81
885.6	87.95
885.769	88.6
885.937	89.73
886.105	94.94
886.273	103.02
886.441	101.18
886.609	99.28
886.777	100.29
886.945	97.71
887.113	104.1
887.281	102.75
887.449	105.4
887.617	104.71
887.785	107.68
887.953	112.31
888.121	111.07
888.289	103.46
888.457	107.85
888.625	105.46
888.793	109.55
888.961	107.7
889.129	98.35
889.296	99.1
889.464	97.87
889.632	96.54
889.8	86.57
889.967	84.55
890.135	97.07
