Data from JASIL_3016_Reflection_02.txt Node
Date: Mon Nov 09 10:39:27 EST 2015
User: Geneva
Spectrometer: USB4E03002
Autoset integration time: false
Trigger mode: 4
Integration Time (sec): 1.000000E-1
Scans to average: 10
Electric dark correction enabled: false
Nonlinearity correction enabled: false
Boxcar width: 5
Stray light correction enabled: false
XAxis mode: Wavelengths
Stop averaging: false
Number of Pixels in Spectrum: 3648
>>>>>Begin Spectral Data<<<<<
177.575	180.61
177.794	197.57
178.014	199.46
178.233	288.97
178.452	362.32
178.672	1214.04
178.891	2734.78
179.11	-1200
179.33	-3400
179.549	-201.28
179.768	-100.4
179.987	-438.89
180.207	585
180.426	395.52
180.645	106.92
180.864	70.5
181.084	72.49
181.303	51.39
181.522	53.59
181.741	43.37
181.96	-34.04
182.179	47.76
182.398	13.89
182.618	20.15
182.837	-21.36
183.056	-142.11
183.275	92.59
183.494	-37.78
183.713	-10
183.932	69.15
184.151	190.91
184.37	124.61
184.589	-377.78
184.808	70.2
185.027	26.36
185.246	-9.54
185.465	-12.25
185.684	-30.64
185.903	-6.52
186.122	-4.02
186.341	-6.03
186.56	-91.95
186.779	-1020.41
186.998	630.77
187.216	259.2
187.435	246.35
187.654	137.37
187.873	90.63
188.092	157.84
188.311	126.82
188.53	136.15
188.748	127.48
188.967	161.22
189.186	125.81
189.405	73.6
189.623	80.37
189.842	-77.78
190.061	4520
190.28	344.68
190.498	149.52
190.717	68.1
190.936	72.41
191.154	148.98
191.373	164.82
191.592	306.29
191.81	172.05
192.029	160.85
192.248	151.08
192.466	173.45
192.685	206.4
192.904	1991.3
193.122	-672.46
193.341	10080
193.559	-3108.33
193.778	-484.09
193.996	-839.29
194.215	-496.81
194.433	-566.06
194.652	-329.11
194.87	-98.13
195.089	-53.82
195.307	-116.67
195.526	-62.35
195.744	-27.32
195.963	-8.09
196.181	-95.74
196.399	-52.41
196.618	33.58
196.836	45.21
197.055	96.73
197.273	46.6
197.491	158.5
197.71	155.09
197.928	113.72
198.146	140.41
198.365	123
198.583	1600
198.801	-74.78
199.019	-45.17
199.238	12.35
199.456	15.1
199.674	-23.56
199.892	-36.11
200.111	95
200.329	-201.79
200.547	941.67
200.765	-389.61
200.983	343.05
201.202	329.76
201.42	237.95
201.638	164.09
201.856	380
202.074	646.46
202.292	984.13
202.51	920.83
202.728	15325
202.946	-397.73
203.165	2836.84
203.383	-778.85
203.601	-1159.09
203.819	495.35
204.037	630
204.255	275.5
204.473	389.47
204.691	413.73
204.909	-2385.71
205.127	1230.3
205.345	674.51
205.562	-670.37
205.78	1070
205.998	797.1
206.216	484.91
206.434	458.43
206.652	4057.14
206.87	-166.1
207.088	24.24
207.306	46.5
207.523	9.09
207.741	-193.41
207.959	27.48
208.177	46.69
208.395	99.1
208.612	104.83
208.83	66.06
209.048	18.46
209.266	-24.26
209.483	-140.98
209.701	372.41
209.919	-2900
210.136	63.64
210.354	458.33
210.572	-134.04
210.79	44.44
211.007	48.18
211.225	124.56
211.442	602.63
211.66	-56.56
211.878	148.68
212.095	166.04
212.313	2933.33
212.53	99.18
212.748	105.21
212.966	473.17
213.183	9400
213.401	140.27
213.618	123.62
213.836	149
214.053	190.14
214.271	98.66
214.488	19.29
214.705	1.21
214.923	-11.28
215.14	-11.81
215.358	40.78
215.575	33.69
215.793	83.33
216.01	-258.33
216.227	-318.52
216.445	200.95
216.662	315.31
216.879	93.96
217.097	26.29
217.314	-60.48
217.531	-89.66
217.749	37.21
217.966	96.92
218.183	29.82
218.4	65.56
218.618	93.37
218.835	98.12
219.052	105.59
219.269	129.39
219.487	110.75
219.704	132.6
219.921	151.72
220.138	223.46
220.355	220.3
220.572	9066.67
220.79	-201.85
221.007	-228.68
221.224	-255.21
221.441	-194.63
221.658	194.31
221.875	163.43
222.092	143.87
222.309	175
222.526	206.12
222.743	173.45
222.96	135.66
223.177	105.98
223.394	88.78
223.611	97.48
223.828	93.63
224.045	89.05
224.262	97.39
224.479	87.16
224.696	59.32
224.913	53.13
225.13	40.4
225.347	56.75
225.564	63.55
225.781	69.08
225.997	59.53
226.214	39.66
226.431	46.12
226.648	35.08
226.865	28.53
227.082	28.83
227.298	27.52
227.515	26.05
227.732	25.63
227.949	18.23
228.165	10.64
228.382	8.73
228.599	15.76
228.816	14.54
229.032	12.73
229.249	8.06
229.466	6.39
229.682	-2.49
229.899	1.93
230.116	-1.95
230.332	9.19
230.549	-3.84
230.765	-9.3
230.982	-15.44
231.199	-0.45
231.415	-1.23
231.632	8.08
231.848	4.49
232.065	23.11
232.281	2.84
232.498	5.02
232.714	7.92
232.931	27.43
233.147	28.85
233.364	18.68
233.58	6.96
233.797	6.41
234.013	5.77
234.23	8.72
234.446	4.84
234.662	21.29
234.879	16.59
235.095	13.85
235.312	12.13
235.528	7.3
235.744	9.37
235.961	6.79
236.177	-1.41
236.393	1.79
236.61	-0.59
236.826	-7.89
237.042	-6.85
237.258	0.54
237.475	-2.84
237.691	-11.9
237.907	1.57
238.123	7.36
238.339	11.5
238.556	19.69
238.772	20.52
238.988	13.73
239.204	19.23
239.42	20.51
239.636	19.06
239.853	22.62
240.069	21.42
240.285	16.51
240.501	20.1
240.717	22.16
240.933	18.51
241.149	14.02
241.365	14.65
241.581	15.66
241.797	16.19
242.013	16.8
242.229	16.23
242.445	17.65
242.661	19.54
242.877	16.12
243.093	9.49
243.309	14.44
243.525	13.74
243.741	25.43
243.957	20.48
244.173	16.44
244.388	13.19
244.604	11.36
244.82	11.02
245.036	10.27
245.252	9.51
245.468	12.58
245.683	10.51
245.899	10.4
246.115	7.02
246.331	8.54
246.547	7.41
246.762	6.04
246.978	3.33
247.194	4.05
247.409	2
247.625	0.59
247.841	-1.64
248.057	2.21
248.272	1.88
248.488	2.96
248.703	2.67
248.919	8.76
249.135	12.84
249.35	19.62
249.566	21.91
249.782	23.53
249.997	20.94
250.213	18.27
250.428	14.06
250.644	16.5
250.859	16.45
251.075	16.16
251.29	10.22
251.506	10.36
251.721	9.49
251.937	3.37
252.152	4.26
252.368	11.57
252.583	11.34
252.798	9.79
253.014	7.86
253.229	5.15
253.445	-3.68
253.66	-2.24
253.875	-4.31
254.091	-7.6
254.306	-5.39
254.521	-0.76
254.737	-11.52
254.952	-6.14
255.167	-7.27
255.383	-7.41
255.598	-3.21
255.813	0.37
256.028	-2.67
256.244	-0.06
256.459	3.06
256.674	5.82
256.889	2.79
257.104	4.72
257.32	0.95
257.535	1.27
257.75	4.7
257.965	4.94
258.18	3.96
258.395	4.45
258.61	3.75
258.826	3.87
259.041	2.67
259.256	2.39
259.471	2.16
259.686	2.9
259.901	5.47
260.116	2.12
260.331	1.93
260.546	5.56
260.761	5.59
260.976	6.11
261.191	5.59
261.406	7.2
261.621	8.11
261.836	7.51
262.05	8.28
262.265	2.29
262.48	4.39
262.695	3.42
262.91	1.8
263.125	5.28
263.34	5.04
263.555	3.6
263.769	3.74
263.984	3.64
264.199	8.71
264.414	6.74
264.629	9.37
264.843	8.75
265.058	7.75
265.273	5.12
265.488	4.98
265.702	4.83
265.917	5.75
266.132	9.83
266.346	11.68
266.561	9.08
266.776	7.85
266.99	6.58
267.205	7.96
267.42	6.58
267.634	7.57
267.849	6.8
268.063	6.55
268.278	8.71
268.492	8.48
268.707	4.07
268.922	5.51
269.136	8.76
269.351	8.57
269.565	6.82
269.78	6.61
269.994	7.15
270.209	5.78
270.423	6.57
270.637	3.74
270.852	3.58
271.066	6.84
271.281	5.76
271.495	4.66
271.709	4.61
271.924	7.01
272.138	6.54
272.353	4.9
272.567	7.06
272.781	6.9
272.996	7.61
273.21	3.84
273.424	5.09
273.638	7.01
273.853	8.15
274.067	7.85
274.281	5.6
274.495	7.31
274.71	7.06
274.924	6.63
275.138	7.79
275.352	6.1
275.566	9.95
275.781	4.35
275.995	3.88
276.209	1.62
276.423	2.44
276.637	3.45
276.851	2.99
277.065	5.23
277.279	5.18
277.493	3.73
277.707	3.85
277.921	2.19
278.135	4.53
278.349	4.08
278.563	2.05
278.777	2.77
278.991	3.66
279.205	4.93
279.419	2.79
279.633	1.9
279.847	1.7
280.061	1.87
280.275	0.53
280.489	1.47
280.703	-0.93
280.917	1.57
281.131	1.55
281.344	-0.26
281.558	-0.63
281.772	1.36
281.986	1.57
282.2	0.83
282.414	3.64
282.627	6.32
282.841	3.16
283.055	6.14
283.269	6.62
283.482	6.07
283.696	6.49
283.91	6.16
284.123	6.03
284.337	6.18
284.551	6.78
284.764	5.07
284.978	3.02
285.192	4.8
285.405	3.49
285.619	5.35
285.833	6.04
286.046	5.12
286.26	4.29
286.473	2.81
286.687	2.7
286.9	1.9
287.114	-0.09
287.327	1.26
287.541	0.82
287.754	0.89
287.968	0.6
288.181	-0.16
288.395	0.78
288.608	0.99
288.822	-0.12
289.035	-0.59
289.248	-0.51
289.462	2.12
289.675	1.92
289.889	2.38
290.102	1.29
290.315	0.4
290.529	1.8
290.742	2.41
290.955	3.08
291.169	4.82
291.382	5.29
291.595	8.46
291.808	8.13
292.022	7.98
292.235	8.34
292.448	8.79
292.661	8.36
292.875	6.39
293.088	5.05
293.301	6.14
293.514	4.64
293.727	5.28
293.94	4.14
294.153	3.83
294.367	4.04
294.58	3.09
294.793	5.19
295.006	6.65
295.219	6.82
295.432	5.65
295.645	3.21
295.858	5.16
296.071	4.59
296.284	4.09
296.497	5.72
296.71	3.28
296.923	4.5
297.136	2.24
297.349	-1.38
297.562	-3.03
297.775	-2.07
297.988	-0.83
298.201	-1.79
298.414	-2.67
298.626	-2.07
298.839	-3.25
299.052	0.34
299.265	-1.32
299.478	-0.57
299.691	0.43
299.903	2.96
300.116	3.77
300.329	4.12
300.542	6.85
300.755	7.23
300.967	8.53
301.18	5.58
301.393	5.19
301.605	5.29
301.818	4.2
302.031	2.5
302.243	1.75
302.456	1.9
302.669	1.39
302.881	-0.02
303.094	0.93
303.307	0.31
303.519	0.18
303.732	-1.6
303.944	-0.72
304.157	0.11
304.37	2.21
304.582	3.66
304.795	4.57
305.007	3.8
305.22	1.76
305.432	0.78
305.645	-1.1
305.857	2.37
306.069	1.57
306.282	0.82
306.494	2.88
306.707	2.62
306.919	2.53
307.132	1.53
307.344	3.6
307.556	4.59
307.769	3.81
307.981	3.56
308.193	3.92
308.406	5.75
308.618	3.95
308.83	3.24
309.043	2.93
309.255	2.75
309.467	3.09
309.679	2.14
309.892	1.78
310.104	2.92
310.316	4.2
310.528	1.83
310.74	2.58
310.953	6.77
311.165	4.46
311.377	7.81
311.589	6.95
311.801	7.58
312.013	9.98
312.225	11.08
312.437	11.73
312.649	8.42
312.862	11.07
313.074	7.94
313.286	7.93
313.498	11.56
313.71	9.56
313.922	9.47
314.134	7.72
314.346	3.92
314.558	4.29
314.77	2.95
314.982	6.09
315.193	5.31
315.405	9.27
315.617	6.85
315.829	9.05
316.041	9.07
316.253	11.58
316.465	14.09
316.677	17.43
316.888	17.5
317.1	18.41
317.312	18.13
317.524	16.86
317.736	16.61
317.947	15.87
318.159	15.66
318.371	14.33
318.583	15.03
318.794	14.43
319.006	11.49
319.218	11.61
319.43	10.71
319.641	10.81
319.853	10.71
320.064	9.34
320.276	10.38
320.488	7.76
320.699	9.52
320.911	5.88
321.123	3.8
321.334	5.57
321.546	4.56
321.757	5.55
321.969	7.6
322.18	9.8
322.392	10.11
322.603	9.54
322.815	7.5
323.026	5.07
323.238	8.41
323.449	7.55
323.661	8.12
323.872	5.73
324.083	4.21
324.295	1.77
324.506	0.61
324.718	1.21
324.929	1.25
325.14	2.83
325.352	3.35
325.563	-0.45
325.774	-0.31
325.986	-0.71
326.197	-1.74
326.408	-0.95
326.62	0.31
326.831	1.35
327.042	2.46
327.253	2.82
327.464	2.02
327.676	4.06
327.887	7.07
328.098	8.22
328.309	8.82
328.52	13.07
328.732	14.49
328.943	14.12
329.154	13.12
329.365	11.65
329.576	12.58
329.787	12.6
329.998	10.76
330.209	11.01
330.42	12.01
330.631	11.04
330.842	9.68
331.053	11.03
331.264	10.29
331.475	10.76
331.686	9.91
331.897	10.69
332.108	10.38
332.319	11.13
332.53	11.04
332.741	11.47
332.952	10.16
333.163	10.52
333.374	9.2
333.585	11.12
333.795	10.81
334.006	11.49
334.217	9.56
334.428	12.95
334.639	10.59
334.849	8.47
335.06	7.11
335.271	8.95
335.482	8.34
335.692	10.2
335.903	9.08
336.114	8.64
336.325	7.4
336.535	9.55
336.746	6.6
336.957	7.48
337.167	9.31
337.378	9.04
337.589	8.13
337.799	8.06
338.01	6.38
338.22	7.81
338.431	9.75
338.642	9.04
338.852	4.69
339.063	5.7
339.273	5.75
339.484	4.39
339.694	4.08
339.905	4.52
340.115	4.79
340.326	4.45
340.536	2.36
340.746	1.5
340.957	2.37
341.167	7.05
341.378	5.98
341.588	6.19
341.799	4.79
342.009	5.95
342.219	4.74
342.43	5.24
342.64	5.38
342.85	7.56
343.061	7.58
343.271	7.06
343.481	3.27
343.691	2.02
343.902	2.55
344.112	5
344.322	2.69
344.532	3.8
344.743	4.27
344.953	2.99
345.163	5.05
345.373	5.76
345.583	6.52
345.793	7.17
346.004	8.39
346.214	10.08
346.424	8.96
346.634	10.03
346.844	12.51
347.054	11.9
347.264	13.16
347.474	9.72
347.684	9.16
347.894	9.75
348.104	10.58
348.314	10.15
348.524	9.21
348.734	9.9
348.944	10.19
349.154	8.9
349.364	10.08
349.574	9.75
349.784	9.36
349.994	9.05
350.204	8.34
350.413	6.93
350.623	6.86
350.833	5.06
351.043	3.66
351.253	3.91
351.463	1.77
351.672	0.85
351.882	2.73
352.092	4.43
352.302	5.95
352.511	6.42
352.721	8.27
352.931	8.43
353.141	8.33
353.35	9.18
353.56	11.52
353.77	12.8
353.979	11.04
354.189	9.26
354.399	10.56
354.608	11.47
354.818	10.42
355.027	8.22
355.237	7.93
355.447	10.32
355.656	7.31
355.866	4.82
356.075	3.67
356.285	5.82
356.494	7.13
356.704	6.98
356.913	5.06
357.123	6.03
357.332	7.82
357.542	9.12
357.751	7.4
357.96	10.95
358.17	10.85
358.379	9.05
358.589	7.96
358.798	5.76
359.007	5.14
359.217	6.05
359.426	6.86
359.635	7.27
359.845	6.54
360.054	7.28
360.263	5.79
360.472	6.42
360.682	8.39
360.891	8.62
361.1	9.94
361.309	8.52
361.519	7.29
361.728	7.02
361.937	7.25
362.146	7.58
362.355	6.67
362.564	7.74
362.774	9.82
362.983	9.68
363.192	10.18
363.401	9.62
363.61	9.97
363.819	9.08
364.028	7.7
364.237	6.13
364.446	5.79
364.655	5.54
364.864	6.72
365.073	2.93
365.282	2.19
365.491	3.58
365.7	6
365.909	6.62
366.118	8.55
366.327	9.36
366.536	11.13
366.745	11.54
366.954	12.3
367.162	10.56
367.371	12.94
367.58	12.55
367.789	9.93
367.998	7.96
368.207	8.47
368.415	8.2
368.624	8.24
368.833	6.1
369.042	4.39
369.25	2.8
369.459	4.13
369.668	2.04
369.877	1.53
370.085	2.02
370.294	1.35
370.503	1.14
370.711	1.55
370.92	0.63
371.129	0.53
371.337	1.55
371.546	3.22
371.754	3.14
371.963	3.84
372.171	5.65
372.38	6.96
372.589	7.19
372.797	6.42
373.006	5
373.214	7.34
373.423	7.82
373.631	9.07
373.84	8.29
374.048	6.79
374.256	6.67
374.465	6.52
374.673	5.53
374.882	5.39
375.09	6.6
375.298	6.82
375.507	5.75
375.715	6.3
375.923	5.51
376.132	5.89
376.34	6.85
376.548	6.44
376.757	6.78
376.965	7.12
377.173	6.64
377.381	6.54
377.59	7.72
377.798	7.96
378.006	8.82
378.214	9.1
378.423	10.05
378.631	9.48
378.839	10.05
379.047	9.31
379.255	8.99
379.463	9.38
379.671	8.97
379.879	8.39
380.088	7.83
380.296	6.79
380.504	7.23
380.712	6.85
380.92	7.01
381.128	6.96
381.336	6.72
381.544	6.73
381.752	6.64
381.96	6.06
382.168	5.96
382.376	6.42
382.584	5.85
382.791	6.2
382.999	5.61
383.207	6.44
383.415	7.45
383.623	6.99
383.831	6.54
384.039	8.09
384.247	9
384.454	8.26
384.662	7.59
384.87	9.67
385.078	9.02
385.285	9.39
385.493	7.91
385.701	7.46
385.909	8.99
386.116	9.07
386.324	8.25
386.532	6.61
386.739	7
386.947	7.74
387.155	6.89
387.362	5.88
387.57	6.43
387.778	6.79
387.985	5.37
388.193	3.5
388.4	3.87
388.608	3.26
388.816	4.32
389.023	3.97
389.231	3.73
389.438	2.34
389.646	2.4
389.853	1.91
390.061	2.21
390.268	3.9
390.475	4.38
390.683	3.75
390.89	2.78
391.098	3.08
391.305	4.35
391.512	5.09
391.72	5.92
391.927	6.35
392.135	6.29
392.342	6.55
392.549	4.66
392.756	5.02
392.964	6.25
393.171	8.09
393.378	8.11
393.586	8.32
393.793	6.71
394	7.33
394.207	8.12
394.414	7.7
394.622	7.26
394.829	8.79
395.036	9.37
395.243	9.32
395.45	8.51
395.657	8.68
395.864	7.22
396.072	8.28
396.279	8.86
396.486	7.67
396.693	8.37
396.9	9.37
397.107	8.9
397.314	8.66
397.521	8.11
397.728	8.7
397.935	7.98
398.142	8.65
398.349	8.29
398.556	6.73
398.763	6.36
398.97	5.45
399.177	3.98
399.383	4.98
399.59	3.77
399.797	3.72
400.004	3.69
400.211	4.64
400.418	2.22
400.625	1.89
400.831	2.5
401.038	3.28
401.245	4.42
401.452	5.38
401.658	4.74
401.865	5.56
402.072	6.14
402.279	7.03
402.485	5.71
402.692	8.13
402.899	8.73
403.105	8.97
403.312	9.48
403.519	10.42
403.725	10.43
403.932	9.96
404.138	9.9
404.345	8.54
404.552	7.67
404.758	7.78
404.965	6.34
405.171	6.35
405.378	5.33
405.584	4.91
405.791	3.27
405.997	2.88
406.204	3.37
406.41	3.69
406.617	4.73
406.823	5.01
407.029	6.03
407.236	6.87
407.442	5.19
407.649	5.62
407.855	5.07
408.061	6.09
408.268	6.04
408.474	5.71
408.68	5.76
408.887	5.39
409.093	5.46
409.299	5.04
409.505	5.47
409.712	7.02
409.918	7.25
410.124	7.99
410.33	7.27
410.537	8.49
410.743	8.26
410.949	8
411.155	8.88
411.361	7.96
411.567	7.38
411.773	7.3
411.98	7.43
412.186	7.4
412.392	7.45
412.598	6.9
412.804	5.78
413.01	6.11
413.216	6.08
413.422	5.67
413.628	6.02
413.834	5.72
414.04	5.07
414.246	4.89
414.452	4.69
414.658	4.97
414.864	5.14
415.07	4.16
415.275	3.49
415.481	3.47
415.687	2.98
415.893	2.53
416.099	3.41
416.305	3.16
416.511	3.21
416.716	3.51
416.922	2.92
417.128	2.72
417.334	3.6
417.539	3.9
417.745	4.02
417.951	4.38
418.157	5.02
418.362	4.89
418.568	5.04
418.774	4.53
418.979	3.67
419.185	4.11
419.391	3.95
419.596	3.6
419.802	3.26
420.008	3.13
420.213	-0.72
420.419	-1.27
420.624	-1.63
420.83	-1.67
421.035	-1.77
421.241	-0.76
421.446	-1.43
421.652	-1.08
421.857	-1.04
422.063	-1.16
422.268	-1.11
422.474	1.92
422.679	1.96
422.885	1.84
423.09	1.93
423.295	2.08
423.501	1.58
423.706	2.31
423.911	2.38
424.117	2.12
424.322	2.98
424.527	3.25
424.733	4.51
424.938	4.27
425.143	4.99
425.349	4.85
425.554	4.56
425.759	5.12
425.964	4.83
426.169	4.73
426.375	5.09
426.58	5.1
426.785	4.57
426.99	3.8
427.195	4.5
427.4	4.35
427.605	4.79
427.811	5.61
428.016	5.26
428.221	5.28
428.426	4.64
428.631	4.87
428.836	4.46
429.041	4.58
429.246	5.09
429.451	5.54
429.656	4.42
429.861	4.16
430.066	3.56
430.271	3.35
430.476	3.13
430.681	3.51
430.886	3.1
431.09	2.92
431.295	2.73
431.5	2.38
431.705	1.83
431.91	2.37
432.115	2.65
432.32	2.48
432.524	2.87
432.729	2.85
432.934	2.91
433.139	3.5
433.343	3.3
433.548	3.01
433.753	2.66
433.958	2.58
434.162	2.6
434.367	2.4
434.572	2.36
434.776	2.18
434.981	1.95
435.186	1.5
435.39	1.56
435.595	1.69
435.799	1.9
436.004	2.3
436.209	2.64
436.413	2.39
436.618	2.03
436.822	2.46
437.027	2.35
437.231	2.52
437.436	2.86
437.64	2.57
437.845	2.43
438.049	2.29
438.253	2.26
438.458	2.23
438.662	2.22
438.867	2.17
439.071	2.34
439.275	1.99
439.48	1.59
439.684	1.64
439.888	2.02
440.093	2.23
440.297	2.56
440.501	2.43
440.706	2.38
440.91	2.71
441.114	2.99
441.318	3.23
441.523	2.93
441.727	3.34
441.931	4.15
442.135	4.09
442.339	4.36
442.543	4.27
442.748	4.46
442.952	4.64
443.156	4.29
443.36	4.8
443.564	4.59
443.768	4.81
443.972	4.68
444.176	3.89
444.38	4.05
444.584	4.46
444.788	4.54
444.992	4.33
445.196	3.85
445.4	4
445.604	3.22
445.808	2.76
446.012	2.6
446.216	2.58
446.42	2.71
446.624	2.71
446.828	1.79
447.032	1.78
447.235	1.88
447.439	1.62
447.643	1.87
447.847	2.37
448.051	3.13
448.254	3.3
448.458	3.33
448.662	4.25
448.866	3.14
449.069	3.28
449.273	2.85
449.477	2.65
449.681	3.62
449.884	3.74
450.088	3.58
450.292	3.88
450.495	4.02
450.699	3.64
450.902	3.11
451.106	3.36
451.31	3.69
451.513	3.9
451.717	4.36
451.92	4.23
452.124	3.71
452.327	3.09
452.531	2.29
452.734	2.17
452.938	2.53
453.141	1.6
453.345	1.88
453.548	2.01
453.752	2.49
453.955	2.5
454.158	2.63
454.362	2.65
454.565	3.47
454.769	3.06
454.972	3.73
455.175	3.29
455.379	3.77
455.582	3.3
455.785	3.47
455.988	3
456.192	2.99
456.395	3.16
456.598	3.59
456.801	2.69
457.005	3.63
457.208	3.27
457.411	3.59
457.614	3.6
457.817	3.83
458.021	3.64
458.224	3.68
458.427	3.83
458.63	3.77
458.833	3.34
459.036	4.09
459.239	3.88
459.442	3.4
459.645	3.34
459.848	3.72
460.051	4
460.254	3.51
460.457	3.2
460.66	3.16
460.863	3.06
461.066	3.26
461.269	2.87
461.472	2.2
461.675	2.8
461.878	2.84
462.081	2.44
462.284	1.78
462.486	2.48
462.689	2.66
462.892	2.26
463.095	2.08
463.298	2.33
463.5	2.73
463.703	3.47
463.906	3.67
464.109	3.73
464.311	3.27
464.514	3.24
464.717	2.66
464.92	3.04
465.122	2.73
465.325	2.5
465.528	2.61
465.73	1.95
465.933	2.05
466.135	1.97
466.338	2.08
466.541	2.12
466.743	2.26
466.946	2.66
467.148	1.75
467.351	2.33
467.553	2.71
467.756	2.7
467.958	2.82
468.161	2.39
468.363	2.86
468.566	2.86
468.768	3.61
468.971	3.63
469.173	3.48
469.375	4.58
469.578	4.54
469.78	4.28
469.983	4.27
470.185	4.73
470.387	4.54
470.59	4.2
470.792	3.55
470.994	3.6
471.196	4.01
471.399	4.85
471.601	4.42
471.803	3.73
472.005	3.22
472.208	2.68
472.41	2.17
472.612	2.67
472.814	2.77
473.016	3.61
473.218	3.14
473.421	2.75
473.623	2.24
473.825	2.62
474.027	3.21
474.229	3.79
474.431	3.26
474.633	3.47
474.835	4.55
475.037	4.21
475.239	4.12
475.441	4.03
475.643	3.48
475.845	3.43
476.047	3.07
476.249	2.66
476.451	2.16
476.653	3.5
476.855	3.79
477.057	2.88
477.258	3.08
477.46	3.06
477.662	2.88
477.864	3.64
478.066	3.92
478.268	3.64
478.469	3.64
478.671	4.15
478.873	3.81
479.075	3.74
479.276	4.08
479.478	4.03
479.68	4.36
479.882	4.4
480.083	3.76
480.285	3.47
480.487	3.8
480.688	3.93
480.89	3.78
481.091	3.44
481.293	3.27
481.495	3.1
481.696	2.93
481.898	2.49
482.099	2.46
482.301	2.46
482.502	2.43
482.704	2.24
482.905	2.39
483.107	2.42
483.308	2.46
483.51	2.44
483.711	2.21
483.913	2.35
484.114	2.5
484.315	2.36
484.517	2.68
484.718	2.64
484.92	2.92
485.121	2.82
485.322	2.78
485.524	2.78
485.725	2.72
485.926	2.86
486.127	2.64
486.329	2.54
486.53	2.62
486.731	2.56
486.932	2.63
487.134	2.53
487.335	2.23
487.536	2.22
487.737	2.05
487.938	2.23
488.139	2.27
488.341	2.56
488.542	2.56
488.743	2.51
488.944	2.63
489.145	2.67
489.346	2.8
489.547	2.94
489.748	2.83
489.949	2.98
490.15	2.61
490.351	2.54
490.552	2.33
490.753	2.18
490.954	2.19
491.155	1.97
491.356	1.61
491.557	1.66
491.758	1.85
491.959	1.93
492.159	1.73
492.36	2.08
492.561	2.1
492.762	1.76
492.963	2.05
493.164	2.31
493.364	2.38
493.565	2.68
493.766	2.56
493.967	2.46
494.167	2.39
494.368	2.5
494.569	2
494.769	2.26
494.97	2.57
495.171	3.08
495.371	3.39
495.572	3.09
495.773	3.48
495.973	3.3
496.174	3.54
496.375	3.65
496.575	3.53
496.776	3.85
496.976	3.33
497.177	3.67
497.377	3.04
497.578	2.08
497.778	2.64
497.979	1.95
498.179	1.88
498.38	1.96
498.58	1.69
498.78	2.07
498.981	2.21
499.181	2.29
499.382	2.22
499.582	2.54
499.782	3.1
499.983	2.92
500.183	3.4
500.383	3.72
500.584	3.33
500.784	3.46
500.984	3.27
501.184	2.97
501.385	3.48
501.585	3.28
501.785	2.94
501.985	2.95
502.185	3.25
502.386	3.49
502.586	3.89
502.786	3.81
502.986	4.39
503.186	4.46
503.386	4.71
503.586	4.77
503.786	4.97
503.987	5.5
504.187	5.44
504.387	5.31
504.587	5.55
504.787	5.12
504.987	5.46
505.187	5.23
505.387	5.42
505.587	5.51
505.786	5.29
505.986	4.97
506.186	5.29
506.386	5.19
506.586	5.1
506.786	4.62
506.986	4.35
507.186	4.24
507.386	4.43
507.585	4.75
507.785	5.07
507.985	5.11
508.185	5.28
508.384	4.76
508.584	5.21
508.784	5.11
508.984	5.58
509.183	5.84
509.383	5.86
509.583	5.4
509.782	5.22
509.982	5.24
510.182	4.88
510.381	4.99
510.581	5.27
510.781	4.76
510.98	5.12
511.18	4.74
511.379	4.61
511.579	4.21
511.778	4.33
511.978	4.26
512.177	4.21
512.377	4.22
512.576	4.48
512.776	3.94
512.975	4.88
513.175	4.42
513.374	4.39
513.573	4.72
513.773	4.66
513.972	4.61
514.172	4.32
514.371	4.05
514.57	4.48
514.77	4.32
514.969	4.97
515.168	4.37
515.367	4.37
515.567	4.21
515.766	4.05
515.965	4.64
516.164	4.64
516.364	5.08
516.563	5.2
516.762	5.05
516.961	4.72
517.16	4.32
517.359	4.54
517.559	4.59
517.758	4.85
517.957	5.04
518.156	5.09
518.355	5.52
518.554	5.23
518.753	5.04
518.952	4.62
519.151	4.68
519.35	4.68
519.549	4.84
519.748	5.1
519.947	5.13
520.146	4.97
520.345	5.25
520.544	4.83
520.743	4.99
520.942	5.14
521.141	6.11
521.339	6.54
521.538	6.97
521.737	7.09
521.936	7.25
522.135	7.34
522.333	7.43
522.532	7.17
522.731	7.12
522.93	6.92
523.129	6.48
523.327	6.26
523.526	6.21
523.725	6.3
523.923	6
524.122	5.82
524.321	5.69
524.519	5.78
524.718	5.53
524.917	5.68
525.115	6.18
525.314	6.27
525.512	6.14
525.711	6.08
525.909	5.57
526.108	5.44
526.306	5.44
526.505	5.46
526.703	5.41
526.902	5.26
527.1	5.22
527.299	5.18
527.497	5.29
527.696	5.25
527.894	5.11
528.092	5.27
528.291	5.33
528.489	5.46
528.688	5.26
528.886	5.16
529.084	5.57
529.283	5.4
529.481	5.36
529.679	5.47
529.877	5.51
530.076	6
530.274	6.27
530.472	6.49
530.67	6.47
530.869	6.9
531.067	7.11
531.265	7.17
531.463	7.35
531.661	7.4
531.859	7.33
532.057	7.46
532.255	7.3
532.454	7.44
532.652	7.35
532.85	7.4
533.048	7.38
533.246	7.4
533.444	7.21
533.642	7.4
533.84	7.23
534.038	7.44
534.236	7.45
534.434	7.46
534.632	7.39
534.83	7.53
535.027	7.42
535.225	7.44
535.423	7.61
535.621	7.89
535.819	8.14
536.017	8.51
536.215	8.55
536.412	8.82
536.61	8.86
536.808	8.96
537.006	8.93
537.203	8.87
537.401	8.81
537.599	8.89
537.797	8.92
537.994	8.91
538.192	8.68
538.39	8.91
538.587	8.72
538.785	8.79
538.983	8.72
539.18	8.97
539.378	9
539.575	9.05
539.773	8.57
539.97	8.22
540.168	8.18
540.366	8.08
540.563	7.9
540.761	7.94
540.958	7.73
541.155	7.66
541.353	7.66
541.55	7.84
541.748	8.05
541.945	8.32
542.143	8.67
542.34	8.94
542.537	9
542.735	9.35
542.932	9.51
543.129	9.76
543.327	10.03
543.524	10.16
543.721	10.07
543.919	9.79
544.116	10.12
544.313	10.06
544.51	10.17
544.708	10.8
544.905	10.23
545.102	10.06
545.299	10.29
545.496	10.14
545.693	9.91
545.891	10.26
546.088	10.57
546.285	10.58
546.482	10.7
546.679	10.27
546.876	10.07
547.073	10.91
547.27	11.47
547.467	11.52
547.664	11.85
547.861	12.01
548.058	11.97
548.255	12.13
548.452	12
548.649	12.67
548.846	12.94
549.043	13
549.24	11.9
549.437	11.52
549.633	11.37
549.83	11.2
550.027	11.24
550.224	11.25
550.421	11.58
550.618	11.36
550.814	10.98
551.011	11.39
551.208	11.21
551.405	11.87
551.601	12.01
551.798	12.91
551.995	13.22
552.191	13.53
552.388	13.69
552.585	13.57
552.781	14.6
552.978	14.33
553.175	14.54
553.371	14.88
553.568	15.06
553.764	14.91
553.961	14.44
554.157	14.88
554.354	15.18
554.55	15
554.747	15.4
554.943	14.73
555.14	15.42
555.336	15.19
555.533	14.91
555.729	15.29
555.926	16.02
556.122	16.73
556.318	16.21
556.515	16.16
556.711	17.19
556.907	17.13
557.104	17.63
557.3	18.01
557.496	17.76
557.693	18.73
557.889	18.79
558.085	19.06
558.281	18.6
558.478	19.13
558.674	19.17
558.87	19.05
559.066	19.31
559.262	19.1
559.459	18.41
559.655	18.09
559.851	17.17
560.047	17.45
560.243	17.24
560.439	16.58
560.635	16.3
560.831	16.62
561.027	16.58
561.223	16.43
561.419	16.94
561.615	17.31
561.811	18.06
562.007	18.21
562.203	17.82
562.399	17.79
562.595	18.95
562.791	19.45
562.987	18.4
563.183	18.17
563.379	18.17
563.575	18.02
563.771	18.17
563.966	18.16
564.162	18.72
564.358	18.5
564.554	18.36
564.75	17.9
564.945	17.49
565.141	18.28
565.337	18.77
565.533	19.03
565.728	19.34
565.924	18.58
566.12	19.08
566.315	19.06
566.511	19.42
566.707	19.85
566.902	20.49
567.098	20.78
567.293	20.64
567.489	20.3
567.684	19.78
567.88	19.73
568.076	20.48
568.271	19.94
568.467	20.03
568.662	20.23
568.858	19.55
569.053	18.81
569.248	18.93
569.444	18.79
569.639	18.99
569.835	18.94
570.03	18.7
570.225	18.36
570.421	18.23
570.616	17.83
570.812	17.69
571.007	18.19
571.202	19.23
571.397	19.22
571.593	19.79
571.788	19.83
571.983	19.68
572.178	20.38
572.374	20.85
572.569	21.14
572.764	21.82
572.959	21.97
573.154	22.2
573.35	21.42
573.545	21.7
573.74	21.2
573.935	21.01
574.13	21.61
574.325	21.23
574.52	21.46
574.715	21.69
574.91	21.62
575.105	21.83
575.3	21.96
575.495	22.09
575.69	22.26
575.885	22.69
576.08	23.06
576.275	23.17
576.47	22.99
576.665	22.67
576.86	22.94
577.055	23.17
577.25	22.65
577.444	22.51
577.639	22.88
577.834	22.82
578.029	22.65
578.224	22.58
578.418	22.97
578.613	22.69
578.808	22.8
579.003	22.12
579.197	22.43
579.392	23.04
579.587	23.13
579.781	23.82
579.976	24.43
580.171	24.48
580.365	24.49
580.56	23.73
580.755	25.01
580.949	25.97
581.144	26.31
581.338	25.91
581.533	26.6
581.727	27.27
581.922	26.82
582.116	26.25
582.311	26.48
582.505	26.88
582.7	28.34
582.894	28.29
583.089	28.33
583.283	28.52
583.478	28.19
583.672	27.86
583.866	27.35
584.061	27.8
584.255	27.86
584.449	28.09
584.644	28.38
584.838	27.19
585.032	26.51
585.226	26.96
585.421	26.43
585.615	26.97
585.809	27.15
586.003	26.66
586.198	25.44
586.392	24.87
586.586	24.23
586.78	23.2
586.974	23.14
587.168	23.6
587.363	22.61
587.557	22.76
587.751	22.36
587.945	21.66
588.139	22.83
588.333	22.84
588.527	23.38
588.721	23.58
588.915	23.68
589.109	23.96
589.303	23.43
589.497	22.65
589.691	22.64
589.885	22.24
590.079	23.07
590.273	21.94
590.466	21.99
590.66	21.97
590.854	22.78
591.048	23.58
591.242	23.56
591.436	23.8
591.629	24.52
591.823	24.74
592.017	25.65
592.211	25.07
592.404	25.54
592.598	25.36
592.792	25.48
592.986	24.84
593.179	24.66
593.373	24.86
593.567	25.41
593.76	25.54
593.954	25.99
594.147	25.09
594.341	25.08
594.535	24.81
594.728	25.1
594.922	24.91
595.115	25.01
595.309	24.93
595.502	24.38
595.696	23.28
595.889	22.92
596.083	22.89
596.276	23.29
596.47	23.48
596.663	23.78
596.856	23.94
597.05	24.06
597.243	24.4
597.437	25.09
597.63	26.22
597.823	27.02
598.017	27.8
598.21	28.63
598.403	29.03
598.596	29.23
598.79	29.62
598.983	30.01
599.176	29.63
599.369	29.64
599.563	29.16
599.756	29.19
599.949	29.09
600.142	29.11
600.335	27.94
600.528	27.09
600.722	27.02
600.915	26.48
601.108	25.87
601.301	25.66
601.494	26.25
601.687	25.41
601.88	25.15
602.073	25.35
602.266	25.67
602.459	25.4
602.652	26.19
602.845	26.59
603.038	27.12
603.231	27.19
603.424	27.25
603.617	26.63
603.809	27.27
604.002	26.48
604.195	26.41
604.388	26.47
604.581	27.13
604.774	27.23
604.966	26.34
605.159	25.73
605.352	25.99
605.545	26.2
605.737	26.89
605.93	26.55
606.123	26.91
606.316	27.44
606.508	27.01
606.701	26.72
606.894	26.87
607.086	27.67
607.279	27.26
607.471	27.6
607.664	27.79
607.857	27.12
608.049	27.3
608.242	27.61
608.434	27.4
608.627	27.3
608.819	27.64
609.012	28.18
609.204	27.88
609.397	28.2
609.589	28.14
609.782	28.41
609.974	28.22
610.166	28.6
610.359	29.13
610.551	30.16
610.743	30.37
610.936	30.05
611.128	29.3
611.32	30.08
611.513	30.34
611.705	30.23
611.897	29.76
612.09	30.51
612.282	30.81
612.474	30.85
612.666	29.85
612.858	30.06
613.051	30.61
613.243	31.44
613.435	30.88
613.627	31.6
613.819	31.94
614.011	32.39
614.203	32.7
614.395	32.41
614.588	33.3
614.78	33.88
614.972	33.43
615.164	33.11
615.356	32.27
615.548	32.43
615.74	32.43
615.932	32.15
616.124	32.48
616.315	31.78
616.507	33.3
616.699	32.05
616.891	32.47
617.083	33.29
617.275	33.57
617.467	33.52
617.659	33.43
617.85	33.92
618.042	34.11
618.234	34.14
618.426	34.94
618.618	33.47
618.809	33.62
619.001	32.7
619.193	33.15
619.384	33.07
619.576	33.45
619.768	33.65
619.959	32.42
620.151	32.8
620.343	33.33
620.534	33
620.726	33.63
620.917	33.64
621.109	34.14
621.301	32.51
621.492	33.02
621.684	33.19
621.875	33.26
622.067	32.74
622.258	32.33
622.45	31.93
622.641	31.57
622.832	31.74
623.024	32.09
623.215	31.23
623.407	31.62
623.598	31.05
623.789	30.78
623.981	30.3
624.172	30.59
624.363	30.48
624.555	30.42
624.746	31.13
624.937	31.1
625.129	30.78
625.32	30.85
625.511	30.62
625.702	30.64
625.893	30.27
626.085	30.89
626.276	31.22
626.467	31.26
626.658	31.16
626.849	30.36
627.04	29.88
627.231	29.69
627.422	30.36
627.614	30.27
627.805	30.19
627.996	30.33
628.187	29.19
628.378	29.76
628.569	30.59
628.76	30.52
628.951	31.72
629.142	31.45
629.332	31.74
629.523	31.53
629.714	32.27
629.905	33.12
630.096	33.7
630.287	34.33
630.478	34.51
630.669	34.71
630.859	35.03
631.05	34.21
631.241	34.74
631.432	34.31
631.623	35.28
631.813	35.38
632.004	35.32
632.195	34.81
632.385	35.45
632.576	35.71
632.767	35.74
632.957	34.93
633.148	35.25
633.339	35.49
633.529	35.68
633.72	35.41
633.91	35.57
634.101	34.01
634.292	34.65
634.482	33.76
634.673	33.05
634.863	32.68
635.054	33.58
635.244	33.9
635.435	34.29
635.625	33.5
635.815	32.62
636.006	31.54
636.196	33.31
636.387	32.62
636.577	33.74
636.767	34.29
636.958	34.52
637.148	34.56
637.338	33.74
637.529	32.97
637.719	34.9
637.909	36.27
638.099	37.6
638.29	36.95
638.48	36.44
638.67	35.99
638.86	35.79
639.05	34.81
639.241	33.87
639.431	34.78
639.621	34.62
639.811	34.56
640.001	34.05
640.191	35.23
640.381	36
640.571	37.07
640.761	38.1
640.951	38.24
641.141	39.03
641.331	39.92
641.521	39.85
641.711	40.16
641.901	40.54
642.091	40.1
642.281	39.29
642.471	38.16
642.661	38.89
642.851	38.36
643.041	38.51
643.231	39.99
643.42	39.65
643.61	39.78
643.8	39.19
643.99	38.8
644.18	38.19
644.369	37.45
644.559	39.07
644.749	37.55
644.939	37.97
645.128	37.59
645.318	35.83
645.508	36.46
645.697	36.23
645.887	35.96
646.076	36.31
646.266	36.93
646.456	36.68
646.645	36.63
646.835	38.2
647.024	38.47
647.214	39.32
647.403	39.1
647.593	38.87
647.782	38.37
647.972	38.75
648.161	38.73
648.351	39.44
648.54	40.86
648.73	40.29
648.919	39.83
649.108	38.67
649.298	37.31
649.487	37.93
649.677	38.03
649.866	37.24
650.055	36.73
650.244	36.58
650.434	35.7
650.623	34.69
650.812	34.41
651.002	35.15
651.191	35.68
651.38	36.22
651.569	35.81
651.758	37.25
651.947	38.75
652.137	38.28
652.326	38.37
652.515	38.82
652.704	39.29
652.893	39.12
653.082	37.91
653.271	37.75
653.46	37.46
653.649	38.04
653.838	37.06
654.027	36.82
654.216	37.39
654.405	36.71
654.594	37.3
654.783	37.68
654.972	37.79
655.161	38.8
655.35	37.7
655.539	38
655.728	38.53
655.916	37.44
656.105	37.57
656.294	38.1
656.483	37.49
656.672	36.84
656.86	36.36
657.049	36.89
657.238	35.85
657.427	36.77
657.615	36.83
657.804	36.43
657.993	36.43
658.181	36.12
658.37	36.4
658.559	36.94
658.747	37.28
658.936	36.66
659.125	35.84
659.313	35.68
659.502	36.33
659.69	36.06
659.879	34.88
660.067	35.48
660.256	35.46
660.444	35.09
660.633	34.96
660.821	34.47
661.01	35.73
661.198	35.57
661.387	36.23
661.575	35.11
661.763	36.68
661.952	37.83
662.14	38.94
662.328	40.47
662.517	41.98
662.705	42.22
662.893	41.55
663.082	41.25
663.27	42.19
663.458	42.61
663.646	42.94
663.834	42.13
664.023	42.64
664.211	42.05
664.399	39.9
664.587	40
664.775	40.28
664.963	41.22
665.152	39.66
665.34	40.2
665.528	39.25
665.716	40.78
665.904	41.16
666.092	40.8
666.28	40.39
666.468	41.29
666.656	39.33
666.844	40.22
667.032	40.23
667.22	41.99
667.408	42.54
667.596	42.99
667.784	41.53
667.971	40.31
668.159	40.41
668.347	40.3
668.535	40.69
668.723	42.14
668.911	41.39
669.098	40.11
669.286	39.01
669.474	37.73
669.662	38.15
669.849	38.14
670.037	38.13
670.225	36.69
670.413	37.94
670.6	38
670.788	37.6
670.976	36.75
671.163	37.68
671.351	38.08
671.538	40.54
671.726	40.12
671.913	40.42
672.101	41.58
672.289	42.27
672.476	40.69
672.664	40.88
672.851	40.88
673.039	41.02
673.226	41.9
673.413	41.92
673.601	39.11
673.788	38.45
673.976	39.08
674.163	40.2
674.35	42.35
674.538	42.1
674.725	40.46
674.912	40.46
675.1	39.82
675.287	39.91
675.474	39.28
675.662	40.45
675.849	41.01
676.036	40.03
676.223	37.89
676.411	37.1
676.598	37.01
676.785	38.12
676.972	38.22
677.159	37.8
677.346	37.53
677.533	39.18
677.721	38.26
677.908	38.3
678.095	37.84
678.282	37.83
678.469	37.41
678.656	36.83
678.843	36.93
679.03	38.24
679.217	39.64
679.404	39.19
679.591	38.69
679.778	40.37
679.964	39.13
680.151	40.31
680.338	40.29
680.525	40.58
680.712	42.07
680.899	42.81
681.086	41.71
681.272	41.19
681.459	40.77
681.646	41.07
681.833	38.41
682.02	39.83
682.206	39.56
682.393	40.93
682.58	42.4
682.766	42.03
682.953	42.05
683.14	41.41
683.326	42.32
683.513	43.62
683.7	43.38
683.886	43.65
684.073	43.27
684.259	42.44
684.446	41.52
684.632	40.81
684.819	42.31
685.005	40.04
685.192	39.32
685.378	37.63
685.565	38.79
685.751	38.53
685.938	40.37
686.124	40.41
686.31	40.97
686.497	41.59
686.683	41.26
686.87	39.19
687.056	40.51
687.242	40.73
687.429	41.42
687.615	38.55
687.801	38.52
687.987	38.08
688.174	38.16
688.36	39.07
688.546	39.28
688.732	39.06
688.918	40.09
689.105	41.57
689.291	40.38
689.477	40.78
689.663	41.68
689.849	41.24
690.035	39.47
690.221	38.63
690.407	37.33
690.593	36.6
690.779	36.66
690.965	36.28
691.151	34
691.337	35.63
691.523	34.62
691.709	35.09
691.895	36.45
692.081	38.88
692.267	39.96
692.453	40.72
692.639	42.43
692.825	39.93
693.011	39.57
693.196	41.25
693.382	41.26
693.568	40.72
693.754	40.74
693.94	39.95
694.125	37.79
694.311	37.63
694.497	38.12
694.682	37.45
694.868	37.75
695.054	38.53
695.239	35.49
695.425	34.2
695.611	35.64
695.796	34.77
695.982	35.33
696.168	36.01
696.353	36.27
696.539	36.12
696.724	34.84
696.91	34.81
697.095	34.51
697.281	34.42
697.466	34.97
697.652	34.34
697.837	35.24
698.023	34.37
698.208	34.27
698.393	34.02
698.579	34.07
698.764	35.18
698.949	35.56
699.135	34.34
699.32	35.44
699.505	35.69
699.691	36.18
699.876	36.16
700.061	36.13
700.246	36.79
700.432	36.86
700.617	37.07
700.802	35.95
700.987	35.87
701.172	39.14
701.358	39.98
701.543	40.99
701.728	42.45
701.913	43.22
702.098	45.29
702.283	45.3
702.468	46.66
702.653	49.21
702.838	48.22
703.023	50.08
703.208	48.55
703.393	49.4
703.578	49.71
703.763	48.76
703.948	46.99
704.133	48.08
704.318	49.69
704.503	48.41
704.688	44.38
704.873	46.82
705.057	45.99
705.242	43.73
705.427	43.69
705.612	42.25
705.797	42.13
705.981	42.91
706.166	43.42
706.351	42.28
706.536	43.55
706.72	44.6
706.905	45.06
707.09	46.54
707.274	47.58
707.459	48.65
707.644	49.62
707.828	49.76
708.013	51.07
708.197	50.35
708.382	50.24
708.567	49.21
708.751	49.32
708.936	47.66
709.12	47.58
709.305	48.63
709.489	46.66
709.673	48.25
709.858	48.8
710.042	49.03
710.227	48.48
710.411	48.9
710.596	50.42
710.78	50.99
710.964	51.04
711.149	50.42
711.333	49.85
711.517	51.39
711.702	51.96
711.886	52.24
712.07	49.83
712.254	49.47
712.438	49.78
712.623	48.57
712.807	47.08
712.991	47.31
713.175	48.01
713.359	47.73
713.544	46.23
713.728	43.29
713.912	42.88
714.096	43.38
714.28	42.83
714.464	40.89
714.648	41.7
714.832	40.1
715.016	37.99
715.2	36.33
715.384	35.62
715.568	35.99
715.752	36.23
715.936	34.28
716.12	33.74
716.304	34.43
716.488	34.87
716.671	32.05
716.855	35.56
717.039	37.55
717.223	37.59
717.407	37.31
717.59	39.51
717.774	39.41
717.958	40.53
718.142	41.86
718.325	39.51
718.509	36.2
718.693	37.85
718.877	37
719.06	39.68
719.244	40.76
719.428	43.13
719.611	38.49
719.795	40.2
719.978	41.76
720.162	40.51
720.345	41.34
720.529	43.2
720.713	44.44
720.896	41.79
721.08	43.58
721.263	43.07
721.446	41.37
721.63	40.75
721.813	41.46
721.997	42.29
722.18	44.24
722.364	44.54
722.547	46.77
722.73	45.5
722.914	45.96
723.097	43.53
723.28	41.83
723.464	44.53
723.647	45.53
723.83	40.4
724.013	41.9
724.197	39.86
724.38	38.39
724.563	37.78
724.746	38.2
724.929	38.53
725.112	35.66
725.296	34.94
725.479	32.37
725.662	34.37
725.845	36.07
726.028	33.1
726.211	32.85
726.394	32.04
726.577	32.24
726.76	32.31
726.943	30.41
727.126	30.9
727.309	33.17
727.492	33.97
727.675	35.07
727.858	37.23
728.041	38.63
728.224	39.73
728.407	41.72
728.589	44.76
728.772	43.86
728.955	46.89
729.138	47.32
729.321	46.95
729.503	49.38
729.686	48.53
729.869	47.61
730.052	48.12
730.234	48.82
730.417	49.6
730.6	48.45
730.782	49.25
730.965	49.23
731.148	50.13
731.33	49.76
731.513	48.05
731.695	48.11
731.878	47.93
732.061	47.94
732.243	48.52
732.426	48.54
732.608	48.04
732.791	48.98
732.973	49.22
733.156	47.08
733.338	49.62
733.52	51.43
733.703	51.3
733.885	52.49
734.068	53.98
734.25	53.86
734.432	55.02
734.615	55.77
734.797	58.54
734.979	57.92
735.162	60.13
735.344	59
735.526	57.84
735.708	59.15
735.891	61.68
736.073	59.92
736.255	59.14
736.437	61.61
736.619	61.6
736.802	59.91
736.984	62.01
737.166	61.98
737.348	64.82
737.53	64.24
737.712	64.49
737.894	61.4
738.076	62.49
738.258	63.47
738.44	60.05
738.622	62.3
738.804	59.19
738.986	56.59
739.168	57.14
739.35	54.14
739.532	58.88
739.714	55.74
739.896	56.97
740.078	57.25
740.259	57.02
740.441	60.07
740.623	60.05
740.805	62.04
740.987	64.68
741.168	65.22
741.35	67.76
741.532	65.59
741.714	66.43
741.895	68.24
742.077	72.16
742.259	73.38
742.44	77.14
742.622	77.62
742.804	79.23
742.985	77.91
743.167	77.59
743.348	79.26
743.53	78.24
743.711	82.76
743.893	81.13
744.075	77.9
744.256	75.53
744.438	69.96
744.619	71.12
744.8	71.89
744.982	74.79
745.163	76.9
745.345	73.43
745.526	77.96
745.707	75.97
745.889	76.64
746.07	74.24
746.252	76.38
746.433	75.35
746.614	72.83
746.795	71.81
746.977	71.45
747.158	67.42
747.339	68.52
747.52	66.86
747.702	68.05
747.883	67.78
748.064	71.64
748.245	72.49
748.426	73.42
748.607	72.6
748.788	73.74
748.97	72.33
749.151	75.84
749.332	75.54
749.513	75.05
749.694	77.51
749.875	76.46
750.056	77.48
750.237	76.05
750.418	78.06
750.599	76.37
750.78	76.03
750.96	72.59
751.141	69.07
751.322	72.11
751.503	73.29
751.684	68.4
751.865	70.1
752.046	69.44
752.226	67.07
752.407	67.14
752.588	71.2
752.769	68
752.949	71.77
753.13	71.85
753.311	66.72
753.492	64.3
753.672	68.27
753.853	66.28
754.034	66.56
754.214	65.33
754.395	66.56
754.575	62.53
754.756	65.67
754.937	68.84
755.117	70.52
755.298	74.14
755.478	74.06
755.659	72.58
755.839	73.94
756.02	73.82
756.2	75.42
756.381	73.37
756.561	76.43
756.741	75.52
756.922	72.67
757.102	71
757.283	68.11
757.463	68.39
757.643	63.08
757.823	60.21
758.004	54.61
758.184	57.84
758.364	56.78
758.545	53.1
758.725	49.67
758.905	47.45
759.085	44.24
759.265	43.34
759.446	37.67
759.626	42.77
759.806	38.64
759.986	40.14
760.166	29.73
760.346	32.04
760.526	32.21
760.706	33.29
760.886	31.27
761.066	32.3
761.246	30.77
761.426	34.2
761.606	30.39
761.786	32.06
761.966	31.31
762.146	35.59
762.326	34.77
762.506	34.36
762.686	33.61
762.866	35
763.046	38.29
763.225	39.67
763.405	41.09
763.585	44.18
763.765	46.58
763.945	50.01
764.124	47.57
764.304	50.36
764.484	50.86
764.664	54.61
764.843	55.77
765.023	57.08
765.203	61.79
765.382	64.42
765.562	65.33
765.741	70.35
765.921	69.73
766.101	75.97
766.28	79.46
766.46	80.68
766.639	82.2
766.819	83.27
766.998	85.2
767.178	84.99
767.357	84.3
767.537	78.3
767.716	74.69
767.896	76.39
768.075	76.14
768.254	73.26
768.434	73.79
768.613	73.11
768.792	78.53
768.972	78.53
769.151	77.48
769.33	76.23
769.51	80.71
769.689	85.4
769.868	82.57
770.047	79.5
770.226	85.91
770.406	88.97
770.585	94.59
770.764	93.18
770.943	97.26
771.122	97.94
771.301	108.51
771.48	113.57
771.66	108.56
771.839	118.91
772.018	125.27
772.197	115.13
772.376	115.39
772.555	108.39
772.734	100.84
772.913	97.66
773.092	96.21
773.271	90.36
773.449	98.21
773.628	103.4
773.807	96.19
773.986	97.92
774.165	108.04
774.344	106.76
774.523	109.81
774.701	116.67
774.88	109.92
775.059	117.46
775.238	112.28
775.417	108.16
775.595	110.4
775.774	103.64
775.953	100.98
776.131	98.12
776.31	99.02
776.489	103.2
776.667	102.43
776.846	99.79
777.025	98.53
777.203	98.77
777.382	102.95
777.56	107.71
777.739	116.69
777.917	115.14
778.096	109.8
778.274	106.53
778.453	98.84
778.631	94.57
778.81	101.72
778.988	97.91
779.166	100.66
779.345	87.97
779.523	80.2
779.702	77.38
779.88	74.49
780.058	81.04
780.237	83.22
780.415	86.29
780.593	84.96
780.771	83.26
780.95	82.41
781.128	81.4
781.306	87.65
781.484	96.36
781.662	101.46
781.841	107.69
782.019	98.58
782.197	94.62
782.375	98.27
782.553	107.94
782.731	108.8
782.909	121.67
783.087	114.81
783.265	111.73
783.443	104.32
783.621	100
783.799	98.33
783.977	107.79
784.155	116.16
784.333	109.44
784.511	105.28
784.689	104.9
784.867	96.88
785.045	97.11
785.223	87.18
785.4	84.92
785.578	86.65
785.756	92.7
785.934	87.82
786.112	82.32
786.289	81.48
786.467	79.66
786.645	72.79
786.823	73.24
787	72.7
787.178	75.16
787.356	76.69
787.533	67.42
787.711	62.39
787.889	60.25
788.066	64.62
788.244	65.15
788.421	63.75
788.599	68.56
788.776	69.75
788.954	72.31
789.131	71.99
789.309	68.03
789.486	82.33
789.664	83.3
789.841	93.27
790.019	91.19
790.196	94.37
790.373	106.54
790.551	117.77
790.728	103.44
790.906	103.17
791.083	134.96
791.26	132.1
791.437	123.13
791.615	122.62
791.792	106.99
791.969	105.19
792.146	102.46
792.324	98.11
792.501	85.85
792.678	95.4
792.855	89.77
793.032	72.65
793.209	65.83
793.387	59.81
793.564	60.72
793.741	56.52
793.918	56.23
794.095	60.92
794.272	55.74
794.449	56.55
794.626	57.03
794.803	58.97
794.98	56.5
795.157	62.3
795.334	74.36
795.511	76.21
795.688	85.01
795.864	85.51
796.041	86.88
796.218	88.4
796.395	90.27
796.572	82.53
796.749	80.34
796.925	82.07
797.102	83.01
797.279	79.11
797.456	82.88
797.632	70.84
797.809	70.79
797.986	71.13
798.162	75.92
798.339	76.01
798.516	80.9
798.692	82.03
798.869	77.38
799.046	74.55
799.222	81.49
799.399	77.23
799.575	94.93
799.752	96.69
799.928	96.14
800.105	92.85
800.281	95.98
800.458	99.43
800.634	111.54
800.811	113.57
800.987	117.48
801.163	109.63
801.34	119.07
801.516	98.06
801.692	90.9
801.869	99.54
802.045	100.44
802.221	100.82
802.398	98.25
802.574	87.16
802.75	86.95
802.926	95.41
803.103	91.35
803.279	95.38
803.455	100.5
803.631	97.65
803.807	86.58
803.983	85.24
804.16	84.92
804.336	92.72
804.512	110.36
804.688	130.48
804.864	120.34
805.04	132.71
805.216	120.05
805.392	116.01
805.568	132.13
805.744	136.45
805.92	125.51
806.096	136.24
806.272	124.75
806.448	107.1
806.623	94.89
806.799	83.33
806.975	85.67
807.151	76.61
807.327	75.3
807.503	65.54
807.678	72.49
807.854	66.56
808.03	62.39
808.206	65.12
808.381	78.8
808.557	93.06
808.733	96.26
808.908	88.9
809.084	104.02
809.26	105.87
809.435	112.63
809.611	92.61
809.787	110.27
809.962	94.76
810.138	98.9
810.313	84.62
810.489	69.63
810.664	74.19
810.84	76.62
811.015	79.87
811.191	86.51
811.366	80.25
811.542	86.51
811.717	87.07
811.892	81.67
812.068	70.25
812.243	109.49
812.419	107.32
812.594	100.56
812.769	86.17
812.944	70.92
813.12	84.61
813.295	79.07
813.47	60.37
813.645	58.56
813.821	71.43
813.996	97.98
814.171	96.1
814.346	107.43
814.521	105.82
814.697	106.06
814.872	112.82
815.047	108.92
815.222	97.31
815.397	114.56
815.572	117.37
815.747	106.31
815.922	89.44
816.097	80.78
816.272	64.93
816.447	59.77
816.622	53.58
816.797	49.35
816.972	47.8
817.147	52.65
817.322	58.03
817.496	48.84
817.671	50.4
817.846	48.69
818.021	47.86
818.196	49.83
818.371	56.41
818.545	59.87
818.72	58.99
818.895	50.75
819.069	45.77
819.244	39.21
819.419	40.59
819.594	36
819.768	33.09
819.943	27.29
820.117	26.73
820.292	22.3
820.467	23.15
820.641	21.37
820.816	22.61
820.99	22.64
821.165	22.65
821.339	21.13
821.514	20.95
821.688	20.62
821.863	21.65
822.037	19.95
822.212	19.84
822.386	19.08
822.56	21.34
822.735	19.32
822.909	19.38
823.084	23.57
823.258	26.96
823.432	30.92
823.606	34.57
823.781	35.71
823.955	41.13
824.129	46.41
824.303	47.67
824.478	47.58
824.652	51.05
824.826	46.08
825	42.37
825.174	39.21
825.348	38.95
825.523	38.97
825.697	41.29
825.871	37.37
826.045	37.01
826.219	37.3
826.393	36.64
826.567	32.72
826.741	37.72
826.915	34.81
827.089	38.88
827.263	36.85
827.437	30.54
827.611	30.9
827.784	39.85
827.958	38.13
828.132	43.34
828.306	42.62
828.48	54.15
828.654	59.26
828.827	63.01
829.001	69.17
829.175	81.12
829.349	90.68
829.522	88.11
829.696	86.71
829.87	85.92
830.044	78.7
830.217	78.89
830.391	83.29
830.565	79.2
830.738	92.4
830.912	72.29
831.085	66.82
831.259	61.56
831.432	53.25
831.606	47.4
831.779	46
831.953	50.21
832.126	52.95
832.3	53.9
832.473	52.15
832.647	47.84
832.82	49.19
832.994	46.83
833.167	44.47
833.34	47.22
833.514	42.94
833.687	45.43
833.86	46.94
834.034	49.16
834.207	49.24
834.38	49.4
834.553	52.81
834.727	59.22
834.9	61.97
835.073	64.85
835.246	64.06
835.419	77.48
835.593	84.44
835.766	102.6
835.939	115.79
836.112	111.47
836.285	127.06
836.458	112.31
836.631	96.37
836.804	117.83
836.977	146.15
837.15	136.22
837.323	166.98
837.496	183.14
837.669	187.04
837.842	134.19
838.015	99.89
838.188	93.57
838.361	98.75
838.533	84.57
838.706	71.76
838.879	71.86
839.052	84.02
839.225	77.28
839.398	72.92
839.57	73.74
839.743	79.16
839.916	89.72
840.088	91.94
840.261	80.24
840.434	88.67
840.607	92.37
840.779	85.64
840.952	85.55
841.124	82.77
841.297	107.94
841.47	104.09
841.642	121.67
841.815	192.64
841.987	220.35
842.16	326.38
842.332	287.97
842.505	205.35
842.677	190.04
842.85	172.16
843.022	205.54
843.194	193.41
843.367	161.3
843.539	139.07
843.712	136.3
843.884	120.24
844.056	111.4
844.229	131.92
844.401	176.04
844.573	251.15
844.745	283.12
844.918	325.1
845.09	427.27
845.262	295.89
845.434	374.04
845.606	730.36
845.779	-1593.18
845.951	17775
846.123	-2126.47
846.295	1728.57
846.467	-2278.95
846.639	-3017.39
846.811	819.32
846.983	368.72
847.155	882.5
847.327	748.11
847.499	311.41
847.671	308.64
847.843	407.73
848.015	433.33
848.187	375.1
848.359	221
848.531	323.88
848.703	453.5
848.875	522.29
849.047	1972.5
849.218	4643.75
849.39	-850.62
849.562	15660
849.734	-2878.57
849.905	11528.57
850.077	-924.32
850.249	-347.86
850.421	971.43
850.592	587.8
850.764	292.77
850.936	241.64
851.107	327.27
851.279	275.45
851.451	224.4
851.622	295.53
851.794	190.73
851.965	336.2
852.137	406.83
852.308	7855.56
852.48	-490.74
852.651	-343.98
852.823	-574.6
852.994	-2670.37
853.166	6612.5
853.337	-1705.56
853.509	378.39
853.68	17825
853.851	717.78
854.023	451.75
854.194	497.46
854.365	319.81
854.537	220.4
854.708	178.54
854.879	147.5
855.05	199.59
855.222	188.5
855.393	325
855.564	228.77
855.735	209.91
855.906	221.48
856.078	239.47
856.249	201.97
856.42	252.14
856.591	387.57
856.762	-2773.68
856.933	-2588.46
857.104	-886.67
857.275	21400
857.446	1113.85
857.617	-12533.33
857.788	37200
857.959	424.57
858.13	1065.31
858.301	355.23
858.472	350.56
858.643	244.93
858.814	159.61
858.985	184.51
859.155	222.4
859.326	372.28
859.497	236.05
859.668	329.1
859.839	562.5
860.009	406.55
860.18	328.7
860.351	309.06
860.522	243.98
860.692	318
860.863	327.95
861.034	283.33
861.204	301.09
861.375	623.26
861.546	329.68
861.716	362.93
861.887	383.27
862.057	1541.18
862.228	2142.86
862.398	-210.6
862.569	-1458.82
862.739	-1554.55
862.91	946.74
863.08	9500
863.251	-3057.14
863.421	-538.67
863.592	-3825
863.762	-366.23
863.932	814.63
864.103	-544.44
864.273	388.42
864.443	291.67
864.614	231.03
864.784	198.39
864.954	133.7
865.125	112.47
865.295	163.03
865.465	191.5
865.635	154.11
865.805	94.65
865.976	108.63
866.146	122.28
866.316	120.1
866.486	95.13
866.656	124.46
866.826	144.23
866.996	143.69
867.166	164.56
867.336	153.39
867.506	149.23
867.676	200.8
867.846	194.28
868.016	148.81
868.186	244.56
868.356	880.72
868.526	579.8
868.696	-2494.12
868.866	-489.55
869.036	-1325.93
869.206	1089.19
869.376	-1859.26
869.545	2360
869.715	2890.48
869.885	-951.47
870.055	-432.48
870.224	296.12
870.394	317.33
870.564	500.78
870.734	629.46
870.903	301.39
871.073	490.85
871.243	420.97
871.412	351.38
871.582	715.22
871.751	-2236.36
871.921	-264.56
872.091	-18.62
872.26	-51.33
872.43	-62.3
872.599	-85.09
872.769	-76.23
872.938	-62.39
873.108	-27.41
873.277	-202.42
873.446	2907.69
873.616	-378.49
873.785	249.81
873.955	260.26
874.124	323.55
874.293	434.54
874.463	1832.43
874.632	-717.39
874.801	-522.73
874.971	-132.21
875.14	-57.72
875.309	-42.63
875.478	-166.48
875.647	-25.5
875.817	-73.31
875.986	-21.43
876.155	8300
876.324	209.85
876.493	177.83
876.662	248.3
876.831	117.02
877	156.6
877.17	136.58
877.339	219.38
877.508	228.11
877.677	0
877.846	-1170.83
878.015	-651.67
878.184	-350
878.352	-9550
878.521	886.76
878.69	277.82
878.859	183.55
879.028	180.76
879.197	151.93
879.366	102.51
879.534	94.36
879.703	97.46
879.872	72.29
880.041	62.42
880.21	52.03
880.378	46.09
880.547	43.17
880.716	42.25
880.884	32.05
881.053	26.82
881.222	27.01
881.39	23.57
881.559	25.66
881.727	26.51
881.896	23.4
882.065	20.74
882.233	26.91
882.402	31.29
882.57	28.38
882.739	38.33
882.907	47.84
883.076	54.95
883.244	50.81
883.412	38.25
883.581	55.89
883.749	67.82
883.918	76.9
884.086	68.17
884.254	102.72
884.423	122.42
884.591	110.5
884.759	129.07
884.927	98.02
885.096	114.82
885.264	142.26
885.432	135.49
885.6	154.28
885.769	146.98
885.937	178.69
886.105	142.32
886.273	126.75
886.441	145.96
886.609	121.22
886.777	151.53
886.945	163.88
887.113	160.57
887.281	171.43
887.449	161.78
887.617	157.01
887.785	145.61
887.953	116
888.121	211.64
888.289	341.67
888.457	734.62
888.625	396.43
888.793	-552.63
888.961	793.75
889.129	3525
889.296	720.31
889.464	1030.77
889.632	840
889.8	583.33
889.967	300.94
890.135	236.86
