Data from JASIL_3381_Reflection_1.txt Node
Date: Thu Nov 19 19:06:58 EST 2015
User: Geneva
Spectrometer: USB4E03002
Autoset integration time: false
Trigger mode: 4
Integration Time (sec): 1.000000E-1
Scans to average: 10
Electric dark correction enabled: false
Nonlinearity correction enabled: false
Boxcar width: 5
Stray light correction enabled: false
XAxis mode: Wavelengths
Stop averaging: false
Number of Pixels in Spectrum: 3648
>>>>>Begin Spectral Data<<<<<
177.575	319.57
177.794	391.84
178.014	345.36
178.233	350.8
178.452	342.08
178.672	378.36
178.891	408.69
179.11	489.8
179.33	587.55
179.549	848.63
179.768	1326
179.987	867.81
180.207	1028.32
180.426	4333.33
180.645	322500
180.864	-12207.69
181.084	5825.93
181.303	-13420.83
181.522	14060.87
181.741	2229.93
181.96	1086.55
182.179	698.44
182.398	1190.76
182.618	607.55
182.837	454.48
183.056	498.24
183.275	523.88
183.494	651.18
183.713	449.1
183.932	358.97
184.151	435.87
184.37	460.37
184.589	543.29
184.808	627.6
185.027	1012.24
185.246	984.75
185.465	685.71
185.684	561.99
185.903	499.25
186.122	604.61
186.341	940.81
186.56	992.17
186.779	904.73
186.998	892.61
187.216	809.61
187.435	584.13
187.654	662.79
187.873	757.88
188.092	947.04
188.311	1050.17
188.53	819.2
188.748	590.5
188.967	440.03
189.186	575.14
189.405	552.55
189.623	486.83
189.842	651.82
190.061	773.09
190.28	719.84
190.498	771.87
190.717	566.13
190.936	570.29
191.154	487.71
191.373	710.53
191.592	465.12
191.81	607.21
192.029	635.02
192.248	542.99
192.466	597.15
192.685	597.96
192.904	596.51
193.122	693.92
193.341	802.19
193.559	1746.51
193.778	887.82
193.996	1400.93
194.215	860.17
194.433	832.35
194.652	761.19
194.87	561.42
195.089	523.57
195.307	557.51
195.526	683
195.744	658.66
195.963	462.75
196.181	517.9
196.399	532.99
196.618	584.08
196.836	524.58
197.055	502.29
197.273	579.51
197.491	611.3
197.71	637.33
197.928	672.71
198.146	790.91
198.365	1949.32
198.583	1274.09
198.801	1207.44
199.019	890.63
199.238	1497.88
199.456	1172.2
199.674	820.59
199.892	723.13
200.111	655.39
200.329	600.57
200.547	461.72
200.765	387.75
200.983	416.65
201.202	407.87
201.42	497.01
201.638	720.78
201.856	801.08
202.074	945.71
202.292	820.1
202.51	656.8
202.728	577.84
202.946	533.74
203.165	669.27
203.383	629.01
203.601	817.11
203.819	696.06
204.037	506.95
204.255	492.62
204.473	438.14
204.691	499.28
204.909	540.28
205.127	711.92
205.345	992.52
205.562	654.73
205.78	574.78
205.998	531.02
206.216	473.29
206.434	514.16
206.652	461.3
206.87	502.2
207.088	482.33
207.306	515.8
207.523	531.44
207.741	381.46
207.959	393.29
208.177	405.3
208.395	342.33
208.612	325.38
208.83	308.86
209.048	320.61
209.266	303.62
209.483	344.86
209.701	323.28
209.919	339.98
210.136	446.7
210.354	580.56
210.572	605.87
210.79	598.38
211.007	754.55
211.225	668.25
211.442	896.42
211.66	1862.72
211.878	2423.62
212.095	1734.82
212.313	1118.44
212.53	1445.82
212.748	810.68
212.966	1087.4
213.183	1466.3
213.401	1056.71
213.618	1208.36
213.836	1407.09
214.053	830.06
214.271	608.01
214.488	705.46
214.705	733.73
214.923	561.81
215.14	631.8
215.358	520.82
215.575	489.27
215.793	527.82
216.01	401.2
216.227	413.66
216.445	532
216.662	558.38
216.879	471.71
217.097	439.14
217.314	436.96
217.531	494.19
217.749	495.53
217.966	488.3
218.183	486.71
218.4	552.74
218.618	587.75
218.835	436.67
219.052	433.65
219.269	413.57
219.487	391.65
219.704	478.55
219.921	435.19
220.138	423.5
220.355	402.83
220.572	456.05
220.79	591.47
221.007	481.88
221.224	395.01
221.441	359.25
221.658	368.41
221.875	417
222.092	366.18
222.309	332.34
222.526	337.81
222.743	315.2
222.96	259.72
223.177	211.29
223.394	215.48
223.611	258.9
223.828	263.07
224.045	282.81
224.262	262
224.479	271.48
224.696	315.08
224.913	341.46
225.13	350.82
225.347	362.86
225.564	369.03
225.781	319.26
225.997	279.8
226.214	261.96
226.431	234.79
226.648	197.47
226.865	168.83
227.082	145.63
227.298	128.42
227.515	122.83
227.732	110.17
227.949	100.32
228.165	93.25
228.382	86.52
228.599	81.95
228.816	78.06
229.032	82.27
229.249	80.55
229.466	82.32
229.682	78.98
229.899	80.29
230.116	86.72
230.332	95.2
230.549	103.6
230.765	111.97
230.982	117.01
231.199	118.7
231.415	127.53
231.632	137.15
231.848	137.44
232.065	139.71
232.281	145.05
232.498	147.06
232.714	144.06
232.931	144.93
233.147	140.72
233.364	151
233.58	159.58
233.797	144.24
234.013	145.51
234.23	151.41
234.446	164.01
234.662	155.39
234.879	158.67
235.095	162.33
235.312	161.35
235.528	163.79
235.744	159.34
235.961	143.54
236.177	143.23
236.393	150.07
236.61	146.83
236.826	142.03
237.042	143.52
237.258	151.19
237.475	163.8
237.691	156.74
237.907	156.01
238.123	146.26
238.339	152.58
238.556	147.12
238.772	141.98
238.988	136.02
239.204	129.18
239.42	121.9
239.636	108.26
239.853	99.32
240.069	93.34
240.285	84.45
240.501	80.48
240.717	77.45
240.933	74.11
241.149	69.53
241.365	68.31
241.581	67.5
241.797	65.32
242.013	66.86
242.229	65.44
242.445	65.79
242.661	68.09
242.877	69.51
243.093	68.7
243.309	70.86
243.525	71.98
243.741	72.76
243.957	73.4
244.173	73.4
244.388	71.49
244.604	67.3
244.82	61.75
245.036	57.17
245.252	53.8
245.468	51.56
245.683	47.6
245.899	44.08
246.115	41.77
246.331	39.27
246.547	38.88
246.762	37.72
246.978	37.2
247.194	38.24
247.409	40.02
247.625	39.27
247.841	40.52
248.057	42.49
248.272	44.79
248.488	46.46
248.703	48.69
248.919	52.16
249.135	57.13
249.35	63.27
249.566	64.86
249.782	63.66
249.997	68.22
250.213	69.1
250.428	68.65
250.644	67.2
250.859	69.5
251.075	67.25
251.29	65.32
251.506	61.11
251.721	60.29
251.937	60.65
252.152	62.26
252.368	61.22
252.583	62.93
252.798	64.94
253.014	67.71
253.229	67.43
253.445	71.31
253.66	73.93
253.875	74.85
254.091	74.5
254.306	76.47
254.521	75.77
254.737	76.81
254.952	74.63
255.167	74.67
255.383	74.39
255.598	73.25
255.813	69.93
256.028	66.03
256.244	63.83
256.459	60.67
256.674	58.77
256.889	56.06
257.104	52.24
257.32	51.11
257.535	45.59
257.75	41.49
257.965	38.96
258.18	36.75
258.395	35.46
258.61	33.12
258.826	32.27
259.041	30.52
259.256	30.3
259.471	29.96
259.686	28.98
259.901	30.34
260.116	30.12
260.331	30.86
260.546	31.57
260.761	32.63
260.976	35.36
261.191	37.5
261.406	40.84
261.621	43.05
261.836	46.37
262.05	47.84
262.265	49.47
262.48	53.48
262.695	55.62
262.91	60.19
263.125	58.81
263.34	59.25
263.555	58.52
263.769	57.64
263.984	56.63
264.199	56.93
264.414	59.6
264.629	57.43
264.843	55.5
265.058	51.85
265.273	46.66
265.488	47.9
265.702	47.88
265.917	48.27
266.132	46.83
266.346	45.83
266.561	44.79
266.776	43.39
266.99	42.5
267.205	42.98
267.42	44.48
267.634	46.96
267.849	48.03
268.063	45.92
268.278	45.11
268.492	44.88
268.707	45.08
268.922	42.65
269.136	42.31
269.351	42.83
269.565	41.88
269.78	42.15
269.994	40.57
270.209	38.06
270.423	38.38
270.637	37.75
270.852	39.97
271.066	39.45
271.281	40.32
271.495	38.62
271.709	38.34
271.924	38.33
272.138	37.38
272.353	36.02
272.567	35.69
272.781	37.4
272.996	37.17
273.21	36.04
273.424	37.49
273.638	37.68
273.853	39.37
274.067	39.32
274.281	40.67
274.495	41.51
274.71	43.71
274.924	45.8
275.138	43.95
275.352	45.12
275.566	44.06
275.781	43.19
275.995	44.43
276.209	44.43
276.423	44.99
276.637	42.88
276.851	42.56
277.065	41.45
277.279	41.6
277.493	40.74
277.707	41.35
277.921	40.69
278.135	39.81
278.349	38.09
278.563	38.37
278.777	38.49
278.991	39.74
279.205	38.85
279.419	40.55
279.633	38.87
279.847	40.98
280.061	39.44
280.275	40.16
280.489	41.13
280.703	42
280.917	41.17
281.131	40.39
281.344	38.46
281.558	38.12
281.772	37.62
281.986	36.57
282.2	34.98
282.414	35.58
282.627	34.67
282.841	33.84
283.055	33.95
283.269	33.63
283.482	33
283.696	32.68
283.91	32.76
284.123	31.71
284.337	33.22
284.551	33.04
284.764	32.53
284.978	32.33
285.192	31.8
285.405	30.8
285.619	30.77
285.833	31.28
286.046	31.33
286.26	31.4
286.473	31.16
286.687	31.31
286.9	30.86
287.114	30.74
287.327	31.07
287.541	31.75
287.754	32.85
287.968	33.52
288.181	32.88
288.395	34.27
288.608	33.74
288.822	34.93
289.035	33.97
289.248	34.69
289.462	34.78
289.675	33.66
289.889	34.62
290.102	33.01
290.315	32.33
290.529	32.97
290.742	33.04
290.955	33.21
291.169	33.4
291.382	33.47
291.595	34
291.808	34.88
292.022	35.71
292.235	35.95
292.448	36.64
292.661	37.02
292.875	36.71
293.088	35.56
293.301	36.35
293.514	34.71
293.727	34.41
293.94	32.59
294.153	30.57
294.367	31.08
294.58	29
294.793	28.23
295.006	27.07
295.219	25.91
295.432	25.19
295.645	24.57
295.858	24.01
296.071	23.48
296.284	23.93
296.497	23.79
296.71	22.62
296.923	22.88
297.136	23.34
297.349	24.48
297.562	25.73
297.775	26.44
297.988	26.08
298.201	26.74
298.414	27.35
298.626	27.78
298.839	29.18
299.052	29.48
299.265	29.4
299.478	29.52
299.691	30.33
299.903	29.59
300.116	30.41
300.329	31.42
300.542	32.31
300.755	32.54
300.967	31.57
301.18	32.38
301.393	34.14
301.605	34.95
301.818	35.93
302.031	34.77
302.243	35.57
302.456	35.59
302.669	35.35
302.881	35.35
303.094	34.87
303.307	34.99
303.519	33.15
303.732	32.19
303.944	31.57
304.157	31.2
304.37	29.88
304.582	29.7
304.795	29.01
305.007	29.05
305.22	28.71
305.432	29.72
305.645	30.15
305.857	32.1
306.069	33.65
306.282	34.41
306.494	33.88
306.707	36.15
306.919	33.62
307.132	34.3
307.344	33.47
307.556	33.48
307.769	33.53
307.981	34.03
308.193	30.84
308.406	28.81
308.618	27.3
308.83	27.71
309.043	27.1
309.255	27.58
309.467	26.5
309.679	26.56
309.892	26.14
310.104	25.9
310.316	25.21
310.528	28.04
310.74	28.13
310.953	28.96
311.165	28.41
311.377	27.97
311.589	29.01
311.801	28.98
312.013	30.14
312.225	30.92
312.437	31.2
312.649	32.53
312.862	32.12
313.074	33.63
313.286	35.21
313.498	34.92
313.71	35.32
313.922	35.64
314.134	35.83
314.346	35.78
314.558	34.4
314.77	34.36
314.982	32.88
315.193	32.38
315.405	31.73
315.617	30.82
315.829	32.41
316.041	32.75
316.253	33.11
316.465	33.59
316.677	34.03
316.888	36.69
317.1	36.46
317.312	38.75
317.524	38.64
317.736	39.97
317.947	41.13
318.159	40.83
318.371	40.38
318.583	39.54
318.794	40.89
319.006	39.34
319.218	38.38
319.43	37.3
319.641	35.94
319.853	35.83
320.064	35.66
320.276	36.14
320.488	35.18
320.699	35.78
320.911	36.76
321.123	36.14
321.334	36.87
321.546	35.7
321.757	37.63
321.969	36.69
322.18	37.79
322.392	37.96
322.603	35.06
322.815	35.28
323.026	35.02
323.238	35.09
323.449	34.1
323.661	35.01
323.872	35.87
324.083	35.81
324.295	35.65
324.506	34.07
324.718	31.54
324.929	32.29
325.14	32.47
325.352	32.29
325.563	32.71
325.774	34.37
325.986	34.55
326.197	35.2
326.408	33.47
326.62	32.94
326.831	33.99
327.042	35.87
327.253	35.81
327.464	36.31
327.676	37.78
327.887	38.36
328.098	37.62
328.309	37.16
328.52	36.47
328.732	37.87
328.943	40
329.154	40.14
329.365	39.32
329.576	40.34
329.787	39.81
329.998	38.29
330.209	37.31
330.42	37.05
330.631	37.31
330.842	37.04
331.053	37.03
331.264	37.29
331.475	39.27
331.686	40.2
331.897	39.76
332.108	39.31
332.319	40
332.53	39.46
332.741	39.38
332.952	38.88
333.163	38.74
333.374	39.46
333.585	39.19
333.795	38.64
334.006	39.08
334.217	39.11
334.428	39.99
334.639	40.83
334.849	41.01
335.06	41.18
335.271	41.04
335.482	40.68
335.692	40.31
335.903	40.28
336.114	38.58
336.325	37.74
336.535	37.72
336.746	38.3
336.957	36.67
337.167	37.41
337.378	37.99
337.589	37.76
337.799	38.46
338.01	38.1
338.22	37.82
338.431	39.21
338.642	39.31
338.852	40.42
339.063	39.6
339.273	40.04
339.484	39.07
339.694	38.98
339.905	39.53
340.115	40.16
340.326	40.7
340.536	39.72
340.746	38.91
340.957	39.23
341.167	37.5
341.378	37.46
341.588	37.38
341.799	37.75
342.009	37.66
342.219	36.82
342.43	35.29
342.64	34.62
342.85	34.89
343.061	35.07
343.271	35.19
343.481	35.04
343.691	34.76
343.902	34.48
344.112	34.2
344.322	33.27
344.532	32.96
344.743	32.86
344.953	33.32
345.163	33.54
345.373	33.89
345.583	33.4
345.793	34.24
346.004	34.14
346.214	34.93
346.424	35.57
346.634	36.69
346.844	37.97
347.054	38.33
347.264	37.73
347.474	36.97
347.684	36.27
347.894	36.64
348.104	36.54
348.314	36.7
348.524	35.52
348.734	35.28
348.944	35.34
349.154	34.79
349.364	35.86
349.574	35.93
349.784	36.47
349.994	36.31
350.204	36.38
350.413	36.02
350.623	36.89
350.833	36.89
351.043	36.43
351.253	35.42
351.463	35.84
351.672	34.98
351.882	35.85
352.092	35.23
352.302	35.6
352.511	36.22
352.721	36.35
352.931	35.86
353.141	36.09
353.35	36.27
353.56	35.85
353.77	35.15
353.979	35.76
354.189	34.43
354.399	35.19
354.608	35.01
354.818	33.98
355.027	33.17
355.237	32.81
355.447	32.6
355.656	32.18
355.866	31.71
356.075	31.42
356.285	30.49
356.494	30.37
356.704	30.45
356.913	30.56
357.123	29.96
357.332	29.56
357.542	28.28
357.751	28.63
357.96	29.17
358.17	29.84
358.379	29.79
358.589	29.98
358.798	29.27
359.007	29.75
359.217	27.81
359.426	27.81
359.635	28.19
359.845	28.91
360.054	28.2
360.263	27.45
360.472	26.61
360.682	27.09
360.891	26.54
361.1	27
361.309	26.7
361.519	27.54
361.728	27.5
361.937	27.4
362.146	27.03
362.355	27.24
362.564	27.27
362.774	28.52
362.983	27.98
363.192	28.62
363.401	29.14
363.61	28.31
363.819	28.76
364.028	28.74
364.237	28.52
364.446	28.82
364.655	28.63
364.864	28.82
365.073	27.87
365.282	28.53
365.491	28
365.7	27.17
365.909	26.69
366.118	26.72
366.327	26.72
366.536	27.29
366.745	27.41
366.954	27.54
367.162	27.72
367.371	27.74
367.58	27.78
367.789	28.04
367.998	29.12
368.207	30.48
368.415	30.28
368.624	30.34
368.833	30.45
369.042	30.47
369.25	31.27
369.459	30.6
369.668	30.31
369.877	29.51
370.085	28.86
370.294	28.32
370.503	28.4
370.711	28.57
370.92	28.02
371.129	27.17
371.337	26.25
371.546	25.82
371.754	26.08
371.963	26.3
372.171	25.47
372.38	25.43
372.589	26.07
372.797	25.57
373.006	25.91
373.214	26.35
373.423	27.09
373.631	27.56
373.84	27.01
374.048	27.4
374.256	27.16
374.465	28.12
374.673	28.65
374.882	27.59
375.09	27.37
375.298	26.17
375.507	26.71
375.715	26.68
375.923	26.75
376.132	26.35
376.34	25.45
376.548	25.13
376.757	25.04
376.965	24.33
377.173	24.27
377.381	24.33
377.59	24.44
377.798	23.47
378.006	23.1
378.214	23.03
378.423	23.52
378.631	23.13
378.839	23.4
379.047	23.44
379.255	23.95
379.463	24.13
379.671	23.53
379.879	23.22
380.088	23.53
380.296	23.65
380.504	24.03
380.712	24.62
380.92	25.23
381.128	25.72
381.336	25.44
381.544	25.15
381.752	25.01
381.96	25.89
382.168	26.45
382.376	26.64
382.584	27.08
382.791	27.59
382.999	26.92
383.207	26.39
383.415	26.47
383.623	26.9
383.831	26.8
384.039	26.98
384.247	26.57
384.454	26.48
384.662	26.63
384.87	25.53
385.078	24.16
385.285	23.56
385.493	23.39
385.701	22.34
385.909	21.64
386.116	21.16
386.324	21.12
386.532	21.29
386.739	21.28
386.947	20.68
387.155	21.19
387.362	21.94
387.57	22.11
387.778	22.71
387.985	22.92
388.193	23.56
388.4	23.49
388.608	23.05
388.816	23
389.023	22.98
389.231	22.77
389.438	22.67
389.646	22.43
389.853	22.47
390.061	22.02
390.268	22.4
390.475	21.8
390.683	22.18
390.89	22.52
391.098	22.28
391.305	21.89
391.512	22.05
391.72	22.01
391.927	21.92
392.135	22.17
392.342	22.13
392.549	21.53
392.756	21.78
392.964	22
393.171	22.12
393.378	22.2
393.586	22.34
393.793	22.45
394	22.43
394.207	22.49
394.414	22.19
394.622	22.5
394.829	23.03
395.036	22.89
395.243	22.5
395.45	21.74
395.657	21.38
395.864	21.31
396.072	21.4
396.279	21.33
396.486	21.31
396.693	21.22
396.9	21.32
397.107	21.45
397.314	21.18
397.521	21.23
397.728	21.69
397.935	21.64
398.142	21.72
398.349	21.62
398.556	22.06
398.763	22
398.97	22.18
399.177	21.96
399.383	21.83
399.59	22.12
399.797	21.92
400.004	22.14
400.211	22.57
400.418	22.97
400.625	23.31
400.831	22.82
401.038	22.68
401.245	22.91
401.452	22.12
401.658	21.98
401.865	21.64
402.072	22.42
402.279	22.12
402.485	21.86
402.692	21.45
402.899	20.89
403.105	21.14
403.312	21.08
403.519	20.98
403.725	21.5
403.932	21.6
404.138	21.69
404.345	21.27
404.552	21.69
404.758	21.95
404.965	22.35
405.171	22.47
405.378	22.45
405.584	22.78
405.791	22.64
405.997	22.66
406.204	23.09
406.41	23.16
406.617	23.39
406.823	22.95
407.029	23.22
407.236	23.08
407.442	23.66
407.649	23.59
407.855	23.22
408.061	23.04
408.268	23.11
408.474	22.7
408.68	22.77
408.887	22.99
409.093	23.46
409.299	22.6
409.505	22.52
409.712	21.95
409.918	21.62
410.124	21.96
410.33	22.07
410.537	22.61
410.743	22.74
410.949	22.92
411.155	22.63
411.361	21.82
411.567	22.21
411.773	21.73
411.98	21.96
412.186	22.14
412.392	22.21
412.598	22.38
412.804	22.67
413.01	22.78
413.216	22.98
413.422	23.31
413.628	23.73
413.834	23.65
414.04	24.34
414.246	24.2
414.452	24.08
414.658	23.57
414.864	23.57
415.07	23.27
415.275	22.83
415.481	22.28
415.687	21.95
415.893	22
416.099	21.72
416.305	21.38
416.511	21.28
416.716	21.57
416.922	21.87
417.128	21.86
417.334	21.3
417.539	21.36
417.745	21.29
417.951	20.83
418.157	20.82
418.362	21.08
418.568	21.03
418.774	20.77
418.979	20.57
419.185	20.4
419.391	20.23
419.596	20.33
419.802	20.28
420.008	20.57
420.213	22.41
420.419	22.03
420.624	21.78
420.83	21.7
421.035	21.84
421.241	22
421.446	21.9
421.652	21.82
421.857	21.78
422.063	21.76
422.268	21.43
422.474	19.99
422.679	20.25
422.885	20.4
423.09	20.44
423.295	20.8
423.501	20.67
423.706	20.87
423.911	21.16
424.117	21.34
424.322	21.47
424.527	21.57
424.733	21.62
424.938	21.64
425.143	21.53
425.349	21.61
425.554	21.2
425.759	21.41
425.964	21.48
426.169	21.61
426.375	21.51
426.58	21.75
426.785	22.36
426.99	22.5
427.195	22.8
427.4	23.16
427.605	23.4
427.811	23.99
428.016	24.13
428.221	23.86
428.426	23.87
428.631	24.04
428.836	23.67
429.041	23.3
429.246	23.52
429.451	23.29
429.656	23.17
429.861	23.37
430.066	23.37
430.271	23.46
430.476	23.51
430.681	23.33
430.886	23.26
431.09	23.34
431.295	23.72
431.5	23.72
431.705	23.92
431.91	24.32
432.115	24.16
432.32	23.96
432.524	23.59
432.729	23.92
432.934	24.01
433.139	24.15
433.343	24.24
433.548	23.83
433.753	23.65
433.958	23.67
434.162	23.76
434.367	23.77
434.572	23.96
434.776	24.41
434.981	24.51
435.186	24.75
435.39	25.02
435.595	25.38
435.799	25.71
436.004	25.84
436.209	26.22
436.413	25.93
436.618	26.1
436.822	26.22
437.027	26.05
437.231	25.9
437.436	25.67
437.64	25.38
437.845	25.27
438.049	25.25
438.253	25.18
438.458	25.02
438.662	25.07
438.867	25.42
439.071	25.26
439.275	25.25
439.48	25.17
439.684	25.48
439.888	25.51
440.093	25.55
440.297	25.6
440.501	25.85
440.706	26.08
440.91	26.42
441.114	26.36
441.318	26.66
441.523	26.98
441.727	27.42
441.931	27.31
442.135	27.65
442.339	27.78
442.543	28.16
442.748	28.07
442.952	28.12
443.156	27.9
443.36	27.81
443.564	27.68
443.768	27.4
443.972	27.24
444.176	27.27
444.38	27.25
444.584	27.37
444.788	27.2
444.992	27.31
445.196	27.3
445.4	27.46
445.604	27.41
445.808	27.8
446.012	28.1
446.216	28.09
446.42	28.31
446.624	28.42
446.828	28.46
447.032	28.54
447.235	28.7
447.439	28.64
447.643	28.84
447.847	29.51
448.051	29.52
448.254	29.79
448.458	30.12
448.662	30.4
448.866	30.66
449.069	30.94
449.273	31.15
449.477	31.2
449.681	31.83
449.884	32.06
450.088	32.02
450.292	32.14
450.495	32.21
450.699	32.39
450.902	32.59
451.106	32.65
451.31	32.83
451.513	33.17
451.717	33.35
451.92	33.22
452.124	33.15
452.327	33.16
452.531	33.24
452.734	33.19
452.938	33.4
453.141	33.23
453.345	33.33
453.548	33.38
453.752	33.27
453.955	33.19
454.158	33.21
454.362	33.51
454.565	33.44
454.769	33.44
454.972	33.54
455.175	33.69
455.379	34.1
455.582	34.08
455.785	34.13
455.988	34.27
456.192	34.65
456.395	34.86
456.598	34.85
456.801	34.57
457.005	34.65
457.208	34.7
457.411	34.49
457.614	33.89
457.817	33.68
458.021	33.56
458.224	33.61
458.427	33.33
458.63	33.12
458.833	33.09
459.036	33.09
459.239	33.24
459.442	33.24
459.645	33.19
459.848	33.45
460.051	33.74
460.254	33.94
460.457	33.9
460.66	34.25
460.863	34.54
461.066	34.64
461.269	35.14
461.472	35.2
461.675	35.24
461.878	35.71
462.081	36
462.284	36.23
462.486	36.32
462.689	36.37
462.892	36.54
463.095	36.68
463.298	36.96
463.5	36.97
463.703	36.95
463.906	37.17
464.109	37.11
464.311	37.39
464.514	37.35
464.717	37.5
464.92	37.66
465.122	37.86
465.325	37.86
465.528	38
465.73	37.94
465.933	38.14
466.135	37.99
466.338	37.8
466.541	37.44
466.743	37.64
466.946	37.62
467.148	37.92
467.351	37.96
467.553	38.14
467.756	37.84
467.958	37.92
468.161	37.61
468.363	37.9
468.566	37.96
468.768	38.06
468.971	38.14
469.173	38.08
469.375	37.94
469.578	37.84
469.78	37.73
469.983	37.92
470.185	37.74
470.387	38
470.59	38.13
470.792	38.5
470.994	38.73
471.196	38.52
471.399	38.43
471.601	38.42
471.803	38.57
472.005	38.49
472.208	38.27
472.41	38.35
472.612	38.28
472.814	38.21
473.016	38.01
473.218	38.01
473.421	37.97
473.623	38.14
473.825	38.37
474.027	38.08
474.229	38.14
474.431	38.35
474.633	38.38
474.835	38.43
475.037	38.39
475.239	38.27
475.441	37.83
475.643	37.79
475.845	37.64
476.047	37.66
476.249	37.96
476.451	37.9
476.653	38
476.855	37.98
477.057	38.08
477.258	37.97
477.46	38.11
477.662	38.44
477.864	38.55
478.066	38.6
478.268	38.4
478.469	38.17
478.671	38.39
478.873	38.19
479.075	38.38
479.276	38.49
479.478	38.62
479.68	38.61
479.882	38.68
480.083	38.76
480.285	38.67
480.487	38.69
480.688	38.77
480.89	38.7
481.091	38.68
481.293	38.52
481.495	38.28
481.696	38.11
481.898	37.89
482.099	37.68
482.301	37.57
482.502	37.37
482.704	37.19
482.905	36.98
483.107	36.78
483.308	36.77
483.51	36.73
483.711	36.67
483.913	36.62
484.114	36.63
484.315	36.7
484.517	36.61
484.718	36.62
484.92	36.67
485.121	36.74
485.322	36.85
485.524	36.87
485.725	36.96
485.926	37
486.127	37.11
486.329	37.26
486.53	37.26
486.731	37.43
486.932	37.54
487.134	37.55
487.335	37.49
487.536	37.6
487.737	37.68
487.938	37.68
488.139	37.78
488.341	37.85
488.542	37.95
488.743	37.99
488.944	38.01
489.145	38.15
489.346	38.28
489.547	38.51
489.748	38.47
489.949	38.54
490.15	38.51
490.351	38.59
490.552	38.52
490.753	38.39
490.954	38.46
491.155	38.43
491.356	38.41
491.557	38.45
491.758	38.52
491.959	38.58
492.159	38.56
492.36	38.68
492.561	38.72
492.762	38.91
492.963	39.06
493.164	39.19
493.364	39.42
493.565	39.56
493.766	39.81
493.967	39.89
494.167	40.31
494.368	40.68
494.569	40.78
494.769	40.84
494.97	40.73
495.171	40.73
495.371	40.65
495.572	40.68
495.773	40.72
495.973	40.54
496.174	40.5
496.375	40.38
496.575	40.37
496.776	40.49
496.976	40.47
497.177	40.71
497.377	41
497.578	41.01
497.778	41.05
497.979	41.22
498.179	41.5
498.38	41.76
498.58	41.83
498.78	41.66
498.981	41.77
499.181	41.69
499.382	41.86
499.582	41.66
499.782	41.81
499.983	42.03
500.183	41.85
500.383	41.78
500.584	41.61
500.784	41.47
500.984	41.52
501.184	41.49
501.385	41.94
501.585	41.98
501.785	41.95
501.985	42.02
502.185	41.88
502.386	42.05
502.586	42.06
502.786	42.05
502.986	42.53
503.186	42.47
503.386	42.63
503.586	42.55
503.786	42.38
503.987	42.73
504.187	42.52
504.387	42.44
504.587	42.61
504.787	42.73
504.987	43
505.187	42.6
505.387	42.65
505.587	42.66
505.786	42.35
505.986	42.1
506.186	41.88
506.386	42.13
506.586	42.18
506.786	41.93
506.986	41.74
507.186	41.63
507.386	41.71
507.585	41.76
507.785	41.6
507.985	41.84
508.185	42.03
508.384	42.13
508.584	42.11
508.784	42.1
508.984	42.21
509.183	42.41
509.383	42.55
509.583	42.45
509.782	42.45
509.982	42.72
510.182	42.68
510.381	42.79
510.581	42.83
510.781	42.83
510.98	42.95
511.18	43.19
511.379	43.12
511.579	43.09
511.778	43.17
511.978	43.47
512.177	43.27
512.377	43.4
512.576	43.42
512.776	43.51
512.975	43.45
513.175	43.15
513.374	42.89
513.573	43.04
513.773	42.91
513.972	42.96
514.172	42.78
514.371	43.08
514.57	43.31
514.77	43.49
514.969	43.43
515.168	43.54
515.367	44
515.567	44.06
515.766	44.04
515.965	44.02
516.164	43.95
516.364	43.91
516.563	43.63
516.762	43.24
516.961	43.09
517.16	42.97
517.359	42.88
517.559	42.64
517.758	42.54
517.957	42.67
518.156	42.8
518.355	42.73
518.554	42.94
518.753	42.98
518.952	42.97
519.151	42.98
519.35	43.14
519.549	43.11
519.748	43.33
519.947	43.47
520.146	43.37
520.345	43.38
520.544	43.54
520.743	43.25
520.942	43.31
521.141	43.63
521.339	43.6
521.538	43.65
521.737	43.85
521.936	43.77
522.135	44.05
522.333	43.74
522.532	43.54
522.731	43.61
522.93	43.77
523.129	43.76
523.327	43.46
523.526	43.3
523.725	43.13
523.923	43.05
524.122	43.13
524.321	42.92
524.519	43.01
524.718	43.2
524.917	43.13
525.115	42.89
525.314	42.69
525.512	42.8
525.711	43.01
525.909	43.06
526.108	42.93
526.306	42.77
526.505	42.81
526.703	42.68
526.902	42.44
527.1	42.41
527.299	42.5
527.497	42.52
527.696	42.41
527.894	42.29
528.092	42.16
528.291	42.19
528.489	42.24
528.688	42.07
528.886	42.12
529.084	42.22
529.283	42.24
529.481	42.17
529.679	42.29
529.877	42.44
530.076	42.55
530.274	42.89
530.472	42.95
530.67	43
530.869	43.27
531.067	43.46
531.265	43.62
531.463	43.82
531.661	43.84
531.859	43.77
532.057	43.81
532.255	43.65
532.454	43.39
532.652	43.54
532.85	43.55
533.048	43.38
533.246	43.4
533.444	43.27
533.642	43.2
533.84	43.26
534.038	43.32
534.236	43.36
534.434	43.68
534.632	43.73
534.83	43.69
535.027	43.67
535.225	43.98
535.423	43.9
535.621	44.08
535.819	44.02
536.017	44.17
536.215	44.16
536.412	44.23
536.61	44.04
536.808	44.06
537.006	44.09
537.203	44.27
537.401	44.33
537.599	44.46
537.797	44.6
537.994	44.89
538.192	44.82
538.39	44.96
538.587	44.94
538.785	45.25
538.983	45.4
539.18	45.45
539.378	45.48
539.575	45.44
539.773	45.45
539.97	45.26
540.168	45.17
540.366	45.35
540.563	45.15
540.761	45.02
540.958	44.79
541.155	44.8
541.353	44.72
541.55	44.68
541.748	44.78
541.945	44.71
542.143	44.71
542.34	44.66
542.537	44.64
542.735	44.9
542.932	45.25
543.129	45.42
543.327	45.6
543.524	45.69
543.721	45.75
543.919	45.77
544.116	46.12
544.313	46.52
544.51	46.64
544.708	47.08
544.905	47.34
545.102	47.31
545.299	47.49
545.496	47.62
545.693	47.83
545.891	48.08
546.088	47.93
546.285	47.78
546.482	47.48
546.679	47.67
546.876	47.4
547.073	47.15
547.27	47.1
547.467	46.98
547.664	46.89
547.861	47
548.058	47.06
548.255	47.51
548.452	47.68
548.649	48.06
548.846	48.08
549.043	48.28
549.24	48.3
549.437	48.5
549.633	48.54
549.83	48.43
550.027	48.35
550.224	48.26
550.421	48.49
550.618	48.4
550.814	48.13
551.011	48.15
551.208	47.97
551.405	47.85
551.601	47.59
551.798	47.78
551.995	47.88
552.191	47.92
552.388	47.76
552.585	47.19
552.781	47.12
552.978	47.6
553.175	47.52
553.371	47.5
553.568	47.6
553.764	47.79
553.961	47.75
554.157	47.68
554.354	47.57
554.55	47.96
554.747	47.78
554.943	47.83
555.14	47.37
555.336	47.23
555.533	47.29
555.729	47.65
555.926	47.75
556.122	47.72
556.318	47.98
556.515	47.94
556.711	47.69
556.907	47.83
557.104	48.1
557.3	48.47
557.496	48.55
557.693	48.47
557.889	48.38
558.085	48.17
558.281	48.12
558.478	48.41
558.674	48.39
558.87	48.27
559.066	48.58
559.262	48.51
559.459	48.37
559.655	48.25
559.851	48.25
560.047	48.03
560.243	48.31
560.439	48.13
560.635	47.66
560.831	47.79
561.027	47.66
561.223	47.51
561.419	47.55
561.615	47.83
561.811	47.74
562.007	47.88
562.203	47.89
562.399	47.74
562.595	47.81
562.791	47.76
562.987	47.78
563.183	48.14
563.379	48
563.575	47.84
563.771	47.54
563.966	48.02
564.162	48.14
564.358	48.28
564.554	48.37
564.75	48.58
564.945	48.45
565.141	48.33
565.337	48.09
565.533	48.17
565.728	47.98
565.924	47.89
566.12	47.78
566.315	47.44
566.511	47.29
566.707	47.29
566.902	47.23
567.098	47.33
567.293	47.6
567.489	47.57
567.684	47.82
567.88	48.09
568.076	48.22
568.271	48.08
568.467	48.1
568.662	48.13
568.858	47.97
569.053	48.23
569.248	48.42
569.444	48.12
569.639	48.39
569.835	48.27
570.03	48.47
570.225	48.19
570.421	48.29
570.616	48.41
570.812	48.44
571.007	48.22
571.202	47.97
571.397	47.82
571.593	47.72
571.788	47.6
571.983	47.57
572.178	47.55
572.374	48.04
572.569	47.83
572.764	48.03
572.959	47.83
573.154	47.86
573.35	47.7
573.545	48.01
573.74	48.15
573.935	48.56
574.13	48.41
574.325	48.07
574.52	47.71
574.715	47.83
574.91	47.55
575.105	47.96
575.3	48.5
575.495	48.66
575.69	48.39
575.885	48.81
576.08	48.68
576.275	48.76
576.47	48.88
576.665	49.23
576.86	49.49
577.055	49.89
577.25	49.81
577.444	49.57
577.639	49.92
577.834	50.09
578.029	50.04
578.224	50.05
578.418	50.46
578.613	50.98
578.808	50.97
579.003	50.88
579.197	50.75
579.392	50.67
579.587	51.01
579.781	51.02
579.976	51.38
580.171	51.46
580.365	51.35
580.56	51.43
580.755	51.72
580.949	51.95
581.144	52.28
581.338	52.09
581.533	52.84
581.727	52.72
581.922	52.47
582.116	52.24
582.311	51.96
582.505	52.1
582.7	52.15
582.894	51.48
583.089	51.18
583.283	50.97
583.478	51.23
583.672	50.92
583.866	51.08
584.061	51.27
584.255	50.96
584.449	51.15
584.644	51.23
584.838	51.23
585.032	51.62
585.226	51.76
585.421	51.6
585.615	51.64
585.809	51.56
586.003	51.32
586.198	51.33
586.392	51.63
586.586	51.57
586.78	51.59
586.974	51.63
587.168	51.44
587.363	51.3
587.557	51.67
587.751	51.9
587.945	51.98
588.139	51.85
588.333	51.94
588.527	52.08
588.721	51.87
588.915	51.43
589.109	51.37
589.303	51.48
589.497	51.32
589.691	51.07
589.885	50.55
590.079	50.76
590.273	50.85
590.466	50.67
590.66	50.76
590.854	51.16
591.048	51.46
591.242	51.51
591.436	51.27
591.629	51.81
591.823	52.01
592.017	52.21
592.211	52.17
592.404	52.14
592.598	52.28
592.792	51.93
592.986	51.97
593.179	51.88
593.373	51.47
593.567	51.58
593.76	51.2
593.954	51.16
594.147	51.21
594.341	50.86
594.535	50.9
594.728	50.7
594.922	50.6
595.115	50.09
595.309	50.02
595.502	50.25
595.696	50.18
595.889	50.43
596.083	50.4
596.276	50.62
596.47	50.51
596.663	50.53
596.856	50.87
597.05	50.89
597.243	51.03
597.437	51.32
597.63	51.25
597.823	51.28
598.017	51.01
598.21	50.79
598.403	50.59
598.596	50.67
598.79	50.79
598.983	50.74
599.176	50.84
599.369	51.24
599.563	51.02
599.756	51.31
599.949	51.69
600.142	51.76
600.335	51.81
600.528	52.01
600.722	51.84
600.915	52.07
601.108	51.87
601.301	52.21
601.494	51.82
601.687	51.92
601.88	51.19
602.073	50.27
602.266	50.51
602.459	50.37
602.652	49.98
602.845	50.15
603.038	49.64
603.231	49.24
603.424	49.14
603.617	49.29
603.809	49.32
604.002	49.66
604.195	50.22
604.388	50.3
604.581	50.76
604.774	51.15
604.966	51.28
605.159	51.55
605.352	52.36
605.545	52.49
605.737	52.84
605.93	52.67
606.123	52.84
606.316	53.08
606.508	53.01
606.701	52.85
606.894	52.59
607.086	52.84
607.279	53.23
607.471	53.01
607.664	53.1
607.857	52.94
608.049	53.48
608.242	53.81
608.434	54.63
608.627	55
608.819	55.64
609.012	56.51
609.204	57.04
609.397	57.47
609.589	58.34
609.782	59.17
609.974	60.04
610.166	60.44
610.359	61.39
610.551	61.75
610.743	62.35
610.936	63.03
611.128	63.02
611.32	63.24
611.513	63.12
611.705	62.87
611.897	62.5
612.09	61.62
612.282	61.75
612.474	61.05
612.666	60.31
612.858	60.21
613.051	59.6
613.243	59.5
613.435	59.46
613.627	59.52
613.819	59.44
614.011	59.13
614.203	59.79
614.395	59.24
614.588	59.25
614.78	59.04
614.972	58.45
615.164	58.3
615.356	58.28
615.548	57.89
615.74	57.24
615.932	56.99
616.124	57.19
616.315	56.88
616.507	56.93
616.699	56.26
616.891	56.01
617.083	56.13
617.275	56.39
617.467	56.4
617.659	56
617.85	55.82
618.042	55.88
618.234	55.55
618.426	55.83
618.618	55.81
618.809	55.85
619.001	55.84
619.193	55.29
619.384	54.37
619.576	54.49
619.768	54.34
619.959	54.71
620.151	54.06
620.343	54.26
620.534	54.25
620.726	54.23
620.917	54.71
621.109	54.7
621.301	55.28
621.492	55.54
621.684	55.12
621.875	55.73
622.067	55.72
622.258	56.41
622.45	56.05
622.641	56.08
622.832	56.21
623.024	56.14
623.215	56.44
623.407	56.06
623.598	56.11
623.789	56.12
623.981	55.48
624.172	55.24
624.363	54.67
624.555	54.56
624.746	54.19
624.937	53.96
625.129	53.8
625.32	53.92
625.511	53.99
625.702	53.96
625.893	54.1
626.085	54.39
626.276	54.6
626.467	54.34
626.658	54.45
626.849	54.6
627.04	54.77
627.231	55.01
627.422	55.02
627.614	55.48
627.805	55.32
627.996	55.05
628.187	54.58
628.378	54.45
628.569	55.11
628.76	55.41
628.951	55.3
629.142	55.12
629.332	54.91
629.523	54.91
629.714	54.65
629.905	55.26
630.096	55.53
630.287	56.11
630.478	56.41
630.669	56.7
630.859	56.59
631.05	56.52
631.241	56.24
631.432	56.11
631.623	55.91
631.813	55.96
632.004	55.56
632.195	55.35
632.385	55.44
632.576	55.31
632.767	54.9
632.957	54.81
633.148	54.75
633.339	55.27
633.529	55.39
633.72	54.61
633.91	54.37
634.101	54.41
634.292	54.08
634.482	54.11
634.673	54.49
634.863	54.43
635.054	54.45
635.244	54.45
635.435	54.09
635.625	54.14
635.815	54.53
636.006	54.6
636.196	54.44
636.387	54.76
636.577	54.62
636.767	54.1
636.958	54.63
637.148	54.7
637.338	54.24
637.529	55
637.719	55.16
637.909	55.57
638.099	55.7
638.29	56.01
638.48	56.17
638.67	56.28
638.86	56.35
639.05	56.09
639.241	55.94
639.431	56.5
639.621	56.18
639.811	56.19
640.001	56.09
640.191	55.82
640.381	55.77
640.571	55.6
640.761	55.42
640.951	55.36
641.141	54.63
641.331	54.76
641.521	55.03
641.711	54.7
641.901	54.41
642.091	54.45
642.281	54.41
642.471	54.08
642.661	54.36
642.851	54.85
643.041	54.79
643.231	55.98
643.42	56.01
643.61	55.58
643.8	55.95
643.99	55.85
644.18	56.08
644.369	56.82
644.559	57.29
644.749	57
644.939	56.79
645.128	56.82
645.318	56.74
645.508	57.09
645.697	57.17
645.887	56.68
646.076	57.04
646.266	56.64
646.456	55.83
646.645	56.39
646.835	56.61
647.024	56.61
647.214	56.55
647.403	56.51
647.593	56.19
647.782	56.37
647.972	56.8
648.161	56.58
648.351	56.2
648.54	56.57
648.73	56.03
648.919	56.07
649.108	56.26
649.298	56.48
649.487	56.1
649.677	56
649.866	55.13
650.055	55.14
650.244	55.45
650.434	55.96
650.623	56.05
650.812	55.73
651.002	55.78
651.191	54.96
651.38	55.37
651.569	55.87
651.758	56.36
651.947	57.06
652.137	57.41
652.326	57.08
652.515	57.63
652.704	57.78
652.893	57.89
653.082	57.5
653.271	58.4
653.46	58.47
653.649	57.78
653.838	57.69
654.027	57.94
654.216	57.91
654.405	57.77
654.594	57.24
654.783	57.2
654.972	57.51
655.161	58.15
655.35	58.26
655.539	57.33
655.728	57.61
655.916	57.42
656.105	57.2
656.294	56.72
656.483	56.92
656.672	56.61
656.86	56.85
657.049	56.73
657.238	56.41
657.427	56.1
657.615	56.6
657.804	55.71
657.993	55.17
658.181	55.17
658.37	55.32
658.559	55.5
658.747	55.49
658.936	55.16
659.125	55.56
659.313	55.65
659.502	56.06
659.69	56.25
659.879	57.12
660.067	57.65
660.256	57.71
660.444	57.92
660.633	58.18
660.821	58.72
661.01	58.35
661.198	57.16
661.387	57.15
661.575	56.89
661.763	55.84
661.952	56.01
662.14	56.66
662.328	57.09
662.517	57.47
662.705	56.9
662.893	56.91
663.082	57.7
663.27	58.72
663.458	59.09
663.646	58.46
663.834	58.82
664.023	58.48
664.211	58.38
664.399	58.56
664.587	58.66
664.775	59.1
664.963	58.81
665.152	58.73
665.34	58.86
665.528	58.27
665.716	58.77
665.904	59.62
666.092	60.01
666.28	60.1
666.468	59.73
666.656	59.45
666.844	59.34
667.032	59.6
667.22	59.31
667.408	59.75
667.596	60.55
667.784	60.02
667.971	60.14
668.159	59.38
668.347	58.9
668.535	59.03
668.723	58.01
668.911	57.93
669.098	57.69
669.286	58.56
669.474	57.38
669.662	57.76
669.849	58.38
670.037	58
670.225	58.85
670.413	58.37
670.6	58.63
670.788	59.53
670.976	59.79
671.163	60.17
671.351	59.27
671.538	59.94
671.726	58.83
671.913	58.94
672.101	59.62
672.289	58.88
672.476	59.26
672.664	59.05
672.851	59.68
673.039	59.69
673.226	59.7
673.413	59.78
673.601	60.01
673.788	59.87
673.976	59.85
674.163	59.75
674.35	60.19
674.538	60.52
674.725	60.72
674.912	60.03
675.1	59.78
675.287	60.49
675.474	60.43
675.662	60.55
675.849	61.01
676.036	60.33
676.223	60.4
676.411	59.87
676.598	59.78
676.785	59.4
676.972	59.3
677.159	59.4
677.346	58.73
677.533	59.65
677.721	59.24
677.908	59.44
678.095	60.23
678.282	59.76
678.469	60.58
678.656	60.79
678.843	60.49
679.03	60.24
679.217	60.32
679.404	60.71
679.591	60.09
679.778	59.88
679.964	58.92
680.151	58.47
680.338	58.31
680.525	57.83
680.712	57.3
680.899	57.48
681.086	57.45
681.272	57.48
681.459	57.03
681.646	57.14
681.833	57.19
682.02	57.59
682.206	58.38
682.393	58.67
682.58	58.59
682.766	59.64
682.953	59.68
683.14	59.58
683.326	60.12
683.513	60.89
683.7	61.24
683.886	61
684.073	61.53
684.259	61.48
684.446	61.75
684.632	61.79
684.819	61.28
685.005	60.95
685.192	61.39
685.378	61.3
685.565	60.7
685.751	60.59
685.938	61.45
686.124	61.99
686.31	61.39
686.497	60.6
686.683	61.06
686.87	60.96
687.056	61.07
687.242	61.29
687.429	61.2
687.615	60.96
687.801	60.57
687.987	60.29
688.174	59.48
688.36	59.68
688.546	59.93
688.732	59.75
688.918	59.93
689.105	60.06
689.291	59.23
689.477	59.65
689.663	59.67
689.849	60.18
690.035	60.38
690.221	60.96
690.407	61.06
690.593	61.39
690.779	61.64
690.965	61.71
691.151	62.82
691.337	63.86
691.523	63
691.709	63.22
691.895	63.97
692.081	63.64
692.267	63.09
692.453	63.01
692.639	63.26
692.825	63.97
693.011	63.68
693.196	62.7
693.382	62.04
693.568	62.48
693.754	63.04
693.94	62.06
694.125	63.74
694.311	64.1
694.497	63.8
694.682	63.5
694.868	63.03
695.054	63.12
695.239	64
695.425	65.31
695.611	65.09
695.796	65.1
695.982	65.37
696.168	64.09
696.353	64.18
696.539	63.73
696.724	63.24
696.91	62.76
697.095	62.78
697.281	62
697.466	61.1
697.652	60.57
697.837	59.67
698.023	59.17
698.208	58.74
698.393	58.57
698.579	58.35
698.764	58.98
698.949	58.66
699.135	58.3
699.32	58.46
699.505	58.37
699.691	58.77
699.876	59.36
700.061	59.24
700.246	59.68
700.432	60.01
700.617	60.48
700.802	60.61
700.987	61.28
701.172	62.98
701.358	63.45
701.543	63.88
701.728	64.04
701.913	64.47
702.098	65.87
702.283	66.52
702.468	67.39
702.653	67.68
702.838	67.1
703.023	67.08
703.208	66.17
703.393	65.98
703.578	66.34
703.763	66.28
703.948	66.04
704.133	66.59
704.318	65.71
704.503	64.44
704.688	65.52
704.873	66.64
705.057	67.77
705.242	68.39
705.427	68.35
705.612	68.93
705.797	69.04
705.981	70.05
706.166	69.23
706.351	70.02
706.536	71.13
706.72	71.06
706.905	71.21
707.09	70.27
707.274	69.32
707.459	69.78
707.644	69.13
707.828	69.73
708.013	68.84
708.197	68
708.382	68.24
708.567	67.49
708.751	66.05
708.936	66.09
709.12	65.94
709.305	66.48
709.489	65.95
709.673	65.74
709.858	65.37
710.042	65.3
710.227	65.6
710.411	65.6
710.596	65.97
710.78	67.05
710.964	66.3
711.149	67.64
711.333	67.2
711.517	67.79
711.702	68.39
711.886	68.19
712.07	68.39
712.254	68.33
712.438	67.6
712.623	67.56
712.807	66.47
712.991	66.6
713.175	65.54
713.359	65.54
713.544	65.41
713.728	64.38
713.912	64.69
714.096	63.76
714.28	63.63
714.464	62.83
714.648	61.58
714.832	62.68
715.016	62.58
715.2	62.36
715.384	62.83
715.568	62.04
715.752	61.57
715.936	61
716.12	61.57
716.304	62.59
716.488	63
716.671	64.14
716.855	63.86
717.039	63.32
717.223	64.04
717.407	63.16
717.59	63.88
717.774	65.18
717.958	65.92
718.142	66.4
718.325	66.9
718.509	68.89
718.693	68.81
718.877	69.06
719.06	69.45
719.244	68.9
719.428	70.02
719.611	70.54
719.795	71.47
719.978	71.09
720.162	70.64
720.345	70.32
720.529	70.55
720.713	70
720.896	69.92
721.08	71
721.263	70.73
721.446	70.5
721.63	71.14
721.813	69.52
721.997	71.05
722.18	71.53
722.364	70.41
722.547	69.06
722.73	69.73
722.914	69.74
723.097	69.33
723.28	70.3
723.464	70.36
723.647	70.36
723.83	70.28
724.013	70.21
724.197	70.84
724.38	70.84
724.563	70.53
724.746	70.18
724.929	70.12
725.112	71.27
725.296	70.77
725.479	69.89
725.662	68.5
725.845	70.74
726.028	69.36
726.211	68.51
726.394	68.82
726.577	68.81
726.76	69.03
726.943	68.87
727.126	68.61
727.309	68.09
727.492	68.14
727.675	68.18
727.858	67.2
728.041	67.26
728.224	68.57
728.407	69.31
728.589	69.72
728.772	70.17
728.955	71.4
729.138	70.45
729.321	70.04
729.503	71.06
729.686	71.58
729.869	71.4
730.052	72.01
730.234	70.49
730.417	69.16
730.6	68.83
730.782	67.91
730.965	66.58
731.148	66.65
731.33	67.79
731.513	67.19
731.695	66.68
731.878	65.79
732.061	65.45
732.243	65.93
732.426	66.21
732.608	67.27
732.791	67.98
732.973	68.38
733.156	68.76
733.338	68.17
733.52	68.31
733.703	68.89
733.885	70.35
734.068	69.97
734.25	69.33
734.432	68.64
734.615	67.03
734.797	68.11
734.979	68.18
735.162	67.64
735.344	68.46
735.526	68.59
735.708	68.66
735.891	68.82
736.073	69.25
736.255	70
736.437	71.47
736.619	72.64
736.802	72.87
736.984	73.26
737.166	74.39
737.348	73.69
737.53	74.09
737.712	73.2
737.894	73.2
738.076	73.57
738.258	74.81
738.44	74.6
738.622	74.26
738.804	72.38
738.986	71.96
739.168	71.54
739.35	73.59
739.532	72.66
739.714	73.59
739.896	72.22
740.078	72.75
740.259	71.18
740.441	71.85
740.623	72.37
740.805	73.22
740.987	74.59
741.168	73.5
741.35	72.84
741.532	73.74
741.714	72.4
741.895	73.3
742.077	74.33
742.259	74.85
742.44	76.2
742.622	76.96
742.804	77.62
742.985	76.14
743.167	76.77
743.348	77.22
743.53	77.46
743.711	79.62
743.893	82.19
744.075	81.16
744.256	80.25
744.438	78.27
744.619	78.82
744.8	77.65
744.982	79.81
745.163	80.83
745.345	79.81
745.526	79.89
745.707	80.83
745.889	78.66
746.07	78.33
746.252	81.2
746.433	82.17
746.614	82.31
746.795	82.28
746.977	81.66
747.158	80.15
747.339	80.79
747.52	80.97
747.702	79.03
747.883	80.94
748.064	81.2
748.245	80.16
748.426	78.64
748.607	77.92
748.788	77.26
748.97	77.34
749.151	80.61
749.332	80.61
749.513	79.87
749.694	80.12
749.875	78.43
750.056	79.49
750.237	78.31
750.418	79.3
750.599	77.9
750.78	80.27
750.96	79.34
751.141	78.39
751.322	78.85
751.503	79.47
751.684	82.61
751.865	83.39
752.046	81.87
752.226	84.12
752.407	84.54
752.588	84.82
752.769	83.92
752.949	84.59
753.13	81.58
753.311	80.38
753.492	80.11
753.672	78.92
753.853	77.63
754.034	78.66
754.214	77.27
754.395	77.21
754.575	76.61
754.756	77.08
754.937	76.12
755.117	78.53
755.298	79.29
755.478	81.16
755.659	79.89
755.839	80.16
756.02	78.99
756.2	78.63
756.381	79.25
756.561	81.08
756.741	80.64
756.922	80.89
757.102	81.93
757.283	81.72
757.463	82.67
757.643	83.61
757.823	85.72
758.004	87.43
758.184	87.13
758.364	86.42
758.545	85.06
758.725	85.27
758.905	86.07
759.085	85.74
759.265	85.52
759.446	83.1
759.626	82.55
759.806	80.55
759.986	80.39
760.166	80.6
760.346	79.77
760.526	81.1
760.706	80.64
760.886	80.05
761.066	78.75
761.246	78.01
761.426	76.4
761.606	75.26
761.786	74.49
761.966	72.59
762.146	71.26
762.326	72
762.506	71.34
762.686	71.67
762.866	70.41
763.046	68.98
763.225	68.27
763.405	68.73
763.585	68.7
763.765	69
763.945	69.8
764.124	70.86
764.304	70.53
764.484	69.88
764.664	68.48
764.843	70.9
765.023	72.01
765.203	74.15
765.382	74.93
765.562	75.06
765.741	76.15
765.921	76.07
766.101	76.7
766.28	76.84
766.46	78.49
766.639	80.16
766.819	78.97
766.998	80.17
767.178	81.01
767.357	81.46
767.537	85.19
767.716	86.1
767.896	87.05
768.075	87.6
768.254	88.85
768.434	88.46
768.613	90.06
768.792	89.85
768.972	90.97
769.151	89.86
769.33	90.03
769.51	87.88
769.689	87.64
769.868	88.96
770.047	90.38
770.226	88.25
770.406	89.64
770.585	89.58
770.764	90.81
770.943	92.35
771.122	91.73
771.301	91.19
771.48	91.09
771.66	90.86
771.839	88.3
772.018	86.26
772.197	89.46
772.376	88.84
772.555	87.33
772.734	88.38
772.913	84.47
773.092	85.83
773.271	86.69
773.449	86.57
773.628	88.24
773.807	88.77
773.986	91.21
774.165	89.57
774.344	89.73
774.523	92.24
774.701	92.1
774.88	96.24
775.059	94.07
775.238	93.18
775.417	94.88
775.595	92.45
775.774	93
775.953	92.69
776.131	92.68
776.31	94.03
776.489	93.25
776.667	94.32
776.846	92.17
777.025	92.37
777.203	94.21
777.382	95.87
777.56	97.68
777.739	95.56
777.917	91.42
778.096	89.76
778.274	85.59
778.453	82.32
778.631	79.68
778.81	81.24
778.988	82.89
779.166	83.72
779.345	80.52
779.523	82.68
779.702	88.62
779.88	90.27
780.058	91.01
780.237	93.36
780.415	97.73
780.593	101.36
780.771	100.46
780.95	101.12
781.128	99.88
781.306	103.32
781.484	100.61
781.662	95.65
781.841	96.89
782.019	99.77
782.197	101.46
782.375	101.43
782.553	100.48
782.731	101.7
782.909	101.14
783.087	102.08
783.265	99.76
783.443	99.07
783.621	101.34
783.799	102.44
783.977	101.64
784.155	103.55
784.333	103.38
784.511	101.84
784.689	97.37
784.867	97.67
785.045	95.91
785.223	98.77
785.4	102.03
785.578	102.99
785.756	100.72
785.934	100.18
786.112	96.87
786.289	95.47
786.467	93.88
786.645	96.78
786.823	97.25
787	98.89
787.178	95.86
787.356	93.92
787.533	93.36
787.711	93.02
787.889	91.3
788.066	91.01
788.244	90.32
788.421	91.2
788.599	90.95
788.776	90.19
788.954	86.93
789.131	88.03
789.309	87.74
789.486	86.91
789.664	87.29
789.841	87.62
790.019	88.91
790.196	88.43
790.373	88.48
790.551	91.23
790.728	89.55
790.906	94.63
791.083	93.18
791.26	93.49
791.437	93.97
791.615	96.39
791.792	96.76
791.969	95.2
792.146	96.24
792.324	97.82
792.501	93.52
792.678	97.75
792.855	98.63
793.032	99.88
793.209	99.35
793.387	100.6
793.564	96.15
793.741	96.84
793.918	96.23
794.095	100.21
794.272	99.77
794.449	101.69
794.626	98.74
794.803	95.51
794.98	95.7
795.157	96.67
795.334	94.63
795.511	97.81
795.688	99.28
795.864	102.97
796.041	97.79
796.218	98.78
796.395	97.75
796.572	102.44
796.749	102.95
796.925	100.27
797.102	102.6
797.279	104.21
797.456	103.27
797.632	102.79
797.809	104.43
797.986	103.24
798.162	103.33
798.339	103.81
798.516	104.48
798.692	108.94
798.869	111.03
799.046	107.73
799.222	106.6
799.399	110.43
799.575	113.34
799.752	106.1
799.928	109.54
800.105	108.48
800.281	109.51
800.458	105.75
800.634	103.66
800.811	102.73
800.987	106.34
801.163	109.54
801.34	109.44
801.516	109.85
801.692	113.84
801.869	114.53
802.045	116.67
802.221	117.34
802.398	117.66
802.574	116.79
802.75	119
802.926	119.9
803.103	116.34
803.279	113.46
803.455	111.26
803.631	111.76
803.807	112.58
803.983	112.66
804.16	114.47
804.336	112.72
804.512	115.02
804.688	116.33
804.864	116.91
805.04	118.03
805.216	122.11
805.392	130.41
805.568	134.29
805.744	137.1
805.92	133.62
806.096	130.69
806.272	133.19
806.448	127.16
806.623	127.38
806.799	124.35
806.975	119.77
807.151	118.37
807.327	117.16
807.503	110.6
807.678	111.19
807.854	112.33
808.03	113.75
808.206	114.44
808.381	117.73
808.557	118.46
808.733	116.23
808.908	121.57
809.084	118.25
809.26	115.95
809.435	121.54
809.611	117.04
809.787	119.57
809.962	120.21
810.138	120.26
810.313	117.43
810.489	117.7
810.664	120.5
810.84	118.63
811.015	121.33
811.191	121.14
811.366	119.85
811.542	122.21
811.717	118
811.892	116.67
812.068	117.5
812.243	116.56
812.419	110.81
812.594	111.65
812.769	112.86
812.944	111.16
813.12	111.3
813.295	115.98
813.47	114.4
813.645	115.07
813.821	111.92
813.996	111.58
814.171	113.53
814.346	122.08
814.521	122.41
814.697	123.9
814.872	127.77
815.047	126.43
815.222	123.34
815.397	126.46
815.572	126.89
815.747	128.96
815.922	131.65
816.097	129.13
816.272	128.22
816.447	129.92
816.622	129.03
816.797	125.77
816.972	124.37
817.147	126.09
817.322	119.06
817.496	120.36
817.671	121.96
817.846	116.88
818.021	124.37
818.196	121.49
818.371	121.67
818.545	119.24
818.72	119.48
818.895	113.97
819.069	110.39
819.244	116.27
819.419	110.16
819.594	104.41
819.768	102.1
819.943	95.02
820.117	91.61
820.292	84.14
820.467	79.55
820.641	74.89
820.816	72.3
820.99	68.14
821.165	65.69
821.339	64.88
821.514	63.03
821.688	60.43
821.863	58.76
822.037	57.52
822.212	57.59
822.386	57.67
822.56	57.81
822.735	58.57
822.909	59.74
823.084	59.74
823.258	59.84
823.432	61.05
823.606	62.43
823.781	63.93
823.955	65.21
824.129	66.19
824.303	67.22
824.478	68.6
824.652	69.61
824.826	70.27
825	70.92
825.174	70.58
825.348	70.04
825.523	71.1
825.697	72.7
825.871	73.36
826.045	73.09
826.219	73.72
826.393	73.39
826.567	73.25
826.741	72.13
826.915	71.93
827.089	72.51
827.263	74.51
827.437	74.02
827.611	71.45
827.784	73.35
827.958	74.94
828.132	76.09
828.306	77.52
828.48	78.58
828.654	83.45
828.827	85.63
829.001	87.82
829.175	87.72
829.349	91.36
829.522	97.05
829.696	95.74
829.87	98.17
830.044	98.37
830.217	100.97
830.391	104.1
830.565	104.32
830.738	105.02
830.912	105.32
831.085	107.5
831.259	109.13
831.432	104.46
831.606	105.03
831.779	99.71
831.953	101.84
832.126	99.96
832.3	94.57
832.473	89.73
832.647	88.64
832.82	86.93
832.994	85.52
833.167	83.03
833.34	82.82
833.514	81.88
833.687	84.18
833.86	80
834.034	79.4
834.207	81.54
834.38	84.02
834.553	84.82
834.727	86.55
834.9	87.23
835.073	88.54
835.246	89.18
835.419	91.35
835.593	92.44
835.766	94.7
835.939	96
836.112	98.35
836.285	99.24
836.458	102.02
836.631	105.76
836.804	110.44
836.977	116.04
837.15	122.97
837.323	130.21
837.496	135.29
837.669	146.27
837.842	145.79
838.015	151.2
838.188	142.68
838.361	147.06
838.533	138.82
838.706	134.8
838.879	135.48
839.052	134.43
839.225	127.74
839.398	121.94
839.57	123.83
839.743	122.5
839.916	121.25
840.088	123.06
840.261	123.33
840.434	129.12
840.607	134.34
840.779	130.71
840.952	127.78
841.124	128.54
841.297	132.99
841.47	128.55
841.642	136.21
841.815	140.03
841.987	149.78
842.16	149.45
842.332	152.92
842.505	152.58
842.677	156.53
842.85	166.22
843.022	175.69
843.194	180.2
843.367	187.81
843.539	179.33
843.712	174.19
843.884	170.52
844.056	167.62
844.229	172.76
844.401	178.92
844.573	184.17
844.745	180.94
844.918	174.61
845.09	193.29
845.262	195.89
845.434	197.13
845.606	197.04
845.779	204.41
845.951	212.09
846.123	217.78
846.295	213.86
846.467	221.19
846.639	221.49
846.811	226.35
846.983	223.55
847.155	231.83
847.327	272.05
847.499	290.12
847.671	289.49
847.843	241.84
848.015	220
848.187	211.35
848.359	220.28
848.531	222.38
848.703	227.89
848.875	204.4
849.047	196.77
849.218	178.35
849.39	178.77
849.562	170.98
849.734	191.55
849.905	201.05
850.077	205.77
850.249	190.14
850.421	198.37
850.592	188.67
850.764	191.48
850.936	187.73
851.107	198.17
851.279	190.74
851.451	192.55
851.622	190.43
851.794	183.53
851.965	194.13
852.137	190.52
852.308	181.36
852.48	190.37
852.651	186.21
852.823	189.4
852.994	187.93
853.166	195.98
853.337	203.75
853.509	204.2
853.68	210.5
853.851	202.82
854.023	205.34
854.194	217.23
854.365	208.65
854.537	224.44
854.708	222.27
854.879	218.38
855.05	213.02
855.222	237.68
855.393	229.05
855.564	213.75
855.735	214.65
855.906	238.44
856.078	221.07
856.249	237.56
856.42	224.94
856.591	226.69
856.762	234.48
856.933	244.86
857.104	207.69
857.275	218.94
857.446	215.9
857.617	215.96
857.788	208.05
857.959	210.02
858.13	213.46
858.301	224.31
858.472	224.09
858.643	218.11
858.814	212.6
858.985	229.99
859.155	226.9
859.326	243.9
859.497	256.46
859.668	230.75
859.839	230.78
860.009	216.53
860.18	187.43
860.351	191.82
860.522	193.23
860.692	190.28
860.863	186.12
861.034	183.33
861.204	193.03
861.375	192.84
861.546	203.18
861.716	217.72
861.887	237.83
862.057	265.98
862.228	277.59
862.398	288.74
862.569	311.85
862.739	338.4
862.91	381.75
863.08	389.48
863.251	371.01
863.421	351.94
863.592	327
863.762	284.07
863.932	283.56
864.103	283.52
864.273	276.12
864.443	261.96
864.614	267.74
864.784	275.14
864.954	243.23
865.125	241.16
865.295	233.31
865.465	233.65
865.635	254.31
865.805	240.51
865.976	241.4
866.146	226.08
866.316	233.8
866.486	210.65
866.656	197.67
866.826	201.57
866.996	202.08
867.166	194.56
867.336	199.17
867.506	185.27
867.676	200.14
867.846	203.64
868.016	218.17
868.186	214.24
868.356	215.03
868.526	239.55
868.696	251.54
868.866	258.98
869.036	263.05
869.206	268.89
869.376	282.65
869.545	269.13
869.715	250.87
869.885	248.28
870.055	227.62
870.224	229.4
870.394	210.16
870.564	216.29
870.734	214.92
870.903	223.67
871.073	220.46
871.243	221.29
871.412	232.75
871.582	237.58
871.751	244.66
871.921	245.95
872.091	272.3
872.26	260.71
872.43	251.78
872.599	256.66
872.769	262.23
872.938	265.69
873.108	254.02
873.277	236.92
873.446	237.02
873.616	233.92
873.785	244.69
873.955	240.56
874.124	269.99
874.293	281.14
874.463	283
874.632	283.91
874.801	275.77
874.971	285.88
875.14	295.45
875.309	282.36
875.478	282.74
875.647	296.52
875.817	317.87
875.986	294.8
876.155	306.71
876.324	273.71
876.493	276.23
876.662	290.96
876.831	300
877	309.23
877.17	319.41
877.339	311.75
877.508	293.97
877.677	294.54
877.846	316.45
878.015	300.61
878.184	303.77
878.352	272.45
878.521	245.19
878.69	232.1
878.859	222.52
879.028	215.94
879.197	216.4
879.366	200.11
879.534	181.9
879.703	159.93
879.872	147.91
880.041	136.06
880.21	136.4
880.378	129.13
880.547	127.96
880.716	122.77
880.884	110.23
881.053	98.92
881.222	98.12
881.39	94.36
881.559	90.32
881.727	85.7
881.896	86.08
882.065	85.29
882.233	85.74
882.402	82.84
882.57	83.6
882.739	83.08
882.907	84.26
883.076	85.35
883.244	83.95
883.412	86.23
883.581	89.28
883.749	92.21
883.918	95.1
884.086	97.77
884.254	102.15
884.423	102.13
884.591	108.85
884.759	108.88
884.927	114.14
885.096	121.23
885.264	133.2
885.432	138.87
885.6	144.35
885.769	150.63
885.937	149.98
886.105	156
886.273	166.49
886.441	169.62
886.609	182.53
886.777	187.78
886.945	187.19
887.113	177.15
887.281	181.73
887.449	186.6
887.617	175.4
887.785	181.86
887.953	177.93
888.121	181.38
888.289	181.44
888.457	188.43
888.625	190.51
888.793	183.48
888.961	184.89
889.129	173.8
889.296	178.53
889.464	184.24
889.632	182.58
889.8	186.4
889.967	174.35
890.135	173.88
