Data from JASIL_3174_Reflection_2.txt Node
Date: Thu Nov 12 23:04:20 EST 2015
User: Geneva
Spectrometer: USB4E03002
Autoset integration time: false
Trigger mode: 4
Integration Time (sec): 1.000000E-1
Scans to average: 10
Electric dark correction enabled: true
Nonlinearity correction enabled: false
Boxcar width: 5
Stray light correction enabled: false
XAxis mode: Wavelengths
Stop averaging: false
Number of Pixels in Spectrum: 3648
>>>>>Begin Spectral Data<<<<<
177.575	46.4
177.794	45.54
178.014	13.59
178.233	-488.87
178.452	-77.01
178.672	-174.9
178.891	-35.25
179.11	10.42
179.33	65.83
179.549	-14.56
179.768	-25.39
179.987	-26.89
180.207	-126.23
180.426	-425.36
180.645	410.66
180.864	345.94
181.084	181.72
181.303	825.93
181.522	198.19
181.741	104.56
181.96	246.87
182.179	166.53
182.398	342.96
182.618	-15.11
182.837	42.74
183.056	-17.66
183.275	33.16
183.494	14.54
183.713	55.89
183.932	66.03
184.151	72.12
184.37	88.67
184.589	68.15
184.808	79.54
185.027	73.28
185.246	85.09
185.465	87.38
185.684	92.24
185.903	100.6
186.122	69
186.341	86.29
186.56	79.96
186.779	122.03
186.998	206.11
187.216	157.99
187.435	144.22
187.654	134.56
187.873	173.14
188.092	103.25
188.311	131.2
188.53	693.67
188.748	-1687.83
188.967	-18.77
189.186	-10.58
189.405	-110.98
189.623	-94.98
189.842	-46.13
190.061	-18.63
190.28	-7.76
190.498	14.89
190.717	-4.92
190.936	-19.29
191.154	-1.77
191.373	-253.05
191.592	-82.41
191.81	-58.39
192.029	-778.58
192.248	-250.87
192.466	-212.58
192.685	-306.31
192.904	-479.1
193.122	-472.39
193.341	-334.43
193.559	-618.09
193.778	-198.01
193.996	-269.16
194.215	-114.02
194.433	-77.23
194.652	-278.46
194.87	-175.94
195.089	-246.43
195.307	-128.75
195.526	-308.7
195.744	347.73
195.963	179.44
196.181	83.27
196.399	88.87
196.618	61.52
196.836	111.48
197.055	122.87
197.273	117.84
197.491	157.8
197.71	149.01
197.928	162.63
198.146	248.45
198.365	527.19
198.583	441.76
198.801	667.22
199.019	-250.17
199.238	-18.36
199.456	-102.26
199.674	-43.6
199.892	-99.52
200.111	6.65
200.329	27.75
200.547	46.85
200.765	59.54
200.983	27.68
201.202	28.04
201.42	64.16
201.638	43.26
201.856	41.35
202.074	36.37
202.292	70.64
202.51	15.74
202.728	14.42
202.946	4.37
203.165	8.72
203.383	26.1
203.601	44.81
203.819	4.85
204.037	-29.03
204.255	-17.83
204.473	-39.17
204.691	-59.89
204.909	-14.6
205.127	-0.76
205.345	-15.24
205.562	-19.05
205.78	-35.08
205.998	-51.12
206.216	-83.49
206.434	-167.82
206.652	-296.91
206.87	-242.79
207.088	-8321.09
207.306	-1051.28
207.523	1022.02
207.741	690.57
207.959	-2122.27
208.177	-296.64
208.395	-393.37
208.612	-128.73
208.83	-12.61
209.048	20.23
209.266	37.15
209.483	7.19
209.701	11.27
209.919	-6.06
210.136	-4.47
210.354	5.15
210.572	-19.36
210.79	6.45
211.007	18.86
211.225	-9.33
211.442	-1.1
211.66	-3.72
211.878	39.29
212.095	181.23
212.313	142.87
212.53	154.32
212.748	141.4
212.966	139.6
213.183	150.85
213.401	147.17
213.618	164.74
213.836	169.03
214.053	167.61
214.271	167.25
214.488	-5776.62
214.705	-1196.86
214.923	-999.76
215.14	-507.39
215.358	-381.12
215.575	-109.93
215.793	-107.22
216.01	38.36
216.227	-509.09
216.445	-26.45
216.662	-1.66
216.879	74.89
217.097	36.89
217.314	38.46
217.531	17.06
217.749	-18.54
217.966	-44.12
218.183	-50.08
218.4	-76.97
218.618	-50.45
218.835	-28.21
219.052	-33.59
219.269	-15.61
219.487	-27.6
219.704	-18.52
219.921	4.05
220.138	30.12
220.355	20.76
220.572	-39.8
220.79	5.03
221.007	1.65
221.224	-1.35
221.441	-14.78
221.658	-17
221.875	23.46
222.092	24.79
222.309	19.84
222.526	2.32
222.743	16.11
222.96	33.25
223.177	13.99
223.394	-17.5
223.611	-7.57
223.828	-28.28
224.045	-20.54
224.262	-59.31
224.479	-70.58
224.696	-48.22
224.913	-30.59
225.13	-51.02
225.347	-18.24
225.564	10.72
225.781	24.03
225.997	11.95
226.214	17.83
226.431	15.68
226.648	16.62
226.865	14.54
227.082	11.92
227.298	10.93
227.515	10.08
227.732	12.5
227.949	0.4
228.165	6.09
228.382	15.96
228.599	23.31
228.816	15.12
229.032	12.55
229.249	13.95
229.466	17.84
229.682	11.52
229.899	9.01
230.116	-0.24
230.332	-5.39
230.549	-5.53
230.765	-1.09
230.982	-15.43
231.199	3.54
231.415	6.96
231.632	9.81
231.848	4.13
232.065	17.85
232.281	24.37
232.498	24.31
232.714	36.11
232.931	22.89
233.147	15.16
233.364	28.84
233.58	17
233.797	14.55
234.013	6.45
234.23	2.68
234.446	-15.46
234.662	-25.38
234.879	-19.59
235.095	-19.45
235.312	-17.02
235.528	-0.59
235.744	-4.81
235.961	-7.54
236.177	-18.08
236.393	-26.43
236.61	-9.11
236.826	5.81
237.042	5.89
237.258	-0.81
237.475	-6.87
237.691	-1.78
237.907	-5.53
238.123	-7.16
238.339	8.5
238.556	9.24
238.772	13.24
238.988	19.41
239.204	23.06
239.42	28.2
239.636	36.67
239.853	32.87
240.069	24.45
240.285	20.26
240.501	20.53
240.717	19.57
240.933	19.6
241.149	20.13
241.365	15.32
241.581	12.92
241.797	13.03
242.013	8.73
242.229	8.19
242.445	13.36
242.661	17.73
242.877	18.87
243.093	18.61
243.309	19.64
243.525	24.94
243.741	24.96
243.957	20.57
244.173	19.17
244.388	16.66
244.604	22.6
244.82	16.4
245.036	9.92
245.252	6.9
245.468	8.6
245.683	8.78
245.899	6.05
246.115	4.28
246.331	6
246.547	4.72
246.762	1.93
246.978	-1.63
247.194	-1.11
247.409	-1.18
247.625	0.1
247.841	-3.18
248.057	-4.25
248.272	-6.17
248.488	-2.84
248.703	1.45
248.919	-2.4
249.135	1.14
249.35	2.61
249.566	5.79
249.782	3.95
249.997	2.42
250.213	6.11
250.428	-0.41
250.644	-5.51
250.859	-8.73
251.075	-16.33
251.29	-13.11
251.506	-13.17
251.721	-14.58
251.937	-15.95
252.152	-10.46
252.368	-12.29
252.583	-22.06
252.798	-16.94
253.014	-12.42
253.229	-17.04
253.445	-15.43
253.66	-6.29
253.875	-9.59
254.091	-7.47
254.306	-4.06
254.521	-13.3
254.737	-11.37
254.952	-8
255.167	-4.43
255.383	0.61
255.598	0.45
255.813	-2.02
256.028	-8.44
256.244	-1.99
256.459	-4.12
256.674	-6.93
256.889	-4.16
257.104	1.67
257.32	4.27
257.535	6.57
257.75	-3.57
257.965	-0.1
258.18	-0.67
258.395	0.2
258.61	0.61
258.826	2.63
259.041	1.87
259.256	1.96
259.471	-0.32
259.686	-2.37
259.901	-2.6
260.116	1.09
260.331	0.79
260.546	4.75
260.761	5.98
260.976	6.54
261.191	6.55
261.406	10.26
261.621	5.86
261.836	8.69
262.05	13.88
262.265	10.92
262.48	16.67
262.695	19.24
262.91	17.22
263.125	17.48
263.34	14.92
263.555	14.39
263.769	4.46
263.984	9.18
264.199	7.14
264.414	7.54
264.629	4.41
264.843	-1.93
265.058	-8.89
265.273	-9.97
265.488	-15.24
265.702	-11.68
265.917	-9.75
266.132	-7.62
266.346	-4.46
266.561	-6.64
266.776	-7.68
266.99	-5.17
267.205	-0.81
267.42	0.27
267.634	0.16
267.849	1.97
268.063	1.47
268.278	-4.79
268.492	-8.23
268.707	-5.31
268.922	-3.59
269.136	-3.6
269.351	2.08
269.565	-0.37
269.78	0.67
269.994	1.46
270.209	3.34
270.423	4.07
270.637	9.34
270.852	12.42
271.066	10.92
271.281	8.63
271.495	9.3
271.709	3.09
271.924	3.9
272.138	5.11
272.353	3.65
272.567	1.74
272.781	-0.94
272.996	-3.01
273.21	-0.37
273.424	0.8
273.638	5.41
273.853	5.13
274.067	7.71
274.281	8.68
274.495	8.02
274.71	10.24
274.924	12.47
275.138	13.87
275.352	10.77
275.566	8.07
275.781	3.27
275.995	1.12
276.209	-5.25
276.423	-6.63
276.637	-8.14
276.851	-7.56
277.065	-12.76
277.279	-15.7
277.493	-14.77
277.707	-5.91
277.921	-4.94
278.135	-4.59
278.349	1.12
278.563	3.12
278.777	3.19
278.991	2.4
279.205	0.11
279.419	4.64
279.633	2.11
279.847	2.08
280.061	0.9
280.275	2.64
280.489	1.61
280.703	-7.78
280.917	-1.42
281.131	0.76
281.344	-1.59
281.558	-0.23
281.772	-0.96
281.986	-0.07
282.2	1.09
282.414	-1.7
282.627	-3.43
282.841	-1.41
283.055	4.38
283.269	2.13
283.482	0.97
283.696	0.44
283.91	1.64
284.123	-3.13
284.337	-0.16
284.551	-0.5
284.764	2.8
284.978	3.56
285.192	4.59
285.405	3.6
285.619	3.6
285.833	5.45
286.046	9.41
286.26	11.5
286.473	14.77
286.687	15.12
286.9	17.63
287.114	15.47
287.327	14.65
287.541	13.44
287.754	13.77
287.968	8.95
288.181	7.31
288.395	2.64
288.608	1.37
288.822	-0.52
289.035	-0.99
289.248	-3.44
289.462	-1.95
289.675	-0.13
289.889	0.65
290.102	1.53
290.315	5.57
290.529	5.08
290.742	6.59
290.955	5.16
291.169	7.19
291.382	6.66
291.595	6.86
291.808	7.31
292.022	6.67
292.235	6.68
292.448	5.69
292.661	6.13
292.875	4.08
293.088	3.96
293.301	2.05
293.514	-0.88
293.727	-1.82
293.94	-4.05
294.153	-4.92
294.367	-7.45
294.58	-6.32
294.793	-7.12
295.006	-10.3
295.219	-6.83
295.432	-5.13
295.645	-3.13
295.858	-1.44
296.071	0.25
296.284	2.12
296.497	3.76
296.71	3.67
296.923	3.2
297.136	3.77
297.349	3.61
297.562	4.18
297.775	3.28
297.988	2.58
298.201	3.38
298.414	2.46
298.626	2.54
298.839	-0.81
299.052	2.79
299.265	1.8
299.478	2.91
299.691	2.42
299.903	3.79
300.116	4.83
300.329	6.84
300.542	5.96
300.755	4.48
300.967	4.13
301.18	5.13
301.393	3.09
301.605	5.5
301.818	3.22
302.031	5.01
302.243	0.35
302.456	1.91
302.669	-1.89
302.881	-6.22
303.094	-4.8
303.307	-3.84
303.519	-3.51
303.732	-4.5
303.944	-4.54
304.157	-6.84
304.37	-4.49
304.582	-4.02
304.795	-6.2
305.007	-4.82
305.22	2.14
305.432	2.6
305.645	2.22
305.857	4.75
306.069	7.42
306.282	6.71
306.494	10.5
306.707	10.24
306.919	10.65
307.132	9.48
307.344	9.24
307.556	7.22
307.769	3.66
307.981	4
308.193	-0.26
308.406	-1.01
308.618	-1.77
308.83	-1.83
309.043	0.43
309.255	1.36
309.467	-0.67
309.679	1.7
309.892	2.9
310.104	5.58
310.316	3.12
310.528	5.57
310.74	4.62
310.953	3.95
311.165	3.16
311.377	1.46
311.589	1.82
311.801	3.05
312.013	1.16
312.225	1.05
312.437	0.59
312.649	0.75
312.862	1.28
313.074	-0.21
313.286	4.45
313.498	6.86
313.71	4.09
313.922	1.25
314.134	3.52
314.346	3.97
314.558	2.87
314.77	2.44
314.982	3.98
315.193	3.02
315.405	1.41
315.617	-1.18
315.829	-7.51
316.041	-7.01
316.253	-2
316.465	-4.26
316.677	-2.94
316.888	-4.54
317.1	-0.79
317.312	-2.73
317.524	-1.87
317.736	-1.07
317.947	-1.75
318.159	3.48
318.371	6.79
318.583	6.82
318.794	10.35
319.006	10.03
319.218	11.78
319.43	8.92
319.641	13.44
319.853	14.78
320.064	18.15
320.276	17.33
320.488	17.06
320.699	13.8
320.911	13.59
321.123	9.8
321.334	4.68
321.546	4.37
321.757	6.79
321.969	5.89
322.18	4.37
322.392	2.84
322.603	1.14
322.815	0.1
323.026	-0.13
323.238	-1.67
323.449	0.41
323.661	-0.33
323.872	-0.28
324.083	-2.6
324.295	-2.68
324.506	-0.13
324.718	1.49
324.929	5.83
325.14	8.16
325.352	10.85
325.563	12.39
325.774	14.55
325.986	17.34
326.197	16.65
326.408	18.57
326.62	18.21
326.831	16.28
327.042	15.59
327.253	15.63
327.464	14.6
327.676	12.41
327.887	10.67
328.098	8.43
328.309	8.82
328.52	8.49
328.732	7.47
328.943	6.94
329.154	9.82
329.365	8.25
329.576	7.23
329.787	7.61
329.998	6.4
330.209	8.19
330.42	7.86
330.631	6.87
330.842	8.7
331.053	8.42
331.264	10.2
331.475	8.08
331.686	11.08
331.897	9.14
332.108	6.17
332.319	9.29
332.53	8.75
332.741	10.98
332.952	12.83
333.163	12.13
333.374	11.2
333.585	11.05
333.795	7.68
334.006	3.91
334.217	6.72
334.428	9.2
334.639	7.78
334.849	8.2
335.06	8.78
335.271	6.64
335.482	7.2
335.692	8.83
335.903	8.54
336.114	8.72
336.325	12.71
336.535	10.93
336.746	8.63
336.957	6.89
337.167	5.26
337.378	0.99
337.589	4.38
337.799	4.28
338.01	1.35
338.22	2.41
338.431	5.6
338.642	2.33
338.852	4.36
339.063	6.2
339.273	8.58
339.484	10.57
339.694	14.05
339.905	11.41
340.115	10.45
340.326	12.75
340.536	11.34
340.746	10.47
340.957	11.1
341.167	8.15
341.378	8.36
341.588	8.96
341.799	6.92
342.009	5.53
342.219	8.79
342.43	9.32
342.64	11.76
342.85	11.21
343.061	11.04
343.271	10.17
343.481	9.44
343.691	8.66
343.902	7.48
344.112	8.85
344.322	10.14
344.532	8.21
344.743	9.21
344.953	7.3
345.163	8.95
345.373	9.9
345.583	10.28
345.793	10.9
346.004	10.64
346.214	11.95
346.424	12.04
346.634	12.27
346.844	11.64
347.054	11.94
347.264	11.38
347.474	9.82
347.684	9.04
347.894	10.26
348.104	11.23
348.314	12.33
348.524	12.31
348.734	13.43
348.944	13.32
349.154	14.56
349.364	13.91
349.574	14.47
349.784	15.46
349.994	16.11
350.204	16.51
350.413	15.76
350.623	15.74
350.833	15.24
351.043	14.57
351.253	12.88
351.463	11.78
351.672	11.54
351.882	11.82
352.092	10.27
352.302	9.89
352.511	6.79
352.721	6.57
352.931	6.24
353.141	6.24
353.35	5.79
353.56	6.25
353.77	6.45
353.979	6.38
354.189	3.9
354.399	4.11
354.608	2.17
354.818	3.64
355.027	5.25
355.237	5.01
355.447	4.83
355.656	4.14
355.866	2.94
356.075	2.4
356.285	2.88
356.494	4.96
356.704	5.56
356.913	6.44
357.123	6.82
357.332	5.9
357.542	6.39
357.751	7.03
357.96	6.52
358.17	7.84
358.379	10.14
358.589	9.44
358.798	8.77
359.007	9.33
359.217	11.24
359.426	11.78
359.635	12.24
359.845	11.42
360.054	11.19
360.263	12.5
360.472	12.9
360.682	11.89
360.891	11.26
361.1	11.5
361.309	11.98
361.519	10.4
361.728	9.02
361.937	8.92
362.146	9.45
362.355	10.04
362.564	9.5
362.774	8.77
362.983	9.26
363.192	10.45
363.401	10.47
363.61	9.65
363.819	9.66
364.028	12.66
364.237	13.37
364.446	13.59
364.655	12.55
364.864	12.81
365.073	13.85
365.282	13.88
365.491	13.8
365.7	13.94
365.909	14.21
366.118	14.7
366.327	13.64
366.536	13.45
366.745	13.92
366.954	13.65
367.162	12.49
367.371	12.15
367.58	10.67
367.789	10.77
367.998	10.87
368.207	11.46
368.415	11.36
368.624	10.95
368.833	10.05
369.042	7.98
369.25	8.15
369.459	9.77
369.668	9.96
369.877	10.8
370.085	10.32
370.294	10.19
370.503	9.77
370.711	8.38
370.92	8.49
371.129	9.43
371.337	9.85
371.546	10.5
371.754	10.57
371.963	8.96
372.171	9.49
372.38	9.14
372.589	7.83
372.797	6.99
373.006	7.74
373.214	6.89
373.423	7.15
373.631	8.45
373.84	8.59
374.048	8.42
374.256	10.98
374.465	8.49
374.673	8.87
374.882	9.41
375.09	9.89
375.298	11.19
375.507	13.3
375.715	12.66
375.923	12.72
376.132	11.71
376.34	12.58
376.548	10.81
376.757	10.88
376.965	11.82
377.173	12.13
377.381	11.84
377.59	10.83
377.798	8.06
378.006	8.14
378.214	6.48
378.423	7.08
378.631	6.6
378.839	6.56
379.047	8.75
379.255	7.88
379.463	10.11
379.671	10.19
379.879	10.4
380.088	12.19
380.296	12.54
380.504	12.16
380.712	12.53
380.92	12.23
381.128	13.06
381.336	12.12
381.544	12.21
381.752	10.15
381.96	10.93
382.168	11.28
382.376	10.47
382.584	10.04
382.791	9.66
382.999	8.65
383.207	7.8
383.415	8.4
383.623	8.2
383.831	8
384.039	7.52
384.247	6.51
384.454	6.42
384.662	6.03
384.87	6.91
385.078	8.34
385.285	9.32
385.493	9.76
385.701	9.26
385.909	8.68
386.116	8.84
386.324	9
386.532	9.55
386.739	9.93
386.947	9.61
387.155	7.68
387.362	7.21
387.57	6.44
387.778	7
387.985	6.55
388.193	6.22
388.4	5.8
388.608	6.95
388.816	5.59
389.023	5.59
389.231	6.34
389.438	6.85
389.646	7.54
389.853	7.37
390.061	6.68
390.268	5.92
390.475	6.91
390.683	6.63
390.89	6.02
391.098	6.94
391.305	6.59
391.512	6.39
391.72	6.32
391.927	6.47
392.135	7.63
392.342	7.55
392.549	7.56
392.756	7.68
392.964	8.67
393.171	8.58
393.378	8.54
393.586	8.1
393.793	8.11
394	9.19
394.207	8.56
394.414	7.75
394.622	7.49
394.829	7.81
395.036	8.21
395.243	7.69
395.45	7.86
395.657	6.96
395.864	7.49
396.072	7.66
396.279	7.1
396.486	6.02
396.693	5.91
396.9	5.94
397.107	5.71
397.314	5.5
397.521	5.93
397.728	5.35
397.935	5.57
398.142	4.79
398.349	4.98
398.556	4.97
398.763	6.8
398.97	6.55
399.177	7
399.383	8.37
399.59	8.84
399.797	7.92
400.004	7.77
400.211	7.58
400.418	9.02
400.625	9.11
400.831	8.52
401.038	7.84
401.245	7.64
401.452	7.55
401.658	6.5
401.865	5.72
402.072	6.21
402.279	6.33
402.485	6.51
402.692	5.1
402.899	3.86
403.105	5.55
403.312	6.21
403.519	6.4
403.725	5.62
403.932	5.97
404.138	5.81
404.345	6.08
404.552	5.66
404.758	5.49
404.965	5.88
405.171	6.24
405.378	4.75
405.584	3.65
405.791	4.36
405.997	4.19
406.204	4.03
406.41	3.19
406.617	2.12
406.823	1.83
407.029	2.4
407.236	1.48
407.442	1.48
407.649	0.87
407.855	1.73
408.061	0.1
408.268	1.04
408.474	1.34
408.68	2.39
408.887	3.74
409.093	4.75
409.299	3.34
409.505	4.45
409.712	4.53
409.918	5.19
410.124	4.44
410.33	4.9
410.537	5.35
410.743	4.85
410.949	4.41
411.155	4.46
411.361	4.35
411.567	5.19
411.773	6.51
411.98	7.46
412.186	6.29
412.392	6.7
412.598	7.58
412.804	7.25
413.01	6.92
413.216	7.16
413.422	5.5
413.628	5.79
413.834	5.23
414.04	3.43
414.246	3.78
414.452	5.02
414.658	5.63
414.864	4.87
415.07	5.11
415.275	5.62
415.481	5.29
415.687	5.86
415.893	5.04
416.099	6.38
416.305	6.59
416.511	6.29
416.716	6.46
416.922	5.87
417.128	5.88
417.334	5.5
417.539	4.92
417.745	5.73
417.951	6.37
418.157	6.84
418.362	6.5
418.568	6.44
418.774	5.68
418.979	5.18
419.185	5.26
419.391	6.08
419.596	5.98
419.802	6.87
420.008	6.35
420.213	6.14
420.419	6.27
420.624	6.46
420.83	7.08
421.035	7.29
421.241	7.69
421.446	7.63
421.652	7.23
421.857	7.16
422.063	6.66
422.268	6.71
422.474	6.19
422.679	6.33
422.885	6.09
423.09	5.24
423.295	5.75
423.501	5.73
423.706	6.19
423.911	6.39
424.117	6.84
424.322	6.51
424.527	6.66
424.733	7.1
424.938	6.8
425.143	6.61
425.349	7.38
425.554	7.09
425.759	7.63
425.964	6.73
426.169	6.68
426.375	6.36
426.58	7.26
426.785	7.09
426.99	6.9
427.195	6.49
427.4	6.67
427.605	5.98
427.811	6.36
428.016	5.9
428.221	6.15
428.426	5.52
428.631	5.79
428.836	5.12
429.041	5.34
429.246	5.15
429.451	5.26
429.656	5.8
429.861	5.89
430.066	5.26
430.271	5.25
430.476	5.4
430.681	5.47
430.886	4.92
431.09	5.31
431.295	5.36
431.5	5.58
431.705	5.84
431.91	5.34
432.115	5.64
432.32	5.69
432.524	5.47
432.729	5.11
432.934	5.32
433.139	6.04
433.343	6.1
433.548	5.55
433.753	5.21
433.958	5.05
434.162	5.17
434.367	5.08
434.572	4.83
434.776	4.63
434.981	4.67
435.186	4.91
435.39	4.61
435.595	4.19
435.799	4.75
436.004	4.51
436.209	5.59
436.413	5.4
436.618	4.77
436.822	5.41
437.027	5.05
437.231	6.07
437.436	5.75
437.64	4.86
437.845	5.14
438.049	5.2
438.253	6.09
438.458	4.96
438.662	5.42
438.867	5.94
439.071	5.51
439.275	5.87
439.48	5.35
439.684	5.51
439.888	6.19
440.093	5.91
440.297	5.69
440.501	5.55
440.706	5.6
440.91	4.91
441.114	4.69
441.318	4.59
441.523	4.44
441.727	4.75
441.931	4.63
442.135	4.84
442.339	4.6
442.543	4.71
442.748	4.87
442.952	4.9
443.156	5.2
443.36	5.45
443.564	5.71
443.768	5.61
443.972	4.77
444.176	5.14
444.38	5.01
444.584	5.27
444.788	5.07
444.992	4.77
445.196	4.76
445.4	5.02
445.604	5.27
445.808	4.97
446.012	5.2
446.216	5.7
446.42	5.12
446.624	5.06
446.828	5
447.032	5.29
447.235	5.39
447.439	5.52
447.643	5.47
447.847	5.15
448.051	5.43
448.254	5.31
448.458	5.46
448.662	5.73
448.866	5.89
449.069	5.5
449.273	5.37
449.477	5.38
449.681	5.51
449.884	4.67
450.088	4.35
450.292	4.58
450.495	4.7
450.699	4.18
450.902	4.51
451.106	4.46
451.31	5.38
451.513	5.1
451.717	5.04
451.92	4.96
452.124	5.69
452.327	6.04
452.531	5.98
452.734	6
452.938	6.3
453.141	5.8
453.345	5.87
453.548	5.54
453.752	5.55
453.955	5.3
454.158	5.67
454.362	4.99
454.565	5.45
454.769	5.23
454.972	4.61
455.175	4.39
455.379	5.14
455.582	4.3
455.785	4.02
455.988	3.66
456.192	3.47
456.395	2.83
456.598	3.86
456.801	3.98
457.005	3.29
457.208	3.77
457.411	3.82
457.614	3.11
457.817	3.79
458.021	4.04
458.224	4.57
458.427	4.8
458.63	4.85
458.833	4.72
459.036	3.73
459.239	4.67
459.442	4.64
459.645	4.9
459.848	5.22
460.051	5.26
460.254	5.55
460.457	5.48
460.66	5.55
460.863	6.15
461.066	6.08
461.269	6.57
461.472	5.81
461.675	6.15
461.878	6.08
462.081	6.41
462.284	5.94
462.486	5.66
462.689	5.52
462.892	5.47
463.095	4.87
463.298	4.13
463.5	3.91
463.703	3.8
463.906	3.62
464.109	3.13
464.311	2.73
464.514	2.96
464.717	2.71
464.92	3.22
465.122	3.45
465.325	3.32
465.528	4.36
465.73	5.04
465.933	6.25
466.135	5.39
466.338	6.18
466.541	5.88
466.743	6.57
466.946	6.55
467.148	6.53
467.351	6.54
467.553	6.43
467.756	6.08
467.958	5.92
468.161	5.23
468.363	5.81
468.566	5.31
468.768	5.35
468.971	4.9
469.173	5.2
469.375	5.58
469.578	5.07
469.78	5.72
469.983	5.37
470.185	4.95
470.387	4.64
470.59	5.63
470.792	5.35
470.994	5.3
471.196	4.15
471.399	3.39
471.601	2.56
471.803	3.44
472.005	3.17
472.208	4.03
472.41	4.02
472.612	4.09
472.814	3.11
473.016	3.12
473.218	3.39
473.421	4.45
473.623	5.23
473.825	5.38
474.027	5.03
474.229	5.26
474.431	4.71
474.633	5.35
474.835	5.93
475.037	6.31
475.239	6.22
475.441	6.38
475.643	6.12
475.845	5.74
476.047	6.31
476.249	6.12
476.451	6.86
476.653	7.16
476.855	7.45
477.057	7.21
477.258	7.31
477.46	7.52
477.662	7.5
477.864	7.88
478.066	8.01
478.268	7.33
478.469	7.19
478.671	6.61
478.873	6.21
479.075	5.76
479.276	6.16
479.478	6.24
479.68	6.36
479.882	6.03
480.083	6.09
480.285	6.18
480.487	6.41
480.688	6.61
480.89	6.36
481.091	6.37
481.293	5.99
481.495	5.81
481.696	5.67
481.898	6.01
482.099	6.14
482.301	5.87
482.502	5.82
482.704	5.82
482.905	5.79
483.107	5.94
483.308	5.91
483.51	6.02
483.711	5.93
483.913	5.97
484.114	5.85
484.315	5.76
484.517	5.9
484.718	5.96
484.92	6.14
485.121	6
485.322	5.85
485.524	6.09
485.725	6.03
485.926	6.06
486.127	5.95
486.329	5.89
486.53	5.98
486.731	5.74
486.932	5.74
487.134	5.61
487.335	5.73
487.536	5.65
487.737	5.49
487.938	5.58
488.139	5.27
488.341	5.43
488.542	5.38
488.743	5.4
488.944	5.39
489.145	5.28
489.346	5.14
489.547	5.12
489.748	5.19
489.949	5.26
490.15	5.25
490.351	5.8
490.552	5.61
490.753	5.75
490.954	5.55
491.155	5.81
491.356	5.89
491.557	5.92
491.758	5.81
491.959	5.86
492.159	5.68
492.36	5.78
492.561	5.47
492.762	5.51
492.963	5.08
493.164	5.29
493.364	5.39
493.565	5.63
493.766	5.56
493.967	5.86
494.167	5.87
494.368	6.07
494.569	5.8
494.769	5.86
494.97	5.6
495.171	5.94
495.371	5.7
495.572	5.26
495.773	4.98
495.973	5.13
496.174	5.09
496.375	5.03
496.575	5.33
496.776	5.45
496.976	5.41
497.177	5.67
497.377	5.47
497.578	5.43
497.778	5.67
497.979	5.14
498.179	5.06
498.38	5.34
498.58	5.78
498.78	5.79
498.981	5.86
499.181	6.33
499.382	6.15
499.582	6.14
499.782	6.12
499.983	5.9
500.183	6.68
500.383	7.09
500.584	6.92
500.784	6.42
500.984	6.33
501.184	6.07
501.385	5.95
501.585	6.24
501.785	6.57
501.985	6.91
502.185	6.82
502.386	6.78
502.586	6.73
502.786	6.66
502.986	6.96
503.186	6.54
503.386	6.68
503.586	6.69
503.786	6.97
503.987	6.81
504.187	6.61
504.387	6.82
504.587	6.51
504.787	6.08
504.987	6.53
505.187	6.39
505.387	6.77
505.587	7.07
505.786	6.78
505.986	5.99
506.186	5.76
506.386	5.6
506.586	6.01
506.786	6.32
506.986	6.62
507.186	6.38
507.386	6.64
507.585	6.65
507.785	6.51
507.985	6.92
508.185	7.27
508.384	7.6
508.584	7.75
508.784	7.87
508.984	7.65
509.183	7.24
509.383	7.39
509.583	7.06
509.782	7.59
509.982	7.81
510.182	7.74
510.381	7.36
510.581	7.34
510.781	7.75
510.98	7.69
511.18	7.8
511.379	8.24
511.579	8.45
511.778	8.95
511.978	8.73
512.177	8.98
512.377	8.59
512.576	9.22
512.776	9.37
512.975	9.12
513.175	8.77
513.374	8.99
513.573	8.79
513.773	8.45
513.972	8.37
514.172	8.13
514.371	8.06
514.57	8.45
514.77	8.16
514.969	8.27
515.168	8.55
515.367	8.62
515.567	8.89
515.766	9.25
515.965	9.38
516.164	9.46
516.364	9.46
516.563	9.58
516.762	9.78
516.961	10.13
517.16	10.3
517.359	10.52
517.559	10.77
517.758	10.51
517.957	10.63
518.156	10.74
518.355	11.02
518.554	11.14
518.753	11.02
518.952	11.02
519.151	11.1
519.35	11.16
519.549	10.86
519.748	10.99
519.947	10.95
520.146	10.91
520.345	10.78
520.544	10.81
520.743	10.91
520.942	10.97
521.141	11.07
521.339	11.17
521.538	11.34
521.737	11.28
521.936	11.34
522.135	12.33
522.333	12.33
522.532	12.9
522.731	12.6
522.93	12.93
523.129	12.84
523.327	13.11
523.526	13.16
523.725	13.27
523.923	13.49
524.122	13.1
524.321	12.89
524.519	13.14
524.718	13.01
524.917	12.8
525.115	12.84
525.314	12.81
525.512	12.79
525.711	12.66
525.909	12.61
526.108	12.85
526.306	13.09
526.505	13.26
526.703	13.28
526.902	13.27
527.1	13.58
527.299	13.58
527.497	13.7
527.696	13.77
527.894	14.04
528.092	14.04
528.291	14.11
528.489	14.33
528.688	14.38
528.886	14.43
529.084	14.46
529.283	14.45
529.481	14.39
529.679	14.59
529.877	14.49
530.076	14.39
530.274	14.52
530.472	14.62
530.67	14.5
530.869	14.19
531.067	14.04
531.265	14.07
531.463	14.15
531.661	14.42
531.859	14.49
532.057	14.81
532.255	14.95
532.454	14.98
532.652	14.97
532.85	15.05
533.048	15.26
533.246	15.39
533.444	15.73
533.642	15.67
533.84	15.71
534.038	15.68
534.236	15.88
534.434	15.94
534.632	16.02
534.83	16.16
535.027	16.26
535.225	16.39
535.423	16.33
535.621	16.4
535.819	16.64
536.017	17.01
536.215	17.01
536.412	16.98
536.61	17.07
536.808	17.39
537.006	17.32
537.203	17.39
537.401	16.98
537.599	17.42
537.797	17.38
537.994	17.57
538.192	17.01
538.39	17.29
538.587	16.89
538.785	16.57
538.983	16.47
539.18	16.84
539.378	16.93
539.575	17.23
539.773	17.08
539.97	16.99
540.168	17.1
540.366	17.36
540.563	17.51
540.761	17.63
540.958	17.85
541.155	17.82
541.353	17.61
541.55	17.53
541.748	17.7
541.945	17.92
542.143	17.98
542.34	18.14
542.537	18.17
542.735	18.21
542.932	18.15
543.129	18.51
543.327	18.51
543.524	18.46
543.721	18.51
543.919	18.43
544.116	18.19
544.313	18.13
544.51	18
544.708	18.16
544.905	18.26
545.102	18.45
545.299	18.1
545.496	18.2
545.693	18.49
545.891	18.47
546.088	18.74
546.285	18.9
546.482	19.12
546.679	19.43
546.876	19.87
547.073	19.64
547.27	19.67
547.467	19.85
547.664	20.11
547.861	20.42
548.058	20.96
548.255	20.52
548.452	20.31
548.649	20.63
548.846	20.3
549.043	19.55
549.24	19.81
549.437	20.44
549.633	20.39
549.83	20.47
550.027	20.39
550.224	20.4
550.421	21.1
550.618	21.79
550.814	21.35
551.011	21.72
551.208	21.31
551.405	21.39
551.601	20.52
551.798	20.61
551.995	20.35
552.191	20.02
552.388	19.7
552.585	19.41
552.781	19.37
552.978	19.73
553.175	19.3
553.371	19.88
553.568	19.98
553.764	20.24
553.961	20.89
554.157	21.32
554.354	21.7
554.55	22.28
554.747	22.87
554.943	22.65
555.14	22.11
555.336	22.69
555.533	22.75
555.729	22.86
555.926	23.3
556.122	22.63
556.318	22.79
556.515	22.82
556.711	22.57
556.907	22.14
557.104	22.33
557.3	23.12
557.496	22.95
557.693	23.19
557.889	22.82
558.085	23.08
558.281	23.3
558.478	22.87
558.674	22.78
558.87	23.55
559.066	23.78
559.262	24.36
559.459	24.54
559.655	24.5
559.851	24.24
560.047	24.01
560.243	24.29
560.439	24.22
560.635	24.87
560.831	25.13
561.027	24.58
561.223	25.09
561.419	25.27
561.615	24.91
561.811	23.86
562.007	24.02
562.203	24.57
562.399	23.61
562.595	24.21
562.791	23.44
562.987	23.66
563.183	23.91
563.379	23.67
563.575	23.34
563.771	22.83
563.966	23.99
564.162	24.15
564.358	23.99
564.554	24.81
564.75	24.31
564.945	24.96
565.141	25.14
565.337	25.03
565.533	24.64
565.728	24.87
565.924	25.48
566.12	25.62
566.315	25.24
566.511	25.48
566.707	25.71
566.902	25.89
567.098	25.31
567.293	24.99
567.489	25.34
567.684	25.53
567.88	25.4
568.076	25.43
568.271	25.45
568.467	25.95
568.662	26.17
568.858	25.83
569.053	25.85
569.248	26.25
569.444	27.03
569.639	26.84
569.835	27.01
570.03	27.29
570.225	27.25
570.421	27.53
570.616	27.52
570.812	27.27
571.007	27.77
571.202	27.57
571.397	27.88
571.593	26.93
571.788	27.17
571.983	26.89
572.178	26.34
572.374	26.07
572.569	25.67
572.764	25.96
572.959	26.46
573.154	26.23
573.35	27
573.545	27.11
573.74	27.65
573.935	27.5
574.13	27.72
574.325	28.65
574.52	29.43
574.715	29.93
574.91	29.95
575.105	29.45
575.3	29.6
575.495	29.22
575.69	28.82
575.885	29.15
576.08	29.13
576.275	29.79
576.47	29.43
576.665	29.32
576.86	28.59
577.055	28.33
577.25	28.7
577.444	28.55
577.639	28
577.834	28.35
578.029	27.73
578.224	27.87
578.418	27.7
578.613	27.34
578.808	27.38
579.003	28.15
579.197	29.06
579.392	29.79
579.587	30.57
579.781	31.06
579.976	31.1
580.171	31.76
580.365	31.78
580.56	32.18
580.755	31.86
580.949	31.6
581.144	31.96
581.338	31.32
581.533	30.42
581.727	29.54
581.922	30.06
582.116	29.3
582.311	29.09
582.505	29.53
582.7	29.07
582.894	29.19
583.089	29.43
583.283	28.53
583.478	28.33
583.672	28.1
583.866	27.85
584.061	27.1
584.255	28.59
584.449	29.11
584.644	28.47
584.838	28.31
585.032	28.23
585.226	27.97
585.421	28.32
585.615	28.7
585.809	28.97
586.003	29.09
586.198	29.63
586.392	29.28
586.586	28.51
586.78	28.75
586.974	28.26
587.168	29.02
587.363	29.01
587.557	29.63
587.751	29.68
587.945	29.64
588.139	29.94
588.333	30.12
588.527	29.63
588.721	29.86
588.915	29.84
589.109	30.85
589.303	30.18
589.497	30.36
589.691	30.3
589.885	30.26
590.079	31.23
590.273	31.32
590.466	31.27
590.66	31.51
590.854	31.61
591.048	31.64
591.242	31.67
591.436	32.52
591.629	32.72
591.823	31.64
592.017	31.59
592.211	30.37
592.404	30.77
592.598	30.78
592.792	31.17
592.986	31.83
593.179	32.24
593.373	33.02
593.567	32.5
593.76	32.71
593.954	33.38
594.147	33.25
594.341	34.26
594.535	33.9
594.728	33.65
594.922	33.23
595.115	33.14
595.309	33.05
595.502	32.13
595.696	32.5
595.889	32.41
596.083	32.06
596.276	32.6
596.47	31.84
596.663	31.96
596.856	32.48
597.05	32.31
597.243	32.44
597.437	31.78
597.63	31.43
597.823	30.71
598.017	30.98
598.21	31.68
598.403	31.84
598.596	32.03
598.79	31.84
598.983	31.77
599.176	32.44
599.369	31.84
599.563	32.56
599.756	32.62
599.949	33.78
600.142	33.06
600.335	32.78
600.528	32.24
600.722	32.25
600.915	32.65
601.108	32.47
601.301	32.66
601.494	33.65
601.687	33.45
601.88	33.58
602.073	32.87
602.266	33.08
602.459	32.98
602.652	32.7
602.845	32.63
603.038	32.18
603.231	32.16
603.424	31.63
603.617	31.21
603.809	31.5
604.002	31.5
604.195	31.56
604.388	31.88
604.581	31.72
604.774	32.32
604.966	32.55
605.159	33.27
605.352	33.7
605.545	34.04
605.737	33.83
605.93	34.26
606.123	34.32
606.316	34.71
606.508	34.68
606.701	34.47
606.894	34.03
607.086	33.99
607.279	32.78
607.471	32.71
607.664	32.33
607.857	31.59
608.049	30.74
608.242	31.17
608.434	32.24
608.627	32.27
608.819	32.84
609.012	33.21
609.204	33.13
609.397	33.94
609.589	34.2
609.782	34.82
609.974	35.46
610.166	35.95
610.359	35.6
610.551	34.94
610.743	34.51
610.936	34.91
611.128	34.36
611.32	34.84
611.513	34.56
611.705	34.36
611.897	34.89
612.09	35.49
612.282	35.7
612.474	35.81
612.666	35.68
612.858	35.7
613.051	35.26
613.243	35.79
613.435	35.19
613.627	34.86
613.819	34.29
614.011	33.35
614.203	32.68
614.395	32.2
614.588	32.57
614.78	31.89
614.972	32.23
615.164	31.75
615.356	31.93
615.548	33.36
615.74	34.12
615.932	34.19
616.124	33.83
616.315	33.85
616.507	33.6
616.699	33.44
616.891	34.09
617.083	34.05
617.275	34.93
617.467	34.53
617.659	33.12
617.85	33.05
618.042	32.5
618.234	33.09
618.426	33.47
618.618	33.54
618.809	32.95
619.001	32.54
619.193	32.26
619.384	32.16
619.576	32.91
619.768	34.15
619.959	34.14
620.151	34.47
620.343	34.43
620.534	34.66
620.726	34.74
620.917	35.19
621.109	35.43
621.301	36.16
621.492	35.51
621.684	34.6
621.875	33.81
622.067	33.49
622.258	33.5
622.45	32.66
622.641	32.93
622.832	32.87
623.024	32.92
623.215	32.53
623.407	32.71
623.598	33.02
623.789	33.58
623.981	33.4
624.172	33.31
624.363	33.26
624.555	33.85
624.746	33.35
624.937	33.83
625.129	34.24
625.32	34.24
625.511	33.87
625.702	34.04
625.893	33.14
626.085	33.97
626.276	34.23
626.467	34.64
626.658	34.9
626.849	34.78
627.04	34.94
627.231	34.85
627.422	35.28
627.614	35.27
627.805	35.35
627.996	36.7
628.187	36.35
628.378	37.32
628.569	36.76
628.76	37.13
628.951	37.48
629.142	37.86
629.332	36.6
629.523	36.32
629.714	35.86
629.905	35.95
630.096	35.29
630.287	35.17
630.478	33.84
630.669	34.29
630.859	33.74
631.05	34.4
631.241	34.58
631.432	35.85
631.623	36.32
631.813	37.36
632.004	37.27
632.195	37.4
632.385	37.86
632.576	37.54
632.767	38.61
632.957	39.49
633.148	38.24
633.339	38.04
633.529	37.33
633.72	37.86
633.91	38.12
634.101	37.75
634.292	37.71
634.482	37.73
634.673	38.25
634.863	36.7
635.054	36.4
635.244	36.57
635.435	35.95
635.625	37
635.815	37.07
636.006	35.72
636.196	35.98
636.387	35.9
636.577	35.6
636.767	35.54
636.958	36.43
637.148	36.84
637.338	37.45
637.529	38.31
637.719	38.29
637.909	37.22
638.099	37.74
638.29	38.59
638.48	37.38
638.67	36.49
638.86	37.51
639.05	37.51
639.241	36.38
639.431	36.63
639.621	36.44
639.811	35.52
640.001	35.9
640.191	37.09
640.381	36.21
640.571	37.81
640.761	38.63
640.951	37.55
641.141	37.86
641.331	38.6
641.521	37.99
641.711	38.14
641.901	39.39
642.091	38.54
642.281	37.78
642.471	37.23
642.661	36.73
642.851	37.08
643.041	37.16
643.231	36.27
643.42	36.33
643.61	36.54
643.8	35.74
643.99	35.13
644.18	36.34
644.369	35.87
644.559	37.66
644.749	38.24
644.939	38.18
645.128	39.16
645.318	40.02
645.508	39.96
645.697	40.4
645.887	41.58
646.076	42.21
646.266	41.32
646.456	41.97
646.645	40.54
646.835	40.78
647.024	41.02
647.214	40.14
647.403	39.48
647.593	39.69
647.782	39.31
647.972	38.57
648.161	37.11
648.351	38.03
648.54	37.85
648.73	37.69
648.919	37.76
649.108	37.39
649.298	37.44
649.487	38.48
649.677	38.62
649.866	38.76
650.055	38.52
650.244	39.9
650.434	40.09
650.623	40.28
650.812	39.98
651.002	39.93
651.191	38.9
651.38	39.01
651.569	38.28
651.758	37.25
651.947	37.51
652.137	37.51
652.326	37.44
652.515	36.92
652.704	36.54
652.893	36.66
653.082	36.86
653.271	37.37
653.46	38.32
653.649	38.47
653.838	38.56
654.027	38.18
654.216	38.69
654.405	37.11
654.594	36.29
654.783	36.76
654.972	37.8
655.161	36.64
655.35	36.54
655.539	35.77
655.728	34.39
655.916	34.69
656.105	33.57
656.294	33.18
656.483	34.23
656.672	35.61
656.86	35.89
657.049	35.14
657.238	35.93
657.427	36.94
657.615	36.77
657.804	37.78
657.993	37.44
658.181	37.71
658.37	38
658.559	37.65
658.747	37.22
658.936	36.58
659.125	38.53
659.313	37.95
659.502	37.41
659.69	37.74
659.879	38.01
660.067	38.25
660.256	39.66
660.444	40.27
660.633	40.22
660.821	40.17
661.01	40.29
661.198	39.53
661.387	39.82
661.575	39.91
661.763	40.12
661.952	40.58
662.14	40.55
662.328	39.97
662.517	38.44
662.705	38.97
662.893	38.2
663.082	37.64
663.27	36.4
663.458	36.69
663.646	36.34
663.834	36.47
664.023	34.28
664.211	34.09
664.399	34.47
664.587	36
664.775	38.1
664.963	39.7
665.152	40.38
665.34	40.21
665.528	40.25
665.716	40.3
665.904	39.18
666.092	41.13
666.28	41.69
666.468	40.81
666.656	39.53
666.844	37.34
667.032	36.75
667.22	37.53
667.408	37.05
667.596	37.15
667.784	38.23
667.971	38.87
668.159	37.17
668.347	37.3
668.535	37.53
668.723	38.56
668.911	39.08
669.098	38.65
669.286	38.16
669.474	39.3
669.662	39.28
669.849	37.52
670.037	35.92
670.225	37.23
670.413	36.92
670.6	36.64
670.788	36.87
670.976	37.1
671.163	37.86
671.351	37
671.538	37.57
671.726	38.6
671.913	39.76
672.101	39.45
672.289	41.37
672.476	40.89
672.664	41.45
672.851	40.2
673.039	39.69
673.226	38.87
673.413	41.33
673.601	40.21
673.788	38.94
673.976	39.86
674.163	42.66
674.35	40.49
674.538	41.3
674.725	41.82
674.912	42.91
675.1	43.05
675.287	43.76
675.474	42.44
675.662	43.16
675.849	42.21
676.036	41.06
676.223	40.56
676.411	41.66
676.598	41.63
676.785	41.27
676.972	40.57
677.159	40.61
677.346	40.95
677.533	41.47
677.721	40.71
677.908	41.49
678.095	42.4
678.282	41.96
678.469	41.63
678.656	40.38
678.843	40.63
679.03	41.22
679.217	40.9
679.404	40.45
679.591	40.11
679.778	39.88
679.964	39.39
680.151	38.96
680.338	39.05
680.525	38.71
680.712	39.5
680.899	39.94
681.086	38.42
681.272	38.23
681.459	37.15
681.646	37.79
681.833	37.4
682.02	38.32
682.206	38
682.393	37.4
682.58	38.87
682.766	39.06
682.953	38.19
683.14	39.26
683.326	38.53
683.513	38.92
683.7	38.04
683.886	38.56
684.073	37.86
684.259	37.76
684.446	39.53
684.632	37.1
684.819	37.18
685.005	36.82
685.192	38.47
685.378	40.8
685.565	41.28
685.751	41.27
685.938	41.93
686.124	41.81
686.31	42.32
686.497	41.08
686.683	41.49
686.87	41.85
687.056	41.93
687.242	40.48
687.429	39.14
687.615	39.49
687.801	38.58
687.987	38.13
688.174	39.69
688.36	38.18
688.546	38.45
688.732	38.19
688.918	38.66
689.105	39.19
689.291	40.1
689.477	40.22
689.663	41.03
689.849	42.4
690.035	43.07
690.221	42.34
690.407	44.13
690.593	43.8
690.779	44.97
690.965	43.29
691.151	41.85
691.337	40.36
691.523	40.34
691.709	39.04
691.895	38.53
692.081	38.07
692.267	37.11
692.453	35.69
692.639	35.21
692.825	34.54
693.011	35.21
693.196	36.28
693.382	36.47
693.568	38.9
693.754	39.66
693.94	39.37
694.125	40.87
694.311	41.69
694.497	41.59
694.682	42.29
694.868	42.38
695.054	42.89
695.239	43.42
695.425	44.55
695.611	42.18
695.796	40.8
695.982	40.48
696.168	38.4
696.353	37.52
696.539	39.45
696.724	39.8
696.91	39.91
697.095	39.54
697.281	39.39
697.466	39.34
697.652	39.06
697.837	39.08
698.023	39.05
698.208	39.35
698.393	39.71
698.579	38.46
698.764	38.48
698.949	37.64
699.135	38.57
699.32	38.7
699.505	38.64
699.691	38.92
699.876	40.52
700.061	41.76
700.246	42.35
700.432	42.25
700.617	43.57
700.802	44.35
700.987	45.28
701.172	44.99
701.358	44.4
701.543	42.97
701.728	43.23
701.913	42.22
702.098	39.58
702.283	38.65
702.468	38.62
702.653	38.8
702.838	38
703.023	36.72
703.208	36.67
703.393	35.16
703.578	35.42
703.763	35.64
703.948	35.92
704.133	38.04
704.318	38.29
704.503	38.07
704.688	35.9
704.873	36.39
705.057	38.52
705.242	38.26
705.427	39.64
705.612	39.72
705.797	40.89
705.981	41.98
706.166	42.03
706.351	42.52
706.536	44.42
706.72	46.09
706.905	43.81
707.09	44.49
707.274	44.57
707.459	45.2
707.644	46.59
707.828	46.43
708.013	45.29
708.197	43.86
708.382	45.07
708.567	44.32
708.751	43.75
708.936	46.53
709.12	45.46
709.305	44.51
709.489	44.99
709.673	44.02
709.858	44.13
710.042	43.12
710.227	45.1
710.411	44.36
710.596	43.71
710.78	43.22
710.964	42.07
711.149	43.28
711.333	43.37
711.517	42.44
711.702	42.21
711.886	40.13
712.07	40.24
712.254	40.24
712.438	39.26
712.623	38.91
712.807	40.62
712.991	42.12
713.175	41.23
713.359	41.52
713.544	41.46
713.728	40.31
713.912	42.26
714.096	43.93
714.28	43.7
714.464	43.55
714.648	43.87
714.832	43.37
715.016	42.32
715.2	42.76
715.384	42.74
715.568	42.84
715.752	43.63
715.936	44.11
716.12	43.58
716.304	43.15
716.488	44.69
716.671	44.87
716.855	43.93
717.039	44.28
717.223	43.32
717.407	44.07
717.59	44.15
717.774	44.77
717.958	42.68
718.142	42.11
718.325	42.53
718.509	39.29
718.693	39.16
718.877	40.52
719.06	37.29
719.244	38.26
719.428	37.14
719.611	38
719.795	38.77
719.978	39.7
720.162	40.18
720.345	38.76
720.529	41.45
720.713	41.68
720.896	42.81
721.08	46.31
721.263	45.05
721.446	45.71
721.63	45.34
721.813	47.42
721.997	48.86
722.18	50.28
722.364	50.43
722.547	50.06
722.73	50.99
722.914	50.11
723.097	48.63
723.28	48.92
723.464	50.64
723.647	49.68
723.83	46.15
724.013	45.2
724.197	43.1
724.38	44.72
724.563	44.16
724.746	43.93
724.929	39.76
725.112	38.3
725.296	37.19
725.479	34.34
725.662	35.38
725.845	37.14
726.028	36.39
726.211	36.94
726.394	36.72
726.577	37.61
726.76	37.08
726.943	40.11
727.126	41.41
727.309	42.51
727.492	44.37
727.675	44.06
727.858	41.88
728.041	40.07
728.224	38.95
728.407	39.37
728.589	40.49
728.772	40
728.955	37.29
729.138	37.02
729.321	37.45
729.503	36.56
729.686	35.96
729.869	37.07
730.052	39.3
730.234	40.05
730.417	38.78
730.6	39.22
730.782	38.36
730.965	40.67
731.148	39.66
731.33	39.05
731.513	39.56
731.695	42
731.878	41.44
732.061	41.34
732.243	41.17
732.426	40.47
732.608	39.16
732.791	39.36
732.973	36.42
733.156	37.59
733.338	38.36
733.52	38.46
733.703	36.89
733.885	37.22
734.068	39.32
734.25	41.22
734.432	42.43
734.615	43.64
734.797	45.11
734.979	48.94
735.162	50.4
735.344	49.33
735.526	49.42
735.708	49.51
735.891	49.86
736.073	49.44
736.255	48.61
736.437	47.79
736.619	45.92
736.802	44.86
736.984	43.4
737.166	41.5
737.348	40.67
737.53	41.55
737.712	40.26
737.894	40.17
738.076	38.07
738.258	37.78
738.44	41.37
738.622	40.61
738.804	40.37
738.986	41.9
739.168	44.44
739.35	44.11
739.532	42.45
739.714	42.56
739.896	42.59
740.078	43.2
740.259	44.24
740.441	42.44
740.623	42.69
740.805	44.96
740.987	43.07
741.168	40.62
741.35	40.35
741.532	40.83
741.714	42.43
741.895	42.5
742.077	43.11
742.259	41.07
742.44	39.29
742.622	42.59
742.804	42.26
742.985	43.09
743.167	44.52
743.348	47.24
743.53	49.38
743.711	48.22
743.893	49.7
744.075	49.21
744.256	52.8
744.438	53.89
744.619	49.83
744.8	49.35
744.982	51.74
745.163	53.22
745.345	52.3
745.526	53.23
745.707	54.44
745.889	50.43
746.07	50.55
746.252	49.02
746.433	50.43
746.614	50.41
746.795	49.69
746.977	46.95
747.158	43.78
747.339	42.38
747.52	40.39
747.702	40.73
747.883	42.71
748.064	43.43
748.245	40.2
748.426	38.91
748.607	41.15
748.788	40.34
748.97	40.02
749.151	40.26
749.332	44.26
749.513	43.57
749.694	42.98
749.875	42.11
750.056	42.42
750.237	43.1
750.418	42.57
750.599	41.74
750.78	43.24
750.96	44.79
751.141	43.68
751.322	44.5
751.503	45.43
751.684	44.82
751.865	48.28
752.046	46.67
752.226	49.42
752.407	46.4
752.588	43.74
752.769	43.41
752.949	44.4
753.13	49.24
753.311	46.24
753.492	46.35
753.672	44.54
753.853	43.41
754.034	44.13
754.214	42.61
754.395	44.89
754.575	46.64
754.756	48.41
754.937	46.46
755.117	45.57
755.298	44.61
755.478	41.35
755.659	44.4
755.839	43.68
756.02	43.74
756.2	43.13
756.381	44.62
756.561	44.06
756.741	41.93
756.922	42.17
757.102	41.44
757.283	41.01
757.463	45.4
757.643	41.89
757.823	42.34
758.004	42.44
758.184	42.84
758.364	43.12
758.545	46.87
758.725	45.61
758.905	47.47
759.085	47.52
759.265	48.02
759.446	45.59
759.626	48.93
759.806	49.28
759.986	50.03
760.166	50
760.346	50.4
760.526	47.1
760.706	48.64
760.886	46.55
761.066	43.8
761.246	42.25
761.426	44.04
761.606	42.24
761.786	42.58
761.966	40.38
762.146	40.66
762.326	37.13
762.506	37.57
762.686	36.62
762.866	37.59
763.046	40.44
763.225	42.73
763.405	40.59
763.585	39.73
763.765	39.29
763.945	42.6
764.124	43.71
764.304	45.46
764.484	44.51
764.664	46.26
764.843	44.41
765.023	41.34
765.203	40.53
765.382	40.83
765.562	42.57
765.741	43.1
765.921	39.18
766.101	36.59
766.28	39.79
766.46	39.49
766.639	38.08
766.819	39.08
766.998	38.4
767.178	41.72
767.357	45.55
767.537	46.7
767.716	44.59
767.896	45.36
768.075	45.6
768.254	45.1
768.434	46.55
768.613	46.18
768.792	42.33
768.972	43.62
769.151	42.72
769.33	44.26
769.51	41.35
769.689	42.26
769.868	42.56
770.047	43.38
770.226	42.15
770.406	41.7
770.585	42.39
770.764	47.06
770.943	49.83
771.122	44.46
771.301	39.5
771.48	40.73
771.66	41.52
771.839	44.06
772.018	42.13
772.197	42.58
772.376	44.41
772.555	47.16
772.734	49.05
772.913	48.7
773.092	52.65
773.271	53.59
773.449	55.82
773.628	53.98
773.807	50.12
773.986	54.24
774.165	52.96
774.344	52.87
774.523	51.38
774.701	50.38
774.88	49.02
775.059	46.89
775.238	46.15
775.417	46.04
775.595	44.52
775.774	46.77
775.953	43.94
776.131	41.75
776.31	42.33
776.489	38.67
776.667	35.21
776.846	36.62
777.025	39.19
777.203	37.25
777.382	31.54
777.56	39.56
777.739	35.24
777.917	39.1
778.096	39.66
778.274	38.92
778.453	38.47
778.631	37.78
778.81	38.4
778.988	40.75
779.166	44.89
779.345	51.52
779.523	49.7
779.702	55.58
779.88	55.11
780.058	52.96
780.237	49.91
780.415	56.46
780.593	58.7
780.771	59.3
780.95	53.69
781.128	52.5
781.306	50.77
781.484	47.81
781.662	45.36
781.841	45.52
782.019	47.33
782.197	50.08
782.375	45.43
782.553	42.79
782.731	44.08
782.909	47.39
783.087	47.09
783.265	47.51
783.443	48.99
783.621	48.8
783.799	47.13
783.977	49.58
784.155	50.32
784.333	47.84
784.511	49.41
784.689	50.44
784.867	50.96
785.045	49.64
785.223	47.79
785.4	43.73
785.578	46.42
785.756	48.53
785.934	44.91
786.112	41.63
786.289	45.5
786.467	45.63
786.645	43.26
786.823	44
787	45.68
787.178	48.09
787.356	51.12
787.533	47.98
787.711	47.78
787.889	47.23
788.066	47.63
788.244	51.59
788.421	50.09
788.599	48.16
788.776	44.81
788.954	42.46
789.131	37.2
789.309	34.9
789.486	28.4
789.664	31.24
789.841	41.29
790.019	42.77
790.196	35.46
790.373	37.91
790.551	37.79
790.728	43.9
790.906	48.05
791.083	51.37
791.26	54.48
791.437	56.58
791.615	52.31
791.792	48.36
791.969	48.14
792.146	54.78
792.324	53.26
792.501	51.75
792.678	47.28
792.855	46.36
793.032	42.68
793.209	42.49
793.387	45.29
793.564	48.5
793.741	45.93
793.918	47.13
794.095	46.31
794.272	50.25
794.449	53.4
794.626	56.53
794.803	55.14
794.98	59.32
795.157	57
795.334	61.31
795.511	56.66
795.688	51.99
795.864	54.59
796.041	51.55
796.218	44.17
796.395	44.2
796.572	45.49
796.749	45.26
796.925	45.35
797.102	44.74
797.279	41.96
797.456	41.06
797.632	46.02
797.809	42.78
797.986	41.92
798.162	46.52
798.339	45.29
798.516	43.17
798.692	47.06
798.869	51.74
799.046	55.44
799.222	54.17
799.399	57.77
799.575	59.38
799.752	55.09
799.928	49.9
800.105	49.68
800.281	50.72
800.458	49.46
800.634	48.32
800.811	45.63
800.987	46
801.163	45.93
801.34	40.28
801.516	37.11
801.692	37.4
801.869	41.46
802.045	37.4
802.221	34.74
802.398	34.57
802.574	34.83
802.75	28.45
802.926	27.23
803.103	29.53
803.279	31.47
803.455	34.86
803.631	32.18
803.807	38.35
803.983	39.23
804.16	37.58
804.336	44.21
804.512	42.41
804.688	46.89
804.864	45.67
805.04	47.49
805.216	54
805.392	54.77
805.568	64.22
805.744	61.39
805.92	68.87
806.096	66.69
806.272	59.8
806.448	58.71
806.623	65.09
806.799	60.77
806.975	53.68
807.151	50.89
807.327	53.58
807.503	54.74
807.678	50.76
807.854	50.19
808.03	53.8
808.206	54.83
808.381	55.8
808.557	50.41
808.733	53.7
808.908	55.35
809.084	58.21
809.26	54.43
809.435	50.03
809.611	48.86
809.787	51.9
809.962	49.58
810.138	48.28
810.313	46.25
810.489	46.79
810.664	43.42
810.84	47.02
811.015	41.41
811.191	42.78
811.366	47.12
811.542	57.35
811.717	56.79
811.892	58.08
812.068	58.82
812.243	61.23
812.419	55.25
812.594	55.43
812.769	48.8
812.944	50.08
813.12	51.56
813.295	50.15
813.47	46.83
813.645	39.29
813.821	43.82
813.996	43.71
814.171	42.49
814.346	47.75
814.521	53.77
814.697	55.99
814.872	56.91
815.047	50.48
815.222	49.8
815.397	45.76
815.572	49.89
815.747	46.6
815.922	47.94
816.097	46.61
816.272	43.79
816.447	39.78
816.622	33.3
816.797	29.01
816.972	30.6
817.147	30.52
817.322	27.09
817.496	25.17
817.671	22.25
817.846	16.53
818.021	15.17
818.196	20.14
818.371	19.25
818.545	28.52
818.72	30.33
818.895	32.51
819.069	33.96
819.244	40.38
819.419	36.64
819.594	39
819.768	37.14
819.943	35.05
820.117	34.98
820.292	34.24
820.467	34.08
820.641	34.75
820.816	36.49
820.99	36.89
821.165	36.89
821.339	37.6
821.514	37.18
821.688	37.93
821.863	38.53
822.037	38.12
822.212	38.86
822.386	38.68
822.56	37.75
822.735	36.39
822.909	35.73
823.084	36.39
823.258	35.57
823.432	36.07
823.606	35.27
823.781	34.33
823.955	34.85
824.129	34.29
824.303	34.46
824.478	36.24
824.652	36.52
824.826	35.57
825	35.33
825.174	37.02
825.348	36.37
825.523	37.02
825.697	36.03
825.871	36.75
826.045	35.19
826.219	36.25
826.393	34.86
826.567	36.15
826.741	36.15
826.915	36.19
827.089	34.14
827.263	34.18
827.437	34.23
827.611	36.94
827.784	35.22
827.958	37.08
828.132	34.63
828.306	34.44
828.48	32.6
828.654	34.27
828.827	31.23
829.001	31.38
829.175	30.04
829.349	28.31
829.522	24.51
829.696	25.37
829.87	25
830.044	27.78
830.217	29.92
830.391	28.7
830.565	29.91
830.738	29.08
830.912	32.27
831.085	36.21
831.259	38.73
831.432	40.65
831.606	37.06
831.779	39.42
831.953	38.31
832.126	40.99
832.3	43.27
832.473	37.5
832.647	35.4
832.82	32.82
832.994	27.26
833.167	27.74
833.34	25.86
833.514	26.59
833.687	26.96
833.86	26.86
834.034	21.73
834.207	22.5
834.38	26.5
834.553	28.73
834.727	29.12
834.9	32.47
835.073	35.6
835.246	37.14
835.419	41.58
835.593	39.94
835.766	41.98
835.939	42.98
836.112	40.82
836.285	43.84
836.458	45.9
836.631	49.29
836.804	45.32
836.977	39.5
837.15	36.38
837.323	32.82
837.496	26.98
837.669	19.42
837.842	23.11
838.015	24.93
838.188	19.07
838.361	19.27
838.533	16.52
838.706	26.84
838.879	38.28
839.052	42.13
839.225	36.64
839.398	44.78
839.57	52.38
839.743	51.95
839.916	52.49
840.088	55.48
840.261	54.62
840.434	60.23
840.607	61.62
840.779	62
840.952	60.95
841.124	68.01
841.297	68.07
841.47	67.68
841.642	68.19
841.815	74.47
841.987	74.57
842.16	82.31
842.332	70.13
842.505	72.79
842.677	64.91
842.85	78.43
843.022	72.56
843.194	66.3
843.367	61.78
843.539	67.98
843.712	61.04
843.884	58.79
844.056	53.31
844.229	64.06
844.401	53.91
844.573	71.51
844.745	66.15
844.918	81.48
845.09	96.49
845.262	99.36
845.434	105.16
845.606	119.94
845.779	119.55
845.951	106.73
846.123	97.79
846.295	91.84
846.467	93.12
846.639	92.58
846.811	67.82
846.983	60.15
847.155	71.62
847.327	65.47
847.499	65.46
847.671	55.97
847.843	57.25
848.015	55.8
848.187	65.37
848.359	36.16
848.531	40.3
848.703	64.65
848.875	52.3
849.047	50.6
849.218	55.19
849.39	38.58
849.562	38.22
849.734	38.87
849.905	38.49
850.077	35.7
850.249	58.36
850.421	34.91
850.592	18.53
850.764	48.57
850.936	53.14
851.107	66.96
851.279	74.67
851.451	102.69
851.622	126.37
851.794	116.43
851.965	87.91
852.137	83.41
852.308	102.46
852.48	81.91
852.651	50.41
852.823	41.38
852.994	18.02
853.166	11.06
853.337	10.48
853.509	5.92
853.68	-4.07
853.851	29.77
854.023	39.89
854.194	24.72
854.365	28.66
854.537	77.67
854.708	79.28
854.879	81.84
855.05	82.82
855.222	66.27
855.393	63.1
855.564	56.69
855.735	49.36
855.906	47.21
856.078	52.77
856.249	52.21
856.42	40.64
856.591	37.37
856.762	39.67
856.933	45.66
857.104	60.24
857.275	69.52
857.446	76.53
857.617	82.03
857.788	76.65
857.959	68.17
858.13	67.15
858.301	58.12
858.472	55.11
858.643	59.5
858.814	69.96
858.985	69.09
859.155	53.37
859.326	47.41
859.497	50.22
859.668	38.06
859.839	41.61
860.009	18.18
860.18	18.6
860.351	23.87
860.522	37.01
860.692	31.52
860.863	21.98
861.034	18.01
861.204	4.65
861.375	-12.78
861.546	17.54
861.716	-0.3
861.887	39.08
862.057	61.98
862.228	73.69
862.398	62.42
862.569	51.92
862.739	42.45
862.91	52.4
863.08	47.87
863.251	50.05
863.421	62.77
863.592	70.83
863.762	67.62
863.932	69
864.103	65.82
864.273	51.42
864.443	51.49
864.614	59.67
864.784	63.44
864.954	80.37
865.125	38
865.295	27.89
865.465	-0.77
865.635	5.91
865.805	13.74
865.976	23.11
866.146	28.75
866.316	32.9
866.486	23.2
866.656	18.01
866.826	-3.97
866.996	35.84
867.166	25.16
867.336	35.62
867.506	33.05
867.676	7.9
867.846	15.42
868.016	18.85
868.186	11.46
868.356	16.28
868.526	63.49
868.696	69.39
868.866	-16.77
869.036	30.17
869.206	44.98
869.376	44.51
869.545	61.94
869.715	52.6
869.885	62.79
870.055	66.3
870.224	82.42
870.394	66.48
870.564	58.94
870.734	75.49
870.903	70.32
871.073	71.34
871.243	79.21
871.412	74.23
871.582	56.53
871.751	61.92
871.921	55.74
872.091	60.25
872.26	37.53
872.43	46.12
872.599	47.12
872.769	60.97
872.938	55.49
873.108	60.4
873.277	49.67
873.446	50.19
873.616	26.87
873.785	20.4
873.955	23.58
874.124	30.91
874.293	34.1
874.463	21.3
874.632	16.39
874.801	20.43
874.971	-0.16
875.14	-7.43
875.309	-6.75
875.478	21.35
875.647	29.67
875.817	37.58
875.986	41.2
876.155	45.65
876.324	60.21
876.493	64.34
876.662	77.1
876.831	70.71
877	81.1
877.17	95.41
877.339	78.2
877.508	71.85
877.677	66.48
877.846	65.84
878.015	52.57
878.184	44.93
878.352	41.76
878.521	13.97
878.69	27.19
878.859	30.31
879.028	15.11
879.197	15.67
879.366	19.5
879.534	8.9
879.703	6.7
879.872	6.84
880.041	4.82
880.21	8.18
880.378	17.46
880.547	17.14
880.716	12.74
880.884	20.71
881.053	24.46
881.222	24.6
881.39	24.37
881.559	26.96
881.727	29.72
881.896	33.6
882.065	33.46
882.233	33.69
882.402	34.99
882.57	37.11
882.739	33.69
882.907	36.29
883.076	34.84
883.244	34.83
883.412	31.99
883.581	30.94
883.749	31.16
883.918	31.14
884.086	30.42
884.254	32.36
884.423	31.89
884.591	34.89
884.759	28.49
884.927	25.67
885.096	28.58
885.264	26.27
885.432	26.39
885.6	25.45
885.769	24.38
885.937	23.12
886.105	14.66
886.273	10.44
886.441	1.28
886.609	4.7
886.777	17.45
886.945	28.72
887.113	52.76
887.281	53.2
887.449	32.69
887.617	41.96
887.785	39.2
887.953	38.86
888.121	44.01
888.289	55.63
888.457	41.54
888.625	5.95
888.793	-7.07
888.961	5.82
889.129	30.53
889.296	36.38
889.464	26.78
889.632	38.12
889.8	42.05
889.967	39
890.135	39.44
