Data from JASIL_3265_Reflection_1.txt Node
Date: Mon Nov 16 20:59:29 EST 2015
User: Geneva
Spectrometer: USB4E03002
Autoset integration time: false
Trigger mode: 4
Integration Time (sec): 1.000000E-1
Scans to average: 10
Electric dark correction enabled: false
Nonlinearity correction enabled: false
Boxcar width: 5
Stray light correction enabled: false
XAxis mode: Wavelengths
Stop averaging: false
Number of Pixels in Spectrum: 3648
>>>>>Begin Spectral Data<<<<<
177.575	-928.21
177.794	-920
178.014	-925.9
178.233	-1588.79
178.452	-2132.53
178.672	-1367.42
178.891	-1649.06
179.11	5029.73
179.33	1647.32
179.549	-8909.09
179.768	1689.83
179.987	2047.31
180.207	1270.32
180.426	629.97
180.645	648.44
180.864	1275.32
181.084	546.02
181.303	506.94
181.522	960.91
181.741	2807.04
181.96	605.41
182.179	743.12
182.398	924
182.618	881.36
182.837	915.55
183.056	780.16
183.275	485.61
183.494	517.91
183.713	574.57
183.932	465.5
184.151	484.03
184.37	491.45
184.589	389.55
184.808	321.63
185.027	308.77
185.246	378.92
185.465	564.06
185.684	581.77
185.903	2294.25
186.122	861.88
186.341	1092.13
186.56	565.26
186.779	1119.69
186.998	1613.08
187.216	1633.07
187.435	1277.25
187.654	1155.68
187.873	594.66
188.092	536.05
188.311	513.75
188.53	811.68
188.748	742.86
188.967	1787.2
189.186	857.09
189.405	939.83
189.623	918.52
189.842	897.12
190.061	988.52
190.28	2547.44
190.498	-2422.5
190.717	1604.76
190.936	-3335.59
191.154	-1635.71
191.373	-33716.67
191.592	-17163.64
191.81	-1130.46
192.029	-1530.53
192.248	-475.94
192.466	-468.6
192.685	-521.47
192.904	-712.82
193.122	-502.67
193.341	-1030.27
193.559	-995.43
193.778	-1145.45
193.996	-1559.54
194.215	55225
194.433	-5390.48
194.652	1141.87
194.87	944.16
195.089	901.31
195.307	1034.74
195.526	3230.51
195.744	1741.23
195.963	1161.54
196.181	26662.5
196.399	-1775.21
196.618	9585
196.836	31100
197.055	-1541.8
197.273	-3351.72
197.491	-2223.33
197.71	-4229.41
197.928	2797.5
198.146	5297.62
198.365	-22110
198.583	1007.79
198.801	1362.57
199.019	3044.16
199.238	-5423.81
199.456	2214.15
199.674	1013.14
199.892	730.24
200.111	903.85
200.329	843.4
200.547	647.04
200.765	584.29
200.983	648.8
201.202	503.33
201.42	805.51
201.638	523.82
201.856	587.78
202.074	1736.36
202.292	2147.47
202.51	1544.9
202.728	2293.81
202.946	-5615
203.165	6993.94
203.383	-2325.77
203.601	-2680.23
203.819	4854
204.037	24590
204.255	2631.96
204.473	1149.07
204.691	1608
204.909	1009.39
205.127	1155.35
205.345	1360.23
205.562	1173.76
205.78	795.64
205.998	944.49
206.216	765.71
206.434	749.66
206.652	651.52
206.87	460.13
207.088	387.09
207.306	471.23
207.523	445.42
207.741	342.7
207.959	371.38
208.177	419.09
208.395	326.15
208.612	385.17
208.83	356.09
209.048	404.75
209.266	566
209.483	566.35
209.701	461.4
209.919	510.23
210.136	507.43
210.354	1163
210.572	1042.53
210.79	1625.19
211.007	931.44
211.225	1600
211.442	-9228.57
211.66	-2515.28
211.878	-1228.47
212.095	431.13
212.313	458.36
212.53	688.3
212.748	389.01
212.966	382.82
213.183	345.08
213.401	351.43
213.618	297.93
213.836	355.08
214.053	356.34
214.271	327.43
214.488	1664.71
214.705	878.9
214.923	656.77
215.14	695.02
215.358	554.46
215.575	861.79
215.793	958.9
216.01	1311.04
216.227	459.79
216.445	361.73
216.662	422.43
216.879	454.62
217.097	385.04
217.314	416.7
217.531	511.5
217.749	596.53
217.966	739.67
218.183	579.89
218.4	705.86
218.618	850
218.835	874.38
219.052	583.51
219.269	510.42
219.487	835.07
219.704	599.54
219.921	443.91
220.138	315.78
220.355	303.71
220.572	319
220.79	350.92
221.007	420.6
221.224	561.09
221.441	502.32
221.658	542.28
221.875	371.37
222.092	352.14
222.309	544.2
222.526	641.94
222.743	584.01
222.96	839.62
223.177	421.66
223.394	439.51
223.611	298.85
223.828	349.43
224.045	380.21
224.262	443.41
224.479	325.68
224.696	244.07
224.913	284.26
225.13	246.95
225.347	185.34
225.564	160.88
225.781	136.38
225.997	144.61
226.214	116.09
226.431	103.86
226.648	85.4
226.865	74.52
227.082	68.55
227.298	56.28
227.515	46.04
227.732	48.41
227.949	47.8
228.165	42.9
228.382	36.39
228.599	38.33
228.816	37.01
229.032	41.64
229.249	42.12
229.466	47.52
229.682	48.44
229.899	53.12
230.116	53.12
230.332	55.2
230.549	61.44
230.765	66.06
230.982	66.31
231.199	70.06
231.415	72.32
231.632	76.87
231.848	74.6
232.065	85.52
232.281	84.79
232.498	95.03
232.714	99.07
232.931	95.45
233.147	90.4
233.364	100.21
233.58	95.47
233.797	97.1
234.013	93.76
234.23	97.69
234.446	96
234.662	92.26
234.879	89.43
235.095	90.77
235.312	96.09
235.528	103.11
235.744	104.87
235.961	108.4
236.177	97.48
236.393	110.37
236.61	113.93
236.826	113.07
237.042	118.2
237.258	113.51
237.475	103.78
237.691	101.07
237.907	95.24
238.123	94.4
238.339	88.32
238.556	92.48
238.772	81.48
238.988	73.75
239.204	74.17
239.42	71.57
239.636	69.66
239.853	68.27
240.069	63.39
240.285	61.79
240.501	55.22
240.717	53.56
240.933	48.28
241.149	43.37
241.365	41.03
241.581	37.97
241.797	34.97
242.013	34.79
242.229	33.62
242.445	34.53
242.661	34.14
242.877	34.69
243.093	34.52
243.309	35.46
243.525	39.8
243.741	40.43
243.957	39.67
244.173	41.64
244.388	39.96
244.604	38.99
244.82	36.64
245.036	32.7
245.252	31.35
245.468	28.1
245.683	25.99
245.899	23.4
246.115	22.35
246.331	21.65
246.547	20.54
246.762	19.43
246.978	19.39
247.194	18.38
247.409	18.61
247.625	18.11
247.841	19.55
248.057	21.2
248.272	22.58
248.488	24.77
248.703	26.13
248.919	28.28
249.135	32.4
249.35	33
249.566	37.25
249.782	40.33
249.997	40.69
250.213	37.98
250.428	35.61
250.644	35.26
250.859	33.53
251.075	33.26
251.29	33.4
251.506	32.83
251.721	34.97
251.937	35.21
252.152	35.15
252.368	36.81
252.583	41.83
252.798	44.67
253.014	44.22
253.229	44.18
253.445	45.2
253.66	47.43
253.875	49.12
254.091	52.5
254.306	53.69
254.521	57.9
254.737	60.42
254.952	58.09
255.167	57.57
255.383	56.8
255.598	56.51
255.813	55.25
256.028	54.19
256.244	52.38
256.459	46.01
256.674	44.47
256.889	40.36
257.104	34.7
257.32	31.64
257.535	28.48
257.75	26.2
257.965	25.16
258.18	23.39
258.395	20.73
258.61	18.67
258.826	19.41
259.041	18.47
259.256	18.15
259.471	18.48
259.686	18
259.901	17.56
260.116	17.73
260.331	17.74
260.546	18.34
260.761	18.94
260.976	20.16
261.191	20.36
261.406	21.84
261.621	24.07
261.836	26.82
262.05	27.81
262.265	29.04
262.48	30.39
262.695	30.36
262.91	30.78
263.125	31.37
263.34	32.6
263.555	34.39
263.769	33.83
263.984	31.22
264.199	30.72
264.414	31.05
264.629	30.86
264.843	30.39
265.058	30.81
265.273	28.77
265.488	27.79
265.702	27.04
265.917	26.54
266.132	25.05
266.346	25.45
266.561	22.57
266.776	22.3
266.99	23.49
267.205	23.61
267.42	23.31
267.634	24.18
267.849	24.28
268.063	24.08
268.278	23.91
268.492	25.14
268.707	25.03
268.922	26.24
269.136	26.23
269.351	24.04
269.565	23.38
269.78	21.84
269.994	22.53
270.209	21.97
270.423	22
270.637	20.65
270.852	18.85
271.066	20.17
271.281	20.1
271.495	19.19
271.709	19.97
271.924	19.58
272.138	21.8
272.353	22.31
272.567	22.89
272.781	22.08
272.996	22.35
273.21	22.59
273.424	22.43
273.638	23.83
273.853	24.81
274.067	25.9
274.281	28.68
274.495	27.28
274.71	26.57
274.924	26.93
275.138	26.82
275.352	26.9
275.566	27.84
275.781	26.3
275.995	24.22
276.209	25
276.423	26.26
276.637	24.04
276.851	26.41
277.065	24.85
277.279	25.56
277.493	25.01
277.707	23.38
277.921	23.56
278.135	24.62
278.349	26.39
278.563	25.81
278.777	24.5
278.991	24.87
279.205	23.17
279.419	23.12
279.633	23.73
279.847	23.49
280.061	26
280.275	25.46
280.489	24.24
280.703	20.69
280.917	20.41
281.131	19.32
281.344	19.71
281.558	20.27
281.772	20.6
281.986	19.66
282.2	20.18
282.414	17.5
282.627	17.21
282.841	17.06
283.055	19.05
283.269	18.56
283.482	17.98
283.696	16.19
283.91	15.09
284.123	14.26
284.337	13.87
284.551	13.61
284.764	15.1
284.978	14.79
285.192	14.78
285.405	14.93
285.619	15.35
285.833	16.29
286.046	16.8
286.26	17.55
286.473	18.71
286.687	18.91
286.9	19.51
287.114	20.81
287.327	20.83
287.541	21.11
287.754	21.29
287.968	21.32
288.181	20.62
288.395	20.25
288.608	20.92
288.822	21.49
289.035	20.92
289.248	20.82
289.462	19.75
289.675	20.74
289.889	20.35
290.102	18.62
290.315	18.47
290.529	18.57
290.742	18.72
290.955	18.72
291.169	18.72
291.382	19.4
291.595	19.11
291.808	18.45
292.022	17.74
292.235	18.8
292.448	20.25
292.661	19.77
292.875	21.46
293.088	22.15
293.301	21.56
293.514	20.27
293.727	18.87
293.94	18.37
294.153	19.55
294.367	19.73
294.58	17.73
294.793	17.49
295.006	18.39
295.219	17.21
295.432	16.86
295.645	15.49
295.858	16.11
296.071	16.18
296.284	16.37
296.497	15.68
296.71	15.47
296.923	16.67
297.136	16.23
297.349	15.46
297.562	15.72
297.775	16.57
297.988	16.57
298.201	16.48
298.414	16.4
298.626	16.52
298.839	16.33
299.052	15.77
299.265	15.83
299.478	16.9
299.691	17.4
299.903	17.22
300.116	16.33
300.329	16.96
300.542	17.09
300.755	18.58
300.967	18.48
301.18	18.72
301.393	20.13
301.605	20.45
301.818	18.73
302.031	19.47
302.243	20.01
302.456	20.73
302.669	22.18
302.881	21.97
303.094	21.56
303.307	22.84
303.519	23.77
303.732	23.57
303.944	22.63
304.157	24.28
304.37	24
304.582	23.58
304.795	23.57
305.007	22.46
305.22	22.27
305.432	21.92
305.645	21.32
305.857	20.67
306.069	21.19
306.282	21.03
306.494	20.29
306.707	20.34
306.919	21.04
307.132	20.1
307.344	21.66
307.556	21.67
307.769	22.41
307.981	22.36
308.193	21.78
308.406	21.01
308.618	21.93
308.83	22.61
309.043	21.49
309.255	21.84
309.467	21.74
309.679	19.92
309.892	19.2
310.104	18.53
310.316	18.34
310.528	17.77
310.74	16.41
310.953	15.93
311.165	15.64
311.377	16.77
311.589	16.72
311.801	17.32
312.013	18.58
312.225	21.18
312.437	20.96
312.649	20.94
312.862	22.21
313.074	21.83
313.286	22.62
313.498	24.19
313.71	22.42
313.922	22.02
314.134	22.07
314.346	21.54
314.558	18.82
314.77	18.38
314.982	19.56
315.193	18.97
315.405	22.57
315.617	20.58
315.829	20.99
316.041	21.34
316.253	19.59
316.465	20.09
316.677	20.53
316.888	22.54
317.1	23.71
317.312	23.16
317.524	24.1
317.736	23.57
317.947	26.73
318.159	24.86
318.371	25.69
318.583	27.3
318.794	26.67
319.006	26.03
319.218	24.9
319.43	25.2
319.641	24.86
319.853	24.44
320.064	25.26
320.276	24.1
320.488	24.41
320.699	24.38
320.911	25.83
321.123	27.02
321.334	28.82
321.546	29.64
321.757	29.5
321.969	30.25
322.18	29.95
322.392	28.33
322.603	28.21
322.815	27.44
323.026	27.18
323.238	26.27
323.449	23.25
323.661	22.23
323.872	21.33
324.083	21.65
324.295	20.66
324.506	21.01
324.718	20.3
324.929	19.76
325.14	21.06
325.352	22.19
325.563	23.49
325.774	23.77
325.986	23.88
326.197	23.3
326.408	24.22
326.62	23.53
326.831	23.59
327.042	23.28
327.253	23.55
327.464	23.34
327.676	21.93
327.887	20.43
328.098	22.48
328.309	22.84
328.52	24.95
328.732	24.34
328.943	25.64
329.154	26.39
329.365	28.42
329.576	29.3
329.787	28.54
329.998	30.1
330.209	28.1
330.42	26.8
330.631	27.48
330.842	26.21
331.053	26.57
331.264	27.39
331.475	26.29
331.686	25.93
331.897	24.73
332.108	24.08
332.319	23.18
332.53	23.62
332.741	23.57
332.952	21.77
333.163	22.4
333.374	21.26
333.585	20.12
333.795	21.56
334.006	21.04
334.217	21.95
334.428	20.82
334.639	20.94
334.849	21.43
335.06	21.61
335.271	22.23
335.482	22.22
335.692	21.62
335.903	22.1
336.114	21.74
336.325	22.12
336.535	21.2
336.746	24.24
336.957	25.86
337.167	25.53
337.378	26.3
337.589	25.41
337.799	25.42
338.01	27.31
338.22	27.47
338.431	27.26
338.642	25.88
338.852	25.93
339.063	24.95
339.273	22.99
339.484	24.63
339.694	24.77
339.905	25.36
340.115	23.98
340.326	22.7
340.536	23.14
340.746	23.47
340.957	24.28
341.167	24.68
341.378	24.6
341.588	24.99
341.799	24.38
342.009	23.76
342.219	25.01
342.43	25.48
342.64	25.81
342.85	24.85
343.061	23.93
343.271	23.88
343.481	23.62
343.691	22.72
343.902	22.68
344.112	22.37
344.322	22.15
344.532	21.53
344.743	22.08
344.953	21.44
345.163	21.4
345.373	21.25
345.583	21.51
345.793	20.97
346.004	21.53
346.214	21.15
346.424	21.42
346.634	21.35
346.844	20.58
347.054	20.61
347.264	21.78
347.474	22.79
347.684	22.7
347.894	22.61
348.104	23.41
348.314	22.57
348.524	22.93
348.734	22.56
348.944	22.59
349.154	23.42
349.364	21.96
349.574	20.29
349.784	19.38
349.994	19.78
350.204	19.53
350.413	19.43
350.623	19.66
350.833	18.01
351.043	17.91
351.253	18.39
351.463	17.99
351.672	18.21
351.882	19.89
352.092	20.5
352.302	19.43
352.511	19.79
352.721	18.64
352.931	19.04
353.141	20.18
353.35	19.95
353.56	20.38
353.77	20.19
353.979	21.21
354.189	19.41
354.399	18.47
354.608	19.68
354.818	18.52
355.027	18.68
355.237	18.51
355.447	17.88
355.656	17.98
355.866	16.59
356.075	16.54
356.285	16.17
356.494	16.92
356.704	16.77
356.913	15.91
357.123	16.62
357.332	16.55
357.542	16.24
357.751	16.92
357.96	17.75
358.17	17.52
358.379	17.92
358.589	17.21
358.798	16.7
359.007	16.87
359.217	16.03
359.426	15.6
359.635	15.83
359.845	15.51
360.054	14.87
360.263	14.41
360.472	14.76
360.682	13.87
360.891	14.41
361.1	14.28
361.309	13.85
361.519	14.32
361.728	14.46
361.937	14.43
362.146	15.57
362.355	16.25
362.564	16.48
362.774	16.65
362.983	16.86
363.192	17.21
363.401	17.47
363.61	18.23
363.819	18.75
364.028	18.28
364.237	18.29
364.446	17.33
364.655	16.73
364.864	16.28
365.073	16.54
365.282	16.82
365.491	16.37
365.7	16.46
365.909	16.44
366.118	15.38
366.327	15.43
366.536	16.84
366.745	16.86
366.954	17.73
367.162	18.11
367.371	18.15
367.58	18.33
367.789	19.12
367.998	19.23
368.207	19.67
368.415	21.31
368.624	21.86
368.833	21
369.042	21.22
369.25	21.75
369.459	20.85
369.668	19.6
369.877	18.82
370.085	18.4
370.294	18.19
370.503	17.18
370.711	16.1
370.92	15.87
371.129	16.07
371.337	15.8
371.546	14.23
371.754	15.3
371.963	16.58
372.171	17.04
372.38	16.03
372.589	16.1
372.797	16.56
373.006	17.15
373.214	17.17
373.423	16.71
373.631	16.73
373.84	16.85
374.048	15.81
374.256	15.16
374.465	14.9
374.673	15.67
374.882	14.98
375.09	14.35
375.298	14.82
375.507	14.71
375.715	14.67
375.923	14.06
376.132	13.87
376.34	14.22
376.548	14.61
376.757	15.11
376.965	15.33
377.173	15.35
377.381	15.99
377.59	15.47
377.798	14.87
378.006	14.42
378.214	15.59
378.423	15.74
378.631	14.85
378.839	14.09
379.047	14.5
379.255	13.69
379.463	14.14
379.671	14.04
379.879	13.96
380.088	15.36
380.296	15.6
380.504	15.8
380.712	15.86
380.92	16.8
381.128	17.54
381.336	16.67
381.544	16.94
381.752	16.64
381.96	16.45
382.168	16.67
382.376	15.8
382.584	15.26
382.791	14.19
382.999	15.07
383.207	14.78
383.415	14.45
383.623	14.02
383.831	13.49
384.039	13.85
384.247	14.71
384.454	14.55
384.662	13.99
384.87	14.73
385.078	14.56
385.285	13.65
385.493	13.5
385.701	13.36
385.909	13.73
386.116	14.38
386.324	14.13
386.532	13.23
386.739	12.82
386.947	13.08
387.155	13.8
387.362	14
387.57	13.74
387.778	14.46
387.985	14.36
388.193	14.41
388.4	14.72
388.608	14.48
388.816	14.1
389.023	13.94
389.231	14.06
389.438	12.9
389.646	12.95
389.853	13.33
390.061	12.67
390.268	12.74
390.475	12.72
390.683	11.04
390.89	11.66
391.098	11.95
391.305	12.46
391.512	11.8
391.72	11.47
391.927	11.53
392.135	11.54
392.342	11.3
392.549	11.39
392.756	11.26
392.964	12.53
393.171	12.68
393.378	12.97
393.586	12.57
393.793	12.43
394	13.17
394.207	13.43
394.414	13.36
394.622	13.49
394.829	13.35
395.036	13.65
395.243	13.86
395.45	13.47
395.657	13.93
395.864	13.59
396.072	14.8
396.279	14.5
396.486	14.68
396.693	15.55
396.9	15.81
397.107	16.5
397.314	16.32
397.521	15.87
397.728	16.06
397.935	14.51
398.142	15.11
398.349	14.49
398.556	13.92
398.763	13.36
398.97	12.53
399.177	12.22
399.383	11.86
399.59	12.28
399.797	12.28
400.004	11.85
400.211	12.26
400.418	12.49
400.625	13.12
400.831	13.64
401.038	13.79
401.245	13.77
401.452	13.86
401.658	13.09
401.865	12.78
402.072	12.85
402.279	12.65
402.485	12.87
402.692	12.11
402.899	11.67
403.105	11.34
403.312	11.28
403.519	11.18
403.725	10.76
403.932	11.06
404.138	10.92
404.345	10.57
404.552	10.46
404.758	10.67
404.965	10.44
405.171	10.77
405.378	10.8
405.584	10.58
405.791	10.75
405.997	11.15
406.204	11.12
406.41	10.98
406.617	11.13
406.823	11.58
407.029	11.23
407.236	11.47
407.442	11.09
407.649	11.64
407.855	12.02
408.061	12.25
408.268	12.2
408.474	12.38
408.68	11.72
408.887	12.15
409.093	12.28
409.299	12.6
409.505	12.74
409.712	12.58
409.918	12.28
410.124	11.89
410.33	11.32
410.537	11.09
410.743	10.98
410.949	12.07
411.155	11.05
411.361	10.9
411.567	10.65
411.773	10.71
411.98	10.83
412.186	10.34
412.392	10.38
412.598	10.22
412.804	10.56
413.01	10.81
413.216	10.76
413.422	11.17
413.628	10.82
413.834	10.83
414.04	11.14
414.246	11.27
414.452	11.71
414.658	11.9
414.864	11.99
415.07	12.11
415.275	12.22
415.481	12
415.687	12.37
415.893	12.48
416.099	12.35
416.305	12.03
416.511	11.86
416.716	11.4
416.922	11.19
417.128	11.18
417.334	11.02
417.539	10.53
417.745	10.27
417.951	9.44
418.157	9.05
418.362	8.8
418.568	8.6
418.774	8.25
418.979	8.32
419.185	8.22
419.391	8.3
419.596	7.86
419.802	7.85
420.008	7.69
420.213	10.19
420.419	10.05
420.624	10.17
420.83	10.24
421.035	10.33
421.241	10.06
421.446	9.99
421.652	9.74
421.857	9.71
422.063	9.72
422.268	9.7
422.474	7.61
422.679	7.61
422.885	7.58
423.09	7.31
423.295	7.24
423.501	7.49
423.706	7.47
423.911	7.43
424.117	7.58
424.322	7.4
424.527	7.5
424.733	7.51
424.938	7.81
425.143	7.59
425.349	7.73
425.554	7.97
425.759	7.83
425.964	7.95
426.169	7.99
426.375	7.95
426.58	8.25
426.785	8.08
426.99	8.12
427.195	8.06
427.4	7.99
427.605	8.16
427.811	7.72
428.016	7.69
428.221	7.75
428.426	7.97
428.631	8.31
428.836	8.03
429.041	8.45
429.246	8.77
429.451	9.19
429.656	9.68
429.861	9.42
430.066	9.9
430.271	10.16
430.476	9.9
430.681	9.89
430.886	9.65
431.09	9.64
431.295	9.2
431.5	8.89
431.705	8.59
431.91	8.18
432.115	8.29
432.32	8.32
432.524	8.34
432.729	8.43
432.934	8.23
433.139	8.13
433.343	8.31
433.548	8.34
433.753	8.12
433.958	8.2
434.162	8.49
434.367	8.66
434.572	8.5
434.776	8.42
434.981	8.7
435.186	8.75
435.39	9.29
435.595	9.5
435.799	9.24
436.004	9.05
436.209	9.06
436.413	8.69
436.618	8.71
436.822	8.88
437.027	8.8
437.231	8.12
437.436	8.19
437.64	7.75
437.845	7.35
438.049	7.72
438.253	8.04
438.458	7.78
438.662	7.93
438.867	7.74
439.071	7.62
439.275	7.64
439.48	8.12
439.684	7.93
439.888	7.7
440.093	7.94
440.297	7.68
440.501	7.67
440.706	7.77
440.91	7.95
441.114	7.91
441.318	8.04
441.523	8.15
441.727	7.97
441.931	7.93
442.135	8.09
442.339	8.05
442.543	8.51
442.748	8.77
442.952	8.89
443.156	8.63
443.36	8.51
443.564	8.69
443.768	8.22
443.972	8.63
444.176	8.78
444.38	8.93
444.584	8.61
444.788	8.17
444.992	7.69
445.196	7.44
445.4	7.31
445.604	7.39
445.808	7.02
446.012	7.42
446.216	7.01
446.42	6.9
446.624	6.99
446.828	7.09
447.032	7.28
447.235	7.46
447.439	7.34
447.643	7.53
447.847	7.87
448.051	7.97
448.254	7.62
448.458	7.73
448.662	7.72
448.866	7.6
449.069	7.75
449.273	7.64
449.477	7.31
449.681	7.76
449.884	7.62
450.088	7.46
450.292	7.27
450.495	7.36
450.699	7.4
450.902	7.75
451.106	7.68
451.31	7.67
451.513	8.12
451.717	8.47
451.92	8.35
452.124	8.57
452.327	8.38
452.531	8.72
452.734	9.07
452.938	9.18
453.141	9.1
453.345	9.53
453.548	9.45
453.752	9.1
453.955	9.62
454.158	9.26
454.362	9.23
454.565	9.71
454.769	9.75
454.972	9.87
455.175	9.58
455.379	9.59
455.582	8.83
455.785	9.05
455.988	8.92
456.192	8.5
456.395	8.88
456.598	8.64
456.801	8.43
457.005	8.29
457.208	8.23
457.411	8.12
457.614	8.07
457.817	8.48
458.021	8.47
458.224	8.5
458.427	8.39
458.63	8.48
458.833	8.38
459.036	7.9
459.239	7.75
459.442	7.35
459.645	7.32
459.848	7.36
460.051	7.16
460.254	7.06
460.457	6.96
460.66	6.88
460.863	6.56
461.066	6.63
461.269	7.11
461.472	7.13
461.675	7.25
461.878	7.59
462.081	7.7
462.284	7.74
462.486	7.82
462.689	8.32
462.892	8.83
463.095	9.22
463.298	9.5
463.5	9.28
463.703	9.22
463.906	9.61
464.109	9.58
464.311	9.42
464.514	9.87
464.717	9.54
464.92	9.24
465.122	8.84
465.325	8.52
465.528	8.64
465.73	8.66
465.933	8.84
466.135	8.92
466.338	8.81
466.541	8.84
466.743	8.52
466.946	8.55
467.148	8.76
467.351	8.74
467.553	8.74
467.756	8.92
467.958	8.66
468.161	8.41
468.363	8.21
468.566	8.25
468.768	8.57
468.971	8.64
469.173	8.85
469.375	8.46
469.578	8.16
469.78	8.22
469.983	7.87
470.185	8.28
470.387	8.83
470.59	8.95
470.792	8.94
470.994	8.54
471.196	8.36
471.399	8.42
471.601	8.94
471.803	9.21
472.005	9.3
472.208	9.15
472.41	8.37
472.612	8.15
472.814	7.89
473.016	7.84
473.218	7.86
473.421	8
473.623	7.81
473.825	7.45
474.027	7.7
474.229	7.77
474.431	7.82
474.633	8.33
474.835	8.43
475.037	8.54
475.239	8.39
475.441	8.44
475.643	8.74
475.845	8.58
476.047	8.45
476.249	8.25
476.451	7.82
476.653	7.85
476.855	7.8
477.057	7.54
477.258	7.46
477.46	7.64
477.662	7.58
477.864	7.2
478.066	7.29
478.268	7.5
478.469	7.07
478.671	7.38
478.873	7.41
479.075	7.53
479.276	7.65
479.478	7.49
479.68	7.54
479.882	7.32
480.083	7.39
480.285	7.37
480.487	7.39
480.688	7.75
480.89	7.7
481.091	7.4
481.293	7.06
481.495	6.77
481.696	6.8
481.898	6.57
482.099	6.46
482.301	6.21
482.502	6.01
482.704	5.77
482.905	5.53
483.107	5.39
483.308	5.31
483.51	5.2
483.711	5.22
483.913	5.16
484.114	5.13
484.315	5.14
484.517	5.1
484.718	5.1
484.92	5.07
485.121	5.17
485.322	5.23
485.524	5.27
485.725	5.49
485.926	5.5
486.127	5.5
486.329	5.54
486.53	5.49
486.731	5.52
486.932	5.56
487.134	5.6
487.335	5.51
487.536	5.44
487.737	5.52
487.938	5.46
488.139	5.37
488.341	5.4
488.542	5.34
488.743	5.42
488.944	5.63
489.145	5.6
489.346	5.78
489.547	5.78
489.748	5.84
489.949	5.82
490.15	5.96
490.351	5.94
490.552	6.08
490.753	6.12
490.954	6.04
491.155	5.88
491.356	6.06
491.557	5.97
491.758	6.18
491.959	6.12
492.159	6.2
492.36	6.12
492.561	6.34
492.762	6.2
492.963	6.39
493.164	6.44
493.364	6.6
493.565	6.77
493.766	6.82
493.967	6.75
494.167	7.12
494.368	6.92
494.569	7.04
494.769	7.15
494.97	7.28
495.171	7.48
495.371	7.72
495.572	7.69
495.773	7.5
495.973	7.59
496.174	7.6
496.375	7.64
496.575	7.97
496.776	7.91
496.976	7.65
497.177	7.48
497.377	7.26
497.578	7.24
497.778	7.31
497.979	7.55
498.179	7.5
498.38	7.44
498.58	7.3
498.78	7.1
498.981	7.27
499.181	7.52
499.382	7.77
499.582	7.46
499.782	7.46
499.983	7.57
500.183	7.46
500.383	7.34
500.584	7.42
500.784	7.59
500.984	7.78
501.184	7.53
501.385	7.64
501.585	7.63
501.785	8.24
501.985	8.34
502.185	8.38
502.386	8.16
502.586	8.35
502.786	8.46
502.986	8.46
503.186	8.52
503.386	8.89
503.586	8.71
503.786	8.71
503.987	8.34
504.187	8.53
504.387	8.63
504.587	8.44
504.787	8.48
504.987	8.7
505.187	8.59
505.387	8.37
505.587	8.15
505.786	8.53
505.986	8.85
506.186	8.98
506.386	8.87
506.586	8.77
506.786	8.83
506.986	8.76
507.186	8.63
507.386	8.69
507.585	8.86
507.785	9.02
507.985	8.79
508.185	8.55
508.384	8.59
508.584	8.4
508.784	8.27
508.984	8.47
509.183	8.69
509.383	8.78
509.583	8.69
509.782	8.91
509.982	9.05
510.182	8.91
510.381	8.95
510.581	8.91
510.781	9
510.98	9.03
511.18	9.09
511.379	9.04
511.579	8.64
511.778	8.76
511.978	8.66
512.177	8.49
512.377	8.64
512.576	8.55
512.776	8.67
512.975	8.73
513.175	8.97
513.374	9.01
513.573	8.99
513.773	9.46
513.972	9.45
514.172	9.33
514.371	9.59
514.57	9.5
514.77	9.51
514.969	9.67
515.168	9.75
515.367	9.71
515.567	9.93
515.766	10.18
515.965	10.26
516.164	10.56
516.364	10.61
516.563	10.44
516.762	10.64
516.961	10.85
517.16	11.01
517.359	10.96
517.559	10.96
517.758	10.81
517.957	10.75
518.156	10.7
518.355	10.49
518.554	10.72
518.753	10.72
518.952	10.65
519.151	10.65
519.35	10.51
519.549	10.52
519.748	10.47
519.947	10.71
520.146	10.85
520.345	10.88
520.544	11
520.743	11.04
520.942	11.34
521.141	11.52
521.339	11.6
521.538	11.63
521.737	11.79
521.936	11.74
522.135	11.44
522.333	11.41
522.532	11.29
522.731	11.39
522.93	11.31
523.129	10.85
523.327	11.01
523.526	11.09
523.725	11.08
523.923	10.97
524.122	11.05
524.321	11.01
524.519	10.89
524.718	10.98
524.917	11.05
525.115	11.14
525.314	11.33
525.512	11.21
525.711	10.99
525.909	11.01
526.108	10.93
526.306	10.98
526.505	11.09
526.703	11.1
526.902	11.09
527.1	10.9
527.299	10.74
527.497	10.67
527.696	10.62
527.894	10.65
528.092	10.56
528.291	10.6
528.489	10.49
528.688	10.41
528.886	10.31
529.084	10.24
529.283	10.33
529.481	10.41
529.679	10.5
529.877	10.52
530.076	10.59
530.274	10.79
530.472	11.03
530.67	11.22
530.869	11.47
531.067	11.74
531.265	11.83
531.463	11.96
531.661	12.05
531.859	12.02
532.057	12.11
532.255	12.21
532.454	11.97
532.652	11.81
532.85	11.88
533.048	11.8
533.246	11.79
533.444	11.98
533.642	11.99
533.84	11.97
534.038	12.04
534.236	12.13
534.434	12.1
534.632	12.34
534.83	12.61
535.027	12.64
535.225	12.92
535.423	13
535.621	12.86
535.819	12.73
536.017	12.64
536.215	12.62
536.412	12.63
536.61	12.74
536.808	12.81
537.006	12.65
537.203	13.03
537.401	12.96
537.599	12.86
537.797	13.02
537.994	13.21
538.192	13.52
538.39	13.6
538.587	13.54
538.785	13.86
538.983	13.77
539.18	13.85
539.378	13.61
539.575	13.66
539.773	13.72
539.97	13.78
540.168	13.75
540.366	13.64
540.563	13.67
540.761	13.62
540.958	13.46
541.155	13.56
541.353	13.61
541.55	13.53
541.748	13.61
541.945	13.81
542.143	13.8
542.34	13.94
542.537	13.97
542.735	14.02
542.932	14.34
543.129	14.53
543.327	14.81
543.524	14.93
543.721	15.13
543.919	15.33
544.116	15.42
544.313	15.61
544.51	15.73
544.708	16.03
544.905	16.29
545.102	16.42
545.299	16.51
545.496	16.34
545.693	16.47
545.891	16.64
546.088	16.69
546.285	16.53
546.482	16.54
546.679	16.5
546.876	16.68
547.073	16.89
547.27	16.66
547.467	16.63
547.664	17.04
547.861	17.15
548.058	17.24
548.255	17.25
548.452	17.81
548.649	18.34
548.846	18.48
549.043	18.55
549.24	18.88
549.437	19.31
549.633	19.52
549.83	19.32
550.027	19.56
550.224	19.69
550.421	19.95
550.618	19.95
550.814	19.54
551.011	20.05
551.208	20.15
551.405	19.8
551.601	19.77
551.798	19.72
551.995	19.46
552.191	19.56
552.388	19.58
552.585	19.54
552.781	19.57
552.978	19.95
553.175	19.71
553.371	19.9
553.568	20.12
553.764	20.24
553.961	20.58
554.157	21.33
554.354	21.08
554.55	21.29
554.747	21.47
554.943	21.22
555.14	21.31
555.336	21.57
555.533	21.34
555.729	21.18
555.926	21.52
556.122	21.38
556.318	21.19
556.515	21.61
556.711	21.4
556.907	21.43
557.104	21.73
557.3	21.93
557.496	21.73
557.693	22.1
557.889	22.75
558.085	22.75
558.281	23
558.478	23.2
558.674	23.46
558.87	23.9
559.066	23.95
559.262	24.08
559.459	23.83
559.655	24.27
559.851	24.59
560.047	24.55
560.243	24.48
560.439	24.77
560.635	24.35
560.831	23.99
561.027	24.08
561.223	24.07
561.419	24.19
561.615	24.73
561.811	24.82
562.007	24.77
562.203	24.47
562.399	24.72
562.595	24.48
562.791	24.97
562.987	25.58
563.183	26.05
563.379	26.37
563.575	26.66
563.771	26.26
563.966	26.43
564.162	26.04
564.358	26.18
564.554	25.99
564.75	26.02
564.945	25.86
565.141	25.38
565.337	25.23
565.533	25.44
565.728	25.2
565.924	25.54
566.12	25.57
566.315	25.68
566.511	25.68
566.707	25.95
566.902	26.05
567.098	26.51
567.293	26.89
567.489	26.53
567.684	26.28
567.88	26.69
568.076	26.77
568.271	26.71
568.467	27.12
568.662	27.39
568.858	27.61
569.053	27.93
569.248	27.73
569.444	28.08
569.639	28.54
569.835	28.68
570.03	28.61
570.225	28.53
570.421	28.47
570.616	28.36
570.812	28.37
571.007	28.4
571.202	28.24
571.397	28.33
571.593	28.23
571.788	28.2
571.983	28.46
572.178	28.61
572.374	28.53
572.569	28.4
572.764	28.63
572.959	28.7
573.154	28.72
573.35	29.16
573.545	29.34
573.74	29.49
573.935	29.88
574.13	29.95
574.325	29.96
574.52	30.24
574.715	31.1
574.91	31.05
575.105	31.35
575.3	31.52
575.495	31.58
575.69	31.44
575.885	31.68
576.08	31.79
576.275	31.82
576.47	32.07
576.665	32.48
576.86	32.23
577.055	32.47
577.25	32.25
577.444	32.06
577.639	32.09
577.834	32.52
578.029	32.67
578.224	32.19
578.418	32.49
578.613	32.64
578.808	32.54
579.003	32.92
579.197	33.04
579.392	33.31
579.587	33.58
579.781	33.56
579.976	33.72
580.171	33.66
580.365	33.93
580.56	33.81
580.755	33.6
580.949	33.29
581.144	33.18
581.338	33.04
581.533	33.27
581.727	33.58
581.922	33.76
582.116	34.06
582.311	33.74
582.505	34.16
582.7	34.37
582.894	34.93
583.089	35.34
583.283	35.8
583.478	36.22
583.672	36.16
583.866	35.9
584.061	35.75
584.255	35.85
584.449	35.84
584.644	35.47
584.838	35.41
585.032	35.62
585.226	35.92
585.421	35.75
585.615	35.85
585.809	36.28
586.003	36.49
586.198	36.6
586.392	36.67
586.586	37.16
586.78	37.53
586.974	37.8
587.168	37.16
587.363	37.04
587.557	37.07
587.751	37.39
587.945	37.16
588.139	37.1
588.333	37.49
588.527	37.13
588.721	36.88
588.915	36.75
589.109	36.2
589.303	36.51
589.497	36.49
589.691	36.31
589.885	35.71
590.079	35.48
590.273	35.65
590.466	35.55
590.66	35.93
590.854	36.2
591.048	36.17
591.242	36.75
591.436	36.65
591.629	37.09
591.823	37.46
592.017	37.95
592.211	38.38
592.404	38.7
592.598	38.37
592.792	37.66
592.986	38.01
593.179	37.82
593.373	37.48
593.567	37.5
593.76	36.66
593.954	36.18
594.147	35.98
594.341	35.66
594.535	35.44
594.728	35.88
594.922	36.23
595.115	35.68
595.309	36.03
595.502	36.46
595.696	36.29
595.889	36.81
596.083	37.04
596.276	36.91
596.47	37.08
596.663	37.33
596.856	37.56
597.05	37.59
597.243	37.97
597.437	38.06
597.63	37.76
597.823	38.36
598.017	38.17
598.21	38.07
598.403	38.59
598.596	39.09
598.79	39.19
598.983	38.83
599.176	38.97
599.369	38.75
599.563	38.54
599.756	38.97
599.949	38.91
600.142	39.19
600.335	39.1
600.528	39.23
600.722	38.4
600.915	37.84
601.108	38.02
601.301	38.47
601.494	38.5
601.687	38.95
601.88	39.07
602.073	38.91
602.266	38.67
602.459	39
602.652	38.7
602.845	38.86
603.038	39.18
603.231	39.01
603.424	38.88
603.617	39.14
603.809	38.83
604.002	38.58
604.195	38.66
604.388	38.74
604.581	38.69
604.774	38.61
604.966	38.75
605.159	38.84
605.352	38.9
605.545	38.97
605.737	38.78
605.93	39.05
606.123	39.28
606.316	39.08
606.508	39.13
606.701	39.38
606.894	39.66
607.086	39.87
607.279	40.01
607.471	40
607.664	40.04
607.857	39.83
608.049	39.79
608.242	39.6
608.434	39.86
608.627	39.7
608.819	39.49
609.012	39.52
609.204	39.31
609.397	38.96
609.589	39.28
609.782	39.02
609.974	38.84
610.166	39.01
610.359	38.93
610.551	39.24
610.743	39.84
610.936	39.84
611.128	39.92
611.32	40.25
611.513	40.88
611.705	40.92
611.897	41.4
612.09	42.34
612.282	42.46
612.474	43.36
612.666	42.92
612.858	43.19
613.051	43.37
613.243	43.4
613.435	43.31
613.627	42.94
613.819	42.76
614.011	43.72
614.203	43.87
614.395	43.97
614.588	43.7
614.78	43.83
614.972	44.02
615.164	44.5
615.356	44.44
615.548	44.63
615.74	44.91
615.932	45.21
616.124	43.9
616.315	44.28
616.507	44.58
616.699	44.9
616.891	44.78
617.083	44.18
617.275	44.04
617.467	44.21
617.659	44.5
617.85	45.1
618.042	45.22
618.234	45.99
618.426	45.66
618.618	45.42
618.809	44.72
619.001	44.81
619.193	45.47
619.384	46.12
619.576	46.48
619.768	46.19
619.959	44.99
620.151	44.91
620.343	44.27
620.534	43.98
620.726	44.02
620.917	43.98
621.109	44.36
621.301	44.09
621.492	43.24
621.684	43.56
621.875	43.77
622.067	44.44
622.258	43.89
622.45	44.68
622.641	44.7
622.832	44.48
623.024	44.64
623.215	44.39
623.407	44.51
623.598	44.82
623.789	44.03
623.981	44.3
624.172	43.99
624.363	44.51
624.555	43.98
624.746	43.7
624.937	43.52
625.129	44.07
625.32	44.94
625.511	44.77
625.702	44.4
625.893	44.41
626.085	43.67
626.276	44.06
626.467	43.75
626.658	44.03
626.849	44.41
627.04	44.53
627.231	43.89
627.422	43.17
627.614	43.45
627.805	43.52
627.996	43.64
628.187	44.06
628.378	44.04
628.569	44.29
628.76	44.42
628.951	44.43
629.142	44.65
629.332	45.2
629.523	44.98
629.714	44.89
629.905	45.18
630.096	45.42
630.287	45.45
630.478	45.6
630.669	45.96
630.859	45.65
631.05	45.35
631.241	45.22
631.432	45.16
631.623	46.01
631.813	45.83
632.004	45.93
632.195	45.28
632.385	45.22
632.576	44.62
632.767	44.19
632.957	44.32
633.148	45.01
633.339	44.91
633.529	44.37
633.72	43.63
633.91	43.54
634.101	43.41
634.292	43.77
634.482	44.1
634.673	44.15
634.863	44.53
635.054	44.7
635.244	44.21
635.435	44.63
635.625	45.56
635.815	45.85
636.006	46.1
636.196	46.11
636.387	46.31
636.577	46.33
636.767	46.57
636.958	46.69
637.148	46.45
637.338	46.61
637.529	46.58
637.719	46.06
637.909	46.31
638.099	46.54
638.29	46.46
638.48	47.04
638.67	47.28
638.86	47.72
639.05	47.26
639.241	47.81
639.431	47.96
639.621	48.58
639.811	48.92
640.001	49.01
640.191	48.85
640.381	49.12
640.571	48.93
640.761	48.66
640.951	48.87
641.141	48.99
641.331	48.74
641.521	48.51
641.711	47.83
641.901	48.15
642.091	47.87
642.281	47.14
642.471	47.22
642.661	46.61
642.851	46.94
643.041	47.01
643.231	47.82
643.42	48.21
643.61	48.4
643.8	48.52
643.99	47.44
644.18	47.22
644.369	48.44
644.559	48.81
644.749	49.44
644.939	49.22
645.128	49.13
645.318	48.83
645.508	48.66
645.697	49.23
645.887	48.9
646.076	49.29
646.266	49.32
646.456	48.78
646.645	48.52
646.835	47.89
647.024	47.46
647.214	47.87
647.403	47.28
647.593	47.05
647.782	47.01
647.972	46.92
648.161	47.45
648.351	47.97
648.54	48.25
648.73	47.99
648.919	47.92
649.108	48.53
649.298	48.5
649.487	48.7
649.677	49.11
649.866	48.5
650.055	48.99
650.244	48.7
650.434	48.1
650.623	48.14
650.812	48.23
651.002	49.2
651.191	49.62
651.38	49.61
651.569	49.63
651.758	49.59
651.947	50.31
652.137	51.02
652.326	51.17
652.515	50.92
652.704	51.17
652.893	51.39
653.082	50.8
653.271	50.45
653.46	50.03
653.649	50.3
653.838	49.75
654.027	49.28
654.216	48.41
654.405	48.67
654.594	49.73
654.783	50
654.972	50.29
655.161	50.38
655.35	49.96
655.539	49.51
655.728	49.48
655.916	49.15
656.105	49.27
656.294	49.39
656.483	49.05
656.672	48.7
656.86	47.55
657.049	47.25
657.238	46.49
657.427	46.23
657.615	46.39
657.804	46.33
657.993	45.88
658.181	45.12
658.37	45.42
658.559	45.37
658.747	44.78
658.936	45.53
659.125	45.73
659.313	46.26
659.502	46.54
659.69	45.98
659.879	46.05
660.067	47.11
660.256	47.54
660.444	48.04
660.633	48.44
660.821	49.11
661.01	48.84
661.198	48.19
661.387	48.26
661.575	48.25
661.763	48.44
661.952	48.3
662.14	47.65
662.328	48.33
662.517	47.45
662.705	46.52
662.893	46.7
663.082	46.57
663.27	47.2
663.458	46.8
663.646	46.98
663.834	47.93
664.023	48.13
664.211	48.09
664.399	48.29
664.587	48.36
664.775	48.72
664.963	49.32
665.152	49.57
665.34	49.62
665.528	49.56
665.716	49.75
665.904	50.21
666.092	49.95
666.28	51.21
666.468	50.23
666.656	50.94
666.844	52.08
667.032	51.5
667.22	51.06
667.408	50.4
667.596	50.54
667.784	50.31
667.971	50.38
668.159	51.14
668.347	50.71
668.535	51.79
668.723	50.54
668.911	50.15
669.098	50.82
669.286	51.02
669.474	51.4
669.662	52.74
669.849	53.25
670.037	53.81
670.225	54
670.413	53.78
670.6	53.49
670.788	54.19
670.976	53.72
671.163	52.5
671.351	52.41
671.538	52.64
671.726	51.88
671.913	51.38
672.101	50.2
672.289	50.35
672.476	49.8
672.664	49.28
672.851	49.43
673.039	50.37
673.226	50.73
673.413	51.3
673.601	51.88
673.788	52.34
673.976	52.55
674.163	52.91
674.35	51.83
674.538	52.49
674.725	53.16
674.912	53.56
675.1	53.07
675.287	53.06
675.474	53.72
675.662	52.66
675.849	52.57
676.036	51.8
676.223	51.83
676.411	51.93
676.598	52.2
676.785	52.61
676.972	52.5
677.159	53.01
677.346	54.36
677.533	53.87
677.721	54.32
677.908	54.54
678.095	55.75
678.282	55.54
678.469	55.62
678.656	54.95
678.843	54.34
679.03	53.23
679.217	53.28
679.404	52.22
679.591	51.22
679.778	51.07
679.964	50.57
680.151	50
680.338	49.76
680.525	49.38
680.712	50.26
680.899	49.43
681.086	50.17
681.272	49.49
681.459	49.95
681.646	49.9
681.833	50
682.02	50
682.206	50.45
682.393	51.06
682.58	51.03
682.766	50.75
682.953	51.98
683.14	51.41
683.326	52.05
683.513	51.47
683.7	51.38
683.886	51.69
684.073	51.49
684.259	51.42
684.446	50.81
684.632	51.84
684.819	52.31
685.005	52.34
685.192	53.16
685.378	54.08
685.565	54.9
685.751	55.92
685.938	55.67
686.124	55.42
686.31	55.93
686.497	56.8
686.683	56.29
686.87	55.79
687.056	55.08
687.242	55.36
687.429	53.75
687.615	52.63
687.801	53.03
687.987	53.35
688.174	54.07
688.36	53.52
688.546	53.02
688.732	53.03
688.918	53.42
689.105	53.52
689.291	53.75
689.477	54.08
689.663	55.16
689.849	54.9
690.035	55.06
690.221	55.14
690.407	55.88
690.593	57.02
690.779	57.81
690.965	57.25
691.151	56.83
691.337	56.5
691.523	56.77
691.709	56.02
691.895	56.12
692.081	56
692.267	56.5
692.453	56.61
692.639	55.02
692.825	54.62
693.011	55.65
693.196	57.47
693.382	57.38
693.568	57.63
693.754	59.21
693.94	59.26
694.125	58.76
694.311	58.22
694.497	56.53
694.682	57.23
694.868	57.42
695.054	57.73
695.239	56.36
695.425	55.94
695.611	54.75
695.796	52.99
695.982	53.03
696.168	53.57
696.353	53.67
696.539	55.09
696.724	54.46
696.91	54.34
697.095	52.78
697.281	52.53
697.466	53.25
697.652	53.67
697.837	53.7
698.023	53.63
698.208	52.39
698.393	52.36
698.579	51.15
698.764	51.33
698.949	50.46
699.135	50.24
699.32	50.49
699.505	50.38
699.691	50.19
699.876	49.95
700.061	49
700.246	49.34
700.432	48.85
700.617	49.98
700.802	49.26
700.987	50.8
701.172	52.04
701.358	52.99
701.543	52.31
701.728	52.31
701.913	54.42
702.098	55.9
702.283	56.7
702.468	57.45
702.653	57.48
702.838	59.18
703.023	59.42
703.208	59.1
703.393	58.5
703.578	60.35
703.763	61.07
703.948	60.38
704.133	60.59
704.318	62.04
704.503	62.01
704.688	62.61
704.873	62.19
705.057	62.02
705.242	61.69
705.427	61.52
705.612	61.58
705.797	60.96
705.981	60.89
706.166	60.15
706.351	59.02
706.536	59.05
706.72	57.98
706.905	58.67
707.09	57.61
707.274	58.29
707.459	60.34
707.644	58.78
707.828	59.05
708.013	58.84
708.197	58.53
708.382	59.36
708.567	59.03
708.751	58.83
708.936	58.31
709.12	58.95
709.305	58.72
709.489	56.48
709.673	56.41
709.858	56.72
710.042	56.42
710.227	56.93
710.411	56.13
710.596	56.9
710.78	56.95
710.964	56.96
711.149	56.35
711.333	56.72
711.517	57.19
711.702	58.2
711.886	58.04
712.07	58.62
712.254	59.05
712.438	59.22
712.623	59.19
712.807	59.74
712.991	59.31
713.175	59.37
713.359	59.58
713.544	59.51
713.728	58.81
713.912	58.53
714.096	58.82
714.28	58.22
714.464	58.15
714.648	57.52
714.832	57.86
715.016	56.84
715.2	57.12
715.384	57.05
715.568	56.78
715.752	56.76
715.936	56.71
716.12	56.03
716.304	56.34
716.488	56.24
716.671	57.26
716.855	56.7
717.039	57.79
717.223	57.35
717.407	57.22
717.59	59.03
717.774	58.45
717.958	58.16
718.142	59.43
718.325	59.91
718.509	60.42
718.693	59.96
718.877	60.78
719.06	61.88
719.244	63.11
719.428	62.35
719.611	62.22
719.795	63.74
719.978	65.53
720.162	63.63
720.345	62.78
720.529	63.1
720.713	63.98
720.896	62.77
721.08	62.68
721.263	63
721.446	64.83
721.63	65.56
721.813	64.99
721.997	65.93
722.18	67.52
722.364	68.68
722.547	68.85
722.73	67.98
722.914	69.02
723.097	70.3
723.28	70.07
723.464	71.64
723.647	70.6
723.83	70.94
724.013	69.72
724.197	69.49
724.38	68.72
724.563	67.62
724.746	68.66
724.929	69.22
725.112	67.26
725.296	66.92
725.479	65.2
725.662	64.6
725.845	63.45
726.028	63.82
726.211	63.94
726.394	64.26
726.577	65.14
726.76	64.35
726.943	63.71
727.126	62.81
727.309	62.25
727.492	61.82
727.675	61.41
727.858	61.48
728.041	61.68
728.224	61.17
728.407	60.79
728.589	60.04
728.772	58.82
728.955	58.31
729.138	59.56
729.321	59.46
729.503	59.98
729.686	59.94
729.869	60.98
730.052	60.83
730.234	60.43
730.417	59.46
730.6	60.38
730.782	60.64
730.965	60.94
731.148	61.08
731.33	61.27
731.513	60.91
731.695	59.79
731.878	59.48
732.061	58.35
732.243	58.55
732.426	59.48
732.608	59.11
732.791	59.74
732.973	60.03
733.156	61.27
733.338	62.68
733.52	62.9
733.703	65.5
733.885	64.29
734.068	64.62
734.25	65.58
734.432	68.06
734.615	68.62
734.797	67.76
734.979	67.19
735.162	66.78
735.344	65.18
735.526	64.09
735.708	62.52
735.891	62.09
736.073	62.79
736.255	63.56
736.437	61.71
736.619	61.1
736.802	62.65
736.984	64.45
737.166	63.21
737.348	64.49
737.53	66.78
737.712	68.11
737.894	70.08
738.076	68.32
738.258	67.47
738.44	66.54
738.622	66.31
738.804	66.66
738.986	65.14
739.168	65.42
739.35	64.76
739.532	62.97
739.714	63.13
739.896	62.04
740.078	63.15
740.259	61.45
740.441	64.87
740.623	65.04
740.805	63.74
740.987	63.28
741.168	63.13
741.35	63.63
741.532	64.35
741.714	64.89
741.895	65.58
742.077	64.31
742.259	66.26
742.44	62.88
742.622	64.93
742.804	66.33
742.985	67.57
743.167	68.34
743.348	68.83
743.53	68.15
743.711	68.74
743.893	71.13
744.075	73.81
744.256	74.38
744.438	74.69
744.619	75.89
744.8	76.27
744.982	78.09
745.163	80.28
745.345	79.16
745.526	80.19
745.707	78.44
745.889	76.12
746.07	76.06
746.252	75.29
746.433	75.76
746.614	76.36
746.795	73.2
746.977	72.88
747.158	70.85
747.339	70.33
747.52	71.51
747.702	71.21
747.883	73.46
748.064	73.24
748.245	72.33
748.426	72.57
748.607	69.81
748.788	73.45
748.97	71.25
749.151	72.28
749.332	72.95
749.513	71.51
749.694	72.76
749.875	73.69
750.056	72.67
750.237	74.34
750.418	76.89
750.599	79.62
750.78	75.75
750.96	76.9
751.141	75.15
751.322	75.14
751.503	74.12
751.684	73.35
751.865	71
752.046	71.8
752.226	71.13
752.407	70.13
752.588	68.16
752.769	71.02
752.949	70.26
753.13	72.47
753.311	71.48
753.492	73.3
753.672	75.63
753.853	76.56
754.034	78.96
754.214	77.44
754.395	75.88
754.575	74.58
754.756	73.99
754.937	75.79
755.117	74.32
755.298	76.4
755.478	76.34
755.659	74.66
755.839	72.88
756.02	72.67
756.2	75.99
756.381	76.76
756.561	78.69
756.741	78.1
756.922	78.11
757.102	79.74
757.283	81.31
757.463	81.11
757.643	80.91
757.823	81.27
758.004	80.27
758.184	76.15
758.364	75.81
758.545	75.02
758.725	75.07
758.905	75.5
759.085	75.54
759.265	72.43
759.446	73.04
759.626	70.88
759.806	68.87
759.986	68.66
760.166	71.88
760.346	71.88
760.526	70.37
760.706	70.49
760.886	68.51
761.066	67.68
761.246	68.23
761.426	65.47
761.606	64.4
761.786	65.49
761.966	64.77
762.146	63.78
762.326	62.33
762.506	61.42
762.686	60.92
762.866	60.57
763.046	60.43
763.225	59.56
763.405	60.27
763.585	61.32
763.765	61.85
763.945	61.6
764.124	60.96
764.304	63.13
764.484	64.54
764.664	65.39
764.843	67.09
765.023	68.51
765.203	68.45
765.382	68.94
765.562	69.58
765.741	69.69
765.921	71.28
766.101	73.65
766.28	72.26
766.46	72.55
766.639	72.82
766.819	72.38
766.998	70.21
767.178	71.48
767.357	72.04
767.537	75.5
767.716	75.91
767.896	77.43
768.075	75.69
768.254	77.19
768.434	77.78
768.613	77.77
768.792	79.7
768.972	79.94
769.151	83.08
769.33	84.13
769.51	81.55
769.689	82.09
769.868	79.63
770.047	79.52
770.226	77.25
770.406	77.56
770.585	79.5
770.764	77.79
770.943	79.36
771.122	78.5
771.301	80.33
771.48	80.07
771.66	83.99
771.839	86.63
772.018	89.22
772.197	94.12
772.376	96.59
772.555	97.34
772.734	95.9
772.913	94.84
773.092	94.41
773.271	93.52
773.449	96.21
773.628	91.66
773.807	91.09
773.986	92.51
774.165	89.02
774.344	92.09
774.523	89.18
774.701	93.28
774.88	98.49
775.059	96.85
775.238	97.51
775.417	96.01
775.595	98.85
775.774	96.97
775.953	98.33
776.131	99.73
776.31	96.95
776.489	96.38
776.667	92.01
776.846	88.09
777.025	89.01
777.203	88.71
777.382	89.57
777.56	89.54
777.739	91.39
777.917	87.77
778.096	88.43
778.274	87.41
778.453	88.47
778.631	91.55
778.81	92.96
778.988	90.68
779.166	86.51
779.345	87.66
779.523	88.37
779.702	89.86
779.88	90.9
780.058	87.71
780.237	89.06
780.415	92.24
780.593	93.28
780.771	94.14
780.95	100.39
781.128	103.92
781.306	103.56
781.484	100.71
781.662	101.76
781.841	101.41
782.019	100.33
782.197	98.34
782.375	92.1
782.553	91.52
782.731	90.47
782.909	87.81
783.087	89.84
783.265	90.48
783.443	93.79
783.621	88.58
783.799	91.28
783.977	97.56
784.155	99.77
784.333	102.58
784.511	98.9
784.689	102.26
784.867	105.02
785.045	106.28
785.223	106.47
785.4	106.45
785.578	109.4
785.756	103.43
785.934	102.12
786.112	100.84
786.289	99.08
786.467	100.2
786.645	96.64
786.823	95.59
787	96.27
787.178	94.14
787.356	91.37
787.533	87.71
787.711	89.86
787.889	87.15
788.066	85
788.244	88.34
788.421	90.36
788.599	93.83
788.776	93.89
788.954	90.22
789.131	89.23
789.309	90.81
789.486	97.69
789.664	99.02
789.841	98.39
790.019	99.89
790.196	102.88
790.373	100.05
790.551	97.07
790.728	100.14
790.906	101.09
791.083	104.13
791.26	102.52
791.437	100.97
791.615	107.19
791.792	113.29
791.969	114.68
792.146	110.65
792.324	109.86
792.501	114.82
792.678	107.93
792.855	106.94
793.032	105.33
793.209	103.25
793.387	99.45
793.564	94.38
793.741	96.1
793.918	99.06
794.095	96.58
794.272	100.17
794.449	96.08
794.626	103.87
794.803	105.48
794.98	102.17
795.157	103.12
795.334	105.48
795.511	105.86
795.688	99.52
795.864	93.62
796.041	92.28
796.218	92.31
796.395	91.83
796.572	86.73
796.749	88.94
796.925	91.07
797.102	91.09
797.279	90.85
797.456	94.18
797.632	96.59
797.809	103.61
797.986	110.65
798.162	114.14
798.339	117.14
798.516	120.94
798.692	118.73
798.869	124.75
799.046	130.37
799.222	125.9
799.399	117.98
799.575	122.18
799.752	115.78
799.928	112.14
800.105	104.1
800.281	100.58
800.458	102.13
800.634	100.86
800.811	101.85
800.987	105.24
801.163	106.6
801.34	110.37
801.516	104.27
801.692	104.29
801.869	105.4
802.045	111.36
802.221	108.23
802.398	101.62
802.574	101.89
802.75	99.21
802.926	96.98
803.103	101.36
803.279	100.43
803.455	100.78
803.631	104.02
803.807	105.56
803.983	107.25
804.16	118.32
804.336	121.87
804.512	121.72
804.688	130.51
804.864	136.68
805.04	132.47
805.216	133.19
805.392	137.76
805.568	141.58
805.744	134.64
805.92	126.12
806.096	122.76
806.272	127.42
806.448	126.45
806.623	122.82
806.799	122.04
806.975	119.45
807.151	118.61
807.327	120.44
807.503	114.3
807.678	119.82
807.854	124.92
808.03	122.53
808.206	120.6
808.381	118.63
808.557	107.68
808.733	104.42
808.908	106.82
809.084	112.01
809.26	114.2
809.435	124.56
809.611	124.6
809.787	120.51
809.962	129.13
810.138	133
810.313	139.33
810.489	145.82
810.664	144.8
810.84	132.17
811.015	127.18
811.191	131.83
811.366	126.65
811.542	130.9
811.717	131.37
811.892	124.72
812.068	123.35
812.243	125.03
812.419	124.84
812.594	122.54
812.769	133.5
812.944	138.55
813.12	130.93
813.295	132.96
813.47	126.25
813.645	131.34
813.821	135.83
813.996	137.88
814.171	139.14
814.346	139.92
814.521	140.85
814.697	143.86
814.872	133.51
815.047	130.47
815.222	126.8
815.397	129.08
815.572	128.77
815.747	129.06
815.922	119.64
816.097	113.05
816.272	109.44
816.447	106.68
816.622	110.43
816.797	110.29
816.972	108.89
817.147	107.21
817.322	104.23
817.496	103.81
817.671	99.23
817.846	103.91
818.021	106.13
818.196	105.73
818.371	109.84
818.545	105.13
818.72	106.44
818.895	105.74
819.069	100.5
819.244	101.84
819.419	100.14
819.594	93
819.768	82.95
819.943	77.07
820.117	72.38
820.292	66.34
820.467	64.25
820.641	62.68
820.816	59.87
820.99	58.17
821.165	54.55
821.339	52.9
821.514	52.04
821.688	51.64
821.863	49.64
822.037	49.47
822.212	48.68
822.386	47.71
822.56	46.69
822.735	45.83
822.909	46.17
823.084	45.74
823.258	45.11
823.432	45.91
823.606	46.82
823.781	48.18
823.955	48.95
824.129	49.49
824.303	50.13
824.478	51.35
824.652	53.67
824.826	53.64
825	56.17
825.174	57.15
825.348	56.49
825.523	54.22
825.697	54.89
825.871	55.13
826.045	55.05
826.219	54.64
826.393	54.24
826.567	52.69
826.741	53.39
826.915	53.13
827.089	54.68
827.263	56.56
827.437	60.9
827.611	61.9
827.784	64.83
827.958	69.49
828.132	72.9
828.306	73.04
828.48	77.51
828.654	77.67
828.827	78.95
829.001	80.27
829.175	82.64
829.349	83.22
829.522	87.3
829.696	85.95
829.87	86.41
830.044	89.75
830.217	95.27
830.391	99.14
830.565	104.39
830.738	107.08
830.912	104.09
831.085	102.38
831.259	96.55
831.432	98.43
831.606	106.97
831.779	101.97
831.953	92.23
832.126	88.84
832.3	85.32
832.473	80.45
832.647	79.56
832.82	78.56
832.994	77.21
833.167	75.59
833.34	74.41
833.514	68.81
833.687	69.11
833.86	71.08
834.034	69.89
834.207	67.55
834.38	70.29
834.553	68.45
834.727	72.86
834.9	76.14
835.073	82.25
835.246	81.29
835.419	85.83
835.593	92.39
835.766	95.6
835.939	98.02
836.112	101.94
836.285	101.31
836.458	113
836.631	107.81
836.804	106.81
836.977	108.66
837.15	114.59
837.323	111.9
837.496	106.03
837.669	109.52
837.842	120.39
838.015	129.24
838.188	134.51
838.361	127.56
838.533	127.93
838.706	135.69
838.879	135.82
839.052	143.05
839.225	158.33
839.398	163.61
839.57	158.08
839.743	156.18
839.916	152.25
840.088	136.54
840.261	143.88
840.434	160.23
840.607	153.08
840.779	169.49
840.952	159.82
841.124	149.52
841.297	157.1
841.47	160.73
841.642	163.2
841.815	175.21
841.987	214.66
842.16	213.34
842.332	222.1
842.505	231.28
842.677	205.37
842.85	244.53
843.022	254.17
843.194	257.83
843.367	275.07
843.539	255.63
843.712	222.12
843.884	196.54
844.056	201.81
844.229	183.99
844.401	191.86
844.573	197.88
844.745	192.71
844.918	193.34
845.09	191.4
845.262	195.8
845.434	193.81
845.606	209.3
845.779	202.79
845.951	221.56
846.123	203.59
846.295	219.76
846.467	220.97
846.639	200.82
846.811	208.39
846.983	197.82
847.155	205.08
847.327	206.13
847.499	217.46
847.671	273.45
847.843	254.29
848.015	384.47
848.187	319.65
848.359	321.27
848.531	347.93
848.703	329.94
848.875	422.89
849.047	384.12
849.218	498.37
849.39	473.36
849.562	410.94
849.734	377.15
849.905	300.75
850.077	365
850.249	497.22
850.421	571.07
850.592	531.75
850.764	452.93
850.936	444.44
851.107	452.3
851.279	513.79
851.451	397.04
851.622	356.43
851.794	304.76
851.965	277.08
852.137	244.29
852.308	240.04
852.48	246.81
852.651	245.32
852.823	230.56
852.994	215.09
853.166	201.78
853.337	210.9
853.509	243.59
853.68	329.97
853.851	316.54
854.023	405.09
854.194	366.28
854.365	403.97
854.537	384.36
854.708	598.58
854.879	1035.9
855.05	917.97
855.222	768.77
855.393	477.81
855.564	502.11
855.735	447.34
855.906	318.18
856.078	358.04
856.249	423.2
856.42	399.08
856.591	338.92
856.762	338.71
856.933	432.77
857.104	488.46
857.275	549.14
857.446	336.91
857.617	329.04
857.788	367.06
857.959	314.85
858.13	269.89
858.301	322.81
858.472	385.29
858.643	419.7
858.814	453.55
858.985	420.76
859.155	443.26
859.326	598.87
859.497	632.33
859.668	553.73
859.839	918.52
860.009	589.7
860.18	428.55
860.351	322.25
860.522	288.4
860.692	242.13
860.863	258.44
861.034	249.95
861.204	219.1
861.375	239.42
861.546	227.03
861.716	213.48
861.887	234.55
862.057	290.13
862.228	261.63
862.398	285.35
862.569	276.81
862.739	292.11
862.91	287.63
863.08	368.95
863.251	355
863.421	387.52
863.592	355.96
863.762	373.46
863.932	285.71
864.103	361.05
864.273	302.29
864.443	357.08
864.614	295.34
864.784	296.93
864.954	280.96
865.125	288
865.295	308.48
865.465	313.6
865.635	361.16
865.805	379.38
865.976	362.13
866.146	382.35
866.316	425.39
866.486	621.63
866.656	440.24
866.826	443.03
866.996	401.87
867.166	383.93
867.336	376.34
867.506	312.4
867.676	308.4
867.846	291.95
868.016	334.43
868.186	297.98
868.356	263.67
868.526	311.62
868.696	338.55
868.866	366.1
869.036	351.12
869.206	320.3
869.376	373.08
869.545	348.18
869.715	399.38
869.885	404.03
870.055	448.35
870.224	542
870.394	743.24
870.564	533.26
870.734	544.64
870.903	482
871.073	617.62
871.243	464.25
871.412	494.91
871.582	381.34
871.751	361.34
871.921	344.72
872.091	297.69
872.26	252.23
872.43	201.28
872.599	213.04
872.769	235.04
872.938	224.49
873.108	306.29
873.277	334.1
873.446	409.09
873.616	369.83
873.785	402.07
873.955	511.31
874.124	413.62
874.293	1096.41
874.463	1267.66
874.632	1641.67
874.801	1746.22
874.971	556.89
875.14	570.32
875.309	404.07
875.478	385.57
875.647	378.56
875.817	310.47
875.986	336.42
876.155	329.14
876.324	311.98
876.493	295.57
876.662	267.16
876.831	302.03
877	272.58
877.17	319.83
877.339	382.56
877.508	282.52
877.677	323.49
877.846	371.11
878.015	320.78
878.184	278.64
878.352	262.66
878.521	275.15
878.69	268.14
878.859	239.62
879.028	243.42
879.197	200.33
879.366	228.32
879.534	220.75
879.703	195.15
879.872	179.81
880.041	183.03
880.21	169.94
880.378	148.52
880.547	127.95
880.716	132.05
880.884	118.51
881.053	106.77
881.222	98.99
881.39	87.86
881.559	79.23
881.727	74.78
881.896	72.66
882.065	67.65
882.233	65.03
882.402	65.6
882.57	62.55
882.739	62.95
882.907	68.33
883.076	70.94
883.244	72.25
883.412	76.52
883.581	78.66
883.749	83.32
883.918	86.98
884.086	94.09
884.254	96.8
884.423	98.04
884.591	108.09
884.759	109.03
884.927	102.88
885.096	105.53
885.264	113.43
885.432	121.25
885.6	118.43
885.769	127.69
885.937	131.74
886.105	137.74
886.273	141.6
886.441	137.42
886.609	147.87
886.777	168.17
886.945	195.38
887.113	189.21
887.281	211.77
887.449	219.55
887.617	213.83
887.785	249.38
887.953	240.85
888.121	245.32
888.289	255.27
888.457	318.64
888.625	402.46
888.793	310.41
888.961	334.07
889.129	248.45
889.296	249.78
889.464	275.66
889.632	222.45
889.8	257.28
889.967	271.62
890.135	300.22
