Data from JASIL_2997_Reflection_01.txt Node
Date: Mon Nov 09 09:55:51 EST 2015
User: Geneva
Spectrometer: USB4E03002
Autoset integration time: false
Trigger mode: 4
Integration Time (sec): 1.000000E-1
Scans to average: 10
Electric dark correction enabled: false
Nonlinearity correction enabled: false
Boxcar width: 5
Stray light correction enabled: false
XAxis mode: Wavelengths
Stop averaging: false
Number of Pixels in Spectrum: 3648
>>>>>Begin Spectral Data<<<<<
177.575	14.48
177.794	1.62
178.014	-1.82
178.233	-7.5
178.452	-9.05
178.672	-20.88
178.891	-37.87
179.11	-55.59
179.33	-83.86
179.549	-115.83
179.768	-157.47
179.987	-72.77
180.207	-16.09
180.426	-10.95
180.645	-11.64
180.864	-8.45
181.084	19.76
181.303	33.49
181.522	38.5
181.741	57.1
181.96	55.08
182.179	75.61
182.398	23.55
182.618	9.36
182.837	25.45
183.056	25.26
183.275	12.63
183.494	15.42
183.713	13.1
183.932	22.44
184.151	25.62
184.37	1.7
184.589	-17.22
184.808	-3.41
185.027	-16.96
185.246	-50.45
185.465	-12.23
185.684	4.03
185.903	-8.16
186.122	-10.55
186.341	-63.9
186.56	-194.28
186.779	-96.34
186.998	-75.11
187.216	-52.84
187.435	-65.37
187.654	-67.37
187.873	-144.35
188.092	-238.7
188.311	-281.85
188.53	-234.15
188.748	-81.16
188.967	-100
189.186	-117.33
189.405	-141.5
189.623	-99.39
189.842	-92.62
190.061	-94.87
190.28	-74.91
190.498	-132.27
190.717	-100
190.936	-103.64
191.154	-136.07
191.373	8
191.592	-11.7
191.81	19.15
192.029	-54.48
192.248	-56.08
192.466	-34.39
192.685	-28.99
192.904	30.04
193.122	36.21
193.341	90.3
193.559	20.77
193.778	168.87
193.996	104.94
194.215	129.62
194.433	79.2
194.652	63.46
194.87	56.96
195.089	43.93
195.307	-7.54
195.526	7.73
195.744	-19.85
195.963	-17.25
196.181	-91.44
196.399	-121.3
196.618	-161.28
196.836	-198.84
197.055	-169.15
197.273	-148.27
197.491	-120.06
197.71	-70.39
197.928	-92.38
198.146	-74.3
198.365	-121.01
198.583	-59.43
198.801	-47.34
199.019	-69.44
199.238	-84.72
199.456	-75.06
199.674	-77.28
199.892	-43.18
200.111	-71.38
200.329	-53.19
200.547	-23.17
200.765	3.05
200.983	14.55
201.202	-70.43
201.42	43.7
201.638	55.22
201.856	-15.49
202.074	316.22
202.292	31.71
202.51	17.24
202.728	-2.78
202.946	-27.92
203.165	-88.12
203.383	-97.85
203.601	-109.79
203.819	-201.74
204.037	-142.62
204.255	-44.67
204.473	-19.1
204.691	-87.22
204.909	-167.83
205.127	-200.71
205.345	-234.5
205.562	-315.73
205.78	-91.41
205.998	-31.71
206.216	-72.36
206.434	-42.09
206.652	-71.72
206.87	-21.52
207.088	42.86
207.306	35.46
207.523	70.82
207.741	74.85
207.959	31.73
208.177	6.72
208.395	70.67
208.612	86.61
208.83	95.15
209.048	84.92
209.266	70.57
209.483	66.3
209.701	81.79
209.919	70.47
210.136	60.47
210.354	32.1
210.572	43.01
210.79	-21.51
211.007	26.84
211.225	13.76
211.442	-23.71
211.66	12.64
211.878	-8.22
212.095	-1.35
212.313	-8.9
212.53	3.89
212.748	17.91
212.966	22.02
213.183	24.24
213.401	15.18
213.618	11.38
213.836	21.11
214.053	10.36
214.271	12.67
214.488	21.6
214.705	26.57
214.923	20.26
215.14	15.58
215.358	10.32
215.575	11.21
215.793	7.04
216.01	9.59
216.227	-21.11
216.445	-19.36
216.662	-28.71
216.879	12.27
217.097	-12.63
217.314	-3.32
217.531	-63.95
217.749	-61.82
217.966	-38.87
218.183	-47.36
218.4	-120.47
218.618	-113.67
218.835	-69.95
219.052	-287.14
219.269	-726.32
219.487	-256.73
219.704	-615.87
219.921	498.25
220.138	174.36
220.355	158.9
220.572	0
220.79	-400
221.007	-42.42
221.224	-54.41
221.441	13.37
221.658	-66.23
221.875	-71.08
222.092	-68.48
222.309	-39.53
222.526	-49.39
222.743	-67.91
222.96	-50.62
223.177	-43.4
223.394	-37.71
223.611	-51.06
223.828	-120
224.045	-53.68
224.262	-6.65
224.479	-9.78
224.696	-2.09
224.913	-1.88
225.13	3.4
225.347	3.31
225.564	-6.53
225.781	-8.32
225.997	-10.21
226.214	-0.08
226.431	-3.56
226.648	-22.53
226.865	-11.9
227.082	-13.47
227.298	-21.52
227.515	-22.32
227.732	-21.44
227.949	-17.78
228.165	-10.58
228.382	-3.39
228.599	-7.14
228.816	-6.14
229.032	-5.53
229.249	-9.47
229.466	-19.56
229.682	-17.15
229.899	-11.77
230.116	-21.3
230.332	-28.68
230.549	-41.85
230.765	-82.01
230.982	-73.76
231.199	-55.83
231.415	-24.13
231.632	-26.09
231.848	-18.63
232.065	-20.29
232.281	-28.73
232.498	-18.09
232.714	3.54
232.931	2.94
233.147	11.79
233.364	13.99
233.58	9.59
233.797	4.71
234.013	5.02
234.23	-2.52
234.446	10.36
234.662	20.86
234.879	10.7
235.095	2.34
235.312	-4.94
235.528	-8.6
235.744	-12.67
235.961	-17.46
236.177	-16.26
236.393	-9.38
236.61	-4.62
236.826	-5.17
237.042	-0.94
237.258	7.12
237.475	7.6
237.691	11.42
237.907	11.77
238.123	5.65
238.339	-1.02
238.556	-3.55
238.772	-25.78
238.988	-18.15
239.204	-22.13
239.42	-22.16
239.636	-7.65
239.853	-0.78
240.069	-2.6
240.285	-1.76
240.501	6.69
240.717	9.08
240.933	11.51
241.149	15.64
241.365	16.6
241.581	14.03
241.797	10.45
242.013	5.64
242.229	0.32
242.445	3.49
242.661	3.52
242.877	-0.13
243.093	-5.96
243.309	-12.21
243.525	-16.72
243.741	-14.37
243.957	-5.4
244.173	-3.5
244.388	-6.09
244.604	-1.07
244.82	-1.95
245.036	-0.9
245.252	2.09
245.468	8.26
245.683	9.72
245.899	14.15
246.115	12.9
246.331	9.45
246.547	9.79
246.762	11.38
246.978	11.35
247.194	10.32
247.409	8.56
247.625	7.6
247.841	6.39
248.057	6.8
248.272	3.8
248.488	2.89
248.703	10.41
248.919	7.29
249.135	3.23
249.35	-1.87
249.566	1.33
249.782	1.71
249.997	1.04
250.213	-1.14
250.428	-1.14
250.644	-3.51
250.859	-2.4
251.075	-7.8
251.29	-6.4
251.506	-1.6
251.721	1.53
251.937	4.38
252.152	5.71
252.368	5.36
252.583	6.54
252.798	-0.92
253.014	2.67
253.229	0.62
253.445	3.21
253.66	1.61
253.875	-1.11
254.091	-1
254.306	0.64
254.521	8.29
254.737	12.69
254.952	16.75
255.167	19.97
255.383	14.76
255.598	16.62
255.813	18.63
256.028	20.28
256.244	17.8
256.459	15.79
256.674	14.69
256.889	13.33
257.104	9.31
257.32	6.74
257.535	6.89
257.75	6.02
257.965	4.55
258.18	2.24
258.395	3.74
258.61	3.83
258.826	3.29
259.041	2.05
259.256	-2.16
259.471	-1.14
259.686	-0.05
259.901	-1.56
260.116	-2.63
260.331	-6.61
260.546	-5.01
260.761	-7.88
260.976	-11.9
261.191	-9.94
261.406	-10.87
261.621	-6.7
261.836	-8.27
262.05	-14.51
262.265	-10.53
262.48	-6.7
262.695	-3.33
262.91	-2
263.125	-1.94
263.34	1.04
263.555	0.94
263.769	-0.64
263.984	2.61
264.199	0.36
264.414	3.38
264.629	4.76
264.843	4.34
265.058	6.54
265.273	3.97
265.488	5.48
265.702	3.13
265.917	1.77
266.132	2.37
266.346	1.85
266.561	3.26
266.776	0.98
266.99	-0.89
267.205	2.67
267.42	3.62
267.634	3.79
267.849	3.75
268.063	6.42
268.278	4.73
268.492	7.01
268.707	8.68
268.922	9.3
269.136	9.96
269.351	9.04
269.565	6.87
269.78	5.73
269.994	6.89
270.209	5.13
270.423	2.91
270.637	1.7
270.852	2.85
271.066	0.44
271.281	1.32
271.495	2.29
271.709	2.19
271.924	1.27
272.138	4.08
272.353	3.52
272.567	3.84
272.781	6.26
272.996	10.65
273.21	6.54
273.424	5.24
273.638	0.57
273.853	1.41
274.067	3.19
274.281	4.3
274.495	1.95
274.71	1.76
274.924	2.59
275.138	2.72
275.352	1.95
275.566	5.95
275.781	10.33
275.995	14.06
276.209	15.3
276.423	13.07
276.637	9.31
276.851	10.81
277.065	10.5
277.279	8.4
277.493	7.61
277.707	6.93
277.921	4.85
278.135	0.51
278.349	0.57
278.563	-4.55
278.777	-2.21
278.991	0.76
279.205	-0.92
279.419	-2.8
279.633	-2.43
279.847	-1.31
280.061	-4.34
280.275	-3.18
280.489	-1.5
280.703	-3.3
280.917	0.73
281.131	1.4
281.344	2.84
281.558	1.05
281.772	2.82
281.986	4.13
282.2	2.42
282.414	3.59
282.627	3.56
282.841	4.55
283.055	5.07
283.269	4.83
283.482	6.32
283.696	7.12
283.91	8.61
284.123	7.82
284.337	6.36
284.551	8.04
284.764	9.76
284.978	9.23
285.192	7.73
285.405	8.21
285.619	5.34
285.833	4.07
286.046	0.33
286.26	-1.55
286.473	-1.65
286.687	-0.29
286.9	-0.65
287.114	-3.29
287.327	-3.02
287.541	-1.93
287.754	-5.02
287.968	-1.34
288.181	-6.03
288.395	-5.02
288.608	-5.47
288.822	-2.4
289.035	-4.14
289.248	-3.96
289.462	-3.18
289.675	-1.62
289.889	-2.93
290.102	0.89
290.315	-0.08
290.529	2.05
290.742	1.97
290.955	5.2
291.169	1.15
291.382	1.11
291.595	-0.72
291.808	0.6
292.022	0.07
292.235	4.7
292.448	3.24
292.661	1.7
292.875	2
293.088	3.42
293.301	4.25
293.514	4.94
293.727	5.44
293.94	7.37
294.153	6.6
294.367	5.53
294.58	3.41
294.793	1.81
295.006	1.37
295.219	3.42
295.432	2.1
295.645	1.39
295.858	2.11
296.071	4.64
296.284	3.35
296.497	3.26
296.71	3.24
296.923	2.77
297.136	5.08
297.349	9.16
297.562	8.01
297.775	9.41
297.988	10.52
298.201	12.64
298.414	11.02
298.626	11.92
298.839	11.17
299.052	10.76
299.265	11.11
299.478	11.01
299.691	10.35
299.903	11.52
300.116	9.19
300.329	7.64
300.542	3.83
300.755	3.47
300.967	6.36
301.18	6.21
301.393	6.24
301.605	7.09
301.818	4.26
302.031	3.01
302.243	1.64
302.456	2.55
302.669	2.91
302.881	5.52
303.094	5.02
303.307	1.92
303.519	2.56
303.732	1.38
303.944	-2.88
304.157	0.16
304.37	-0.18
304.582	0.79
304.795	2.12
305.007	0.82
305.22	0.37
305.432	-1.36
305.645	-3.22
305.857	-2.39
306.069	1.27
306.282	6.24
306.494	5.39
306.707	2.81
306.919	1.73
307.132	0.47
307.344	2.45
307.556	1.02
307.769	5.34
307.981	4.5
308.193	3.5
308.406	1.56
308.618	0.53
308.83	3.64
309.043	7.05
309.255	7.5
309.467	7.11
309.679	6.31
309.892	6.45
310.104	4.41
310.316	6.99
310.528	10.44
310.74	9.61
310.953	9.22
311.165	7.42
311.377	4.44
311.589	3.95
311.801	4.81
312.013	4.17
312.225	6.66
312.437	8.67
312.649	6.75
312.862	1.91
313.074	3.83
313.286	7.36
313.498	5.9
313.71	5.21
313.922	6.74
314.134	8.99
314.346	9.52
314.558	7.13
314.77	8.18
314.982	9.93
315.193	12.13
315.405	10.11
315.617	6.08
315.829	6.14
316.041	8.77
316.253	6.6
316.465	4.83
316.677	5.52
316.888	7.74
317.1	6.68
317.312	5.2
317.524	8.73
317.736	10.8
317.947	10.72
318.159	11.58
318.371	10.9
318.583	9.45
318.794	10.21
319.006	12.31
319.218	9.97
319.43	8.81
319.641	8.97
319.853	5.78
320.064	3.82
320.276	3.2
320.488	3.04
320.699	3.89
320.911	6.34
321.123	8.1
321.334	4.16
321.546	2.26
321.757	1.34
321.969	1.4
322.18	2.05
322.392	4.06
322.603	4.82
322.815	8.23
323.026	9.31
323.238	10.02
323.449	8.31
323.661	10.7
323.872	12.24
324.083	12.06
324.295	12.01
324.506	12.22
324.718	11.66
324.929	12.26
325.14	10.27
325.352	8.84
325.563	8.7
325.774	8.56
325.986	6.04
326.197	4.18
326.408	4.28
326.62	3.06
326.831	4.36
327.042	2.4
327.253	1.17
327.464	0.06
327.676	0.43
327.887	0.17
328.098	-0.17
328.309	1.85
328.52	3.81
328.732	4.23
328.943	6.12
329.154	1.43
329.365	1.2
329.576	1
329.787	2.07
329.998	2.19
330.209	0.26
330.42	-0.77
330.631	-3.75
330.842	-3.88
331.053	-1.96
331.264	-2.97
331.475	-0.78
331.686	3.55
331.897	6.28
332.108	4.95
332.319	6.59
332.53	6.49
332.741	8.19
332.952	12.57
333.163	12.57
333.374	10.88
333.585	12.15
333.795	12.68
334.006	13.25
334.217	15.33
334.428	15.98
334.639	15.46
334.849	15.98
335.06	15.24
335.271	14.63
335.482	15.31
335.692	15.16
335.903	15.47
336.114	14.22
336.325	13.78
336.535	9.47
336.746	11.69
336.957	9.36
337.167	9.14
337.378	12.34
337.589	12.61
337.799	12
338.01	11.37
338.22	11.01
338.431	8.44
338.642	5.12
338.852	6.36
339.063	2.18
339.273	7.24
339.484	11.11
339.694	8.38
339.905	5.76
340.115	7.92
340.326	6.74
340.536	6.84
340.746	10.39
340.957	11.04
341.167	11.86
341.378	13.49
341.588	10.9
341.799	9.7
342.009	10.82
342.219	11.45
342.43	9.78
342.64	11.43
342.85	15.22
343.061	15.63
343.271	16.43
343.481	16.17
343.691	15.56
343.902	16.27
344.112	13.9
344.322	10.5
344.532	10.68
344.743	11.24
344.953	11.61
345.163	7.25
345.373	7.83
345.583	8.34
345.793	8.67
346.004	8.42
346.214	5.96
346.424	5.62
346.634	8.59
346.844	8.19
347.054	7.94
347.264	6.84
347.474	7.18
347.684	7.15
347.894	7.6
348.104	5.9
348.314	8.7
348.524	10.17
348.734	12.67
348.944	10.83
349.154	10.9
349.364	11.54
349.574	12.06
349.784	11.71
349.994	13.11
350.204	12.45
350.413	13.77
350.623	11.91
350.833	12.24
351.043	9.85
351.253	12.42
351.463	12.39
351.672	9.88
351.882	11.64
352.092	13.45
352.302	13.03
352.511	12.82
352.721	11.25
352.931	11.64
353.141	9.37
353.35	11.15
353.56	11.19
353.77	8.64
353.979	10.74
354.189	9.61
354.399	9.06
354.608	8.33
354.818	6.48
355.027	6.5
355.237	6.14
355.447	7.88
355.656	7.39
355.866	7.23
356.075	9.8
356.285	9.32
356.494	7.05
356.704	6.28
356.913	5.43
357.123	7.41
357.332	7.1
357.542	7
357.751	6.81
357.96	5.77
358.17	4.57
358.379	4.16
358.589	3.65
358.798	5.64
359.007	6.5
359.217	5.23
359.426	4.49
359.635	5.89
359.845	4.97
360.054	3.71
360.263	5.33
360.472	6.88
360.682	7.63
360.891	8.05
361.1	8.55
361.309	8.24
361.519	9
361.728	9.71
361.937	9.11
362.146	10.49
362.355	12.3
362.564	11.1
362.774	10.28
362.983	9.96
363.192	9.63
363.401	9.98
363.61	10.75
363.819	11.26
364.028	9.84
364.237	10.7
364.446	10.46
364.655	9.78
364.864	10.2
365.073	9.55
365.282	8.88
365.491	9.61
365.7	9.37
365.909	8.48
366.118	8.68
366.327	7.81
366.536	7.88
366.745	7.81
366.954	8.3
367.162	8.36
367.371	8.93
367.58	9.64
367.789	10.19
367.998	10
368.207	10.66
368.415	10.48
368.624	10.53
368.833	11.76
369.042	12.53
369.25	12.15
369.459	11.89
369.668	11.25
369.877	10.83
370.085	11.62
370.294	10.21
370.503	9.61
370.711	9.01
370.92	8.71
371.129	6.62
371.337	6.79
371.546	6.87
371.754	7.43
371.963	8.1
372.171	7.83
372.38	5.61
372.589	5.84
372.797	4.5
373.006	3.54
373.214	4.5
373.423	6.19
373.631	4.87
373.84	3.85
374.048	4.59
374.256	4.1
374.465	4.86
374.673	5.6
374.882	5.47
375.09	6.83
375.298	8.6
375.507	9.85
375.715	8.66
375.923	8.67
376.132	9.99
376.34	9.47
376.548	10.23
376.757	8.96
376.965	9.4
377.173	10.47
377.381	10.08
377.59	8.43
377.798	7.32
378.006	6.17
378.214	7.29
378.423	7.43
378.631	7.19
378.839	5.82
379.047	7.68
379.255	7.9
379.463	9.01
379.671	9.05
379.879	10.74
380.088	10.45
380.296	10.8
380.504	10.68
380.712	8.94
380.92	10.34
381.128	10.28
381.336	8.14
381.544	7.35
381.752	6.34
381.96	6.48
382.168	5.62
382.376	6.63
382.584	7.5
382.791	6.3
382.999	7.94
383.207	4.96
383.415	5.36
383.623	6.61
383.831	6.91
384.039	5.88
384.247	5.28
384.454	5.12
384.662	4.8
384.87	3.43
385.078	3.98
385.285	3.31
385.493	4.32
385.701	4.9
385.909	4.54
386.116	4.12
386.324	5.37
386.532	5.78
386.739	6.12
386.947	6.52
387.155	6.94
387.362	7.62
387.57	6.69
387.778	7.76
387.985	7.32
388.193	6.58
388.4	6.55
388.608	7.17
388.816	7.01
389.023	6.73
389.231	5.67
389.438	6.59
389.646	6.94
389.853	8.64
390.061	7.31
390.268	6.84
390.475	7.89
390.683	6.47
390.89	5.45
391.098	6.14
391.305	6.61
391.512	8.58
391.72	8.45
391.927	6.01
392.135	4.97
392.342	5.47
392.549	5.35
392.756	4.78
392.964	5.92
393.171	5.41
393.378	4.68
393.586	5.17
393.793	3.31
394	3.67
394.207	6.45
394.414	6.78
394.622	6.59
394.829	7.39
395.036	7.32
395.243	7.76
395.45	9.64
395.657	9.44
395.864	6.84
396.072	6.72
396.279	6.38
396.486	4.99
396.693	5.35
396.9	6.04
397.107	7.44
397.314	7.27
397.521	7.1
397.728	6.18
397.935	6.48
398.142	7.13
398.349	7.04
398.556	7.03
398.763	6.85
398.97	5.86
399.177	6.09
399.383	4.8
399.59	4.14
399.797	4.1
400.004	4.25
400.211	4.81
400.418	6.6
400.625	7.54
400.831	8.27
401.038	8.63
401.245	7.81
401.452	7.9
401.658	7.98
401.865	9.27
402.072	9.51
402.279	8.13
402.485	8.45
402.692	8.63
402.899	8.74
403.105	8.1
403.312	7.8
403.519	9.02
403.725	9.13
403.932	8.72
404.138	8.22
404.345	8.22
404.552	8.73
404.758	7.53
404.965	7.65
405.171	8.06
405.378	8.54
405.584	8.75
405.791	8.87
405.997	8.19
406.204	8.36
406.41	8.88
406.617	8.13
406.823	7.57
407.029	9.39
407.236	7.75
407.442	7.73
407.649	7.27
407.855	6.57
408.061	6.9
408.268	6.79
408.474	6.72
408.68	6.89
408.887	7.94
409.093	8.03
409.299	6.78
409.505	7.81
409.712	6.7
409.918	5.8
410.124	6.35
410.33	5.62
410.537	6.84
410.743	7.07
410.949	6.37
411.155	5.47
411.361	6.94
411.567	7.4
411.773	7.74
411.98	8.05
412.186	9.62
412.392	9.39
412.598	9.66
412.804	7.62
413.01	5.88
413.216	5.81
413.422	6.1
413.628	5.86
413.834	5.74
414.04	4.52
414.246	5.13
414.452	4.71
414.658	4.24
414.864	3.6
415.07	4.43
415.275	6.11
415.481	6.99
415.687	7.09
415.893	6.61
416.099	6.51
416.305	7.46
416.511	6.8
416.716	6.32
416.922	6.74
417.128	6.97
417.334	6.9
417.539	6.73
417.745	6.75
417.951	6.17
418.157	6.33
418.362	6.24
418.568	6.14
418.774	6.48
418.979	7.06
419.185	7.43
419.391	7.36
419.596	7.15
419.802	7.54
420.008	7.17
420.213	7.81
420.419	7.68
420.624	7.69
420.83	7.86
421.035	7.99
421.241	7.68
421.446	7.29
421.652	7.59
421.857	7.56
422.063	7.06
422.268	7.05
422.474	6.53
422.679	6.16
422.885	5.26
423.09	4.81
423.295	4.4
423.501	4.05
423.706	4.01
423.911	3.79
424.117	3.99
424.322	4.13
424.527	4.29
424.733	4.32
424.938	4.05
425.143	4.54
425.349	4.28
425.554	4.64
425.759	4.75
425.964	4.74
426.169	5.01
426.375	4.89
426.58	3.95
426.785	3.39
426.99	3.04
427.195	4.27
427.4	5.31
427.605	5.56
427.811	4.82
428.016	4.99
428.221	5.53
428.426	4.78
428.631	4.63
428.836	5.63
429.041	5.75
429.246	6.29
429.451	5.91
429.656	4.98
429.861	4.73
430.066	4.6
430.271	5.1
430.476	4.33
430.681	4.42
430.886	4.69
431.09	4.97
431.295	5.43
431.5	5.65
431.705	5.52
431.91	6.66
432.115	6.4
432.32	7.25
432.524	6.23
432.729	6.81
432.934	6.79
433.139	6.83
433.343	6.35
433.548	6.16
433.753	5.54
433.958	5.26
434.162	4.15
434.367	4.96
434.572	3.66
434.776	5.04
434.981	3.97
435.186	4.1
435.39	3.98
435.595	4.03
435.799	3.39
436.004	4.31
436.209	5.17
436.413	5.7
436.618	6.04
436.822	6.65
437.027	5.64
437.231	5.92
437.436	6.19
437.64	6.16
437.845	5.26
438.049	5.89
438.253	5.13
438.458	4.7
438.662	4.56
438.867	4.3
439.071	4.15
439.275	4.76
439.48	4.92
439.684	4.67
439.888	4.96
440.093	5.32
440.297	5.89
440.501	6.5
440.706	6.17
440.91	5.93
441.114	5.64
441.318	6.02
441.523	5.63
441.727	5.66
441.931	5.61
442.135	5.46
442.339	5.74
442.543	5.31
442.748	5.07
442.952	5.36
443.156	5.41
443.36	5.67
443.564	5.45
443.768	5.49
443.972	5.03
444.176	5.4
444.38	5.08
444.584	5.09
444.788	4.68
444.992	4.66
445.196	4.84
445.4	5.27
445.604	5.39
445.808	5.3
446.012	5.66
446.216	6.39
446.42	6.01
446.624	6.26
446.828	6.55
447.032	6.86
447.235	6.7
447.439	6.47
447.643	6.54
447.847	6.06
448.051	5.97
448.254	5.44
448.458	5.34
448.662	6.1
448.866	5.93
449.069	5.77
449.273	5.54
449.477	5.61
449.681	5.92
449.884	5.97
450.088	6.28
450.292	6.12
450.495	6.27
450.699	6.82
450.902	6.51
451.106	6.66
451.31	6.47
451.513	7.24
451.717	7.82
451.92	7.7
452.124	7.44
452.327	7.3
452.531	7.82
452.734	7.72
452.938	7.32
453.141	7.11
453.345	6.86
453.548	6.73
453.752	6.41
453.955	5.92
454.158	5.61
454.362	5.58
454.565	5.76
454.769	6.24
454.972	6.17
455.175	5.65
455.379	5.14
455.582	5.64
455.785	6
455.988	4.77
456.192	4.81
456.395	4.91
456.598	4.54
456.801	3.76
457.005	3.95
457.208	3.72
457.411	3.78
457.614	4.19
457.817	3.73
458.021	3.43
458.224	3.92
458.427	3.46
458.63	3.55
458.833	3.45
459.036	3.73
459.239	3.59
459.442	4.12
459.645	4.46
459.848	4.45
460.051	4.46
460.254	4.67
460.457	5.15
460.66	5.43
460.863	5.65
461.066	6.28
461.269	5.94
461.472	5.57
461.675	5.37
461.878	5.25
462.081	5.19
462.284	5.52
462.486	5.41
462.689	5.21
462.892	5.05
463.095	5.09
463.298	4.68
463.5	5.69
463.703	5.14
463.906	5.56
464.109	5.85
464.311	5.97
464.514	5.36
464.717	5.5
464.92	5.6
465.122	5.43
465.325	5.6
465.528	5.73
465.73	5.53
465.933	6.05
466.135	5.58
466.338	5.42
466.541	5.76
466.743	6.47
466.946	6.96
467.148	6.67
467.351	7.4
467.553	6.43
467.756	6.37
467.958	6.44
468.161	5.95
468.363	5.69
468.566	5.24
468.768	4.56
468.971	4.58
469.173	3.98
469.375	3.93
469.578	3.83
469.78	4.47
469.983	3.79
470.185	2.8
470.387	2.91
470.59	3.4
470.792	2.98
470.994	2.84
471.196	3.1
471.399	2.7
471.601	3.21
471.803	2.85
472.005	2.56
472.208	3.45
472.41	4.44
472.612	4.91
472.814	4.24
473.016	4.63
473.218	4.95
473.421	4.5
473.623	4.54
473.825	3.5
474.027	3.46
474.229	3.57
474.431	3.03
474.633	2.78
474.835	3.02
475.037	3.69
475.239	3.87
475.441	4.07
475.643	4.48
475.845	4.77
476.047	5.39
476.249	5.67
476.451	5.8
476.653	5.84
476.855	5.96
477.057	5.27
477.258	5.28
477.46	5.59
477.662	5.41
477.864	5.42
478.066	5.41
478.268	5.17
478.469	5.02
478.671	5.19
478.873	5.72
479.075	4.97
479.276	5.39
479.478	4.94
479.68	4.5
479.882	4.56
480.083	4.09
480.285	4.16
480.487	4.34
480.688	4.46
480.89	3.93
481.091	3.66
481.293	4.04
481.495	4
481.696	4.25
481.898	4.06
482.099	4.06
482.301	4.11
482.502	4.22
482.704	4.24
482.905	4.23
483.107	4.5
483.308	4.65
483.51	4.64
483.711	4.53
483.913	4.51
484.114	4.51
484.315	4.5
484.517	4.38
484.718	4.03
484.92	3.75
485.121	3.52
485.322	3.54
485.524	3.5
485.725	3.44
485.926	3.59
486.127	3.52
486.329	3.73
486.53	4.08
486.731	4.18
486.932	4.5
487.134	4.61
487.335	4.96
487.536	4.91
487.737	4.84
487.938	5
488.139	4.97
488.341	5.01
488.542	5.11
488.743	4.7
488.944	4.64
489.145	4.22
489.346	4.42
489.547	4
489.748	3.94
489.949	3.96
490.15	4.11
490.351	4.29
490.552	4.31
490.753	4.41
490.954	4.46
491.155	4.56
491.356	4.74
491.557	4.54
491.758	4.83
491.959	5
492.159	5
492.36	4.94
492.561	5.1
492.762	4.96
492.963	4.95
493.164	4.98
493.364	5.22
493.565	5.57
493.766	5.54
493.967	5.58
494.167	5.55
494.368	5.61
494.569	5.7
494.769	5.04
494.97	5.36
495.171	5.34
495.371	5.36
495.572	4.98
495.773	4.83
495.973	4.95
496.174	5.15
496.375	4.82
496.575	4.22
496.776	4.17
496.976	4.57
497.177	4.66
497.377	4.44
497.578	4.18
497.778	4.62
497.979	4.72
498.179	4.96
498.38	4.91
498.58	5.09
498.78	6.15
498.981	5.66
499.181	5.57
499.382	5.4
499.582	5.23
499.782	5.26
499.983	5.31
500.183	5.44
500.383	5.22
500.584	5.05
500.784	5.19
500.984	4.52
501.184	4.81
501.385	4.95
501.585	4.7
501.785	4.9
501.985	5.02
502.185	4.68
502.386	4.34
502.586	4.28
502.786	4.19
502.986	4.34
503.186	4.72
503.386	5.59
503.586	5.62
503.786	5.9
503.987	5.95
504.187	6.16
504.387	6.47
504.587	6.53
504.787	6.75
504.987	6.54
505.187	6.55
505.387	5.97
505.587	4.87
505.786	4.63
505.986	4.64
506.186	4.33
506.386	4.44
506.586	4.29
506.786	4.78
506.986	4.76
507.186	5.18
507.386	5.38
507.585	6.4
507.785	6.73
507.985	7.46
508.185	7.43
508.384	7.38
508.584	7.02
508.784	7.2
508.984	7.08
509.183	7.24
509.383	6.89
509.583	6.77
509.782	6
509.982	6.5
510.182	5.77
510.381	5.82
510.581	6.37
510.781	7.04
510.98	6.81
511.18	6.57
511.379	6.56
511.579	6.74
511.778	6.23
511.978	6.36
512.177	6.48
512.377	6.72
512.576	7.1
512.776	6.99
512.975	6.65
513.175	6.87
513.374	7.03
513.573	6.99
513.773	6.94
513.972	7.55
514.172	8.05
514.371	7.05
514.57	6.53
514.77	6.7
514.969	6.74
515.168	6.52
515.367	6.53
515.567	6.6
515.766	6.34
515.965	6.51
516.164	6.22
516.364	6.14
516.563	6.42
516.762	6.94
516.961	6.6
517.16	6.99
517.359	7.32
517.559	7.31
517.758	7.57
517.957	7.69
518.156	7.72
518.355	7.97
518.554	7.61
518.753	7.67
518.952	7.73
519.151	7.6
519.35	7.39
519.549	7.19
519.748	7.29
519.947	6.97
520.146	7.08
520.345	7.47
520.544	7.6
520.743	7.28
520.942	7.52
521.141	7.42
521.339	7.28
521.538	6.87
521.737	6.77
521.936	6.76
522.135	6.55
522.333	6.39
522.532	6.51
522.731	6.24
522.93	7.11
523.129	7.24
523.327	7.42
523.526	7.39
523.725	7.57
523.923	7.7
524.122	7.62
524.321	7.8
524.519	7.71
524.718	7.37
524.917	7.63
525.115	7.59
525.314	7.49
525.512	7.52
525.711	7.72
525.909	7.97
526.108	8.19
526.306	7.9
526.505	7.84
526.703	8.36
526.902	8.4
527.1	8.42
527.299	8.46
527.497	8.57
527.696	8.6
527.894	8.72
528.092	8.74
528.291	8.64
528.489	8.92
528.688	9.03
528.886	9
529.084	9.23
529.283	9.16
529.481	9.14
529.679	9.17
529.877	9.25
530.076	9.05
530.274	9.19
530.472	9.25
530.67	9.42
530.869	9.39
531.067	9.1
531.265	8.98
531.463	8.95
531.661	8.93
531.859	8.83
532.057	8.97
532.255	8.69
532.454	8.68
532.652	9.02
532.85	8.95
533.048	9.29
533.246	9.3
533.444	9.48
533.642	9.65
533.84	9.57
534.038	9.41
534.236	9.04
534.434	9.67
534.632	9.49
534.83	9.4
535.027	9.29
535.225	9.24
535.423	9.19
535.621	9.22
535.819	9.09
536.017	9.31
536.215	9.57
536.412	9.43
536.61	9.68
536.808	9.68
537.006	9.56
537.203	10.08
537.401	9.92
537.599	10.06
537.797	9.75
537.994	10.13
538.192	10.41
538.39	10.31
538.587	10.69
538.785	10.39
538.983	10.57
539.18	10.58
539.378	10.58
539.575	10.8
539.773	10.9
539.97	11.14
540.168	11.29
540.366	11.13
540.563	11.38
540.761	11.53
540.958	11.7
541.155	11.35
541.353	11.5
541.55	11.63
541.748	11.8
541.945	11.91
542.143	11.71
542.34	11.73
542.537	11.74
542.735	11.65
542.932	11.98
543.129	11.84
543.327	12.25
543.524	12.09
543.721	11.83
543.919	11.28
544.116	11.32
544.313	11.54
544.51	11.49
544.708	11.65
544.905	11.61
545.102	11.02
545.299	11.54
545.496	11.73
545.693	12.27
545.891	12.26
546.088	12.33
546.285	12.21
546.482	11.97
546.679	12.03
546.876	12.01
547.073	12.09
547.27	12.39
547.467	12.44
547.664	12.91
547.861	12.06
548.058	12.29
548.255	12.79
548.452	12.7
548.649	13.46
548.846	13.29
549.043	14.08
549.24	14.63
549.437	15.11
549.633	15.02
549.83	14.65
550.027	14.8
550.224	14.97
550.421	14.52
550.618	15.12
550.814	14.56
551.011	14.29
551.208	14.38
551.405	14.59
551.601	14.46
551.798	14.34
551.995	14.38
552.191	14.71
552.388	14.15
552.585	14.21
552.781	14.14
552.978	14.88
553.175	15.73
553.371	15.68
553.568	15.41
553.764	15.03
553.961	15.52
554.157	15.34
554.354	15.53
554.55	16.66
554.747	17.68
554.943	18
555.14	18.61
555.336	18.03
555.533	17.89
555.729	17.95
555.926	18.62
556.122	18.03
556.318	18.44
556.515	18.72
556.711	17.87
556.907	17.48
557.104	17.86
557.3	17.01
557.496	17.09
557.693	17.26
557.889	17.42
558.085	17.46
558.281	17.91
558.478	17.79
558.674	17.66
558.87	18.62
559.066	18.9
559.262	18.17
559.459	17.69
559.655	17.99
559.851	17.63
560.047	17.82
560.243	17.16
560.439	17.36
560.635	17.71
560.831	18.17
561.027	17.62
561.223	17.41
561.419	17.75
561.615	18.04
561.811	18.15
562.007	17.8
562.203	17.49
562.399	17.53
562.595	17.17
562.791	16.74
562.987	16.24
563.183	17.11
563.379	16.89
563.575	17.32
563.771	17.98
563.966	17.72
564.162	18.24
564.358	18.82
564.554	19.44
564.75	19.73
564.945	19.84
565.141	20.18
565.337	19.74
565.533	20.36
565.728	19.57
565.924	19.09
566.12	18.8
566.315	18.97
566.511	19.06
566.707	18.97
566.902	19.07
567.098	19.45
567.293	19.93
567.489	20.16
567.684	19.57
567.88	20.4
568.076	20.75
568.271	21.52
568.467	21.66
568.662	21.32
568.858	21.92
569.053	21.98
569.248	22.08
569.444	21.4
569.639	21.35
569.835	21.87
570.03	22.09
570.225	21.93
570.421	21.81
570.616	21.8
570.812	21.04
571.007	20.89
571.202	20.83
571.397	21.37
571.593	21.75
571.788	21.98
571.983	22
572.178	22.05
572.374	22.29
572.569	22.91
572.764	22.74
572.959	23.04
573.154	22.72
573.35	23.29
573.545	22.65
573.74	23.44
573.935	23.48
574.13	23.55
574.325	23.54
574.52	23.24
574.715	22.38
574.91	23.07
575.105	24.16
575.3	24.34
575.495	24.01
575.69	24.13
575.885	23.78
576.08	24.23
576.275	24.37
576.47	24.72
576.665	25.8
576.86	26.48
577.055	25.46
577.25	24.81
577.444	25.15
577.639	25.04
577.834	25.27
578.029	25.25
578.224	24.71
578.418	24.99
578.613	25.52
578.808	25.28
579.003	25.82
579.197	26.61
579.392	27.04
579.587	27.13
579.781	26.97
579.976	27.21
580.171	27.18
580.365	27.34
580.56	27.45
580.755	27.29
580.949	27.12
581.144	27.03
581.338	27.59
581.533	27.67
581.727	27.34
581.922	28.23
582.116	28.18
582.311	27.99
582.505	28.05
582.7	28.06
582.894	27.68
583.089	28.92
583.283	28.71
583.478	28.72
583.672	28.05
583.866	28.33
584.061	27.89
584.255	27.68
584.449	27.24
584.644	27.27
584.838	26.89
585.032	27.19
585.226	26.29
585.421	26.42
585.615	25.94
585.809	25.95
586.003	25.84
586.198	25.98
586.392	25.74
586.586	26.32
586.78	26.54
586.974	26.68
587.168	26.23
587.363	26.31
587.557	26.09
587.751	26.32
587.945	26.78
588.139	26.09
588.333	26.05
588.527	26.21
588.721	26.82
588.915	26.41
589.109	26.53
589.303	25.86
589.497	25.23
589.691	25.01
589.885	25.41
590.079	25.26
590.273	26.35
590.466	26.63
590.66	26.53
590.854	26.49
591.048	26.41
591.242	26.31
591.436	27.06
591.629	27.01
591.823	27.99
592.017	27.7
592.211	27.47
592.404	27.77
592.598	27.93
592.792	28.53
592.986	27.85
593.179	27.45
593.373	27.64
593.567	27.27
593.76	28.14
593.954	27.21
594.147	27.11
594.341	28.2
594.535	28.36
594.728	28.87
594.922	28.96
595.115	28.7
595.309	29.08
595.502	29.16
595.696	29.08
595.889	28.91
596.083	29.05
596.276	29.3
596.47	28.7
596.663	28.44
596.856	27.66
597.05	27.85
597.243	28.26
597.437	28.43
597.63	27.97
597.823	28.62
598.017	28.43
598.21	29
598.403	28.48
598.596	29.07
598.79	28.91
598.983	29.28
599.176	29.13
599.369	29.62
599.563	28.98
599.756	30.21
599.949	30.52
600.142	31.04
600.335	30.5
600.528	30.39
600.722	30.52
600.915	30.83
601.108	30.59
601.301	30.08
601.494	29.96
601.687	30.58
601.88	30.04
602.073	29.34
602.266	29.3
602.459	29.29
602.652	29.94
602.845	28.91
603.038	28.54
603.231	28.53
603.424	28.57
603.617	28.56
603.809	28.77
604.002	28.43
604.195	29.06
604.388	28.62
604.581	29.21
604.774	29.31
604.966	30.18
605.159	30.31
605.352	30.14
605.545	30.08
605.737	30.27
605.93	29.95
606.123	30.01
606.316	29.35
606.508	30.18
606.701	29.24
606.894	28.8
607.086	28.49
607.279	28.92
607.471	28.56
607.664	29.17
607.857	28.76
608.049	28.83
608.242	29.14
608.434	29.81
608.627	29.83
608.819	30.32
609.012	30.79
609.204	31.28
609.397	30.43
609.589	30.73
609.782	30.62
609.974	30.03
610.166	30.66
610.359	30.86
610.551	30.37
610.743	30.12
610.936	30.6
611.128	29.8
611.32	29.86
611.513	30.86
611.705	31.84
611.897	32.25
612.09	33.3
612.282	33.15
612.474	33.12
612.666	33.41
612.858	33.56
613.051	33.36
613.243	33.84
613.435	33.17
613.627	31.97
613.819	31.15
614.011	30.53
614.203	30.14
614.395	30.41
614.588	30.81
614.78	30.83
614.972	29.91
615.164	30.09
615.356	30.14
615.548	31.02
615.74	32.11
615.932	32.12
616.124	32.91
616.315	32.56
616.507	32.22
616.699	31.81
616.891	31.93
617.083	33.04
617.275	32.05
617.467	32.3
617.659	31.86
617.85	31.65
618.042	32.48
618.234	31.32
618.426	31.29
618.618	30.95
618.809	31.17
619.001	31.39
619.193	30
619.384	31.24
619.576	30.98
619.768	31.36
619.959	31.64
620.151	30.89
620.343	32.2
620.534	33.28
620.726	34.21
620.917	34.08
621.109	34.53
621.301	35.92
621.492	35.5
621.684	35.56
621.875	35.18
622.067	35.23
622.258	35.35
622.45	35.86
622.641	35.43
622.832	34.92
623.024	34.97
623.215	34.16
623.407	32.61
623.598	32.43
623.789	31.72
623.981	31.94
624.172	32.8
624.363	33.24
624.555	31.46
624.746	30.72
624.937	30.69
625.129	30.53
625.32	29.96
625.511	30.55
625.702	30.5
625.893	31.14
626.085	31.9
626.276	31.06
626.467	31.28
626.658	32.22
626.849	32.86
627.04	32.64
627.231	31.72
627.422	31.74
627.614	32.21
627.805	31.79
627.996	31.89
628.187	31.15
628.378	32.05
628.569	32.42
628.76	31.7
628.951	32.11
629.142	33.02
629.332	33.27
629.523	34.61
629.714	34.08
629.905	34.96
630.096	34.38
630.287	33.91
630.478	32.06
630.669	31.04
630.859	33.45
631.05	32.87
631.241	32.42
631.432	32.65
631.623	31.83
631.813	31.65
632.004	31.45
632.195	31.99
632.385	31.92
632.576	32.06
632.767	31.9
632.957	30.2
633.148	30.72
633.339	30.92
633.529	32.06
633.72	32.11
633.91	32.53
634.101	32.37
634.292	31.9
634.482	31.91
634.673	32.22
634.863	32.11
635.054	32.59
635.244	32.42
635.435	31.8
635.625	31.62
635.815	31.88
636.006	31.86
636.196	32.66
636.387	33.1
636.577	33.17
636.767	33.35
636.958	33.03
637.148	33.44
637.338	34.66
637.529	34.62
637.719	34.58
637.909	34.37
638.099	34.85
638.29	33.85
638.48	33.79
638.67	34.46
638.86	34.75
639.05	35.93
639.241	35.34
639.431	34.28
639.621	33.73
639.811	33.26
640.001	33.27
640.191	32.43
640.381	32.79
640.571	32.58
640.761	32.35
640.951	33.9
641.141	32.99
641.331	33
641.521	33.13
641.711	33.17
641.901	33.13
642.091	32.48
642.281	32.75
642.471	33.44
642.661	34.12
642.851	32.63
643.041	31.14
643.231	31.59
643.42	31.56
643.61	30.67
643.8	31.51
643.99	31.89
644.18	33.25
644.369	34.87
644.559	33.06
644.749	32.01
644.939	33.92
645.128	34.29
645.318	33.48
645.508	33.21
645.697	34.07
645.887	33.99
646.076	33.76
646.266	33.34
646.456	31.6
646.645	32.35
646.835	33
647.024	32.19
647.214	31.77
647.403	32.35
647.593	33.15
647.782	33.1
647.972	33.02
648.161	31.88
648.351	31.74
648.54	32.58
648.73	32.94
648.919	32.74
649.108	32.37
649.298	32.32
649.487	31.31
649.677	30.54
649.866	30.92
650.055	31.24
650.244	32.73
650.434	33.51
650.623	33.04
650.812	33.68
651.002	34.58
651.191	35.52
651.38	35.15
651.569	37.41
651.758	37.51
651.947	36.92
652.137	37.13
652.326	36.52
652.515	35.07
652.704	35.5
652.893	34.61
653.082	34.66
653.271	33.82
653.46	34.49
653.649	33.6
653.838	34.13
654.027	34.54
654.216	33.47
654.405	34.27
654.594	34.97
654.783	34.26
654.972	35.08
655.161	33.75
655.35	34.7
655.539	34.36
655.728	33.93
655.916	33.43
656.105	31.66
656.294	33.2
656.483	32.31
656.672	32.32
656.86	32.19
657.049	31.54
657.238	31.7
657.427	32.54
657.615	33.21
657.804	33.79
657.993	33.88
658.181	35.21
658.37	34.99
658.559	35.59
658.747	36.34
658.936	36.7
659.125	38.27
659.313	39.6
659.502	39.21
659.69	39.02
659.879	39.89
660.067	39.53
660.256	38.42
660.444	37.93
660.633	37.74
660.821	37.39
661.01	37.75
661.198	36.55
661.387	36.04
661.575	35
661.763	34.48
661.952	33.89
662.14	34.71
662.328	36.11
662.517	36.8
662.705	36.61
662.893	36.15
663.082	36.18
663.27	35.68
663.458	35.11
663.646	36.64
663.834	37.61
664.023	36.14
664.211	34.81
664.399	33.28
664.587	32.42
664.775	32.66
664.963	33.16
665.152	33.67
665.34	34.29
665.528	33.67
665.716	33.35
665.904	31.98
666.092	32.73
666.28	33.31
666.468	34.48
666.656	35.02
666.844	35.06
667.032	35.3
667.22	35.2
667.408	34.5
667.596	35.02
667.784	34.29
667.971	35.78
668.159	36.07
668.347	36.63
668.535	36.97
668.723	36.46
668.911	35.57
669.098	34.81
669.286	33.83
669.474	33.37
669.662	32.94
669.849	33.66
670.037	33.86
670.225	33.33
670.413	33.27
670.6	33.83
670.788	33.29
670.976	33.13
671.163	34.03
671.351	33.89
671.538	34.81
671.726	34.78
671.913	34.21
672.101	32.91
672.289	34.18
672.476	33.5
672.664	33.18
672.851	34.44
673.039	34.67
673.226	33.84
673.413	34.05
673.601	33.27
673.788	34.38
673.976	35.41
674.163	35.92
674.35	35.5
674.538	37.87
674.725	36.4
674.912	36.83
675.1	37.37
675.287	37.84
675.474	38.57
675.662	39.27
675.849	39.56
676.036	38.41
676.223	38.82
676.411	38.68
676.598	36.66
676.785	38.12
676.972	36.71
677.159	36.27
677.346	36.08
677.533	34.72
677.721	34.56
677.908	34.55
678.095	35.63
678.282	34.56
678.469	34.87
678.656	35.91
678.843	36.05
679.03	36.53
679.217	37.36
679.404	37.57
679.591	39.56
679.778	40.19
679.964	39.81
680.151	38.17
680.338	39.11
680.525	38.06
680.712	37.4
680.899	36.37
681.086	36.18
681.272	36.52
681.459	35.98
681.646	33.16
681.833	33.74
682.02	33
682.206	35.76
682.393	35.92
682.58	36.61
682.766	36.8
682.953	37.19
683.14	37.52
683.326	36.93
683.513	36.4
683.7	37.14
683.886	35.42
684.073	36.07
684.259	34.31
684.446	32.25
684.632	30.96
684.819	29.76
685.005	28.55
685.192	28.24
685.378	30.02
685.565	32.32
685.751	33.08
685.938	34.64
686.124	33.88
686.31	33.17
686.497	35.46
686.683	37.06
686.87	37.85
687.056	37.97
687.242	36.68
687.429	34.74
687.615	33.86
687.801	35.32
687.987	34.44
688.174	36.16
688.36	36.7
688.546	35.23
688.732	34.69
688.918	33.95
689.105	34.27
689.291	35.86
689.477	35.93
689.663	35.97
689.849	34.84
690.035	36.73
690.221	36.29
690.407	36.23
690.593	37.86
690.779	36.28
690.965	35.67
691.151	36.5
691.337	36.51
691.523	37.8
691.709	37.57
691.895	37.31
692.081	35.68
692.267	34.77
692.453	34.08
692.639	32.36
692.825	32.76
693.011	33.91
693.196	33.96
693.382	32.9
693.568	31.69
693.754	30.09
693.94	29.52
694.125	29.81
694.311	29.39
694.497	31.72
694.682	32.14
694.868	31.83
695.054	33.3
695.239	32.47
695.425	32.26
695.611	32.98
695.796	34
695.982	34.55
696.168	34.67
696.353	33.98
696.539	34.05
696.724	34.23
696.91	34.79
697.095	33.71
697.281	34.12
697.466	34.39
697.652	34.04
697.837	33.72
698.023	33.72
698.208	33.73
698.393	34.04
698.579	33.57
698.764	32.81
698.949	33.88
699.135	34.01
699.32	32.95
699.505	33.28
699.691	34.5
699.876	35.91
700.061	37.03
700.246	36.37
700.432	38.49
700.617	37.48
700.802	40.1
700.987	38.11
701.172	39.63
701.358	40.73
701.543	40.88
701.728	38.85
701.913	37.17
702.098	36.21
702.283	38.52
702.468	37.73
702.653	36.54
702.838	33.01
703.023	33.85
703.208	31.87
703.393	31.63
703.578	33.08
703.763	34.76
703.948	36.71
704.133	35.46
704.318	32.32
704.503	32.28
704.688	33.55
704.873	34.14
705.057	34.41
705.242	38.25
705.427	41.38
705.612	41.16
705.797	38.82
705.981	36.95
706.166	37.66
706.351	38.55
706.536	39.15
706.72	41.6
706.905	42.01
707.09	44
707.274	42.27
707.459	39.92
707.644	38.07
707.828	38.89
708.013	39.25
708.197	38.42
708.382	38.1
708.567	37.83
708.751	38.79
708.936	40.61
709.12	38.42
709.305	36.06
709.489	33.57
709.673	36.62
709.858	38.51
710.042	37.57
710.227	40.33
710.411	40.95
710.596	41.84
710.78	39.59
710.964	38.71
711.149	42
711.333	43.75
711.517	47.68
711.702	46.52
711.886	43.99
712.07	46.68
712.254	45.26
712.438	43.67
712.623	42.14
712.807	42.6
712.991	42.39
713.175	41.52
713.359	40.93
713.544	39.87
713.728	38.9
713.912	40.4
714.096	38.44
714.28	38.76
714.464	39.03
714.648	39.12
714.832	38.58
715.016	36.1
715.2	33.39
715.384	32.67
715.568	31.25
715.752	32.23
715.936	31.89
716.12	31.53
716.304	30.16
716.488	29.41
716.671	28.89
716.855	27.31
717.039	30.43
717.223	33.08
717.407	35.4
717.59	35.49
717.774	38.09
717.958	36.05
718.142	34.67
718.325	36.07
718.509	38.39
718.693	38.35
718.877	39.26
719.06	38.39
719.244	38.22
719.428	36.4
719.611	36.96
719.795	31.22
719.978	33.51
720.162	38.01
720.345	36.6
720.529	35.89
720.713	35.53
720.896	34.64
721.08	35.37
721.263	34.82
721.446	34.54
721.63	35.22
721.813	37.43
721.997	36.95
722.18	34.62
722.364	33.38
722.547	32.56
722.73	32.7
722.914	32.86
723.097	33.69
723.28	33.14
723.464	34.1
723.647	33.21
723.83	33.48
724.013	31.16
724.197	32.09
724.38	33.11
724.563	31.34
724.746	31.47
724.929	31.39
725.112	29.01
725.296	30.54
725.479	28.62
725.662	27.41
725.845	25.18
726.028	27.53
726.211	26.99
726.394	26.92
726.577	28.51
726.76	27.45
726.943	26.58
727.126	28.41
727.309	26.96
727.492	29.16
727.675	29.79
727.858	30.76
728.041	28.95
728.224	29.41
728.407	28.97
728.589	26.96
728.772	25.99
728.955	29.85
729.138	29.41
729.321	29
729.503	27.5
729.686	29.39
729.869	29.9
730.052	32.39
730.234	31.9
730.417	32.4
730.6	36.77
730.782	37.52
730.965	35.77
731.148	37.14
731.33	35.11
731.513	34.42
731.695	35.51
731.878	37.48
732.061	38.38
732.243	39.3
732.426	40.6
732.608	39.15
732.791	42.42
732.973	42.61
733.156	40.47
733.338	43.63
733.52	44.29
733.703	41.02
733.885	38.63
734.068	38.95
734.25	39.85
734.432	42.45
734.615	41.93
734.797	41.96
734.979	42.3
735.162	42.62
735.344	42.89
735.526	44.88
735.708	46.29
735.891	49.46
736.073	51.12
736.255	50.38
736.437	50.58
736.619	53.17
736.802	50.75
736.984	49.39
737.166	48.69
737.348	49.38
737.53	49.83
737.712	49.33
737.894	46.95
738.076	45.53
738.258	45.07
738.44	43.2
738.622	40.04
738.804	40.53
738.986	41.72
739.168	44.08
739.35	43.34
739.532	42.51
739.714	44.04
739.896	45
740.078	45.22
740.259	43.89
740.441	44.99
740.623	49.79
740.805	51.46
740.987	52.78
741.168	54.57
741.35	54.86
741.532	52.57
741.714	54.09
741.895	53.45
742.077	51.15
742.259	53.63
742.44	51.49
742.622	47.68
742.804	46.97
742.985	46.13
743.167	39.83
743.348	40.03
743.53	42.58
743.711	38.2
743.893	39.31
744.075	41.37
744.256	37.08
744.438	36.21
744.619	39.3
744.8	37.28
744.982	37.2
745.163	37.92
745.345	39.55
745.526	36.61
745.707	39.38
745.889	35.09
746.07	31.91
746.252	35.42
746.433	34.94
746.614	33.56
746.795	35.69
746.977	31.51
747.158	34.47
747.339	36.22
747.52	40.13
747.702	39.79
747.883	41.4
748.064	43.39
748.245	41
748.426	40.45
748.607	42.05
748.788	41.34
748.97	46.02
749.151	48.3
749.332	43.57
749.513	38.51
749.694	38.12
749.875	40.25
750.056	37.89
750.237	43.16
750.418	42.47
750.599	39.93
750.78	38.84
750.96	38.15
751.141	36.31
751.322	37.78
751.503	38.06
751.684	41.13
751.865	37.46
752.046	38.44
752.226	35.66
752.407	40.31
752.588	42.66
752.769	47.33
752.949	50.47
753.13	49.4
753.311	46.36
753.492	49.52
753.672	50.27
753.853	53.76
754.034	57.61
754.214	60.9
754.395	60.8
754.575	61.1
754.756	61.29
754.937	55.12
755.117	59.22
755.298	65.59
755.478	60.63
755.659	52.41
755.839	52.08
756.02	51.7
756.2	48.6
756.381	49.77
756.561	43.17
756.741	39.04
756.922	39.5
757.102	34.94
757.283	28.78
757.463	33.57
757.643	40.66
757.823	40.18
758.004	40.88
758.184	37.49
758.364	34.55
758.545	34.89
758.725	32.96
758.905	34.27
759.085	35.23
759.265	37.56
759.446	35.62
759.626	28.37
759.806	28.68
759.986	24.92
760.166	28.25
760.346	26.24
760.526	26.4
760.706	28.91
760.886	30.76
761.066	27.95
761.246	26.11
761.426	24.46
761.606	28.72
761.786	27.12
761.966	28.41
762.146	29.43
762.326	29.14
762.506	33.2
762.686	31.42
762.866	31.74
763.046	32.65
763.225	36.94
763.405	38.02
763.585	38.14
763.765	38.33
763.945	38.2
764.124	35.41
764.304	36.11
764.484	33.62
764.664	37.25
764.843	36.25
765.023	36.51
765.203	31.52
765.382	32.68
765.562	30.06
765.741	31.5
765.921	30.01
766.101	34.09
766.28	37.23
766.46	40.56
766.639	43.52
766.819	45.35
766.998	44.57
767.178	48.15
767.357	49.02
767.537	49.02
767.716	56.23
767.896	58.32
768.075	61.29
768.254	62.57
768.434	60.69
768.613	59.13
768.792	55.5
768.972	57.58
769.151	55.28
769.33	55
769.51	55.95
769.689	47.93
769.868	46.72
770.047	45.6
770.226	47.74
770.406	48.43
770.585	47.01
770.764	56.22
770.943	54.89
771.122	57.01
771.301	59.49
771.48	63.06
771.66	65.37
771.839	67.17
772.018	67.33
772.197	60.7
772.376	59.54
772.555	65.77
772.734	55.48
772.913	58.97
773.092	62.48
773.271	62.27
773.449	64.68
773.628	62.15
773.807	64.58
773.986	63.46
774.165	67.99
774.344	69.95
774.523	58.12
774.701	63.53
774.88	67.36
775.059	60.14
775.238	50.02
775.417	44.14
775.595	47.66
775.774	48.71
775.953	47.95
776.131	51.31
776.31	48.01
776.489	50.45
776.667	44.12
776.846	40.72
777.025	44.7
777.203	51.13
777.382	55.48
777.56	52.26
777.739	51.02
777.917	52.55
778.096	50.45
778.274	49.55
778.453	54.24
778.631	61.45
778.81	63.26
778.988	62.33
779.166	61.58
779.345	57.29
779.523	60.32
779.702	56.22
779.88	56.93
780.058	53.02
780.237	57.03
780.415	58.45
780.593	55.83
780.771	50.6
780.95	49.65
781.128	49.57
781.306	50.59
781.484	47.89
781.662	49.09
781.841	49.26
782.019	51.13
782.197	49.24
782.375	47.79
782.553	51.39
782.731	52.3
782.909	56.26
783.087	57.42
783.265	56.81
783.443	57.37
783.621	60.04
783.799	59.23
783.977	59.44
784.155	64.51
784.333	58.51
784.511	57.83
784.689	57.21
784.867	50.3
785.045	49.3
785.223	50.77
785.4	59.65
785.578	62.47
785.756	66.83
785.934	68.63
786.112	60.88
786.289	67.46
786.467	56.73
786.645	55.47
786.823	58.58
787	59.28
787.178	63.24
787.356	59.85
787.533	52.16
787.711	52.86
787.889	50.02
788.066	56.51
788.244	46.02
788.421	54.18
788.599	55.81
788.776	50.28
788.954	46.78
789.131	44.14
789.309	46.06
789.486	46.86
789.664	42.96
789.841	43.88
790.019	44.35
790.196	49.8
790.373	46.65
790.551	45.98
790.728	51.99
790.906	54.69
791.083	62.26
791.26	61.05
791.437	60.29
791.615	60.09
791.792	64.13
791.969	61.34
792.146	59.52
792.324	62.25
792.501	62.37
792.678	62.15
792.855	60.31
793.032	52.56
793.209	51.13
793.387	60.31
793.564	58.77
793.741	55.94
793.918	55.15
794.095	54.9
794.272	51.16
794.449	48.77
794.626	48.48
794.803	51.89
794.98	53.02
795.157	50.38
795.334	48.88
795.511	49.28
795.688	46.71
795.864	46.44
796.041	53.23
796.218	55.92
796.395	60.11
796.572	63.71
796.749	62.64
796.925	59.78
797.102	64.95
797.279	57.07
797.456	56.46
797.632	59.28
797.809	60.71
797.986	52.15
798.162	48.26
798.339	47.12
798.516	44.68
798.692	41.47
798.869	38.78
799.046	37.51
799.222	39.76
799.399	41.53
799.575	41.7
799.752	48.57
799.928	52.39
800.105	56.5
800.281	50.88
800.458	49.12
800.634	44.28
800.811	42.97
800.987	45.08
801.163	39.07
801.34	35.67
801.516	30.32
801.692	25.77
801.869	23.52
802.045	29.88
802.221	38.74
802.398	44.88
802.574	47.82
802.75	45.76
802.926	40.25
803.103	51.18
803.279	51.96
803.455	59.26
803.631	58.47
803.807	61.82
803.983	56.18
804.16	44.63
804.336	43.72
804.512	45.15
804.688	47.43
804.864	47.95
805.04	41.08
805.216	39.89
805.392	41.19
805.568	46.05
805.744	40.03
805.92	38.29
806.096	46.21
806.272	46.7
806.448	54.28
806.623	51.74
806.799	54.64
806.975	58.95
807.151	68.82
807.327	49.9
807.503	45.78
807.678	43.14
807.854	36.26
808.03	30.09
808.206	22.11
808.381	21.34
808.557	15.71
808.733	17.12
808.908	20.77
809.084	18.76
809.26	27.51
809.435	22.31
809.611	25.37
809.787	37.95
809.962	42.68
810.138	39.84
810.313	41.07
810.489	45.88
810.664	45.08
810.84	35.8
811.015	36.89
811.191	32.27
811.366	41.5
811.542	46.47
811.717	52.52
811.892	57.84
812.068	50.89
812.243	44.21
812.419	45.55
812.594	33.1
812.769	30.14
812.944	24.66
813.12	28.05
813.295	26.93
813.47	25.91
813.645	30.75
813.821	34.32
813.996	42.88
814.171	38.93
814.346	46.14
814.521	63.94
814.697	65.87
814.872	73.28
815.047	65.46
815.222	64.55
815.397	71.21
815.572	58.08
815.747	47.99
815.922	41.97
816.097	44.02
816.272	41.14
816.447	37.86
816.622	38.89
816.797	39.8
816.972	45.03
817.147	43.89
817.322	32.08
817.496	30.93
817.671	34.05
817.846	32
818.021	35.28
818.196	30.28
818.371	22.54
818.545	28.61
818.72	25.65
818.895	27.24
819.069	29.14
819.244	30.89
819.419	29.75
819.594	25.86
819.768	29.57
819.943	29.65
820.117	29.81
820.292	28.53
820.467	25.65
820.641	25.22
820.816	24.43
820.99	23.3
821.165	22.64
821.339	21.96
821.514	22.89
821.688	23.17
821.863	22.24
822.037	21.42
822.212	24.39
822.386	25.59
822.56	25.33
822.735	24.34
822.909	23.21
823.084	24.11
823.258	26.2
823.432	23.9
823.606	24.58
823.781	21.03
823.955	23.46
824.129	16.52
824.303	19.56
824.478	22.44
824.652	24.4
824.826	27.02
825	27.96
825.174	24.8
825.348	26.12
825.523	26.96
825.697	29.63
825.871	27.27
826.045	29.65
826.219	27.53
826.393	22.9
826.567	24.12
826.741	23.8
826.915	19.42
827.089	20.97
827.263	22.59
827.437	17.84
827.611	19.86
827.784	22.65
827.958	24.42
828.132	21.75
828.306	27.11
828.48	21.16
828.654	27.31
828.827	30.52
829.001	29.74
829.175	18
829.349	23.24
829.522	16.9
829.696	15.1
829.87	20.5
830.044	22.94
830.217	27.42
830.391	21.28
830.565	13.58
830.738	14.27
830.912	20.02
831.085	27.94
831.259	28.35
831.432	31.2
831.606	35.2
831.779	30.27
831.953	25.25
832.126	27.61
832.3	35.95
832.473	35.83
832.647	36.67
832.82	36.86
832.994	42.34
833.167	39.66
833.34	42.1
833.514	40.15
833.687	39.89
833.86	45.44
834.034	46.47
834.207	46.68
834.38	50.78
834.553	53
834.727	55.06
834.9	56.14
835.073	62.39
835.246	63.12
835.419	67.14
835.593	71.54
835.766	65.14
835.939	58.54
836.112	54.14
836.285	44.67
836.458	50.58
836.631	47.81
836.804	48.37
836.977	52.14
837.15	56.74
837.323	49.06
837.496	33.09
837.669	57.39
837.842	72.69
838.015	69.87
838.188	75.64
838.361	55.02
838.533	41.91
838.706	49.83
838.879	46.16
839.052	30.74
839.225	23.74
839.398	41.94
839.57	32.06
839.743	20.33
839.916	28.16
840.088	48.41
840.261	42.27
840.434	37.79
840.607	24.2
840.779	20.14
840.952	28.88
841.124	35.91
841.297	26.39
841.47	45.24
841.642	53.51
841.815	42.39
841.987	26.04
842.16	21.74
842.332	38.78
842.505	37.57
842.677	41.94
842.85	46.71
843.022	41.3
843.194	44.93
843.367	30.69
843.539	34.58
843.712	39.23
843.884	29.57
844.056	37.98
844.229	34.06
844.401	34.7
844.573	13.76
844.745	15.91
844.918	21.47
845.09	16.77
845.262	3.63
845.434	-4.92
845.606	-4.76
845.779	-21.84
845.951	-14.2
846.123	-47.05
846.295	-0.67
846.467	7.46
846.639	-5.08
846.811	-44.89
846.983	-47.74
847.155	-31.58
847.327	-14.07
847.499	-37.29
847.671	2.29
847.843	-6.19
848.015	20.44
848.187	11.23
848.359	43.82
848.531	38.27
848.703	59.9
848.875	67.74
849.047	177.78
849.218	304.24
849.39	180.93
849.562	438.46
849.734	142.38
849.905	116.98
850.077	135.95
850.249	87.89
850.421	72.37
850.592	105.12
850.764	94.83
850.936	85.63
851.107	71.87
851.279	58.52
851.451	52.51
851.622	55.88
851.794	45.52
851.965	44.77
852.137	38.26
852.308	28.02
852.48	7.72
852.651	16.87
852.823	3.46
852.994	34.45
853.166	67.75
853.337	89.27
853.509	87.18
853.68	85.9
853.851	88.33
854.023	98.73
854.194	104.97
854.365	99.47
854.537	74.14
854.708	63.44
854.879	57.7
855.05	48.7
855.222	48.42
855.393	43.98
855.564	49.77
855.735	37.31
855.906	19.59
856.078	-27.39
856.249	-94.85
856.42	-3.51
856.591	36.44
856.762	-12.69
856.933	21.55
857.104	11.54
857.275	-34.11
857.446	-27.97
857.617	-21.75
857.788	2.49
857.959	47.95
858.13	51.44
858.301	44.41
858.472	28.05
858.643	60.15
858.814	51.27
858.985	62.41
859.155	71.27
859.326	81.36
859.497	101.78
859.668	81.66
859.839	72.64
860.009	85.59
860.18	65.93
860.351	77.59
860.522	46.04
860.692	35.7
860.863	7.57
861.034	4.52
861.204	-19.92
861.375	-57.48
861.546	-88.05
861.716	-139.88
861.887	-94.33
862.057	-31.46
862.228	-14.41
862.398	-5.18
862.569	8.35
862.739	28.6
862.91	38.16
863.08	58.66
863.251	54.37
863.421	54.75
863.592	49.06
863.762	45.69
863.932	21.54
864.103	28.16
864.273	22.75
864.443	23.8
864.614	23.29
864.784	24.49
864.954	15.06
865.125	24.08
865.295	22.36
865.465	41.47
865.635	41.35
865.805	50.47
865.976	54.82
866.146	67.49
866.316	53.7
866.486	57.33
866.656	62.65
866.826	65.9
866.996	85.63
867.166	98.68
867.336	108.24
867.506	113.57
867.676	94.99
867.846	83.3
868.016	97.54
868.186	141.42
868.356	151.44
868.526	362.5
868.696	7900
868.866	225.88
869.036	-123.85
869.206	-383.87
869.376	-463.41
869.545	-119.44
869.715	-219.73
869.885	-309.49
870.055	-142.8
870.224	-122.08
870.394	-115.76
870.564	-57.35
870.734	-38.81
870.903	-62.5
871.073	9.34
871.243	-6.18
871.412	30.8
871.582	10.26
871.751	8.14
871.921	-0.72
872.091	6.43
872.26	28.21
872.43	-5.33
872.599	15.76
872.769	19.87
872.938	-1.72
873.108	-16.57
873.277	0.14
873.446	13.39
873.616	6.98
873.785	38.58
873.955	51.21
874.124	43.74
874.293	53.23
874.463	45.78
874.632	28.89
874.801	22.74
874.971	42.45
875.14	28.8
875.309	30.18
875.478	39.81
875.647	21.02
875.817	27.82
875.986	21.06
876.155	18.08
876.324	30.32
876.493	49.19
876.662	44.44
876.831	37.69
877	24.49
877.17	24.19
877.339	27.51
877.508	10.66
877.677	2.49
877.846	18.57
878.015	18.01
878.184	16.83
878.352	18.23
878.521	19.79
878.69	30.84
878.859	25.35
879.028	33.14
879.197	34.56
879.366	42.51
879.534	33.66
879.703	22.44
879.872	22.57
880.041	18.46
880.21	15.62
880.378	22.84
880.547	19.42
880.716	28.95
880.884	23.38
881.053	21.99
881.222	23.62
881.39	29.53
881.559	32.61
881.727	34.87
881.896	34.77
882.065	36.82
882.233	31.68
882.402	31.91
882.57	26.06
882.739	28.92
882.907	26.91
883.076	23.92
883.244	28.65
883.412	30.82
883.581	20.97
883.749	16.19
883.918	14.97
884.086	22.13
884.254	30.42
884.423	37.46
884.591	34.06
884.759	33.98
884.927	48.81
885.096	3.25
885.264	-24.31
885.432	-71.11
885.6	-31.8
885.769	-16.67
885.937	-38.57
886.105	-44.65
886.273	-65.96
886.441	-36.64
886.609	2.89
886.777	-6.76
886.945	-8.5
887.113	-14.08
887.281	57.61
887.449	67.18
887.617	73.13
887.785	81.8
887.953	84.73
888.121	73.46
888.289	55.27
888.457	40.48
888.625	46.46
888.793	55.77
888.961	63
889.129	54.44
889.296	65.73
889.464	53.14
889.632	47.5
889.8	18.85
889.967	19.75
890.135	33.86
