Data from JASIL_3241_Reflection_1.txt Node
Date: Mon Nov 16 20:28:59 EST 2015
User: Geneva
Spectrometer: USB4E03002
Autoset integration time: false
Trigger mode: 4
Integration Time (sec): 1.000000E-1
Scans to average: 10
Electric dark correction enabled: false
Nonlinearity correction enabled: false
Boxcar width: 5
Stray light correction enabled: false
XAxis mode: Wavelengths
Stop averaging: false
Number of Pixels in Spectrum: 3648
>>>>>Begin Spectral Data<<<<<
177.575	-400.85
177.794	-421.43
178.014	-369.88
178.233	-633.64
178.452	-822.89
178.672	-587.12
178.891	-668.87
179.11	1897.3
179.33	453.57
179.549	-2359.09
179.768	340.68
179.987	231.18
180.207	116.13
180.426	111.15
180.645	88.93
180.864	128.57
181.084	79.18
181.303	77.31
181.522	101.36
181.741	402.82
181.96	163.82
182.179	236.8
182.398	319.56
182.618	341.95
182.837	353.36
183.056	325.4
183.275	205.34
183.494	221.63
183.713	252.84
183.932	214.78
184.151	220.79
184.37	221.25
184.589	198.63
184.808	199.47
185.027	188.08
185.246	214.17
185.465	330.81
185.684	385.16
185.903	1289.66
186.122	471.75
186.341	571.91
186.56	313.68
186.779	492.75
186.998	686.15
187.216	548.82
187.435	485.03
187.654	376.76
187.873	194.91
188.092	186.62
188.311	202.29
188.53	276.29
188.748	261.49
188.967	531.2
189.186	319.16
189.405	298.27
189.623	313.43
189.842	243.62
190.061	285.65
190.28	830.77
190.498	-563.75
190.717	503.17
190.936	-1106.78
191.154	-639.29
191.373	-14333.33
191.592	-7827.27
191.81	-503.45
192.029	-723.66
192.248	-242.25
192.466	-229.71
192.685	-252.88
192.904	-380.59
193.122	-223.47
193.341	-482.16
193.559	-385.28
193.778	-409.09
193.996	-553.44
194.215	23550
194.433	-1871.43
194.652	439.41
194.87	340.26
195.089	229.69
195.307	216.84
195.526	581.36
195.744	370.18
195.963	300.55
196.181	5725
196.399	-402.56
196.618	1770
196.836	8483.33
197.055	-371.31
197.273	-1094.83
197.491	-878.89
197.71	-1713.73
197.928	1246.25
198.146	2323.81
198.365	-9850
198.583	548.92
198.801	650.88
199.019	1529.87
199.238	-2485.71
199.456	1103.77
199.674	444.92
199.892	308.38
200.111	409.62
200.329	446.42
200.547	326.76
200.765	260.73
200.983	274.1
201.202	253.81
201.42	331.5
201.638	244.81
201.856	219.89
202.074	704.96
202.292	816.16
202.51	504.08
202.728	698.97
202.946	-1555
203.165	2596.97
203.383	-881.44
203.601	-997.67
203.819	2106
204.037	9580
204.255	1230.93
204.473	500.93
204.691	782
204.909	542.86
205.127	544.65
205.345	683.52
205.562	588.12
205.78	336.24
205.998	365.71
206.216	287.14
206.434	296.96
206.652	232.42
206.87	224.57
207.088	172.12
207.306	213.23
207.523	199.2
207.741	157.3
207.959	159.02
208.177	204.55
208.395	151.89
208.612	154.37
208.83	150.39
209.048	179.15
209.266	182.56
209.483	190.82
209.701	180.88
209.919	210.65
210.136	239.36
210.354	513.5
210.572	476.47
210.79	757.04
211.007	512.66
211.225	705.43
211.442	-3819.05
211.66	-1066.67
211.878	-388.19
212.095	55.83
212.313	66
212.53	24.79
212.748	49.85
212.966	56.48
213.183	63.55
213.401	61.1
213.618	58.11
213.836	54.44
214.053	56.72
214.271	68
214.488	573.95
214.705	266.06
214.923	249.68
215.14	197.86
215.358	97.54
215.575	154.25
215.793	205.48
216.01	384.05
216.227	155.11
216.445	132.41
216.662	152
216.879	142.12
217.097	147.32
217.314	146.15
217.531	188.73
217.749	265.01
217.966	275.33
218.183	228.37
218.4	250.81
218.618	303.15
218.835	344.63
219.052	269.15
219.269	247.89
219.487	299.31
219.704	260.09
219.921	210.35
220.138	130.64
220.355	147.31
220.572	162.14
220.79	162.77
221.007	182.8
221.224	202.74
221.441	185.51
221.658	159.73
221.875	166.45
222.092	137.47
222.309	184.78
222.526	268.95
222.743	185.03
222.96	206.13
223.177	119.75
223.394	120.25
223.611	110.31
223.828	123.85
224.045	160
224.262	152.93
224.479	101.86
224.696	79.51
224.913	88.43
225.13	87.91
225.347	67.36
225.564	59.32
225.781	55.78
225.997	51.09
226.214	44
226.431	35.73
226.648	25.67
226.865	24.54
227.082	18.36
227.298	12.4
227.515	10.53
227.732	8.96
227.949	8.52
228.165	5.76
228.382	5.02
228.599	0.87
228.816	2.21
229.032	6.55
229.249	3.86
229.466	8.92
229.682	11.69
229.899	11.88
230.116	12.9
230.332	15.88
230.549	21.35
230.765	20.03
230.982	24.65
231.199	27.83
231.415	29.45
231.632	35.77
231.848	34.84
232.065	37.25
232.281	36.39
232.498	46.41
232.714	50.45
232.931	42.71
233.147	44.93
233.364	43.75
233.58	37.86
233.797	38.88
234.013	33.05
234.23	32.8
234.446	31.26
234.662	34.09
234.879	34.13
235.095	26.54
235.312	34.5
235.528	34.09
235.744	33.39
235.961	33.2
236.177	33.11
236.393	38.95
236.61	39.2
236.826	44.09
237.042	45.25
237.258	36.59
237.475	37.55
237.691	28.24
237.907	28.38
238.123	30.63
238.339	29.21
238.556	29.07
238.772	24.27
238.988	22.14
239.204	17.92
239.42	19.24
239.636	18.12
239.853	15.64
240.069	17.64
240.285	18.24
240.501	15.03
240.717	15.82
240.933	12.19
241.149	11.51
241.365	11.11
241.581	11.32
241.797	9.61
242.013	8.64
242.229	8.58
242.445	7.74
242.661	6.46
242.877	6.98
243.093	7.44
243.309	8.87
243.525	8.83
243.741	8.77
243.957	8.22
244.173	8.71
244.388	10.32
244.604	11.25
244.82	12
245.036	11.87
245.252	9.53
245.468	7.1
245.683	6.31
245.899	6.67
246.115	7.61
246.331	7.2
246.547	6.05
246.762	5.17
246.978	5.7
247.194	4.61
247.409	4.18
247.625	5.41
247.841	5.66
248.057	6.22
248.272	6.66
248.488	7.5
248.703	7.88
248.919	8.85
249.135	11.18
249.35	9.14
249.566	12.47
249.782	14.34
249.997	15.95
250.213	15.1
250.428	13.75
250.644	13.32
250.859	9.55
251.075	9.47
251.29	12.72
251.506	13.31
251.721	16.13
251.937	14.36
252.152	11.79
252.368	12.66
252.583	16.23
252.798	16.95
253.014	15.83
253.229	18.05
253.445	18.71
253.66	16.64
253.875	16.78
254.091	18.89
254.306	19.49
254.521	24.47
254.737	22.79
254.952	21.44
255.167	23.17
255.383	23.9
255.598	20.43
255.813	19.32
256.028	15.89
256.244	13.49
256.459	7.21
256.674	6.47
256.889	4
257.104	3.93
257.32	4.38
257.535	2.23
257.75	1.47
257.965	2.4
258.18	2.64
258.395	3.85
258.61	3.6
258.826	4.99
259.041	6.08
259.256	6.99
259.471	6.76
259.686	6.28
259.901	6.83
260.116	6.69
260.331	7.62
260.546	7.96
260.761	8.65
260.976	9.15
261.191	10.06
261.406	9.02
261.621	9.77
261.836	10.27
262.05	10.56
262.265	13.28
262.48	16.48
262.695	17.02
262.91	16.65
263.125	16.45
263.34	19.11
263.555	19.47
263.769	21.76
263.984	20.11
264.199	22.33
264.414	23.24
264.629	20.9
264.843	18.45
265.058	16.33
265.273	16.04
265.488	15.88
265.702	14.22
265.917	13.48
266.132	11.25
266.346	12.45
266.561	10.79
266.776	10.99
266.99	11.38
267.205	10.91
267.42	10.13
267.634	10.52
267.849	9.03
268.063	9.28
268.278	10.19
268.492	11.14
268.707	10.6
268.922	9.86
269.136	9.4
269.351	7.12
269.565	6.71
269.78	7.23
269.994	6.29
270.209	7.34
270.423	5.42
270.637	3.96
270.852	4.06
271.066	4.09
271.281	5.23
271.495	3.36
271.709	4.17
271.924	5.29
272.138	5.85
272.353	7.06
272.567	5.83
272.781	6.19
272.996	5.75
273.21	5.81
273.424	5.52
273.638	5.41
273.853	7.2
274.067	7.09
274.281	7.33
274.495	8.01
274.71	5.73
274.924	6.64
275.138	7.35
275.352	6.95
275.566	6.78
275.781	5.96
275.995	5.67
276.209	3.19
276.423	4.38
276.637	3.44
276.851	3.75
277.065	6.53
277.279	7.81
277.493	7.39
277.707	7.12
277.921	7.19
278.135	6.45
278.349	6.14
278.563	7.01
278.777	6.42
278.991	6.72
279.205	4.93
279.419	4.83
279.633	4.93
279.847	5.92
280.061	7.05
280.275	5.47
280.489	6.22
280.703	5.12
280.917	6.7
281.131	6.12
281.344	6.95
281.558	7.56
281.772	6.94
281.986	6.81
282.2	7.17
282.414	5.78
282.627	6.05
282.841	5.16
283.055	6.08
283.269	7.16
283.482	6.48
283.696	7.02
283.91	8.13
284.123	7.77
284.337	6.19
284.551	6.19
284.764	6.96
284.978	6.9
285.192	9.08
285.405	9.33
285.619	7.56
285.833	8.44
286.046	7.11
286.26	5.22
286.473	4.4
286.687	5.87
286.9	5.7
287.114	5.49
287.327	6.91
287.541	5.14
287.754	4.54
287.968	4.31
288.181	4.18
288.395	3.08
288.608	5.09
288.822	6.76
289.035	6.75
289.248	6.69
289.462	6.58
289.675	6.86
289.889	7.63
290.102	6.07
290.315	6.85
290.529	6.29
290.742	7.84
290.955	7.51
291.169	6.92
291.382	7.04
291.595	8.95
291.808	9.41
292.022	8.85
292.235	8.48
292.448	10.59
292.661	9.85
292.875	11.59
293.088	11.84
293.301	11.41
293.514	10.81
293.727	9.61
293.94	6.12
294.153	7.62
294.367	7.42
294.58	6.43
294.793	6.47
295.006	8.14
295.219	6.88
295.432	7.12
295.645	5.89
295.858	6.58
296.071	6.27
296.284	6.65
296.497	5.65
296.71	5.99
296.923	6.86
297.136	5.96
297.349	4.58
297.562	5.4
297.775	5.66
297.988	5.76
298.201	5.85
298.414	5.9
298.626	7.49
298.839	7.72
299.052	7.06
299.265	6.63
299.478	9.12
299.691	8.9
299.903	8.92
300.116	8.27
300.329	8.9
300.542	8.66
300.755	10.3
300.967	9.81
301.18	9.6
301.393	10.33
301.605	11.2
301.818	8.9
302.031	9.38
302.243	9.64
302.456	10.05
302.669	10.74
302.881	11.14
303.094	10.45
303.307	9.49
303.519	9.76
303.732	10.2
303.944	9.02
304.157	10.53
304.37	11.48
304.582	11.19
304.795	10.17
305.007	9.28
305.22	8.73
305.432	8.68
305.645	8.73
305.857	8.89
306.069	8.5
306.282	8.54
306.494	7.28
306.707	5.57
306.919	4.52
307.132	4.18
307.344	5.63
307.556	5.62
307.769	6.26
307.981	6.67
308.193	6.07
308.406	4.89
308.618	5.48
308.83	5.01
309.043	5.97
309.255	6.85
309.467	7.11
309.679	5.38
309.892	4.77
310.104	3.75
310.316	4.25
310.528	3.91
310.74	4.26
310.953	4.04
311.165	5.25
311.377	5.19
311.589	4.44
311.801	4.3
312.013	5.49
312.225	7.12
312.437	6.31
312.649	6.1
312.862	7.15
313.074	6.11
313.286	7.52
313.498	7.53
313.71	6.53
313.922	8.79
314.134	9.25
314.346	8.89
314.558	6.6
314.77	6.9
314.982	7.16
315.193	7.51
315.405	8.63
315.617	6.84
315.829	6.09
316.041	7.64
316.253	5.42
316.465	6.47
316.677	6.54
316.888	9.14
317.1	10.2
317.312	9.23
317.524	8.75
317.736	8.84
317.947	10.01
318.159	11.01
318.371	9.99
318.583	9.22
318.794	7.51
319.006	6.34
319.218	5.09
319.43	5.19
319.641	4.62
319.853	4.16
320.064	4.63
320.276	5.93
320.488	4.99
320.699	5.42
320.911	8.4
321.123	9.74
321.334	11.91
321.546	11.19
321.757	10.13
321.969	12.18
322.18	12.14
322.392	12.34
322.603	11.04
322.815	11.01
323.026	10.85
323.238	9.57
323.449	8.15
323.661	7.89
323.872	8.64
324.083	10.26
324.295	9.56
324.506	11.41
324.718	9.8
324.929	9.82
325.14	9.89
325.352	10.71
325.563	11.44
325.774	11.57
325.986	11.65
326.197	10.83
326.408	10.64
326.62	11.26
326.831	9.51
327.042	10.9
327.253	10.07
327.464	11.13
327.676	10.94
327.887	11.38
328.098	11.67
328.309	11.93
328.52	13.53
328.732	13.17
328.943	13
329.154	13.21
329.365	13.54
329.576	15.45
329.787	12.89
329.998	13.57
330.209	11.33
330.42	12.59
330.631	13.63
330.842	13.31
331.053	14.23
331.264	13.82
331.475	13.07
331.686	13.13
331.897	11.97
332.108	15.21
332.319	14.55
332.53	15.13
332.741	14.6
332.952	13.51
333.163	13.32
333.374	12.88
333.585	12
333.795	13.24
334.006	13.04
334.217	13.38
334.428	12.21
334.639	11.92
334.849	11.99
335.06	12.06
335.271	12.17
335.482	13.48
335.692	11.98
335.903	13.97
336.114	14.86
336.325	14.94
336.535	14.79
336.746	14.55
336.957	14.94
337.167	15.52
337.378	15.82
337.589	16.02
337.799	14.48
338.01	16.65
338.22	15.93
338.431	16.08
338.642	15.57
338.852	14.77
339.063	14.68
339.273	14.75
339.484	14.62
339.694	14.58
339.905	14.23
340.115	14.85
340.326	14.27
340.536	14.88
340.746	14.59
340.957	15.13
341.167	17.03
341.378	17.15
341.588	17.51
341.799	18.46
342.009	19.35
342.219	19.68
342.43	19.76
342.64	19.5
342.85	18.58
343.061	17.53
343.271	16.65
343.481	15.33
343.691	14.4
343.902	13.66
344.112	12.54
344.322	10.99
344.532	10.4
344.743	10.45
344.953	9.37
345.163	9.86
345.373	10.31
345.583	12.21
345.793	12.5
346.004	14.1
346.214	13.56
346.424	13.09
346.634	12.73
346.844	13.69
347.054	13.15
347.264	13.49
347.474	14.2
347.684	13.33
347.894	12.17
348.104	12.75
348.314	12.24
348.524	13.98
348.734	14.57
348.944	15.34
349.154	14.43
349.364	15.59
349.574	15.34
349.784	14.74
349.994	15
350.204	14.52
350.413	14
350.623	14.01
350.833	12.79
351.043	11.92
351.253	11.44
351.463	11.5
351.672	9.59
351.882	10.17
352.092	11.06
352.302	11.58
352.511	11.65
352.721	10.6
352.931	10.86
353.141	10.71
353.35	11.13
353.56	11.95
353.77	12.99
353.979	14.23
354.189	14.68
354.399	13.01
354.608	13.16
354.818	13.22
355.027	13.73
355.237	12.97
355.447	13.17
355.656	13.96
355.866	13.96
356.075	13.34
356.285	13.11
356.494	12.55
356.704	12.58
356.913	12.29
357.123	13.19
357.332	12.4
357.542	12
357.751	11.72
357.96	12.46
358.17	12.01
358.379	11.43
358.589	11.5
358.798	11.6
359.007	12.01
359.217	11.44
359.426	10.4
359.635	11.51
359.845	11.39
360.054	11.55
360.263	10.77
360.472	10.61
360.682	10.79
360.891	10.77
361.1	10.8
361.309	10.1
361.519	10.33
361.728	10.45
361.937	9.84
362.146	10.92
362.355	11.16
362.564	11.34
362.774	11.47
362.983	11.97
363.192	12.03
363.401	11.66
363.61	11.97
363.819	11.64
364.028	11.17
364.237	12.06
364.446	11.17
364.655	10.83
364.864	10.37
365.073	10.66
365.282	10.12
365.491	9.76
365.7	10.37
365.909	10.43
366.118	10.93
366.327	11.53
366.536	11.25
366.745	11.29
366.954	11.53
367.162	12.22
367.371	12.59
367.58	13.04
367.789	12.93
367.998	12.66
368.207	12.83
368.415	12.11
368.624	12.4
368.833	12.63
369.042	12.88
369.25	13.48
369.459	12.68
369.668	11.93
369.877	11.05
370.085	11.36
370.294	11.78
370.503	11.71
370.711	12.49
370.92	11.33
371.129	11.76
371.337	11.57
371.546	10.64
371.754	11.08
371.963	11.62
372.171	12.46
372.38	11.84
372.589	11.44
372.797	11.69
373.006	12.05
373.214	12.58
373.423	11.52
373.631	11.86
373.84	11.43
374.048	10.11
374.256	9.53
374.465	9.46
374.673	9.99
374.882	9.63
375.09	8.9
375.298	8.77
375.507	9.03
375.715	9.62
375.923	8.32
376.132	8.22
376.34	9.35
376.548	9.11
376.757	9.16
376.965	9.13
377.173	9.47
377.381	10.85
377.59	10.61
377.798	10.41
378.006	9.91
378.214	10.84
378.423	11.71
378.631	11.14
378.839	11.03
379.047	10.88
379.255	11.2
379.463	11.67
379.671	10.59
379.879	10.55
380.088	11.57
380.296	11.9
380.504	12.62
380.712	12.31
380.92	12.81
381.128	13.23
381.336	13.16
381.544	13.1
381.752	12.2
381.96	12.72
382.168	12.82
382.376	11.72
382.584	11.44
382.791	9.79
382.999	10.53
383.207	10.26
383.415	10.62
383.623	10.11
383.831	9.26
384.039	9.98
384.247	10.06
384.454	10.34
384.662	10.82
384.87	10.37
385.078	11.14
385.285	10.74
385.493	10.66
385.701	10.94
385.909	10.87
386.116	11.47
386.324	11.43
386.532	11.14
386.739	10.37
386.947	9.89
387.155	10.96
387.362	10.21
387.57	9.39
387.778	10.18
387.985	9.24
388.193	9.02
388.4	9.55
388.608	9.67
388.816	9.06
389.023	9.16
389.231	9.48
389.438	8.66
389.646	9.64
389.853	10.16
390.061	9
390.268	8.82
390.475	9.2
390.683	8.16
390.89	8.24
391.098	8.45
391.305	9.24
391.512	8.74
391.72	8.68
391.927	8.73
392.135	8.89
392.342	9.41
392.549	9.95
392.756	10.32
392.964	10.49
393.171	10.2
393.378	10.11
393.586	9.46
393.793	9.69
394	9.83
394.207	9.8
394.414	9.71
394.622	9.98
394.829	9.36
395.036	8.86
395.243	9.6
395.45	10.21
395.657	10.99
395.864	11.85
396.072	12.16
396.279	12.01
396.486	12.15
396.693	12.06
396.9	11.82
397.107	12.49
397.314	12.47
397.521	12.02
397.728	11.51
397.935	10.91
398.142	10.14
398.349	9.84
398.556	10.22
398.763	9.93
398.97	9.79
399.177	9.27
399.383	9.39
399.59	9.94
399.797	9.86
400.004	9.38
400.211	9.47
400.418	9.87
400.625	10.01
400.831	9.98
401.038	9.73
401.245	9.97
401.452	10.46
401.658	10.26
401.865	10.19
402.072	9.98
402.279	9.98
402.485	9.72
402.692	9.16
402.899	9.14
403.105	9.19
403.312	9.86
403.519	9.83
403.725	9.14
403.932	9.23
404.138	8.54
404.345	8.65
404.552	8.69
404.758	8.76
404.965	8.89
405.171	8.85
405.378	8.83
405.584	8.84
405.791	9.06
405.997	9.22
406.204	8.95
406.41	9.12
406.617	8.81
406.823	8.84
407.029	9.15
407.236	9.01
407.442	8.88
407.649	9.26
407.855	9
408.061	8.89
408.268	8.99
408.474	9.45
408.68	9.5
408.887	10.04
409.093	10
409.299	9.74
409.505	9.92
409.712	9.66
409.918	9.26
410.124	9.15
410.33	8.95
410.537	9.14
410.743	8.34
410.949	8.6
411.155	8.15
411.361	8.47
411.567	8.14
411.773	8.12
411.98	8.11
412.186	7.98
412.392	7.7
412.598	7.64
412.804	8.07
413.01	8.33
413.216	8.88
413.422	8.9
413.628	8.36
413.834	8.27
414.04	8.49
414.246	8.66
414.452	8.56
414.658	8.9
414.864	8.89
415.07	8.78
415.275	9.32
415.481	8.98
415.687	9.09
415.893	9.1
416.099	9.69
416.305	9.89
416.511	10.14
416.716	9.99
416.922	9.79
417.128	9.44
417.334	9.18
417.539	8.83
417.745	8.91
417.951	8.67
418.157	8.46
418.362	8.23
418.568	7.61
418.774	7.22
418.979	7.44
419.185	7.24
419.391	7.47
419.596	7.45
419.802	7.65
420.008	7.01
420.213	7.11
420.419	7.17
420.624	7.13
420.83	7.34
421.035	7.48
421.241	7.27
421.446	7.59
421.652	7.56
421.857	7.53
422.063	7.57
422.268	8.02
422.474	7.91
422.679	8.05
422.885	8.08
423.09	7.89
423.295	7.65
423.501	7.84
423.706	7.63
423.911	7.53
424.117	7.45
424.322	7.18
424.527	7.27
424.733	7.48
424.938	7.72
425.143	7.68
425.349	7.79
425.554	8.18
425.759	8.03
425.964	8.07
426.169	8.03
426.375	8.13
426.58	8.13
426.785	8.07
426.99	8.01
427.195	7.55
427.4	7.35
427.605	7.55
427.811	7.18
428.016	7.34
428.221	7.51
428.426	7.93
428.631	8.16
428.836	8.16
429.041	8.22
429.246	8.44
429.451	8.92
429.656	8.95
429.861	8.93
430.066	9.27
430.271	9.41
430.476	8.92
430.681	8.62
430.886	8.56
431.09	8.48
431.295	8.4
431.5	8.08
431.705	8.08
431.91	7.99
432.115	7.62
432.32	7.71
432.524	7.71
432.729	7.86
432.934	7.82
433.139	7.63
433.343	7.92
433.548	7.56
433.753	7.39
433.958	7.19
434.162	7.28
434.367	7.67
434.572	7.63
434.776	7.45
434.981	7.56
435.186	7.55
435.39	7.8
435.595	7.56
435.799	7.54
436.004	7.49
436.209	7.54
436.413	7.96
436.618	8.05
436.822	8.16
437.027	8.06
437.231	7.85
437.436	7.74
437.64	7.62
437.845	7.61
438.049	7.96
438.253	8.2
438.458	7.81
438.662	7.72
438.867	7.36
439.071	7.2
439.275	7.24
439.48	7.61
439.684	7.88
439.888	7.6
440.093	7.75
440.297	7.56
440.501	7.52
440.706	7.88
440.91	7.86
441.114	7.7
441.318	7.87
441.523	7.9
441.727	7.73
441.931	7.53
442.135	7.55
442.339	7.66
442.543	7.93
442.748	8.32
442.952	8.24
443.156	8.06
443.36	8.26
443.564	8.17
443.768	7.8
443.972	7.75
444.176	7.82
444.38	8
444.584	7.56
444.788	7.17
444.992	6.87
445.196	6.91
445.4	7.04
445.604	6.92
445.808	6.87
446.012	7.18
446.216	7.12
446.42	6.99
446.624	7.25
446.828	7.27
447.032	7.38
447.235	7.33
447.439	7.31
447.643	7.19
447.847	7.36
448.051	7.27
448.254	7.47
448.458	7.31
448.662	7.34
448.866	7.06
449.069	7.39
449.273	7.44
449.477	7.31
449.681	7.34
449.884	7.16
450.088	7.54
450.292	7.62
450.495	7.48
450.699	7.88
450.902	8.03
451.106	8.05
451.31	7.85
451.513	8.03
451.717	8.15
451.92	8.32
452.124	8.58
452.327	8.17
452.531	8.11
452.734	7.86
452.938	7.75
453.141	7.98
453.345	7.94
453.548	7.97
453.752	7.93
453.955	8.18
454.158	7.65
454.362	7.67
454.565	8.12
454.769	8.03
454.972	8.55
455.175	8.64
455.379	8.48
455.582	8.39
455.785	8.28
455.988	8.07
456.192	7.89
456.395	8.55
456.598	8.5
456.801	8.35
457.005	8.43
457.208	8.26
457.411	8.24
457.614	8.43
457.817	8.66
458.021	8.85
458.224	8.8
458.427	8.58
458.63	8.42
458.833	8.17
459.036	7.83
459.239	7.9
459.442	7.79
459.645	7.84
459.848	7.82
460.051	7.68
460.254	7.53
460.457	7.41
460.66	7.64
460.863	7.61
461.066	7.78
461.269	8.02
461.472	7.95
461.675	7.88
461.878	7.75
462.081	7.77
462.284	7.69
462.486	7.79
462.689	7.89
462.892	7.96
463.095	7.68
463.298	7.97
463.5	8.1
463.703	7.94
463.906	7.98
464.109	7.88
464.311	7.71
464.514	8.04
464.717	7.86
464.92	7.87
465.122	7.65
465.325	7.78
465.528	7.41
465.73	6.98
465.933	7.38
466.135	7.63
466.338	7.56
466.541	7.46
466.743	7.39
466.946	7.58
467.148	7.86
467.351	7.96
467.553	8.21
467.756	8.48
467.958	8.74
468.161	8.38
468.363	8.02
468.566	7.85
468.768	7.92
468.971	7.73
469.173	7.74
469.375	7.48
469.578	7.32
469.78	6.95
469.983	6.88
470.185	7.23
470.387	7.62
470.59	7.76
470.792	8.09
470.994	7.72
471.196	7.78
471.399	7.82
471.601	7.62
471.803	7.67
472.005	7.6
472.208	7.79
472.41	7.51
472.612	7.17
472.814	7.05
473.016	6.91
473.218	6.95
473.421	6.97
473.623	6.89
473.825	7.05
474.027	7.18
474.229	7.72
474.431	7.62
474.633	7.62
474.835	8.09
475.037	8.02
475.239	7.86
475.441	8.43
475.643	8.63
475.845	8.69
476.047	8.87
476.249	9.09
476.451	8.77
476.653	8.53
476.855	8.55
477.057	8.12
477.258	8.02
477.46	8.4
477.662	8.04
477.864	7.91
478.066	7.8
478.268	7.71
478.469	7.23
478.671	7.11
478.873	7.15
479.075	7.04
479.276	7.19
479.478	7.15
479.68	6.99
479.882	7.25
480.083	7.13
480.285	7.17
480.487	7.24
480.688	7.69
480.89	7.89
481.091	7.88
481.293	7.86
481.495	7.61
481.696	7.74
481.898	7.69
482.099	7.53
482.301	7.47
482.502	7.32
482.704	7.19
482.905	6.93
483.107	6.76
483.308	6.72
483.51	6.62
483.711	6.66
483.913	6.54
484.114	6.59
484.315	6.52
484.517	6.5
484.718	6.54
484.92	6.51
485.121	6.51
485.322	6.62
485.524	6.61
485.725	6.72
485.926	6.65
486.127	6.74
486.329	6.56
486.53	6.54
486.731	6.52
486.932	6.51
487.134	6.56
487.335	6.55
487.536	6.41
487.737	6.39
487.938	6.43
488.139	6.53
488.341	6.4
488.542	6.49
488.743	6.69
488.944	6.72
489.145	6.71
489.346	6.75
489.547	6.8
489.748	6.96
489.949	7.03
490.15	7.02
490.351	6.86
490.552	6.96
490.753	6.95
490.954	6.94
491.155	7.01
491.356	7.05
491.557	7.04
491.758	7.04
491.959	6.9
492.159	7.01
492.36	6.88
492.561	7.08
492.762	7.07
492.963	7.03
493.164	6.81
493.364	6.74
493.565	6.67
493.766	6.71
493.967	6.78
494.167	6.94
494.368	6.81
494.569	7.05
494.769	6.99
494.97	7.06
495.171	7.21
495.371	7.55
495.572	7.51
495.773	7.71
495.973	7.75
496.174	7.74
496.375	8.06
496.575	8.07
496.776	7.9
496.976	7.66
497.177	7.78
497.377	7.92
497.578	7.78
497.778	7.84
497.979	7.92
498.179	7.76
498.38	7.87
498.58	7.69
498.78	7.51
498.981	7.51
499.181	7.79
499.382	7.76
499.582	7.49
499.782	7.52
499.983	7.45
500.183	7.45
500.383	7.49
500.584	7.3
500.784	7.29
500.984	7.81
501.184	7.9
501.385	7.9
501.585	7.94
501.785	8.36
501.985	8.45
502.185	8.74
502.386	8.46
502.586	8.51
502.786	8.69
502.986	8.54
503.186	8.31
503.386	8.2
503.586	7.98
503.786	8.15
503.987	7.81
504.187	7.66
504.387	7.48
504.587	7.44
504.787	7.73
504.987	7.7
505.187	7.92
505.387	7.79
505.587	7.81
505.786	7.92
505.986	8.13
506.186	8.17
506.386	8.32
506.586	8.46
506.786	8.5
506.986	8.2
507.186	8.23
507.386	8.33
507.585	8.75
507.785	9.01
507.985	9.19
508.185	8.78
508.384	8.87
508.584	8.72
508.784	8.74
508.984	8.68
509.183	8.97
509.383	9.16
509.583	8.98
509.782	8.88
509.982	8.81
510.182	8.79
510.381	8.98
510.581	9.09
510.781	8.99
510.98	8.96
511.18	9.26
511.379	8.89
511.579	8.7
511.778	8.79
511.978	8.6
512.177	8.54
512.377	8.77
512.576	8.61
512.776	8.61
512.975	8.78
513.175	9.05
513.374	8.97
513.573	9.26
513.773	9.35
513.972	9.33
514.172	9.58
514.371	9.84
514.57	9.83
514.77	9.92
514.969	9.8
515.168	9.62
515.367	9.59
515.567	9.73
515.766	9.55
515.965	9.47
516.164	9.75
516.364	9.5
516.563	9.5
516.762	9.22
516.961	9.26
517.16	9.57
517.359	9.86
517.559	9.87
517.758	10.01
517.957	10.14
518.156	10.29
518.355	10.05
518.554	10.31
518.753	10.23
518.952	10.34
519.151	10.43
519.35	10.44
519.549	10.55
519.748	10.65
519.947	10.52
520.146	10.76
520.345	10.72
520.544	10.85
520.743	10.8
520.942	11.1
521.141	11.32
521.339	11.54
521.538	11.44
521.737	11.43
521.936	11
522.135	11.02
522.333	11.13
522.532	11.14
522.731	11.25
522.93	11.21
523.129	10.98
523.327	10.95
523.526	11.09
523.725	11.2
523.923	11.33
524.122	11.53
524.321	11.7
524.519	11.47
524.718	11.58
524.917	11.58
525.115	11.66
525.314	11.78
525.512	11.79
525.711	11.61
525.909	11.68
526.108	11.63
526.306	11.67
526.505	11.55
526.703	11.56
526.902	11.54
527.1	11.56
527.299	11.49
527.497	11.44
527.696	11.46
527.894	11.43
528.092	11.35
528.291	11.4
528.489	11.43
528.688	11.47
528.886	11.5
529.084	11.59
529.283	11.68
529.481	11.63
529.679	11.66
529.877	11.68
530.076	11.81
530.274	12.02
530.472	12.1
530.67	12.12
530.869	12.29
531.067	12.27
531.265	12.29
531.463	12.18
531.661	12.41
531.859	12.3
532.057	12.37
532.255	12.31
532.454	12.27
532.652	12.26
532.85	12.25
533.048	12.18
533.246	12.33
533.444	12.29
533.642	12.54
533.84	12.61
534.038	12.75
534.236	12.86
534.434	12.99
534.632	12.99
534.83	13.09
535.027	13.37
535.225	13.49
535.423	13.78
535.621	13.92
535.819	13.52
536.017	13.33
536.215	13.44
536.412	13.33
536.61	13.51
536.808	13.57
537.006	13.47
537.203	13.57
537.401	13.49
537.599	13.22
537.797	13.18
537.994	13.44
538.192	13.8
538.39	13.99
538.587	14.23
538.785	14.09
538.983	14.31
539.18	14.49
539.378	14.3
539.575	14.4
539.773	14.37
539.97	14.51
540.168	14.56
540.366	14.49
540.563	14.53
540.761	14.43
540.958	14.39
541.155	14.26
541.353	14.19
541.55	14.19
541.748	14.25
541.945	14.43
542.143	14.28
542.34	14.43
542.537	14.45
542.735	14.29
542.932	14.49
543.129	14.65
543.327	14.83
543.524	14.93
543.721	14.92
543.919	15.12
544.116	15.15
544.313	15.38
544.51	15.25
544.708	15.59
544.905	15.68
545.102	16.08
545.299	16.27
545.496	16.14
545.693	16.36
545.891	16.57
546.088	16.54
546.285	16.5
546.482	16.71
546.679	16.71
546.876	16.65
547.073	16.63
547.27	16.01
547.467	15.84
547.664	16
547.861	15.91
548.058	16.07
548.255	16.03
548.452	16.21
548.649	16.2
548.846	16.28
549.043	16.25
549.24	16.86
549.437	16.85
549.633	16.97
549.83	16.82
550.027	16.85
550.224	16.43
550.421	16.71
550.618	16.61
550.814	16.56
551.011	16.78
551.208	16.36
551.405	16.05
551.601	16.27
551.798	16.45
551.995	16.63
552.191	16.7
552.388	16.97
552.585	16.82
552.781	16.91
552.978	17.07
553.175	17.03
553.371	17.38
553.568	17.41
553.764	17.73
553.961	17.71
554.157	17.75
554.354	17.75
554.55	17.93
554.747	17.81
554.943	17.36
555.14	17.59
555.336	17.75
555.533	17.85
555.729	17.99
555.926	17.97
556.122	17.84
556.318	17.86
556.515	17.83
556.711	17.62
556.907	17.89
557.104	18.17
557.3	17.86
557.496	17.75
557.693	17.91
557.889	18.4
558.085	18.47
558.281	19.01
558.478	18.93
558.674	19
558.87	19.14
559.066	19.37
559.262	19.83
559.459	19.97
559.655	20.16
559.851	20.31
560.047	19.77
560.243	19.34
560.439	19.16
560.635	19.23
560.831	19.1
561.027	19.53
561.223	19.11
561.419	19.1
561.615	19.14
561.811	19.22
562.007	19.18
562.203	19.32
562.399	19.47
562.595	19.44
562.791	19.43
562.987	20.06
563.183	20.06
563.379	20.36
563.575	20.6
563.771	20.52
563.966	20.39
564.162	19.96
564.358	19.98
564.554	20.1
564.75	19.9
564.945	20.17
565.141	19.79
565.337	19.57
565.533	19.65
565.728	19.2
565.924	19.02
566.12	18.92
566.315	18.94
566.511	18.7
566.707	18.66
566.902	18.9
567.098	18.94
567.293	18.8
567.489	18.4
567.684	18.35
567.88	18.59
568.076	18.61
568.271	18.52
568.467	18.69
568.662	19.04
568.858	19.26
569.053	19.15
569.248	19.32
569.444	19.45
569.639	20.03
569.835	19.93
570.03	19.89
570.225	20.07
570.421	20.28
570.616	20.26
570.812	19.94
571.007	19.68
571.202	19.52
571.397	19.21
571.593	19.35
571.788	19.19
571.983	19.14
572.178	19.32
572.374	19.28
572.569	19.08
572.764	19.14
572.959	19.43
573.154	19.55
573.35	19.65
573.545	19.97
573.74	20.08
573.935	20.2
574.13	20.34
574.325	20.4
574.52	20.14
574.715	20.55
574.91	20.73
575.105	20.96
575.3	21.33
575.495	21.42
575.69	21.21
575.885	21.27
576.08	21.62
576.275	21.8
576.47	21.52
576.665	22.03
576.86	21.89
577.055	21.8
577.25	21.23
577.444	20.92
577.639	20.93
577.834	20.97
578.029	20.81
578.224	20.72
578.418	20.68
578.613	20.7
578.808	20.63
579.003	20.89
579.197	21.17
579.392	21.71
579.587	21.63
579.781	21.64
579.976	21.56
580.171	21.63
580.365	21.19
580.56	20.93
580.755	20.96
580.949	20.95
581.144	21.13
581.338	21.16
581.533	21.15
581.727	21.1
581.922	20.83
582.116	21.12
582.311	20.5
582.505	20.83
582.7	20.45
582.894	21.01
583.089	20.93
583.283	20.89
583.478	20.58
583.672	20.55
583.866	20.89
584.061	20.73
584.255	20.95
584.449	21.25
584.644	20.86
584.838	21.43
585.032	21.36
585.226	21.72
585.421	21.22
585.615	21.71
585.809	21.66
586.003	22.01
586.198	22.52
586.392	22.43
586.586	22.82
586.78	23.09
586.974	22.9
587.168	22.32
587.363	22.15
587.557	22.72
587.751	22.64
587.945	22.84
588.139	22.75
588.333	23.09
588.527	22.57
588.721	22.39
588.915	22.12
589.109	22.51
589.303	22.89
589.497	22.97
589.691	23.04
589.885	22.7
590.079	22.61
590.273	22.37
590.466	22.12
590.66	22.96
590.854	22.84
591.048	23.07
591.242	22.77
591.436	22.44
591.629	22.19
591.823	21.71
592.017	22.08
592.211	22.52
592.404	22.43
592.598	21.76
592.792	20.66
592.986	21.08
593.179	21.24
593.373	20.82
593.567	21.53
593.76	21.6
593.954	21.41
594.147	21.28
594.341	20.63
594.535	21.21
594.728	21.82
594.922	22.05
595.115	21.86
595.309	21.79
595.502	22.53
595.696	21.97
595.889	22.11
596.083	22.25
596.276	21.85
596.47	22.11
596.663	21.58
596.856	21.44
597.05	21.36
597.243	21.29
597.437	21.36
597.63	20.95
597.823	21.29
598.017	21.08
598.21	20.83
598.403	21.1
598.596	21.42
598.79	21.53
598.983	21.8
599.176	21.95
599.369	22.05
599.563	21.98
599.756	22.57
599.949	22.65
600.142	22.75
600.335	22.99
600.528	22.89
600.722	22.16
600.915	21.82
601.108	21.88
601.301	22.02
601.494	22.05
601.687	22.1
601.88	21.86
602.073	21.54
602.266	21.24
602.459	21.69
602.652	22.07
602.845	22.41
603.038	22.76
603.231	23.02
603.424	22.93
603.617	23.11
603.809	23.16
604.002	22.76
604.195	23.13
604.388	23.52
604.581	23.17
604.774	23.21
604.966	22.94
605.159	23.1
605.352	22.57
605.545	22.94
605.737	22.59
605.93	22.93
606.123	23.42
606.316	22.88
606.508	22.92
606.701	23.19
606.894	23.13
607.086	23.08
607.279	23.04
607.471	23.47
607.664	23.56
607.857	23.8
608.049	23.07
608.242	23.3
608.434	23.79
608.627	23.6
608.819	23.62
609.012	23.54
609.204	23.83
609.397	23.46
609.589	23.32
609.782	23.17
609.974	23.41
610.166	23.54
610.359	22.7
610.551	22.43
610.743	22.68
610.936	22.83
611.128	22.59
611.32	22.61
611.513	23.35
611.705	23.58
611.897	23.35
612.09	22.87
612.282	23.73
612.474	24.31
612.666	24.51
612.858	24.16
613.051	23.85
613.243	24.54
613.435	24.71
613.627	24.33
613.819	24.13
614.011	25.28
614.203	25.78
614.395	24.95
614.588	25
614.78	25.15
614.972	25.3
615.164	25.68
615.356	25.38
615.548	25.04
615.74	25.35
615.932	25.1
616.124	24.21
616.315	24.45
616.507	24.8
616.699	25.14
616.891	24.84
617.083	25.31
617.275	25.02
617.467	25.13
617.659	25.39
617.85	25.5
618.042	25.69
618.234	25.88
618.426	24.95
618.618	24.64
618.809	24.42
619.001	24.67
619.193	24.36
619.384	24.12
619.576	24.33
619.768	24.43
619.959	23.98
620.151	23.85
620.343	23.92
620.534	24.48
620.726	24.24
620.917	24.33
621.109	24
621.301	24.46
621.492	24.88
621.684	24.82
621.875	25.01
622.067	25.14
622.258	25.26
622.45	24.96
622.641	24.91
622.832	25.2
623.024	25.31
623.215	24.95
623.407	24.49
623.598	24.75
623.789	24.47
623.981	24.52
624.172	24.22
624.363	24.13
624.555	23.84
624.746	23.7
624.937	23.74
625.129	23.85
625.32	24.16
625.511	24.08
625.702	23.46
625.893	23.53
626.085	23.33
626.276	23.94
626.467	23.89
626.658	24.26
626.849	24.38
627.04	24.47
627.231	24.22
627.422	24.31
627.614	24.53
627.805	24.71
627.996	24.76
628.187	24.6
628.378	24.43
628.569	24.83
628.76	24.93
628.951	24.64
629.142	24.65
629.332	24.76
629.523	24.52
629.714	24.68
629.905	25.18
630.096	25.18
630.287	25.29
630.478	25.14
630.669	25.11
630.859	25.17
631.05	25.78
631.241	25.7
631.432	25.62
631.623	26.57
631.813	26.25
632.004	25.69
632.195	25.21
632.385	25.46
632.576	25.31
632.767	25.53
632.957	25.19
633.148	25.02
633.339	25.05
633.529	24.98
633.72	24.51
633.91	24.87
634.101	24.99
634.292	25.71
634.482	25.41
634.673	25.9
634.863	25.85
635.054	26.15
635.244	26.06
635.435	26.28
635.625	26.75
635.815	26.73
636.006	26.73
636.196	26.88
636.387	26.41
636.577	26.21
636.767	25.81
636.958	25.74
637.148	25.33
637.338	26.33
637.529	26.41
637.719	26.52
637.909	27.16
638.099	27.45
638.29	26.92
638.48	27.64
638.67	27.65
638.86	28.4
639.05	28.04
639.241	28.63
639.431	28.07
639.621	28.18
639.811	27.96
640.001	27.5
640.191	26.74
640.381	27.42
640.571	27.08
640.761	27.28
640.951	26.86
641.141	27.24
641.331	26.84
641.521	26.53
641.711	26.8
641.901	26.69
642.091	26.49
642.281	26.87
642.471	26.56
642.661	26.44
642.851	26.88
643.041	27.01
643.231	26.82
643.42	27.11
643.61	27.82
643.8	27.06
643.99	26.82
644.18	27.18
644.369	27.09
644.559	27.43
644.749	27.29
644.939	27.75
645.128	27.47
645.318	27.78
645.508	28.21
645.697	28.27
645.887	28.01
646.076	28.19
646.266	27.77
646.456	27.23
646.645	27.35
646.835	27.17
647.024	26.69
647.214	27.32
647.403	26.72
647.593	26.24
647.782	25.3
647.972	25.58
648.161	25.34
648.351	25.83
648.54	27.11
648.73	27.18
648.919	27.49
649.108	27.04
649.298	26.81
649.487	27.18
649.677	27.93
649.866	28.11
650.055	28.31
650.244	28.3
650.434	26.77
650.623	26.23
650.812	25.62
651.002	25.15
651.191	25.52
651.38	25.36
651.569	25.36
651.758	24.87
651.947	25.36
652.137	25.46
652.326	25.52
652.515	26.09
652.704	26.41
652.893	26.73
653.082	26.84
653.271	26.73
653.46	26.29
653.649	26.55
653.838	25.67
654.027	25.33
654.216	24.99
654.405	25.11
654.594	25.24
654.783	25.19
654.972	25.09
655.161	25.77
655.35	25.85
655.539	25.76
655.728	26.18
655.916	25.91
656.105	26.08
656.294	25.74
656.483	26.51
656.672	26.6
656.86	25.65
657.049	25.43
657.238	24.7
657.427	24.88
657.615	25.05
657.804	23.96
657.993	24.09
658.181	23.5
658.37	24.53
658.559	23.65
658.747	24.02
658.936	24.66
659.125	25.38
659.313	26.04
659.502	25.8
659.69	25.41
659.879	25.86
660.067	26.89
660.256	27.48
660.444	27.49
660.633	27.69
660.821	27.71
661.01	27.32
661.198	26.27
661.387	25.82
661.575	26.16
661.763	26.7
661.952	26.6
662.14	26.35
662.328	26.49
662.517	25.87
662.705	26.48
662.893	26.84
663.082	27.02
663.27	27.09
663.458	26.97
663.646	26.87
663.834	27.03
664.023	27.84
664.211	27.18
664.399	26.51
664.587	26.35
664.775	25.77
664.963	25.88
665.152	26.1
665.34	26.71
665.528	26.85
665.716	26.98
665.904	27.39
666.092	26.83
666.28	28.13
666.468	27.84
666.656	27.96
666.844	28.52
667.032	27.9
667.22	27.41
667.408	27.19
667.596	27.58
667.784	27.5
667.971	27.36
668.159	27.11
668.347	26.48
668.535	27.22
668.723	27.21
668.911	27.04
669.098	27.68
669.286	27.99
669.474	28.15
669.662	28.52
669.849	29.35
670.037	28.89
670.225	29.93
670.413	29.2
670.6	29.45
670.788	29.42
670.976	29.65
671.163	29.41
671.351	29.73
671.538	30.23
671.726	29.85
671.913	29.56
672.101	29.71
672.289	30.03
672.476	30.14
672.664	30.2
672.851	30.43
673.039	29.91
673.226	29.91
673.413	29.93
673.601	29.35
673.788	29.44
673.976	28.85
674.163	29.34
674.35	28.09
674.538	28.64
674.725	29.27
674.912	30
675.1	30.03
675.287	29.87
675.474	30.52
675.662	30.4
675.849	31.17
676.036	30.65
676.223	30.23
676.411	31.2
676.598	30.69
676.785	29.83
676.972	29.54
677.159	30.32
677.346	30.73
677.533	30.16
677.721	30.69
677.908	30.53
678.095	32.24
678.282	32.34
678.469	31.12
678.656	31.27
678.843	31.95
679.03	31.58
679.217	31.47
679.404	31.45
679.591	31.97
679.778	32.28
679.964	31.57
680.151	30.83
680.338	30.67
680.525	31.35
680.712	31.56
680.899	30.28
681.086	30.63
681.272	30.56
681.459	30.54
681.646	30.09
681.833	29.33
682.02	29.95
682.206	30.7
682.393	31.04
682.58	31.01
682.766	31.13
682.953	32.36
683.14	31.95
683.326	31.57
683.513	31.82
683.7	30.91
683.886	31.81
684.073	31.34
684.259	29.96
684.446	30.13
684.632	30.18
684.819	30.53
685.005	31.12
685.192	31.13
685.378	31.87
685.565	31.74
685.751	32.39
685.938	32.86
686.124	33.37
686.31	34.09
686.497	34.12
686.683	34.1
686.87	34.43
687.056	32.56
687.242	33.22
687.429	32.78
687.615	31.46
687.801	32.15
687.987	31.55
688.174	30.85
688.36	30.45
688.546	30.09
688.732	30.35
688.918	29.98
689.105	31.72
689.291	31.32
689.477	31.8
689.663	31.98
689.849	31.69
690.035	31.53
690.221	31.58
690.407	32.26
690.593	32.69
690.779	32.73
690.965	32.74
691.151	30.8
691.337	30.59
691.523	29.97
691.709	30.47
691.895	30.72
692.081	31.38
692.267	31.78
692.453	31.04
692.639	30.37
692.825	29.9
693.011	28.91
693.196	31.59
693.382	31.98
693.568	32.51
693.754	32.54
693.94	31.57
694.125	30.71
694.311	30.01
694.497	29.68
694.682	29.9
694.868	30.09
695.054	30.92
695.239	30
695.425	28.95
695.611	28.43
695.796	29.03
695.982	29.21
696.168	29.29
696.353	30.05
696.539	30.24
696.724	30.3
696.91	30.81
697.095	30.24
697.281	29.52
697.466	30.67
697.652	30.31
697.837	30.45
698.023	31
698.208	30.23
698.393	29.96
698.579	30.03
698.764	30.29
698.949	29.26
699.135	29.34
699.32	29.29
699.505	29.36
699.691	29.77
699.876	29.3
700.061	28.62
700.246	28.39
700.432	28.03
700.617	28.56
700.802	27.86
700.987	29.64
701.172	30.46
701.358	31.64
701.543	31.1
701.728	31.73
701.913	33.88
702.098	33.87
702.283	35.3
702.468	36.7
702.653	36.21
702.838	37.26
703.023	37.01
703.208	35.88
703.393	36.05
703.578	36.08
703.763	36.32
703.948	34.66
704.133	35.55
704.318	36.61
704.503	36.1
704.688	35.63
704.873	34.35
705.057	34.14
705.242	34.05
705.427	33.9
705.612	34.79
705.797	35.71
705.981	35.95
706.166	35.64
706.351	34.22
706.536	33.56
706.72	33.11
706.905	34.89
707.09	34.4
707.274	36.68
707.459	35.61
707.644	35.09
707.828	33.28
708.013	32.97
708.197	33.49
708.382	33.42
708.567	34.34
708.751	34.57
708.936	34.19
709.12	34.7
709.305	33.26
709.489	34.51
709.673	34.1
709.858	35.27
710.042	35.29
710.227	34.79
710.411	36.44
710.596	36.51
710.78	37.65
710.964	36.92
711.149	36.24
711.333	35.78
711.517	35.14
711.702	35.47
711.886	34.96
712.07	35.15
712.254	34.89
712.438	33.3
712.623	32.79
712.807	32.1
712.991	32.7
713.175	33.26
713.359	33.98
713.544	34.27
713.728	33.65
713.912	34.46
714.096	35.65
714.28	35.01
714.464	35.57
714.648	35.57
714.832	35.79
715.016	34.34
715.2	34.22
715.384	34.43
715.568	34.11
715.752	34.82
715.936	33.29
716.12	31.92
716.304	31.73
716.488	31.33
716.671	30.97
716.855	30.87
717.039	31.19
717.223	31.19
717.407	31.95
717.59	31.28
717.774	31.26
717.958	30.49
718.142	30.96
718.325	33.53
718.509	34.16
718.693	33.91
718.877	34.23
719.06	35.43
719.244	34.56
719.428	34.18
719.611	35.03
719.795	35.68
719.978	37.26
720.162	37.34
720.345	37.35
720.529	38.28
720.713	39.96
720.896	39.43
721.08	39.04
721.263	41.05
721.446	41.08
721.63	41.73
721.813	40.6
721.997	42.76
722.18	42.1
722.364	41.77
722.547	40.95
722.73	38.1
722.914	37.65
723.097	39.16
723.28	38.65
723.464	39.64
723.647	38.84
723.83	39.73
724.013	37.96
724.197	37.72
724.38	37.05
724.563	37.52
724.746	38.62
724.929	39.7
725.112	39
725.296	38.31
725.479	36.53
725.662	36.32
725.845	35.55
726.028	35.6
726.211	35.77
726.394	36.34
726.577	36.61
726.76	37.51
726.943	37.03
727.126	35.87
727.309	35.39
727.492	36.15
727.675	36.83
727.858	37.2
728.041	38.26
728.224	37.77
728.407	36.51
728.589	35.54
728.772	34.34
728.955	33.97
729.138	35.21
729.321	34.9
729.503	34.09
729.686	33.26
729.869	33.53
730.052	32.53
730.234	33.71
730.417	33.29
730.6	33.01
730.782	33.14
730.965	33.7
731.148	33.28
731.33	33.19
731.513	34.57
731.695	35.63
731.878	34.76
732.061	34.78
732.243	33.35
732.426	33.97
732.608	33.5
732.791	35.11
732.973	34.03
733.156	35.2
733.338	36.13
733.52	36.34
733.703	36.5
733.885	37.03
734.068	35.86
734.25	35.7
734.432	35.6
734.615	36.54
734.797	36.04
734.979	36.59
735.162	35
735.344	34.19
735.526	31.06
735.708	30.1
735.891	30.43
736.073	32.83
736.255	34.39
736.437	34.25
736.619	34.45
736.802	34.24
736.984	34.96
737.166	35.57
737.348	37.09
737.53	38.79
737.712	38.85
737.894	38.51
738.076	36.37
738.258	36.9
738.44	38.55
738.622	40.62
738.804	40.98
738.986	41.23
739.168	41.7
739.35	41.25
739.532	40.89
739.714	42.58
739.896	41.48
740.078	44.67
740.259	42.21
740.441	43.98
740.623	41.11
740.805	40.52
740.987	41.31
741.168	41.11
741.35	40.48
741.532	41.05
741.714	40.76
741.895	42.93
742.077	38.93
742.259	41.41
742.44	37.08
742.622	39.61
742.804	40.88
742.985	40.41
743.167	39.89
743.348	40.2
743.53	40.46
743.711	37.7
743.893	35.73
744.075	37.77
744.256	37.98
744.438	41.28
744.619	40.84
744.8	40.52
744.982	41.79
745.163	45.14
745.345	44.33
745.526	44.2
745.707	46.44
745.889	48.35
746.07	50.7
746.252	49.25
746.433	46.13
746.614	46.6
746.795	44.46
746.977	44.31
747.158	41.92
747.339	41.87
747.52	43.35
747.702	42.4
747.883	42.66
748.064	41.08
748.245	43.39
748.426	46.08
748.607	45.13
748.788	49.63
748.97	49.02
749.151	48.98
749.332	50.8
749.513	50.97
749.694	50.19
749.875	50.02
750.056	49.7
750.237	49.51
750.418	49.91
750.599	50.83
750.78	47.45
750.96	47.29
751.141	46.24
751.322	47.03
751.503	44.04
751.684	45.8
751.865	45.69
752.046	44.75
752.226	43.96
752.407	42.96
752.588	42.43
752.769	43
752.949	41.49
753.13	41.98
753.311	40.85
753.492	43.04
753.672	41.72
753.853	43.43
754.034	45.01
754.214	43.53
754.395	44.13
754.575	43.84
754.756	42.8
754.937	44.85
755.117	44.15
755.298	44.6
755.478	44.08
755.659	44.07
755.839	40.67
756.02	40.27
756.2	41.31
756.381	40.51
756.561	37.72
756.741	38.49
756.922	37.43
757.102	39.48
757.283	41.16
757.463	40.38
757.643	42.17
757.823	42.51
758.004	40.37
758.184	40.54
758.364	41.03
758.545	43.08
758.725	41.8
758.905	43.63
759.085	42.73
759.265	39.5
759.446	39.29
759.626	39.73
759.806	38.99
759.986	40.38
760.166	40.69
760.346	41.78
760.526	40.4
760.706	41.35
760.886	39.42
761.066	39.52
761.246	39.54
761.426	40.48
761.606	37.81
761.786	38.29
761.966	38.08
762.146	36.84
762.326	35.6
762.506	36.71
762.686	36.65
762.866	37.16
763.046	36.56
763.225	36.27
763.405	35.37
763.585	35.46
763.765	35.84
763.945	36.38
764.124	36.58
764.304	37.28
764.484	36.35
764.664	35.66
764.843	34.44
765.023	35.47
765.203	36.3
765.382	36.68
765.562	38.99
765.741	39.41
765.921	40.16
766.101	42.88
766.28	42.55
766.46	43
766.639	43.84
766.819	45.72
766.998	47.36
767.178	47.77
767.357	47.11
767.537	48.64
767.716	48.62
767.896	49.46
768.075	46.23
768.254	46.02
768.434	47.61
768.613	47.49
768.792	47.23
768.972	46.05
769.151	47.76
769.33	51.17
769.51	47.54
769.689	48.77
769.868	46.79
770.047	46.9
770.226	46.65
770.406	45.2
770.585	45.48
770.764	43.36
770.943	42.82
771.122	41.1
771.301	40.9
771.48	43.47
771.66	43.56
771.839	45.78
772.018	45.69
772.197	46.78
772.376	47.84
772.555	51.03
772.734	53.59
772.913	53.26
773.092	52.9
773.271	51.61
773.449	51.1
773.628	49.48
773.807	48.94
773.986	52.59
774.165	52.79
774.344	53.19
774.523	49.43
774.701	47.21
774.88	49.22
775.059	48.92
775.238	49.49
775.417	51.12
775.595	53.33
775.774	52.34
775.953	49.81
776.131	48.81
776.31	49.1
776.489	51.11
776.667	48.28
776.846	45.93
777.025	47.96
777.203	46.95
777.382	44.03
777.56	41.05
777.739	41.62
777.917	42.91
778.096	46.04
778.274	46.46
778.453	44.3
778.631	47.7
778.81	45.43
778.988	44.47
779.166	42.31
779.345	45.13
779.523	46.92
779.702	47.6
779.88	47.24
780.058	43.04
780.237	43.99
780.415	45.75
780.593	46.15
780.771	52.56
780.95	53.83
781.128	55.74
781.306	54
781.484	54.13
781.662	54.73
781.841	54.96
782.019	55.29
782.197	52.29
782.375	51.59
782.553	51.97
782.731	51.21
782.909	53
783.087	54.71
783.265	54.49
783.443	61.05
783.621	60.01
783.799	60.88
783.977	62.61
784.155	66.18
784.333	67.14
784.511	65.7
784.689	62.5
784.867	63.57
785.045	63.46
785.223	63.49
785.4	57.8
785.578	53.93
785.756	51.55
785.934	50.18
786.112	51.15
786.289	49.65
786.467	53.66
786.645	55.65
786.823	54.73
787	57.15
787.178	58.1
787.356	55.91
787.533	56.59
787.711	56.18
787.889	54.91
788.066	50.18
788.244	53.06
788.421	52.33
788.599	48.92
788.776	48.26
788.954	44.67
789.131	43.79
789.309	46.11
789.486	49.39
789.664	50.21
789.841	52.61
790.019	57.76
790.196	57.15
790.373	50.98
790.551	52.78
790.728	51.7
790.906	54.06
791.083	56.3
791.26	53.48
791.437	48.91
791.615	53.13
791.792	51.11
791.969	51.6
792.146	52.5
792.324	55.54
792.501	59.44
792.678	58.66
792.855	55.88
793.032	55.33
793.209	58.66
793.387	59.71
793.564	56.16
793.741	57.35
793.918	52.55
794.095	51.37
794.272	51.67
794.449	49.3
794.626	51.14
794.803	51.66
794.98	47.91
795.157	44.74
795.334	42.64
795.511	43.78
795.688	44.82
795.864	51.14
796.041	50.77
796.218	52.41
796.395	50.68
796.572	50.87
796.749	51.63
796.925	51.62
797.102	52.1
797.279	55.61
797.456	57.83
797.632	61.12
797.809	59.27
797.986	61.48
798.162	60.92
798.339	60.73
798.516	58.42
798.692	55.69
798.869	58.94
799.046	61.85
799.222	59.2
799.399	54.28
799.575	54.03
799.752	50.7
799.928	48.45
800.105	48.9
800.281	50.84
800.458	51.93
800.634	49.92
800.811	49.51
800.987	52.07
801.163	50.74
801.34	52.27
801.516	48.96
801.692	49.76
801.869	51.19
802.045	49.87
802.221	47.76
802.398	44.16
802.574	51.21
802.75	51.52
802.926	47.71
803.103	51.12
803.279	46.83
803.455	46.12
803.631	51.78
803.807	50.21
803.983	53
804.16	52.9
804.336	55.72
804.512	55.12
804.688	60.37
804.864	62.99
805.04	64.82
805.216	70.75
805.392	74.85
805.568	71.34
805.744	71.11
805.92	72.5
806.096	74.68
806.272	78.79
806.448	73.23
806.623	68.75
806.799	69.98
806.975	66.66
807.151	66.55
807.327	64.83
807.503	62.05
807.678	60.11
807.854	60.09
808.03	61.56
808.206	58.49
808.381	60.73
808.557	57.57
808.733	58.09
808.908	57.15
809.084	60.01
809.26	61.64
809.435	64.53
809.611	67.31
809.787	61.92
809.962	69.5
810.138	71.2
810.313	74.22
810.489	75.31
810.664	72.32
810.84	73.43
811.015	63.47
811.191	64.36
811.366	65.19
811.542	71.72
811.717	74.33
811.892	65.68
812.068	64.01
812.243	68.02
812.419	66.72
812.594	63.14
812.769	63.57
812.944	70.4
813.12	65.19
813.295	67.52
813.47	60.01
813.645	63.28
813.821	73.25
813.996	82.1
814.171	76.66
814.346	86.07
814.521	89.18
814.697	93.92
814.872	93
815.047	95.47
815.222	88.04
815.397	92.66
815.572	94.35
815.747	89.12
815.922	77.37
816.097	76.08
816.272	73.46
816.447	72.16
816.622	68.12
816.797	63.27
816.972	65.89
817.147	63.4
817.322	62.26
817.496	60.07
817.671	57.12
817.846	59.62
818.021	63.08
818.196	58.72
818.371	61.03
818.545	61.63
818.72	63.23
818.895	60.42
819.069	62.07
819.244	59.81
819.419	54.36
819.594	52.01
819.768	47.85
819.943	44.98
820.117	43.53
820.292	42.58
820.467	40.59
820.641	39.97
820.816	37.87
820.99	36.55
821.165	34.77
821.339	35.5
821.514	34.15
821.688	34.81
821.863	33.89
822.037	33.95
822.212	32.33
822.386	31.94
822.56	31.55
822.735	31.22
822.909	31.13
823.084	30.88
823.258	29.75
823.432	29.7
823.606	28.77
823.781	29.2
823.955	29.73
824.129	30.68
824.303	30.56
824.478	32.36
824.652	33.54
824.826	34.56
825	36.08
825.174	36.98
825.348	36.91
825.523	37.23
825.697	35.17
825.871	34.67
826.045	33.78
826.219	34.42
826.393	32.77
826.567	31.99
826.741	33.69
826.915	32.16
827.089	32.17
827.263	33.64
827.437	35.21
827.611	37.71
827.784	38.55
827.958	40.13
828.132	40.73
828.306	41.01
828.48	41
828.654	39.79
828.827	41.25
829.001	43.51
829.175	44.71
829.349	42.99
829.522	45.6
829.696	41.48
829.87	41.73
830.044	43.3
830.217	45.43
830.391	50.95
830.565	53.21
830.738	57.95
830.912	57.7
831.085	57.55
831.259	52.25
831.432	52.14
831.606	58.57
831.779	59.21
831.953	54.37
832.126	54.92
832.3	51.32
832.473	45.06
832.647	41.97
832.82	40.49
832.994	40.19
833.167	44.32
833.34	43.75
833.514	41.95
833.687	39.63
833.86	39.83
834.034	36.53
834.207	35.27
834.38	39.82
834.553	38.62
834.727	40.7
834.9	40.73
835.073	43.74
835.246	42.94
835.419	45.24
835.593	49.14
835.766	52.47
835.939	56.28
836.112	59.84
836.285	55.51
836.458	62.86
836.631	59.71
836.804	60.48
836.977	55.37
837.15	59.93
837.323	59.33
837.496	61.24
837.669	61.04
837.842	63.21
838.015	63.78
838.188	61.66
838.361	55.37
838.533	62.61
838.706	65.51
838.879	77.65
839.052	73.97
839.225	79.61
839.398	70.71
839.57	72.15
839.743	72.08
839.916	72.31
840.088	74.56
840.261	77.01
840.434	80.09
840.607	73.49
840.779	71.67
840.952	64.57
841.124	58.43
841.297	69.77
841.47	73.17
841.642	69.71
841.815	72.45
841.987	83.52
842.16	80.69
842.332	81.23
842.505	88.21
842.677	81.15
842.85	110.86
843.022	118.52
843.194	121.46
843.367	117.71
843.539	114.7
843.712	91.59
843.884	84.47
844.056	89.56
844.229	86.25
844.401	94.09
844.573	88.5
844.745	72.87
844.918	75.67
845.09	66.67
845.262	63.74
845.434	66.46
845.606	87.37
845.779	85.94
845.951	98.96
846.123	89.24
846.295	88.51
846.467	109.05
846.639	109.81
846.811	109.18
846.983	115.45
847.155	121.15
847.327	120.78
847.499	120.71
847.671	149.38
847.843	135.14
848.015	184.47
848.187	165.68
848.359	144.78
848.531	160.19
848.703	163.98
848.875	187.6
849.047	182.94
849.218	212.63
849.39	197.37
849.562	155.32
849.734	121.54
849.905	108.73
850.077	115.57
850.249	155.13
850.421	190.52
850.592	167.77
850.764	167.27
850.936	150.74
851.107	194.01
851.279	233.79
851.451	187.8
851.622	199.7
851.794	176.94
851.965	167.06
852.137	146.98
852.308	131.88
852.48	130.69
852.651	116.15
852.823	131.78
852.994	121.51
853.166	122.59
853.337	119.35
853.509	126.77
853.68	145.72
853.851	131.97
854.023	145.83
854.194	124.78
854.365	144.14
854.537	162.71
854.708	154.83
854.879	217.95
855.05	154.84
855.222	163.24
855.393	121.95
855.564	170.79
855.735	171.13
855.906	153.08
856.078	190.36
856.249	195.6
856.42	163.55
856.591	162.15
856.762	155.61
856.933	182.87
857.104	230.34
857.275	265.11
857.446	154.26
857.617	159.07
857.788	152.14
857.959	133.17
858.13	107.5
858.301	127.06
858.472	127.06
858.643	126.82
858.814	145.92
858.985	139.78
859.155	122.8
859.326	186.91
859.497	174.88
859.668	167.11
859.839	242.59
860.009	224.94
860.18	160.85
860.351	148.53
860.522	135.69
860.692	99.1
860.863	93.85
861.034	95.53
861.204	86.85
861.375	94.74
861.546	96.28
861.716	104.71
861.887	103.64
862.057	140.06
862.228	105.82
862.398	140.49
862.569	150.65
862.739	162.74
862.91	152.28
863.08	184.55
863.251	169.5
863.421	187.15
863.592	160.97
863.762	162.27
863.932	133.63
864.103	149.59
864.273	116.85
864.443	100.47
864.614	87.66
864.784	95.12
864.954	82.92
865.125	93.35
865.295	77.47
865.465	74.18
865.635	83.65
865.805	80.47
865.976	102.52
866.146	99.02
866.316	134.25
866.486	168.65
866.656	111.24
866.826	131.15
866.996	113.27
867.166	129.71
867.336	114.2
867.506	90.88
867.676	77.65
867.846	74.08
868.016	86.71
868.186	76.83
868.356	71.8
868.526	85.56
868.696	106.55
868.866	123.51
869.036	127.61
869.206	120.79
869.376	132.78
869.545	141.32
869.715	168.77
869.885	179.52
870.055	195.84
870.224	217.88
870.394	324.71
870.564	218.95
870.734	210.49
870.903	175.87
871.073	231.27
871.243	189.57
871.412	195.11
871.582	154.34
871.751	132.92
871.921	131.68
872.091	144.16
872.26	128.16
872.43	99.21
872.599	107.83
872.769	123.25
872.938	103.82
873.108	139.53
873.277	142.97
873.446	191.67
873.616	159.66
873.785	171.56
873.955	187.94
874.124	150
874.293	386.15
874.463	399.4
874.632	403.03
874.801	581.51
874.971	195.15
875.14	186.86
875.309	120.85
875.478	136.16
875.647	134.27
875.817	124.16
875.986	123.05
876.155	133.76
876.324	146.22
876.493	146.17
876.662	117.48
876.831	134.92
877	142.43
877.17	161.59
877.339	171.53
877.508	139.25
877.677	157.05
877.846	179.41
878.015	148.48
878.184	119.43
878.352	125.81
878.521	142.02
878.69	118.99
878.859	106.44
879.028	103.73
879.197	99.25
879.366	95.61
879.534	87.02
879.703	94.1
879.872	83.22
880.041	88.4
880.21	75.73
880.378	71.49
880.547	76.93
880.716	74.68
880.884	72.23
881.053	69.31
881.222	64.28
881.39	54.93
881.559	44.92
881.727	43.49
881.896	42.76
882.065	39.01
882.233	38.06
882.402	35.95
882.57	32.97
882.739	33.29
882.907	33.87
883.076	36.71
883.244	40.06
883.412	42.97
883.581	43.07
883.749	43.43
883.918	46.57
884.086	47.02
884.254	53.85
884.423	60.37
884.591	64.85
884.759	62.68
884.927	59.54
885.096	56.51
885.264	59.98
885.432	68.72
885.6	66.26
885.769	67.31
885.937	71.43
886.105	67.05
886.273	57.93
886.441	50.85
886.609	51.23
886.777	55.73
886.945	60.78
887.113	67.64
887.281	54.26
887.449	63.77
887.617	71.11
887.785	79.68
887.953	75.35
888.121	84.62
888.289	95.46
888.457	112.07
888.625	143.06
888.793	109.88
888.961	107.64
889.129	95.84
889.296	96.64
889.464	100.27
889.632	83.73
889.8	94.4
889.967	95.95
890.135	98.45
