Data from JASIL_2971_Reflection_2.txt Node
Date: Sat Nov 07 21:43:56 EST 2015
User: Geneva
Spectrometer: USB4E03002
Autoset integration time: false
Trigger mode: 4
Integration Time (sec): 1.000000E-1
Scans to average: 10
Electric dark correction enabled: true
Nonlinearity correction enabled: false
Boxcar width: 5
Stray light correction enabled: false
XAxis mode: Wavelengths
Stop averaging: false
Number of Pixels in Spectrum: 3648
>>>>>Begin Spectral Data<<<<<
177.575	-465.91
177.794	-248.42
178.014	-334.78
178.233	206.13
178.452	107.42
178.672	198.37
178.891	132.38
179.11	21.28
179.33	31.98
179.549	-29.25
179.768	-62.95
179.987	-241.74
180.207	-484.6
180.426	369.65
180.645	181.77
180.864	180.55
181.084	194.37
181.303	205.85
181.522	182.29
181.741	155.59
181.96	129.42
182.179	130.9
182.398	127.88
182.618	106.67
182.837	129.19
183.056	117.7
183.275	71.5
183.494	109.27
183.713	138.1
183.932	146.46
184.151	132
184.37	173.1
184.589	130.25
184.808	102.86
185.027	104.79
185.246	82.2
185.465	86.87
185.684	96.39
185.903	73.47
186.122	66.72
186.341	74.34
186.56	72.32
186.779	62.38
186.998	76.9
187.216	86.7
187.435	96.72
187.654	142.35
187.873	145.53
188.092	165.05
188.311	165.54
188.53	125.25
188.748	82.61
188.967	95.66
189.186	90.29
189.405	77.31
189.623	62.98
189.842	57.86
190.061	29.97
190.28	9.02
190.498	-2.55
190.717	-0.41
190.936	-2.18
191.154	-21.33
191.373	-41.79
191.592	-91.52
191.81	603.86
192.029	61.15
192.248	420.06
192.466	80.2
192.685	94.95
192.904	173.42
193.122	126.84
193.341	197.57
193.559	127.55
193.778	113.31
193.996	93.49
194.215	71.49
194.433	49.45
194.652	49.5
194.87	48.96
195.089	58.29
195.307	40.87
195.526	49.71
195.744	41.84
195.963	39.48
196.181	41.11
196.399	28.44
196.618	56.19
196.836	72.85
197.055	81.52
197.273	67.62
197.491	64.06
197.71	69.77
197.928	84.1
198.146	90.43
198.365	110.25
198.583	70.99
198.801	71.68
199.019	48.09
199.238	43.27
199.456	24.6
199.674	25.24
199.892	17.29
200.111	-4.62
200.329	5.99
200.547	-14.94
200.765	-6.07
200.983	-16.61
201.202	-3.08
201.42	12.3
201.638	2.7
201.856	23.09
202.074	46.28
202.292	71.12
202.51	101.7
202.728	101.81
202.946	140.75
203.165	129.93
203.383	123.45
203.601	129.1
203.819	150.15
204.037	116.68
204.255	113.62
204.473	124.3
204.691	114.03
204.909	87.68
205.127	80.5
205.345	82.99
205.562	69.64
205.78	68.18
205.998	78.48
206.216	67.16
206.434	71.28
206.652	46.89
206.87	34.78
207.088	38.87
207.306	39.67
207.523	38.86
207.741	24.44
207.959	29.9
208.177	31.6
208.395	16.24
208.612	-0.48
208.83	20.03
209.048	37.53
209.266	2.39
209.483	-29.49
209.701	-34.22
209.919	-41.53
210.136	-19.46
210.354	5.77
210.572	30.48
210.79	32.58
211.007	42.42
211.225	39.71
211.442	43.37
211.66	55.29
211.878	52.11
212.095	73.36
212.313	78.87
212.53	80.4
212.748	79.99
212.966	78.01
213.183	89.05
213.401	81.7
213.618	83.5
213.836	79.73
214.053	78.45
214.271	83.15
214.488	63.15
214.705	51.46
214.923	57.13
215.14	50.02
215.358	58.71
215.575	53.29
215.793	82.07
216.01	75.34
216.227	77.3
216.445	58.8
216.662	46.61
216.879	35.88
217.097	43.36
217.314	38.87
217.531	46.35
217.749	26
217.966	25.95
218.183	14.96
218.4	11.04
218.618	4.52
218.835	15.45
219.052	20.76
219.269	27.74
219.487	29.41
219.704	28.12
219.921	23.69
220.138	30.74
220.355	24.92
220.572	28.8
220.79	30.14
221.007	39.57
221.224	40.34
221.441	40.71
221.658	33.66
221.875	32.78
222.092	30.69
222.309	26.73
222.526	17.86
222.743	16.01
222.96	5.75
223.177	8.39
223.394	4.87
223.611	7.81
223.828	8.36
224.045	12.29
224.262	11.93
224.479	12.46
224.696	13.57
224.913	16.18
225.13	17.94
225.347	19.99
225.564	17.36
225.781	15.15
225.997	13.01
226.214	12.52
226.431	11.27
226.648	10.75
226.865	9.76
227.082	10.88
227.298	10.46
227.515	9.94
227.732	8.87
227.949	8.62
228.165	8.26
228.382	7.56
228.599	6.74
228.816	7.02
229.032	6.46
229.249	7.07
229.466	5.87
229.682	5.49
229.899	6.53
230.116	7.99
230.332	8.73
230.549	10.37
230.765	11.32
230.982	12.7
231.199	12.76
231.415	13.37
231.632	12.01
231.848	13.69
232.065	14.86
232.281	13.2
232.498	11.42
232.714	11.08
232.931	9.78
233.147	10.36
233.364	9.83
233.58	9.98
233.797	9.64
234.013	9.71
234.23	9.7
234.446	8.37
234.662	9.03
234.879	11.25
235.095	11.02
235.312	11.26
235.528	11.02
235.744	10.63
235.961	10.48
236.177	10.57
236.393	11.76
236.61	11.68
236.826	12.42
237.042	13.3
237.258	12.08
237.475	11.86
237.691	11.99
237.907	11.41
238.123	12.17
238.339	12.07
238.556	12.51
238.772	11.6
238.988	11.39
239.204	10.45
239.42	9.43
239.636	8.84
239.853	8.74
240.069	8.51
240.285	8.2
240.501	8.04
240.717	7.61
240.933	7.7
241.149	7.81
241.365	8.31
241.581	8.44
241.797	8.3
242.013	8.14
242.229	8.64
242.445	8.58
242.661	8.68
242.877	8.83
243.093	9.03
243.309	8.74
243.525	8.25
243.741	7.24
243.957	7.53
244.173	7.75
244.388	7.34
244.604	6.8
244.82	7.2
245.036	7.02
245.252	6.89
245.468	6.98
245.683	7.1
245.899	7.72
246.115	7.56
246.331	7.43
246.547	7.19
246.762	7.41
246.978	7.57
247.194	7.47
247.409	7.69
247.625	7.58
247.841	7.55
248.057	7.59
248.272	7.21
248.488	7.42
248.703	7.24
248.919	7.66
249.135	7.5
249.35	7.16
249.566	6.78
249.782	6.31
249.997	6.31
250.213	6.15
250.428	6.29
250.644	5.95
250.859	5.73
251.075	5.87
251.29	5.51
251.506	5.69
251.721	5.52
251.937	5.66
252.152	6.03
252.368	6.01
252.583	6.08
252.798	5.9
253.014	6.34
253.229	6.75
253.445	7.02
253.66	6.81
253.875	6.33
254.091	6.19
254.306	6.48
254.521	6.25
254.737	6.42
254.952	5.88
255.167	5.54
255.383	5.83
255.598	5.89
255.813	5.41
256.028	5.69
256.244	5.97
256.459	5.76
256.674	5.6
256.889	5.49
257.104	5.47
257.32	5.47
257.535	5.52
257.75	5.3
257.965	5.14
258.18	5.18
258.395	5.15
258.61	4.95
258.826	5.08
259.041	4.94
259.256	4.82
259.471	4.79
259.686	5.01
259.901	4.87
260.116	4.96
260.331	4.89
260.546	5
260.761	5.1
260.976	5.5
261.191	5.46
261.406	5.33
261.621	5.61
261.836	5.31
262.05	4.97
262.265	4.82
262.48	4.62
262.695	4.73
262.91	4.63
263.125	4.21
263.34	4.15
263.555	4.47
263.769	4.73
263.984	5.03
264.199	5.65
264.414	5.86
264.629	6.08
264.843	5.91
265.058	5.75
265.273	5.57
265.488	5.62
265.702	5.36
265.917	5.5
266.132	5.77
266.346	5.63
266.561	5.52
266.776	5.54
266.99	5.72
267.205	5.71
267.42	5.57
267.634	5.73
267.849	6.03
268.063	6.22
268.278	5.87
268.492	5.55
268.707	5.63
268.922	5.74
269.136	5.75
269.351	5.84
269.565	5.95
269.78	5.86
269.994	5.73
270.209	5.45
270.423	5.57
270.637	5.66
270.852	5.65
271.066	5.48
271.281	5.31
271.495	5.31
271.709	5.12
271.924	4.98
272.138	5.06
272.353	5.03
272.567	4.95
272.781	4.73
272.996	4.7
273.21	4.89
273.424	4.8
273.638	4.78
273.853	4.8
274.067	4.82
274.281	5
274.495	5.03
274.71	5.09
274.924	5.13
275.138	5.33
275.352	5.33
275.566	5.09
275.781	5.35
275.995	5.26
276.209	5.17
276.423	5.13
276.637	4.91
276.851	4.96
277.065	5.17
277.279	5.26
277.493	5.22
277.707	4.99
277.921	5.19
278.135	5.03
278.349	4.96
278.563	4.72
278.777	4.46
278.991	4.56
279.205	4.64
279.419	4.7
279.633	4.73
279.847	4.39
280.061	4.73
280.275	4.51
280.489	4.49
280.703	4.46
280.917	4.55
281.131	4.82
281.344	4.69
281.558	4.57
281.772	4.4
281.986	4.34
282.2	4.48
282.414	4.58
282.627	4.66
282.841	4.71
283.055	4.68
283.269	4.7
283.482	4.49
283.696	4.6
283.91	4.8
284.123	4.67
284.337	4.47
284.551	4.58
284.764	4.34
284.978	4.68
285.192	4.54
285.405	4.73
285.619	4.84
285.833	4.92
286.046	4.87
286.26	4.91
286.473	4.82
286.687	5.06
286.9	4.95
287.114	4.82
287.327	4.44
287.541	4.63
287.754	4.53
287.968	4.35
288.181	4.3
288.395	4.26
288.608	4.03
288.822	4.25
289.035	4.32
289.248	4.31
289.462	4.59
289.675	4.71
289.889	4.69
290.102	4.8
290.315	4.79
290.529	4.81
290.742	4.91
290.955	5.09
291.169	4.97
291.382	4.89
291.595	5.06
291.808	5
292.022	5.28
292.235	5.3
292.448	5.3
292.661	5.51
292.875	5.73
293.088	5.62
293.301	5.65
293.514	5.77
293.727	5.84
293.94	5.7
294.153	5.68
294.367	5.28
294.58	5.22
294.793	5.21
295.006	5.18
295.219	5.11
295.432	5.21
295.645	5.24
295.858	4.95
296.071	4.94
296.284	5
296.497	4.98
296.71	5.12
296.923	5.17
297.136	5.27
297.349	5.31
297.562	5.3
297.775	5.31
297.988	5.3
298.201	5.7
298.414	5.7
298.626	5.71
298.839	5.67
299.052	5.77
299.265	5.7
299.478	5.64
299.691	5.43
299.903	5.39
300.116	5.52
300.329	5.47
300.542	5.29
300.755	5.32
300.967	5.38
301.18	5.48
301.393	5.4
301.605	5.34
301.818	5.29
302.031	5.49
302.243	5.51
302.456	5.72
302.669	5.57
302.881	5.75
303.094	5.88
303.307	6.02
303.519	6.16
303.732	6.29
303.944	6.51
304.157	6.4
304.37	6.61
304.582	6.81
304.795	6.62
305.007	6.93
305.22	7.08
305.432	6.96
305.645	6.73
305.857	6.8
306.069	6.89
306.282	6.82
306.494	7.04
306.707	7.04
306.919	7.05
307.132	7.06
307.344	6.85
307.556	6.59
307.769	6.67
307.981	6.83
308.193	6.78
308.406	6.44
308.618	6.39
308.83	6.26
309.043	6.18
309.255	6.14
309.467	6.08
309.679	6.27
309.892	6.34
310.104	6.35
310.316	6.34
310.528	6.4
310.74	6.85
310.953	7.18
311.165	7.29
311.377	7.06
311.589	6.94
311.801	6.88
312.013	6.81
312.225	6.87
312.437	7.09
312.649	7.18
312.862	7.06
313.074	6.65
313.286	6.43
313.498	6.32
313.71	6.95
313.922	6.94
314.134	7.23
314.346	7.3
314.558	7.22
314.77	7.1
314.982	6.74
315.193	6.93
315.405	6.87
315.617	6.65
315.829	6.86
316.041	6.58
316.253	6.51
316.465	6.22
316.677	6.14
316.888	6.32
317.1	6.14
317.312	6.68
317.524	6.72
317.736	6.87
317.947	7.24
318.159	7.22
318.371	7.21
318.583	7.5
318.794	7.66
319.006	7.72
319.218	7.58
319.43	7.47
319.641	7.23
319.853	7.19
320.064	7.27
320.276	7.44
320.488	7.32
320.699	7.56
320.911	7.63
321.123	7.98
321.334	8.15
321.546	8.16
321.757	8.37
321.969	8.35
322.18	8.22
322.392	7.99
322.603	7.85
322.815	7.72
323.026	7.6
323.238	7.5
323.449	7.29
323.661	7.03
323.872	7.15
324.083	7.14
324.295	7.14
324.506	7.16
324.718	7.27
324.929	7.25
325.14	7.61
325.352	7.68
325.563	7.86
325.774	7.82
325.986	7.91
326.197	7.86
326.408	7.86
326.62	7.99
326.831	8.12
327.042	8.23
327.253	8.23
327.464	8.06
327.676	7.86
327.887	7.59
328.098	7.51
328.309	7.52
328.52	7.61
328.732	7.87
328.943	8.02
329.154	8.2
329.365	8.24
329.576	8.23
329.787	8.17
329.998	8.39
330.209	8.57
330.42	8.75
330.631	8.72
330.842	8.93
331.053	8.77
331.264	8.77
331.475	8.49
331.686	8.5
331.897	8.59
332.108	8.59
332.319	8.45
332.53	8.51
332.741	8.49
332.952	8.6
333.163	8.5
333.374	8.61
333.585	8.4
333.795	8.41
334.006	8.4
334.217	8.16
334.428	8.38
334.639	8.57
334.849	8.51
335.06	8.5
335.271	8.36
335.482	8.1
335.692	8.05
335.903	8.04
336.114	8.06
336.325	8.13
336.535	8.26
336.746	7.98
336.957	7.89
337.167	7.89
337.378	7.82
337.589	7.96
337.799	8.21
338.01	8.18
338.22	8.31
338.431	8.27
338.642	8.22
338.852	7.99
339.063	8.09
339.273	7.95
339.484	8.12
339.694	8.19
339.905	8.18
340.115	8.03
340.326	7.94
340.536	7.97
340.746	8.07
340.957	7.97
341.167	8.2
341.378	7.99
341.588	8.08
341.799	7.85
342.009	7.57
342.219	7.53
342.43	7.54
342.64	7.53
342.85	7.37
343.061	7.25
343.271	7.18
343.481	7.18
343.691	7.37
343.902	7.32
344.112	7.34
344.322	7.64
344.532	7.75
344.743	7.75
344.953	7.61
345.163	7.8
345.373	7.77
345.583	7.93
345.793	7.91
346.004	7.94
346.214	7.99
346.424	8.11
346.634	8.17
346.844	8.2
347.054	8.27
347.264	8.52
347.474	8.39
347.684	8.3
347.894	8.22
348.104	8.09
348.314	8.13
348.524	8.2
348.734	8.06
348.944	8.02
349.154	7.87
349.364	7.73
349.574	7.52
349.784	7.5
349.994	7.79
350.204	7.74
350.413	7.82
350.623	7.74
350.833	7.6
351.043	7.61
351.253	7.58
351.463	7.58
351.672	7.46
351.882	7.56
352.092	7.45
352.302	7.27
352.511	7.23
352.721	7.13
352.931	7.2
353.141	7
353.35	6.99
353.56	6.85
353.77	6.87
353.979	7.15
354.189	7.13
354.399	7.22
354.608	7.21
354.818	7.23
355.027	7.23
355.237	7.15
355.447	7.28
355.656	7.32
355.866	7.38
356.075	7.38
356.285	7.27
356.494	7.11
356.704	6.99
356.913	7.04
357.123	6.91
357.332	6.97
357.542	7.01
357.751	7.08
357.96	6.97
358.17	6.89
358.379	6.9
358.589	6.85
358.798	7
359.007	7.07
359.217	6.9
359.426	7.09
359.635	7.02
359.845	6.9
360.054	6.78
360.263	6.85
360.472	6.84
360.682	6.88
360.891	6.96
361.1	6.99
361.309	7.03
361.519	7.06
361.728	7.01
361.937	7.05
362.146	7.08
362.355	7.16
362.564	7.13
362.774	7.11
362.983	6.85
363.192	6.73
363.401	6.7
363.61	6.57
363.819	6.67
364.028	6.67
364.237	6.52
364.446	6.68
364.655	6.58
364.864	6.59
365.073	6.69
365.282	6.82
365.491	6.82
365.7	6.85
365.909	6.85
366.118	6.78
366.327	6.64
366.536	6.65
366.745	6.5
366.954	6.6
367.162	6.53
367.371	6.37
367.58	6.32
367.789	6.21
367.998	6.06
368.207	6.15
368.415	6.14
368.624	6.13
368.833	6.2
369.042	6.21
369.25	6.11
369.459	6.22
369.668	6.18
369.877	6.17
370.085	6.29
370.294	6.34
370.503	6.25
370.711	6.1
370.92	6.09
371.129	6.16
371.337	6.11
371.546	6.07
371.754	5.95
371.963	6.06
372.171	6.03
372.38	5.92
372.589	5.88
372.797	5.96
373.006	5.93
373.214	6
373.423	5.88
373.631	5.93
373.84	5.87
374.048	5.94
374.256	5.89
374.465	5.86
374.673	5.85
374.882	5.75
375.09	5.63
375.298	5.69
375.507	5.66
375.715	5.61
375.923	5.53
376.132	5.54
376.34	5.39
376.548	5.4
376.757	5.5
376.965	5.46
377.173	5.53
377.381	5.57
377.59	5.57
377.798	5.63
378.006	5.66
378.214	5.65
378.423	5.57
378.631	5.62
378.839	5.55
379.047	5.5
379.255	5.57
379.463	5.54
379.671	5.36
379.879	5.38
380.088	5.32
380.296	5.32
380.504	5.33
380.712	5.47
380.92	5.58
381.128	5.65
381.336	5.57
381.544	5.54
381.752	5.46
381.96	5.45
382.168	5.4
382.376	5.41
382.584	5.35
382.791	5.36
382.999	5.29
383.207	5.19
383.415	5.1
383.623	5.15
383.831	5.11
384.039	5.15
384.247	5.28
384.454	5.5
384.662	5.52
384.87	5.54
385.078	5.47
385.285	5.54
385.493	5.47
385.701	5.45
385.909	5.47
386.116	5.46
386.324	5.59
386.532	5.49
386.739	5.38
386.947	5.27
387.155	5.28
387.362	5.27
387.57	5.28
387.778	5.35
387.985	5.37
388.193	5.27
388.4	5.35
388.608	5.23
388.816	5.28
389.023	5.22
389.231	5.24
389.438	5.19
389.646	5.08
389.853	4.99
390.061	4.84
390.268	4.88
390.475	4.91
390.683	4.82
390.89	4.81
391.098	4.77
391.305	4.69
391.512	4.62
391.72	4.62
391.927	4.64
392.135	4.65
392.342	4.74
392.549	4.71
392.756	4.66
392.964	4.7
393.171	4.69
393.378	4.74
393.586	4.76
393.793	4.81
394	4.74
394.207	4.82
394.414	4.89
394.622	4.87
394.829	4.89
395.036	4.89
395.243	4.86
395.45	4.86
395.657	4.77
395.864	4.73
396.072	4.86
396.279	4.93
396.486	4.88
396.693	4.76
396.9	4.81
397.107	4.72
397.314	4.68
397.521	4.64
397.728	4.73
397.935	4.74
398.142	4.75
398.349	4.62
398.556	4.61
398.763	4.59
398.97	4.6
399.177	4.55
399.383	4.57
399.59	4.66
399.797	4.64
400.004	4.48
400.211	4.5
400.418	4.46
400.625	4.46
400.831	4.44
401.038	4.44
401.245	4.34
401.452	4.28
401.658	4.34
401.865	4.35
402.072	4.33
402.279	4.41
402.485	4.36
402.692	4.36
402.899	4.33
403.105	4.42
403.312	4.44
403.519	4.49
403.725	4.53
403.932	4.44
404.138	4.33
404.345	4.33
404.552	4.27
404.758	4.28
404.965	4.25
405.171	4.21
405.378	4.03
405.584	4.05
405.791	4.11
405.997	4.07
406.204	4.08
406.41	4.11
406.617	4.14
406.823	4.15
407.029	4.15
407.236	4.24
407.442	4.23
407.649	4.47
407.855	4.43
408.061	4.34
408.268	4.32
408.474	4.27
408.68	4.33
408.887	4.27
409.093	4.27
409.299	4.28
409.505	4.19
409.712	4.24
409.918	4.09
410.124	4.06
410.33	4.02
410.537	4.08
410.743	4.15
410.949	4.02
411.155	4.14
411.361	4.1
411.567	4.04
411.773	3.99
411.98	3.98
412.186	3.99
412.392	3.95
412.598	3.96
412.804	3.93
413.01	3.91
413.216	3.91
413.422	3.82
413.628	3.88
413.834	3.88
414.04	3.89
414.246	3.84
414.452	3.83
414.658	3.86
414.864	3.87
415.07	3.83
415.275	3.75
415.481	3.73
415.687	3.62
415.893	3.55
416.099	3.57
416.305	3.61
416.511	3.63
416.716	3.58
416.922	3.58
417.128	3.6
417.334	3.6
417.539	3.66
417.745	3.65
417.951	3.69
418.157	3.73
418.362	3.71
418.568	3.7
418.774	3.67
418.979	3.67
419.185	3.64
419.391	3.61
419.596	3.59
419.802	3.57
420.008	3.54
420.213	3.89
420.419	3.84
420.624	3.84
420.83	3.83
421.035	3.85
421.241	3.85
421.446	3.9
421.652	3.91
421.857	3.89
422.063	3.88
422.268	3.89
422.474	3.56
422.679	3.57
422.885	3.57
423.09	3.59
423.295	3.54
423.501	3.54
423.706	3.49
423.911	3.49
424.117	3.51
424.322	3.5
424.527	3.54
424.733	3.51
424.938	3.49
425.143	3.47
425.349	3.45
425.554	3.47
425.759	3.46
425.964	3.48
426.169	3.47
426.375	3.46
426.58	3.42
426.785	3.41
426.99	3.44
427.195	3.44
427.4	3.45
427.605	3.42
427.811	3.43
428.016	3.47
428.221	3.53
428.426	3.49
428.631	3.43
428.836	3.48
429.041	3.45
429.246	3.48
429.451	3.51
429.656	3.53
429.861	3.57
430.066	3.58
430.271	3.55
430.476	3.46
430.681	3.49
430.886	3.52
431.09	3.56
431.295	3.54
431.5	3.48
431.705	3.46
431.91	3.38
432.115	3.35
432.32	3.36
432.524	3.33
432.729	3.31
432.934	3.26
433.139	3.29
433.343	3.33
433.548	3.34
433.753	3.37
433.958	3.36
434.162	3.4
434.367	3.38
434.572	3.39
434.776	3.45
434.981	3.45
435.186	3.46
435.39	3.44
435.595	3.4
435.799	3.45
436.004	3.41
436.209	3.37
436.413	3.38
436.618	3.38
436.822	3.31
437.027	3.24
437.231	3.23
437.436	3.2
437.64	3.19
437.845	3.13
438.049	3.12
438.253	3.11
438.458	3.16
438.662	3.17
438.867	3.21
439.071	3.26
439.275	3.31
439.48	3.34
439.684	3.38
439.888	3.38
440.093	3.37
440.297	3.36
440.501	3.37
440.706	3.35
440.91	3.36
441.114	3.31
441.318	3.3
441.523	3.29
441.727	3.34
441.931	3.36
442.135	3.32
442.339	3.34
442.543	3.3
442.748	3.24
442.952	3.25
443.156	3.2
443.36	3.25
443.564	3.24
443.768	3.21
443.972	3.13
444.176	3.08
444.38	3.1
444.584	3.05
444.788	3.08
444.992	3.12
445.196	3.1
445.4	3.11
445.604	3.08
445.808	3.04
446.012	3.05
446.216	3.05
446.42	3.02
446.624	3.05
446.828	3.06
447.032	3.06
447.235	3.04
447.439	3.09
447.643	3.13
447.847	3.17
448.051	3.17
448.254	3.17
448.458	3.19
448.662	3.27
448.866	3.2
449.069	3.22
449.273	3.26
449.477	3.29
449.681	3.26
449.884	3.22
450.088	3.19
450.292	3.27
450.495	3.29
450.699	3.32
450.902	3.25
451.106	3.31
451.31	3.33
451.513	3.31
451.717	3.24
451.92	3.22
452.124	3.18
452.327	3.17
452.531	3.11
452.734	3.1
452.938	3.08
453.141	3.1
453.345	3.07
453.548	3.05
453.752	3
453.955	3.06
454.158	3.06
454.362	3.06
454.565	3.02
454.769	3.01
454.972	3.02
455.175	2.98
455.379	2.92
455.582	2.87
455.785	2.9
455.988	2.89
456.192	2.83
456.395	2.81
456.598	2.84
456.801	2.85
457.005	2.87
457.208	2.85
457.411	2.86
457.614	2.92
457.817	2.96
458.021	2.94
458.224	2.99
458.427	3.03
458.63	3.08
458.833	3.06
459.036	3.07
459.239	3.03
459.442	3.01
459.645	3.04
459.848	3.02
460.051	3
460.254	3
460.457	2.96
460.66	2.96
460.863	2.9
461.066	2.9
461.269	2.93
461.472	2.96
461.675	2.98
461.878	2.97
462.081	2.98
462.284	3.04
462.486	3.06
462.689	3.08
462.892	3.07
463.095	3.09
463.298	3.09
463.5	3.09
463.703	3.12
463.906	3.13
464.109	3.16
464.311	3.2
464.514	3.18
464.717	3.18
464.92	3.19
465.122	3.17
465.325	3.23
465.528	3.24
465.73	3.2
465.933	3.16
466.135	3.16
466.338	3.14
466.541	3.09
466.743	3.1
466.946	3.07
467.148	3.07
467.351	3.09
467.553	3.07
467.756	3.08
467.958	3.13
468.161	3.18
468.363	3.15
468.566	3.17
468.768	3.17
468.971	3.16
469.173	3.15
469.375	3.13
469.578	3.29
469.78	3.24
469.983	3.22
470.185	3.21
470.387	3.19
470.59	3.17
470.792	3.13
470.994	3.17
471.196	3.13
471.399	3.13
471.601	3.15
471.803	3
472.005	3.03
472.208	3.04
472.41	2.97
472.612	2.95
472.814	3.01
473.016	3.06
473.218	3.02
473.421	3.04
473.623	3.02
473.825	3.03
474.027	3.06
474.229	3.04
474.431	3
474.633	3.04
474.835	3.07
475.037	3.05
475.239	3.01
475.441	3.08
475.643	3.04
475.845	3.09
476.047	3.12
476.249	3.1
476.451	3.14
476.653	3.17
476.855	3.18
477.057	3.15
477.258	3.13
477.46	3.18
477.662	3.14
477.864	3.17
478.066	3.16
478.268	3.15
478.469	3.16
478.671	3.11
478.873	3.06
479.075	3.06
479.276	3.06
479.478	3.06
479.68	3
479.882	2.99
480.083	2.99
480.285	2.99
480.487	2.95
480.688	2.94
480.89	2.96
481.091	2.95
481.293	2.93
481.495	2.92
481.696	2.92
481.898	2.91
482.099	2.91
482.301	2.92
482.502	2.91
482.704	2.91
482.905	2.92
483.107	2.9
483.308	2.9
483.51	2.9
483.711	2.91
483.913	2.9
484.114	2.92
484.315	2.9
484.517	2.89
484.718	2.89
484.92	2.9
485.121	2.88
485.322	2.9
485.524	2.91
485.725	2.93
485.926	2.94
486.127	2.95
486.329	2.94
486.53	2.96
486.731	2.96
486.932	2.95
487.134	2.95
487.335	2.94
487.536	2.95
487.737	2.96
487.938	2.96
488.139	2.94
488.341	2.94
488.542	2.94
488.743	2.94
488.944	2.93
489.145	2.94
489.346	2.96
489.547	2.98
489.748	2.98
489.949	2.97
490.15	2.97
490.351	3
490.552	3
490.753	3
490.954	3
491.155	3.02
491.356	2.99
491.557	2.96
491.758	2.98
491.959	2.98
492.159	2.97
492.36	2.98
492.561	2.96
492.762	2.96
492.963	2.96
493.164	2.96
493.364	2.96
493.565	3.01
493.766	3.06
493.967	3.05
494.167	3.05
494.368	3.06
494.569	3.04
494.769	3.05
494.97	3.04
495.171	3.07
495.371	3.07
495.572	3.11
495.773	3.14
495.973	3.14
496.174	3.13
496.375	3.15
496.575	3.17
496.776	3.17
496.976	3.22
497.177	3.26
497.377	3.24
497.578	3.27
497.778	3.22
497.979	3.23
498.179	3.24
498.38	3.24
498.58	3.29
498.78	3.28
498.981	3.33
499.181	3.35
499.382	3.32
499.582	3.37
499.782	3.38
499.983	3.43
500.183	3.42
500.383	3.42
500.584	3.41
500.784	3.39
500.984	3.38
501.184	3.36
501.385	3.29
501.585	3.34
501.785	3.35
501.985	3.37
502.185	3.36
502.386	3.38
502.586	3.42
502.786	3.5
502.986	3.53
503.186	3.57
503.386	3.6
503.586	3.63
503.786	3.63
503.987	3.65
504.187	3.67
504.387	3.71
504.587	3.75
504.787	3.74
504.987	3.71
505.187	3.69
505.387	3.71
505.587	3.7
505.786	3.74
505.986	3.73
506.186	3.71
506.386	3.73
506.586	3.74
506.786	3.76
506.986	3.77
507.186	3.78
507.386	3.85
507.585	3.9
507.785	3.9
507.985	3.93
508.185	3.97
508.384	3.99
508.584	4
508.784	4
508.984	4.02
509.183	4.06
509.383	4.12
509.583	4.1
509.782	4.08
509.982	4.1
510.182	4.1
510.381	4.1
510.581	4.12
510.781	4.11
510.98	4.13
511.18	4.11
511.379	4.1
511.579	4.11
511.778	4.1
511.978	4.16
512.177	4.18
512.377	4.21
512.576	4.25
512.776	4.29
512.975	4.33
513.175	4.36
513.374	4.45
513.573	4.48
513.773	4.49
513.972	4.51
514.172	4.53
514.371	4.56
514.57	4.56
514.77	4.58
514.969	4.56
515.168	4.59
515.367	4.6
515.567	4.6
515.766	4.58
515.965	4.6
516.164	4.63
516.364	4.61
516.563	4.64
516.762	4.68
516.961	4.7
517.16	4.74
517.359	4.76
517.559	4.79
517.758	4.83
517.957	4.86
518.156	4.88
518.355	4.91
518.554	4.97
518.753	4.96
518.952	4.98
519.151	5.01
519.35	5.05
519.549	5.04
519.748	5.04
519.947	5.03
520.146	5.03
520.345	5.03
520.544	5.06
520.743	5.07
520.942	5.08
521.141	5.11
521.339	5.1
521.538	5.11
521.737	5.14
521.936	5.15
522.135	5.18
522.333	5.22
522.532	5.22
522.731	5.25
522.93	5.24
523.129	5.28
523.327	5.26
523.526	5.25
523.725	5.25
523.923	5.3
524.122	5.32
524.321	5.36
524.519	5.37
524.718	5.37
524.917	5.35
525.115	5.35
525.314	5.36
525.512	5.36
525.711	5.4
525.909	5.4
526.108	5.39
526.306	5.38
526.505	5.37
526.703	5.39
526.902	5.44
527.1	5.47
527.299	5.51
527.497	5.56
527.696	5.58
527.894	5.59
528.092	5.6
528.291	5.61
528.489	5.66
528.688	5.68
528.886	5.7
529.084	5.69
529.283	5.7
529.481	5.7
529.679	5.68
529.877	5.68
530.076	5.68
530.274	5.73
530.472	5.78
530.67	5.79
530.869	5.82
531.067	5.85
531.265	5.9
531.463	5.95
531.661	5.96
531.859	6.01
532.057	6.04
532.255	6.08
532.454	6.08
532.652	6.1
532.85	6.09
533.048	6.08
533.246	6.09
533.444	6.08
533.642	6.08
533.84	6.09
534.038	6.12
534.236	6.15
534.434	6.16
534.632	6.16
534.83	6.14
535.027	6.17
535.225	6.2
535.423	6.23
535.621	6.25
535.819	6.25
536.017	6.28
536.215	6.25
536.412	6.25
536.61	6.29
536.808	6.3
537.006	6.33
537.203	6.33
537.401	6.32
537.599	6.31
537.797	6.35
537.994	6.36
538.192	6.37
538.39	6.41
538.587	6.39
538.785	6.41
538.983	6.46
539.18	6.49
539.378	6.52
539.575	6.59
539.773	6.64
539.97	6.66
540.168	6.69
540.366	6.71
540.563	6.71
540.761	6.74
540.958	6.74
541.155	6.76
541.353	6.78
541.55	6.83
541.748	6.83
541.945	6.81
542.143	6.81
542.34	6.83
542.537	6.84
542.735	6.85
542.932	6.88
543.129	6.91
543.327	6.93
543.524	6.93
543.721	6.93
543.919	6.93
544.116	7.01
544.313	7.05
544.51	7.05
544.708	7.09
544.905	7.12
545.102	7.1
545.299	7.1
545.496	7.15
545.693	7.17
545.891	7.18
546.088	7.21
546.285	7.19
546.482	7.21
546.679	7.26
546.876	7.24
547.073	7.25
547.27	7.35
547.467	7.37
547.664	7.37
547.861	7.43
548.058	7.44
548.255	7.45
548.452	7.47
548.649	7.45
548.846	7.44
549.043	7.44
549.24	7.52
549.437	7.5
549.633	7.49
549.83	7.47
550.027	7.46
550.224	7.5
550.421	7.51
550.618	7.54
550.814	7.59
551.011	7.62
551.208	7.73
551.405	7.7
551.601	7.72
551.798	7.81
551.995	7.86
552.191	7.86
552.388	7.83
552.585	7.89
552.781	7.88
552.978	7.94
553.175	7.96
553.371	7.92
553.568	7.94
553.764	7.93
553.961	7.91
554.157	7.94
554.354	7.97
554.55	8.07
554.747	8.05
554.943	8.08
555.14	8.03
555.336	8.05
555.533	8.11
555.729	8.14
555.926	8.21
556.122	8.23
556.318	8.21
556.515	8.26
556.711	8.23
556.907	8.26
557.104	8.27
557.3	8.26
557.496	8.34
557.693	8.35
557.889	8.4
558.085	8.38
558.281	8.39
558.478	8.4
558.674	8.41
558.87	8.41
559.066	8.4
559.262	8.42
559.459	8.45
559.655	8.42
559.851	8.46
560.047	8.42
560.243	8.4
560.439	8.41
560.635	8.43
560.831	8.38
561.027	8.41
561.223	8.43
561.419	8.43
561.615	8.47
561.811	8.46
562.007	8.4
562.203	8.45
562.399	8.46
562.595	8.49
562.791	8.5
562.987	8.56
563.183	8.58
563.379	8.61
563.575	8.62
563.771	8.63
563.966	8.68
564.162	8.72
564.358	8.65
564.554	8.66
564.75	8.7
564.945	8.71
565.141	8.75
565.337	8.77
565.533	8.82
565.728	8.86
565.924	8.84
566.12	8.84
566.315	8.88
566.511	8.92
566.707	8.93
566.902	8.9
567.098	8.92
567.293	8.92
567.489	8.89
567.684	8.82
567.88	8.78
568.076	8.82
568.271	8.82
568.467	8.81
568.662	8.83
568.858	8.84
569.053	8.85
569.248	8.83
569.444	8.79
569.639	8.85
569.835	8.89
570.03	8.93
570.225	8.91
570.421	8.96
570.616	8.97
570.812	8.99
571.007	8.97
571.202	8.98
571.397	8.97
571.593	8.96
571.788	8.98
571.983	8.98
572.178	8.98
572.374	9.01
572.569	8.98
572.764	8.99
572.959	9.03
573.154	9.03
573.35	9.05
573.545	9.08
573.74	9.08
573.935	9.05
574.13	9.09
574.325	9.12
574.52	9.06
574.715	9.06
574.91	9.06
575.105	9.03
575.3	9.1
575.495	9.13
575.69	9.18
575.885	9.24
576.08	9.22
576.275	9.18
576.47	9.14
576.665	9.19
576.86	9.25
577.055	9.29
577.25	9.31
577.444	9.31
577.639	9.31
577.834	9.3
578.029	9.35
578.224	9.39
578.418	9.44
578.613	9.51
578.808	9.51
579.003	9.5
579.197	9.52
579.392	9.52
579.587	9.54
579.781	9.49
579.976	9.48
580.171	9.44
580.365	9.48
580.56	9.45
580.755	9.42
580.949	9.43
581.144	9.44
581.338	9.43
581.533	9.39
581.727	9.35
581.922	9.37
582.116	9.43
582.311	9.46
582.505	9.42
582.7	9.49
582.894	9.55
583.089	9.58
583.283	9.53
583.478	9.45
583.672	9.54
583.866	9.54
584.061	9.51
584.255	9.47
584.449	9.44
584.644	9.44
584.838	9.38
585.032	9.33
585.226	9.32
585.421	9.36
585.615	9.37
585.809	9.35
586.003	9.31
586.198	9.35
586.392	9.38
586.586	9.43
586.78	9.46
586.974	9.53
587.168	9.57
587.363	9.52
587.557	9.57
587.751	9.58
587.945	9.58
588.139	9.68
588.333	9.69
588.527	9.74
588.721	9.74
588.915	9.71
589.109	9.64
589.303	9.58
589.497	9.66
589.691	9.63
589.885	9.66
590.079	9.67
590.273	9.61
590.466	9.66
590.66	9.57
590.854	9.6
591.048	9.56
591.242	9.58
591.436	9.58
591.629	9.55
591.823	9.51
592.017	9.52
592.211	9.52
592.404	9.54
592.598	9.5
592.792	9.59
592.986	9.59
593.179	9.67
593.373	9.66
593.567	9.7
593.76	9.69
593.954	9.69
594.147	9.7
594.341	9.78
594.535	9.76
594.728	9.75
594.922	9.76
595.115	9.71
595.309	9.7
595.502	9.76
595.696	9.72
595.889	9.75
596.083	9.7
596.276	9.68
596.47	9.61
596.663	9.65
596.856	9.61
597.05	9.59
597.243	9.55
597.437	9.58
597.63	9.52
597.823	9.53
598.017	9.48
598.21	9.5
598.403	9.52
598.596	9.55
598.79	9.53
598.983	9.57
599.176	9.58
599.369	9.6
599.563	9.57
599.756	9.62
599.949	9.59
600.142	9.65
600.335	9.75
600.528	9.74
600.722	9.65
600.915	9.61
601.108	9.66
601.301	9.66
601.494	9.66
601.687	9.65
601.88	9.61
602.073	9.65
602.266	9.63
602.459	9.61
602.652	9.62
602.845	9.69
603.038	9.71
603.231	9.67
603.424	9.68
603.617	9.67
603.809	9.66
604.002	9.7
604.195	9.68
604.388	9.71
604.581	9.71
604.774	9.74
604.966	9.73
605.159	9.72
605.352	9.76
605.545	9.74
605.737	9.78
605.93	9.78
606.123	9.76
606.316	9.82
606.508	9.82
606.701	9.91
606.894	9.91
607.086	9.89
607.279	9.85
607.471	9.89
607.664	9.91
607.857	9.97
608.049	10.03
608.242	10.03
608.434	10.05
608.627	10.01
608.819	9.93
609.012	9.93
609.204	9.91
609.397	10.01
609.589	9.99
609.782	9.98
609.974	9.96
610.166	9.96
610.359	9.94
610.551	9.93
610.743	9.97
610.936	10.03
611.128	10.02
611.32	10.03
611.513	10
611.705	10.08
611.897	10.11
612.09	10.05
612.282	10.08
612.474	9.97
612.666	10.01
612.858	9.99
613.051	9.95
613.243	9.96
613.435	10.04
613.627	10.07
613.819	9.94
614.011	9.94
614.203	9.91
614.395	9.81
614.588	9.92
614.78	9.89
614.972	9.87
615.164	9.81
615.356	9.82
615.548	9.78
615.74	9.75
615.932	9.82
616.124	9.8
616.315	9.88
616.507	9.95
616.699	10.05
616.891	10.03
617.083	10.12
617.275	10.21
617.467	10.2
617.659	10.14
617.85	10.14
618.042	10.08
618.234	10.1
618.426	10.05
618.618	10.06
618.809	9.99
619.001	10
619.193	9.97
619.384	9.87
619.576	9.88
619.768	9.98
619.959	9.97
620.151	9.98
620.343	9.91
620.534	9.95
620.726	9.95
620.917	9.98
621.109	9.91
621.301	9.94
621.492	9.94
621.684	9.84
621.875	9.87
622.067	9.87
622.258	9.82
622.45	9.77
622.641	9.68
622.832	9.64
623.024	9.6
623.215	9.71
623.407	9.71
623.598	9.83
623.789	9.87
623.981	9.84
624.172	9.94
624.363	9.99
624.555	10.04
624.746	10.16
624.937	10.24
625.129	10.17
625.32	10.11
625.511	10.14
625.702	10.02
625.893	10.02
626.085	10.06
626.276	10.01
626.467	10.01
626.658	10.06
626.849	9.99
627.04	9.92
627.231	9.99
627.422	10.02
627.614	10
627.805	10.1
627.996	10.11
628.187	10.12
628.378	10.09
628.569	10.14
628.76	10.1
628.951	10.19
629.142	10.16
629.332	10.15
629.523	10.22
629.714	10.22
629.905	10.2
630.096	10.17
630.287	10.12
630.478	10.17
630.669	10.21
630.859	10.19
631.05	10.15
631.241	10.24
631.432	10.26
631.623	10.28
631.813	10.25
632.004	10.26
632.195	10.37
632.385	10.36
632.576	10.35
632.767	10.29
632.957	10.35
633.148	10.38
633.339	10.3
633.529	10.23
633.72	10.16
633.91	10.15
634.101	10.09
634.292	9.96
634.482	9.98
634.673	9.93
634.863	9.89
635.054	9.8
635.244	9.83
635.435	9.86
635.625	9.94
635.815	9.88
636.006	9.84
636.196	9.95
636.387	10.03
636.577	9.96
636.767	9.95
636.958	10.01
637.148	9.96
637.338	9.92
637.529	9.95
637.719	9.95
637.909	10.01
638.099	10.11
638.29	10.1
638.48	10.27
638.67	10.32
638.86	10.36
639.05	10.3
639.241	10.43
639.431	10.49
639.621	10.45
639.811	10.49
640.001	10.4
640.191	10.37
640.381	10.27
640.571	10.12
640.761	10.14
640.951	10.13
641.141	10.15
641.331	10.14
641.521	10.11
641.711	10.12
641.901	10.03
642.091	10.15
642.281	10.16
642.471	10.26
642.661	10.25
642.851	10.3
643.041	10.28
643.231	10.3
643.42	10.22
643.61	10.02
643.8	9.94
643.99	10.03
644.18	10.06
644.369	10.08
644.559	10.09
644.749	10.05
644.939	9.97
645.128	9.95
645.318	9.94
645.508	9.93
645.697	10.1
645.887	10.22
646.076	10.34
646.266	10.32
646.456	10.35
646.645	10.28
646.835	10.28
647.024	10.25
647.214	10.32
647.403	10.36
647.593	10.5
647.782	10.53
647.972	10.41
648.161	10.19
648.351	10.22
648.54	10.18
648.73	10.24
648.919	10.35
649.108	10.29
649.298	10.13
649.487	10.11
649.677	10.04
649.866	10
650.055	10.09
650.244	10.16
650.434	10.12
650.623	10.14
650.812	10.07
651.002	9.9
651.191	10.03
651.38	10.12
651.569	10.11
651.758	10.12
651.947	10.1
652.137	10.1
652.326	10.05
652.515	10
652.704	10.01
652.893	10.05
653.082	10.16
653.271	10.24
653.46	10.33
653.649	10.43
653.838	10.38
654.027	10.42
654.216	10.31
654.405	10.47
654.594	10.51
654.783	10.47
654.972	10.44
655.161	10.38
655.35	10.36
655.539	10.3
655.728	10.17
655.916	10.19
656.105	10.23
656.294	10.34
656.483	10.1
656.672	10.13
656.86	10.13
657.049	10.14
657.238	10.1
657.427	10.03
657.615	10.09
657.804	10.09
657.993	10.12
658.181	10.08
658.37	10.08
658.559	10.14
658.747	10.13
658.936	10.21
659.125	10.11
659.313	10.26
659.502	10.37
659.69	10.33
659.879	10.36
660.067	10.38
660.256	10.43
660.444	10.48
660.633	10.53
660.821	10.49
661.01	10.46
661.198	10.64
661.387	10.53
661.575	10.49
661.763	10.51
661.952	10.49
662.14	10.5
662.328	10.5
662.517	10.4
662.705	10.36
662.893	10.51
663.082	10.37
663.27	10.2
663.458	10.2
663.646	10.17
663.834	10.27
664.023	10.26
664.211	10.26
664.399	10.22
664.587	10.41
664.775	10.43
664.963	10.38
665.152	10.44
665.34	10.7
665.528	10.77
665.716	10.76
665.904	10.61
666.092	10.75
666.28	10.69
666.468	10.75
666.656	10.69
666.844	10.69
667.032	10.67
667.22	10.76
667.408	10.65
667.596	10.66
667.784	10.7
667.971	10.77
668.159	10.64
668.347	10.65
668.535	10.65
668.723	10.62
668.911	10.69
669.098	10.55
669.286	10.46
669.474	10.53
669.662	10.44
669.849	10.39
670.037	10.27
670.225	10.21
670.413	10.2
670.6	10.28
670.788	10.23
670.976	10.25
671.163	10.33
671.351	10.38
671.538	10.27
671.726	10.38
671.913	10.44
672.101	10.5
672.289	10.65
672.476	10.78
672.664	10.7
672.851	10.71
673.039	10.57
673.226	10.61
673.413	10.56
673.601	10.61
673.788	10.51
673.976	10.54
674.163	10.48
674.35	10.42
674.538	10.35
674.725	10.33
674.912	10.39
675.1	10.46
675.287	10.43
675.474	10.53
675.662	10.7
675.849	10.75
676.036	10.8
676.223	10.97
676.411	10.96
676.598	10.86
676.785	10.89
676.972	10.9
677.159	10.99
677.346	11.1
677.533	11.05
677.721	10.94
677.908	10.91
678.095	10.86
678.282	10.92
678.469	10.94
678.656	11.05
678.843	11.1
679.03	11.03
679.217	11.06
679.404	10.94
679.591	10.89
679.778	10.78
679.964	10.72
680.151	10.74
680.338	10.69
680.525	10.79
680.712	10.83
680.899	10.78
681.086	10.72
681.272	10.57
681.459	10.67
681.646	10.72
681.833	10.84
682.02	10.81
682.206	10.74
682.393	10.73
682.58	10.6
682.766	10.57
682.953	10.49
683.14	10.64
683.326	10.7
683.513	10.76
683.7	10.71
683.886	10.65
684.073	10.71
684.259	10.73
684.446	10.76
684.632	10.77
684.819	10.75
685.005	10.84
685.192	10.84
685.378	10.8
685.565	10.65
685.751	10.62
685.938	10.52
686.124	10.57
686.31	10.58
686.497	10.54
686.683	10.61
686.87	10.53
687.056	10.47
687.242	10.31
687.429	10.39
687.615	10.47
687.801	10.66
687.987	10.68
688.174	10.61
688.36	10.65
688.546	10.64
688.732	10.67
688.918	10.69
689.105	10.8
689.291	10.84
689.477	10.95
689.663	11.01
689.849	10.91
690.035	11.08
690.221	11.08
690.407	11
690.593	11.02
690.779	11.02
690.965	11.04
691.151	11.07
691.337	11.2
691.523	10.98
691.709	10.92
691.895	11.02
692.081	10.92
692.267	11.02
692.453	11.04
692.639	11.02
692.825	10.91
693.011	10.92
693.196	10.8
693.382	10.68
693.568	10.8
693.754	10.79
693.94	10.62
694.125	10.75
694.311	10.91
694.497	10.97
694.682	10.93
694.868	11.07
695.054	11.02
695.239	10.97
695.425	11.02
695.611	11.06
695.796	11.1
695.982	11.28
696.168	11.19
696.353	11.08
696.539	11.04
696.724	11.07
696.91	11.08
697.095	11.12
697.281	11.13
697.466	11.17
697.652	11.09
697.837	11.09
698.023	11
698.208	11.03
698.393	11.04
698.579	11.07
698.764	11.02
698.949	10.95
699.135	10.9
699.32	11
699.505	10.97
699.691	11
699.876	11.07
700.061	11.09
700.246	10.99
700.432	10.92
700.617	11.01
700.802	11.11
700.987	11.11
701.172	11.03
701.358	10.92
701.543	10.97
701.728	11.06
701.913	10.95
702.098	10.87
702.283	10.97
702.468	11
702.653	10.75
702.838	10.92
703.023	10.87
703.208	11.03
703.393	11.02
703.578	11.05
703.763	10.87
703.948	10.91
704.133	11.01
704.318	10.9
704.503	11.09
704.688	11.29
704.873	11.06
705.057	11.13
705.242	11.16
705.427	11.16
705.612	11.01
705.797	11.22
705.981	11.19
706.166	11.36
706.351	11.49
706.536	11.35
706.72	11.18
706.905	11.04
707.09	11.12
707.274	11.01
707.459	10.94
707.644	11.15
707.828	11.01
708.013	11.03
708.197	10.96
708.382	10.93
708.567	10.91
708.751	11
708.936	11.16
709.12	11.12
709.305	11.1
709.489	11.26
709.673	11.15
709.858	11.12
710.042	11.28
710.227	11.19
710.411	11.16
710.596	11.11
710.78	11.11
710.964	11.1
711.149	11.16
711.333	11.39
711.517	11.36
711.702	11.39
711.886	11.57
712.07	11.41
712.254	11.43
712.438	11.6
712.623	11.67
712.807	11.77
712.991	11.89
713.175	11.82
713.359	11.82
713.544	11.92
713.728	11.94
713.912	11.84
714.096	11.95
714.28	11.79
714.464	11.73
714.648	11.81
714.832	11.79
715.016	11.62
715.2	11.53
715.384	11.51
715.568	11.47
715.752	11.39
715.936	11.49
716.12	11.36
716.304	11.6
716.488	11.58
716.671	11.48
716.855	11.49
717.039	11.6
717.223	11.74
717.407	11.62
717.59	11.59
717.774	11.56
717.958	11.49
718.142	11.5
718.325	11.42
718.509	11.54
718.693	11.52
718.877	11.34
719.06	11.17
719.244	10.89
719.428	10.98
719.611	11.07
719.795	11.14
719.978	11.17
720.162	11.06
720.345	11.02
720.529	10.71
720.713	10.76
720.896	10.96
721.08	11.15
721.263	11.24
721.446	11.11
721.63	10.95
721.813	10.85
721.997	10.77
722.18	10.83
722.364	10.95
722.547	11.13
722.73	11.12
722.914	11.09
723.097	11.12
723.28	11.27
723.464	11.37
723.647	11.48
723.83	11.56
724.013	11.67
724.197	11.9
724.38	11.9
724.563	11.8
724.746	11.79
724.929	11.78
725.112	11.54
725.296	11.4
725.479	11.27
725.662	11.26
725.845	11.28
726.028	10.91
726.211	10.71
726.394	10.65
726.577	10.94
726.76	10.95
726.943	10.94
727.126	11.06
727.309	11.18
727.492	11.37
727.675	11.47
727.858	11.34
728.041	11.56
728.224	11.57
728.407	11.65
728.589	11.45
728.772	11.48
728.955	11.65
729.138	11.73
729.321	11.72
729.503	11.82
729.686	11.72
729.869	11.8
730.052	11.93
730.234	11.93
730.417	11.79
730.6	11.83
730.782	11.67
730.965	11.66
731.148	11.65
731.33	11.77
731.513	11.58
731.695	11.65
731.878	11.77
732.061	11.6
732.243	11.62
732.426	11.73
732.608	11.88
732.791	12
732.973	11.97
733.156	12.05
733.338	12.06
733.52	12.05
733.703	11.91
733.885	12.03
734.068	12.14
734.25	12.03
734.432	12.15
734.615	12.17
734.797	12.16
734.979	12.06
735.162	12.18
735.344	12.04
735.526	12.04
735.708	12.08
735.891	11.81
736.073	12.05
736.255	12.18
736.437	12.14
736.619	11.75
736.802	11.67
736.984	11.72
737.166	11.65
737.348	11.64
737.53	11.6
737.712	11.86
737.894	12.27
738.076	12.02
738.258	12.01
738.44	11.93
738.622	11.9
738.804	11.97
738.986	11.85
739.168	11.74
739.35	11.83
739.532	11.9
739.714	11.52
739.896	11.23
740.078	11.37
740.259	11.58
740.441	11.45
740.623	11.67
740.805	11.83
740.987	12.06
741.168	11.98
741.35	11.91
741.532	11.95
741.714	12.36
741.895	12.33
742.077	12.31
742.259	12.34
742.44	12.52
742.622	12.57
742.804	12.54
742.985	12.29
743.167	12.53
743.348	12.5
743.53	12.58
743.711	12.21
743.893	12
744.075	11.96
744.256	11.6
744.438	11.48
744.619	11.55
744.8	11.52
744.982	11.77
745.163	11.83
745.345	11.87
745.526	12.35
745.707	12.43
745.889	12.56
746.07	12.66
746.252	12.76
746.433	12.8
746.614	12.71
746.795	12.93
746.977	13.16
747.158	13.02
747.339	13.16
747.52	12.78
747.702	13.16
747.883	13.2
748.064	13.04
748.245	13.03
748.426	12.88
748.607	13.05
748.788	12.69
748.97	12.24
749.151	12.47
749.332	12.31
749.513	12.33
749.694	12.08
749.875	12.3
750.056	12.58
750.237	12.79
750.418	12.86
750.599	12.58
750.78	12.53
750.96	12.7
751.141	12.62
751.322	12.98
751.503	12.9
751.684	12.91
751.865	12.97
752.046	12.87
752.226	12.79
752.407	12.93
752.588	13.07
752.769	13.53
752.949	13.71
753.13	13.47
753.311	13.29
753.492	13.27
753.672	13.16
753.853	12.6
754.034	12.63
754.214	12.78
754.395	12.63
754.575	12.73
754.756	12.39
754.937	12.07
755.117	12.07
755.298	12.2
755.478	12.32
755.659	12.56
755.839	12.77
756.02	12.8
756.2	12.49
756.381	12.25
756.561	12.02
756.741	12.1
756.922	12.15
757.102	12.42
757.283	12.16
757.463	11.91
757.643	11.53
757.823	11.32
758.004	11.39
758.184	11.75
758.364	12.32
758.545	12.65
758.725	12.73
758.905	12.84
759.085	12.6
759.265	12.55
759.446	12.47
759.626	12.83
759.806	13.25
759.986	13.1
760.166	12.91
760.346	12.51
760.526	12.28
760.706	12.21
760.886	12.22
761.066	12.11
761.246	12.14
761.426	12.26
761.606	11.99
761.786	12
761.966	12.18
762.146	12.43
762.326	12.58
762.506	12.67
762.686	12.77
762.866	12.53
763.046	12.58
763.225	12.84
763.405	12.74
763.585	12.99
763.765	12.88
763.945	12.72
764.124	12.38
764.304	12.42
764.484	12.62
764.664	12.6
764.843	12.81
765.023	12.89
765.203	12.54
765.382	12.76
765.562	12.69
765.741	13.03
765.921	12.92
766.101	13.11
766.28	13.1
766.46	12.56
766.639	12.57
766.819	12.59
766.998	12.63
767.178	12.77
767.357	12.81
767.537	12.6
767.716	12.23
767.896	12.71
768.075	12.62
768.254	12.67
768.434	12.91
768.613	12.65
768.792	12.75
768.972	12.97
769.151	13.02
769.33	13
769.51	13.35
769.689	13.33
769.868	13.12
770.047	13.2
770.226	13.35
770.406	13.47
770.585	13.48
770.764	13.19
770.943	12.89
771.122	13.1
771.301	13
771.48	13.2
771.66	13.51
771.839	13.51
772.018	13.53
772.197	13.43
772.376	13.57
772.555	13.61
772.734	14.21
772.913	14.27
773.092	14.18
773.271	14.31
773.449	13.89
773.628	13.91
773.807	13.78
773.986	13.58
774.165	13.52
774.344	13.36
774.523	13.57
774.701	13.32
774.88	13.22
775.059	13.37
775.238	13.33
775.417	13.1
775.595	12.75
775.774	12.67
775.953	12.93
776.131	12.96
776.31	13.13
776.489	13.14
776.667	12.99
776.846	12.98
777.025	12.93
777.203	12.98
777.382	13
777.56	13.14
777.739	13.12
777.917	13.07
778.096	13.14
778.274	13.09
778.453	13.42
778.631	13.39
778.81	13.35
778.988	13.15
779.166	13.45
779.345	13.88
779.523	14.11
779.702	14.28
779.88	14.27
780.058	14.21
780.237	13.99
780.415	13.98
780.593	14.3
780.771	14.66
780.95	14.78
781.128	14.52
781.306	14.52
781.484	14.4
781.662	14.3
781.841	14.57
782.019	14.55
782.197	14.78
782.375	14.6
782.553	14.86
782.731	15.18
782.909	15.12
783.087	15.25
783.265	15.41
783.443	15.39
783.621	14.89
783.799	14.92
783.977	14.94
784.155	14.67
784.333	14.66
784.511	14.29
784.689	14.27
784.867	14.27
785.045	13.75
785.223	13.72
785.4	13.52
785.578	14.1
785.756	13.59
785.934	13.18
786.112	13.28
786.289	13.13
786.467	12.96
786.645	12.42
786.823	12.28
787	12.8
787.178	12.86
787.356	13.01
787.533	12.95
787.711	13.48
787.889	14.07
788.066	14.25
788.244	14.33
788.421	14.75
788.599	15.13
788.776	15.21
788.954	15.18
789.131	14.75
789.309	14.68
789.486	14.78
789.664	14.71
789.841	13.85
790.019	13.77
790.196	13.5
790.373	12.75
790.551	12.16
790.728	12.45
790.906	12.28
791.083	11.75
791.26	11.58
791.437	11.21
791.615	11.22
791.792	12.04
791.969	11.66
792.146	12.02
792.324	12.52
792.501	13.09
792.678	12.88
792.855	12.8
793.032	13.53
793.209	13.83
793.387	14.75
793.564	14.61
793.741	14.42
793.918	14.63
794.095	15.29
794.272	15.38
794.449	15.22
794.626	15.12
794.803	15.08
794.98	14.95
795.157	14.85
795.334	14.7
795.511	14.38
795.688	14.44
795.864	14.65
796.041	13.89
796.218	13.65
796.395	13.67
796.572	13.94
796.749	13.88
796.925	14.45
797.102	14.45
797.279	14.36
797.456	14.58
797.632	14.4
797.809	14.11
797.986	14.04
798.162	14.61
798.339	14.38
798.516	14.21
798.692	14.58
798.869	14.44
799.046	14.39
799.222	14.12
799.399	14.05
799.575	14.69
799.752	14.66
799.928	14.27
800.105	13.72
800.281	13.83
800.458	14.26
800.634	13.76
800.811	13.49
800.987	13.32
801.163	13.14
801.34	12.88
801.516	12.09
801.692	12.14
801.869	12.74
802.045	13.33
802.221	13.37
802.398	12.77
802.574	13.21
802.75	13.34
802.926	13.95
803.103	13.19
803.279	14.4
803.455	14.96
803.631	15.9
803.807	15.27
803.983	14.64
804.16	14.63
804.336	14.74
804.512	14.96
804.688	14.87
804.864	14.25
805.04	15.63
805.216	15.4
805.392	15.05
805.568	14.81
805.744	16.27
805.92	16.29
806.096	15.89
806.272	15.94
806.448	15.39
806.623	15.26
806.799	15.83
806.975	15.37
807.151	15.03
807.327	14.49
807.503	14.38
807.678	13.59
807.854	13.76
808.03	14.41
808.206	14.07
808.381	14.47
808.557	14.5
808.733	14.1
808.908	14.08
809.084	13.83
809.26	14.28
809.435	14.28
809.611	13.91
809.787	14.02
809.962	13.44
810.138	13.75
810.313	13.79
810.489	13.73
810.664	13.74
810.84	13.79
811.015	13.83
811.191	13.94
811.366	13.17
811.542	13.71
811.717	13.56
811.892	14.22
812.068	15.02
812.243	15.47
812.419	15.53
812.594	15.7
812.769	16.05
812.944	16.34
813.12	15.82
813.295	16.49
813.47	16.55
813.645	16.74
813.821	16.36
813.996	15.68
814.171	15.38
814.346	15.66
814.521	15.61
814.697	15.54
814.872	15.83
815.047	16.48
815.222	16.13
815.397	16.39
815.572	16.55
815.747	16.99
815.922	16.94
816.097	16.33
816.272	16.08
816.447	15.88
816.622	15.63
816.797	15.07
816.972	15.21
817.147	15.03
817.322	14.18
817.496	13.58
817.671	13.42
817.846	13.14
818.021	13.07
818.196	13.01
818.371	13.21
818.545	13.55
818.72	13.79
818.895	13.58
819.069	13.93
819.244	14.48
819.419	14.59
819.594	14.86
819.768	14.9
819.943	15.1
820.117	14.99
820.292	14.99
820.467	14.83
820.641	14.47
820.816	14.56
820.99	14.56
821.165	14.57
821.339	14.61
821.514	14.42
821.688	14.39
821.863	14.4
822.037	14.49
822.212	14.42
822.386	14.51
822.56	14.6
822.735	14.56
822.909	14.51
823.084	14.41
823.258	14.42
823.432	14.56
823.606	14.57
823.781	14.63
823.955	14.69
824.129	14.8
824.303	14.64
824.478	14.74
824.652	14.66
824.826	14.71
825	14.81
825.174	14.68
825.348	14.24
825.523	14.38
825.697	14
825.871	13.78
826.045	13.9
826.219	14.01
826.393	13.82
826.567	13.93
826.741	13.71
826.915	13.67
827.089	13.7
827.263	14.06
827.437	13.86
827.611	14.09
827.784	14.07
827.958	13.97
828.132	14.04
828.306	14.4
828.48	14.67
828.654	15.16
828.827	15.04
829.001	15.15
829.175	14.96
829.349	15.57
829.522	15.96
829.696	16.49
829.87	16.83
830.044	17.48
830.217	17.19
830.391	16.9
830.565	17.11
830.738	17.55
830.912	18.16
831.085	18.58
831.259	18.85
831.432	18.13
831.606	17.64
831.779	17.49
831.953	16.44
832.126	16.51
832.3	16.38
832.473	15.81
832.647	15.66
832.82	15.35
832.994	15.23
833.167	14.61
833.34	14.47
833.514	14.28
833.687	14.16
833.86	14.07
834.034	14.05
834.207	14.29
834.38	14.2
834.553	14.28
834.727	14.21
834.9	14.34
835.073	14.36
835.246	14.07
835.419	14.54
835.593	15.11
835.766	15.11
835.939	15.2
836.112	14.77
836.285	15.37
836.458	15.41
836.631	15.66
836.804	15.51
836.977	15.78
837.15	17.39
837.323	17.17
837.496	15.88
837.669	16.44
837.842	16.01
838.015	17.02
838.188	16.87
838.361	17.36
838.533	17.4
838.706	16.29
838.879	16.53
839.052	15.62
839.225	15.14
839.398	16.08
839.57	16.11
839.743	15.3
839.916	15.28
840.088	14.66
840.261	14.76
840.434	14.77
840.607	15.23
840.779	15.2
840.952	15.65
841.124	16.46
841.297	16.13
841.47	15.95
841.642	17.23
841.815	16.3
841.987	16.89
842.16	16.46
842.332	16.41
842.505	17.1
842.677	17.19
842.85	17.23
843.022	17.58
843.194	17.86
843.367	18.52
843.539	18.61
843.712	19.8
843.884	19.4
844.056	19.26
844.229	20.2
844.401	20.36
844.573	21.67
844.745	22.11
844.918	21.81
845.09	21.66
845.262	21.16
845.434	21.96
845.606	20.57
845.779	21.74
845.951	24.13
846.123	22.52
846.295	21.63
846.467	20.33
846.639	20.29
846.811	20.12
846.983	19.76
847.155	20.56
847.327	20.73
847.499	21.35
847.671	20.39
847.843	16.74
848.015	16.16
848.187	17.18
848.359	17.01
848.531	17.08
848.703	18.24
848.875	20.39
849.047	19.43
849.218	18.84
849.39	18.99
849.562	21.44
849.734	20.61
849.905	21.16
850.077	21.67
850.249	22.63
850.421	23.16
850.592	21.02
850.764	20.06
850.936	19.49
851.107	18.62
851.279	20.54
851.451	19.01
851.622	20.71
851.794	21.58
851.965	21.6
852.137	20.1
852.308	18.84
852.48	19.69
852.651	19.07
852.823	20.46
852.994	21.43
853.166	19.51
853.337	19.23
853.509	20.41
853.68	22.74
853.851	22.59
854.023	21.59
854.194	22.41
854.365	21.31
854.537	21.47
854.708	22.09
854.879	20.97
855.05	21.18
855.222	21.69
855.393	18.52
855.564	15.29
855.735	13.43
855.906	15.16
856.078	13.48
856.249	16.9
856.42	14.55
856.591	14.41
856.762	16.47
856.933	14.93
857.104	14.67
857.275	17.57
857.446	18.6
857.617	19.26
857.788	19.96
857.959	19.95
858.13	17.55
858.301	19.32
858.472	18.53
858.643	16.66
858.814	18.19
858.985	17.37
859.155	16.47
859.326	18.57
859.497	18.4
859.668	16.02
859.839	16.51
860.009	17.9
860.18	16.18
860.351	18.13
860.522	19.48
860.692	20.79
860.863	22.25
861.034	22.47
861.204	21.04
861.375	21.27
861.546	23.68
861.716	23.46
861.887	21.1
862.057	24.3
862.228	21.35
862.398	19.32
862.569	18.1
862.739	17.45
862.91	19.42
863.08	18.56
863.251	17.22
863.421	15.15
863.592	15.21
863.762	19.03
863.932	18.07
864.103	17.84
864.273	19.17
864.443	19.19
864.614	19.78
864.784	19.28
864.954	17.41
865.125	20.07
865.295	23.2
865.465	23.52
865.635	21.46
865.805	20.98
865.976	20.83
866.146	21.44
866.316	19.55
866.486	17.78
866.656	16.27
866.826	16.91
866.996	15.31
867.166	12.74
867.336	13.61
867.506	14.7
867.676	15.75
867.846	16.58
868.016	13.99
868.186	15.49
868.356	16.36
868.526	15.46
868.696	16.6
868.866	17.73
869.036	16.81
869.206	17.61
869.376	15.63
869.545	14.91
869.715	16.11
869.885	16.94
870.055	17.16
870.224	19.2
870.394	19.98
870.564	19.74
870.734	18.59
870.903	21.19
871.073	21.12
871.243	22.77
871.412	23.34
871.582	23.65
871.751	25.39
871.921	25
872.091	22.42
872.26	22.37
872.43	22.87
872.599	24.61
872.769	23.5
872.938	23.75
873.108	24.36
873.277	24.29
873.446	25.61
873.616	25.1
873.785	26.31
873.955	29.2
874.124	30.5
874.293	29.41
874.463	27.6
874.632	27.12
874.801	24.32
874.971	23.86
875.14	24.78
875.309	20.53
875.478	22.22
875.647	21.44
875.817	19.18
875.986	15.8
876.155	16.7
876.324	16.42
876.493	17.18
876.662	19.52
876.831	18.69
877	16.25
877.17	18.56
877.339	17.99
877.508	18.97
877.677	19.06
877.846	21.11
878.015	19.88
878.184	20.54
878.352	20.93
878.521	19.54
878.69	18.97
878.859	19.55
879.028	19.13
879.197	18.41
879.366	17.15
879.534	17.4
879.703	16.88
879.872	17.79
880.041	17.7
880.21	17.03
880.378	17.1
880.547	17.82
880.716	17.78
880.884	17.24
881.053	16.71
881.222	16.85
881.39	16.73
881.559	16.99
881.727	16.62
881.896	16.71
882.065	16.38
882.233	16.37
882.402	15.83
882.57	15.5
882.739	15.8
882.907	16.21
883.076	16.09
883.244	16.22
883.412	16.04
883.581	16.07
883.749	16
883.918	16.91
884.086	17.8
884.254	18.21
884.423	18.78
884.591	19.13
884.759	18.91
884.927	19.4
885.096	19.1
885.264	19.61
885.432	20.21
885.6	19.77
885.769	18.7
885.937	17.65
886.105	17.52
886.273	18.09
886.441	18.38
886.609	18.9
886.777	18
886.945	18.34
887.113	19.16
887.281	17.93
887.449	19.44
887.617	21.43
887.785	19.96
887.953	19.44
888.121	16.6
888.289	16.02
888.457	16.27
888.625	17.33
888.793	17.17
888.961	14.77
889.129	14.63
889.296	14.49
889.464	12.23
889.632	13.51
889.8	14.46
889.967	17.47
890.135	16.81
