Data from JASIL_2965_Reflection_1.txt Node
Date: Sat Nov 07 21:29:48 EST 2015
User: Geneva
Spectrometer: USB4E03002
Autoset integration time: false
Trigger mode: 4
Integration Time (sec): 1.000000E-1
Scans to average: 10
Electric dark correction enabled: true
Nonlinearity correction enabled: false
Boxcar width: 5
Stray light correction enabled: false
XAxis mode: Wavelengths
Stop averaging: false
Number of Pixels in Spectrum: 3648
>>>>>Begin Spectral Data<<<<<
177.575	7.32
177.794	-26.16
178.014	-35.91
178.233	-243.34
178.452	-66.54
178.672	118.87
178.891	90.33
179.11	99.46
179.33	148.98
179.549	124.46
179.768	73.61
179.987	13.52
180.207	-153.43
180.426	339.75
180.645	128.45
180.864	115.62
181.084	91.45
181.303	80.5
181.522	58.16
181.741	81.39
181.96	93.17
182.179	83.01
182.398	74.04
182.618	50.01
182.837	44.96
183.056	20.55
183.275	20.81
183.494	15.17
183.713	57.55
183.932	66.8
184.151	48.03
184.37	12.29
184.589	-5.29
184.808	-0.57
185.027	21.17
185.246	35.89
185.465	38.82
185.684	44.24
185.903	43.26
186.122	38.37
186.341	41.51
186.56	39.04
186.779	58.81
186.998	71.42
187.216	85.74
187.435	86.33
187.654	81.63
187.873	97.71
188.092	77.19
188.311	78.73
188.53	69.6
188.748	84.93
188.967	74.04
189.186	71.97
189.405	64.84
189.623	85.36
189.842	80.97
190.061	70.86
190.28	59.32
190.498	46.32
190.717	7.28
190.936	13.14
191.154	-78.91
191.373	1382.01
191.592	-356.04
191.81	-396.08
192.029	-163.83
192.248	-398.99
192.466	-184.88
192.685	-32.99
192.904	30.11
193.122	41.72
193.341	53.99
193.559	70.95
193.778	80.52
193.996	108.76
194.215	119.61
194.433	131.34
194.652	152.53
194.87	114.59
195.089	109.36
195.307	105.68
195.526	96.81
195.744	67.55
195.963	57.31
196.181	52.53
196.399	34.18
196.618	29.62
196.836	40.43
197.055	33.44
197.273	26.04
197.491	19.55
197.71	29.34
197.928	19.08
198.146	25.26
198.365	22.47
198.583	30.48
198.801	29.25
199.019	36.49
199.238	24.71
199.456	13.91
199.674	19.16
199.892	17.44
200.111	3.42
200.329	21.1
200.547	15.22
200.765	7.07
200.983	-21.47
201.202	-12.7
201.42	-14.64
201.638	-13.53
201.856	3.34
202.074	9.28
202.292	6.93
202.51	6.68
202.728	-7.61
202.946	-19.55
203.165	-9.73
203.383	11.73
203.601	13.86
203.819	2.14
204.037	-1.95
204.255	5.25
204.473	13.03
204.691	16.25
204.909	-4.59
205.127	16.06
205.345	34.7
205.562	33.7
205.78	28.79
205.998	40.51
206.216	46.91
206.434	56.4
206.652	37.24
206.87	34.62
207.088	24.95
207.306	29.95
207.523	36.13
207.741	20.17
207.959	26.97
208.177	26
208.395	2.84
208.612	-7.81
208.83	1.76
209.048	1.49
209.266	-12.77
209.483	-11.93
209.701	-4.31
209.919	-17.1
210.136	-7.58
210.354	18.13
210.572	28.88
210.79	31.75
211.007	38.89
211.225	40.66
211.442	53.45
211.66	57.02
211.878	55.22
212.095	104.32
212.313	100.55
212.53	101.32
212.748	96.35
212.966	113.96
213.183	118.94
213.401	105.54
213.618	103.28
213.836	100.26
214.053	99.47
214.271	91.35
214.488	29.34
214.705	20.71
214.923	14
215.14	9.36
215.358	6.92
215.575	5.29
215.793	13
216.01	10.81
216.227	8.41
216.445	4.27
216.662	8.1
216.879	9.42
217.097	8.7
217.314	6.39
217.531	10.38
217.749	2.87
217.966	11.16
218.183	-1.19
218.4	-5.17
218.618	-9.45
218.835	1.95
219.052	-0.5
219.269	0.19
219.487	5.57
219.704	5.22
219.921	3.87
220.138	8.24
220.355	7
220.572	8.01
220.79	3.17
221.007	12.74
221.224	12.08
221.441	13.72
221.658	18.97
221.875	20.06
222.092	22.96
222.309	22.72
222.526	20.3
222.743	17.04
222.96	16.44
223.177	16.41
223.394	11.49
223.611	9.15
223.828	7.82
224.045	3.36
224.262	4.75
224.479	5.69
224.696	6.3
224.913	9.59
225.13	10.66
225.347	13.97
225.564	14.79
225.781	13.9
225.997	12.4
226.214	12.27
226.431	12.25
226.648	9.9
226.865	9.96
227.082	10.33
227.298	9.53
227.515	8.51
227.732	7.29
227.949	7.63
228.165	7.28
228.382	6.71
228.599	6.39
228.816	6.3
229.032	6.31
229.249	5.96
229.466	5.48
229.682	4.97
229.899	5.76
230.116	6.07
230.332	6.56
230.549	7.91
230.765	9.57
230.982	10.22
231.199	10.34
231.415	10.95
231.632	10.41
231.848	9.91
232.065	11.18
232.281	10.74
232.498	11.38
232.714	10.56
232.931	9.57
233.147	10.63
233.364	11.15
233.58	10.97
233.797	11.24
234.013	12.47
234.23	12.36
234.446	11.28
234.662	10.73
234.879	10.98
235.095	10.55
235.312	11.34
235.528	10.43
235.744	8.93
235.961	9.43
236.177	8.87
236.393	6.84
236.61	6.03
236.826	6.38
237.042	6.74
237.258	6.53
237.475	6.65
237.691	5.99
237.907	5.19
238.123	5.74
238.339	5.26
238.556	5.51
238.772	6.1
238.988	6.66
239.204	5.85
239.42	6.35
239.636	6.37
239.853	6.73
240.069	6.58
240.285	6.97
240.501	6.94
240.717	7.14
240.933	7.41
241.149	7.68
241.365	8.31
241.581	8.86
241.797	8.51
242.013	8.6
242.229	8.54
242.445	8.61
242.661	8.37
242.877	8.75
243.093	8.99
243.309	8.69
243.525	8.64
243.741	8.17
243.957	8.41
244.173	8.88
244.388	8.44
244.604	8.45
244.82	8.92
245.036	8.99
245.252	8.7
245.468	8.57
245.683	8.81
245.899	8.84
246.115	8.72
246.331	8.61
246.547	8.42
246.762	8.38
246.978	8.41
247.194	8.09
247.409	8.08
247.625	7.73
247.841	7.32
248.057	7.19
248.272	6.92
248.488	6.72
248.703	6.21
248.919	6.37
249.135	6.47
249.35	6.03
249.566	6.07
249.782	5.7
249.997	6.53
250.213	6.71
250.428	6.83
250.644	6.98
250.859	7.28
251.075	7.32
251.29	6.57
251.506	6.5
251.721	6.41
251.937	6.42
252.152	6.84
252.368	6.66
252.583	6.76
252.798	6.21
253.014	6.18
253.229	5.92
253.445	5.19
253.66	5.53
253.875	5.07
254.091	4.73
254.306	5.04
254.521	4.26
254.737	4.16
254.952	3.56
255.167	3.37
255.383	3.91
255.598	4.03
255.813	5.06
256.028	4.92
256.244	5.29
256.459	5.75
256.674	5.26
256.889	5.36
257.104	5.34
257.32	5.88
257.535	6.08
257.75	5.84
257.965	5.86
258.18	5.92
258.395	6
258.61	5.84
258.826	5.8
259.041	5.79
259.256	5.8
259.471	5.77
259.686	5.76
259.901	5.77
260.116	5.74
260.331	5.63
260.546	5.51
260.761	5.63
260.976	5.76
261.191	5.6
261.406	5.53
261.621	5.68
261.836	5.43
262.05	5.12
262.265	4.91
262.48	4.93
262.695	5.1
262.91	5.35
263.125	5.01
263.34	5.09
263.555	5.44
263.769	5.18
263.984	4.89
264.199	5.33
264.414	5.52
264.629	5.5
264.843	5.17
265.058	5.05
265.273	5.08
265.488	4.99
265.702	4.96
265.917	5.04
266.132	5.56
266.346	5.92
266.561	6
266.776	5.79
266.99	6.04
267.205	6.51
267.42	6.36
267.634	6.14
267.849	6.07
268.063	5.83
268.278	5.47
268.492	5.41
268.707	5.25
268.922	5.15
269.136	5.25
269.351	5.18
269.565	4.98
269.78	5.15
269.994	4.88
270.209	5.06
270.423	5.25
270.637	5.64
270.852	5.6
271.066	5.32
271.281	5.12
271.495	5.13
271.709	4.88
271.924	4.78
272.138	4.46
272.353	4.62
272.567	4.41
272.781	4.36
272.996	4.12
273.21	3.94
273.424	4.26
273.638	4.39
273.853	4.44
274.067	4.44
274.281	4.58
274.495	4.61
274.71	4.64
274.924	4.78
275.138	4.72
275.352	4.69
275.566	4.96
275.781	4.65
275.995	4.79
276.209	4.78
276.423	4.59
276.637	4.27
276.851	4.36
277.065	4.33
277.279	4.28
277.493	4.4
277.707	4.47
277.921	4.29
278.135	4.42
278.349	4.08
278.563	3.91
278.777	4
278.991	4.13
279.205	4.67
279.419	4.84
279.633	5.13
279.847	5.17
280.061	5.15
280.275	5.06
280.489	5.14
280.703	5.22
280.917	5.29
281.131	5.41
281.344	5.38
281.558	4.89
281.772	4.87
281.986	4.51
282.2	4.5
282.414	4.67
282.627	4.83
282.841	4.89
283.055	4.87
283.269	4.83
283.482	4.99
283.696	5.04
283.91	5.38
284.123	5.28
284.337	5.39
284.551	5.33
284.764	5.16
284.978	5.2
285.192	5.05
285.405	5.17
285.619	5.35
285.833	5.09
286.046	5.16
286.26	4.97
286.473	4.84
286.687	4.86
286.9	4.99
287.114	4.95
287.327	4.98
287.541	5.11
287.754	5.01
287.968	4.81
288.181	5.15
288.395	5.21
288.608	5.17
288.822	5.2
289.035	5.43
289.248	5.15
289.462	5.32
289.675	5.19
289.889	5.11
290.102	5.18
290.315	5.26
290.529	5.06
290.742	4.98
290.955	5.26
291.169	5.47
291.382	5.3
291.595	5.53
291.808	5.41
292.022	5.7
292.235	5.8
292.448	6.04
292.661	5.96
292.875	6.17
293.088	6
293.301	5.81
293.514	5.71
293.727	5.73
293.94	5.75
294.153	5.8
294.367	5.51
294.58	5.4
294.793	5.19
295.006	5.24
295.219	5.36
295.432	5.58
295.645	5.84
295.858	5.76
296.071	5.88
296.284	5.89
296.497	5.97
296.71	6.15
296.923	6.32
297.136	6.41
297.349	6.57
297.562	6.33
297.775	6.26
297.988	6.11
298.201	6.2
298.414	6.26
298.626	6.22
298.839	6.32
299.052	6.37
299.265	6.2
299.478	6.25
299.691	6.1
299.903	6.38
300.116	6.54
300.329	6.55
300.542	6.7
300.755	6.58
300.967	6.72
301.18	6.63
301.393	6.31
301.605	6.33
301.818	6.15
302.031	6.44
302.243	6.34
302.456	6.46
302.669	6.45
302.881	6.37
303.094	6.36
303.307	6.48
303.519	6.67
303.732	7.17
303.944	7.36
304.157	7.55
304.37	7.55
304.582	7.71
304.795	7.35
305.007	7.44
305.22	7.72
305.432	7.68
305.645	7.56
305.857	7.33
306.069	7.19
306.282	6.92
306.494	7.06
306.707	7.05
306.919	7.07
307.132	7.21
307.344	7.04
307.556	6.94
307.769	7.05
307.981	7.16
308.193	7.42
308.406	7.17
308.618	7.51
308.83	7.45
309.043	7.4
309.255	7.45
309.467	7.55
309.679	7.68
309.892	7.69
310.104	7.74
310.316	7.58
310.528	7.58
310.74	7.69
310.953	7.72
311.165	7.73
311.377	7.58
311.589	7.48
311.801	7.47
312.013	7.48
312.225	7.47
312.437	7.58
312.649	7.69
312.862	7.5
313.074	7.6
313.286	7.52
313.498	7.56
313.71	7.79
313.922	7.8
314.134	7.77
314.346	7.84
314.558	7.87
314.77	7.55
314.982	7.56
315.193	7.69
315.405	7.49
315.617	7.37
315.829	7.37
316.041	7.48
316.253	7.3
316.465	7.5
316.677	7.39
316.888	7.54
317.1	7.78
317.312	7.94
317.524	7.9
317.736	8.24
317.947	8.17
318.159	8.43
318.371	8.22
318.583	8.59
318.794	8.59
319.006	8.84
319.218	8.58
319.43	8.64
319.641	8.61
319.853	8.57
320.064	8.43
320.276	8.78
320.488	8.59
320.699	8.89
320.911	8.92
321.123	9.17
321.334	9.21
321.546	9.31
321.757	9.41
321.969	9.42
322.18	9.64
322.392	9.47
322.603	9.27
322.815	9.17
323.026	9.1
323.238	9.1
323.449	9.07
323.661	9.09
323.872	9.33
324.083	9.22
324.295	9.29
324.506	9.17
324.718	9.36
324.929	9.61
325.14	9.9
325.352	10.11
325.563	10.26
325.774	10.26
325.986	10.43
326.197	10.51
326.408	10.8
326.62	10.95
326.831	11.38
327.042	11.56
327.253	11.8
327.464	11.92
327.676	11.79
327.887	11.99
328.098	11.96
328.309	11.78
328.52	11.95
328.732	12.1
328.943	12.3
329.154	12.33
329.365	12.26
329.576	12.3
329.787	12.16
329.998	12.5
330.209	12.46
330.42	12.76
330.631	13
330.842	12.99
331.053	13.05
331.264	12.96
331.475	12.9
331.686	13.26
331.897	13.36
332.108	13.55
332.319	13.72
332.53	13.86
332.741	13.81
332.952	13.84
333.163	13.86
333.374	13.95
333.585	13.82
333.795	13.97
334.006	13.79
334.217	13.62
334.428	13.73
334.639	13.42
334.849	13.39
335.06	13.43
335.271	13.5
335.482	13.53
335.692	13.44
335.903	13.65
336.114	13.59
336.325	13.64
336.535	13.85
336.746	13.72
336.957	13.84
337.167	13.99
337.378	14.06
337.589	13.99
337.799	14.24
338.01	14.19
338.22	14.11
338.431	13.97
338.642	13.95
338.852	13.61
339.063	13.66
339.273	13.77
339.484	13.72
339.694	13.7
339.905	13.81
340.115	13.46
340.326	13.35
340.536	13.48
340.746	13.68
340.957	13.63
341.167	13.79
341.378	13.64
341.588	13.7
341.799	13.46
342.009	13.33
342.219	13.28
342.43	13.47
342.64	13.43
342.85	13.3
343.061	13.23
343.271	13.36
343.481	13.4
343.691	13.31
343.902	13.02
344.112	12.84
344.322	12.88
344.532	12.87
344.743	12.81
344.953	12.69
345.163	12.72
345.373	12.66
345.583	12.64
345.793	12.46
346.004	12.63
346.214	12.76
346.424	13.06
346.634	13.17
346.844	13.26
347.054	13.23
347.264	13.41
347.474	13.26
347.684	13.08
347.894	13.14
348.104	13.22
348.314	13.11
348.524	13.21
348.734	13.15
348.944	13.01
349.154	12.81
349.364	12.65
349.574	12.58
349.784	12.62
349.994	12.86
350.204	12.65
350.413	12.57
350.623	12.64
350.833	12.38
351.043	12.27
351.253	12.39
351.463	12.39
351.672	12.47
351.882	12.49
352.092	12.44
352.302	12.28
352.511	12.3
352.721	12.46
352.931	12.42
353.141	12.4
353.35	12.44
353.56	12.24
353.77	12.37
353.979	12.39
354.189	12.4
354.399	12.57
354.608	12.62
354.818	12.77
355.027	12.73
355.237	12.58
355.447	12.63
355.656	12.68
355.866	12.79
356.075	12.72
356.285	12.58
356.494	12.59
356.704	12.37
356.913	12.33
357.123	12.12
357.332	11.99
357.542	12.09
357.751	12.14
357.96	11.98
358.17	11.93
358.379	11.87
358.589	11.87
358.798	11.92
359.007	12.01
359.217	11.81
359.426	11.88
359.635	11.83
359.845	11.8
360.054	11.7
360.263	11.79
360.472	11.77
360.682	11.73
360.891	11.75
361.1	11.67
361.309	11.61
361.519	11.73
361.728	11.73
361.937	11.81
362.146	11.83
362.355	11.9
362.564	11.85
362.774	11.89
362.983	11.78
363.192	11.73
363.401	11.7
363.61	11.7
363.819	11.74
364.028	11.78
364.237	11.68
364.446	11.78
364.655	11.71
364.864	11.7
365.073	11.67
365.282	11.71
365.491	11.76
365.7	11.72
365.909	11.71
366.118	11.67
366.327	11.6
366.536	11.63
366.745	11.47
366.954	11.43
367.162	11.44
367.371	11.28
367.58	11.32
367.789	11.13
367.998	11.15
368.207	11.22
368.415	11.3
368.624	11.23
368.833	11.2
369.042	11.17
369.25	11.19
369.459	11.13
369.668	11.09
369.877	11.13
370.085	11.26
370.294	11.15
370.503	11.08
370.711	10.98
370.92	10.93
371.129	10.92
371.337	10.89
371.546	10.66
371.754	10.64
371.963	10.77
372.171	10.59
372.38	10.48
372.589	10.6
372.797	10.59
373.006	10.5
373.214	10.45
373.423	10.38
373.631	10.38
373.84	10.58
374.048	10.56
374.256	10.5
374.465	10.49
374.673	10.52
374.882	10.4
375.09	10.32
375.298	10.39
375.507	10.37
375.715	10.41
375.923	10.29
376.132	10.22
376.34	10.16
376.548	10.09
376.757	10.15
376.965	10.23
377.173	10.23
377.381	10.2
377.59	10.06
377.798	10.07
378.006	10
378.214	10.08
378.423	10.07
378.631	10.12
378.839	10.1
379.047	10.13
379.255	9.96
379.463	9.85
379.671	9.78
379.879	9.74
380.088	9.73
380.296	9.83
380.504	9.92
380.712	9.93
380.92	9.92
381.128	9.9
381.336	9.83
381.544	9.83
381.752	9.85
381.96	9.94
382.168	10.03
382.376	10.08
382.584	10.05
382.791	9.96
382.999	9.93
383.207	9.91
383.415	9.84
383.623	9.91
383.831	9.87
384.039	9.95
384.247	9.9
384.454	9.93
384.662	9.9
384.87	9.87
385.078	9.84
385.285	9.89
385.493	9.87
385.701	9.99
385.909	9.9
386.116	9.95
386.324	9.91
386.532	9.9
386.739	9.84
386.947	9.67
387.155	9.56
387.362	9.54
387.57	9.55
387.778	9.49
387.985	9.37
388.193	9.35
388.4	9.45
388.608	9.35
388.816	9.3
389.023	9.3
389.231	9.33
389.438	9.32
389.646	9.23
389.853	9.21
390.061	9.15
390.268	9.25
390.475	9.19
390.683	9.08
390.89	9.09
391.098	9.1
391.305	8.99
391.512	9.03
391.72	9.02
391.927	9.05
392.135	8.95
392.342	9
392.549	8.86
392.756	8.89
392.964	8.83
393.171	8.85
393.378	8.86
393.586	8.98
393.793	9.02
394	8.92
394.207	8.97
394.414	9
394.622	9.01
394.829	8.91
395.036	8.85
395.243	8.89
395.45	8.8
395.657	8.78
395.864	8.67
396.072	8.71
396.279	8.82
396.486	8.74
396.693	8.71
396.9	8.72
397.107	8.8
397.314	8.82
397.521	8.75
397.728	8.81
397.935	8.71
398.142	8.72
398.349	8.6
398.556	8.62
398.763	8.61
398.97	8.59
399.177	8.58
399.383	8.72
399.59	8.66
399.797	8.7
400.004	8.71
400.211	8.75
400.418	8.69
400.625	8.66
400.831	8.59
401.038	8.63
401.245	8.54
401.452	8.49
401.658	8.37
401.865	8.54
402.072	8.59
402.279	8.54
402.485	8.51
402.692	8.51
402.899	8.57
403.105	8.65
403.312	8.64
403.519	8.64
403.725	8.67
403.932	8.69
404.138	8.59
404.345	8.49
404.552	8.56
404.758	8.65
404.965	8.63
405.171	8.58
405.378	8.46
405.584	8.46
405.791	8.49
405.997	8.47
406.204	8.47
406.41	8.46
406.617	8.46
406.823	8.4
407.029	8.38
407.236	8.48
407.442	8.45
407.649	8.68
407.855	8.7
408.061	8.67
408.268	8.7
408.474	8.6
408.68	8.59
408.887	8.59
409.093	8.58
409.299	8.55
409.505	8.45
409.712	8.49
409.918	8.31
410.124	8.29
410.33	8.27
410.537	8.2
410.743	8.25
410.949	8.3
411.155	8.29
411.361	8.31
411.567	8.28
411.773	8.28
411.98	8.28
412.186	8.3
412.392	8.15
412.598	8.28
412.804	8.27
413.01	8.28
413.216	8.2
413.422	8.22
413.628	8.24
413.834	8.27
414.04	8.28
414.246	8.26
414.452	8.22
414.658	8.39
414.864	8.32
415.07	8.33
415.275	8.31
415.481	8.31
415.687	8.25
415.893	8.22
416.099	8.17
416.305	8.22
416.511	8.22
416.716	8.21
416.922	8.14
417.128	8.12
417.334	8.17
417.539	8.12
417.745	8.15
417.951	8.2
418.157	8.25
418.362	8.3
418.568	8.25
418.774	8.23
418.979	8.24
419.185	8.22
419.391	8.22
419.596	8.2
419.802	8.22
420.008	8.2
420.213	8.5
420.419	8.41
420.624	8.39
420.83	8.37
421.035	8.38
421.241	8.38
421.446	8.44
421.652	8.43
421.857	8.39
422.063	8.38
422.268	8.38
422.474	8.11
422.679	8.14
422.885	8.15
423.09	8.2
423.295	8.18
423.501	8.17
423.706	8.11
423.911	8.14
424.117	8.18
424.322	8.21
424.527	8.22
424.733	8.17
424.938	8.18
425.143	8.16
425.349	8.16
425.554	8.16
425.759	8.19
425.964	8.21
426.169	8.21
426.375	8.17
426.58	8.1
426.785	8.08
426.99	8.07
427.195	8.04
427.4	8.02
427.605	7.94
427.811	7.94
428.016	7.96
428.221	7.91
428.426	7.9
428.631	7.87
428.836	7.94
429.041	7.96
429.246	8.03
429.451	8.06
429.656	8.09
429.861	8.17
430.066	8.18
430.271	8.15
430.476	8.18
430.681	8.19
430.886	8.23
431.09	8.29
431.295	8.27
431.5	8.25
431.705	8.24
431.91	8.23
432.115	8.21
432.32	8.22
432.524	8.2
432.729	8.14
432.934	8.09
433.139	8.09
433.343	8.09
433.548	8.09
433.753	8.1
433.958	8.07
434.162	8.06
434.367	8.05
434.572	8.01
434.776	8.05
434.981	8.12
435.186	8.11
435.39	8.14
435.595	8.1
435.799	8.13
436.004	8.14
436.209	8.19
436.413	8.23
436.618	8.2
436.822	8.25
437.027	8.19
437.231	8.15
437.436	8.17
437.64	8.17
437.845	8.14
438.049	8.09
438.253	8.03
438.458	7.99
438.662	7.98
438.867	7.98
439.071	7.97
439.275	8.03
439.48	8.04
439.684	8.05
439.888	8.02
440.093	8.04
440.297	8.06
440.501	8.08
440.706	8.1
440.91	8.13
441.114	8.12
441.318	8.07
441.523	8.04
441.727	8.08
441.931	8.1
442.135	8.1
442.339	8.09
442.543	8.09
442.748	8.08
442.952	8.09
443.156	8.01
443.36	8.07
443.564	8.13
443.768	8.09
443.972	8.07
444.176	8
444.38	8.02
444.584	8
444.788	8.03
444.992	8.03
445.196	8
445.4	8.04
445.604	7.99
445.808	7.96
446.012	7.97
446.216	7.98
446.42	7.98
446.624	7.95
446.828	7.96
447.032	7.94
447.235	7.92
447.439	7.94
447.643	7.92
447.847	7.93
448.051	7.92
448.254	7.92
448.458	7.89
448.662	7.95
448.866	7.94
449.069	7.93
449.273	8.01
449.477	8.02
449.681	8.02
449.884	8.05
450.088	8.05
450.292	8.16
450.495	8.2
450.699	8.28
450.902	8.22
451.106	8.23
451.31	8.22
451.513	8.14
451.717	8.09
451.92	8.11
452.124	8.05
452.327	8.1
452.531	8.02
452.734	7.99
452.938	7.94
453.141	7.99
453.345	8.02
453.548	8.01
453.752	8.03
453.955	8.06
454.158	7.98
454.362	7.97
454.565	7.91
454.769	7.91
454.972	7.89
455.175	7.88
455.379	7.83
455.582	7.76
455.785	7.79
455.988	7.76
456.192	7.72
456.395	7.72
456.598	7.78
456.801	7.77
457.005	7.76
457.208	7.79
457.411	7.79
457.614	7.82
457.817	7.83
458.021	7.79
458.224	7.8
458.427	7.88
458.63	7.95
458.833	7.92
459.036	7.97
459.239	7.94
459.442	7.91
459.645	7.93
459.848	7.93
460.051	7.92
460.254	7.93
460.457	7.95
460.66	7.92
460.863	7.89
461.066	7.91
461.269	7.92
461.472	7.97
461.675	8
461.878	7.98
462.081	7.98
462.284	8.04
462.486	8.09
462.689	8.05
462.892	8.06
463.095	8.05
463.298	8.02
463.5	7.97
463.703	7.97
463.906	7.97
464.109	7.95
464.311	7.97
464.514	7.98
464.717	7.97
464.92	7.98
465.122	8
465.325	8.08
465.528	8.12
465.73	8.09
465.933	8.11
466.135	8.13
466.338	8.16
466.541	8.11
466.743	8.1
466.946	8.08
467.148	8.1
467.351	8.08
467.553	8
467.756	8.03
467.958	8.09
468.161	8.06
468.363	8.01
468.566	7.93
468.768	7.91
468.971	7.94
469.173	7.91
469.375	7.9
469.578	7.93
469.78	7.96
469.983	7.95
470.185	7.93
470.387	7.93
470.59	7.94
470.792	8.02
470.994	8.07
471.196	8.09
471.399	8.14
471.601	8.13
471.803	8.11
472.005	8.11
472.208	8.06
472.41	8.05
472.612	8.08
472.814	8.08
473.016	8.1
473.218	8.08
473.421	8.05
473.623	8.02
473.825	8.03
474.027	8.03
474.229	8.01
474.431	8.06
474.633	8.06
474.835	8.02
475.037	8
475.239	8.03
475.441	8.06
475.643	8
475.845	8.06
476.047	8.06
476.249	8.07
476.451	8.08
476.653	8.02
476.855	8.03
477.057	8.04
477.258	8.07
477.46	8.03
477.662	8.03
477.864	8.06
478.066	7.96
478.268	7.97
478.469	7.97
478.671	7.94
478.873	7.92
479.075	7.94
479.276	7.94
479.478	7.9
479.68	7.87
479.882	7.87
480.083	7.9
480.285	7.93
480.487	7.92
480.688	7.89
480.89	7.92
481.091	7.95
481.293	7.94
481.495	7.92
481.696	7.93
481.898	7.96
482.099	7.95
482.301	7.96
482.502	7.96
482.704	7.97
482.905	7.97
483.107	7.95
483.308	7.94
483.51	7.94
483.711	7.95
483.913	7.96
484.114	7.94
484.315	7.94
484.517	7.92
484.718	7.92
484.92	7.91
485.121	7.9
485.322	7.93
485.524	7.95
485.725	7.95
485.926	7.96
486.127	7.97
486.329	7.98
486.53	8
486.731	8.02
486.932	8.02
487.134	8.01
487.335	8.02
487.536	8
487.737	8
487.938	8.02
488.139	8.02
488.341	8.01
488.542	8.01
488.743	7.98
488.944	7.98
489.145	7.99
489.346	7.99
489.547	8
489.748	8.01
489.949	8.03
490.15	8.01
490.351	8
490.552	8
490.753	8
490.954	8.01
491.155	8
491.356	8
491.557	8
491.758	8
491.959	8
492.159	7.98
492.36	8
492.561	7.99
492.762	7.98
492.963	8.01
493.164	8
493.364	8
493.565	8.01
493.766	8.05
493.967	8.07
494.167	8.07
494.368	8.11
494.569	8.1
494.769	8.11
494.97	8.12
495.171	8.1
495.371	8.12
495.572	8.16
495.773	8.18
495.973	8.16
496.174	8.17
496.375	8.18
496.575	8.18
496.776	8.2
496.976	8.23
497.177	8.27
497.377	8.3
497.578	8.34
497.778	8.32
497.979	8.32
498.179	8.37
498.38	8.36
498.58	8.37
498.78	8.39
498.981	8.4
499.181	8.39
499.382	8.36
499.582	8.41
499.782	8.42
499.983	8.46
500.183	8.46
500.383	8.43
500.584	8.44
500.784	8.46
500.984	8.44
501.184	8.45
501.385	8.49
501.585	8.54
501.785	8.52
501.985	8.53
502.185	8.58
502.386	8.63
502.586	8.71
502.786	8.76
502.986	8.78
503.186	8.83
503.386	8.89
503.586	8.92
503.786	8.89
503.987	8.93
504.187	8.92
504.387	8.91
504.587	8.93
504.787	8.92
504.987	8.94
505.187	8.97
505.387	8.96
505.587	8.94
505.786	8.96
505.986	8.99
506.186	9
506.386	9.03
506.586	9.06
506.786	9.08
506.986	9.09
507.186	9.11
507.386	9.14
507.585	9.17
507.785	9.2
507.985	9.23
508.185	9.28
508.384	9.34
508.584	9.36
508.784	9.38
508.984	9.42
509.183	9.49
509.383	9.52
509.583	9.55
509.782	9.59
509.982	9.63
510.182	9.66
510.381	9.69
510.581	9.72
510.781	9.73
510.98	9.77
511.18	9.78
511.379	9.8
511.579	9.84
511.778	9.86
511.978	9.87
512.177	9.87
512.377	9.93
512.576	9.91
512.776	9.95
512.975	10.01
513.175	10.04
513.374	10.05
513.573	10.1
513.773	10.14
513.972	10.2
514.172	10.25
514.371	10.34
514.57	10.33
514.77	10.4
514.969	10.39
515.168	10.44
515.367	10.5
515.567	10.58
515.766	10.6
515.965	10.64
516.164	10.69
516.364	10.69
516.563	10.72
516.762	10.77
516.961	10.81
517.16	10.9
517.359	10.93
517.559	10.92
517.758	10.94
517.957	11
518.156	11.02
518.355	11.02
518.554	11.1
518.753	11.11
518.952	11.12
519.151	11.14
519.35	11.14
519.549	11.18
519.748	11.23
519.947	11.26
520.146	11.28
520.345	11.26
520.544	11.32
520.743	11.36
520.942	11.41
521.141	11.43
521.339	11.46
521.538	11.46
521.737	11.53
521.936	11.56
522.135	11.57
522.333	11.61
522.532	11.69
522.731	11.74
522.93	11.76
523.129	11.81
523.327	11.84
523.526	11.89
523.725	11.97
523.923	12
524.122	12.04
524.321	12.09
524.519	12.1
524.718	12.11
524.917	12.14
525.115	12.18
525.314	12.21
525.512	12.27
525.711	12.3
525.909	12.31
526.108	12.32
526.306	12.34
526.505	12.35
526.703	12.39
526.902	12.45
527.1	12.47
527.299	12.51
527.497	12.53
527.696	12.55
527.894	12.57
528.092	12.59
528.291	12.62
528.489	12.66
528.688	12.7
528.886	12.74
529.084	12.75
529.283	12.79
529.481	12.81
529.679	12.84
529.877	12.87
530.076	12.89
530.274	12.96
530.472	13.01
530.67	13.03
530.869	13.09
531.067	13.1
531.265	13.17
531.463	13.2
531.661	13.22
531.859	13.25
532.057	13.34
532.255	13.38
532.454	13.4
532.652	13.44
532.85	13.46
533.048	13.48
533.246	13.51
533.444	13.52
533.642	13.55
533.84	13.58
534.038	13.61
534.236	13.64
534.434	13.7
534.632	13.72
534.83	13.75
535.027	13.81
535.225	13.85
535.423	13.91
535.621	13.92
535.819	13.98
536.017	14.02
536.215	14.05
536.412	14.06
536.61	14.08
536.808	14.14
537.006	14.15
537.203	14.2
537.401	14.21
537.599	14.22
537.797	14.26
537.994	14.25
538.192	14.31
538.39	14.38
538.587	14.37
538.785	14.35
538.983	14.37
539.18	14.44
539.378	14.44
539.575	14.49
539.773	14.54
539.97	14.59
540.168	14.62
540.366	14.63
540.563	14.64
540.761	14.67
540.958	14.74
541.155	14.77
541.353	14.78
541.55	14.83
541.748	14.85
541.945	14.89
542.143	14.91
542.34	14.93
542.537	14.97
542.735	15.01
542.932	15.06
543.129	15.1
543.327	15.16
543.524	15.21
543.721	15.26
543.919	15.28
544.116	15.3
544.313	15.36
544.51	15.41
544.708	15.46
544.905	15.5
545.102	15.51
545.299	15.54
545.496	15.55
545.693	15.58
545.891	15.57
546.088	15.63
546.285	15.65
546.482	15.65
546.679	15.68
546.876	15.7
547.073	15.7
547.27	15.78
547.467	15.82
547.664	15.82
547.861	15.86
548.058	15.91
548.255	15.98
548.452	16
548.649	16.02
548.846	16.05
549.043	16.06
549.24	16.15
549.437	16.15
549.633	16.18
549.83	16.25
550.027	16.27
550.224	16.29
550.421	16.31
550.618	16.35
550.814	16.43
551.011	16.47
551.208	16.57
551.405	16.56
551.601	16.6
551.798	16.61
551.995	16.64
552.191	16.66
552.388	16.64
552.585	16.64
552.781	16.69
552.978	16.7
553.175	16.68
553.371	16.66
553.568	16.69
553.764	16.71
553.961	16.78
554.157	16.77
554.354	16.78
554.55	16.9
554.747	16.89
554.943	16.92
555.14	16.93
555.336	16.96
555.533	17.01
555.729	17.04
555.926	17.09
556.122	17.07
556.318	17.13
556.515	17.15
556.711	17.12
556.907	17.15
557.104	17.2
557.3	17.25
557.496	17.32
557.693	17.34
557.889	17.37
558.085	17.41
558.281	17.45
558.478	17.46
558.674	17.52
558.87	17.57
559.066	17.64
559.262	17.61
559.459	17.57
559.655	17.53
559.851	17.5
560.047	17.52
560.243	17.54
560.439	17.49
560.635	17.51
560.831	17.49
561.027	17.5
561.223	17.53
561.419	17.59
561.615	17.67
561.811	17.73
562.007	17.82
562.203	17.81
562.399	17.81
562.595	17.88
562.791	17.91
562.987	17.93
563.183	17.96
563.379	18
563.575	18.01
563.771	18.03
563.966	18.09
564.162	18.04
564.358	18.12
564.554	18.15
564.75	18.19
564.945	18.23
565.141	18.25
565.337	18.29
565.533	18.3
565.728	18.37
565.924	18.39
566.12	18.38
566.315	18.43
566.511	18.45
566.707	18.48
566.902	18.49
567.098	18.49
567.293	18.5
567.489	18.54
567.684	18.52
567.88	18.44
568.076	18.45
568.271	18.53
568.467	18.56
568.662	18.54
568.858	18.53
569.053	18.58
569.248	18.61
569.444	18.67
569.639	18.65
569.835	18.67
570.03	18.76
570.225	18.72
570.421	18.66
570.616	18.72
570.812	18.74
571.007	18.75
571.202	18.73
571.397	18.76
571.593	18.76
571.788	18.77
571.983	18.8
572.178	18.78
572.374	18.88
572.569	18.91
572.764	18.85
572.959	18.85
573.154	18.85
573.35	18.86
573.545	18.85
573.74	18.79
573.935	18.79
574.13	18.82
574.325	18.85
574.52	18.82
574.715	18.82
574.91	18.85
575.105	18.88
575.3	18.95
575.495	19.01
575.69	18.98
575.885	19.08
576.08	19.13
576.275	19.11
576.47	19.15
576.665	19.15
576.86	19.17
577.055	19.24
577.25	19.27
577.444	19.32
577.639	19.32
577.834	19.42
578.029	19.44
578.224	19.42
578.418	19.43
578.613	19.38
578.808	19.45
579.003	19.48
579.197	19.52
579.392	19.46
579.587	19.4
579.781	19.4
579.976	19.36
580.171	19.35
580.365	19.42
580.56	19.45
580.755	19.51
580.949	19.54
581.144	19.55
581.338	19.5
581.533	19.52
581.727	19.57
581.922	19.6
582.116	19.63
582.311	19.66
582.505	19.64
582.7	19.65
582.894	19.66
583.089	19.66
583.283	19.62
583.478	19.65
583.672	19.71
583.866	19.7
584.061	19.7
584.255	19.73
584.449	19.7
584.644	19.69
584.838	19.67
585.032	19.67
585.226	19.62
585.421	19.67
585.615	19.63
585.809	19.61
586.003	19.56
586.198	19.59
586.392	19.57
586.586	19.64
586.78	19.72
586.974	19.79
587.168	19.85
587.363	19.81
587.557	19.86
587.751	19.92
587.945	19.94
588.139	19.98
588.333	19.95
588.527	20.04
588.721	20.03
588.915	19.99
589.109	19.97
589.303	19.87
589.497	19.92
589.691	19.88
589.885	19.89
590.079	19.9
590.273	19.92
590.466	19.97
590.66	19.95
590.854	19.92
591.048	19.92
591.242	19.91
591.436	19.99
591.629	20.02
591.823	20.02
592.017	20.03
592.211	20.07
592.404	20.09
592.598	20.07
592.792	20.1
592.986	20.2
593.179	20.23
593.373	20.23
593.567	20.21
593.76	20.26
593.954	20.28
594.147	20.26
594.341	20.25
594.535	20.26
594.728	20.3
594.922	20.31
595.115	20.25
595.309	20.28
595.502	20.33
595.696	20.34
595.889	20.38
596.083	20.41
596.276	20.39
596.47	20.39
596.663	20.4
596.856	20.38
597.05	20.39
597.243	20.39
597.437	20.4
597.63	20.38
597.823	20.43
598.017	20.38
598.21	20.39
598.403	20.46
598.596	20.46
598.79	20.46
598.983	20.54
599.176	20.49
599.369	20.51
599.563	20.53
599.756	20.54
599.949	20.47
600.142	20.43
600.335	20.46
600.528	20.47
600.722	20.5
600.915	20.52
601.108	20.5
601.301	20.53
601.494	20.5
601.687	20.46
601.88	20.53
602.073	20.6
602.266	20.63
602.459	20.59
602.652	20.64
602.845	20.68
603.038	20.67
603.231	20.64
603.424	20.64
603.617	20.65
603.809	20.64
604.002	20.62
604.195	20.56
604.388	20.56
604.581	20.55
604.774	20.54
604.966	20.53
605.159	20.51
605.352	20.57
605.545	20.59
605.737	20.65
605.93	20.71
606.123	20.66
606.316	20.76
606.508	20.78
606.701	20.84
606.894	20.81
607.086	20.85
607.279	20.87
607.471	20.91
607.664	20.91
607.857	20.93
608.049	20.98
608.242	21.05
608.434	21.08
608.627	21.12
608.819	21.12
609.012	21.21
609.204	21.14
609.397	21.23
609.589	21.18
609.782	21.19
609.974	21.22
610.166	21.26
610.359	21.31
610.551	21.32
610.743	21.36
610.936	21.4
611.128	21.32
611.32	21.36
611.513	21.31
611.705	21.36
611.897	21.39
612.09	21.31
612.282	21.26
612.474	21.11
612.666	21.14
612.858	21.08
613.051	21.07
613.243	21.08
613.435	21.1
613.627	21.08
613.819	21.07
614.011	20.97
614.203	20.94
614.395	20.86
614.588	20.94
614.78	20.91
614.972	20.92
615.164	20.79
615.356	20.72
615.548	20.73
615.74	20.8
615.932	20.81
616.124	20.88
616.315	20.92
616.507	20.98
616.699	21.03
616.891	21.08
617.083	21.13
617.275	21.33
617.467	21.35
617.659	21.37
617.85	21.33
618.042	21.31
618.234	21.31
618.426	21.29
618.618	21.36
618.809	21.31
619.001	21.22
619.193	21.28
619.384	21.22
619.576	21.29
619.768	21.21
619.959	21.13
620.151	21.11
620.343	21.09
620.534	21.15
620.726	21.03
620.917	21.05
621.109	21.07
621.301	21.01
621.492	21.04
621.684	20.94
621.875	21.01
622.067	21.05
622.258	21.07
622.45	21.11
622.641	21.14
622.832	21.23
623.024	21.25
623.215	21.3
623.407	21.38
623.598	21.34
623.789	21.41
623.981	21.38
624.172	21.48
624.363	21.5
624.555	21.53
624.746	21.55
624.937	21.52
625.129	21.48
625.32	21.42
625.511	21.37
625.702	21.3
625.893	21.32
626.085	21.32
626.276	21.28
626.467	21.28
626.658	21.28
626.849	21.26
627.04	21.25
627.231	21.25
627.422	21.3
627.614	21.29
627.805	21.4
627.996	21.4
628.187	21.38
628.378	21.35
628.569	21.35
628.76	21.21
628.951	21.2
629.142	21.22
629.332	21.17
629.523	21.2
629.714	21.19
629.905	21.2
630.096	21.14
630.287	21.18
630.478	21.18
630.669	21.2
630.859	21.28
631.05	21.31
631.241	21.33
631.432	21.38
631.623	21.35
631.813	21.34
632.004	21.24
632.195	21.29
632.385	21.28
632.576	21.33
632.767	21.34
632.957	21.47
633.148	21.47
633.339	21.46
633.529	21.5
633.72	21.49
633.91	21.44
634.101	21.46
634.292	21.42
634.482	21.43
634.673	21.39
634.863	21.3
635.054	21.23
635.244	21.23
635.435	21.21
635.625	21.22
635.815	21.25
636.006	21.35
636.196	21.42
636.387	21.4
636.577	21.37
636.767	21.39
636.958	21.45
637.148	21.42
637.338	21.38
637.529	21.44
637.719	21.38
637.909	21.39
638.099	21.34
638.29	21.34
638.48	21.49
638.67	21.58
638.86	21.6
639.05	21.65
639.241	21.66
639.431	21.66
639.621	21.6
639.811	21.68
640.001	21.52
640.191	21.5
640.381	21.43
640.571	21.27
640.761	21.19
640.951	21.11
641.141	21.04
641.331	21.04
641.521	21.02
641.711	21.04
641.901	20.97
642.091	21.22
642.281	21.26
642.471	21.24
642.661	21.38
642.851	21.47
643.041	21.61
643.231	21.63
643.42	21.65
643.61	21.59
643.8	21.51
643.99	21.43
644.18	21.32
644.369	21.29
644.559	21.38
644.749	21.17
644.939	21.05
645.128	20.93
645.318	20.9
645.508	20.95
645.697	21.04
645.887	21.11
646.076	21.28
646.266	21.24
646.456	21.34
646.645	21.32
646.835	21.42
647.024	21.51
647.214	21.54
647.403	21.57
647.593	21.57
647.782	21.59
647.972	21.47
648.161	21.31
648.351	21.32
648.54	21.17
648.73	21.15
648.919	21.19
649.108	21.12
649.298	21.09
649.487	21.07
649.677	21.03
649.866	21.1
650.055	21.22
650.244	21.3
650.434	21.3
650.623	21.39
650.812	21.31
651.002	21.26
651.191	21.25
651.38	21.23
651.569	21.3
651.758	21.28
651.947	21.19
652.137	21.24
652.326	21.25
652.515	21.26
652.704	21.21
652.893	21.37
653.082	21.42
653.271	21.55
653.46	21.6
653.649	21.61
653.838	21.57
654.027	21.62
654.216	21.53
654.405	21.52
654.594	21.54
654.783	21.54
654.972	21.51
655.161	21.49
655.35	21.42
655.539	21.42
655.728	21.43
655.916	21.46
656.105	21.49
656.294	21.51
656.483	21.4
656.672	21.36
656.86	21.36
657.049	21.39
657.238	21.41
657.427	21.33
657.615	21.44
657.804	21.4
657.993	21.35
658.181	21.29
658.37	21.34
658.559	21.34
658.747	21.37
658.936	21.42
659.125	21.3
659.313	21.26
659.502	21.34
659.69	21.25
659.879	21.27
660.067	21.38
660.256	21.45
660.444	21.47
660.633	21.59
660.821	21.56
661.01	21.52
661.198	21.63
661.387	21.8
661.575	21.8
661.763	21.83
661.952	21.79
662.14	21.78
662.328	21.7
662.517	21.65
662.705	21.56
662.893	21.65
663.082	21.68
663.27	21.63
663.458	21.45
663.646	21.51
663.834	21.59
664.023	21.69
664.211	21.65
664.399	21.68
664.587	21.7
664.775	21.75
664.963	21.73
665.152	21.73
665.34	21.79
665.528	21.85
665.716	21.79
665.904	21.69
666.092	21.62
666.28	21.62
666.468	21.66
666.656	21.68
666.844	21.62
667.032	21.6
667.22	21.57
667.408	21.52
667.596	21.52
667.784	21.54
667.971	21.57
668.159	21.56
668.347	21.54
668.535	21.45
668.723	21.4
668.911	21.48
669.098	21.42
669.286	21.48
669.474	21.55
669.662	21.49
669.849	21.51
670.037	21.54
670.225	21.54
670.413	21.63
670.6	21.72
670.788	21.66
670.976	21.62
671.163	21.59
671.351	21.57
671.538	21.55
671.726	21.63
671.913	21.57
672.101	21.39
672.289	21.45
672.476	21.56
672.664	21.5
672.851	21.6
673.039	21.66
673.226	21.67
673.413	21.62
673.601	21.63
673.788	21.52
673.976	21.39
674.163	21.57
674.35	21.45
674.538	21.3
674.725	21.26
674.912	21.3
675.1	21.24
675.287	21.34
675.474	21.41
675.662	21.45
675.849	21.47
676.036	21.68
676.223	21.74
676.411	21.78
676.598	21.74
676.785	21.74
676.972	21.73
677.159	21.8
677.346	21.72
677.533	21.68
677.721	21.65
677.908	21.75
678.095	21.63
678.282	21.56
678.469	21.6
678.656	21.63
678.843	21.7
679.03	21.67
679.217	21.64
679.404	21.68
679.591	21.7
679.778	21.67
679.964	21.64
680.151	21.64
680.338	21.63
680.525	21.71
680.712	21.71
680.899	21.66
681.086	21.63
681.272	21.61
681.459	21.51
681.646	21.47
681.833	21.41
682.02	21.43
682.206	21.48
682.393	21.38
682.58	21.22
682.766	21.27
682.953	21.3
683.14	21.31
683.326	21.4
683.513	21.53
683.7	21.52
683.886	21.57
684.073	21.51
684.259	21.54
684.446	21.65
684.632	21.65
684.819	21.57
685.005	21.5
685.192	21.53
685.378	21.42
685.565	21.37
685.751	21.41
685.938	21.34
686.124	21.36
686.31	21.35
686.497	21.34
686.683	21.43
686.87	21.44
687.056	21.47
687.242	21.42
687.429	21.56
687.615	21.57
687.801	21.67
687.987	21.61
688.174	21.67
688.36	21.74
688.546	21.71
688.732	21.68
688.918	21.74
689.105	21.73
689.291	21.79
689.477	21.72
689.663	21.82
689.849	21.68
690.035	21.89
690.221	21.74
690.407	21.63
690.593	21.66
690.779	21.71
690.965	21.75
691.151	21.84
691.337	21.97
691.523	21.99
691.709	21.93
691.895	22.04
692.081	21.9
692.267	22.14
692.453	22.11
692.639	22.06
692.825	22.09
693.011	21.93
693.196	21.74
693.382	21.71
693.568	21.64
693.754	21.53
693.94	21.34
694.125	21.46
694.311	21.36
694.497	21.55
694.682	21.64
694.868	21.76
695.054	21.84
695.239	21.92
695.425	21.89
695.611	21.91
695.796	22
695.982	22.19
696.168	22.13
696.353	22.14
696.539	22.08
696.724	22
696.91	21.88
697.095	21.87
697.281	21.85
697.466	21.71
697.652	21.67
697.837	21.73
698.023	21.65
698.208	21.76
698.393	21.84
698.579	21.74
698.764	21.78
698.949	21.74
699.135	21.75
699.32	21.79
699.505	21.86
699.691	21.91
699.876	21.86
700.061	21.91
700.246	21.77
700.432	21.55
700.617	21.64
700.802	21.72
700.987	21.74
701.172	21.61
701.358	21.58
701.543	21.67
701.728	21.69
701.913	21.65
702.098	21.72
702.283	21.79
702.468	21.84
702.653	21.81
702.838	21.76
703.023	21.79
703.208	22.02
703.393	21.99
703.578	22.07
703.763	22.1
703.948	22.03
704.133	22.04
704.318	22.02
704.503	22.12
704.688	22.09
704.873	21.97
705.057	22.01
705.242	21.94
705.427	22.16
705.612	21.95
705.797	22.04
705.981	22.19
706.166	22.02
706.351	22.14
706.536	22.18
706.72	22.08
706.905	22.05
707.09	21.9
707.274	21.91
707.459	21.66
707.644	21.72
707.828	21.57
708.013	21.62
708.197	21.66
708.382	21.52
708.567	21.5
708.751	21.61
708.936	21.62
709.12	21.63
709.305	21.61
709.489	21.74
709.673	21.64
709.858	21.71
710.042	21.57
710.227	21.52
710.411	21.48
710.596	21.47
710.78	21.33
710.964	21.31
711.149	21.25
711.333	21.31
711.517	21.22
711.702	21.31
711.886	21.29
712.07	21.33
712.254	21.37
712.438	21.42
712.623	21.4
712.807	21.73
712.991	21.83
713.175	22
713.359	22.09
713.544	22.22
713.728	22.23
713.912	22.23
714.096	22.33
714.28	22.27
714.464	22.23
714.648	22.19
714.832	21.92
715.016	21.78
715.2	21.55
715.384	21.36
715.568	21.34
715.752	21.3
715.936	21.22
716.12	21.22
716.304	21.27
716.488	21.36
716.671	21.31
716.855	21.42
717.039	21.55
717.223	21.7
717.407	21.76
717.59	21.69
717.774	21.69
717.958	21.74
718.142	21.64
718.325	21.63
718.509	21.56
718.693	21.75
718.877	21.62
719.06	21.65
719.244	21.47
719.428	21.52
719.611	21.58
719.795	21.54
719.978	21.57
720.162	21.46
720.345	21.33
720.529	21.46
720.713	21.49
720.896	21.54
721.08	21.5
721.263	21.56
721.446	21.41
721.63	21.31
721.813	21.32
721.997	21.36
722.18	21.56
722.364	21.89
722.547	21.86
722.73	21.66
722.914	21.69
723.097	21.72
723.28	21.94
723.464	22.09
723.647	22.29
723.83	22.39
724.013	22.24
724.197	22.2
724.38	21.98
724.563	21.74
724.746	21.83
724.929	21.91
725.112	21.67
725.296	21.51
725.479	21.4
725.662	21.27
725.845	21.18
726.028	21.2
726.211	21.1
726.394	21.09
726.577	21.21
726.76	21.12
726.943	21.05
727.126	21.15
727.309	21.18
727.492	21.3
727.675	21.2
727.858	21.14
728.041	21.24
728.224	21.23
728.407	21.21
728.589	21.13
728.772	21.25
728.955	21.34
729.138	21.43
729.321	21.52
729.503	21.63
729.686	21.67
729.869	21.74
730.052	21.62
730.234	21.56
730.417	21.69
730.6	21.72
730.782	21.57
730.965	21.28
731.148	21.18
731.33	21.16
731.513	21
731.695	21.07
731.878	20.97
732.061	20.93
732.243	21.05
732.426	20.87
732.608	20.93
732.791	20.97
732.973	21.06
733.156	21.2
733.338	21.15
733.52	20.97
733.703	20.93
733.885	21.11
734.068	21.17
734.25	20.96
734.432	21.23
734.615	21.31
734.797	21.38
734.979	21.49
735.162	21.33
735.344	21.34
735.526	21.41
735.708	21.33
735.891	21.25
736.073	21.61
736.255	21.67
736.437	21.46
736.619	21.24
736.802	21.04
736.984	21.09
737.166	21.31
737.348	21.08
737.53	21.11
737.712	21.14
737.894	21.04
738.076	20.69
738.258	20.82
738.44	21
738.622	21.12
738.804	21.15
738.986	21.05
739.168	21.02
739.35	21.22
739.532	21.24
739.714	21.3
739.896	21.27
740.078	21.4
740.259	21.49
740.441	21.3
740.623	21.32
740.805	21.33
740.987	21.5
741.168	21.18
741.35	21.12
741.532	21.19
741.714	21.26
741.895	21.37
742.077	21.2
742.259	21.16
742.44	21.38
742.622	21.25
742.804	21.38
742.985	21.24
743.167	21.55
743.348	21.53
743.53	21.69
743.711	21.39
743.893	21.41
744.075	21.37
744.256	21.11
744.438	20.85
744.619	20.78
744.8	20.6
744.982	20.92
745.163	21.05
745.345	20.91
745.526	20.86
745.707	20.95
745.889	20.59
746.07	20.5
746.252	20.56
746.433	20.57
746.614	20.58
746.795	21.03
746.977	20.66
747.158	20.43
747.339	20.66
747.52	20.53
747.702	20.48
747.883	20.61
748.064	20.7
748.245	20.85
748.426	20.77
748.607	20.68
748.788	20.35
748.97	20.16
749.151	20.23
749.332	20.33
749.513	20.59
749.694	20.62
749.875	21.06
750.056	20.88
750.237	20.9
750.418	20.89
750.599	20.75
750.78	20.83
750.96	20.98
751.141	21.13
751.322	21.11
751.503	20.85
751.684	20.98
751.865	20.92
752.046	21.18
752.226	21.04
752.407	21.13
752.588	21.52
752.769	21.58
752.949	21.85
753.13	21.65
753.311	21.39
753.492	21.24
753.672	21.16
753.853	20.83
754.034	21.05
754.214	21.15
754.395	20.95
754.575	20.88
754.756	20.52
754.937	20.17
755.117	20.24
755.298	20.54
755.478	20.78
755.659	21.06
755.839	21.43
756.02	21.15
756.2	20.82
756.381	20.79
756.561	20.77
756.741	21.17
756.922	21.35
757.102	21.55
757.283	21.52
757.463	21.21
757.643	21.01
757.823	20.52
758.004	20.45
758.184	20.96
758.364	21.29
758.545	21.3
758.725	20.88
758.905	20.63
759.085	20.3
759.265	20.13
759.446	20.44
759.626	20.46
759.806	20.56
759.986	20.78
760.166	20.45
760.346	20.18
760.526	20.28
760.706	20.57
760.886	20.6
761.066	20.59
761.246	20.69
761.426	20.82
761.606	20.59
761.786	20.8
761.966	20.66
762.146	20.83
762.326	20.88
762.506	20.72
762.686	20.71
762.866	20.67
763.046	20.58
763.225	20.57
763.405	20.31
763.585	20.53
763.765	20.4
763.945	20.33
764.124	20.24
764.304	20.32
764.484	20.36
764.664	20.42
764.843	20.54
765.023	20.77
765.203	20.7
765.382	20.93
765.562	20.93
765.741	20.99
765.921	20.99
766.101	20.97
766.28	21.14
766.46	21.29
766.639	21.23
766.819	21.29
766.998	21.38
767.178	21.41
767.357	21.41
767.537	21.25
767.716	21.42
767.896	21.58
768.075	21.61
768.254	21.28
768.434	21.33
768.613	21.01
768.792	21.26
768.972	21.16
769.151	21.11
769.33	21.09
769.51	21.12
769.689	20.86
769.868	20.71
770.047	20.6
770.226	20.83
770.406	20.81
770.585	21.22
770.764	20.72
770.943	20.72
771.122	20.7
771.301	20.47
771.48	20.83
771.66	21.19
771.839	21.41
772.018	21.48
772.197	21.51
772.376	21.22
772.555	21.01
772.734	21.3
772.913	21.34
773.092	21.25
773.271	21.41
773.449	20.7
773.628	20.53
773.807	20.35
773.986	19.89
774.165	19.91
774.344	20.17
774.523	20.25
774.701	20.21
774.88	19.92
775.059	20.27
775.238	20.14
775.417	20.08
775.595	19.85
775.774	19.98
775.953	20.46
776.131	19.88
776.31	19.9
776.489	19.89
776.667	19.83
776.846	20.22
777.025	19.86
777.203	19.95
777.382	20.58
777.56	20.61
777.739	20.44
777.917	20.16
778.096	20.27
778.274	20.27
778.453	20.24
778.631	20.19
778.81	19.85
778.988	20
779.166	20.22
779.345	20.02
779.523	19.94
779.702	19.74
779.88	19.97
780.058	20.43
780.237	20.26
780.415	20.64
780.593	20.86
780.771	20.83
780.95	21.19
781.128	21.05
781.306	21.01
781.484	21.39
781.662	21.39
781.841	21.68
782.019	21.28
782.197	21.75
782.375	21.11
782.553	21.28
782.731	21.7
782.909	21.29
783.087	20.92
783.265	20.76
783.443	20.84
783.621	21.02
783.799	20.76
783.977	20.83
784.155	20.36
784.333	20.56
784.511	20.13
784.689	20.05
784.867	20.14
785.045	19.93
785.223	19.95
785.4	19.73
785.578	20.11
785.756	20.35
785.934	20.23
786.112	20.55
786.289	20.62
786.467	20.4
786.645	20.32
786.823	20.48
787	20.72
787.178	20.83
787.356	20.82
787.533	20.98
787.711	20.91
787.889	21.31
788.066	21.01
788.244	20.77
788.421	21.14
788.599	21.01
788.776	20.7
788.954	20.83
789.131	20.82
789.309	20.17
789.486	20.02
789.664	20.42
789.841	19.87
790.019	19.55
790.196	19.63
790.373	19.11
790.551	19.04
790.728	19.2
790.906	19.63
791.083	18.49
791.26	19.1
791.437	18.78
791.615	18.31
791.792	18.77
791.969	19.12
792.146	19.2
792.324	19.64
792.501	19.85
792.678	19.58
792.855	19.39
793.032	20.12
793.209	20.23
793.387	20.57
793.564	20.28
793.741	19.9
793.918	19.78
794.095	19.77
794.272	19.81
794.449	19.49
794.626	20.02
794.803	19.66
794.98	19.73
795.157	19.81
795.334	19.63
795.511	19.6
795.688	19.72
795.864	19.85
796.041	20.45
796.218	20.27
796.395	20.76
796.572	20.42
796.749	20.31
796.925	21.04
797.102	20.83
797.279	20.55
797.456	21.17
797.632	21.55
797.809	21.46
797.986	20.77
798.162	20.87
798.339	20.5
798.516	20.31
798.692	20.26
798.869	20.44
799.046	20.18
799.222	20.36
799.399	19.87
799.575	19.6
799.752	19.73
799.928	19.82
800.105	19.28
800.281	19
800.458	19.87
800.634	20.34
800.811	19.95
800.987	20.3
801.163	19.83
801.34	19.78
801.516	19.43
801.692	19.24
801.869	19.76
802.045	20.79
802.221	20.95
802.398	19.83
802.574	19.62
802.75	19.16
802.926	18.74
803.103	18.67
803.279	19.04
803.455	19.37
803.631	20.27
803.807	19.74
803.983	19.84
804.16	20.05
804.336	19.73
804.512	19.38
804.688	20.01
804.864	19.88
805.04	20.56
805.216	19.69
805.392	19.05
805.568	18.7
805.744	18.95
805.92	18.37
806.096	17.76
806.272	18.75
806.448	19.08
806.623	18.3
806.799	19.15
806.975	19.29
807.151	20.42
807.327	20.92
807.503	21
807.678	20.5
807.854	20.33
808.03	21.01
808.206	20.55
808.381	20.4
808.557	20.34
808.733	20.13
808.908	19.98
809.084	19.05
809.26	18.16
809.435	17.95
809.611	18.04
809.787	17.86
809.962	16.8
810.138	17.23
810.313	17.38
810.489	17.73
810.664	17.74
810.84	17.37
811.015	18.03
811.191	18.88
811.366	18.42
811.542	18.68
811.717	18.55
811.892	20.02
812.068	20.3
812.243	20.29
812.419	20.15
812.594	20.12
812.769	20.71
812.944	20.88
813.12	20.88
813.295	20.7
813.47	20.1
813.645	20.05
813.821	19.88
813.996	19.72
814.171	19.75
814.346	20.19
814.521	20.3
814.697	19.66
814.872	19.11
815.047	19.64
815.222	19.78
815.397	20.3
815.572	21.05
815.747	21.47
815.922	20.85
816.097	20.95
816.272	21.15
816.447	20.44
816.622	20.96
816.797	20.89
816.972	20.87
817.147	21.13
817.322	20.58
817.496	19.67
817.671	19.69
817.846	20.03
818.021	19.79
818.196	18.71
818.371	18.95
818.545	19.01
818.72	19.36
818.895	19.46
819.069	19.27
819.244	19.74
819.419	20.42
819.594	20.45
819.768	20.48
819.943	20.69
820.117	20.93
820.292	21.05
820.467	21.03
820.641	21.02
820.816	20.84
820.99	20.91
821.165	20.92
821.339	20.81
821.514	20.56
821.688	20.5
821.863	20.47
822.037	20.51
822.212	20.44
822.386	20.24
822.56	20.06
822.735	20.02
822.909	20.02
823.084	19.75
823.258	19.71
823.432	19.74
823.606	19.74
823.781	19.57
823.955	19.42
824.129	19.3
824.303	19.42
824.478	19.53
824.652	19.43
824.826	19.12
825	19.68
825.174	19.52
825.348	19.37
825.523	19.22
825.697	19.05
825.871	19.1
826.045	19.35
826.219	19.45
826.393	19.41
826.567	19.46
826.741	19.68
826.915	19.62
827.089	19.73
827.263	19.88
827.437	20.13
827.611	20.36
827.784	20.26
827.958	20.21
828.132	20.26
828.306	20.46
828.48	20.63
828.654	20.55
828.827	19.96
829.001	19.71
829.175	19.45
829.349	19.34
829.522	19.46
829.696	19.85
829.87	20.01
830.044	19.93
830.217	20.04
830.391	19.71
830.565	19.99
830.738	20.37
830.912	20.94
831.085	21.48
831.259	21.16
831.432	20.76
831.606	20.72
831.779	20.15
831.953	20.4
832.126	20.18
832.3	20.18
832.473	20.02
832.647	19.91
832.82	19.99
832.994	19.95
833.167	19.85
833.34	19.93
833.514	19.54
833.687	19.62
833.86	19.26
834.034	19.26
834.207	19.27
834.38	19.07
834.553	19.49
834.727	19.16
834.9	18.83
835.073	19.07
835.246	19.38
835.419	19.97
835.593	20.74
835.766	21.03
835.939	20.79
836.112	21.34
836.285	21.34
836.458	20.57
836.631	20.34
836.804	20.42
836.977	19.82
837.15	19.79
837.323	18.99
837.496	17.18
837.669	17.53
837.842	17.71
838.015	17.29
838.188	17.26
838.361	17.7
838.533	18.17
838.706	17.58
838.879	17.69
839.052	17.01
839.225	17.31
839.398	17.92
839.57	17.17
839.743	16.53
839.916	16.37
840.088	16.25
840.261	16.64
840.434	16.58
840.607	16.65
840.779	17.23
840.952	17.79
841.124	18.26
841.297	18.35
841.47	18.29
841.642	18.85
841.815	18.87
841.987	19.61
842.16	19.79
842.332	19.66
842.505	20.18
842.677	20.47
842.85	19.02
843.022	18.42
843.194	19.19
843.367	19.27
843.539	20.19
843.712	20.56
843.884	19.3
844.056	19.58
844.229	19.68
844.401	21.19
844.573	21.66
844.745	22.91
844.918	22.63
845.09	21.72
845.262	22.32
845.434	22.73
845.606	22.11
845.779	23.3
845.951	22.02
846.123	22.88
846.295	20.77
846.467	19.19
846.639	19.46
846.811	20.14
846.983	19.97
847.155	18.93
847.327	17.99
847.499	18.68
847.671	16.71
847.843	17.16
848.015	16.25
848.187	18.22
848.359	18.23
848.531	17.44
848.703	16.01
848.875	17.54
849.047	18.85
849.218	17.74
849.39	17.79
849.562	20.82
849.734	19.46
849.905	19.92
850.077	19.55
850.249	19.06
850.421	20.36
850.592	19.2
850.764	17.99
850.936	18.22
851.107	18.78
851.279	18.08
851.451	16.74
851.622	17.17
851.794	17.95
851.965	16.96
852.137	18.42
852.308	18.11
852.48	21.08
852.651	20.39
852.823	19.72
852.994	20.43
853.166	20.73
853.337	21.98
853.509	22.8
853.68	23.56
853.851	24.96
854.023	23.85
854.194	24.18
854.365	24.39
854.537	24.79
854.708	25.49
854.879	24.89
855.05	23.34
855.222	22.3
855.393	22.02
855.564	19.31
855.735	17.19
855.906	18.38
856.078	16.19
856.249	18.2
856.42	17.45
856.591	17.36
856.762	18.22
856.933	19.15
857.104	19.26
857.275	17.61
857.446	18.67
857.617	18.07
857.788	18.23
857.959	17.69
858.13	14.89
858.301	13.95
858.472	13.12
858.643	13.13
858.814	15.04
858.985	14.07
859.155	14.37
859.326	16.18
859.497	19.73
859.668	16.44
859.839	19.63
860.009	21.21
860.18	20.42
860.351	22.93
860.522	21.99
860.692	20.38
860.863	22.92
861.034	24.26
861.204	23.21
861.375	21.84
861.546	23.86
861.716	21.1
861.887	18.9
862.057	21.14
862.228	18.35
862.398	17.21
862.569	19.31
862.739	19.52
862.91	18.53
863.08	18.38
863.251	15.88
863.421	15.23
863.592	17.17
863.762	19.15
863.932	18.89
864.103	16.7
864.273	16.83
864.443	15.7
864.614	13.74
864.784	14
864.954	12.19
865.125	16.18
865.295	17.27
865.465	16.77
865.635	14.16
865.805	14.79
865.976	16.46
866.146	17.33
866.316	16.26
866.486	18.25
866.656	17.9
866.826	19.17
866.996	16.06
867.166	16.07
867.336	17.16
867.506	18.93
867.676	18.51
867.846	20.34
868.016	18.6
868.186	16.95
868.356	15.65
868.526	17.23
868.696	15.97
868.866	16.48
869.036	12.33
869.206	10.83
869.376	8.6
869.545	7.98
869.715	8.3
869.885	8.71
870.055	10.58
870.224	10.09
870.394	10.39
870.564	13.37
870.734	13.78
870.903	16.79
871.073	17.07
871.243	20.7
871.412	22.22
871.582	21.62
871.751	23.97
871.921	25.43
872.091	23.86
872.26	22.65
872.43	20.81
872.599	19.98
872.769	21.29
872.938	20.08
873.108	19.54
873.277	16.65
873.446	18.16
873.616	16.35
873.785	15.33
873.955	16.87
874.124	19.01
874.293	18.86
874.463	19.49
874.632	17.45
874.801	20.99
874.971	19.37
875.14	21.94
875.309	17.92
875.478	16.3
875.647	16.75
875.817	14.15
875.986	10.7
876.155	10.41
876.324	10.05
876.493	13.27
876.662	10.02
876.831	10.44
877	11.05
877.17	14.26
877.339	18.69
877.508	20.33
877.677	24.16
877.846	25.45
878.015	25.35
878.184	24.75
878.352	24.01
878.521	23.26
878.69	22.8
878.859	21.91
879.028	22.28
879.197	20.85
879.366	19.39
879.534	18.2
879.703	17.73
879.872	19.01
880.041	20.31
880.21	19.67
880.378	19.76
880.547	19.87
880.716	19.66
880.884	18.71
881.053	18.6
881.222	18.46
881.39	18.84
881.559	19.08
881.727	18.87
881.896	18.48
882.065	18.57
882.233	18.89
882.402	18.82
882.57	19.01
882.739	19.29
882.907	19.46
883.076	19.82
883.244	19.47
883.412	19.54
883.581	19.42
883.749	19.64
883.918	20.05
884.086	20.53
884.254	20.81
884.423	20.61
884.591	20.53
884.759	20.02
884.927	19.88
885.096	19.79
885.264	20.65
885.432	20.43
885.6	18.73
885.769	16.82
885.937	15.69
886.105	13.71
886.273	12.88
886.441	12.61
886.609	12.7
886.777	12.31
886.945	13.05
887.113	10.66
887.281	8.84
887.449	11.89
887.617	13.22
887.785	11.72
887.953	12.49
888.121	11.45
888.289	10.88
888.457	12.35
888.625	11.16
888.793	8.34
888.961	7.41
889.129	9.7
889.296	8.51
889.464	7.94
889.632	8.27
889.8	8.33
889.967	9.99
890.135	11.83
