Data from JASIL_3241_Reflection_3.txt Node
Date: Mon Nov 16 20:29:38 EST 2015
User: Geneva
Spectrometer: USB4E03002
Autoset integration time: false
Trigger mode: 4
Integration Time (sec): 1.000000E-1
Scans to average: 10
Electric dark correction enabled: false
Nonlinearity correction enabled: false
Boxcar width: 5
Stray light correction enabled: false
XAxis mode: Wavelengths
Stop averaging: false
Number of Pixels in Spectrum: 3648
>>>>>Begin Spectral Data<<<<<
177.575	-258.12
177.794	-309.29
178.014	-397.59
178.233	-612.15
178.452	-840.96
178.672	-665.91
178.891	-884.91
179.11	3067.57
179.33	950.89
179.549	-4618.18
179.768	898.31
179.987	1154.84
180.207	652.9
180.426	321.25
180.645	388.24
180.864	648.05
181.084	251.67
181.303	218.75
181.522	332.73
181.741	1130.99
181.96	289.17
182.179	388.85
182.398	416
182.618	439.83
182.837	455.04
183.056	327.38
183.275	226.68
183.494	240.47
183.713	271.6
183.932	217.45
184.151	211.38
184.37	208.08
184.589	154.62
184.808	133.38
185.027	128.49
185.246	149.75
185.465	230.32
185.684	270.31
185.903	1077.01
186.122	449.33
186.341	594.94
186.56	310.79
186.779	423.83
186.998	653.85
187.216	696.06
187.435	550.3
187.654	444.86
187.873	249.87
188.092	197.51
188.311	171.04
188.53	213.4
188.748	257.76
188.967	586.4
189.186	378.54
189.405	409.09
189.623	359.72
189.842	313.17
190.061	344.02
190.28	832.05
190.498	-768.75
190.717	672.22
190.936	-1333.9
191.154	-500
191.373	-11333.33
191.592	-6109.09
191.81	-264.94
192.029	-392.37
192.248	-105.88
192.466	-105.31
192.685	-147.91
192.904	-222.34
193.122	-117.07
193.341	-281.08
193.559	-224.37
193.778	-305.45
193.996	-481.68
194.215	24525
194.433	-2450
194.652	497.54
194.87	436.36
195.089	365.94
195.307	444.21
195.526	1077.97
195.744	711.4
195.963	467.58
196.181	8800
196.399	-483.76
196.618	2630
196.836	7200
197.055	-462.3
197.273	-1144.83
197.491	-758.89
197.71	-1354.9
197.928	1093.75
198.146	1788.1
198.365	-8760
198.583	432.03
198.801	566.67
199.019	1275.32
199.238	-2483.33
199.456	1074.53
199.674	443.64
199.892	317.96
200.111	434.62
200.329	449.81
200.547	354.37
200.765	321.99
200.983	363.55
201.202	312.86
201.42	456.3
201.638	312.74
201.856	354.55
202.074	1061.98
202.292	1394.95
202.51	785.71
202.728	1045.36
202.946	-2615
203.165	3496.97
203.383	-1211.34
203.601	-1360.47
203.819	2690
204.037	13240
204.255	1371.13
204.473	601.4
204.691	766.67
204.909	590.61
205.127	665.12
205.345	676.14
205.562	587.13
205.78	369.13
205.998	443.67
206.216	363.57
206.434	339.53
206.652	300.91
206.87	229.53
207.088	217.04
207.306	250.12
207.523	239.84
207.741	218.17
207.959	221.79
208.177	245.27
208.395	196.08
208.612	208.07
208.83	201.23
209.048	207.12
209.266	287.86
209.483	273.88
209.701	233.68
209.919	260.33
210.136	255.02
210.354	578.5
210.572	542.53
210.79	865.19
211.007	551.09
211.225	764.34
211.442	-4090.48
211.66	-976.39
211.878	-422.22
212.095	88.17
212.313	78.55
212.53	106.96
212.748	70.48
212.966	78.03
213.183	79.02
213.401	70.41
213.618	68.88
213.836	90.1
214.053	83.48
214.271	87.1
214.488	747.9
214.705	400
214.923	323.55
215.14	332.74
215.358	248
215.575	356.6
215.793	389.95
216.01	690.8
216.227	245.32
216.445	203.55
216.662	225.74
216.879	218.85
217.097	195.12
217.314	184.43
217.531	232.86
217.749	283.87
217.966	355.33
218.183	330.03
218.4	347.56
218.618	436.61
218.835	439.26
219.052	345.21
219.269	296.23
219.487	464.58
219.704	318.79
219.921	245.74
220.138	182.92
220.355	173.27
220.572	159.43
220.79	156.43
221.007	158.8
221.224	203.65
221.441	194.2
221.658	203.69
221.875	149.57
222.092	149.44
222.309	161.59
222.526	126.61
222.743	128.23
222.96	175
223.177	115.92
223.394	130.86
223.611	88.54
223.828	81.11
224.045	112.99
224.262	126.34
224.479	93.07
224.696	67.65
224.913	96.45
225.13	68.45
225.347	50.62
225.564	43.51
225.781	45.08
225.997	54.8
226.214	40.02
226.431	30.6
226.648	22.82
226.865	22.47
227.082	25.62
227.298	19.63
227.515	21.27
227.732	20.26
227.949	17.01
228.165	17.81
228.382	14.02
228.599	14.06
228.816	12.08
229.032	12.9
229.249	11.79
229.466	13.18
229.682	15.47
229.899	12.91
230.116	13.64
230.332	17.17
230.549	19.44
230.765	19.84
230.982	24.9
231.199	30.23
231.415	32.52
231.632	36.22
231.848	38.14
232.065	41.28
232.281	43.07
232.498	49.01
232.714	50.41
232.931	43.91
233.147	46.16
233.364	41.58
233.58	39.34
233.797	43.79
234.013	37.21
234.23	38.67
234.446	39.06
234.662	40.17
234.879	42.75
235.095	39.36
235.312	44.47
235.528	39.88
235.744	45.06
235.961	45.13
236.177	44.46
236.393	54.04
236.61	55.46
236.826	54.48
237.042	52.06
237.258	44.41
237.475	42.14
237.691	42.04
237.907	45.31
238.123	40.22
238.339	38.94
238.556	37.58
238.772	33.59
238.988	28.82
239.204	26.62
239.42	26.98
239.636	29.36
239.853	27.08
240.069	20.64
240.285	19.94
240.501	19.06
240.717	18.71
240.933	14.95
241.149	11.87
241.365	13.61
241.581	13.47
241.797	10.26
242.013	9.38
242.229	10.53
242.445	11.32
242.661	13.04
242.877	13.13
243.093	10.82
243.309	13.43
243.525	14.66
243.741	12.4
243.957	11.69
244.173	15.65
244.388	16.48
244.604	17.82
244.82	17.67
245.036	16.08
245.252	14.31
245.468	14.25
245.683	13.24
245.899	13.19
246.115	14.15
246.331	13.57
246.547	13.18
246.762	11.39
246.978	11.14
247.194	10.89
247.409	10.86
247.625	12.08
247.841	12.23
248.057	11.49
248.272	12.54
248.488	13.06
248.703	13.77
248.919	15.56
249.135	17.46
249.35	16.69
249.566	20.42
249.782	20.16
249.997	19.91
250.213	19.31
250.428	17.87
250.644	16.5
250.859	13.54
251.075	11.22
251.29	10.09
251.506	12.02
251.721	13.16
251.937	10.62
252.152	13.62
252.368	12.85
252.583	13.57
252.798	15.38
253.014	15.49
253.229	17.06
253.445	20.44
253.66	20.57
253.875	18.95
254.091	20.18
254.306	21.71
254.521	16.8
254.737	18.18
254.952	20.15
255.167	21.19
255.383	21.44
255.598	19.69
255.813	19.94
256.028	20.49
256.244	22.14
256.459	20.88
256.674	21.54
256.889	19.09
257.104	16.16
257.32	14.94
257.535	13.07
257.75	11.05
257.965	10.51
258.18	10.05
258.395	8.72
258.61	8.01
258.826	7.97
259.041	7.04
259.256	7.84
259.471	8.6
259.686	8.54
259.901	8.81
260.116	9.22
260.331	10.38
260.546	10.22
260.761	10.41
260.976	10.29
261.191	9.91
261.406	10.75
261.621	11.46
261.836	12.89
262.05	12.4
262.265	15.19
262.48	16.28
262.695	14.37
262.91	15.11
263.125	15.65
263.34	15.52
263.555	17.44
263.769	17.31
263.984	17.39
264.199	16.68
264.414	19.16
264.629	15.63
264.843	14.7
265.058	14.77
265.273	12.9
265.488	13.11
265.702	13.74
265.917	14.2
266.132	13.17
266.346	12.55
266.561	11.99
266.776	10.81
266.99	11.92
267.205	13.21
267.42	14.88
267.634	16.15
267.849	14.83
268.063	15.32
268.278	15.71
268.492	16.69
268.707	16.97
268.922	15.27
269.136	13.09
269.351	11.31
269.565	9.56
269.78	8.9
269.994	7.34
270.209	8.28
270.423	8.2
270.637	7.78
270.852	7.11
271.066	7.6
271.281	10.63
271.495	11.27
271.709	11.32
271.924	11.85
272.138	11.66
272.353	12.96
272.567	13.01
272.781	12.52
272.996	11.19
273.21	11.22
273.424	11.77
273.638	10.74
273.853	13.1
274.067	15.05
274.281	14.38
274.495	14.06
274.71	12.76
274.924	12.31
275.138	11.94
275.352	12.34
275.566	13.58
275.781	12.74
275.995	12.16
276.209	10.89
276.423	10.99
276.637	12.55
276.851	14.27
277.065	14.26
277.279	16.82
277.493	15.32
277.707	15.34
277.921	14.5
278.135	14.34
278.349	16
278.563	14.4
278.777	13.76
278.991	13.42
279.205	12.39
279.419	12.89
279.633	10.94
279.847	12.49
280.061	12.93
280.275	12.22
280.489	11.23
280.703	8.57
280.917	10.26
281.131	9.58
281.344	10.4
281.558	10.61
281.772	11.24
281.986	11.65
282.2	12.09
282.414	10.73
282.627	10.91
282.841	10.6
283.055	11.17
283.269	11.1
283.482	11.25
283.696	9.57
283.91	8.75
284.123	8.23
284.337	7.74
284.551	7.74
284.764	8.13
284.978	7.35
285.192	7.81
285.405	8.44
285.619	7.53
285.833	8.22
286.046	8.08
286.26	7.5
286.473	7.45
286.687	7.24
286.9	7.69
287.114	8.95
287.327	10.21
287.541	9.71
287.754	8.22
287.968	8.74
288.181	8.69
288.395	8.86
288.608	11.01
288.822	11.61
289.035	12.37
289.248	11.55
289.462	10.8
289.675	11.14
289.889	11.85
290.102	12.47
290.315	12.94
290.529	11.94
290.742	12.76
290.955	12.1
291.169	11.74
291.382	10.99
291.595	13.17
291.808	13.26
292.022	12.76
292.235	12.64
292.448	13.5
292.661	12.49
292.875	13.98
293.088	13.36
293.301	11.83
293.514	10.77
293.727	10.06
293.94	6.65
294.153	7.86
294.367	8
294.58	7.93
294.793	7.73
295.006	8.71
295.219	7.2
295.432	7.96
295.645	8.3
295.858	8.64
296.071	9.58
296.284	10.2
296.497	8.45
296.71	8.61
296.923	8.97
297.136	8.17
297.349	7.43
297.562	8.4
297.775	7.65
297.988	7.65
298.201	8.32
298.414	6.53
298.626	7.11
298.839	7.5
299.052	7.02
299.265	6.27
299.478	6.54
299.691	6.88
299.903	6
300.116	7.42
300.329	8.44
300.542	8.26
300.755	10.7
300.967	10.94
301.18	11.56
301.393	11.63
301.605	13.53
301.818	13.07
302.031	13.2
302.243	14.43
302.456	13.5
302.669	12.88
302.881	13.48
303.094	13.04
303.307	12.43
303.519	13.02
303.732	13.98
303.944	12.06
304.157	13.25
304.37	13.85
304.582	13.06
304.795	12.78
305.007	12.21
305.22	11.91
305.432	11.87
305.645	12.49
305.857	11.5
306.069	11.31
306.282	11.71
306.494	11.18
306.707	11.15
306.919	10.68
307.132	9.88
307.344	9.83
307.556	9.45
307.769	8.63
307.981	8.55
308.193	8.98
308.406	8.45
308.618	9.18
308.83	9.62
309.043	8.51
309.255	9.55
309.467	10.62
309.679	10.88
309.892	11.08
310.104	11.24
310.316	11.15
310.528	10.9
310.74	9.47
310.953	8.7
311.165	9.69
311.377	9.38
311.589	9.4
311.801	9.7
312.013	9.88
312.225	11.23
312.437	11.82
312.649	11.66
312.862	12.29
313.074	12.72
313.286	14.86
313.498	14.08
313.71	16.09
313.922	16.43
314.134	17.18
314.346	17.57
314.558	15.35
314.77	14.21
314.982	14.26
315.193	13.59
315.405	14.67
315.617	12.32
315.829	13.13
316.041	11.58
316.253	11.43
316.465	10.11
316.677	8.93
316.888	9.37
317.1	10.75
317.312	11.38
317.524	11.68
317.736	12.28
317.947	12.94
318.159	12.97
318.371	12.3
318.583	11.57
318.794	12.47
319.006	13.56
319.218	12.63
319.43	12.43
319.641	12.34
319.853	12.91
320.064	13.03
320.276	13.44
320.488	11.94
320.699	12.01
320.911	12.32
321.123	12.18
321.334	13.46
321.546	15.68
321.757	15.97
321.969	16.93
322.18	17.31
322.392	16.18
322.603	15.82
322.815	15.43
323.026	17.4
323.238	18.7
323.449	16.61
323.661	15.82
323.872	14.48
324.083	13.93
324.295	12.48
324.506	12.08
324.718	11.73
324.929	12.55
325.14	13.03
325.352	13
325.563	12.55
325.774	13.46
325.986	12.86
326.197	12.79
326.408	13.55
326.62	14.22
326.831	13.54
327.042	14.33
327.253	13.52
327.464	14.81
327.676	14.02
327.887	14.04
328.098	15.85
328.309	16.17
328.52	17.93
328.732	17.52
328.943	17.81
329.154	18.07
329.365	19.35
329.576	20.39
329.787	18.25
329.998	19.24
330.209	16.82
330.42	14.96
330.631	16.93
330.842	15.89
331.053	17.56
331.264	17.24
331.475	16.72
331.686	15.82
331.897	13.94
332.108	14.8
332.319	14.41
332.53	15.93
332.741	16.58
332.952	14.57
333.163	13.65
333.374	11.25
333.585	10.84
333.795	11.6
334.006	11.17
334.217	12.46
334.428	11.45
334.639	10.61
334.849	10.27
335.06	9.94
335.271	10.7
335.482	13.09
335.692	13.49
335.903	14.53
336.114	15.37
336.325	15.46
336.535	16.17
336.746	18.02
336.957	19.54
337.167	18.5
337.378	19.78
337.589	18.77
337.799	17.2
338.01	19.02
338.22	17.51
338.431	16.93
338.642	17.14
338.852	15.92
339.063	14.86
339.273	13.34
339.484	15.12
339.694	13.5
339.905	14.79
340.115	14.24
340.326	13.37
340.536	15.41
340.746	15.97
340.957	16.43
341.167	16.53
341.378	17.12
341.588	17.39
341.799	16.67
342.009	16.75
342.219	15.76
342.43	16.17
342.64	15.64
342.85	13.95
343.061	13.36
343.271	12.88
343.481	12.69
343.691	12.35
343.902	14.14
344.112	14.11
344.322	13.59
344.532	14.72
344.743	15.75
344.953	16.36
345.163	17.25
345.373	17.62
345.583	17.17
345.793	17.3
346.004	17.26
346.214	15.58
346.424	15.08
346.634	14.76
346.844	14.45
347.054	14.16
347.264	13.21
347.474	14.32
347.684	13.65
347.894	13.81
348.104	13.61
348.314	13.22
348.524	13.87
348.734	14.86
348.944	15.75
349.154	15.29
349.364	15.43
349.574	15.46
349.784	14.94
349.994	15.26
350.204	15.34
350.413	15.78
350.623	16.26
350.833	16.41
351.043	15.88
351.253	15.84
351.463	15.34
351.672	14.35
351.882	15.05
352.092	15.02
352.302	15.91
352.511	15.65
352.721	15.73
352.931	15.38
353.141	14.8
353.35	14.83
353.56	15.41
353.77	15.58
353.979	16.2
354.189	14.94
354.399	13.28
354.608	12.66
354.818	12.44
355.027	12.13
355.237	12.01
355.447	11.8
355.656	11.9
355.866	11.61
356.075	11.56
356.285	10.95
356.494	11.56
356.704	12
356.913	11.49
357.123	11.9
357.332	11.84
357.542	11.09
357.751	11.07
357.96	10.89
358.17	11.15
358.379	11.23
358.589	10.76
358.798	11.22
359.007	11.32
359.217	10.46
359.426	10.39
359.635	10.7
359.845	10.89
360.054	11.47
360.263	11.62
360.472	10.88
360.682	11.49
360.891	12.1
361.1	11.57
361.309	10.74
361.519	11.27
361.728	11.05
361.937	10.73
362.146	11.6
362.355	11.72
362.564	12.14
362.774	12.99
362.983	12.48
363.192	12.83
363.401	13.96
363.61	15.01
363.819	16.12
364.028	15.93
364.237	16.01
364.446	15.45
364.655	15.17
364.864	14.99
365.073	15.03
365.282	14.97
365.491	15.03
365.7	14.28
365.909	14.18
366.118	12.97
366.327	14.02
366.536	15.14
366.745	14.95
366.954	14.97
367.162	15.64
367.371	15.13
367.58	15.23
367.789	14.49
367.998	13.77
368.207	13.99
368.415	15.43
368.624	14.81
368.833	13.55
369.042	13.35
369.25	13.5
369.459	12.42
369.668	12.1
369.877	12.56
370.085	13.27
370.294	13.5
370.503	12.91
370.711	11.6
370.92	11.47
371.129	12.89
371.337	13.42
371.546	12.32
371.754	12.43
371.963	11.99
372.171	11.44
372.38	10.6
372.589	11.36
372.797	11.74
373.006	12.3
373.214	13.11
373.423	11.57
373.631	12.11
373.84	12.6
374.048	11.09
374.256	11.56
374.465	12.29
374.673	12.66
374.882	12.28
375.09	11.23
375.298	11.2
375.507	10.55
375.715	10.32
375.923	8.69
376.132	8.43
376.34	9.94
376.548	10.37
376.757	10.54
376.965	11.09
377.173	11.01
377.381	12.15
377.59	12.41
377.798	12.24
378.006	12.34
378.214	13.35
378.423	13.79
378.631	13.41
378.839	12.54
379.047	12.42
379.255	12.13
379.463	11.6
379.671	11.64
379.879	11.07
380.088	11.55
380.296	12.02
380.504	12.26
380.712	12.23
380.92	12.01
381.128	12.82
381.336	11.87
381.544	11.94
381.752	11.6
381.96	11.41
382.168	11.93
382.376	11.26
382.584	10.71
382.791	9.91
382.999	10
383.207	9.59
383.415	9.5
383.623	9.34
383.831	8.44
384.039	9.54
384.247	9.77
384.454	10.11
384.662	9.88
384.87	9.55
385.078	9.53
385.285	9.3
385.493	9.96
385.701	9.84
385.909	10.42
386.116	10.34
386.324	9.93
386.532	9.87
386.739	8.96
386.947	8.94
387.155	9.87
387.362	9.92
387.57	9.38
387.778	9.44
387.985	8.79
388.193	8.73
388.4	9.01
388.608	9.66
388.816	8.95
389.023	8.74
389.231	9.34
389.438	9.12
389.646	9.06
389.853	9.41
390.061	9.13
390.268	9.67
390.475	9.24
390.683	8.46
390.89	7.9
391.098	7.75
391.305	8.48
391.512	7.98
391.72	6.71
391.927	7.07
392.135	7.49
392.342	7.31
392.549	7.39
392.756	7.45
392.964	8.78
393.171	8.81
393.378	9.19
393.586	8.7
393.793	8.45
394	9.58
394.207	9.66
394.414	9.82
394.622	9.98
394.829	10.01
395.036	10.2
395.243	9.34
395.45	9.35
395.657	9.54
395.864	9.68
396.072	10.71
396.279	10.55
396.486	10.22
396.693	10.19
396.9	10.62
397.107	10.25
397.314	9.91
397.521	10.18
397.728	10.08
397.935	9.55
398.142	9.08
398.349	8.83
398.556	8.82
398.763	8.91
398.97	8.87
399.177	8.3
399.383	8.89
399.59	9.42
399.797	9.21
400.004	9.64
400.211	9.9
400.418	10.81
400.625	11.1
400.831	10.67
401.038	10.61
401.245	10.19
401.452	10.86
401.658	10.7
401.865	10.94
402.072	10.53
402.279	9.73
402.485	9.89
402.692	9.52
402.899	8.67
403.105	9.2
403.312	9.44
403.519	9.32
403.725	8.11
403.932	7.83
404.138	7.04
404.345	7.55
404.552	7.79
404.758	7.86
404.965	7.42
405.171	7.91
405.378	7.92
405.584	7.68
405.791	8.1
405.997	8.85
406.204	8.82
406.41	9.27
406.617	8.83
406.823	8.99
407.029	8.58
407.236	8.6
407.442	8.7
407.649	8.4
407.855	8.69
408.061	8.43
408.268	8.52
408.474	8.51
408.68	8
408.887	8.4
409.093	8.5
409.299	8.77
409.505	8.76
409.712	8.23
409.918	7.96
410.124	7.59
410.33	7.08
410.537	6.94
410.743	7.03
410.949	7.61
411.155	7.55
411.361	7.77
411.567	7.63
411.773	7.8
411.98	8.13
412.186	8.02
412.392	7.81
412.598	7.88
412.804	8.09
413.01	8.05
413.216	8.44
413.422	8.2
413.628	7.39
413.834	7.44
414.04	8.02
414.246	7.57
414.452	8.27
414.658	8.86
414.864	9.39
415.07	9.28
415.275	9.39
415.481	8.98
415.687	9.01
415.893	9.19
416.099	9.28
416.305	9.1
416.511	9.34
416.716	8.89
416.922	8.65
417.128	7.93
417.334	8.19
417.539	7.67
417.745	7.4
417.951	7.09
418.157	6.98
418.362	6.63
418.568	6.15
418.774	5.94
418.979	6.02
419.185	5.65
419.391	6.1
419.596	5.6
419.802	5.8
420.008	5.48
420.213	5.36
420.419	5.2
420.624	5.19
420.83	5.38
421.035	5.36
421.241	4.9
421.446	5.15
421.652	4.9
421.857	4.86
422.063	4.91
422.268	5.11
422.474	5.34
422.679	5.29
422.885	5.38
423.09	5.21
423.295	5.17
423.501	5.52
423.706	5.27
423.911	5.22
424.117	5.28
424.322	5.12
424.527	5.17
424.733	5.09
424.938	5.3
425.143	5.11
425.349	5.13
425.554	5.35
425.759	5.22
425.964	5.47
426.169	5.61
426.375	5.64
426.58	5.54
426.785	5.37
426.99	5.64
427.195	5.7
427.4	5.77
427.605	5.92
427.811	5.7
428.016	5.85
428.221	6.15
428.426	6.19
428.631	6.35
428.836	6.47
429.041	6.82
429.246	7.11
429.451	7.18
429.656	7.2
429.861	6.99
430.066	6.88
430.271	7.13
430.476	6.42
430.681	6.35
430.886	6.27
431.09	6.34
431.295	6.1
431.5	5.56
431.705	5.38
431.91	5.48
432.115	5.41
432.32	5.61
432.524	5.38
432.729	5.61
432.934	5.59
433.139	5.59
433.343	5.28
433.548	5.13
433.753	5.11
433.958	5.59
434.162	5.74
434.367	5.83
434.572	5.99
434.776	5.92
434.981	6.02
435.186	5.84
435.39	5.72
435.595	6.3
435.799	6.47
436.004	6.33
436.209	5.72
436.413	5.26
436.618	5.39
436.822	5.43
437.027	5.43
437.231	4.92
437.436	5.05
437.64	5.06
437.845	4.82
438.049	4.85
438.253	5.29
438.458	5.25
438.662	5.64
438.867	5.31
439.071	5.02
439.275	5.06
439.48	5.54
439.684	5.64
439.888	5.72
440.093	6
440.297	5.96
440.501	5.76
440.706	5.95
440.91	6.09
441.114	6.22
441.318	6.67
441.523	6.72
441.727	6.75
441.931	6.85
442.135	6.65
442.339	6.32
442.543	6.32
442.748	6.52
442.952	6.54
443.156	6.3
443.36	6.22
443.564	5.9
443.768	5.64
443.972	5.65
444.176	5.22
444.38	5.37
444.584	5.44
444.788	5.16
444.992	4.98
445.196	4.83
445.4	4.91
445.604	4.97
445.808	4.84
446.012	5.03
446.216	4.91
446.42	5.11
446.624	5.51
446.828	5.24
447.032	5.55
447.235	5.71
447.439	5.7
447.643	5.4
447.847	5.6
448.051	5.8
448.254	5.8
448.458	5.75
448.662	5.82
448.866	5.63
449.069	5.84
449.273	5.85
449.477	5.74
449.681	5.8
449.884	5.65
450.088	5.66
450.292	5.55
450.495	5.56
450.699	5.28
450.902	5.36
451.106	5.01
451.31	5.34
451.513	5.34
451.717	5.15
451.92	5.24
452.124	5.78
452.327	5.93
452.531	5.87
452.734	5.94
452.938	6.22
453.141	6.01
453.345	6.26
453.548	5.88
453.752	5.86
453.955	6.45
454.158	6.32
454.362	6.15
454.565	5.92
454.769	5.97
454.972	6.23
455.175	6.21
455.379	6.46
455.582	5.92
455.785	6.11
455.988	6.11
456.192	5.85
456.395	6.06
456.598	6.26
456.801	5.93
457.005	5.66
457.208	5.51
457.411	5.52
457.614	5.62
457.817	6.02
458.021	6.07
458.224	6.02
458.427	5.81
458.63	5.85
458.833	5.57
459.036	5.66
459.239	5.76
459.442	5.55
459.645	5.63
459.848	5.68
460.051	5.54
460.254	5.47
460.457	5.39
460.66	5.43
460.863	5.24
461.066	5.33
461.269	5.31
461.472	5.23
461.675	5.46
461.878	5.44
462.081	5.36
462.284	5.19
462.486	5.26
462.689	5.47
462.892	5.69
463.095	5.94
463.298	6.41
463.5	6.56
463.703	6.98
463.906	6.59
464.109	6.72
464.311	6.76
464.514	7.1
464.717	7.02
464.92	6.65
465.122	6.64
465.325	6.34
465.528	6.14
465.73	6.05
465.933	5.95
466.135	6.41
466.338	6.15
466.541	5.7
466.743	5.6
466.946	5.37
467.148	5.83
467.351	5.5
467.553	5.59
467.756	5.77
467.958	6.05
468.161	6.03
468.363	6.06
468.566	6.04
468.768	6.17
468.971	6.24
469.173	6.31
469.375	6
469.578	6.39
469.78	6.28
469.983	6.1
470.185	6.12
470.387	6.49
470.59	6.09
470.792	6.13
470.994	5.81
471.196	5.77
471.399	6.13
471.601	6.1
471.803	5.94
472.005	5.96
472.208	5.68
472.41	5.17
472.612	4.76
472.814	4.85
473.016	4.8
473.218	5.12
473.421	5.07
473.623	4.81
473.825	5.13
474.027	5.25
474.229	5.34
474.431	5.36
474.633	5.84
474.835	5.97
475.037	6.01
475.239	5.88
475.441	5.88
475.643	6.22
475.845	5.92
476.047	5.63
476.249	5.4
476.451	5.33
476.653	5.06
476.855	4.81
477.057	4.6
477.258	4.62
477.46	4.83
477.662	4.85
477.864	4.54
478.066	4.89
478.268	5.1
478.469	4.97
478.671	4.86
478.873	5.09
479.075	5.14
479.276	5.23
479.478	5.17
479.68	5.09
479.882	4.97
480.083	4.72
480.285	5
480.487	5.03
480.688	5.42
480.89	5.38
481.091	5.62
481.293	5.5
481.495	5.3
481.696	5.26
481.898	5.17
482.099	5.15
482.301	5.14
482.502	4.85
482.704	4.62
482.905	4.49
483.107	4.57
483.308	4.39
483.51	4.32
483.711	4.33
483.913	4.22
484.114	4.2
484.315	4.22
484.517	4.13
484.718	4.2
484.92	4.26
485.121	4.15
485.322	4.14
485.524	4.17
485.725	4.26
485.926	4.25
486.127	4.26
486.329	4.21
486.53	4.18
486.731	4.21
486.932	4.03
487.134	3.98
487.335	4.06
487.536	4.02
487.737	4.05
487.938	4.05
488.139	4
488.341	4.1
488.542	4.13
488.743	4.15
488.944	4.31
489.145	4.42
489.346	4.49
489.547	4.6
489.748	4.55
489.949	4.46
490.15	4.53
490.351	4.58
490.552	4.55
490.753	4.65
490.954	4.5
491.155	4.57
491.356	4.65
491.557	4.67
491.758	4.52
491.959	4.54
492.159	4.78
492.36	4.72
492.561	4.87
492.762	5.02
492.963	4.99
493.164	5.26
493.364	5.03
493.565	5.01
493.766	5.06
493.967	5.22
494.167	5.35
494.368	5.04
494.569	4.93
494.769	4.9
494.97	4.76
495.171	4.89
495.371	4.97
495.572	5.16
495.773	5.09
495.973	4.99
496.174	4.86
496.375	4.81
496.575	4.94
496.776	4.74
496.976	4.55
497.177	4.54
497.377	4.55
497.578	4.38
497.778	4.38
497.979	4.58
498.179	4.5
498.38	4.66
498.58	4.97
498.78	4.89
498.981	5.03
499.181	5.27
499.382	5.31
499.582	5.33
499.782	5.43
499.983	5.74
500.183	5.62
500.383	5.62
500.584	5.52
500.784	5.2
500.984	5.1
501.184	5.36
501.385	5.1
501.585	4.96
501.785	5.07
501.985	5.13
502.185	5.09
502.386	5.16
502.586	5.2
502.786	5.36
502.986	5.45
503.186	5.6
503.386	5.67
503.586	5.74
503.786	5.87
503.987	5.53
504.187	5.57
504.387	5.85
504.587	5.74
504.787	5.85
504.987	5.82
505.187	6.02
505.387	6.08
505.587	5.92
505.786	6.14
505.986	6.31
506.186	6.47
506.386	6.62
506.586	6.35
506.786	6.54
506.986	6.72
507.186	7.01
507.386	6.81
507.585	7.05
507.785	7.13
507.985	7
508.185	6.72
508.384	6.76
508.584	6.62
508.784	6.36
508.984	6.08
509.183	6.12
509.383	5.9
509.583	5.77
509.782	5.82
509.982	5.82
510.182	6.02
510.381	6.31
510.581	6.4
510.781	6.31
510.98	6.59
511.18	6.77
511.379	6.48
511.579	6.27
511.778	6.41
511.978	6.19
512.177	6.16
512.377	6.11
512.576	5.96
512.776	6.05
512.975	6.06
513.175	6.16
513.374	6.36
513.573	6.59
513.773	6.83
513.972	6.79
514.172	6.82
514.371	7.21
514.57	7.13
514.77	7.26
514.969	7.28
515.168	7.37
515.367	7.17
515.567	7.39
515.766	7.38
515.965	7.65
516.164	7.92
516.364	8.01
516.563	7.83
516.762	7.97
516.961	7.93
517.16	7.99
517.359	8.27
517.559	8.56
517.758	8.4
517.957	8.53
518.156	8.54
518.355	8.46
518.554	8.52
518.753	8.6
518.952	8.7
519.151	8.87
519.35	8.91
519.549	8.74
519.748	8.81
519.947	8.89
520.146	9.2
520.345	9.2
520.544	9.11
520.743	9.25
520.942	9.47
521.141	9.36
521.339	9.36
521.538	9.16
521.737	9.15
521.936	8.73
522.135	8.45
522.333	8.26
522.532	8.23
522.731	8.38
522.93	8.29
523.129	8.08
523.327	8.22
523.526	8.54
523.725	8.82
523.923	9.2
524.122	9.22
524.321	9.53
524.519	9.55
524.718	9.69
524.917	9.96
525.115	10.26
525.314	10.32
525.512	10.34
525.711	10.19
525.909	10.27
526.108	10.17
526.306	10.43
526.505	10.37
526.703	10.28
526.902	10.22
527.1	10.07
527.299	10.03
527.497	10.06
527.696	10.11
527.894	10.14
528.092	10
528.291	10.01
528.489	9.99
528.688	10.01
528.886	10.08
529.084	10.12
529.283	10.19
529.481	10.03
529.679	10.14
529.877	10.22
530.076	10.35
530.274	10.66
530.472	10.79
530.67	10.85
530.869	10.96
531.067	10.98
531.265	10.99
531.463	11.09
531.661	11.32
531.859	11.31
532.057	11.3
532.255	11.4
532.454	11.19
532.652	11.16
532.85	11.21
533.048	11.25
533.246	11.26
533.444	11.41
533.642	11.57
533.84	11.58
534.038	11.5
534.236	11.55
534.434	11.44
534.632	11.56
534.83	11.75
535.027	11.86
535.225	11.95
535.423	12.36
535.621	12.49
535.819	12.35
536.017	12.19
536.215	12.26
536.412	12.33
536.61	12.55
536.808	12.77
537.006	12.77
537.203	12.99
537.401	13
537.599	12.94
537.797	12.94
537.994	12.92
538.192	13.24
538.39	13.48
538.587	13.56
538.785	13.51
538.983	13.52
539.18	13.48
539.378	13.28
539.575	13.31
539.773	13.18
539.97	13.25
540.168	13.48
540.366	13.52
540.563	13.6
540.761	13.54
540.958	13.53
541.155	13.51
541.353	13.62
541.55	13.65
541.748	13.73
541.945	13.87
542.143	13.74
542.34	13.76
542.537	13.64
542.735	13.61
542.932	13.68
543.129	13.83
543.327	13.92
543.524	13.78
543.721	13.75
543.919	13.87
544.116	13.94
544.313	14.19
544.51	14.17
544.708	14.58
544.905	14.65
545.102	14.88
545.299	14.94
545.496	14.87
545.693	15.11
545.891	15.45
546.088	15.67
546.285	15.7
546.482	15.78
546.679	15.84
546.876	15.94
547.073	16.06
547.27	15.81
547.467	15.87
547.664	16.01
547.861	16.17
548.058	16.02
548.255	15.72
548.452	15.95
548.649	15.99
548.846	16.11
549.043	15.78
549.24	15.93
549.437	15.9
549.633	15.97
549.83	15.96
550.027	15.97
550.224	16.05
550.421	16.41
550.618	16.32
550.814	16.03
551.011	16.03
551.208	16.01
551.405	15.93
551.601	16.39
551.798	16.27
551.995	16.3
552.191	16.27
552.388	16.5
552.585	16.34
552.781	16.47
552.978	16.72
553.175	16.53
553.371	16.58
553.568	16.59
553.764	16.48
553.961	16.33
554.157	16.64
554.354	16.49
554.55	16.61
554.747	16.74
554.943	16.5
555.14	16.79
555.336	17.35
555.533	17.58
555.729	17.48
555.926	17.85
556.122	18.21
556.318	18.23
556.515	18.56
556.711	18.42
556.907	18.46
557.104	18.69
557.3	18.48
557.496	18.06
557.693	18.24
557.889	18.77
558.085	18.49
558.281	18.61
558.478	18.43
558.674	18.5
558.87	18.37
559.066	18.52
559.262	18.38
559.459	18.54
559.655	19.03
559.851	19.13
560.047	18.56
560.243	18.62
560.439	18.63
560.635	18.46
560.831	18.53
561.027	18.63
561.223	18.81
561.419	19.1
561.615	19.21
561.811	18.7
562.007	18.66
562.203	19.04
562.399	18.88
562.595	18.9
562.791	18.99
562.987	19.18
563.183	19.46
563.379	19.39
563.575	19.61
563.771	19.27
563.966	19.53
564.162	19.39
564.358	19.39
564.554	19.58
564.75	19.44
564.945	19.44
565.141	18.83
565.337	18.62
565.533	18.44
565.728	18.03
565.924	18.19
566.12	18.37
566.315	18.55
566.511	18.53
566.707	18.4
566.902	18.67
567.098	18.79
567.293	19.42
567.489	19.26
567.684	19.23
567.88	19.13
568.076	19.08
568.271	18.84
568.467	18.45
568.662	18.57
568.858	18.75
569.053	18.66
569.248	18.39
569.444	18.16
569.639	18.24
569.835	18.22
570.03	18.59
570.225	18.8
570.421	18.91
570.616	18.98
570.812	18.72
571.007	18.77
571.202	18.49
571.397	18.88
571.593	18.93
571.788	19.02
571.983	19.14
572.178	18.94
572.374	18.95
572.569	18.95
572.764	19.41
572.959	19.58
573.154	19.66
573.35	20.03
573.545	19.98
573.74	20.02
573.935	20.08
574.13	20.14
574.325	20.53
574.52	20.6
574.715	20.85
574.91	20.55
575.105	20.5
575.3	20.7
575.495	20.47
575.69	20.37
575.885	20.53
576.08	20.48
576.275	20.57
576.47	20.36
576.665	20.49
576.86	20.43
577.055	20.53
577.25	20.95
577.444	20.43
577.639	20.44
577.834	20.65
578.029	20.57
578.224	20.96
578.418	21.15
578.613	21.08
578.808	20.93
579.003	20.86
579.197	20.91
579.392	20.78
579.587	20.94
579.781	21.17
579.976	21.42
580.171	21.23
580.365	20.64
580.56	20.57
580.755	20.67
580.949	20.8
581.144	21
581.338	20.61
581.533	20.52
581.727	20.79
581.922	20.63
582.116	20.64
582.311	20.74
582.505	21.42
582.7	21.02
582.894	21.31
583.089	21.04
583.283	21.06
583.478	21.84
583.672	21.79
583.866	21.69
584.061	21.72
584.255	21.34
584.449	21.15
584.644	21.02
584.838	21.66
585.032	21.71
585.226	21.73
585.421	21.64
585.615	21.72
585.809	22.08
586.003	22.3
586.198	22.6
586.392	23.08
586.586	23.31
586.78	23.05
586.974	22.59
587.168	22.1
587.363	22.16
587.557	22.07
587.751	21.71
587.945	21.65
588.139	21.56
588.333	21.2
588.527	21.11
588.721	21.48
588.915	21.4
589.109	21.37
589.303	21.89
589.497	21.45
589.691	21.63
589.885	21.59
590.079	21.59
590.273	21.31
590.466	21.34
590.66	21.48
590.854	21.26
591.048	21.47
591.242	21.4
591.436	21.02
591.629	21.45
591.823	21.4
592.017	21.25
592.211	21.64
592.404	22.36
592.598	22.14
592.792	21.41
592.986	21.75
593.179	21.65
593.373	21.91
593.567	22.19
593.76	22.25
593.954	21.99
594.147	22.04
594.341	21.71
594.535	21.43
594.728	21.93
594.922	22.24
595.115	21.81
595.309	21.86
595.502	22.15
595.696	21.91
595.889	22.11
596.083	22.02
596.276	22.26
596.47	21.83
596.663	21.79
596.856	21.67
597.05	21.64
597.243	21.51
597.437	21.54
597.63	21.35
597.823	21.65
598.017	21.39
598.21	21.5
598.403	21.4
598.596	21.6
598.79	21.65
598.983	21.62
599.176	21.58
599.369	21.89
599.563	21.85
599.756	22.01
599.949	21.93
600.142	22.11
600.335	22.51
600.528	22.77
600.722	23.02
600.915	22.62
601.108	22.57
601.301	22.57
601.494	22.58
601.687	22.65
601.88	22.31
602.073	22.48
602.266	22.31
602.459	22.19
602.652	21.75
602.845	21.66
603.038	21.82
603.231	21.91
603.424	21.81
603.617	21.81
603.809	21.85
604.002	21.88
604.195	21.67
604.388	21.92
604.581	22.05
604.774	22.42
604.966	22.26
605.159	22.4
605.352	22.08
605.545	22.22
605.737	21.88
605.93	22.28
606.123	22.58
606.316	22.47
606.508	22
606.701	21.82
606.894	21.99
607.086	21.93
607.279	22.16
607.471	22.59
607.664	22.78
607.857	23.51
608.049	22.94
608.242	22.86
608.434	23.27
608.627	23.4
608.819	23.4
609.012	23.08
609.204	23.47
609.397	23.22
609.589	23.38
609.782	23.56
609.974	23.36
610.166	23.17
610.359	22.84
610.551	22.93
610.743	23.36
610.936	23.26
611.128	23.01
611.32	22.76
611.513	22.48
611.705	22.05
611.897	22.04
612.09	21.75
612.282	22.29
612.474	22.86
612.666	22.45
612.858	22.16
613.051	22.31
613.243	22.86
613.435	23.4
613.627	23.85
613.819	24.37
614.011	24.56
614.203	25.01
614.395	24.47
614.588	23.85
614.78	23.93
614.972	23.86
615.164	24.26
615.356	24.17
615.548	23.7
615.74	24.45
615.932	24.19
616.124	23.71
616.315	23.42
616.507	23.86
616.699	24.42
616.891	24.61
617.083	25.05
617.275	25.17
617.467	25.07
617.659	25.17
617.85	24.88
618.042	24.86
618.234	25.23
618.426	25.09
618.618	24.79
618.809	24.6
619.001	23.96
619.193	23.89
619.384	23.78
619.576	23.61
619.768	23.4
619.959	22.48
620.151	22.43
620.343	22.13
620.534	22.5
620.726	22.06
620.917	21.95
621.109	22.68
621.301	23.17
621.492	23.14
621.684	23.93
621.875	24.45
622.067	24.84
622.258	24.91
622.45	25.02
622.641	24.76
622.832	25.67
623.024	25.75
623.215	25.66
623.407	24.95
623.598	24.97
623.789	24.04
623.981	24.27
624.172	24.31
624.363	23.99
624.555	23.82
624.746	23.32
624.937	23.13
625.129	23.41
625.32	23.32
625.511	23.8
625.702	23.47
625.893	23.73
626.085	23.04
626.276	23.5
626.467	23.48
626.658	23.95
626.849	24.39
627.04	24.64
627.231	24.51
627.422	24.74
627.614	24.8
627.805	24.82
627.996	24.85
628.187	25.11
628.378	25.29
628.569	26.22
628.76	26.49
628.951	26.48
629.142	26.32
629.332	26.41
629.523	26.15
629.714	26.26
629.905	26.14
630.096	26.27
630.287	26.92
630.478	26.04
630.669	25.82
630.859	25.74
631.05	26.03
631.241	26.37
631.432	26.23
631.623	26.56
631.813	26.06
632.004	26.3
632.195	25.93
632.385	25.66
632.576	26.32
632.767	26.01
632.957	25.73
633.148	25.82
633.339	25.38
633.529	25.64
633.72	25.43
633.91	25.82
634.101	25.74
634.292	26.15
634.482	25.73
634.673	25.7
634.863	26.38
635.054	26.65
635.244	26.56
635.435	26.9
635.625	26.8
635.815	26.82
636.006	26.68
636.196	27.09
636.387	27.08
636.577	27.18
636.767	26.73
636.958	26.47
637.148	26.21
637.338	26.63
637.529	26.43
637.719	26.51
637.909	26.21
638.099	26.44
638.29	26.38
638.48	26.59
638.67	26.78
638.86	27.4
639.05	26.89
639.241	27.27
639.431	26.99
639.621	27.53
639.811	28.03
640.001	28.4
640.191	27.65
640.381	27.77
640.571	28.23
640.761	27.8
640.951	27.49
641.141	27.27
641.331	26.92
641.521	26.34
641.711	26.67
641.901	25.88
642.091	25.84
642.281	26.35
642.471	25.88
642.661	25.24
642.851	26.04
643.041	26.4
643.231	27.21
643.42	26.74
643.61	27.87
643.8	27.29
643.99	27.36
644.18	27.69
644.369	27.39
644.559	27.63
644.749	27.99
644.939	27.61
645.128	27.41
645.318	27.17
645.508	27.7
645.697	27.58
645.887	27.07
646.076	27.05
646.266	26.77
646.456	27.24
646.645	28.09
646.835	27.64
647.024	27.32
647.214	27.39
647.403	27.38
647.593	27.38
647.782	27.5
647.972	27.7
648.161	27.74
648.351	27.89
648.54	27.88
648.73	27.29
648.919	27.33
649.108	27.61
649.298	27.57
649.487	27.29
649.677	28.16
649.866	27.47
650.055	27.62
650.244	27.83
650.434	26.95
650.623	26.94
650.812	26.9
651.002	27.3
651.191	27.49
651.38	27.48
651.569	27.79
651.758	26.67
651.947	27.22
652.137	27.43
652.326	27.19
652.515	27.65
652.704	27.73
652.893	27.44
653.082	26.92
653.271	27.25
653.46	27.21
653.649	26.87
653.838	26.99
654.027	26.85
654.216	26.4
654.405	26.67
654.594	27.09
654.783	27.31
654.972	27.6
655.161	27.69
655.35	26.83
655.539	27.15
655.728	27.87
655.916	27.39
656.105	27.35
656.294	27.2
656.483	27.49
656.672	27.48
656.86	26.68
657.049	27.1
657.238	26.5
657.427	27.29
657.615	26.63
657.804	26.66
657.993	26.6
658.181	26.24
658.37	27.42
658.559	27.39
658.747	27.14
658.936	27.98
659.125	28.75
659.313	29.27
659.502	29.32
659.69	29.42
659.879	29.21
660.067	29.73
660.256	30.21
660.444	29.51
660.633	29.77
660.821	29.76
661.01	28.69
661.198	27.6
661.387	27.99
661.575	27.74
661.763	28.33
661.952	28.22
662.14	28.42
662.328	28.97
662.517	29.19
662.705	28.69
662.893	28.94
663.082	29.27
663.27	29.02
663.458	27.82
663.646	27.65
663.834	28.05
664.023	28.53
664.211	28.74
664.399	27.79
664.587	26.96
664.775	26.82
664.963	27.03
665.152	27.79
665.34	27.97
665.528	28.66
665.716	29.17
665.904	28.59
666.092	28.42
666.28	29.28
666.468	29.5
666.656	29.92
666.844	29.77
667.032	30.38
667.22	29.62
667.408	29.77
667.596	29.4
667.784	29.66
667.971	29.58
668.159	28.82
668.347	27.38
668.535	26.99
668.723	27.8
668.911	28.83
669.098	28.65
669.286	28.66
669.474	28.25
669.662	29.83
669.849	29.99
670.037	30.37
670.225	30.92
670.413	31
670.6	31.77
670.788	31
670.976	30.66
671.163	30.64
671.351	30.9
671.538	31.6
671.726	30.39
671.913	29.85
672.101	29.71
672.289	30.27
672.476	30.89
672.664	30.18
672.851	30.22
673.039	29.67
673.226	29.07
673.413	29.24
673.601	29.05
673.788	29.12
673.976	28.46
674.163	28.27
674.35	27.23
674.538	27.28
674.725	28.67
674.912	29.32
675.1	29.09
675.287	28.98
675.474	29.94
675.662	29.39
675.849	29.8
676.036	30.01
676.223	31.34
676.411	31.94
676.598	31.48
676.785	31.12
676.972	30.57
677.159	31.37
677.346	31.78
677.533	31.14
677.721	31.8
677.908	31.39
678.095	32.43
678.282	31.65
678.469	31.45
678.656	30.83
678.843	30.3
679.03	29.94
679.217	29.71
679.404	29.76
679.591	29.45
679.778	29.47
679.964	29.68
680.151	29.59
680.338	29.23
680.525	29.33
680.712	30.62
680.899	30.41
681.086	30.93
681.272	31.02
681.459	31.59
681.646	32.2
681.833	31.71
682.02	31.87
682.206	31.51
682.393	31.53
682.58	31.98
682.766	30.41
682.953	30.16
683.14	29.94
683.326	29.75
683.513	29.41
683.7	28.08
683.886	28.69
684.073	28.88
684.259	28.7
684.446	29.47
684.632	29.27
684.819	30.13
685.005	30.67
685.192	31.11
685.378	31.08
685.565	31.18
685.751	31.72
685.938	31.27
686.124	30.93
686.31	31.54
686.497	31.29
686.683	31.58
686.87	31.53
687.056	31.41
687.242	31.58
687.429	32.14
687.615	30.63
687.801	31.77
687.987	31.88
688.174	32.38
688.36	32.51
688.546	32.26
688.732	31.81
688.918	32.34
689.105	32.96
689.291	32.96
689.477	32.89
689.663	34.37
689.849	34.79
690.035	34.92
690.221	34.66
690.407	34.93
690.593	35.14
690.779	35.18
690.965	34.41
691.151	34.06
691.337	33.76
691.523	34.52
691.709	34.15
691.895	32.83
692.081	33.53
692.267	33.67
692.453	32.87
692.639	32.15
692.825	33.17
693.011	33.08
693.196	33.22
693.382	34.31
693.568	34.17
693.754	34.22
693.94	34.31
694.125	33.53
694.311	33.3
694.497	33.19
694.682	34.05
694.868	33.59
695.054	34.98
695.239	35.05
695.425	34
695.611	32.11
695.796	31.84
695.982	31.68
696.168	31.39
696.353	31.37
696.539	31.83
696.724	31.71
696.91	31.98
697.095	31.49
697.281	31.28
697.466	31.22
697.652	31.64
697.837	31.56
698.023	31.91
698.208	31.94
698.393	32.21
698.579	31.63
698.764	31.5
698.949	30.73
699.135	31.04
699.32	31.2
699.505	31.51
699.691	31.71
699.876	31.82
700.061	31.58
700.246	31.23
700.432	30.81
700.617	31.61
700.802	31.04
700.987	32.14
701.172	32.02
701.358	32.82
701.543	32.63
701.728	33.22
701.913	33.38
702.098	33.72
702.283	35.04
702.468	35.77
702.653	35.24
702.838	37.16
703.023	36.88
703.208	35.78
703.393	35.08
703.578	34.81
703.763	35.28
703.948	35.13
704.133	34.52
704.318	35.28
704.503	34
704.688	35.07
704.873	33.73
705.057	34.76
705.242	35.49
705.427	35.73
705.612	37.96
705.797	37.83
705.981	38.25
706.166	38.07
706.351	35.98
706.536	37.05
706.72	36.41
706.905	36.8
707.09	36.11
707.274	36.15
707.459	35.18
707.644	32.77
707.828	33.39
708.013	34.01
708.197	34.64
708.382	35.91
708.567	36.48
708.751	35.4
708.936	35.71
709.12	34.97
709.305	34.78
709.489	35.46
709.673	36.36
709.858	35.79
710.042	34.68
710.227	33.86
710.411	33.45
710.596	33.25
710.78	34.24
710.964	33.56
711.149	33.03
711.333	33.28
711.517	33.75
711.702	33.97
711.886	32.75
712.07	33.83
712.254	35.53
712.438	35.25
712.623	35.52
712.807	34.59
712.991	33.64
713.175	33.95
713.359	34.33
713.544	33.99
713.728	33.71
713.912	34.86
714.096	35.93
714.28	33.91
714.464	34.75
714.648	33.53
714.832	33.74
715.016	34.11
715.2	33.78
715.384	33.36
715.568	32.73
715.752	32.57
715.936	32.51
716.12	31.03
716.304	31.18
716.488	30.27
716.671	30.98
716.855	31.1
717.039	31.09
717.223	31.99
717.407	33.38
717.59	33.58
717.774	34.21
717.958	34.22
718.142	33.55
718.325	34.39
718.509	34.64
718.693	34.16
718.877	34.93
719.06	36.65
719.244	36.82
719.428	36.56
719.611	37.85
719.795	37.74
719.978	38.03
720.162	39.07
720.345	39.83
720.529	39.42
720.713	40.82
720.896	39.56
721.08	39.29
721.263	39.64
721.446	38.82
721.63	39.73
721.813	38.58
721.997	38.33
722.18	38.64
722.364	38.69
722.547	39.74
722.73	38.44
722.914	39.42
723.097	39.03
723.28	40.15
723.464	42.4
723.647	41.04
723.83	41.73
724.013	41.76
724.197	40.36
724.38	40.05
724.563	39.18
724.746	40.05
724.929	39.82
725.112	41.12
725.296	40.98
725.479	38.4
725.662	38.04
725.845	38.59
726.028	38.35
726.211	38.74
726.394	39.79
726.577	39.93
726.76	40.08
726.943	40.25
727.126	38.79
727.309	36.59
727.492	38.89
727.675	38.94
727.858	39.03
728.041	39.34
728.224	39.35
728.407	38.2
728.589	38.86
728.772	37.79
728.955	38.05
729.138	38.44
729.321	39.29
729.503	37.69
729.686	37.3
729.869	36.62
730.052	37.06
730.234	37.67
730.417	37.76
730.6	38.14
730.782	38.63
730.965	37.5
731.148	36.57
731.33	36.47
731.513	37.15
731.695	37.14
731.878	38.33
732.061	37.6
732.243	36.61
732.426	35.86
732.608	35.62
732.791	35.77
732.973	35.92
733.156	38.37
733.338	39.55
733.52	38.97
733.703	39.48
733.885	37.86
734.068	38.4
734.25	38.87
734.432	40.9
734.615	40.55
734.797	40.43
734.979	41.61
735.162	40.03
735.344	39.09
735.526	38.85
735.708	38.2
735.891	36.6
736.073	36.43
736.255	37.21
736.437	36.21
736.619	37.8
736.802	37.29
736.984	35.8
737.166	36.15
737.348	35.6
737.53	36.72
737.712	36.15
737.894	37.13
738.076	35.97
738.258	35.48
738.44	35.67
738.622	34.89
738.804	36.33
738.986	37.1
739.168	38.05
739.35	37.42
739.532	37.77
739.714	39.6
739.896	39.94
740.078	41.57
740.259	42.85
740.441	44.03
740.623	43.42
740.805	42.62
740.987	43.41
741.168	41.88
741.35	43.29
741.532	43.36
741.714	42.42
741.895	42.98
742.077	41.25
742.259	40.11
742.44	38.71
742.622	40.67
742.804	41.74
742.985	41.1
743.167	41.38
743.348	42.95
743.53	39.88
743.711	41.39
743.893	42.35
744.075	43.41
744.256	45.35
744.438	45.42
744.619	43.62
744.8	44.12
744.982	47.19
745.163	50.16
745.345	48.67
745.526	50.83
745.707	50.13
745.889	49.7
746.07	51.94
746.252	50.45
746.433	48.98
746.614	51.08
746.795	48.77
746.977	48.34
747.158	46.24
747.339	44.76
747.52	45.71
747.702	46.42
747.883	47.14
748.064	45.36
748.245	46.93
748.426	48.32
748.607	45.41
748.788	49.8
748.97	46.64
749.151	46.2
749.332	47.98
749.513	47.5
749.694	48.63
749.875	50.07
750.056	51.57
750.237	50.14
750.418	50.8
750.599	55.48
750.78	51.27
750.96	52.58
751.141	51.97
751.322	50.33
751.503	48.53
751.684	47.54
751.865	45.33
752.046	43.97
752.226	42.67
752.407	40.46
752.588	36.58
752.769	36.15
752.949	36.24
753.13	35.57
753.311	36.67
753.492	38.03
753.672	38.11
753.853	38.98
754.034	40.15
754.214	39.56
754.395	43.19
754.575	44.75
754.756	45.65
754.937	47.23
755.117	48.24
755.298	50.83
755.478	52.58
755.659	52.8
755.839	52.52
756.02	50.63
756.2	52.84
756.381	50.42
756.561	49.05
756.741	50.04
756.922	49.69
757.102	51.93
757.283	49.48
757.463	48.04
757.643	46.2
757.823	44.31
758.004	44.38
758.184	43.42
758.364	43.38
758.545	45.06
758.725	43.97
758.905	45
759.085	43.65
759.265	43.04
759.446	41.51
759.626	40.25
759.806	40.43
759.986	39.91
760.166	41.15
760.346	41.54
760.526	39.3
760.706	40.75
760.886	39.61
761.066	40.6
761.246	40.42
761.426	40.95
761.606	40.54
761.786	40.95
761.966	41.67
762.146	40.86
762.326	39.77
762.506	39.65
762.686	39.03
762.866	38.64
763.046	36.34
763.225	35.52
763.405	35.16
763.585	35.85
763.765	35.97
763.945	36.47
764.124	36.51
764.304	38.43
764.484	39.41
764.664	38.35
764.843	38.18
765.023	39.77
765.203	40.07
765.382	41.84
765.562	42.88
765.741	42.91
765.921	41.88
766.101	43.89
766.28	44.32
766.46	44.06
766.639	45.09
766.819	44.88
766.998	44.22
767.178	44
767.357	42.29
767.537	43.77
767.716	44.11
767.896	43.58
768.075	38.98
768.254	36.22
768.434	37.34
768.613	37.61
768.792	39.75
768.972	41.29
769.151	43.74
769.33	44.81
769.51	42.73
769.689	46.5
769.868	48.5
770.047	51.76
770.226	48.01
770.406	46.35
770.585	45.63
770.764	45.19
770.943	44.57
771.122	46.02
771.301	46.18
771.48	47.74
771.66	46.3
771.839	46.48
772.018	49.06
772.197	55.82
772.376	57.8
772.555	58.9
772.734	57.59
772.913	58.82
773.092	56.63
773.271	58.2
773.449	56.8
773.628	54.07
773.807	55.17
773.986	50.95
774.165	50.71
774.344	52.4
774.523	51.91
774.701	53.49
774.88	53.8
775.059	50.9
775.238	52.21
775.417	51
775.595	53.35
775.774	50.69
775.953	49.08
776.131	45.71
776.31	42.5
776.489	41.18
776.667	39.81
776.846	36.53
777.025	41.07
777.203	38.78
777.382	41.02
777.56	41.5
777.739	42.72
777.917	44.28
778.096	47.94
778.274	49.24
778.453	49.77
778.631	51.38
778.81	54.17
778.988	53.81
779.166	52.08
779.345	52.2
779.523	50.79
779.702	52.09
779.88	54.23
780.058	52.64
780.237	51.37
780.415	51.39
780.593	50.55
780.771	53.06
780.95	53.07
781.128	56.18
781.306	56.58
781.484	57.61
781.662	57.48
781.841	58.55
782.019	56.81
782.197	57.61
782.375	56.48
782.553	55.82
782.731	54.18
782.909	54.26
783.087	56.46
783.265	55.64
783.443	58.13
783.621	57.16
783.799	57.29
783.977	59.33
784.155	63.04
784.333	65.39
784.511	66.9
784.689	68.73
784.867	67.45
785.045	66.54
785.223	65.28
785.4	61.33
785.578	61.13
785.756	58.6
785.934	58.12
786.112	57.02
786.289	57.18
786.467	55.18
786.645	52.96
786.823	52.22
787	52.22
787.178	54.52
787.356	55.87
787.533	55.64
787.711	57.27
787.889	59.46
788.066	56.81
788.244	59.49
788.421	60.91
788.599	61.5
788.776	62.27
788.954	59.33
789.131	54.68
789.309	53.29
789.486	54.25
789.664	51.06
789.841	48.43
790.019	50.95
790.196	46.06
790.373	46.39
790.551	49.17
790.728	54.37
790.906	54.69
791.083	60.37
791.26	61.23
791.437	56.75
791.615	61.2
791.792	57.51
791.969	57.23
792.146	58.51
792.324	56.06
792.501	55.55
792.678	50.48
792.855	49.8
793.032	46.94
793.209	46.09
793.387	50.25
793.564	48.56
793.741	56.88
793.918	58.64
794.095	59.04
794.272	65.05
794.449	61.36
794.626	63.32
794.803	63.22
794.98	61.04
795.157	64.06
795.334	59.89
795.511	57.71
795.688	52.87
795.864	50.22
796.041	51.39
796.218	51.03
796.395	49.14
796.572	47.24
796.749	46.99
796.925	48.66
797.102	46.95
797.279	48.66
797.456	52.07
797.632	49.86
797.809	49.5
797.986	48.61
798.162	46.18
798.339	52.17
798.516	54.82
798.692	56.2
798.869	61.9
799.046	64.26
799.222	65.41
799.399	62.63
799.575	66.48
799.752	64.99
799.928	62.53
800.105	59.11
800.281	63.25
800.458	62.96
800.634	60.16
800.811	58.74
800.987	59.74
801.163	60.04
801.34	58.85
801.516	59.34
801.692	61.4
801.869	65.95
802.045	67.9
802.221	61.27
802.398	60.16
802.574	60.23
802.75	56.9
802.926	55.2
803.103	56.8
803.279	51.22
803.455	46.28
803.631	47.08
803.807	44.93
803.983	49.52
804.16	52.42
804.336	56.72
804.512	59.38
804.688	67.59
804.864	63.9
805.04	63.59
805.216	73.72
805.392	75.05
805.568	75.14
805.744	74.04
805.92	69.09
806.096	67.23
806.272	71.68
806.448	72.56
806.623	70.93
806.799	77.09
806.975	75.51
807.151	74.73
807.327	81.96
807.503	80.85
807.678	78.99
807.854	84.59
808.03	81.89
808.206	76.79
808.381	74.8
808.557	66.86
808.733	67.99
808.908	68.31
809.084	67.94
809.26	63.25
809.435	61.95
809.611	62.81
809.787	56.1
809.962	58.54
810.138	55.82
810.313	62.35
810.489	63.12
810.664	59.78
810.84	59.52
811.015	57.09
811.191	56.95
811.366	60.74
811.542	66.13
811.717	68.22
811.892	66.58
812.068	67.06
812.243	64.94
812.419	75.28
812.594	71.05
812.769	72.15
812.944	81.12
813.12	83.5
813.295	84.97
813.47	79.29
813.645	79.63
813.821	83.44
813.996	89.19
814.171	86.92
814.346	78.66
814.521	81.82
814.697	79.71
814.872	68.54
815.047	71.24
815.222	65.41
815.397	66.9
815.572	71.75
815.747	71.92
815.922	63.46
816.097	61.91
816.272	60.06
816.447	54.13
816.622	52.68
816.797	56.84
816.972	54.29
817.147	52.11
817.322	52.29
817.496	50.23
817.671	47.38
817.846	53.59
818.021	54.87
818.196	52.7
818.371	57.83
818.545	59.55
818.72	56.85
818.895	54.45
819.069	57.12
819.244	56.3
819.419	58.01
819.594	54.04
819.768	49.28
819.943	43.87
820.117	43.09
820.292	45.21
820.467	44.01
820.641	44.77
820.816	41.09
820.99	39.63
821.165	36.79
821.339	35.03
821.514	34.98
821.688	34.97
821.863	35.72
822.037	36.93
822.212	35.81
822.386	34.92
822.56	34.01
822.735	34.3
822.909	33.76
823.084	34.95
823.258	34.99
823.432	34.96
823.606	34.86
823.781	34.51
823.955	34.89
824.129	33.84
824.303	34.79
824.478	35.61
824.652	36.97
824.826	39.74
825	40.14
825.174	40.33
825.348	41.65
825.523	40.77
825.697	40.91
825.871	38.99
826.045	37.94
826.219	38.52
826.393	36.94
826.567	37.63
826.741	36.82
826.915	36.5
827.089	38.07
827.263	38.27
827.437	39.82
827.611	41.57
827.784	45.6
827.958	49.07
828.132	49.06
828.306	49.71
828.48	51.35
828.654	52.17
828.827	54.55
829.001	54.64
829.175	56.66
829.349	58.06
829.522	60.09
829.696	54.05
829.87	54.39
830.044	60.4
830.217	66.41
830.391	69.74
830.565	73.13
830.738	72.82
830.912	73.81
831.085	73.38
831.259	72.99
831.432	72.92
831.606	82.06
831.779	80.72
831.953	73.88
832.126	74.36
832.3	68.08
832.473	63.6
832.647	64.13
832.82	61.32
832.994	61.26
833.167	57.72
833.34	55.87
833.514	51.35
833.687	52.03
833.86	50.29
834.034	45.74
834.207	44.4
834.38	44.72
834.553	43.2
834.727	43.87
834.9	44.66
835.073	51.51
835.246	51.54
835.419	54.16
835.593	52.77
835.766	57.64
835.939	60.11
836.112	64.97
836.285	60.59
836.458	67.34
836.631	67.55
836.804	64.63
836.977	60.09
837.15	63.96
837.323	65.87
837.496	72.86
837.669	74.98
837.842	83.76
838.015	88.23
838.188	93.66
838.361	85.63
838.533	87.62
838.706	96.46
838.879	96.62
839.052	98.78
839.225	105.68
839.398	103.18
839.57	98.2
839.743	93.43
839.916	91.29
840.088	85.89
840.261	95.26
840.434	105.44
840.607	101.25
840.779	103.67
840.952	98.68
841.124	89.98
841.297	92.69
841.47	95.52
841.642	89.59
841.815	94.78
841.987	111.45
842.16	91.01
842.332	78.79
842.505	74.26
842.677	55.3
842.85	65.51
843.022	70.58
843.194	78.82
843.367	80.61
843.539	84.93
843.712	68.69
843.884	73.82
844.056	86.22
844.229	85.84
844.401	100.21
844.573	116.22
844.745	115.2
844.918	119.12
845.09	114.02
845.262	115.68
845.434	120.3
845.606	128.51
845.779	118.43
845.951	131.26
846.123	124.29
846.295	120.45
846.467	121.15
846.639	116.11
846.811	110.75
846.983	102.1
847.155	99.67
847.327	99.48
847.499	98.81
847.671	117.46
847.843	100.39
848.015	119.37
848.187	119.92
848.359	125.5
848.531	137.33
848.703	147.7
848.875	187.28
849.047	178.04
849.218	231.57
849.39	202.81
849.562	175.35
849.734	176.86
849.905	147.6
850.077	156.57
850.249	203.85
850.421	215.96
850.592	196.68
850.764	164.65
850.936	169.07
851.107	181.24
851.279	227.82
851.451	177.87
851.622	158.64
851.794	146.99
851.965	131.24
852.137	113.56
852.308	101.02
852.48	100.36
852.651	96.61
852.823	96.9
852.994	85.58
853.166	84.39
853.337	96.07
853.509	114.12
853.68	139.29
853.851	153.11
854.023	196.76
854.194	175.94
854.365	185.34
854.537	185.91
854.708	264.77
854.879	470.77
855.05	445.62
855.222	351.78
855.393	175.31
855.564	196.58
855.735	149.65
855.906	107.95
856.078	141.61
856.249	179.6
856.42	184.98
856.591	164
856.762	164.42
856.933	211.73
857.104	242.09
857.275	285.5
857.446	184.12
857.617	193.48
857.788	219.05
857.959	191.09
858.13	144.78
858.301	169.59
858.472	194.41
858.643	183.79
858.814	204.43
858.985	190.17
859.155	200.33
859.326	262.3
859.497	273.72
859.668	207.68
859.839	311.85
860.009	259.73
860.18	170.31
860.351	159.92
860.522	156.87
860.692	122.11
860.863	132.51
861.034	129.39
861.204	111.17
861.375	115.69
861.546	116.62
861.716	102.17
861.887	95.19
862.057	115.44
862.228	85.77
862.398	106.3
862.569	104.64
862.739	94.78
862.91	80.98
863.08	114.97
863.251	107.67
863.421	136.69
863.592	166.93
863.762	181.14
863.932	164.73
864.103	193.29
864.273	168.73
864.443	184.91
864.614	171.66
864.784	191.77
864.954	173.46
865.125	187.05
865.295	178.35
865.465	181.18
865.635	211.48
865.805	213.02
865.976	200.56
866.146	196.73
866.316	228.94
866.486	317.24
866.656	226.43
866.826	226.23
866.996	181.12
867.166	185.71
867.336	178.02
867.506	147.37
867.676	131.23
867.846	134.91
868.016	151.39
868.186	135.43
868.356	115.39
868.526	133.45
868.696	142.55
868.866	146.36
869.036	123.91
869.206	122.26
869.376	133.68
869.545	124.09
869.715	135.54
869.885	142.42
870.055	163.95
870.224	179.21
870.394	229.12
870.564	188.21
870.734	239.73
870.903	229.24
871.073	243.92
871.243	213.97
871.412	241.14
871.582	182.98
871.751	162.11
871.921	167.08
872.091	169.7
872.26	155.23
872.43	119.84
872.599	110.63
872.769	140.67
872.938	135.36
873.108	163.61
873.277	163
873.446	205.11
873.616	207.12
873.785	207.91
873.955	280.9
874.124	220.43
874.293	593.85
874.463	674.25
874.632	719.7
874.801	741.18
874.971	242.35
875.14	277.86
875.309	217.75
875.478	194.94
875.647	197.88
875.817	149.67
875.986	165.03
876.155	155.71
876.324	153.78
876.493	154.07
876.662	149.15
876.831	167.58
877	157.22
877.17	170.81
877.339	187.9
877.508	145.41
877.677	188.72
877.846	212.15
878.015	180.32
878.184	158.3
878.352	148.19
878.521	152.56
878.69	153.38
878.859	134.04
879.028	123.87
879.197	123.24
879.366	133.7
879.534	115.93
879.703	110.13
879.872	108.09
880.041	100.61
880.21	85.63
880.378	77.54
880.547	66.67
880.716	67.13
880.884	68.07
881.053	60.65
881.222	54.71
881.39	49.84
881.559	42.55
881.727	40.85
881.896	40.17
882.065	41.93
882.233	42.41
882.402	42.74
882.57	42.1
882.739	42.12
882.907	44.1
883.076	47.55
883.244	50.52
883.412	52.56
883.581	51.21
883.749	52.85
883.918	55.45
884.086	52.98
884.254	53.09
884.423	51.58
884.591	53.76
884.759	54
884.927	52.87
885.096	47.25
885.264	50.36
885.432	56.87
885.6	57.74
885.769	57.61
885.937	68.74
886.105	75.1
886.273	78.31
886.441	79.62
886.609	81.78
886.777	88.87
886.945	97.99
887.113	99.19
887.281	102.34
887.449	113.4
887.617	113.42
887.785	116.24
887.953	120.87
888.121	119.96
888.289	125.84
888.457	153.94
888.625	176.27
888.793	157.94
888.961	180.03
889.129	139.38
889.296	141.28
889.464	152.53
889.632	137.23
889.8	146.22
889.967	160.81
890.135	171.74
