Data from JASIL_2994_Reflection_02.txt Node
Date: Mon Nov 09 09:51:21 EST 2015
User: Geneva
Spectrometer: USB4E03002
Autoset integration time: false
Trigger mode: 4
Integration Time (sec): 1.000000E-1
Scans to average: 10
Electric dark correction enabled: false
Nonlinearity correction enabled: false
Boxcar width: 5
Stray light correction enabled: false
XAxis mode: Wavelengths
Stop averaging: false
Number of Pixels in Spectrum: 3648
>>>>>Begin Spectral Data<<<<<
177.575	17.79
177.794	4.56
178.014	4.62
178.233	-16.9
178.452	-21.23
178.672	-29.06
178.891	-52.79
179.11	-74.85
179.33	-111.32
179.549	-165.14
179.768	-247.99
179.987	-195.07
180.207	-96.06
180.426	-100.82
180.645	-82.53
180.864	-92.43
181.084	-63.43
181.303	-56.39
181.522	-64.17
181.741	-50.93
181.96	-23.32
182.179	-17.73
182.398	-26.11
182.618	-44.22
182.837	-38.45
183.056	-42.11
183.275	-52.11
183.494	-51.36
183.713	-19.07
183.932	-12.21
184.151	3.76
184.37	-10.22
184.589	-17.83
184.808	-16.8
185.027	-39.12
185.246	-74.32
185.465	-28.86
185.684	-8.6
185.903	-20.11
186.122	-27.99
186.341	-51.99
186.56	-160.54
186.779	-77.28
186.998	-46.61
187.216	-56.73
187.435	-64.31
187.654	-44.16
187.873	-90.59
188.092	-195.98
188.311	-225.34
188.53	-220.33
188.748	-103.77
188.967	-117.41
189.186	-145.41
189.405	-175.69
189.623	-137.76
189.842	-148.1
190.061	-267.4
190.28	-303.64
190.498	-295.62
190.717	-287.23
190.936	-277.09
191.154	-586.89
191.373	-151.73
191.592	-242.26
191.81	-159.88
192.029	-471.03
192.248	-498.65
192.466	-190.75
192.685	-146.38
192.904	-91.23
193.122	-125.57
193.341	-175.95
193.559	-230.92
193.778	-320.53
193.996	-190.49
194.215	-197.21
194.433	-126.4
194.652	-81.73
194.87	-92.53
195.089	-162.3
195.307	-216.27
195.526	-140.72
195.744	-117.62
195.963	-119.71
196.181	-133.78
196.399	-149.61
196.618	-170.75
196.836	-258.84
197.055	-212.5
197.273	-231.5
197.491	-213.84
197.71	-154.45
197.928	-162.12
198.146	-158.24
198.365	-205.32
198.583	-124.57
198.801	-111.7
199.019	-123.89
199.238	-110.19
199.456	-139.2
199.674	-127.39
199.892	-82.66
200.111	-212.92
200.329	-251.77
200.547	-156.19
200.765	-98.04
200.983	-254.1
201.202	-645.22
201.42	-594.96
201.638	-380.6
201.856	-1235.21
202.074	2497.3
202.292	2280.49
202.51	-314.78
202.728	-196.83
202.946	-301.3
203.165	-290.8
203.383	-210.39
203.601	-225.17
203.819	-375.58
204.037	-268.44
204.255	-217.87
204.473	-127.64
204.691	-147.5
204.909	-256.99
205.127	-242.35
205.345	-279.91
205.562	-673.03
205.78	-273.05
205.998	-173.48
206.216	-200.28
206.434	-239.06
206.652	-207.07
206.87	-235.02
207.088	-285.71
207.306	-216.61
207.523	-332.68
207.741	-286.5
207.959	-212.27
208.177	-303.56
208.395	-245.94
208.612	-169.8
208.83	-110.97
209.048	-66.87
209.266	-144.01
209.483	-79.74
209.701	-115.46
209.919	-44.4
210.136	-155.48
210.354	-155.68
210.572	-163.32
210.79	-214.53
211.007	-131.59
211.225	-143.23
211.442	-132.12
211.66	-101.86
211.878	-133.46
212.095	-37.86
212.313	-46.73
212.53	-20.73
212.748	-6.19
212.966	2.38
213.183	-1.25
213.401	-8.06
213.618	-2.17
213.836	-5.18
214.053	-3.79
214.271	-6.54
214.488	-6.28
214.705	6.79
214.923	-6.24
215.14	-28.77
215.358	-44.84
215.575	-21.79
215.793	-16.69
216.01	-22.6
216.227	-34.44
216.445	-64.72
216.662	-19.6
216.879	-33.33
217.097	-113.38
217.314	-86.97
217.531	-124.42
217.749	-127.27
217.966	-118.83
218.183	-157.93
218.4	-392.56
218.618	-266.33
218.835	-189.91
219.052	-747.14
219.269	-1785.96
219.487	-550.29
219.704	-1553.97
219.921	1494.74
220.138	1579.49
220.355	1006.85
220.572	0
220.79	-1830.3
221.007	-527.27
221.224	-322.06
221.441	-113.65
221.658	-157.28
221.875	-168.67
222.092	-91.3
222.309	-73.45
222.526	-59.84
222.743	-67.77
222.96	-66.35
223.177	-71.03
223.394	-108.6
223.611	-192.58
223.828	-352.9
224.045	-258.33
224.262	-134.27
224.479	-146.31
224.696	-143.34
224.913	-156.99
225.13	-188.37
225.347	-155.04
225.564	-121.77
225.781	-82.63
225.997	-63.23
226.214	-26.74
226.431	-26.96
226.648	-43.95
226.865	-27.36
227.082	-21.42
227.298	-27.43
227.515	-19.28
227.732	-23.66
227.949	-27.8
228.165	-18.8
228.382	-13.38
228.599	-18.99
228.816	-19.1
229.032	-26.53
229.249	-37.29
229.466	-38.03
229.682	-37.24
229.899	-42.09
230.116	-56.51
230.332	-56.68
230.549	-84.3
230.765	-148.76
230.982	-136.76
231.199	-113.96
231.415	-77.32
231.632	-73.37
231.848	-82.75
232.065	-81.44
232.281	-76.43
232.498	-50.52
232.714	-41.55
232.931	-34.09
233.147	-12.76
233.364	-6.67
233.58	-10.16
233.797	-14.27
234.013	-11.73
234.23	-19.87
234.446	-14.84
234.662	-4.55
234.879	-15.1
235.095	-15.88
235.312	-20.58
235.528	-32.26
235.744	-35.72
235.961	-28.69
236.177	-24.79
236.393	-25.81
236.61	-17.07
236.826	-20.55
237.042	-17.89
237.258	-15.31
237.475	-15.95
237.691	-9.11
237.907	-9.41
238.123	-24.68
238.339	-40.18
238.556	-42.1
238.772	-50.07
238.988	-43.58
239.204	-30.55
239.42	-34.97
239.636	-16.15
239.853	-8.83
240.069	-11.78
240.285	-8.78
240.501	1.7
240.717	0.73
240.933	-0.89
241.149	-1.64
241.365	0.59
241.581	-4.62
241.797	-7.54
242.013	-14.94
242.229	-21.87
242.445	-18.82
242.661	-16.33
242.877	-22.47
243.093	-23.03
243.309	-28.49
243.525	-34.82
243.741	-39.8
243.957	-34.23
244.173	-31.57
244.388	-33.94
244.604	-32.3
244.82	-28
245.036	-26.29
245.252	-18.89
245.468	-14.99
245.683	-14.02
245.899	-10.13
246.115	-8.81
246.331	-9.14
246.547	-7.73
246.762	-2.9
246.978	-2.84
247.194	-4.32
247.409	-5.74
247.625	-8.39
247.841	-8.4
248.057	-6.31
248.272	-7.34
248.488	-6.4
248.703	-4.14
248.919	-10.88
249.135	-16.43
249.35	-13.54
249.566	-11.07
249.782	-17.43
249.997	-16.37
250.213	-23.73
250.428	-17.31
250.644	-20.4
250.859	-18.76
251.075	-21.97
251.29	-18.33
251.506	-20.25
251.721	-23.08
251.937	-19.76
252.152	-14.07
252.368	-13.65
252.583	-3.08
252.798	-7.09
253.014	2.19
253.229	-4.15
253.445	-9.48
253.66	-11.1
253.875	-10.73
254.091	-9.72
254.306	-12.87
254.521	-6.08
254.737	0.59
254.952	-9.35
255.167	-15.92
255.383	-22.67
255.598	-22.32
255.813	-14.88
256.028	-17.57
256.244	-20.76
256.459	-20.01
256.674	-15.07
256.889	-15.37
257.104	-21.94
257.32	-18.58
257.535	-14.33
257.75	-10
257.965	-8.19
258.18	-6.18
258.395	-4.14
258.61	-2.36
258.826	-1.98
259.041	-2.05
259.256	-6.31
259.471	-4.79
259.686	-3.54
259.901	-2.61
260.116	-5.29
260.331	-10.05
260.546	-9.59
260.761	-8.41
260.976	-9.51
261.191	-7.68
261.406	-13.21
261.621	-5.72
261.836	-6.8
262.05	-10.56
262.265	-11.73
262.48	-10.14
262.695	-5.43
262.91	-12.41
263.125	-16.85
263.34	-19.95
263.555	-16.63
263.769	-17.43
263.984	-17.07
264.199	-21.73
264.414	-18.54
264.629	-16.49
264.843	-14.69
265.058	-16.15
265.273	-11.48
265.488	-6.69
265.702	-8.24
265.917	-8.93
266.132	-8.49
266.346	-12.03
266.561	-3.26
266.776	-6.62
266.99	-8.71
267.205	-7.9
267.42	-3.96
267.634	-7.1
267.849	-11.51
268.063	-4.45
268.278	-6.88
268.492	-5.88
268.707	-0.72
268.922	-5.41
269.136	-7.85
269.351	-7.42
269.565	-7.12
269.78	-8.99
269.994	-5.85
270.209	-3.57
270.423	-8.75
270.637	-9.62
270.852	-8.61
271.066	-11.04
271.281	-11.75
271.495	-7.74
271.709	-6.4
271.924	-9.7
272.138	-10.71
272.353	-11.22
272.567	-11.31
272.781	-8.09
272.996	-5.64
273.21	-7.52
273.424	-9.54
273.638	-10.81
273.853	-11.14
274.067	-9.11
274.281	-7.68
274.495	-6.08
274.71	-7.87
274.924	-6.28
275.138	-5.25
275.352	-3.75
275.566	-1.85
275.781	-1.36
275.995	0.67
276.209	0.21
276.423	-3.11
276.637	-2.04
276.851	-1.37
277.065	-2.35
277.279	-2.66
277.493	-3.91
277.707	-9.6
277.921	-14.31
278.135	-12.02
278.349	-15.07
278.563	-16.14
278.777	-14.82
278.991	-16.98
279.205	-19.33
279.419	-16.66
279.633	-19.86
279.847	-20.34
280.061	-18.82
280.275	-12.23
280.489	-12.85
280.703	-11.02
280.917	-10.72
281.131	-11.03
281.344	-8.87
281.558	-8.1
281.772	-8.06
281.986	-5.57
282.2	-7.2
282.414	-6.07
282.627	-7.61
282.841	-5.91
283.055	-6.57
283.269	-5.2
283.482	-4.2
283.696	-2.49
283.91	-1.24
284.123	-1.8
284.337	-4.32
284.551	-2.06
284.764	-2.61
284.978	-0.32
285.192	-1.63
285.405	-2.32
285.619	-4.95
285.833	-4.92
286.046	-7.3
286.26	-10.23
286.473	-9.86
286.687	-10.68
286.9	-12.34
287.114	-12.35
287.327	-17.05
287.541	-16.31
287.754	-17.57
287.968	-14.59
288.181	-18.14
288.395	-19.23
288.608	-20.71
288.822	-19.35
289.035	-18.15
289.248	-16.24
289.462	-16.33
289.675	-12.9
289.889	-13.84
290.102	-8.82
290.315	-9.72
290.529	-8.61
290.742	-7.62
290.955	-4.82
291.169	-9.07
291.382	-8.3
291.595	-10.39
291.808	-8.81
292.022	-8.95
292.235	-8.41
292.448	-8.78
292.661	-9.07
292.875	-8.96
293.088	-9.25
293.301	-7.58
293.514	-4.44
293.727	-3.16
293.94	-2.34
294.153	-2.18
294.367	-4.07
294.58	-5.26
294.793	-7.5
295.006	-7.32
295.219	-4.07
295.432	-2.52
295.645	-3.31
295.858	-3.17
296.071	-4.78
296.284	-6.07
296.497	-8.57
296.71	-6.89
296.923	-4.57
297.136	-5.88
297.349	-2.38
297.562	-4.62
297.775	-6.99
297.988	-7.07
298.201	-7
298.414	-5.45
298.626	-3.07
298.839	-2.69
299.052	-3.42
299.265	-2.95
299.478	-0.77
299.691	-4.82
299.903	-2.34
300.116	-2.47
300.329	-2.4
300.542	-4.44
300.755	-6.18
300.967	-7.6
301.18	-6.5
301.393	-5.68
301.605	-9.82
301.818	-11.36
302.031	-8.12
302.243	-12.22
302.456	-9.04
302.669	-4.89
302.881	-2.33
303.094	-2.8
303.307	-0.93
303.519	-3.98
303.732	-5.38
303.944	-2.31
304.157	-1.33
304.37	-3.55
304.582	-1.97
304.795	-2.66
305.007	-4.73
305.22	-6.67
305.432	-8.1
305.645	-9.33
305.857	-6.28
306.069	-5.41
306.282	-4.85
306.494	-3.36
306.707	-4.93
306.919	-3.54
307.132	-4.7
307.344	-8.98
307.556	-11.38
307.769	-7.92
307.981	-9.03
308.193	-9.61
308.406	-9.78
308.618	-8.86
308.83	-6.73
309.043	-3.22
309.255	-4.47
309.467	-6.04
309.679	-3.8
309.892	-0.06
310.104	0.34
310.316	0.57
310.528	2.55
310.74	2.76
310.953	2.16
311.165	1.47
311.377	-0.53
311.589	-0.58
311.801	2.41
312.013	3.2
312.225	2.97
312.437	2.16
312.649	1.27
312.862	0.67
313.074	-0.81
313.286	-1.46
313.498	-4.33
313.71	-7.02
313.922	-5.65
314.134	-5.38
314.346	-6.51
314.558	-7.41
314.77	-7.61
314.982	-5
315.193	-3.69
315.405	-3.46
315.617	-2.81
315.829	-1.68
316.041	0.4
316.253	-1.23
316.465	-0.63
316.677	2.85
316.888	4.97
317.1	3.88
317.312	1.73
317.524	1.6
317.736	3.12
317.947	4.02
318.159	0.26
318.371	2.52
318.583	-1.21
318.794	-3.64
319.006	-8.28
319.218	-12.29
319.43	-11.21
319.641	-10.36
319.853	-11.03
320.064	-14.65
320.276	-18.28
320.488	-16.14
320.699	-18.37
320.911	-12.18
321.123	-8.21
321.334	-9.23
321.546	-7.89
321.757	-9.88
321.969	-9.54
322.18	-8.15
322.392	-6.99
322.603	-8.55
322.815	-4.49
323.026	-2.3
323.238	-3.83
323.449	-7.28
323.661	-5.99
323.872	-7.59
324.083	-6.93
324.295	-7.82
324.506	-9.66
324.718	-9.55
324.929	-5.02
325.14	-7.19
325.352	-7.32
325.563	-6.63
325.774	-5.63
325.986	-5.73
326.197	-3.04
326.408	-2.3
326.62	-2.74
326.831	-2.03
327.042	-0.53
327.253	-2.05
327.464	-2.3
327.676	-1.23
327.887	-1.96
328.098	-3.42
328.309	-1.89
328.52	-4.13
328.732	-0.85
328.943	0.06
329.154	-2.3
329.365	-3.5
329.576	-2.91
329.787	-0.92
329.998	-4.11
330.209	-4.2
330.42	-1.89
330.631	-5.58
330.842	-5
331.053	-6.1
331.264	-4.81
331.475	-3.09
331.686	-2.53
331.897	-3.49
332.108	-4.71
332.319	-4.59
332.53	-4.92
332.741	-3.82
332.952	1.28
333.163	2.93
333.374	2.14
333.585	-0.17
333.795	-0.15
334.006	2.01
334.217	4.6
334.428	3.98
334.639	5.63
334.849	5.24
335.06	5.6
335.271	2.68
335.482	1.78
335.692	1.39
335.903	2.81
336.114	3.36
336.325	5.06
336.535	3.83
336.746	4.24
336.957	2.38
337.167	4.58
337.378	2.03
337.589	4.04
337.799	4.7
338.01	5.27
338.22	6.43
338.431	2.67
338.642	-1.73
338.852	-3.71
339.063	-3.69
339.273	1.54
339.484	1.45
339.694	0.94
339.905	-1.87
340.115	-1.45
340.326	-2.65
340.536	-4.64
340.746	-0.34
340.957	0.22
341.167	2.19
341.378	1.14
341.588	-3.48
341.799	-4.69
342.009	-1.64
342.219	-0.74
342.43	-1.66
342.64	-2.33
342.85	2.1
343.061	0.48
343.271	-0.4
343.481	-0.55
343.691	0.63
343.902	2.5
344.112	2.67
344.322	-0.32
344.532	1.82
344.743	1.27
344.953	1.47
345.163	-1.46
345.373	-0.57
345.583	0.98
345.793	-1.2
346.004	-2.43
346.214	-1.99
346.424	-3.29
346.634	-3.82
346.844	-5.59
347.054	-5.63
347.264	-7.03
347.474	-5.66
347.684	-4.09
347.894	-4.47
348.104	-2.77
348.314	-0.2
348.524	-2.09
348.734	1.59
348.944	1.86
349.154	1.54
349.364	1.62
349.574	3.93
349.784	2.99
349.994	3.6
350.204	2.07
350.413	2.41
350.623	2.89
350.833	3.27
351.043	0.31
351.253	3.43
351.463	2.98
351.672	5
351.882	4.68
352.092	5.25
352.302	3.72
352.511	5.45
352.721	6.13
352.931	4.39
353.141	3.63
353.35	4.87
353.56	4.1
353.77	2.23
353.979	1.64
354.189	2.56
354.399	2.39
354.608	3.51
354.818	1.05
355.027	-0.47
355.237	-0.29
355.447	0.01
355.656	-1.02
355.866	-1.32
356.075	1.43
356.285	1.26
356.494	-1.07
356.704	-1.58
356.913	-3.31
357.123	-1.96
357.332	-2.08
357.542	-2.52
357.751	-2.83
357.96	-1.85
358.17	-0.79
358.379	-1.19
358.589	-1.76
358.798	-1.12
359.007	-0.55
359.217	-0.83
359.426	-0.93
359.635	-1.77
359.845	-2.15
360.054	-2.12
360.263	-1.24
360.472	-1.67
360.682	-3.06
360.891	-2.78
361.1	-1.54
361.309	-0.86
361.519	-1.08
361.728	0.68
361.937	1.95
362.146	3.76
362.355	4.99
362.564	3.42
362.774	3.71
362.983	5.27
363.192	4.75
363.401	4.85
363.61	4.21
363.819	5.32
364.028	2.62
364.237	3.22
364.446	2.07
364.655	1.47
364.864	2.95
365.073	2.46
365.282	1.14
365.491	2.49
365.7	3.93
365.909	2.94
366.118	2.5
366.327	2.15
366.536	1.68
366.745	2.21
366.954	3
367.162	2.48
367.371	1.57
367.58	3.9
367.789	3.38
367.998	1.33
368.207	3.59
368.415	3.26
368.624	3.61
368.833	4.22
369.042	2.42
369.25	2.02
369.459	2.91
369.668	3.74
369.877	2.53
370.085	3.1
370.294	3.73
370.503	1.86
370.711	2.73
370.92	3.43
371.129	4.03
371.337	5.2
371.546	5.46
371.754	4.41
371.963	4.2
372.171	4.41
372.38	4.36
372.589	3.83
372.797	2.34
373.006	2.35
373.214	2.09
373.423	1.48
373.631	2.05
373.84	2.06
374.048	1.78
374.256	2.05
374.465	1.82
374.673	0.18
374.882	-0.43
375.09	1.77
375.298	0.99
375.507	1.99
375.715	1.61
375.923	1.15
376.132	-0.3
376.34	0.45
376.548	0.75
376.757	0.59
376.965	1.27
377.173	2.55
377.381	1.27
377.59	0.92
377.798	0.55
378.006	-0.54
378.214	0.43
378.423	1.92
378.631	0.96
378.839	-0.1
379.047	0.18
379.255	-0.62
379.463	-0.76
379.671	-0.8
379.879	-0.79
380.088	-2.46
380.296	-1.74
380.504	-2.54
380.712	-3.81
380.92	-3.21
381.128	-2.41
381.336	-2.19
381.544	-0.51
381.752	-0.81
381.96	1.3
382.168	1.48
382.376	3.75
382.584	3.47
382.791	2.28
382.999	2.49
383.207	1.93
383.415	1.94
383.623	0.75
383.831	0.14
384.039	-1.8
384.247	-2.64
384.454	-1.88
384.662	-2.21
384.87	-2.45
385.078	-1.33
385.285	-1.06
385.493	-0.62
385.701	-0.76
385.909	0.01
386.116	-0.34
386.324	1.58
386.532	1.48
386.739	0.44
386.947	-0.82
387.155	0.11
387.362	0.46
387.57	-0.13
387.778	0.05
387.985	0.08
388.193	-0.25
388.4	0.34
388.608	-0.41
388.816	-1.75
389.023	-2.12
389.231	-1.6
389.438	-1.11
389.646	-0.61
389.853	0.63
390.061	-0.29
390.268	-0.57
390.475	0.16
390.683	-0.42
390.89	-0.05
391.098	1.31
391.305	2.21
391.512	3.11
391.72	2.78
391.927	1.33
392.135	1.2
392.342	2.36
392.549	2.76
392.756	2.23
392.964	2.52
393.171	1.24
393.378	0.75
393.586	1.3
393.793	0.73
394	0.5
394.207	2.19
394.414	1.72
394.622	1.09
394.829	1.27
395.036	1.08
395.243	0.99
395.45	3.3
395.657	2.86
395.864	1.74
396.072	0.73
396.279	1.17
396.486	-0.02
396.693	0.66
396.9	2.31
397.107	2.95
397.314	2.53
397.521	2.33
397.728	1.95
397.935	2.5
398.142	2.67
398.349	2.68
398.556	2.05
398.763	1.36
398.97	1.31
399.177	0.12
399.383	-1.06
399.59	-2.04
399.797	-2.49
400.004	-3.14
400.211	-3.81
400.418	-3.5
400.625	-2.04
400.831	-1.87
401.038	-0.88
401.245	-3.19
401.452	-2.49
401.658	-1.55
401.865	-0.12
402.072	0.21
402.279	-1.09
402.485	-1.17
402.692	-1.96
402.899	-2.25
403.105	-2.52
403.312	-2.48
403.519	-0.69
403.725	-0.97
403.932	-1.57
404.138	-1.24
404.345	-1.14
404.552	0.46
404.758	1.92
404.965	3.21
405.171	4.2
405.378	5.67
405.584	6.14
405.791	6.78
405.997	6.6
406.204	6.62
406.41	5.96
406.617	5.4
406.823	4.31
407.029	3.31
407.236	2.3
407.442	2.8
407.649	2.37
407.855	0.41
408.061	-0.07
408.268	0.35
408.474	0.71
408.68	2.44
408.887	3.43
409.093	4.22
409.299	5.16
409.505	5.47
409.712	3.6
409.918	2.01
410.124	2.71
410.33	1.85
410.537	1.17
410.743	0.33
410.949	-1.18
411.155	-1.46
411.361	-1.19
411.567	-1.86
411.773	-1.47
411.98	-1.09
412.186	-0.07
412.392	0.25
412.598	1.59
412.804	0.77
413.01	0.9
413.216	0.2
413.422	0.29
413.628	-0.03
413.834	-1.04
414.04	-2.52
414.246	-1.93
414.452	-2.07
414.658	-2.7
414.864	-4
415.07	-3.19
415.275	-2.8
415.481	-1.27
415.687	-1.53
415.893	-1.12
416.099	-0.71
416.305	0.33
416.511	0.18
416.716	0.63
416.922	1.81
417.128	2.68
417.334	2.3
417.539	2.19
417.745	1.99
417.951	1.93
418.157	1.85
418.362	2.04
418.568	1.67
418.774	1.6
418.979	2
419.185	2.22
419.391	1.91
419.596	2.22
419.802	2.82
420.008	3
420.213	3.03
420.419	3.06
420.624	2.77
420.83	2.78
421.035	3.34
421.241	2.67
421.446	1.78
421.652	1.84
421.857	1.81
422.063	1.4
422.268	0.97
422.474	0.92
422.679	0.8
422.885	1.03
423.09	1.32
423.295	0.63
423.501	0.51
423.706	0.89
423.911	0.86
424.117	0.6
424.322	0.95
424.527	1.03
424.733	0.74
424.938	0.83
425.143	0.68
425.349	1.05
425.554	1.57
425.759	1.38
425.964	1.54
426.169	1.81
426.375	2.1
426.58	1.18
426.785	1.36
426.99	1.62
427.195	2.29
427.4	2.68
427.605	1.69
427.811	1.25
428.016	1.52
428.221	1.55
428.426	0.91
428.631	0.62
428.836	1.01
429.041	0.72
429.246	0.98
429.451	0.27
429.656	0.14
429.861	0.19
430.066	-0.36
430.271	-0.04
430.476	-0.49
430.681	-0.28
430.886	0.01
431.09	0.66
431.295	0.31
431.5	0.84
431.705	0.97
431.91	1.8
432.115	2.07
432.32	2.26
432.524	1.97
432.729	1.8
432.934	1.43
433.139	1.93
433.343	1.15
433.548	2.22
433.753	1.87
433.958	1.56
434.162	0.92
434.367	0.79
434.572	0.43
434.776	1.24
434.981	0.74
435.186	1.86
435.39	1.61
435.595	2.12
435.799	0.81
436.004	0.87
436.209	1.43
436.413	1.55
436.618	1.24
436.822	1.68
437.027	0.9
437.231	1.47
437.436	0.87
437.64	1.09
437.845	0.5
438.049	1.23
438.253	0.96
438.458	0.72
438.662	0.11
438.867	0.59
439.071	0.27
439.275	0.81
439.48	0.84
439.684	0.83
439.888	0.55
440.093	0.31
440.297	0.51
440.501	1.01
440.706	0.87
440.91	1.24
441.114	1.48
441.318	1.89
441.523	2.01
441.727	1.83
441.931	1.65
442.135	1.29
442.339	1.43
442.543	1.36
442.748	0.75
442.952	0.47
443.156	-0.47
443.36	-0.9
443.564	-1.22
443.768	-1.51
443.972	-1.56
444.176	-1.37
444.38	-1.27
444.584	-0.68
444.788	-1.21
444.992	-0.68
445.196	-0.93
445.4	0.28
445.604	0.46
445.808	0.47
446.012	0.8
446.216	1.38
446.42	1.72
446.624	1.81
446.828	1.77
447.032	2.04
447.235	1.67
447.439	2.45
447.643	2.38
447.847	2.14
448.051	1.98
448.254	1.6
448.458	1.05
448.662	0.85
448.866	0.64
449.069	0.97
449.273	0.8
449.477	1.05
449.681	0.77
449.884	0.71
450.088	0.83
450.292	1.37
450.495	1.01
450.699	2.03
450.902	1.72
451.106	2.32
451.31	2.06
451.513	2.48
451.717	2.44
451.92	2.15
452.124	1.08
452.327	1.11
452.531	1.32
452.734	1.58
452.938	1.07
453.141	1.65
453.345	1.22
453.548	0.64
453.752	0.06
453.955	0.11
454.158	-0.07
454.362	1.18
454.565	1.55
454.769	1.84
454.972	2.31
455.175	2.12
455.379	0.91
455.582	1.26
455.785	1.34
455.988	0.61
456.192	0.64
456.395	1.38
456.598	0.78
456.801	0
457.005	0.26
457.208	-0.54
457.411	-0.31
457.614	-0.24
457.817	-0.6
458.021	-0.59
458.224	0.32
458.427	-0.14
458.63	-0.39
458.833	-0.59
459.036	-0.58
459.239	-1.13
459.442	-0.45
459.645	-0.51
459.848	0.04
460.051	0.31
460.254	1
460.457	0.83
460.66	1.38
460.863	1.48
461.066	1.72
461.269	2.02
461.472	2.14
461.675	1.48
461.878	1.44
462.081	1.09
462.284	0.77
462.486	0.71
462.689	0.74
462.892	0.24
463.095	0.28
463.298	0.21
463.5	0.51
463.703	0.59
463.906	0.98
464.109	1.14
464.311	1.25
464.514	1.34
464.717	1.27
464.92	1.63
465.122	1.7
465.325	1.35
465.528	1.42
465.73	1.01
465.933	1.03
466.135	0.8
466.338	0.78
466.541	0.96
466.743	1.18
466.946	1.06
467.148	0.79
467.351	1.35
467.553	1.36
467.756	1.26
467.958	1.56
468.161	1.18
468.363	1.14
468.566	0.75
468.768	0.9
468.971	0.4
469.173	0.41
469.375	0.27
469.578	-0.14
469.78	0.41
469.983	0.34
470.185	0.36
470.387	0.26
470.59	0.81
470.792	0.7
470.994	-0.08
471.196	0.25
471.399	-0.26
471.601	0.07
471.803	0.21
472.005	-0.75
472.208	-0.3
472.41	-0.45
472.612	0.07
472.814	-0.73
473.016	-0.16
473.218	0.28
473.421	0.34
473.623	0.01
473.825	-0.49
474.027	-1.04
474.229	-0.03
474.431	-0.19
474.633	-0.54
474.835	-0.53
475.037	0.08
475.239	-0.33
475.441	-0.38
475.643	0.26
475.845	0.92
476.047	1.26
476.249	2.23
476.451	1.27
476.653	1.16
476.855	1.93
477.057	1.77
477.258	1.87
477.46	2.82
477.662	3
477.864	2.92
478.066	2.6
478.268	2.43
478.469	1.98
478.671	2.85
478.873	2.76
479.075	2.04
479.276	2.36
479.478	2.42
479.68	2.04
479.882	1.95
480.083	1.34
480.285	1.55
480.487	1.4
480.688	1.28
480.89	0.93
481.091	1.21
481.293	1.42
481.495	1.08
481.696	0.81
481.898	0.8
482.099	1.05
482.301	1.32
482.502	1.32
482.704	1.5
482.905	1.62
483.107	1.82
483.308	1.95
483.51	2.07
483.711	2.19
483.913	2.44
484.114	2.3
484.315	2.14
484.517	2.02
484.718	1.97
484.92	1.74
485.121	1.45
485.322	1.48
485.524	1.42
485.725	1.29
485.926	1.06
486.127	0.87
486.329	0.88
486.53	0.97
486.731	0.93
486.932	1.2
487.134	1.24
487.335	1.43
487.536	1.25
487.737	1.06
487.938	1.04
488.139	1.21
488.341	1.36
488.542	1.81
488.743	1.65
488.944	1.71
489.145	1.34
489.346	1.39
489.547	1.39
489.748	1.45
489.949	1.29
490.15	1.54
490.351	1.63
490.552	1.4
490.753	1.04
490.954	0.96
491.155	1.04
491.356	1.05
491.557	0.87
491.758	0.96
491.959	0.91
492.159	0.94
492.36	0.89
492.561	0.95
492.762	1.14
492.963	1.45
493.164	1.74
493.364	1.43
493.565	1.67
493.766	1.89
493.967	1.97
494.167	1.97
494.368	1.79
494.569	2
494.769	1.77
494.97	1.67
495.171	1.74
495.371	1.91
495.572	2.1
495.773	2.07
495.973	2.19
496.174	2.32
496.375	1.9
496.575	2.19
496.776	2.27
496.976	2.17
497.177	2.28
497.377	2.02
497.578	1.71
497.778	1.72
497.979	1.51
498.179	1.91
498.38	1.5
498.58	2.02
498.78	2.29
498.981	1.58
499.181	1.69
499.382	1.67
499.582	1.57
499.782	1.32
499.983	1.58
500.183	1.7
500.383	1.01
500.584	1.05
500.784	0.99
500.984	0.72
501.184	1.21
501.385	1.26
501.585	1.17
501.785	1.1
501.985	0.89
502.185	0.84
502.386	0.6
502.586	1.36
502.786	1.28
502.986	1.48
503.186	1.73
503.386	1.68
503.586	1.86
503.786	2.1
503.987	2.16
504.187	2.71
504.387	3.09
504.587	3
504.787	3.26
504.987	3.33
505.187	2.83
505.387	2.25
505.587	1.57
505.786	0.98
505.986	0.99
506.186	0.74
506.386	0.54
506.586	0.32
506.786	1.38
506.986	0.65
507.186	0.43
507.386	0.93
507.585	2.07
507.785	2.39
507.985	2.83
508.185	2.63
508.384	3.05
508.584	3.22
508.784	2.88
508.984	2.77
509.183	2.91
509.383	3.18
509.583	3.3
509.782	2.45
509.982	2.74
510.182	2.91
510.381	3.32
510.581	3.06
510.781	3.37
510.98	3.1
511.18	2.74
511.379	2.9
511.579	2.76
511.778	2.74
511.978	2.96
512.177	3.03
512.377	2.9
512.576	3.13
512.776	3.6
512.975	3.35
513.175	3.73
513.374	4.01
513.573	4.12
513.773	4.34
513.972	4.36
514.172	4.49
514.371	4
514.57	4.15
514.77	4.05
514.969	4.07
515.168	4.6
515.367	4.84
515.567	4.68
515.766	4.25
515.965	4.8
516.164	4.73
516.364	4.57
516.563	5.12
516.762	5.32
516.961	5.14
517.16	5.65
517.359	5.7
517.559	5.79
517.758	5.88
517.957	6.14
518.156	5.84
518.355	6.15
518.554	6.2
518.753	6.34
518.952	5.95
519.151	5.8
519.35	5.23
519.549	5.25
519.748	5.39
519.947	5.09
520.146	5.13
520.345	5.25
520.544	5.12
520.743	4.94
520.942	5.04
521.141	5.61
521.339	5.94
521.538	6.02
521.737	6.01
521.936	6
522.135	6.24
522.333	6.19
522.532	6.8
522.731	6.72
522.93	7.21
523.129	6.95
523.327	7.18
523.526	6.83
523.725	6.87
523.923	6.57
524.122	6.39
524.321	6.58
524.519	6.58
524.718	6.12
524.917	6.23
525.115	6.24
525.314	6.19
525.512	6.03
525.711	6.32
525.909	6.25
526.108	6.5
526.306	6.43
526.505	6.2
526.703	6.37
526.902	6.45
527.1	6.5
527.299	6.6
527.497	6.65
527.696	6.59
527.894	6.65
528.092	6.88
528.291	6.99
528.489	7.24
528.688	7.63
528.886	7.82
529.084	7.92
529.283	7.93
529.481	7.91
529.679	7.72
529.877	7.87
530.076	7.79
530.274	7.89
530.472	7.66
530.67	7.66
530.869	7.66
531.067	7.36
531.265	7.46
531.463	7.37
531.661	7.44
531.859	7.9
532.057	7.96
532.255	7.72
532.454	7.81
532.652	8.1
532.85	7.99
533.048	7.88
533.246	8.16
533.444	8.34
533.642	8.69
533.84	8.81
534.038	8.84
534.236	9.1
534.434	9.58
534.632	9.23
534.83	9.23
535.027	9.24
535.225	9.31
535.423	9.4
535.621	9.28
535.819	8.8
536.017	8.8
536.215	9.05
536.412	8.47
536.61	8.87
536.808	9.08
537.006	9.06
537.203	9.18
537.401	9.54
537.599	9.13
537.797	9.14
537.994	9.98
538.192	9.89
538.39	9.79
538.587	10.16
538.785	9.65
538.983	9.95
539.18	10
539.378	9.87
539.575	9.52
539.773	9.75
539.97	9.56
540.168	9.36
540.366	9.44
540.563	9.27
540.761	9.27
540.958	9.42
541.155	8.96
541.353	8.91
541.55	9.37
541.748	9.37
541.945	9.37
542.143	9.71
542.34	9.67
542.537	9.26
542.735	9.34
542.932	9.42
543.129	9.3
543.327	9.64
543.524	9.54
543.721	9.51
543.919	9.4
544.116	9.47
544.313	9.59
544.51	9.88
544.708	10.51
544.905	10.72
545.102	10.85
545.299	11.58
545.496	11.93
545.693	12.62
545.891	12.69
546.088	13.21
546.285	13.32
546.482	12.97
546.679	13.28
546.876	13.3
547.073	13.15
547.27	13.51
547.467	13.2
547.664	13.21
547.861	12.12
548.058	12.08
548.255	11.27
548.452	11.27
548.649	11.89
548.846	11.69
549.043	12.06
549.24	12.65
549.437	12.61
549.633	12.85
549.83	12.81
550.027	13.26
550.224	12.82
550.421	13.47
550.618	13.72
550.814	13.24
551.011	13.24
551.208	13.65
551.405	13.24
551.601	12.8
551.798	12.24
551.995	12.37
552.191	12.53
552.388	12.6
552.585	12.56
552.781	12.01
552.978	12.63
553.175	12.6
553.371	12.12
553.568	12.72
553.764	12.57
553.961	13.17
554.157	13.27
554.354	13.7
554.55	14.63
554.747	14.84
554.943	15.42
555.14	15.21
555.336	15.57
555.533	15.66
555.729	15.41
555.926	15.66
556.122	15.22
556.318	14.8
556.515	14.63
556.711	13.67
556.907	14.29
557.104	14.51
557.3	14.96
557.496	15.01
557.693	14.74
557.889	14.97
558.085	15.11
558.281	15.61
558.478	15.52
558.674	15.17
558.87	16.29
559.066	15.34
559.262	15.08
559.459	14.23
559.655	13.87
559.851	13.99
560.047	13.73
560.243	13.82
560.439	13.9
560.635	14.05
560.831	14.73
561.027	13.51
561.223	14.29
561.419	14.65
561.615	14.91
561.811	15.18
562.007	15.11
562.203	15.5
562.399	15.41
562.595	14.62
562.791	14.67
562.987	14.12
563.183	14.83
563.379	14.85
563.575	14.82
563.771	15.13
563.966	14.92
564.162	15.43
564.358	15.23
564.554	15.64
564.75	16.51
564.945	16.73
565.141	16.93
565.337	16.76
565.533	16.7
565.728	16.35
565.924	16.1
566.12	16.36
566.315	16.1
566.511	16.05
566.707	15.66
566.902	15.4
567.098	14.87
567.293	15.28
567.489	15.65
567.684	15.2
567.88	15.65
568.076	16.19
568.271	15.61
568.467	15.67
568.662	15.52
568.858	16.04
569.053	15.68
569.248	16.07
569.444	15.2
569.639	15.35
569.835	15.9
570.03	15.99
570.225	16.16
570.421	16.67
570.616	16.41
570.812	15.96
571.007	15.69
571.202	15.7
571.397	15.56
571.593	16.05
571.788	16
571.983	15.96
572.178	15.98
572.374	15.45
572.569	15.2
572.764	15.6
572.959	16.22
573.154	16.18
573.35	16.41
573.545	16.66
573.74	16.65
573.935	16.4
574.13	16.65
574.325	16.52
574.52	16.51
574.715	16.76
574.91	16.75
575.105	16.56
575.3	16.45
575.495	16.86
575.69	16.67
575.885	17.21
576.08	17.79
576.275	17.32
576.47	17.42
576.665	18.34
576.86	18.66
577.055	18.13
577.25	18.63
577.444	18.85
577.639	18.38
577.834	18.89
578.029	18.44
578.224	17.8
578.418	18
578.613	18.1
578.808	16.67
579.003	15.85
579.197	16.4
579.392	16.34
579.587	16.7
579.781	17.14
579.976	16.96
580.171	16.67
580.365	16.4
580.56	16.76
580.755	17.65
580.949	18.28
581.144	19
581.338	20.05
581.533	20.44
581.727	20.14
581.922	20.52
582.116	20.25
582.311	20.8
582.505	21.8
582.7	21.91
582.894	21.24
583.089	22.34
583.283	21.92
583.478	21.63
583.672	21.11
583.866	21.62
584.061	21.91
584.255	22.15
584.449	21.73
584.644	21.69
584.838	21.25
585.032	21.7
585.226	20.93
585.421	21.71
585.615	21.01
585.809	20.87
586.003	20.76
586.198	20.41
586.392	20.57
586.586	20.63
586.78	19.34
586.974	19.48
587.168	19.12
587.363	18.89
587.557	18.53
587.751	18.33
587.945	18.16
588.139	17.8
588.333	17.1
588.527	17.56
588.721	17.88
588.915	18.22
589.109	18.66
589.303	18.07
589.497	17.55
589.691	17.11
589.885	18.38
590.079	18.49
590.273	19.37
590.466	20.03
590.66	19.56
590.854	20.06
591.048	20.37
591.242	20.24
591.436	19.94
591.629	20.4
591.823	21.34
592.017	19.6
592.211	19.61
592.404	19.57
592.598	19.47
592.792	19.12
592.986	18.73
593.179	18.4
593.373	19.39
593.567	19.95
593.76	19.81
593.954	19.28
594.147	20.18
594.341	20.55
594.535	19.78
594.728	19.76
594.922	20.21
595.115	20.05
595.309	20.31
595.502	18.79
595.696	17.64
595.889	17.96
596.083	17.73
596.276	17.33
596.47	16.71
596.663	16.23
596.856	16.05
597.05	15.98
597.243	15.86
597.437	15.89
597.63	16.42
597.823	18.22
598.017	17.92
598.21	18.38
598.403	18.89
598.596	19.61
598.79	20.41
598.983	20.68
599.176	20.96
599.369	21.21
599.563	20.95
599.756	21.84
599.949	22.01
600.142	22.01
600.335	21.25
600.528	21.52
600.722	21.79
600.915	21.72
601.108	21.28
601.301	20.72
601.494	20.48
601.687	20.7
601.88	19.26
602.073	18.6
602.266	19.26
602.459	20.41
602.652	19.77
602.845	19.11
603.038	18.72
603.231	19.08
603.424	18.56
603.617	18.58
603.809	18.31
604.002	18.17
604.195	18.12
604.388	17.61
604.581	17.19
604.774	17.79
604.966	18.25
605.159	18.84
605.352	18.79
605.545	19.19
605.737	19.99
605.93	20.02
606.123	20.58
606.316	20.35
606.508	20.48
606.701	19.92
606.894	19.67
607.086	19.47
607.279	18.92
607.471	18.64
607.664	19.02
607.857	17.67
608.049	18.05
608.242	18.13
608.434	18.22
608.627	18.47
608.819	19.03
609.012	19.05
609.204	18.78
609.397	18.72
609.589	18.88
609.782	19.18
609.974	19.1
610.166	19.07
610.359	19.16
610.551	20.1
610.743	20.35
610.936	20.23
611.128	19.92
611.32	20.23
611.513	21.04
611.705	21.33
611.897	21.44
612.09	23.27
612.282	23.32
612.474	23.16
612.666	22.14
612.858	21.18
613.051	21.94
613.243	23.25
613.435	23.37
613.627	23
613.819	21.73
614.011	21.84
614.203	21.03
614.395	20.88
614.588	21.63
614.78	21.78
614.972	22.42
615.164	21.06
615.356	20.78
615.548	21.84
615.74	22.86
615.932	23.72
616.124	23.63
616.315	23.51
616.507	23.91
616.699	23.6
616.891	23.24
617.083	24
617.275	24.19
617.467	23.69
617.659	22.59
617.85	22.63
618.042	23.15
618.234	23.33
618.426	23.18
618.618	22.62
618.809	23.81
619.001	24.52
619.193	23.08
619.384	23.76
619.576	24.2
619.768	24.65
619.959	24.05
620.151	24.25
620.343	24.13
620.534	24.51
620.726	24.99
620.917	24.2
621.109	24.09
621.301	24.61
621.492	24.54
621.684	23.25
621.875	23.23
622.067	23.08
622.258	22.18
622.45	22.29
622.641	21.69
622.832	21.74
623.024	21.67
623.215	22.04
623.407	21.34
623.598	20.96
623.789	21.1
623.981	21.16
624.172	21.46
624.363	22.43
624.555	22.09
624.746	22.94
624.937	22
625.129	21.52
625.32	20.64
625.511	20.84
625.702	20.95
625.893	21.47
626.085	22.55
626.276	22.36
626.467	21.96
626.658	22.28
626.849	21.58
627.04	21.95
627.231	22.54
627.422	23.15
627.614	22.99
627.805	23
627.996	23.26
628.187	22.31
628.378	21.93
628.569	21.9
628.76	20.89
628.951	21.54
629.142	21.99
629.332	21.45
629.523	21.24
629.714	21.95
629.905	21.61
630.096	21.86
630.287	21.26
630.478	21.59
630.669	21.87
630.859	23.87
631.05	23.23
631.241	23.25
631.432	23.14
631.623	23.24
631.813	23.46
632.004	23.27
632.195	22.53
632.385	21.98
632.576	22.77
632.767	22.2
632.957	21.35
633.148	21.71
633.339	22.22
633.529	22.74
633.72	23.59
633.91	23.23
634.101	23.95
634.292	23.58
634.482	25.41
634.673	24.92
634.863	24.85
635.054	24.41
635.244	25.15
635.435	24.66
635.625	24.62
635.815	24.56
636.006	24.61
636.196	25.33
636.387	25.61
636.577	24.14
636.767	23.99
636.958	23.47
637.148	23.92
637.338	23.35
637.529	23.71
637.719	23.4
637.909	22.79
638.099	22.12
638.29	21.56
638.48	22.11
638.67	22.08
638.86	22.87
639.05	23.39
639.241	23.34
639.431	21.81
639.621	20.73
639.811	20.52
640.001	21.41
640.191	21.83
640.381	20.39
640.571	18.98
640.761	20.42
640.951	20.44
641.141	20.96
641.331	20.56
641.521	22.52
641.711	23.05
641.901	23.75
642.091	22.22
642.281	22.45
642.471	24.19
642.661	25.53
642.851	24.43
643.041	24.04
643.231	23.57
643.42	22.74
643.61	21.35
643.8	20.61
643.99	20.19
644.18	21.32
644.369	21.84
644.559	20.52
644.749	19.62
644.939	20.29
645.128	20
645.318	20.86
645.508	20.52
645.697	20.9
645.887	20.66
646.076	21.05
646.266	20.86
646.456	20.62
646.645	21.03
646.835	20.36
647.024	20.78
647.214	20.29
647.403	19.82
647.593	22.23
647.782	22.27
647.972	23.72
648.161	22.89
648.351	22.8
648.54	22.98
648.73	21.88
648.919	23.42
649.108	22.53
649.298	21.84
649.487	21.91
649.677	20.3
649.866	20.87
650.055	19.62
650.244	20.37
650.434	19.77
650.623	19.74
650.812	20.94
651.002	20.66
651.191	21.22
651.38	22.51
651.569	22.94
651.758	24.4
651.947	24.18
652.137	26.12
652.326	26.28
652.515	25.89
652.704	25.53
652.893	25.8
653.082	25.95
653.271	24.62
653.46	24.37
653.649	23.41
653.838	22.58
654.027	22.52
654.216	21.69
654.405	21.47
654.594	22.55
654.783	22.57
654.972	22.29
655.161	21.52
655.35	23.41
655.539	22.63
655.728	23.2
655.916	23.07
656.105	21.78
656.294	22.44
656.483	21.71
656.672	21.18
656.86	21.25
657.049	21.04
657.238	20.26
657.427	19.92
657.615	20.74
657.804	20.18
657.993	19.23
658.181	20.81
658.37	19.51
658.559	20.42
658.747	20.51
658.936	20.17
659.125	20.41
659.313	22.52
659.502	22.09
659.69	22.18
659.879	21.99
660.067	23.22
660.256	22.73
660.444	23.09
660.633	22.6
660.821	22.71
661.01	22.85
661.198	22.17
661.387	21.27
661.575	21.81
661.763	20.35
661.952	22.01
662.14	21.99
662.328	20.92
662.517	22
662.705	22.44
662.893	23.24
663.082	23.92
663.27	25.57
663.458	25.98
663.646	25.18
663.834	27.17
664.023	25.49
664.211	24.83
664.399	25.82
664.587	25.89
664.775	26.29
664.963	25.41
665.152	25.87
665.34	24.35
665.528	23.63
665.716	23.82
665.904	23.74
666.092	24.6
666.28	23.54
666.468	23.17
666.656	22.67
666.844	22.06
667.032	22.94
667.22	22.72
667.408	23.18
667.596	24.19
667.784	24.07
667.971	23.56
668.159	22.78
668.347	23.8
668.535	23.74
668.723	24.74
668.911	24.74
669.098	24.35
669.286	24.77
669.474	24.35
669.662	22.44
669.849	22.34
670.037	23.38
670.225	23.36
670.413	24.15
670.6	25.66
670.788	22.52
670.976	22.57
671.163	23.29
671.351	22.3
671.538	22.35
671.726	24.6
671.913	25.96
672.101	25.87
672.289	27.54
672.476	27.26
672.664	25.93
672.851	27.44
673.039	26.23
673.226	24.63
673.413	24.85
673.601	24.95
673.788	23.09
673.976	22.97
674.163	21.39
674.35	19.48
674.538	21.26
674.725	21.32
674.912	21.3
675.1	22.53
675.287	22.12
675.474	22.69
675.662	22.23
675.849	23.67
676.036	22.56
676.223	23.01
676.411	24
676.598	23.2
676.785	24.6
676.972	25.01
677.159	24.55
677.346	24.02
677.533	23.75
677.721	24.91
677.908	25.07
678.095	26.35
678.282	26.22
678.469	26.22
678.656	25.43
678.843	26.02
679.03	26.13
679.217	26.09
679.404	27.46
679.591	27.17
679.778	25.56
679.964	24.52
680.151	22.72
680.338	23.12
680.525	22.74
680.712	21.4
680.899	21.2
681.086	20.45
681.272	21.38
681.459	22.15
681.646	21.17
681.833	24.62
682.02	24.08
682.206	26.59
682.393	27.41
682.58	27.52
682.766	29.73
682.953	28.11
683.14	29.13
683.326	27.82
683.513	26.61
683.7	27.48
683.886	24.54
684.073	25.04
684.259	23.71
684.446	21.31
684.632	20.91
684.819	19.48
685.005	19.92
685.192	18.7
685.378	19.49
685.565	18.79
685.751	18.82
685.938	19.82
686.124	20.01
686.31	18.82
686.497	20.68
686.683	21.45
686.87	22.02
687.056	21.44
687.242	21.78
687.429	21.47
687.615	21.3
687.801	21.31
687.987	21
688.174	22.23
688.36	23.26
688.546	21.74
688.732	21.28
688.918	20.45
689.105	21.28
689.291	22.83
689.477	22.45
689.663	23.86
689.849	24.04
690.035	24.75
690.221	23.68
690.407	24.05
690.593	25.86
690.779	25.1
690.965	26.13
691.151	25.15
691.337	24.1
691.523	24.67
691.709	25.44
691.895	24.9
692.081	24.13
692.267	24.84
692.453	23.91
692.639	23.03
692.825	23.69
693.011	22.69
693.196	24.45
693.382	23.85
693.568	21.14
693.754	20.23
693.94	20.31
694.125	19.54
694.311	19.98
694.497	21.04
694.682	20.12
694.868	20.35
695.054	21.01
695.239	19.37
695.425	19.64
695.611	22.24
695.796	21.93
695.982	21.99
696.168	22.05
696.353	20.19
696.539	19.07
696.724	20.96
696.91	21.39
697.095	20.78
697.281	21.02
697.466	21.8
697.652	22.92
697.837	22.14
698.023	21.93
698.208	22.11
698.393	23.05
698.579	23.37
698.764	22.47
698.949	22.37
699.135	22.63
699.32	23.28
699.505	22.29
699.691	21.65
699.876	22.87
700.061	24.1
700.246	25.24
700.432	26.76
700.617	27.47
700.802	27.68
700.987	27.12
701.172	25.46
701.358	24.62
701.543	23.59
701.728	20.89
701.913	19.51
702.098	19.16
702.283	20.54
702.468	18.73
702.653	16.84
702.838	17.58
703.023	18.5
703.208	20.37
703.393	21.23
703.578	22.44
703.763	25.12
703.948	26.62
704.133	25.63
704.318	21.63
704.503	20.48
704.688	22.14
704.873	20.7
705.057	20.17
705.242	21.87
705.427	22.91
705.612	24.6
705.797	24.08
705.981	22.45
706.166	22.43
706.351	24.86
706.536	25.33
706.72	25.34
706.905	26.98
707.09	28.21
707.274	28.64
707.459	26.85
707.644	25.88
707.828	24.87
708.013	27.51
708.197	27.61
708.382	27.13
708.567	26.66
708.751	25.75
708.936	25.02
709.12	24.28
709.305	22.83
709.489	22.76
709.673	24.5
709.858	26.62
710.042	25.02
710.227	25.67
710.411	23.62
710.596	23.14
710.78	24.81
710.964	24.86
711.149	24.76
711.333	24.34
711.517	26.63
711.702	25.61
711.886	24.1
712.07	26.42
712.254	26.42
712.438	28.57
712.623	28.35
712.807	27.41
712.991	26.3
713.175	27.93
713.359	31.37
713.544	29.69
713.728	28.22
713.912	26.83
714.096	25.12
714.28	26.9
714.464	24.05
714.648	24.56
714.832	23.47
715.016	24.65
715.2	23.23
715.384	18.54
715.568	17.99
715.752	18.85
715.936	20.82
716.12	20.58
716.304	17.32
716.488	19.12
716.671	19.46
716.855	19.72
717.039	19.12
717.223	19.41
717.407	21.02
717.59	22.24
717.774	22.42
717.958	20.88
718.142	20.33
718.325	20.73
718.509	20.41
718.693	20.09
718.877	20.63
719.06	18.92
719.244	19.7
719.428	18.81
719.611	17.13
719.795	17.04
719.978	17.33
720.162	19.83
720.345	20.73
720.529	22.07
720.713	22.49
720.896	20.26
721.08	20.34
721.263	18.55
721.446	20.68
721.63	20.74
721.813	20.69
721.997	18.16
722.18	15.86
722.364	15.52
722.547	15.61
722.73	14.88
722.914	17.53
723.097	20.2
723.28	19.62
723.464	19.14
723.647	20.67
723.83	19.65
724.013	22.61
724.197	21.65
724.38	20.03
724.563	16.5
724.746	16.66
724.929	15.46
725.112	13.66
725.296	15.03
725.479	12.42
725.662	11.47
725.845	10.85
726.028	11.21
726.211	12.2
726.394	15.3
726.577	17.56
726.76	19.5
726.943	19.81
727.126	19.7
727.309	17.4
727.492	19.24
727.675	19.05
727.858	18.62
728.041	17.51
728.224	19.88
728.407	18.32
728.589	16.13
728.772	13.97
728.955	13.14
729.138	15.79
729.321	17.57
729.503	18.88
729.686	19.59
729.869	21.21
730.052	23.02
730.234	19.02
730.417	16.63
730.6	19.44
730.782	18.63
730.965	20.07
731.148	21.18
731.33	17.78
731.513	15.58
731.695	16.57
731.878	17.18
732.061	19.82
732.243	21.36
732.426	24.14
732.608	23.41
732.791	26.21
732.973	28.18
733.156	22.53
733.338	26.73
733.52	30.5
733.703	27.93
733.885	25.4
734.068	21.6
734.25	23.43
734.432	23.18
734.615	21.96
734.797	21
734.979	18.43
735.162	21.59
735.344	22.12
735.526	18.39
735.708	19.45
735.891	24.16
736.073	24.83
736.255	25.8
736.437	28.03
736.619	28.59
736.802	29.26
736.984	29.59
737.166	29.84
737.348	29.09
737.53	29.31
737.712	31.68
737.894	28.92
738.076	29.22
738.258	26.56
738.44	26.05
738.622	23.47
738.804	23.57
738.986	23.45
739.168	24.86
739.35	24.72
739.532	26.06
739.714	25.38
739.896	26.01
740.078	26.58
740.259	27.9
740.441	28.4
740.623	33.36
740.805	35.51
740.987	37.04
741.168	34.84
741.35	34.62
741.532	33.85
741.714	30.55
741.895	33.19
742.077	31.09
742.259	31.04
742.44	27.49
742.622	23.45
742.804	21.38
742.985	21.8
743.167	18.06
743.348	21.61
743.53	22.45
743.711	21.29
743.893	20.44
744.075	24.95
744.256	22.79
744.438	22.95
744.619	28.62
744.8	28.72
744.982	26.7
745.163	29.19
745.345	27.51
745.526	26.48
745.707	31.56
745.889	32.76
746.07	27.14
746.252	29.54
746.433	29.86
746.614	35.17
746.795	37.17
746.977	37.55
747.158	34.92
747.339	34.2
747.52	32.65
747.702	27.65
747.883	21.49
748.064	22.51
748.245	22.51
748.426	21.08
748.607	15.53
748.788	17.33
748.97	13.89
749.151	19.66
749.332	17.06
749.513	15.73
749.694	18.78
749.875	16.89
750.056	18.82
750.237	22.3
750.418	24.06
750.599	21.66
750.78	20.29
750.96	24.38
751.141	18.27
751.322	17.67
751.503	17.75
751.684	16.72
751.865	21.55
752.046	17.61
752.226	16.18
752.407	15.15
752.588	13.76
752.769	9.69
752.949	10.68
753.13	14.27
753.311	18.47
753.492	20.23
753.672	21.49
753.853	18.65
754.034	20.7
754.214	19.05
754.395	23.85
754.575	27.11
754.756	30.88
754.937	30.9
755.117	35.38
755.298	33.47
755.478	32.62
755.659	34.01
755.839	39.38
756.02	41.26
756.2	42.4
756.381	42.79
756.561	39.11
756.741	32.64
756.922	27.12
757.102	21.72
757.283	19.87
757.463	20.91
757.643	17.84
757.823	14.64
758.004	16.07
758.184	16.56
758.364	12.16
758.545	11.08
758.725	12.11
758.905	13
759.085	17.04
759.265	17.21
759.446	18.14
759.626	15.29
759.806	16.16
759.986	14.28
760.166	11.15
760.346	7.08
760.526	9.28
760.706	11.8
760.886	13.86
761.066	10.82
761.246	6.05
761.426	5.76
761.606	8.06
761.786	5.86
761.966	7.52
762.146	8.22
762.326	11.23
762.506	12.93
762.686	12.78
762.866	12.2
763.046	14.57
763.225	22.24
763.405	22.09
763.585	22.56
763.765	22.49
763.945	23.12
764.124	23.08
764.304	25.13
764.484	24.48
764.664	24.11
764.843	26.93
765.023	26.22
765.203	23.82
765.382	25.38
765.562	25.71
765.741	28.42
765.921	23.82
766.101	26.59
766.28	27.09
766.46	29.66
766.639	32
766.819	31.44
766.998	33.92
767.178	32.28
767.357	30.23
767.537	28.11
767.716	29.05
767.896	32.01
768.075	29.93
768.254	29.82
768.434	27.6
768.613	23.36
768.792	20.51
768.972	16.05
769.151	15.71
769.33	20.4
769.51	20.68
769.689	17.95
769.868	17.06
770.047	17.59
770.226	18.97
770.406	15.76
770.585	17.07
770.764	20.24
770.943	23.06
771.122	27.65
771.301	25.1
771.48	25.84
771.66	32.79
771.839	36.17
772.018	38.02
772.197	33.47
772.376	36.35
772.555	37.54
772.734	34.19
772.913	33.95
773.092	31.67
773.271	35.29
773.449	41.43
773.628	34.29
773.807	31.1
773.986	32.13
774.165	30.61
774.344	26.66
774.523	27
774.701	32.24
774.88	34.62
775.059	35.34
775.238	32.22
775.417	29.55
775.595	31.11
775.774	32.66
775.953	26.92
776.131	34.63
776.31	31.8
776.489	32.76
776.667	28.11
776.846	27.27
777.025	21.84
777.203	17.15
777.382	20.28
777.56	23.15
777.739	22.36
777.917	27
778.096	24
778.274	31.52
778.453	30.28
778.631	35.44
778.81	34.02
778.988	35.71
779.166	41.85
779.345	32.98
779.523	29.76
779.702	30.53
779.88	29.98
780.058	29.45
780.237	26.22
780.415	27.78
780.593	26.49
780.771	27.82
780.95	25.94
781.128	23.13
781.306	27.66
781.484	29.92
781.662	28.95
781.841	24.68
782.019	26.4
782.197	29.53
782.375	31.92
782.553	28.04
782.731	22.5
782.909	25.69
783.087	27.36
783.265	23.01
783.443	24.61
783.621	28.71
783.799	31.48
783.977	26.81
784.155	24.57
784.333	19.94
784.511	22.47
784.689	23.82
784.867	22.49
785.045	21.27
785.223	23.67
785.4	27.64
785.578	28.47
785.756	31.68
785.934	31.92
786.112	30.4
786.289	30.5
786.467	24.09
786.645	24.6
786.823	28.64
787	29.49
787.178	29.63
787.356	18.53
787.533	13.86
787.711	13.58
787.889	11.85
788.066	12.17
788.244	8.34
788.421	17.32
788.599	20.64
788.776	17.03
788.954	14.44
789.131	17.87
789.309	25.15
789.486	25.25
789.664	18.68
789.841	19.9
790.019	18.62
790.196	23.57
790.373	20.86
790.551	17.72
790.728	24.56
790.906	23.32
791.083	18.23
791.26	12.66
791.437	12.49
791.615	17.74
791.792	20.36
791.969	24.96
792.146	16.6
792.324	14.21
792.501	18.25
792.678	8.24
792.855	7.36
793.032	17.97
793.209	15.16
793.387	14.38
793.564	15.65
793.741	15.07
793.918	9.67
794.095	11.8
794.272	8.29
794.449	5.99
794.626	11.05
794.803	14.38
794.98	11.58
795.157	11.56
795.334	15.88
795.511	16.6
795.688	16.35
795.864	21.04
796.041	21.68
796.218	28.28
796.395	32.82
796.572	28.45
796.749	29.34
796.925	23.92
797.102	26.21
797.279	23.08
797.456	24.1
797.632	20.76
797.809	20.45
797.986	28.45
798.162	32.44
798.339	24.85
798.516	23.04
798.692	15.57
798.869	9.53
799.046	23.02
799.222	17.4
799.399	8.63
799.575	9.1
799.752	1.39
799.928	-4.4
800.105	-12.38
800.281	-1.19
800.458	-5.03
800.634	-2.3
800.811	2.19
800.987	-2.74
801.163	-1.37
801.34	-1.51
801.516	-5.16
801.692	8.4
801.869	8.66
802.045	15.85
802.221	11.2
802.398	21.1
802.574	18.84
802.75	14.48
802.926	12.83
803.103	22.25
803.279	22.54
803.455	28.43
803.631	17.58
803.807	24.12
803.983	13.34
804.16	10.43
804.336	6.22
804.512	7.79
804.688	18.2
804.864	13.3
805.04	2.16
805.216	4.64
805.392	3.42
805.568	12.69
805.744	5.18
805.92	15.47
806.096	20.87
806.272	21.53
806.448	21.55
806.623	19.64
806.799	24.19
806.975	29.08
807.151	27.36
807.327	17.58
807.503	16.96
807.678	26.21
807.854	18.48
808.03	15.8
808.206	6.76
808.381	8.21
808.557	8.35
808.733	5.66
808.908	3.72
809.084	8.44
809.26	7.57
809.435	-1.1
809.611	-19.03
809.787	-14
809.962	-16.4
810.138	-10.98
810.313	-17.42
810.489	-18.7
810.664	-16.55
810.84	-5.38
811.015	-14.02
811.191	-5.55
811.366	2.8
811.542	11.44
811.717	4.57
811.892	1.68
812.068	5.25
812.243	13.56
812.419	11.23
812.594	-1.11
812.769	-8.97
812.944	-3.02
813.12	-3.05
813.295	-7.26
813.47	-9.24
813.645	1.02
813.821	4.33
813.996	4.29
814.171	-3.16
814.346	0
814.521	1.61
814.697	6.16
814.872	-1.36
815.047	2.76
815.222	2.17
815.397	0.48
815.572	-13.02
815.747	-13.55
815.922	-19.46
816.097	-23.11
816.272	-21.83
816.447	-14.04
816.622	-20.83
816.797	-12.37
816.972	-14.81
817.147	-11.37
817.322	-9.29
817.496	-0.45
817.671	7.35
817.846	3.78
818.021	-0.43
818.196	-1.6
818.371	0.43
818.545	8.02
818.72	2.77
818.895	9.59
819.069	8.1
819.244	13.54
819.419	12.59
819.594	5.36
819.768	5.57
819.943	11.8
820.117	11.01
820.292	10.25
820.467	8.94
820.641	11.41
820.816	9.97
820.99	11.24
821.165	8.62
821.339	7.97
821.514	9.84
821.688	11.07
821.863	11.46
822.037	13.64
822.212	14.54
822.386	14.33
822.56	12.3
822.735	12.05
822.909	10.44
823.084	14.25
823.258	16.11
823.432	15.43
823.606	16.37
823.781	15
823.955	14.74
824.129	13.1
824.303	19.53
824.478	24.22
824.652	23.97
824.826	24.99
825	25.35
825.174	23.08
825.348	21.94
825.523	21.51
825.697	17.44
825.871	14.75
826.045	16.7
826.219	11.17
826.393	8.18
826.567	6.57
826.741	6.8
826.915	0.58
827.089	0.25
827.263	-0.34
827.437	-0.87
827.611	3.39
827.784	5.28
827.958	-0.17
828.132	-1.14
828.306	-3.41
828.48	-2.44
828.654	-2.69
828.827	-1.6
829.001	-3.42
829.175	-3.89
829.349	-4.12
829.522	-12.76
829.696	-20.46
829.87	-19.84
830.044	-22.48
830.217	-21.29
830.391	-31.35
830.565	-29.7
830.738	-27.99
830.912	-32.12
831.085	-36.6
831.259	-41.3
831.432	-22.67
831.606	-30.79
831.779	-25.52
831.953	-19.66
832.126	-10.97
832.3	-6.41
832.473	-8.45
832.647	-9.5
832.82	-10.69
832.994	-4.8
833.167	0.74
833.34	-2.86
833.514	6.2
833.687	6.83
833.86	12.69
834.034	11.85
834.207	17.55
834.38	18.2
834.553	17.68
834.727	21.74
834.9	17.66
835.073	21.38
835.246	28.1
835.419	25.08
835.593	27.1
835.766	21.24
835.939	16.84
836.112	-3.66
836.285	-3.44
836.458	-5.9
836.631	-12.91
836.804	-8.99
836.977	-22.84
837.15	-31.42
837.323	-33.27
837.496	-65.45
837.669	-84.6
837.842	-88.36
838.015	-37.79
838.188	-24.22
838.361	-28.11
838.533	-1.26
838.706	-5.25
838.879	1.34
839.052	-3.43
839.225	0.28
839.398	15.57
839.57	32.28
839.743	14.34
839.916	5.24
840.088	-3.49
840.261	-5.3
840.434	-28.34
840.607	-14.81
840.779	-10.79
840.952	-8.87
841.124	-7.36
841.297	5.89
841.47	-0.37
841.642	15.6
841.815	14.72
841.987	17.98
842.16	22.37
842.332	33.56
842.505	34.03
842.677	34.7
842.85	28.69
843.022	17.34
843.194	15.51
843.367	-2.2
843.539	-3.89
843.712	0.37
843.884	-17.33
844.056	-16.6
844.229	-28.32
844.401	-57.84
844.573	-56.34
844.745	-36.7
844.918	-35.25
845.09	-48.93
845.262	-66.06
845.434	-103.06
845.606	-100.14
845.779	-139.61
845.951	-130.06
846.123	-181.18
846.295	-129.15
846.467	-147.23
846.639	-369.53
846.811	-544.32
846.983	-596.13
847.155	-599.34
847.327	-206.42
847.499	-309.15
847.671	-127.78
847.843	-197.52
848.015	-201.66
848.187	-293.68
848.359	-1073.03
848.531	-944.44
848.703	-266.18
848.875	-483.87
849.047	-426.8
849.218	-386.44
849.39	-110.12
849.562	-296.15
849.734	-113.25
849.905	-57.21
850.077	-71.24
850.249	-9.12
850.421	-10.08
850.592	-38.71
850.764	-17.67
850.936	5.7
851.107	-29.37
851.279	-71.34
851.451	-41.41
851.622	-36.96
851.794	-23.85
851.965	-29.36
852.137	-45.77
852.308	-84.5
852.48	-96.74
852.651	-76.08
852.823	-80.97
852.994	-76.26
853.166	-50.68
853.337	-65.57
853.509	-50.39
853.68	-57.94
853.851	-36
854.023	-26.53
854.194	-0.99
854.365	2.05
854.537	-9.25
854.708	-10.72
854.879	-1.73
855.05	3.28
855.222	7.46
855.393	10.34
855.564	6.64
855.735	-4.64
855.906	-34.9
856.078	-75.23
856.249	-151.22
856.42	-96.74
856.591	-80.22
856.762	-86.55
856.933	-78.95
857.104	-66.08
857.275	-154.01
857.446	-113.68
857.617	-108.07
857.788	-44.58
857.959	-17.31
858.13	-14.71
858.301	-54.77
858.472	-43.22
858.643	-58.67
858.814	-39.91
858.985	-23.03
859.155	-19.44
859.326	-22.69
859.497	-22.1
859.668	-27.45
859.839	-30.64
860.009	-26.25
860.18	-15.01
860.351	-22.73
860.522	-58.58
860.692	-104.11
860.863	-149.2
861.034	-135.52
861.204	-137.5
861.375	-137.8
861.546	-146.1
861.716	-173.83
861.887	-106.15
862.057	-111.01
862.228	-116.59
862.398	-95.56
862.569	-114.91
862.739	-81.52
862.91	-53.58
863.08	-36.39
863.251	-39.6
863.421	-37.55
863.592	-53.65
863.762	-86.72
863.932	-70.42
864.103	-40.71
864.273	-31.74
864.443	-25.68
864.614	-22.41
864.784	-23.77
864.954	-41.64
865.125	-34.97
865.295	-39.9
865.465	-20.02
865.635	-2.6
865.805	-2.26
865.976	-13.83
866.146	-0.07
866.316	-3.94
866.486	-4.22
866.656	6.73
866.826	12.87
866.996	9.61
867.166	11.19
867.336	8.87
867.506	12.86
867.676	-1.67
867.846	-7.56
868.016	-24.33
868.186	-24.27
868.356	-92.31
868.526	-645.83
868.696	-21200
868.866	310.59
869.036	-130.28
869.206	-645.16
869.376	-1360.98
869.545	-248.33
869.715	-354.42
869.885	-439.42
870.055	-166.42
870.224	-201.3
870.394	-218.18
870.564	-174.46
870.734	-187.87
870.903	-312.5
871.073	-95.96
871.243	-52.65
871.412	-62.5
871.582	4.4
871.751	1.16
871.921	-20.58
872.091	38.89
872.26	-4.1
872.43	-1.21
872.599	42.2
872.769	25.37
872.938	-4.15
873.108	-38.27
873.277	-62.25
873.446	-98.98
873.616	-71.79
873.785	-95.83
873.955	-95.86
874.124	-66.71
874.293	-82.21
874.463	-98.21
874.632	-131.59
874.801	-107.67
874.971	-77.36
875.14	-58.27
875.309	-54.67
875.478	-66.57
875.647	-70.7
875.817	-50.83
875.986	-56.51
876.155	-62.24
876.324	-51.27
876.493	-67.93
876.662	-65.23
876.831	-101.52
877	-79.75
877.17	-68.08
877.339	-37.19
877.508	-49.48
877.677	-53.11
877.846	-48.74
878.015	-46.42
878.184	-54.98
878.352	-42.46
878.521	-45
878.69	-26.13
878.859	-61.39
879.028	-32.67
879.197	-40.9
879.366	-21.13
879.534	-16.9
879.703	-14.8
879.872	-14.21
880.041	-5.84
880.21	-1.96
880.378	0.17
880.547	-1.47
880.716	8.67
880.884	5.21
881.053	8.51
881.222	3.84
881.39	5.05
881.559	9.61
881.727	10.29
881.896	5.68
882.065	9.33
882.233	2.31
882.402	6.7
882.57	3.01
882.739	-2.58
882.907	-15.69
883.076	-15.48
883.244	-14.36
883.412	-17.37
883.581	-17.05
883.749	-8.25
883.918	-22.05
884.086	-10.98
884.254	-29.47
884.423	-35.71
884.591	-21.49
884.759	-45.75
884.927	-55.44
885.096	-77.82
885.264	-85.62
885.432	-117.61
885.6	-99.29
885.769	-55.28
885.937	-91.19
886.105	-63.52
886.273	-87.02
886.441	-118.32
886.609	-47.11
886.777	-59.91
886.945	-48.2
887.113	-104.2
887.281	-65.05
887.449	-106.02
887.617	-124.31
887.785	-100.17
887.953	-56.53
888.121	-31.06
888.289	-35.71
888.457	-31.57
888.625	-9.25
888.793	-16.97
888.961	8.34
889.129	6.14
889.296	20.25
889.464	16.02
889.632	27.35
889.8	7.99
889.967	2.52
890.135	24.41
