Data from JASIL_3376_Reflection_1.txt Node
Date: Thu Nov 19 18:48:09 EST 2015
User: Geneva
Spectrometer: USB4E03002
Autoset integration time: false
Trigger mode: 4
Integration Time (sec): 1.000000E-1
Scans to average: 10
Electric dark correction enabled: false
Nonlinearity correction enabled: false
Boxcar width: 5
Stray light correction enabled: false
XAxis mode: Wavelengths
Stop averaging: false
Number of Pixels in Spectrum: 3648
>>>>>Begin Spectral Data<<<<<
177.575	106.61
177.794	110.11
178.014	115.82
178.233	130.6
178.452	134.64
178.672	132.48
178.891	141.09
179.11	137.69
179.33	144.14
179.549	150.73
179.768	146
179.987	138.99
180.207	144.98
180.426	141.92
180.645	137.41
180.864	135.6
181.084	141.54
181.303	148.7
181.522	149.93
181.741	156.4
181.96	162.64
182.179	163.45
182.398	171.5
182.618	164.72
182.837	171.23
183.056	154.3
183.275	157.5
183.494	145.79
183.713	138.28
183.932	136.61
184.151	125.17
184.37	126.42
184.589	120.08
184.808	118.33
185.027	113.58
185.246	109.34
185.465	117.89
185.684	118.46
185.903	126.59
186.122	121.01
186.341	127.42
186.56	133.43
186.779	132.2
186.998	137
187.216	139.7
187.435	135.34
187.654	141.99
187.873	145.14
188.092	144.88
188.311	144.46
188.53	152.53
188.748	161.36
188.967	161.56
189.186	152.77
189.405	150.95
189.623	147.75
189.842	157.82
190.061	149.25
190.28	135.3
190.498	130.7
190.717	123.95
190.936	116.75
191.154	109.55
191.373	101.28
191.592	102.59
191.81	102.71
192.029	104.38
192.248	109.41
192.466	113.52
192.685	116.57
192.904	116.51
193.122	121.79
193.341	121.26
193.559	119.2
193.778	140.54
193.996	133.44
194.215	132.84
194.433	132.57
194.652	123.55
194.87	121.85
195.089	126.27
195.307	131.3
195.526	127.83
195.744	134.43
195.963	140.87
196.181	130.13
196.399	128.58
196.618	130.45
196.836	128.02
197.055	123.76
197.273	126.16
197.491	127.37
197.71	132.14
197.928	129.23
198.146	130.52
198.365	127.01
198.583	124.83
198.801	123.11
199.019	111.98
199.238	114.54
199.456	121.13
199.674	118.2
199.892	114.13
200.111	107.54
200.329	112
200.547	117.18
200.765	119.67
200.983	120.57
201.202	126.31
201.42	135.97
201.638	129.32
201.856	124.81
202.074	122.91
202.292	126.73
202.51	124.31
202.728	118.33
202.946	106.74
203.165	104.86
203.383	112.51
203.601	109.27
203.819	102.75
204.037	111.73
204.255	104.68
204.473	110.3
204.691	110.85
204.909	116.24
205.127	114.68
205.345	130.38
205.562	129.34
205.78	126.18
205.998	132.63
206.216	134.64
206.434	133.87
206.652	144.35
206.87	142
207.088	135.26
207.306	138.63
207.523	142.35
207.741	128.71
207.959	131.26
208.177	126.99
208.395	116.18
208.612	125.75
208.83	127.23
209.048	123.45
209.266	123.01
209.483	124.75
209.701	121.49
209.919	122.44
210.136	126.51
210.354	130.91
210.572	133.79
210.79	147.96
211.007	142.66
211.225	146.42
211.442	155.38
211.66	154.67
211.878	156.96
212.095	315.78
212.313	269.71
212.53	269.7
212.748	218.65
212.966	242.29
213.183	257.36
213.401	242.02
213.618	217.24
213.836	212.8
214.053	199.88
214.271	168.17
214.488	97.12
214.705	95.97
214.923	95.06
215.14	98.5
215.358	87.38
215.575	87.22
215.793	91.74
216.01	91.79
216.227	91.58
216.445	98.51
216.662	108.61
216.879	103.84
217.097	102.38
217.314	111.32
217.531	116.5
217.749	123.52
217.966	132.51
218.183	138.71
218.4	132.59
218.618	132.49
218.835	134.73
219.052	127.7
219.269	133.39
219.487	143.88
219.704	150.83
219.921	153.17
220.138	143.18
220.355	135.76
220.572	127.69
220.79	131.5
221.007	134.13
221.224	132.13
221.441	123.69
221.658	124.78
221.875	122.47
222.092	116.03
222.309	113.83
222.526	117.3
222.743	111.62
222.96	113.58
223.177	120.03
223.394	116.46
223.611	112.82
223.828	114.96
224.045	106.82
224.262	105.76
224.479	97.57
224.696	95.59
224.913	94.64
225.13	95.29
225.347	93.04
225.564	88.97
225.781	85.68
225.997	78.95
226.214	75.45
226.431	75.2
226.648	70.17
226.865	69.42
227.082	65.4
227.298	61.79
227.515	58.87
227.732	55.95
227.949	55.21
228.165	52.17
228.382	53.46
228.599	54.24
228.816	52.4
229.032	52.74
229.249	54.04
229.466	55.72
229.682	57.08
229.899	58.27
230.116	57.63
230.332	59.06
230.549	60.99
230.765	59.63
230.982	61.98
231.199	68.01
231.415	70.16
231.632	69.32
231.848	73.1
232.065	70.36
232.281	71.16
232.498	71.8
232.714	72.31
232.931	73.42
233.147	75.57
233.364	75.79
233.58	72.3
233.797	72.34
234.013	71.15
234.23	67.28
234.446	68.31
234.662	68.91
234.879	69.17
235.095	68.62
235.312	65.17
235.528	65.32
235.744	64.12
235.961	68.3
236.177	68.27
236.393	68.67
236.61	69.53
236.826	70.54
237.042	71.24
237.258	68.97
237.475	69.52
237.691	70.58
237.907	67.77
238.123	68.92
238.339	66.58
238.556	65.01
238.772	64.69
238.988	65.98
239.204	66.24
239.42	64.14
239.636	63.69
239.853	61.42
240.069	59.55
240.285	55.26
240.501	50.41
240.717	46.85
240.933	44.31
241.149	42.69
241.365	39.46
241.581	39.81
241.797	38.82
242.013	39.84
242.229	38.53
242.445	40.09
242.661	44.38
242.877	45.52
243.093	46.69
243.309	49.26
243.525	50.27
243.741	53.06
243.957	50.37
244.173	52.37
244.388	51.05
244.604	48.74
244.82	45.74
245.036	42.27
245.252	40.95
245.468	38.88
245.683	35.13
245.899	33.56
246.115	30.81
246.331	29.37
246.547	28.02
246.762	26.68
246.978	27.21
247.194	27.06
247.409	26.82
247.625	26.78
247.841	27.79
248.057	29.94
248.272	30.76
248.488	32.64
248.703	35.17
248.919	35.6
249.135	37.84
249.35	39.74
249.566	41.31
249.782	42.79
249.997	43.98
250.213	43.69
250.428	41.97
250.644	40.49
250.859	40.52
251.075	39.43
251.29	39.98
251.506	37.87
251.721	36.65
251.937	35.07
252.152	35.87
252.368	36.6
252.583	36.97
252.798	37.01
253.014	40.52
253.229	40.35
253.445	41.03
253.66	42.78
253.875	45.44
254.091	46.76
254.306	49.84
254.521	50.99
254.737	48.2
254.952	46.14
255.167	46.93
255.383	46.06
255.598	45.57
255.813	44.83
256.028	43.77
256.244	43.96
256.459	42.82
256.674	41.41
256.889	37.51
257.104	36.89
257.32	37.07
257.535	35.44
257.75	31.91
257.965	30.3
258.18	28.47
258.395	25.97
258.61	24.19
258.826	22.37
259.041	20.05
259.256	20.48
259.471	21.22
259.686	19.8
259.901	20.13
260.116	20.4
260.331	20.06
260.546	20.92
260.761	22.4
260.976	23.92
261.191	24.96
261.406	26.66
261.621	26.15
261.836	26.55
262.05	28.3
262.265	28.45
262.48	29.73
262.695	32.16
262.91	34.02
263.125	33.99
263.34	31.84
263.555	31.88
263.769	32.39
263.984	34.78
264.199	37.03
264.414	37.8
264.629	36.85
264.843	38.68
265.058	38.33
265.273	36.56
265.488	36.72
265.702	38.07
265.917	37.21
266.132	37.07
266.346	35.8
266.561	34.55
266.776	34.49
266.99	34.29
267.205	33.15
267.42	31.38
267.634	31.29
267.849	31.09
268.063	30.14
268.278	32.3
268.492	32.86
268.707	32.25
268.922	31.87
269.136	32.14
269.351	31.65
269.565	31.91
269.78	31.92
269.994	29.9
270.209	28.79
270.423	29.49
270.637	27.21
270.852	26.9
271.066	27.24
271.281	26.17
271.495	25.54
271.709	26.02
271.924	24.29
272.138	24.65
272.353	25.91
272.567	24.92
272.781	24.6
272.996	25.43
273.21	24.45
273.424	24.86
273.638	25.87
273.853	25.65
274.067	25.51
274.281	25.78
274.495	25.48
274.71	25.75
274.924	27.79
275.138	27.59
275.352	28.59
275.566	30.71
275.781	29.18
275.995	27.79
276.209	29.03
276.423	29.04
276.637	30.39
276.851	31.19
277.065	30.04
277.279	30.21
277.493	31.38
277.707	30.07
277.921	29.67
278.135	30.77
278.349	32.64
278.563	32.09
278.777	31.24
278.991	29.91
279.205	28.33
279.419	29.11
279.633	27.99
279.847	26.97
280.061	27.23
280.275	26.96
280.489	27.32
280.703	25.32
280.917	24.18
281.131	25.64
281.344	26.24
281.558	26.2
281.772	26.4
281.986	25.58
282.2	24.55
282.414	24.24
282.627	23.02
282.841	22.51
283.055	22.37
283.269	22.91
283.482	21.32
283.696	21.37
283.91	20.87
284.123	19.24
284.337	19.28
284.551	19.83
284.764	18.45
284.978	18.52
285.192	17.82
285.405	18.27
285.619	17.33
285.833	18.45
286.046	17.88
286.26	19.24
286.473	20.96
286.687	21.79
286.9	21.4
287.114	22.4
287.327	22.15
287.541	23.3
287.754	23.55
287.968	25.51
288.181	24.62
288.395	25.37
288.608	25.44
288.822	23.4
289.035	24.23
289.248	25.61
289.462	24.92
289.675	25.57
289.889	24.9
290.102	25.66
290.315	23.89
290.529	24.71
290.742	24.72
290.955	23.55
291.169	24.07
291.382	23.17
291.595	21.33
291.808	22.53
292.022	22.12
292.235	22.64
292.448	22.05
292.661	22.27
292.875	21.53
293.088	21.45
293.301	21.63
293.514	22.51
293.727	22.33
293.94	23.5
294.153	23.75
294.367	23.84
294.58	23.06
294.793	22.25
295.006	21.67
295.219	21.99
295.432	21.05
295.645	20.68
295.858	20.62
296.071	20.43
296.284	19.97
296.497	19.68
296.71	18.94
296.923	18.65
297.136	18.57
297.349	19.15
297.562	19.23
297.775	20.16
297.988	20.33
298.201	20.93
298.414	21.57
298.626	21.62
298.839	22.24
299.052	23.56
299.265	25.33
299.478	23.82
299.691	24.47
299.903	23.12
300.116	22.8
300.329	24.59
300.542	23.39
300.755	23.42
300.967	23.98
301.18	23.8
301.393	22.32
301.605	22.15
301.818	25.2
302.031	26.11
302.243	27.21
302.456	27.4
302.669	26.18
302.881	27.24
303.094	28
303.307	28.14
303.519	27.61
303.732	29.16
303.944	28.48
304.157	29.37
304.37	28.37
304.582	28.61
304.795	29.04
305.007	29.03
305.22	29.67
305.432	28.7
305.645	27.83
305.857	28.35
306.069	28.99
306.282	29.76
306.494	28.97
306.707	29.53
306.919	28.87
307.132	28.7
307.344	27.91
307.556	26.29
307.769	25.65
307.981	26.62
308.193	25.56
308.406	24.59
308.618	23.1
308.83	22.27
309.043	21.09
309.255	21.91
309.467	20.46
309.679	20.43
309.892	19.98
310.104	20.56
310.316	19.92
310.528	19.58
310.74	19.26
310.953	18.97
311.165	18.48
311.377	18.83
311.589	18.32
311.801	19.5
312.013	20.25
312.225	21.4
312.437	21.8
312.649	21.96
312.862	22.89
313.074	22.77
313.286	24.24
313.498	27.39
313.71	28.36
313.922	29.04
314.134	28.34
314.346	29.72
314.558	30.33
314.77	30.65
314.982	31.47
315.193	31.91
315.405	32.73
315.617	32.99
315.829	30.01
316.041	30.95
316.253	31.32
316.465	31.87
316.677	31.17
316.888	29.15
317.1	28.81
317.312	28.05
317.524	27.98
317.736	28.04
317.947	28.52
318.159	29.57
318.371	28.55
318.583	28.35
318.794	29.23
319.006	29.4
319.218	30.66
319.43	29.53
319.641	30.48
319.853	29.27
320.064	28.19
320.276	28.3
320.488	27.6
320.699	27.5
320.911	27.77
321.123	28.3
321.334	27.79
321.546	27.15
321.757	28.87
321.969	28.32
322.18	29.19
322.392	30.91
322.603	28.72
322.815	28.72
323.026	28.01
323.238	26.34
323.449	26.36
323.661	25.15
323.872	25.06
324.083	23.88
324.295	23.9
324.506	23.92
324.718	22.99
324.929	25.1
325.14	25.6
325.352	25.93
325.563	26.7
325.774	26.51
325.986	27.49
326.197	27.52
326.408	27.12
326.62	25.9
326.831	25.06
327.042	25.79
327.253	25.27
327.464	24.69
327.676	24.35
327.887	24.75
328.098	23.48
328.309	24.51
328.52	25.03
328.732	25.29
328.943	27.76
329.154	28.87
329.365	28.47
329.576	27.99
329.787	28.16
329.998	28.64
330.209	28.18
330.42	28.93
330.631	27.94
330.842	27.77
331.053	28.75
331.264	27.16
331.475	27.79
331.686	27.84
331.897	27.68
332.108	28.19
332.319	27.81
332.53	28.27
332.741	28.22
332.952	28.61
333.163	29.49
333.374	28.79
333.585	28.84
333.795	27.42
334.006	28.29
334.217	28.23
334.428	27.74
334.639	27.83
334.849	27.76
335.06	28.27
335.271	27.85
335.482	26.71
335.692	27.08
335.903	26.37
336.114	26.99
336.325	25.45
336.535	26.16
336.746	26.64
336.957	27.47
337.167	27.26
337.378	27.37
337.589	27.44
337.799	28.16
338.01	28.94
338.22	29.76
338.431	29.47
338.642	30.27
338.852	30.61
339.063	31.04
339.273	30.36
339.484	30.26
339.694	29.26
339.905	28.93
340.115	28.08
340.326	26.51
340.536	26.73
340.746	27.24
340.957	27.22
341.167	26.36
341.378	25.29
341.588	25.08
341.799	24.93
342.009	23.9
342.219	24.7
342.43	25.58
342.64	26.95
342.85	26.95
343.061	25.71
343.271	25.31
343.481	25.06
343.691	25.38
343.902	25.39
344.112	25.68
344.322	26.4
344.532	26.02
344.743	25.85
344.953	25.65
345.163	24.95
345.373	26.23
345.583	26.66
345.793	27.11
346.004	27.28
346.214	26.91
346.424	27.1
346.634	27.51
346.844	27.93
347.054	28.29
347.264	27.45
347.474	27.76
347.684	27.31
347.894	25.15
348.104	24.43
348.314	24.7
348.524	24.58
348.734	24.65
348.944	25.37
349.154	24.28
349.364	22.85
349.574	23.45
349.784	23.98
349.994	24.06
350.204	26.41
350.413	27.15
350.623	27.64
350.833	27.95
351.043	27.98
351.253	27.3
351.463	28.59
351.672	29.23
351.882	29.44
352.092	29.7
352.302	29.45
352.511	29.26
352.721	28.68
352.931	27.39
353.141	27.52
353.35	26.51
353.56	26.24
353.77	24.95
353.979	25.23
354.189	25.73
354.399	23.8
354.608	22.87
354.818	21.85
355.027	21.56
355.237	22.21
355.447	21.91
355.656	22.19
355.866	22.06
356.075	22.35
356.285	21.59
356.494	20.97
356.704	21.55
356.913	21.68
357.123	21.98
357.332	21.51
357.542	20.75
357.751	20.52
357.96	20.89
358.17	20.42
358.379	20.64
358.589	20.21
358.798	19.35
359.007	19.38
359.217	19.96
359.426	19.69
359.635	20.11
359.845	20.3
360.054	21.12
360.263	19.9
360.472	20.49
360.682	19.62
360.891	19.97
361.1	20.42
361.309	20.59
361.519	20.17
361.728	20.34
361.937	20.07
362.146	20.19
362.355	19.28
362.564	20.03
362.774	19.79
362.983	20.58
363.192	20.65
363.401	20.36
363.61	20.07
363.819	20.19
364.028	20.32
364.237	20.22
364.446	20.54
364.655	21.04
364.864	21.09
365.073	21.35
365.282	21.17
365.491	21.73
365.7	21.26
365.909	21.06
366.118	21.6
366.327	21.62
366.536	21.95
366.745	21.8
366.954	21.81
367.162	22.06
367.371	21.98
367.58	22.15
367.789	22.07
367.998	22.32
368.207	22.49
368.415	23.2
368.624	22.97
368.833	23.08
369.042	22.67
369.25	23.25
369.459	23
369.668	22.6
369.877	21.92
370.085	21.41
370.294	21.18
370.503	21.25
370.711	20.51
370.92	20.39
371.129	20.51
371.337	20.18
371.546	19.38
371.754	19.03
371.963	19.65
372.171	20.06
372.38	20.29
372.589	21.28
372.797	21.37
373.006	20.39
373.214	20.02
373.423	19.16
373.631	19.28
373.84	19.61
374.048	18.91
374.256	18.6
374.465	18.21
374.673	18.1
374.882	17.2
375.09	16.57
375.298	16.97
375.507	16.83
375.715	17.41
375.923	17.22
376.132	16.78
376.34	17.62
376.548	16.94
376.757	17.1
376.965	17.05
377.173	17.12
377.381	17.65
377.59	17.81
377.798	18.61
378.006	19.11
378.214	19.84
378.423	20.35
378.631	20.77
378.839	21.31
379.047	21.84
379.255	21.61
379.463	22.14
379.671	21.89
379.879	21.95
380.088	21.63
380.296	21.45
380.504	21.04
380.712	20.48
380.92	19.61
381.128	19.6
381.336	19.71
381.544	20.13
381.752	20.09
381.96	20.58
382.168	20.08
382.376	19.73
382.584	19.56
382.791	19.56
382.999	19.32
383.207	19.62
383.415	19.77
383.623	19.08
383.831	18.54
384.039	18.12
384.247	17.78
384.454	18.4
384.662	18
384.87	17.48
385.078	18.22
385.285	18.32
385.493	17.37
385.701	16.86
385.909	16.95
386.116	17.16
386.324	17.19
386.532	16.91
386.739	17.12
386.947	18.4
387.155	18.63
387.362	17.67
387.57	17.6
387.778	17.92
387.985	18.06
388.193	18.47
388.4	18.49
388.608	17.69
388.816	17.82
389.023	16.75
389.231	16.14
389.438	15.75
389.646	16.25
389.853	16.45
390.061	16.84
390.268	16.62
390.475	16.08
390.683	16.21
390.89	16.81
391.098	16.86
391.305	17.37
391.512	17.11
391.72	17.37
391.927	17.33
392.135	17.14
392.342	17.27
392.549	17.34
392.756	16.98
392.964	16.45
393.171	16.57
393.378	16
393.586	15.95
393.793	15.93
394	15.99
394.207	15.57
394.414	15.56
394.622	15.41
394.829	14.93
395.036	15.01
395.243	15.04
395.45	14.78
395.657	15.41
395.864	15.33
396.072	15.39
396.279	15.67
396.486	15.45
396.693	15.45
396.9	15.26
397.107	16.32
397.314	16.65
397.521	16.79
397.728	17.14
397.935	17.14
398.142	17.1
398.349	16.57
398.556	16.02
398.763	16.64
398.97	16.35
399.177	16.41
399.383	15.97
399.59	15.48
399.797	15.42
400.004	15.55
400.211	15.81
400.418	16.06
400.625	16.71
400.831	16.54
401.038	16.53
401.245	17.16
401.452	17.57
401.658	17.27
401.865	18.02
402.072	17.82
402.279	17.53
402.485	17.57
402.692	17.96
402.899	17.68
403.105	17.94
403.312	17.5
403.519	16.91
403.725	16.46
403.932	16.61
404.138	15.92
404.345	16.17
404.552	15.89
404.758	15.67
404.965	15.35
405.171	15.29
405.378	15.37
405.584	15.17
405.791	15.21
405.997	15.43
406.204	15.69
406.41	16.19
406.617	16.21
406.823	16.51
407.029	16.37
407.236	16.46
407.442	16.3
407.649	16.43
407.855	16.58
408.061	17.01
408.268	17.15
408.474	17.41
408.68	17.35
408.887	17.39
409.093	17.68
409.299	17.48
409.505	17.34
409.712	17.44
409.918	17.29
410.124	17.37
410.33	17.29
410.537	17.18
410.743	16.81
410.949	16.71
411.155	16.3
411.361	16.34
411.567	16.19
411.773	16.32
411.98	16.33
412.186	16.71
412.392	17.07
412.598	16.8
412.804	16.87
413.01	16.6
413.216	16.57
413.422	17.15
413.628	16.74
413.834	17.18
414.04	16.62
414.246	16.97
414.452	16.59
414.658	16.02
414.864	16.56
415.07	16.41
415.275	16.71
415.481	16.6
415.687	16.21
415.893	16.5
416.099	16.42
416.305	16.6
416.511	16.08
416.716	15.92
416.922	15.89
417.128	15.36
417.334	15.29
417.539	15.24
417.745	15.17
417.951	15.29
418.157	14.88
418.362	14.75
418.568	15.02
418.774	15.18
418.979	15.14
419.185	15.13
419.391	15.23
419.596	15.31
419.802	15.2
420.008	15.15
420.213	14.84
420.419	14.87
420.624	14.85
420.83	14.74
421.035	14.65
421.241	14.61
421.446	14.47
421.652	14.34
421.857	14.39
422.063	14.21
422.268	14.33
422.474	14.47
422.679	14.33
422.885	14.43
423.09	14.06
423.295	13.99
423.501	14.23
423.706	14.42
423.911	14.62
424.117	14.41
424.322	14.62
424.527	14.52
424.733	14.68
424.938	15.07
425.143	14.89
425.349	15.48
425.554	15.6
425.759	15.49
425.964	15.62
426.169	15.75
426.375	15.88
426.58	16.01
426.785	16.22
426.99	16.2
427.195	16.29
427.4	16.49
427.605	15.95
427.811	16.28
428.016	16.61
428.221	16.75
428.426	16.94
428.631	17
428.836	17.19
429.041	17.05
429.246	17.16
429.451	17
429.656	17.16
429.861	17.4
430.066	17.39
430.271	17.34
430.476	17.25
430.681	17.03
430.886	17.12
431.09	16.86
431.295	17.28
431.5	17.37
431.705	17.64
431.91	17.6
432.115	17.67
432.32	17.65
432.524	17.63
432.729	17.72
432.934	17.92
433.139	17.99
433.343	18.15
433.548	18.04
433.753	18.31
433.958	18.15
434.162	18.57
434.367	18.66
434.572	18.51
434.776	18.86
434.981	19.17
435.186	19.1
435.39	19.46
435.595	19.65
435.799	19.84
436.004	19.37
436.209	19.4
436.413	19.36
436.618	19.25
436.822	19.56
437.027	19.08
437.231	18.75
437.436	18.92
437.64	18.72
437.845	18.66
438.049	18.81
438.253	19.1
438.458	19.13
438.662	19.29
438.867	19.35
439.071	19.31
439.275	19.44
439.48	19.39
439.684	19.2
439.888	19.06
440.093	19.14
440.297	19.03
440.501	18.99
440.706	19.1
440.91	18.94
441.114	18.89
441.318	18.94
441.523	19.13
441.727	19.34
441.931	19.69
442.135	19.88
442.339	19.9
442.543	20.09
442.748	20.59
442.952	20.62
443.156	20.78
443.36	21.29
443.564	21.36
443.768	21.4
443.972	21.38
444.176	21.41
444.38	21.58
444.584	21.61
444.788	21.79
444.992	21.51
445.196	21.56
445.4	21.37
445.604	21.2
445.808	21.27
446.012	21.43
446.216	21.69
446.42	21.54
446.624	21.22
446.828	21.14
447.032	21.19
447.235	21.35
447.439	21.6
447.643	21.7
447.847	21.91
448.051	21.86
448.254	21.99
448.458	21.98
448.662	22.3
448.866	22.84
449.069	23.48
449.273	23.54
449.477	23.86
449.681	24.06
449.884	24.4
450.088	24.44
450.292	24.61
450.495	24.82
450.699	24.98
450.902	25.06
451.106	25.37
451.31	24.9
451.513	25
451.717	24.93
451.92	24.54
452.124	24.87
452.327	24.77
452.531	25.38
452.734	25.46
452.938	25.53
453.141	25.68
453.345	25.52
453.548	25.89
453.752	25.8
453.955	25.97
454.158	26.22
454.362	26.15
454.565	26.64
454.769	26.57
454.972	26.5
455.175	26.47
455.379	26.57
455.582	26.91
455.785	26.85
455.988	27.1
456.192	27.03
456.395	27.29
456.598	27.35
456.801	27.5
457.005	27.58
457.208	27.4
457.411	27.41
457.614	27.44
457.817	27.15
458.021	27.17
458.224	26.93
458.427	26.92
458.63	26.65
458.833	26.75
459.036	26.57
459.239	26.6
459.442	26.84
459.645	27.2
459.848	27.03
460.051	27.11
460.254	27.44
460.457	27.48
460.66	27.78
460.863	28.02
461.066	27.89
461.269	28.12
461.472	28.32
461.675	28.41
461.878	28.31
462.081	28.38
462.284	28.54
462.486	28.44
462.689	28.95
462.892	29.13
463.095	29.47
463.298	29.71
463.5	29.94
463.703	29.63
463.906	29.76
464.109	29.7
464.311	29.89
464.514	30.17
464.717	30.43
464.92	30.31
465.122	30.01
465.325	29.77
465.528	30.04
465.73	29.89
465.933	30.03
466.135	30.04
466.338	30.16
466.541	30.35
466.743	30.17
466.946	29.91
467.148	29.98
467.351	30.16
467.553	30.52
467.756	30.4
467.958	30.45
468.161	30.65
468.363	30.51
468.566	30.36
468.768	30.77
468.971	31.11
469.173	31.19
469.375	31.23
469.578	30.91
469.78	30.84
469.983	30.93
470.185	31.09
470.387	30.8
470.59	31.32
470.792	31.45
470.994	31.11
471.196	30.98
471.399	30.83
471.601	30.8
471.803	31.24
472.005	31.12
472.208	31.08
472.41	31.14
472.612	31.23
472.814	31.05
473.016	31.27
473.218	31.3
473.421	31.43
473.623	31.64
473.825	31.85
474.027	31.71
474.229	32
474.431	31.99
474.633	32.03
474.835	32.29
475.037	32.22
475.239	32.54
475.441	32.71
475.643	32.78
475.845	32.77
476.047	32.75
476.249	32.73
476.451	32.48
476.653	32.49
476.855	32.28
477.057	32.14
477.258	32.3
477.46	31.85
477.662	31.67
477.864	31.66
478.066	31.81
478.268	31.75
478.469	31.97
478.671	32.42
478.873	32.38
479.075	32.4
479.276	32.39
479.478	32.3
479.68	32.3
479.882	32.38
480.083	32.3
480.285	32.19
480.487	32.16
480.688	32.01
480.89	31.88
481.091	32
481.293	32.03
481.495	31.99
481.696	31.86
481.898	31.86
482.099	31.68
482.301	31.59
482.502	31.49
482.704	31.42
482.905	31.39
483.107	31.22
483.308	31.09
483.51	31.02
483.711	31
483.913	30.98
484.114	31
484.315	31.05
484.517	31.02
484.718	31.07
484.92	31.11
485.121	31.16
485.322	31.27
485.524	31.57
485.725	31.77
485.926	31.95
486.127	32.09
486.329	32.2
486.53	32.32
486.731	32.41
486.932	32.47
487.134	32.49
487.335	32.53
487.536	32.54
487.737	32.39
487.938	32.35
488.139	32.29
488.341	32.27
488.542	32.25
488.743	32.26
488.944	32.28
489.145	32.29
489.346	32.34
489.547	32.39
489.748	32.58
489.949	32.59
490.15	32.65
490.351	32.65
490.552	32.82
490.753	32.79
490.954	32.83
491.155	32.81
491.356	32.82
491.557	32.94
491.758	32.9
491.959	33
492.159	33.14
492.36	33.31
492.561	33.43
492.762	33.46
492.963	33.48
493.164	33.56
493.364	33.85
493.565	33.92
493.766	33.88
493.967	34.03
494.167	33.94
494.368	33.93
494.569	33.69
494.769	33.71
494.97	33.56
495.171	33.89
495.371	33.8
495.572	33.78
495.773	34.2
495.973	34.35
496.174	34.37
496.375	34.33
496.575	34.36
496.776	34.68
496.976	34.64
497.177	34.73
497.377	34.68
497.578	34.75
497.778	34.78
497.979	34.47
498.179	34.52
498.38	34.57
498.58	34.48
498.78	34.51
498.981	34.2
499.181	34.39
499.382	34.6
499.582	34.61
499.782	34.8
499.983	34.81
500.183	34.94
500.383	34.88
500.584	35.18
500.784	35.46
500.984	35.5
501.184	35.63
501.385	35.75
501.585	35.56
501.785	35.61
501.985	35.34
502.185	35.24
502.386	35.3
502.586	35.33
502.786	34.83
502.986	34.76
503.186	34.83
503.386	34.96
503.586	34.95
503.786	34.97
503.987	34.92
504.187	34.97
504.387	35.13
504.587	35.17
504.787	35.18
504.987	35.4
505.187	35.26
505.387	35.43
505.587	35.4
505.786	35.28
505.986	35.49
506.186	35.44
506.386	35.89
506.586	35.92
506.786	35.96
506.986	36.05
507.186	36.23
507.386	36.17
507.585	35.88
507.785	35.99
507.985	35.86
508.185	35.8
508.384	35.99
508.584	35.76
508.784	35.6
508.984	35.43
509.183	35.27
509.383	35.2
509.583	35.46
509.782	35.42
509.982	35.31
510.182	35.59
510.381	35.58
510.581	35.8
510.781	35.78
510.98	35.79
511.18	35.92
511.379	36.28
511.579	36.23
511.778	36.23
511.978	36.34
512.177	36.18
512.377	36.04
512.576	35.71
512.776	35.42
512.975	35.46
513.175	35.68
513.374	35.68
513.573	35.51
513.773	35.46
513.972	35.4
514.172	35.54
514.371	35.7
514.57	35.62
514.77	36.21
514.969	36.18
515.168	36.16
515.367	36.1
515.567	36.13
515.766	35.96
515.965	36
516.164	35.92
516.364	35.86
516.563	35.89
516.762	36.04
516.961	35.71
517.16	35.72
517.359	35.92
517.559	36.07
517.758	36.01
517.957	36.07
518.156	36.16
518.355	36.2
518.554	36.16
518.753	36.24
518.952	36.12
519.151	36.15
519.35	36.27
519.549	36.08
519.748	35.86
519.947	35.79
520.146	35.81
520.345	35.88
520.544	35.83
520.743	36.23
520.942	36.11
521.141	36.22
521.339	36.24
521.538	36.14
521.737	36.28
521.936	36.38
522.135	36.61
522.333	36.83
522.532	36.69
522.731	36.61
522.93	36.29
523.129	36.38
523.327	36.3
523.526	36.42
523.725	36.39
523.923	36.33
524.122	36.34
524.321	36.06
524.519	35.83
524.718	35.88
524.917	36
525.115	35.9
525.314	35.87
525.512	35.83
525.711	35.79
525.909	35.68
526.108	35.54
526.306	35.45
526.505	35.56
526.703	35.49
526.902	35.42
527.1	35.34
527.299	35.29
527.497	35.21
527.696	35.21
527.894	35.08
528.092	35.06
528.291	35.03
528.489	35.01
528.688	34.96
528.886	34.93
529.084	34.89
529.283	34.87
529.481	34.92
529.679	34.94
529.877	34.97
530.076	35.13
530.274	35.17
530.472	35.31
530.67	35.36
530.869	35.24
531.067	35.38
531.265	35.41
531.463	35.57
531.661	35.55
531.859	35.54
532.057	35.58
532.255	35.54
532.454	35.72
532.652	35.67
532.85	35.77
533.048	35.99
533.246	36.01
533.444	36.06
533.642	36.01
533.84	36.01
534.038	35.99
534.236	35.97
534.434	36.06
534.632	35.93
534.83	35.95
535.027	35.73
535.225	35.8
535.423	35.67
535.621	35.71
535.819	35.7
536.017	35.71
536.215	35.83
536.412	35.91
536.61	35.8
536.808	35.96
537.006	35.81
537.203	36.1
537.401	36.02
537.599	36.25
537.797	36.31
537.994	36.36
538.192	36.52
538.39	36.72
538.587	36.63
538.785	36.57
538.983	36.37
539.18	36.56
539.378	36.45
539.575	36.31
539.773	36.17
539.97	36.19
540.168	36.15
540.366	36.16
540.563	36.09
540.761	36.29
540.958	36.44
541.155	36.47
541.353	36.49
541.55	36.43
541.748	36.47
541.945	36.58
542.143	36.62
542.34	36.72
542.537	36.78
542.735	36.8
542.932	36.67
543.129	36.79
543.327	36.92
543.524	37.11
543.721	37.38
543.919	37.58
544.116	37.79
544.313	37.77
544.51	37.98
544.708	38.01
544.905	38.2
545.102	38.29
545.299	38.08
545.496	38.15
545.693	38.03
545.891	37.67
546.088	37.74
546.285	37.56
546.482	37.47
546.679	37.4
546.876	37.39
547.073	37.4
547.27	37.45
547.467	37.59
547.664	37.49
547.861	37.6
548.058	37.88
548.255	37.84
548.452	38.04
548.649	37.93
548.846	38.05
549.043	38.3
549.24	38.27
549.437	38.01
549.633	37.99
549.83	37.98
550.027	37.81
550.224	37.85
550.421	37.72
550.618	37.38
550.814	37.81
551.011	37.39
551.208	36.9
551.405	36.97
551.601	37.16
551.798	37.1
551.995	37.17
552.191	37.43
552.388	37.46
552.585	37.38
552.781	37.51
552.978	37.33
553.175	37.73
553.371	37.94
553.568	37.75
553.764	37.7
553.961	37.6
554.157	37.72
554.354	37.57
554.55	37.42
554.747	37.7
554.943	37.69
555.14	37.84
555.336	37.44
555.533	37.58
555.729	37.52
555.926	37.24
556.122	37.43
556.318	37.46
556.515	37.58
556.711	37.77
556.907	37.8
557.104	37.85
557.3	37.81
557.496	37.85
557.693	37.86
557.889	37.79
558.085	38.19
558.281	38.02
558.478	37.87
558.674	37.49
558.87	37.62
559.066	37.61
559.262	37.32
559.459	37.32
559.655	37.15
559.851	37.23
560.047	37.36
560.243	37.51
560.439	37.5
560.635	37.53
560.831	37.84
561.027	37.65
561.223	37.39
561.419	37.64
561.615	37.45
561.811	37.6
562.007	37.34
562.203	37.25
562.399	37.15
562.595	37.37
562.791	37.64
562.987	37.73
563.183	37.86
563.379	38.11
563.575	38.03
563.771	38.22
563.966	38.43
564.162	38.55
564.358	38.53
564.554	38.23
564.75	38.09
564.945	37.98
565.141	37.78
565.337	37.53
565.533	37.46
565.728	37.2
565.924	37.06
566.12	36.84
566.315	36.64
566.511	36.69
566.707	36.72
566.902	36.79
567.098	36.58
567.293	36.78
567.489	36.98
567.684	36.9
567.88	37.5
568.076	37.7
568.271	37.51
568.467	37.59
568.662	37.7
568.858	37.87
569.053	37.75
569.248	37.64
569.444	37.44
569.639	37.36
569.835	37.27
570.03	36.85
570.225	36.64
570.421	36.97
570.616	37.17
570.812	36.96
571.007	36.87
571.202	36.91
571.397	37.09
571.593	37.23
571.788	37.15
571.983	36.97
572.178	37.13
572.374	37.19
572.569	37.2
572.764	37.21
572.959	37.35
573.154	37.54
573.35	37.56
573.545	37.55
573.74	37.5
573.935	37.58
574.13	37.86
574.325	37.87
574.52	37.99
574.715	37.74
574.91	37.63
575.105	37.51
575.3	37.44
575.495	37.45
575.69	37.51
575.885	37.92
576.08	37.56
576.275	37.47
576.47	37.48
576.665	37.66
576.86	37.91
577.055	37.92
577.25	38
577.444	37.98
577.639	38.11
577.834	38.01
578.029	37.93
578.224	38.41
578.418	38.72
578.613	38.97
578.808	38.8
579.003	39.03
579.197	39.3
579.392	39.55
579.587	39.74
579.781	39.74
579.976	39.71
580.171	39.34
580.365	39.45
580.56	39.07
580.755	39.18
580.949	38.9
581.144	38.67
581.338	38.64
581.533	38.58
581.727	38.67
581.922	38.63
582.116	38.81
582.311	39.01
582.505	38.74
582.7	39.31
582.894	39.23
583.089	39.62
583.283	39.74
583.478	39.66
583.672	39.79
583.866	39.6
584.061	39.61
584.255	39.46
584.449	39.57
584.644	40.02
584.838	39.67
585.032	39.73
585.226	39.37
585.421	39.49
585.615	39.66
585.809	39.62
586.003	39.52
586.198	39.46
586.392	39.71
586.586	39.31
586.78	39.3
586.974	39.44
587.168	39.08
587.363	39.2
587.557	39.43
587.751	39.18
587.945	39.23
588.139	39.3
588.333	39.41
588.527	39.28
588.721	39.29
588.915	38.77
589.109	38.45
589.303	38.48
589.497	38.77
589.691	38.36
589.885	38.42
590.079	38.49
590.273	38.37
590.466	38.43
590.66	38.82
590.854	39.16
591.048	39.41
591.242	39.6
591.436	40.02
591.629	39.93
591.823	40.19
592.017	40.15
592.211	39.96
592.404	40.21
592.598	39.9
592.792	39.56
592.986	39.38
593.179	39.57
593.373	39.93
593.567	39.53
593.76	39.66
593.954	39.75
594.147	39.69
594.341	39.8
594.535	39.71
594.728	39.79
594.922	39.7
595.115	39.86
595.309	39.82
595.502	39.83
595.696	39.65
595.889	39.63
596.083	39.37
596.276	39.45
596.47	39.44
596.663	39.56
596.856	39.58
597.05	39.66
597.243	39.79
597.437	39.96
597.63	39.79
597.823	39.89
598.017	40.12
598.21	40.29
598.403	40.45
598.596	40.57
598.79	40.48
598.983	40.55
599.176	40.38
599.369	39.81
599.563	39.84
599.756	39.67
599.949	39.87
600.142	39.45
600.335	39.53
600.528	39.5
600.722	39.06
600.915	39
601.108	39.1
601.301	39.16
601.494	39.37
601.687	39.18
601.88	39.5
602.073	39.78
602.266	39.72
602.459	39.53
602.652	39.53
602.845	39.4
603.038	39.33
603.231	38.99
603.424	38.98
603.617	39.01
603.809	39.1
604.002	39.03
604.195	38.69
604.388	38.49
604.581	38.41
604.774	38.61
604.966	39.03
605.159	38.99
605.352	39.19
605.545	39.25
605.737	39.3
605.93	39.25
606.123	39.67
606.316	39.85
606.508	40.28
606.701	40.31
606.894	40.02
607.086	39.94
607.279	40.34
607.471	40.68
607.664	40.93
607.857	41.14
608.049	41.37
608.242	41.03
608.434	41.41
608.627	41.73
608.819	42.43
609.012	42.84
609.204	43.13
609.397	43.86
609.589	44.44
609.782	44.9
609.974	45.63
610.166	46.22
610.359	46.98
610.551	47.18
610.743	47.61
610.936	47.79
611.128	47.63
611.32	47.71
611.513	46.93
611.705	46.45
611.897	45.91
612.09	45.67
612.282	45.15
612.474	44.8
612.666	44.64
612.858	43.82
613.051	43.52
613.243	43.65
613.435	43.72
613.627	43.99
613.819	44.17
614.011	44.64
614.203	43.86
614.395	44
614.588	43.65
614.78	43.88
614.972	44.16
615.164	43.93
615.356	43.92
615.548	43.75
615.74	43.57
615.932	43.53
616.124	43.15
616.315	43.48
616.507	42.67
616.699	42.72
616.891	42.48
617.083	42.48
617.275	42.31
617.467	41.91
617.659	42.03
617.85	42.09
618.042	41.78
618.234	41.89
618.426	41.29
618.618	41.91
618.809	42.01
619.001	41.88
619.193	42.18
619.384	42.23
619.576	42.66
619.768	42.35
619.959	42.15
620.151	42.47
620.343	42.56
620.534	42.97
620.726	42.88
620.917	42.47
621.109	42.72
621.301	42.41
621.492	42.79
621.684	42.33
621.875	42.33
622.067	42.72
622.258	42.61
622.45	42.68
622.641	42.85
622.832	42.62
623.024	42.49
623.215	42.34
623.407	41.95
623.598	41.41
623.789	41.87
623.981	41.9
624.172	41.59
624.363	41.13
624.555	40.72
624.746	40.45
624.937	39.99
625.129	40.2
625.32	40.16
625.511	40.69
625.702	40.8
625.893	40.67
626.085	40.51
626.276	40.26
626.467	40.68
626.658	40.79
626.849	40.93
627.04	41.77
627.231	41.78
627.422	41.77
627.614	41.38
627.805	41.58
627.996	41.67
628.187	41.95
628.378	42.31
628.569	42.24
628.76	42.31
628.951	42.33
629.142	42.01
629.332	42.1
629.523	42
629.714	42.68
629.905	42.92
630.096	42.88
630.287	42.81
630.478	42.94
630.669	42.98
630.859	43.11
631.05	42.98
631.241	42.95
631.432	42.71
631.623	42.65
631.813	42.25
632.004	41.7
632.195	41.68
632.385	41.89
632.576	41.7
632.767	41.87
632.957	41.65
633.148	41.53
633.339	41.74
633.529	41.97
633.72	41.72
633.91	41.3
634.101	41.44
634.292	41.33
634.482	40.97
634.673	41.37
634.863	41.49
635.054	41.55
635.244	41.3
635.435	40.78
635.625	40.65
635.815	40.97
636.006	41.21
636.196	41.44
636.387	41.25
636.577	41.45
636.767	40.94
636.958	40.52
637.148	40.11
637.338	40.63
637.529	41.07
637.719	41.03
637.909	41.25
638.099	41.57
638.29	41.88
638.48	42.01
638.67	41.87
638.86	42.03
639.05	42.21
639.241	42.56
639.431	42.08
639.621	42.66
639.811	42.9
640.001	43.28
640.191	42.83
640.381	42.42
640.571	42.94
640.761	42.75
640.951	42.69
641.141	43.11
641.331	43.19
641.521	43.52
641.711	42.97
641.901	43.26
642.091	42.89
642.281	43
642.471	43.13
642.661	42.56
642.851	42.9
643.041	42.59
643.231	42.32
643.42	42.72
643.61	42.56
643.8	42.64
643.99	42.16
644.18	42.05
644.369	42.24
644.559	42.09
644.749	42.15
644.939	41.94
645.128	42.68
645.318	42.04
645.508	41.6
645.697	41.69
645.887	41.13
646.076	41.3
646.266	41.09
646.456	41.08
646.645	41.35
646.835	41.49
647.024	41.49
647.214	41.42
647.403	41.91
647.593	41.62
647.782	41.63
647.972	41.75
648.161	41.15
648.351	41.12
648.54	40.94
648.73	40.58
648.919	40.31
649.108	40.55
649.298	40.53
649.487	40.56
649.677	40.98
649.866	41.12
650.055	41.53
650.244	42.09
650.434	42.64
650.623	43.34
650.812	43.3
651.002	43.82
651.191	44.26
651.38	44.02
651.569	44.04
651.758	43.42
651.947	43.38
652.137	43.53
652.326	43.88
652.515	43.6
652.704	42.75
652.893	43.02
653.082	42.8
653.271	42.75
653.46	42.68
653.649	42.57
653.838	43.58
654.027	43.14
654.216	42.75
654.405	42.54
654.594	42.98
654.783	43.72
654.972	42.89
655.161	42.74
655.35	41.93
655.539	41.71
655.728	41.65
655.916	41.52
656.105	41.84
656.294	41.86
656.483	41.93
656.672	41.78
656.86	40.97
657.049	41.49
657.238	41.4
657.427	41.47
657.615	41.78
657.804	41.49
657.993	40.94
658.181	41.16
658.37	41.14
658.559	40.83
658.747	40.23
658.936	40.35
659.125	40.08
659.313	39.93
659.502	40.08
659.69	40.07
659.879	40.14
660.067	40.12
660.256	40.02
660.444	40.04
660.633	39.92
660.821	40.22
661.01	40.55
661.198	40.93
661.387	41.14
661.575	40.91
661.763	40.29
661.952	40.58
662.14	41.07
662.328	41.24
662.517	41.94
662.705	42.25
662.893	42.35
663.082	42.37
663.27	42.33
663.458	43
663.646	43.54
663.834	43.89
664.023	43.98
664.211	43.99
664.399	44.02
664.587	43.49
664.775	44.1
664.963	44.36
665.152	44.39
665.34	45.04
665.528	44.89
665.716	45.12
665.904	45.84
666.092	45.41
666.28	45.71
666.468	45.97
666.656	45.67
666.844	44.97
667.032	44.72
667.22	44.65
667.408	44.23
667.596	44.14
667.784	44.03
667.971	43.91
668.159	44.52
668.347	44.5
668.535	44.03
668.723	44.32
668.911	44.54
669.098	44.81
669.286	44.48
669.474	43.51
669.662	43.61
669.849	43.35
670.037	42.92
670.225	43.03
670.413	42.22
670.6	42.3
670.788	42.16
670.976	42.47
671.163	41.78
671.351	42.11
671.538	42.73
671.726	42.96
671.913	42.93
672.101	43.15
672.289	43.15
672.476	43.4
672.664	43.71
672.851	43.55
673.039	43.74
673.226	43.98
673.413	44.01
673.601	44.59
673.788	44.08
673.976	44.07
674.163	43.67
674.35	43.33
674.538	43.7
674.725	43.65
674.912	43.7
675.1	43.71
675.287	44.35
675.474	45.01
675.662	45.27
675.849	45.26
676.036	45.9
676.223	46.89
676.411	46.98
676.598	46.85
676.785	46.67
676.972	47.01
677.159	46.32
677.346	45.97
677.533	45.7
677.721	45.41
677.908	45.18
678.095	44.07
678.282	43.48
678.469	43.37
678.656	42.55
678.843	42.54
679.03	42.26
679.217	42.45
679.404	42.07
679.591	41.68
679.778	41.4
679.964	41.49
680.151	41.63
680.338	41.75
680.525	41.45
680.712	42.18
680.899	41.88
681.086	42.15
681.272	41.81
681.459	42.11
681.646	42.2
681.833	42.34
682.02	42.5
682.206	43.24
682.393	43.25
682.58	43.51
682.766	43.7
682.953	43.9
683.14	43.63
683.326	44.4
683.513	44.24
683.7	44.54
683.886	44.02
684.073	44.45
684.259	43.88
684.446	43.65
684.632	44.22
684.819	44.39
685.005	45.11
685.192	44.94
685.378	45.26
685.565	45.26
685.751	44.31
685.938	44.83
686.124	44.55
686.31	44.61
686.497	44.8
686.683	44.67
686.87	44.28
687.056	43.97
687.242	44.08
687.429	43.67
687.615	44.48
687.801	44.63
687.987	44.69
688.174	44.66
688.36	44.92
688.546	44.84
688.732	44.59
688.918	44.5
689.105	44.35
689.291	43.97
689.477	44.18
689.663	43.91
689.849	44.76
690.035	45
690.221	45.1
690.407	44.74
690.593	44.74
690.779	45.21
690.965	45.03
691.151	45.48
691.337	46.29
691.523	45.45
691.709	45.57
691.895	45.25
692.081	44.47
692.267	44.36
692.453	44.93
692.639	45.25
692.825	45.22
693.011	45.74
693.196	44.75
693.382	43.94
693.568	43.65
693.754	43.47
693.94	43.27
694.125	44.02
694.311	44.29
694.497	44.21
694.682	44.28
694.868	44.24
695.054	44.21
695.239	45.19
695.425	45.27
695.611	45.58
695.796	45.36
695.982	46.41
696.168	46.19
696.353	45.93
696.539	45.48
696.724	45.38
696.91	44.97
697.095	45.37
697.281	44.91
697.466	45.02
697.652	44.72
697.837	44.71
698.023	44
698.208	43.53
698.393	43.48
698.579	43.69
698.764	43.03
698.949	43.14
699.135	42.74
699.32	42.53
699.505	43.05
699.691	43.5
699.876	44.07
700.061	43.57
700.246	44.17
700.432	43.5
700.617	43.7
700.802	44.42
700.987	44.55
701.172	46.06
701.358	46.27
701.543	45.16
701.728	45.52
701.913	45.16
702.098	46.59
702.283	47
702.468	47.55
702.653	47.89
702.838	49.05
703.023	48.35
703.208	47.25
703.393	47.8
703.578	48.18
703.763	48.79
703.948	49.42
704.133	49.57
704.318	49.54
704.503	50.52
704.688	49.81
704.873	48.22
705.057	49.55
705.242	50.1
705.427	49.96
705.612	51.69
705.797	50.57
705.981	50.44
706.166	48.75
706.351	49.88
706.536	49.12
706.72	48.97
706.905	49.22
707.09	49.66
707.274	49.04
707.459	49.14
707.644	47.83
707.828	48.43
708.013	47.97
708.197	48.95
708.382	47.63
708.567	47.82
708.751	49.04
708.936	49.25
709.12	48.64
709.305	48.86
709.489	49.44
709.673	49.84
709.858	50.77
710.042	50.04
710.227	50.21
710.411	50.08
710.596	51.12
710.78	51.18
710.964	51.46
711.149	51.16
711.333	50.59
711.517	50.5
711.702	50.55
711.886	49.25
712.07	49.98
712.254	50.08
712.438	50.73
712.623	49.62
712.807	48.92
712.991	48.43
713.175	47.84
713.359	47.48
713.544	47.09
713.728	47.04
713.912	47.1
714.096	47.68
714.28	46.94
714.464	46.45
714.648	46.3
714.832	46.62
715.016	46.89
715.2	47.07
715.384	47.16
715.568	47.25
715.752	46.61
715.936	46.6
716.12	45.67
716.304	46.15
716.488	46.17
716.671	46.4
716.855	46.44
717.039	46.54
717.223	47.07
717.407	48.71
717.59	49.22
717.774	50.08
717.958	50.91
718.142	51.3
718.325	50.62
718.509	50.51
718.693	51.84
718.877	51.53
719.06	51.3
719.244	52.72
719.428	52.26
719.611	51.09
719.795	51.27
719.978	51.25
720.162	51.71
720.345	53.11
720.529	53.04
720.713	52.6
720.896	53.61
721.08	54.63
721.263	53.88
721.446	52.77
721.63	53.17
721.813	53.37
721.997	52.66
722.18	52.76
722.364	53
722.547	53.2
722.73	52.73
722.914	52.44
723.097	50.65
723.28	49.08
723.464	49.22
723.647	48.66
723.83	48.2
724.013	49.69
724.197	49.23
724.38	49.19
724.563	49.27
724.746	50.08
724.929	48.1
725.112	48.94
725.296	49.82
725.479	49.97
725.662	50.66
725.845	50.12
726.028	49.1
726.211	48.69
726.394	48.28
726.577	47.93
726.76	46.32
726.943	47.87
727.126	47.59
727.309	47.99
727.492	48.55
727.675	48.66
727.858	49.24
728.041	48.67
728.224	48.72
728.407	48.19
728.589	48.13
728.772	48.64
728.955	47.81
729.138	48.36
729.321	47.48
729.503	47.05
729.686	46.5
729.869	46.63
730.052	47
730.234	47.81
730.417	47.99
730.6	48.82
730.782	49.19
730.965	49.46
731.148	49.72
731.33	49.93
731.513	50.61
731.695	50.68
731.878	50.22
732.061	50.14
732.243	50.31
732.426	49.93
732.608	49.54
732.791	48.73
732.973	48.64
733.156	48.01
733.338	48.66
733.52	48.79
733.703	48.97
733.885	49.79
734.068	49.8
734.25	50.03
734.432	51.12
734.615	51.37
734.797	51.95
734.979	51.75
735.162	52.82
735.344	52.05
735.526	51.22
735.708	52.2
735.891	51.69
736.073	51.91
736.255	51.44
736.437	51.06
736.619	51.42
736.802	52.5
736.984	53.27
737.166	53.05
737.348	53.28
737.53	53.84
737.712	52.91
737.894	52.19
738.076	52.11
738.258	52.1
738.44	52.51
738.622	51.49
738.804	50.29
738.986	51.16
739.168	50.89
739.35	51.6
739.532	51.59
739.714	51.61
739.896	52.95
740.078	53.04
740.259	52.54
740.441	52.86
740.623	53.84
740.805	54.25
740.987	53.58
741.168	53.77
741.35	52.42
741.532	52.59
741.714	53.24
741.895	54.4
742.077	55.02
742.259	55.37
742.44	54.88
742.622	54.47
742.804	54.13
742.985	54.36
743.167	54.48
743.348	56.5
743.53	56.56
743.711	56.76
743.893	55.49
744.075	55.36
744.256	53.93
744.438	54.48
744.619	54.96
744.8	54.75
744.982	56.48
745.163	57.29
745.345	55.91
745.526	55.8
745.707	55.69
745.889	56.36
746.07	56.08
746.252	58.41
746.433	57.55
746.614	58.36
746.795	60.4
746.977	59.63
747.158	58.58
747.339	59.67
747.52	58.98
747.702	59.19
747.883	58.68
748.064	59.24
748.245	58.63
748.426	58.2
748.607	56.4
748.788	54.73
748.97	52.96
749.151	54.97
749.332	54.91
749.513	56.6
749.694	54.71
749.875	54.95
750.056	54.55
750.237	54.77
750.418	56.09
750.599	55.93
750.78	56.54
750.96	56.27
751.141	54.22
751.322	53.43
751.503	54.11
751.684	56.33
751.865	55.73
752.046	54.48
752.226	53.83
752.407	52.9
752.588	53.06
752.769	53.37
752.949	53.72
753.13	53.07
753.311	54.52
753.492	54.18
753.672	52.82
753.853	52.77
754.034	54.3
754.214	54.84
754.395	55.2
754.575	56.7
754.756	57.16
754.937	58.14
755.117	59.64
755.298	59.02
755.478	59.03
755.659	59.85
755.839	60.53
756.02	60.67
756.2	59.19
756.381	58.63
756.561	57.29
756.741	57.47
756.922	57.71
757.102	57.06
757.283	57.14
757.463	55.76
757.643	55.55
757.823	55.77
758.004	54.9
758.184	56.72
758.364	57.76
758.545	58.54
758.725	57.7
758.905	56.93
759.085	56.26
759.265	57.31
759.446	56.37
759.626	56.63
759.806	55.4
759.986	55.72
760.166	56.2
760.346	55.46
760.526	56.52
760.706	54.5
760.886	53.86
761.066	54.41
761.246	52.94
761.426	52.73
761.606	51.87
761.786	51.93
761.966	51.84
762.146	50.14
762.326	50.14
762.506	49.16
762.686	50.38
762.866	50.72
763.046	50.04
763.225	49.7
763.405	50.6
763.585	50.65
763.765	50.61
763.945	50.29
764.124	50.3
764.304	51.12
764.484	51.13
764.664	51.05
764.843	51.81
765.023	51.97
765.203	53.33
765.382	52.81
765.562	52.3
765.741	52.88
765.921	53.78
766.101	55.93
766.28	55.22
766.46	55.67
766.639	56.88
766.819	57.55
766.998	59.13
767.178	58.48
767.357	59.57
767.537	60.01
767.716	61.01
767.896	60.8
768.075	60.68
768.254	61.99
768.434	63.15
768.613	61.84
768.792	60.08
768.972	59.9
769.151	59.18
769.33	60.3
769.51	60.91
769.689	59.01
769.868	60.28
770.047	59.51
770.226	58.34
770.406	57.97
770.585	59.95
770.764	62.4
770.943	62.76
771.122	63.88
771.301	61.73
771.48	62.24
771.66	65.01
771.839	64.8
772.018	64.32
772.197	65.81
772.376	65.33
772.555	65.09
772.734	63.2
772.913	60.99
773.092	60.99
773.271	60.8
773.449	61.52
773.628	60.04
773.807	58.13
773.986	59.12
774.165	57.97
774.344	57.22
774.523	56.16
774.701	56.57
774.88	58.47
775.059	58.01
775.238	59.46
775.417	59.45
775.595	58.48
775.774	60.33
775.953	59.97
776.131	60.68
776.31	62.5
776.489	62.21
776.667	62.31
776.846	63.38
777.025	61.34
777.203	60.2
777.382	58.32
777.56	57.25
777.739	56.46
777.917	56.93
778.096	57.42
778.274	56.69
778.453	57.89
778.631	58.23
778.81	55.76
778.988	57.59
779.166	56.89
779.345	58.57
779.523	60.63
779.702	60.03
779.88	57.74
780.058	56.93
780.237	59.05
780.415	56.93
780.593	57.64
780.771	58.6
780.95	58.09
781.128	58.59
781.306	58.99
781.484	58.81
781.662	59.19
781.841	59.8
782.019	60.54
782.197	58.34
782.375	61.15
782.553	61.18
782.731	60.36
782.909	61.32
783.087	63.89
783.265	64.25
783.443	63.19
783.621	63.59
783.799	67.06
783.977	67.41
784.155	68.38
784.333	68.3
784.511	68.38
784.689	71.59
784.867	70.45
785.045	70.5
785.223	67.93
785.4	68.76
785.578	67.93
785.756	65.36
785.934	63.65
786.112	62.82
786.289	62.08
786.467	61.88
786.645	60.66
786.823	62.35
787	60.81
787.178	62.17
787.356	62.93
787.533	62.05
787.711	62.47
787.889	63.96
788.066	62.31
788.244	62.27
788.421	61.88
788.599	61.62
788.776	59.2
788.954	59.94
789.131	58.68
789.309	59.53
789.486	62.23
789.664	60.18
789.841	58.54
790.019	61.7
790.196	62.6
790.373	62.84
790.551	62.94
790.728	66.64
790.906	65.9
791.083	68.09
791.26	67.47
791.437	68.12
791.615	71.31
791.792	71.77
791.969	73.29
792.146	73.7
792.324	75.25
792.501	77.69
792.678	78.08
792.855	77.26
793.032	76.51
793.209	74.29
793.387	72.38
793.564	68.1
793.741	68.55
793.918	65.11
794.095	64.3
794.272	60.86
794.449	59.03
794.626	56.08
794.803	56.4
794.98	56.71
795.157	58.45
795.334	58.88
795.511	61.87
795.688	61.04
795.864	62.76
796.041	60.07
796.218	60.36
796.395	60.97
796.572	60.1
796.749	62.19
796.925	61.91
797.102	61.46
797.279	63.36
797.456	63.41
797.632	64.57
797.809	63.78
797.986	65.19
798.162	65.15
798.339	64.32
798.516	65.17
798.692	62.63
798.869	62.5
799.046	61.14
799.222	59.15
799.399	58.8
799.575	60.14
799.752	61.85
799.928	61.49
800.105	62.14
800.281	62.27
800.458	62.23
800.634	64.19
800.811	64.94
800.987	65.4
801.163	67.23
801.34	69.17
801.516	67.41
801.692	66.7
801.869	66.96
802.045	65.32
802.221	65.57
802.398	64.19
802.574	64.81
802.75	64.97
802.926	67.31
803.103	69.52
803.279	67.58
803.455	69.28
803.631	70.32
803.807	70.93
803.983	74.61
804.16	74.13
804.336	77.12
804.512	73.3
804.688	76.29
804.864	78.82
805.04	75.12
805.216	75.8
805.392	74.47
805.568	72.51
805.744	74.91
805.92	76.76
806.096	77.66
806.272	79.05
806.448	80.44
806.623	79.41
806.799	73.89
806.975	75.82
807.151	73.41
807.327	74.86
807.503	75.17
807.678	73.23
807.854	70.76
808.03	69.16
808.206	63.88
808.381	64.11
808.557	60.48
808.733	62.22
808.908	60.94
809.084	59.98
809.26	59.32
809.435	59
809.611	58.67
809.787	59.11
809.962	60.85
810.138	62.98
810.313	66.32
810.489	71.17
810.664	72.64
810.84	73.89
811.015	77.26
811.191	76.54
811.366	76.81
811.542	76.81
811.717	77.31
811.892	77.87
812.068	82.55
812.243	80.05
812.419	78.55
812.594	81.15
812.769	80.51
812.944	82.44
813.12	82.55
813.295	82.41
813.47	85.42
813.645	83.58
813.821	79.38
813.996	74.5
814.171	73.54
814.346	73.91
814.521	70.81
814.697	68.04
814.872	68.4
815.047	71.63
815.222	70.97
815.397	70.66
815.572	74
815.747	76.43
815.922	77.35
816.097	80.27
816.272	77.9
816.447	77.38
816.622	78.47
816.797	77.18
816.972	74.18
817.147	73.31
817.322	70.69
817.496	66.77
817.671	69.91
817.846	71.5
818.021	71.02
818.196	70.67
818.371	71.04
818.545	69.78
818.72	66.21
818.895	65.9
819.069	65.9
819.244	65.43
819.419	64.33
819.594	60.85
819.768	59.35
819.943	56.8
820.117	55.86
820.292	54.35
820.467	51.87
820.641	51.42
820.816	49.33
820.99	48.46
821.165	47.44
821.339	46.33
821.514	45.54
821.688	44.99
821.863	44.82
822.037	44.59
822.212	43.99
822.386	43.77
822.56	43.45
822.735	44.1
822.909	44.18
823.084	44.03
823.258	44.35
823.432	44.1
823.606	43.9
823.781	43.7
823.955	44.21
824.129	45.3
824.303	46.33
824.478	47.21
824.652	46.63
824.826	47.81
825	48.31
825.174	48.9
825.348	49.08
825.523	49.39
825.697	49.88
825.871	48.96
826.045	48.41
826.219	50.18
826.393	49.98
826.567	50.31
826.741	48.71
826.915	49.74
827.089	50.64
827.263	51.66
827.437	52.53
827.611	52.66
827.784	53.73
827.958	54.2
828.132	52.38
828.306	53.4
828.48	54.12
828.654	54.73
828.827	56.11
829.001	56.95
829.175	57.54
829.349	57.93
829.522	59.15
829.696	60.02
829.87	61.69
830.044	64.67
830.217	64.56
830.391	64.85
830.565	65.46
830.738	66.32
830.912	66.06
831.085	68.19
831.259	68.36
831.432	68.21
831.606	67.8
831.779	65.72
831.953	64.55
832.126	65.36
832.3	66.33
832.473	63.82
832.647	60.35
832.82	60.39
832.994	58.41
833.167	57.98
833.34	57.33
833.514	57.47
833.687	55.87
833.86	53.14
834.034	51.77
834.207	50.5
834.38	51.68
834.553	51.87
834.727	52.1
834.9	52.57
835.073	53.39
835.246	54.09
835.419	53.46
835.593	55.87
835.766	59.47
835.939	59.6
836.112	59.76
836.285	62.7
836.458	64.84
836.631	64.41
836.804	65.92
836.977	64.29
837.15	64.37
837.323	66.94
837.496	66.6
837.669	65.32
837.842	68.61
838.015	69.76
838.188	70.84
838.361	69.04
838.533	71
838.706	70.86
838.879	71.13
839.052	73.77
839.225	71.93
839.398	72.39
839.57	73.71
839.743	74.73
839.916	73.97
840.088	74.11
840.261	76.3
840.434	75.8
840.607	76.25
840.779	77.71
840.952	75.21
841.124	75.38
841.297	75.8
841.47	77.72
841.642	74.97
841.815	77.48
841.987	73.83
842.16	72.71
842.332	75.01
842.505	76.4
842.677	77.05
842.85	79.15
843.022	81.5
843.194	85.36
843.367	84.95
843.539	91.23
843.712	93.01
843.884	98.39
844.056	102.34
844.229	103.37
844.401	101.5
844.573	101.09
844.745	99.27
844.918	98.5
845.09	97
845.262	96.29
845.434	93.04
845.606	91.43
845.779	90.21
845.951	89.02
846.123	86.48
846.295	88.77
846.467	90.05
846.639	88.13
846.811	92.63
846.983	92.48
847.155	95.39
847.327	98.64
847.499	98.48
847.671	97.93
847.843	96.79
848.015	100.49
848.187	98.02
848.359	96.68
848.531	96.35
848.703	95.59
848.875	90.94
849.047	86.51
849.218	87.87
849.39	88.9
849.562	87.89
849.734	86.76
849.905	86.04
850.077	84.1
850.249	89.89
850.421	87.89
850.592	83.47
850.764	85.27
850.936	88.19
851.107	80.68
851.279	85.89
851.451	89.84
851.622	91.86
851.794	86.59
851.965	88.36
852.137	86.32
852.308	90.37
852.48	93.39
852.651	93.77
852.823	98.81
852.994	106.89
853.166	97.87
853.337	98.47
853.509	96.97
853.68	102.31
853.851	104.65
854.023	100.67
854.194	100.51
854.365	100.86
854.537	105.54
854.708	100.92
854.879	103.2
855.05	102.88
855.222	98.8
855.393	100.95
855.564	105.63
855.735	100.96
855.906	105.29
856.078	105.14
856.249	108.54
856.42	106.41
856.591	104.8
856.762	102.43
856.933	107.25
857.104	114.45
857.275	111.77
857.446	103.26
857.617	113.78
857.788	109.23
857.959	114.88
858.13	109.14
858.301	106.59
858.472	113.2
858.643	107.49
858.814	106.21
858.985	101.4
859.155	102.63
859.326	104.13
859.497	96.98
859.668	98.73
859.839	98.92
860.009	100.18
860.18	100.06
860.351	97.66
860.522	101.34
860.692	102.65
860.863	103.58
861.034	102.01
861.204	106.6
861.375	111.05
861.546	108.26
861.716	110.29
861.887	110.7
862.057	115.54
862.228	111.53
862.398	113.72
862.569	109.47
862.739	110.2
862.91	111.87
863.08	111.42
863.251	107.15
863.421	110.46
863.592	111.13
863.762	114.34
863.932	108.55
864.103	107.74
864.273	100.39
864.443	105.33
864.614	101.27
864.784	106.69
864.954	103.53
865.125	104.64
865.295	106.16
865.465	98.9
865.635	97.22
865.805	103.86
865.976	107.1
866.146	115.63
866.316	113.09
866.486	114.79
866.656	110.08
866.826	114.07
866.996	116.61
867.166	111.37
867.336	117.12
867.506	114.18
867.676	111.23
867.846	106.84
868.016	106.21
868.186	104.19
868.356	106.57
868.526	104.62
868.696	96.02
868.866	94.88
869.036	96.56
869.206	98.23
869.376	101.55
869.545	99.2
869.715	104.86
869.885	98.43
870.055	101.77
870.224	100.34
870.394	103.59
870.564	108.21
870.734	113.24
870.903	109.51
871.073	103.04
871.243	104.46
871.412	99.3
871.582	94.62
871.751	97.23
871.921	100.73
872.091	98.02
872.26	100.04
872.43	98.31
872.599	98.27
872.769	97.45
872.938	97.51
873.108	95.16
873.277	94.62
873.446	98.58
873.616	99.56
873.785	95.01
873.955	91.84
874.124	87.3
874.293	89.74
874.463	88.51
874.632	89
874.801	91.02
874.971	91.66
875.14	94.95
875.309	95.02
875.478	91.77
875.647	95.6
875.817	97.8
875.986	103.33
876.155	100.03
876.324	89.58
876.493	87.78
876.662	87.78
876.831	88.74
877	90.18
877.17	89.12
877.339	89.36
877.508	85.94
877.677	88.22
877.846	92.52
878.015	94.54
878.184	103.28
878.352	108.99
878.521	103.59
878.69	100.56
878.859	101.82
879.028	95.42
879.197	97.35
879.366	96.48
879.534	93.92
879.703	92.25
879.872	89.11
880.041	85.11
880.21	83.74
880.378	81.48
880.547	78.86
880.716	74.6
880.884	74.45
881.053	71.01
881.222	67.27
881.39	65.11
881.559	61.75
881.727	59.63
881.896	60.71
882.065	57.58
882.233	56.69
882.402	55.29
882.57	55.3
882.739	54.9
882.907	52.73
883.076	53.14
883.244	53.01
883.412	52.44
883.581	54.34
883.749	53.02
883.918	56.01
884.086	57.29
884.254	57.47
884.423	58.57
884.591	59.18
884.759	63.52
884.927	63.98
885.096	65.78
885.264	68.32
885.432	71.36
885.6	75.98
885.769	78.03
885.937	80.94
886.105	86.16
886.273	93.51
886.441	95.54
886.609	94.51
886.777	96.52
886.945	101.1
887.113	100.46
887.281	92.23
887.449	91.02
887.617	91.7
887.785	91.27
887.953	91.82
888.121	88.53
888.289	84.64
888.457	86.53
888.625	90.15
888.793	85.26
888.961	91.3
889.129	94.75
889.296	97.73
889.464	93.58
889.632	94.74
889.8	94.06
889.967	93.64
890.135	102.48
