Data from JASIL_3272_Reflection_1.txt Node
Date: Tue Nov 17 18:57:19 EST 2015
User: Geneva
Spectrometer: USB4E03002
Autoset integration time: false
Trigger mode: 4
Integration Time (sec): 1.000000E-1
Scans to average: 10
Electric dark correction enabled: false
Nonlinearity correction enabled: false
Boxcar width: 5
Stray light correction enabled: false
XAxis mode: Wavelengths
Stop averaging: false
Number of Pixels in Spectrum: 3648
>>>>>Begin Spectral Data<<<<<
177.575	411.16
177.794	335.76
178.014	413.18
178.233	268.37
178.452	279.88
178.672	345.68
178.891	330
179.11	339.55
179.33	396.23
179.549	376.07
179.768	299.48
179.987	347.22
180.207	401.68
180.426	344.13
180.645	558.67
180.864	688.13
181.084	931.34
181.303	-91150
181.522	-2221.33
181.741	-1509.71
181.96	-620.08
182.179	-560.63
182.398	-697.16
182.618	-1526.17
182.837	-5279.41
183.056	-2681.16
183.275	2017.35
183.494	843.86
183.713	864.19
183.932	570.05
184.151	573.21
184.37	426.34
184.589	462.03
184.808	583.26
185.027	697.94
185.246	1285.85
185.465	1220.1
185.684	1568.03
185.903	3520.59
186.122	1718.44
186.341	-4620.41
186.56	-900.81
186.779	-1039.13
186.998	-898.21
187.216	-1221.26
187.435	-625.88
187.654	-487.93
187.873	-536.46
188.092	-466.43
188.311	-833.62
188.53	-2593.06
188.748	-2814.29
188.967	888.02
189.186	-2345.21
189.405	6730.77
189.623	-163200
189.842	1155.28
190.061	559.3
190.28	733.59
190.498	882.14
190.717	7125.93
190.936	211600
191.154	2643.02
191.373	2518.95
191.592	1010.34
191.81	1000.43
192.029	998.77
192.248	-1430.41
192.466	-1212.85
192.685	-963.88
192.904	-970.23
193.122	-1582.95
193.341	-1198.24
193.559	-932.73
193.778	-833.2
193.996	-1984.4
194.215	-3306.15
194.433	-1943.52
194.652	1041.07
194.87	1215.62
195.089	899.24
195.307	2760.49
195.526	-77100
195.744	229400
195.963	-2545.35
196.181	-1009.69
196.399	-541.86
196.618	-480.75
196.836	-912.02
197.055	-774.58
197.273	-2589.33
197.491	-1043.68
197.71	-1505.3
197.928	4200
198.146	-2710
198.365	-1738.94
198.583	8904.17
198.801	13793.75
199.019	-4266.67
199.238	-2179.05
199.456	7753.33
199.674	-1515.75
199.892	2921.62
200.111	-1966.04
200.329	-1010.24
200.547	-5302.63
200.765	1082.61
200.983	-23875
201.202	-5727.27
201.42	88850
201.638	-1757.69
201.856	-443.24
202.074	-361.4
202.292	-286.68
202.51	-560.39
202.728	-552.7
202.946	-603.27
203.165	-484.01
203.383	-842.47
203.601	-726.34
203.819	-571.71
204.037	-574.13
204.255	-7237.5
204.473	1514.05
204.691	918.4
204.909	839.02
205.127	784.45
205.345	1610.71
205.562	-2880.33
205.78	-11375
205.998	1764.41
206.216	1661.24
206.434	1697.56
206.652	9543.48
206.87	4180
207.088	-3524.14
207.306	9617.39
207.523	-13070.59
207.741	12770.59
207.959	2035.83
208.177	2072.41
208.395	1726.32
208.612	-4393.88
208.83	3809.68
209.048	1543.42
209.266	2001.71
209.483	1146.89
209.701	901.91
209.919	1086.85
210.136	672.57
210.354	952.78
210.572	945.85
210.79	-36440
211.007	1007.07
211.225	1970.97
211.442	1330.88
211.66	971.5
211.878	1785.98
212.095	4976.32
212.313	3355.56
212.53	-1192.62
212.748	5796.97
212.966	-1546.46
213.183	-4730
213.401	-1710.91
213.618	39120
213.836	-1409.7
214.053	-872.5
214.271	-661.9
214.488	-629.84
214.705	-1190.3
214.923	-1523.42
215.14	-2182.28
215.358	-3428.3
215.575	18520
215.793	-2175.64
216.01	-995.54
216.227	-697.47
216.445	-557.52
216.662	-2095.51
216.879	-1288.89
217.097	-848.6
217.314	-769.19
217.531	-811.79
217.749	3125.93
217.966	4587.18
218.183	452.49
218.4	555.28
218.618	396.98
218.835	384.25
219.052	380.5
219.269	306.75
219.487	301.61
219.704	293.57
219.921	266.17
220.138	464.21
220.355	455.36
220.572	727.13
220.79	471.94
221.007	486.42
221.224	344.03
221.441	351.32
221.658	438.71
221.875	523.56
222.092	572.25
222.309	555.94
222.526	312.86
222.743	303.82
222.96	344.24
223.177	360.63
223.394	301.65
223.611	390.86
223.828	466.8
224.045	371.61
224.262	333.68
224.479	260.55
224.696	264.63
224.913	343.45
225.13	358.11
225.347	408.12
225.564	326.53
225.781	342.29
225.997	293.4
226.214	191.17
226.431	173.96
226.648	159.37
226.865	139.27
227.082	117.49
227.298	99.35
227.515	87.88
227.732	76.87
227.949	77.47
228.165	75.18
228.382	72.13
228.599	74.27
228.816	73.7
229.032	71.52
229.249	77.47
229.466	83.34
229.682	88.35
229.899	99.22
230.116	114.29
230.332	113.57
230.549	120.28
230.765	141.56
230.982	138.84
231.199	140.48
231.415	150.39
231.632	166.77
231.848	155.87
232.065	163.89
232.281	160.93
232.498	143.93
232.714	140.58
232.931	150.24
233.147	141.45
233.364	138.33
233.58	141.82
233.797	149.65
234.013	140.95
234.23	136.1
234.446	124.18
234.662	116.97
234.879	116.12
235.095	125.89
235.312	123.72
235.528	129.62
235.744	138.91
235.961	146.89
236.177	135.52
236.393	151.16
236.61	153.68
236.826	160.01
237.042	174.58
237.258	165.75
237.475	140.62
237.691	143.89
237.907	122.38
238.123	122.41
238.339	117.91
238.556	103.67
238.772	96.89
238.988	93.15
239.204	94.57
239.42	80.83
239.636	77.25
239.853	80.65
240.069	70.36
240.285	66.01
240.501	57.35
240.717	50.53
240.933	48.11
241.149	46.22
241.365	45.52
241.581	38.5
241.797	42.31
242.013	44.51
242.229	42.58
242.445	44.65
242.661	46.44
242.877	49.38
243.093	50.87
243.309	50.64
243.525	50.2
243.741	55.33
243.957	57.3
244.173	51.81
244.388	52.3
244.604	47.5
244.82	43.44
245.036	38.53
245.252	36
245.468	33.53
245.683	32.28
245.899	31.24
246.115	28.32
246.331	27.92
246.547	28.39
246.762	25.54
246.978	24.99
247.194	26.62
247.409	27.33
247.625	28.39
247.841	32.12
248.057	36.43
248.272	38.23
248.488	44.35
248.703	46.95
248.919	51.49
249.135	58.61
249.35	58.5
249.566	59.63
249.782	59.7
249.997	60.36
250.213	57.41
250.428	51.11
250.644	49.14
250.859	49.07
251.075	48.32
251.29	45.97
251.506	43.76
251.721	48.13
251.937	49.31
252.152	52.69
252.368	52.81
252.583	54.84
252.798	60.75
253.014	63.28
253.229	61.69
253.445	65.14
253.66	71.35
253.875	78.66
254.091	76.13
254.306	75.43
254.521	73.1
254.737	73.13
254.952	73.66
255.167	75.63
255.383	74.29
255.598	69.19
255.813	65.68
256.028	63.37
256.244	59.63
256.459	58.17
256.674	48.89
256.889	46.99
257.104	41.21
257.32	37.55
257.535	31.36
257.75	31.9
257.965	31.14
258.18	30.5
258.395	25.32
258.61	23.59
258.826	22.09
259.041	22.17
259.256	20.5
259.471	21.46
259.686	20.66
259.901	22
260.116	21.11
260.331	22.28
260.546	21.02
260.761	24.39
260.976	25.87
261.191	26.33
261.406	29.66
261.621	36.83
261.836	38.94
262.05	40.19
262.265	40.86
262.48	42.48
262.695	41.44
262.91	47.68
263.125	50.26
263.34	53.4
263.555	56.89
263.769	55.62
263.984	50.46
264.199	50.98
264.414	53.43
264.629	52.26
264.843	50.89
265.058	51.09
265.273	45.13
265.488	41.64
265.702	37.93
265.917	35.58
266.132	35.25
266.346	35.26
266.561	31.43
266.776	29.15
266.99	29.27
267.205	28.71
267.42	25.91
267.634	27.43
267.849	31.25
268.063	31.88
268.278	31.89
268.492	30.33
268.707	29.11
268.922	29.66
269.136	26.76
269.351	27.33
269.565	26.11
269.78	28.38
269.994	26.46
270.209	23.72
270.423	22.89
270.637	24.02
270.852	24.84
271.066	24.83
271.281	25.01
271.495	25.49
271.709	25.05
271.924	25.84
272.138	23.88
272.353	25.77
272.567	26.25
272.781	28.96
272.996	29.13
273.21	29.87
273.424	30.57
273.638	33.6
273.853	34.79
274.067	35.38
274.281	36.42
274.495	37.94
274.71	37.16
274.924	38.63
275.138	35.58
275.352	33.85
275.566	33.07
275.781	32.07
275.995	31.79
276.209	34.6
276.423	33.78
276.637	31.98
276.851	30.44
277.065	29.75
277.279	27.74
277.493	30.42
277.707	31.55
277.921	30.15
278.135	31.54
278.349	29.22
278.563	28.24
278.777	28.18
278.991	28.85
279.205	29.37
279.419	28.24
279.633	30.24
279.847	29.38
280.061	29.71
280.275	30.48
280.489	28.18
280.703	26.58
280.917	25.03
281.131	25.93
281.344	26.61
281.558	26.44
281.772	25.73
281.986	23.69
282.2	22.92
282.414	22.17
282.627	22.52
282.841	24.18
283.055	25.35
283.269	25.67
283.482	25.41
283.696	25.1
283.91	25.04
284.123	25.88
284.337	25.85
284.551	24.81
284.764	23.77
284.978	24.53
285.192	22.61
285.405	22.6
285.619	22.82
285.833	21.76
286.046	21.34
286.26	21.57
286.473	20.92
286.687	20.14
286.9	22.74
287.114	23.85
287.327	21.81
287.541	24.61
287.754	24.86
287.968	23
288.181	22.24
288.395	21.63
288.608	21.6
288.822	21.57
289.035	21.62
289.248	19.15
289.462	19.67
289.675	21.01
289.889	21.39
290.102	21.25
290.315	22.76
290.529	22.62
290.742	23.51
290.955	23.95
291.169	24.53
291.382	25.14
291.595	26.41
291.808	25.13
292.022	24.43
292.235	23.35
292.448	22.43
292.661	21.02
292.875	21.46
293.088	19.68
293.301	17.28
293.514	15.83
293.727	15.21
293.94	14.71
294.153	16.4
294.367	16.74
294.58	17.07
294.793	16.41
295.006	17.88
295.219	17.99
295.432	18.14
295.645	18.53
295.858	18.89
296.071	18.51
296.284	18.09
296.497	16.35
296.71	15.15
296.923	14.36
297.136	15.12
297.349	14.87
297.562	15.2
297.775	17.65
297.988	17.7
298.201	18.83
298.414	19.04
298.626	19.33
298.839	20.22
299.052	21.56
299.265	22.4
299.478	22.23
299.691	21.59
299.903	21.12
300.116	18.71
300.329	18.93
300.542	18.58
300.755	20.31
300.967	21.16
301.18	22.34
301.393	21.91
301.605	22.33
301.818	22.68
302.031	23.05
302.243	25.24
302.456	24.03
302.669	25.15
302.881	24.35
303.094	24.18
303.307	24.7
303.519	23.6
303.732	24.78
303.944	24.1
304.157	23.65
304.37	24.9
304.582	24.02
304.795	26.47
305.007	26.51
305.22	25.81
305.432	25.29
305.645	25.08
305.857	25.36
306.069	25.47
306.282	25.83
306.494	26.35
306.707	24.84
306.919	22.29
307.132	20.94
307.344	20.83
307.556	22.7
307.769	24.19
307.981	23.94
308.193	24.07
308.406	21.47
308.618	20.16
308.83	19.24
309.043	19.05
309.255	19.98
309.467	19.91
309.679	19.51
309.892	18.81
310.104	16.24
310.316	15.75
310.528	13.75
310.74	14.78
310.953	16.29
311.165	16.42
311.377	17.56
311.589	18.66
311.801	18.56
312.013	19.41
312.225	19.16
312.437	20.83
312.649	21.23
312.862	22.94
313.074	22.69
313.286	22.63
313.498	22.79
313.71	21.13
313.922	19.96
314.134	20.68
314.346	19.64
314.558	21.47
314.77	20.09
314.982	20.93
315.193	19.76
315.405	21.52
315.617	19.09
315.829	18.93
316.041	19.29
316.253	19.35
316.465	19.96
316.677	19.49
316.888	18.8
317.1	20.75
317.312	19.76
317.524	20.59
317.736	20.47
317.947	23
318.159	24.42
318.371	24.6
318.583	25.35
318.794	24.32
319.006	25.69
319.218	25.42
319.43	25.69
319.641	26.63
319.853	27.94
320.064	26.65
320.276	27.05
320.488	27
320.699	27.83
320.911	27.4
321.123	30.25
321.334	30.06
321.546	29.89
321.757	29.59
321.969	28.59
322.18	28.21
322.392	28.94
322.603	27.1
322.815	26.47
323.026	26.25
323.238	27.38
323.449	25.13
323.661	24.1
323.872	24.64
324.083	23.54
324.295	24.37
324.506	23.99
324.718	23.84
324.929	25.19
325.14	24.31
325.352	23
325.563	21.85
325.774	21.18
325.986	22.49
326.197	22.33
326.408	23.3
326.62	22.27
326.831	22.21
327.042	22.31
327.253	23.09
327.464	23.93
327.676	24.25
327.887	23.75
328.098	24.58
328.309	23.96
328.52	24.08
328.732	23.46
328.943	24.05
329.154	24.47
329.365	23.93
329.576	22.6
329.787	22.56
329.998	24.77
330.209	25.42
330.42	25.48
330.631	24.92
330.842	26.31
331.053	26.52
331.264	25.7
331.475	26.61
331.686	26.74
331.897	26.05
332.108	26.38
332.319	25.03
332.53	24.77
332.741	24.55
332.952	24.92
333.163	23.27
333.374	22.18
333.585	21.51
333.795	20.97
334.006	21.48
334.217	22.14
334.428	21.69
334.639	23.12
334.849	24.12
335.06	24.05
335.271	23.88
335.482	24.26
335.692	25.61
335.903	27.09
336.114	26.58
336.325	26.41
336.535	26.35
336.746	26.42
336.957	24.82
337.167	24.29
337.378	23.87
337.589	24.34
337.799	22.76
338.01	23.67
338.22	24.22
338.431	25.44
338.642	25.13
338.852	24.42
339.063	25.18
339.273	25.49
339.484	25.78
339.694	25.69
339.905	25.13
340.115	25.33
340.326	24.19
340.536	23.82
340.746	22.61
340.957	23.45
341.167	24.41
341.378	24.27
341.588	25.65
341.799	24.92
342.009	25
342.219	26.08
342.43	26.9
342.64	27.33
342.85	27.98
343.061	27.78
343.271	27.83
343.481	27.24
343.691	26.99
343.902	25.57
344.112	25.36
344.322	25.38
344.532	24.84
344.743	24.31
344.953	24.47
345.163	22.87
345.373	23.18
345.583	23.16
345.793	23.47
346.004	23.84
346.214	24.11
346.424	24.11
346.634	25.08
346.844	24.24
347.054	24.41
347.264	24.17
347.474	25.17
347.684	24.86
347.894	23.99
348.104	24.01
348.314	24.25
348.524	23.36
348.734	24.4
348.944	23.56
349.154	24.26
349.364	23.61
349.574	23.63
349.784	23.91
349.994	24.82
350.204	25.53
350.413	25.3
350.623	24.41
350.833	23.57
351.043	23.18
351.253	24.25
351.463	23.95
351.672	23.75
351.882	23.35
352.092	21.3
352.302	20.29
352.511	20.55
352.721	19.77
352.931	20.07
353.141	20.76
353.35	20.94
353.56	19.59
353.77	17.74
353.979	18.98
354.189	19.02
354.399	19.83
354.608	19.6
354.818	18.61
355.027	18.91
355.237	18.59
355.447	19.48
355.656	19.32
355.866	19.44
356.075	21.12
356.285	20.33
356.494	20.41
356.704	20.4
356.913	20.47
357.123	21.03
357.332	20.54
357.542	20.71
357.751	20.23
357.96	19.94
358.17	19.84
358.379	19.38
358.589	19.21
358.798	18.22
359.007	17.56
359.217	17.42
359.426	17.54
359.635	18.06
359.845	17.25
360.054	17.6
360.263	17.52
360.472	17.39
360.682	17.62
360.891	16.85
361.1	17.3
361.309	17.63
361.519	18.02
361.728	16.91
361.937	17.53
362.146	17.83
362.355	18.07
362.564	17.99
362.774	18.37
362.983	18.58
363.192	19.86
363.401	19.98
363.61	19.6
363.819	19.14
364.028	19.47
364.237	18.91
364.446	18.95
364.655	18.16
364.864	18.48
365.073	17.77
365.282	17.65
365.491	17.52
365.7	16.9
365.909	17.48
366.118	18.29
366.327	18.56
366.536	18.73
366.745	18.8
366.954	19.59
367.162	19.51
367.371	20.68
367.58	20.77
367.789	21.73
367.998	22.57
368.207	22.78
368.415	21.58
368.624	22.08
368.833	23.05
369.042	23.67
369.25	22.72
369.459	22.95
369.668	22.34
369.877	22.46
370.085	21.71
370.294	21.45
370.503	21.25
370.711	21.68
370.92	20.93
371.129	20.57
371.337	20.59
371.546	21.41
371.754	21.37
371.963	21.38
372.171	21.85
372.38	22.05
372.589	21.79
372.797	21.49
373.006	21.52
373.214	22.05
373.423	21.34
373.631	21.08
373.84	19.79
374.048	19.41
374.256	19.41
374.465	19.42
374.673	18.95
374.882	18.82
375.09	18.74
375.298	18.63
375.507	17.61
375.715	18.01
375.923	17.63
376.132	18.27
376.34	17.98
376.548	17.6
376.757	16.59
376.965	16.24
377.173	15.82
377.381	16.23
377.59	16.62
377.798	17.21
378.006	16.42
378.214	16.49
378.423	16.02
378.631	15.61
378.839	15.6
379.047	15.79
379.255	16.29
379.463	16.81
379.671	16.78
379.879	17.1
380.088	18.09
380.296	17.38
380.504	17.21
380.712	18.34
380.92	18.35
381.128	19.14
381.336	19.65
381.544	19.73
381.752	19.97
381.96	20.08
382.168	19.39
382.376	18.19
382.584	19.11
382.791	18.65
382.999	18.29
383.207	18.63
383.415	17.95
383.623	17.7
383.831	17.65
384.039	18.16
384.247	17.99
384.454	19.11
384.662	19.38
384.87	18.69
385.078	19.42
385.285	19.22
385.493	18.98
385.701	18.8
385.909	18.93
386.116	19.14
386.324	18.49
386.532	18.56
386.739	17.82
386.947	18.14
387.155	18.71
387.362	19.52
387.57	19.04
387.778	18.64
387.985	19.65
388.193	18.83
388.4	18.83
388.608	19.01
388.816	18.86
389.023	18.88
389.231	18.53
389.438	18.66
389.646	18.09
389.853	18.2
390.061	18.18
390.268	17.84
390.475	18.52
390.683	17.74
390.89	17.42
391.098	17.28
391.305	17.47
391.512	17.99
391.72	18.25
391.927	17.63
392.135	17.84
392.342	18.54
392.549	17.9
392.756	18.23
392.964	18.1
393.171	18.15
393.378	18.02
393.586	17.82
393.793	17.47
394	16.28
394.207	16.74
394.414	17.02
394.622	17.5
394.829	18.06
395.036	17.75
395.243	19.09
395.45	19.27
395.657	19.51
395.864	19.25
396.072	19.14
396.279	19.91
396.486	19.25
396.693	18.56
396.9	17.78
397.107	17.36
397.314	17.12
397.521	16.14
397.728	16.16
397.935	16.73
398.142	17.07
398.349	17.32
398.556	17.83
398.763	17.95
398.97	18.58
399.177	18.5
399.383	18.23
399.59	18.52
399.797	18.94
400.004	18.85
400.211	18.32
400.418	18.71
400.625	18.27
400.831	18.37
401.038	18.75
401.245	18.02
401.452	18.32
401.658	18.3
401.865	18.03
402.072	18.04
402.279	18.28
402.485	18.27
402.692	17.5
402.899	17.73
403.105	16.82
403.312	17.19
403.519	17.41
403.725	17.01
403.932	16.96
404.138	16.42
404.345	16.42
404.552	16.5
404.758	16.36
404.965	16.32
405.171	15.95
405.378	16.37
405.584	15.81
405.791	15.21
405.997	16.07
406.204	16.58
406.41	17.31
406.617	17.38
406.823	17.22
407.029	17.88
407.236	17.74
407.442	17.63
407.649	17.83
407.855	17.43
408.061	18.59
408.268	18.21
408.474	17.76
408.68	17.66
408.887	17.4
409.093	17.27
409.299	16.87
409.505	17.85
409.712	17.99
409.918	17.68
410.124	18.08
410.33	17.41
410.537	16.76
410.743	16.7
410.949	16.64
411.155	16.29
411.361	15.8
411.567	15.6
411.773	14.62
411.98	14.56
412.186	14.13
412.392	13.68
412.598	14.41
412.804	15.04
413.01	15.24
413.216	15.28
413.422	15.83
413.628	15.72
413.834	15.87
414.04	16.36
414.246	16.19
414.452	16.35
414.658	16.57
414.864	15.97
415.07	15.7
415.275	16
415.481	15.78
415.687	15.6
415.893	15.86
416.099	15.56
416.305	15.27
416.511	15.42
416.716	15.21
416.922	15.48
417.128	15.84
417.334	15.61
417.539	15.31
417.745	14.81
417.951	14.73
418.157	14.67
418.362	14.59
418.568	13.99
418.774	14.17
418.979	14.17
419.185	13.65
419.391	12.94
419.596	12.66
419.802	12.27
420.008	12.5
420.213	10.05
420.419	10.2
420.624	10.49
420.83	10.93
421.035	10.81
421.241	10.75
421.446	11.2
421.652	11.54
421.857	12.06
422.063	12.45
422.268	12.4
422.474	14.75
422.679	14.7
422.885	14.49
423.09	14.26
423.295	14.12
423.501	14.32
423.706	14.01
423.911	13.93
424.117	13.85
424.322	13.79
424.527	14.12
424.733	14.32
424.938	14.62
425.143	14.67
425.349	14.99
425.554	15.41
425.759	15.25
425.964	15.6
426.169	15.59
426.375	15.74
426.58	15.92
426.785	15.61
426.99	15.44
427.195	15.36
427.4	15.16
427.605	14.83
427.811	14.07
428.016	14.45
428.221	14.25
428.426	14.51
428.631	13.85
428.836	13.8
429.041	14.24
429.246	13.94
429.451	14.02
429.656	14.3
429.861	14.73
430.066	15.69
430.271	15.64
430.476	15.66
430.681	15.72
430.886	16.37
431.09	16.44
431.295	16.33
431.5	16.62
431.705	16.25
431.91	16.37
432.115	15.97
432.32	15.59
432.524	15.22
432.729	15.51
432.934	15.35
433.139	15.18
433.343	14.9
433.548	14.66
433.753	14.29
433.958	14.52
434.162	14.48
434.367	14.67
434.572	14.76
434.776	15.11
434.981	14.76
435.186	15.17
435.39	15.03
435.595	15.02
435.799	15.06
436.004	15.42
436.209	15.13
436.413	14.84
436.618	14.69
436.822	14.62
437.027	14.45
437.231	14.59
437.436	13.87
437.64	13.9
437.845	14.05
438.049	14.32
438.253	14.31
438.458	14.12
438.662	14.5
438.867	14.62
439.071	14.24
439.275	14.24
439.48	14.3
439.684	14.38
439.888	14.36
440.093	14.27
440.297	14.21
440.501	14.22
440.706	14.5
440.91	14.22
441.114	14.12
441.318	14.26
441.523	14.36
441.727	14.31
441.931	14.9
442.135	15.13
442.339	15.31
442.543	15.21
442.748	15.35
442.952	15.13
443.156	15.28
443.36	15.53
443.564	15.62
443.768	15.38
443.972	15.18
444.176	14.45
444.38	14.43
444.584	14.3
444.788	14.39
444.992	14.23
445.196	14.15
445.4	13.81
445.604	13.74
445.808	13.65
446.012	13.79
446.216	13.95
446.42	14.07
446.624	13.83
446.828	14.11
447.032	13.84
447.235	13.76
447.439	13.88
447.643	14.27
447.847	14.19
448.051	14.24
448.254	14.02
448.458	13.9
448.662	14.21
448.866	14.7
449.069	14.66
449.273	14.53
449.477	14.86
449.681	14.67
449.884	14.46
450.088	14.6
450.292	14.59
450.495	14.6
450.699	14.68
450.902	14.44
451.106	14.03
451.31	13.58
451.513	14.37
451.717	14.26
451.92	14.46
452.124	14.35
452.327	14.37
452.531	15.04
452.734	15.64
452.938	15.3
453.141	15.45
453.345	15.6
453.548	16.24
453.752	15.74
453.955	15.66
454.158	15.43
454.362	15.42
454.565	15.2
454.769	14.5
454.972	14.37
455.175	14.61
455.379	14.46
455.582	14.28
455.785	14.02
455.988	13.9
456.192	13.6
456.395	13.8
456.598	13.98
456.801	13.69
457.005	13.99
457.208	14
457.411	13.87
457.614	13.97
457.817	13.76
458.021	13.1
458.224	13.36
458.427	13.22
458.63	13.07
458.833	13
459.036	13
459.239	12.99
459.442	12.72
459.645	12.57
459.848	12.58
460.051	12.69
460.254	13.3
460.457	13.27
460.66	13.5
460.863	13.57
461.066	13.73
461.269	14.07
461.472	14.2
461.675	13.99
461.878	13.98
462.081	13.88
462.284	13.64
462.486	13.48
462.689	13.75
462.892	13.87
463.095	14.52
463.298	14.28
463.5	14.15
463.703	13.88
463.906	14.86
464.109	15.13
464.311	15.16
464.514	15.37
464.717	15.52
464.92	14.98
465.122	14.71
465.325	14.24
465.528	14.49
465.73	14.49
465.933	14.66
466.135	13.9
466.338	13.94
466.541	14.12
466.743	14.42
466.946	14.11
467.148	14.05
467.351	14.55
467.553	14.66
467.756	14.19
467.958	14.05
468.161	13.42
468.363	13.77
468.566	13.95
468.768	13.74
468.971	13.45
469.173	13.67
469.375	13.92
469.578	13.46
469.78	13.6
469.983	13.75
470.185	14.3
470.387	14.64
470.59	14.26
470.792	14.55
470.994	15.3
471.196	15.22
471.399	15.09
471.601	15.15
471.803	14.84
472.005	14.86
472.208	15.14
472.41	14.59
472.612	14.71
472.814	15.29
473.016	14.89
473.218	14.25
473.421	14.62
473.623	14.56
473.825	14.6
474.027	14.85
474.229	14.34
474.431	13.87
474.633	14.44
474.835	14.43
475.037	14.03
475.239	14.03
475.441	13.86
475.643	13.81
475.845	13.68
476.047	13.63
476.249	14.12
476.451	14.23
476.653	14.47
476.855	14.02
477.057	14.23
477.258	14.31
477.46	14.19
477.662	14.39
477.864	14.17
478.066	14.21
478.268	14.05
478.469	13.55
478.671	13.55
478.873	13.67
479.075	13.58
479.276	13.07
479.478	13.03
479.68	12.72
479.882	12.49
480.083	12.35
480.285	12.32
480.487	12.22
480.688	12.19
480.89	11.95
481.091	11.85
481.293	12
481.495	11.99
481.696	11.89
481.898	11.85
482.099	11.83
482.301	11.85
482.502	11.67
482.704	11.56
482.905	11.59
483.107	11.51
483.308	11.36
483.51	11.33
483.711	11.28
483.913	11.27
484.114	11.38
484.315	11.3
484.517	11.25
484.718	11.32
484.92	11.4
485.121	11.36
485.322	11.49
485.524	11.56
485.725	11.58
485.926	11.57
486.127	11.6
486.329	11.58
486.53	11.56
486.731	11.56
486.932	11.54
487.134	11.55
487.335	11.68
487.536	11.67
487.737	11.82
487.938	11.82
488.139	11.9
488.341	11.91
488.542	11.86
488.743	12.11
488.944	12.17
489.145	12.33
489.346	12.39
489.547	12.3
489.748	12.46
489.949	12.35
490.15	12.28
490.351	12.33
490.552	12.17
490.753	12.35
490.954	12.11
491.155	12.24
491.356	12.23
491.557	12.43
491.758	12.45
491.959	12.44
492.159	12.58
492.36	12.85
492.561	12.83
492.762	13.28
492.963	13.41
493.164	13.77
493.364	13.83
493.565	14.07
493.766	13.84
493.967	13.97
494.167	14.2
494.368	14.24
494.569	14.29
494.769	14.52
494.97	14.44
495.171	14.43
495.371	14.47
495.572	14.44
495.773	14.54
495.973	14.54
496.174	14.46
496.375	14.49
496.575	14.19
496.776	13.9
496.976	13.72
497.177	13.53
497.377	13.35
497.578	13.34
497.778	13.54
497.979	13.48
498.179	13.66
498.38	13.69
498.58	13.64
498.78	14.24
498.981	14.35
499.181	14.79
499.382	14.73
499.582	14.76
499.782	14.77
499.983	14.43
500.183	14.27
500.383	14.16
500.584	14.11
500.784	14.17
500.984	13.93
501.184	14.05
501.385	13.77
501.585	13.94
501.785	14.06
501.985	13.81
502.185	13.56
502.386	13.66
502.586	13.79
502.786	13.89
502.986	13.85
503.186	13.84
503.386	13.54
503.586	13.53
503.786	13.49
503.987	13.64
504.187	14.04
504.387	14.41
504.587	14.18
504.787	13.97
504.987	13.97
505.187	14.18
505.387	14.26
505.587	14.28
505.786	14.59
505.986	14.63
506.186	14.38
506.386	14.41
506.586	14.35
506.786	14.76
506.986	14.97
507.186	14.99
507.386	14.89
507.585	14.99
507.785	14.95
507.985	14.84
508.185	14.97
508.384	14.79
508.584	14.76
508.784	14.9
508.984	14.71
509.183	14.76
509.383	14.74
509.583	14.65
509.782	14.6
509.982	14.89
510.182	14.66
510.381	14.72
510.581	14.91
510.781	15.02
510.98	14.87
511.18	15.23
511.379	15.15
511.579	15.11
511.778	15.06
511.978	15.25
512.177	15.26
512.377	15.53
512.576	15.2
512.776	15.19
512.975	14.84
513.175	14.9
513.374	14.77
513.573	15.21
513.773	15.5
513.972	15.86
514.172	15.7
514.371	16.16
514.57	16.02
514.77	16.49
514.969	16.55
515.168	16.85
515.367	16.82
515.567	16.89
515.766	16.54
515.965	16.58
516.164	16.23
516.364	16.21
516.563	15.93
516.762	15.98
516.961	15.96
517.16	15.94
517.359	15.77
517.559	15.8
517.758	15.54
517.957	15.56
518.156	15.68
518.355	15.88
518.554	16.02
518.753	15.81
518.952	15.82
519.151	15.83
519.35	16.17
519.549	16.45
519.748	16.65
519.947	16.96
520.146	17.11
520.345	17.03
520.544	17.13
520.743	16.91
520.942	17.21
521.141	17.3
521.339	17.25
521.538	17.01
521.737	17.08
521.936	16.96
522.135	16.99
522.333	16.59
522.532	16.58
522.731	16.58
522.93	16.87
523.129	17.05
523.327	17.07
523.526	17.18
523.725	17.25
523.923	17.13
524.122	17.3
524.321	17.23
524.519	17.61
524.718	17.66
524.917	17.43
525.115	17.21
525.314	17.11
525.512	16.95
525.711	16.89
525.909	16.87
526.108	16.79
526.306	16.63
526.505	16.53
526.703	16.35
526.902	16.14
527.1	16.14
527.299	16.2
527.497	16.25
527.696	16.26
527.894	16.23
528.092	16.2
528.291	16.31
528.489	16.34
528.688	16.42
528.886	16.56
529.084	16.77
529.283	17.02
529.481	17.05
529.679	17
529.877	17.11
530.076	17.24
530.274	17.24
530.472	17.36
530.67	17.53
530.869	17.64
531.067	17.62
531.265	17.58
531.463	17.5
531.661	17.51
531.859	17.58
532.057	17.64
532.255	17.8
532.454	18.03
532.652	17.93
532.85	18.05
533.048	18.04
533.246	17.91
533.444	18.03
533.642	18.16
533.84	18.28
534.038	18.21
534.236	18.15
534.434	18.18
534.632	18.2
534.83	18.27
535.027	18.2
535.225	18.3
535.423	18.54
535.621	18.48
535.819	18.43
536.017	18.54
536.215	18.77
536.412	19.06
536.61	19.21
536.808	19.21
537.006	19.35
537.203	19.65
537.401	19.56
537.599	19.8
537.797	19.77
537.994	19.96
538.192	20.09
538.39	20.3
538.587	20.25
538.785	20.22
538.983	20.3
539.18	20.26
539.378	19.9
539.575	19.93
539.773	19.74
539.97	19.66
540.168	19.63
540.366	19.63
540.563	19.52
540.761	19.6
540.958	19.43
541.155	19.55
541.353	19.48
541.55	19.72
541.748	19.89
541.945	20.13
542.143	20.47
542.34	20.68
542.537	20.84
542.735	20.99
542.932	21.27
543.129	21.63
543.327	21.72
543.524	21.97
543.721	22.02
543.919	22.08
544.116	22.3
544.313	22.4
544.51	22.13
544.708	22.05
544.905	22.27
545.102	22.28
545.299	22.3
545.496	22.22
545.693	22.64
545.891	22.81
546.088	22.94
546.285	22.75
546.482	22.83
546.679	23.27
546.876	23.46
547.073	23.7
547.27	23.74
547.467	23.85
547.664	23.9
547.861	23.77
548.058	23.79
548.255	23.63
548.452	23.93
548.649	24.35
548.846	24.65
549.043	24.94
549.24	24.9
549.437	25.16
549.633	24.91
549.83	25.27
550.027	25.12
550.224	25.45
550.421	25.67
550.618	25.82
550.814	25.56
551.011	25.23
551.208	25.24
551.405	25.26
551.601	25.65
551.798	26.02
551.995	26.32
552.191	26.65
552.388	26.66
552.585	26.66
552.781	26.58
552.978	26.57
553.175	26.97
553.371	26.81
553.568	27.09
553.764	27.09
553.961	27.56
554.157	27.45
554.354	27.61
554.55	27.93
554.747	28.56
554.943	28.76
555.14	29.03
555.336	28.56
555.533	28.89
555.729	28.83
555.926	28.72
556.122	28.38
556.318	28.4
556.515	28.88
556.711	28.94
556.907	29.14
557.104	29.53
557.3	29.79
557.496	30.1
557.693	29.79
557.889	29.91
558.085	29.76
558.281	30.18
558.478	30.35
558.674	29.71
558.87	29.3
559.066	29.1
559.262	29.25
559.459	29.07
559.655	29.38
559.851	29.93
560.047	29.67
560.243	29.84
560.439	29.71
560.635	29.75
560.831	29.8
561.027	30.48
561.223	30.45
561.419	30.38
561.615	30.58
561.811	31.01
562.007	30.82
562.203	31.17
562.399	31.21
562.595	31.3
562.791	31.52
562.987	31.89
563.183	31.77
563.379	32.02
563.575	31.78
563.771	32.01
563.966	31.67
564.162	31.89
564.358	32.18
564.554	32.25
564.75	32.32
564.945	32.26
565.141	32.11
565.337	31.89
565.533	31.66
565.728	31.66
565.924	31.5
566.12	31.44
566.315	31.48
566.511	31.34
566.707	31.18
566.902	30.98
567.098	31.39
567.293	31.67
567.489	32.07
567.684	32.4
567.88	32.44
568.076	32.41
568.271	32.42
568.467	32.67
568.662	32.92
568.858	33.29
569.053	33.49
569.248	33.11
569.444	32.95
569.639	32.75
569.835	32.74
570.03	33.01
570.225	33.12
570.421	33.1
570.616	32.42
570.812	32.1
571.007	32.15
571.202	32.29
571.397	32.59
571.593	32.64
571.788	32.74
571.983	32.89
572.178	33.45
572.374	33.85
572.569	34.09
572.764	35.27
572.959	35.69
573.154	35.51
573.35	35.73
573.545	35.74
573.74	35.94
573.935	35.92
574.13	35.96
574.325	35.15
574.52	35.06
574.715	35.06
574.91	34.72
575.105	34.48
575.3	34.81
575.495	34.87
575.69	34.92
575.885	35.42
576.08	35.61
576.275	36.19
576.47	36.43
576.665	36.56
576.86	36.58
577.055	36.61
577.25	37.06
577.444	37.26
577.639	37.25
577.834	36.85
578.029	36.27
578.224	36.23
578.418	35.7
578.613	35.96
578.808	35.85
579.003	35.9
579.197	35.56
579.392	35.34
579.587	35.52
579.781	35.57
579.976	36.09
580.171	36.52
580.365	36.81
580.56	37.19
580.755	37.74
580.949	37.9
581.144	38.21
581.338	38.48
581.533	38.6
581.727	38.24
581.922	38.49
582.116	38.34
582.311	38.32
582.505	37.94
582.7	37.52
582.894	37.35
583.089	37.18
583.283	37.42
583.478	37.88
583.672	38.27
583.866	38.48
584.061	38.11
584.255	38.37
584.449	38.13
584.644	38.35
584.838	38.69
585.032	38.51
585.226	38.9
585.421	39.24
585.615	39.13
585.809	39.03
586.003	39.26
586.198	39.33
586.392	38.84
586.586	38.83
586.78	39.16
586.974	39.19
587.168	39.42
587.363	39.28
587.557	39.56
587.751	39.68
587.945	39.85
588.139	39.73
588.333	39.79
588.527	40.28
588.721	40.43
588.915	40.79
589.109	40.9
589.303	41.19
589.497	41.43
589.691	41.14
589.885	41.55
590.079	41.46
590.273	41.69
590.466	41.65
590.66	41.93
590.854	41.69
591.048	41.3
591.242	41.42
591.436	41.51
591.629	41.22
591.823	41.38
592.017	41.1
592.211	41.19
592.404	40.97
592.598	41.88
592.792	41.49
592.986	42.09
593.179	41.96
593.373	41.16
593.567	40.94
593.76	40.96
593.954	40.64
594.147	40.6
594.341	39.95
594.535	40.45
594.728	39.73
594.922	39.77
595.115	39.49
595.309	39.61
595.502	40.15
595.696	39.98
595.889	40.28
596.083	40.15
596.276	39.73
596.47	40.28
596.663	40.28
596.856	40.48
597.05	40.87
597.243	41.3
597.437	41.67
597.63	41.94
597.823	42.17
598.017	42.32
598.21	42.73
598.403	43.43
598.596	43.79
598.79	43.38
598.983	43.73
599.176	43.99
599.369	43.49
599.563	43.57
599.756	43.89
599.949	43.68
600.142	43.54
600.335	43.41
600.528	43.22
600.722	42.89
600.915	43.13
601.108	42.33
601.301	42.14
601.494	42.69
601.687	42.36
601.88	42.03
602.073	42.17
602.266	42.21
602.459	42.23
602.652	42.45
602.845	42.68
603.038	42.52
603.231	42.89
603.424	42.5
603.617	41.85
603.809	41.79
604.002	41.67
604.195	41.5
604.388	40.79
604.581	41.09
604.774	40.74
604.966	40.78
605.159	40.94
605.352	41.09
605.545	41.29
605.737	42.14
605.93	42.01
606.123	42.39
606.316	42.85
606.508	43.96
606.701	44.64
606.894	44.41
607.086	44.57
607.279	44.59
607.471	44.35
607.664	44.34
607.857	44.33
608.049	45.26
608.242	45.34
608.434	44.88
608.627	44.73
608.819	43.76
609.012	44.01
609.204	43.64
609.397	43.95
609.589	44.3
609.782	44.73
609.974	44.69
610.166	44.53
610.359	44.71
610.551	45.54
610.743	46.2
610.936	46.5
611.128	47.27
611.32	47.5
611.513	47.12
611.705	47.21
611.897	47.44
612.09	47.76
612.282	47.27
612.474	46.79
612.666	46.28
612.858	45.98
613.051	46.6
613.243	47
613.435	46.9
613.627	47.84
613.819	48.07
614.011	48.66
614.203	48.67
614.395	49.17
614.588	49.23
614.78	49.65
614.972	49.99
615.164	50.4
615.356	49.99
615.548	50.28
615.74	49.34
615.932	49.19
616.124	48.77
616.315	49.19
616.507	49.69
616.699	50.05
616.891	49.96
617.083	49.17
617.275	48.59
617.467	48.74
617.659	49.1
617.85	49.87
618.042	50.21
618.234	49.69
618.426	49.51
618.618	48.98
618.809	49.12
619.001	48.79
619.193	49.27
619.384	48.95
619.576	48.86
619.768	48.67
619.959	48.28
620.151	47.94
620.343	48.4
620.534	48.53
620.726	48.96
620.917	49.28
621.109	49.69
621.301	49.55
621.492	50.1
621.684	50.47
621.875	50.87
622.067	51.58
622.258	52
622.45	52.48
622.641	51.98
622.832	51.58
623.024	50.7
623.215	51.22
623.407	51.31
623.598	51.32
623.789	51.48
623.981	51.39
624.172	50.92
624.363	50.6
624.555	50.55
624.746	50.78
624.937	50.7
625.129	51.21
625.32	50.43
625.511	50.61
625.702	50.47
625.893	49.77
626.085	49.11
626.276	49.11
626.467	49.75
626.658	49.07
626.849	48.88
627.04	48.61
627.231	48.75
627.422	49.32
627.614	49.61
627.805	49.64
627.996	50.19
628.187	50.71
628.378	50.87
628.569	50.05
628.76	50.58
628.951	50.76
629.142	51.63
629.332	51.42
629.523	51.39
629.714	51.25
629.905	51.21
630.096	50.78
630.287	51.78
630.478	51.72
630.669	52.34
630.859	52.93
631.05	52.78
631.241	52.62
631.432	52.59
631.623	52.14
631.813	51.94
632.004	52.27
632.195	52.8
632.385	51.63
632.576	51.89
632.767	51.99
632.957	51
633.148	51.33
633.339	51.58
633.529	51.69
633.72	52.15
633.91	51.92
634.101	51.5
634.292	51.34
634.482	52.36
634.673	52.07
634.863	51.93
635.054	52.92
635.244	52.6
635.435	52.57
635.625	52.78
635.815	52.84
636.006	53.31
636.196	53.85
636.387	53.96
636.577	53.73
636.767	54.85
636.958	55
637.148	55.1
637.338	55.45
637.529	55.74
637.719	55.72
637.909	55.69
638.099	55.44
638.29	55.45
638.48	55.8
638.67	55.39
638.86	54.68
639.05	54.74
639.241	54.42
639.431	54.54
639.621	53.69
639.811	53.88
640.001	53.83
640.191	54.54
640.381	54.46
640.571	53.76
640.761	53.6
640.951	53.43
641.141	53.31
641.331	53.63
641.521	53.65
641.711	54.5
641.901	53.51
642.091	54.28
642.281	53.96
642.471	53.87
642.661	55.26
642.851	55.9
643.041	55.98
643.231	55.63
643.42	56.11
643.61	56
643.8	56
643.99	56.69
644.18	56.37
644.369	56.79
644.559	56.53
644.749	56.46
644.939	56.33
645.128	56.78
645.318	57.66
645.508	56.92
645.697	57.01
645.887	57.03
646.076	57.47
646.266	58.19
646.456	58.57
646.645	58.93
646.835	58.6
647.024	59.5
647.214	58.92
647.403	59.25
647.593	58.62
647.782	58.78
647.972	59.4
648.161	60.14
648.351	59.54
648.54	58.89
648.73	59.04
648.919	58.34
649.108	56.63
649.298	57.83
649.487	57.77
649.677	58.41
649.866	59.39
650.055	58.26
650.244	57.16
650.434	56.9
650.623	56.85
650.812	56.29
651.002	56.01
651.191	56.76
651.38	55.8
651.569	54.83
651.758	54.64
651.947	54.54
652.137	55.22
652.326	55.41
652.515	55.69
652.704	56.43
652.893	56.71
653.082	57.77
653.271	58.65
653.46	59.17
653.649	59.54
653.838	60.09
654.027	59.72
654.216	59.98
654.405	60.56
654.594	60.71
654.783	60.43
654.972	61.64
655.161	61.13
655.35	60.54
655.539	60.35
655.728	60.8
655.916	60.47
656.105	60
656.294	59.87
656.483	59.8
656.672	59.18
656.86	58.75
657.049	57.51
657.238	57.41
657.427	57.16
657.615	57.24
657.804	57.18
657.993	56.89
658.181	57.64
658.37	57.19
658.559	57.16
658.747	57.32
658.936	58.02
659.125	58.62
659.313	58.75
659.502	58.7
659.69	59.28
659.879	58.75
660.067	59.29
660.256	58.34
660.444	58.92
660.633	58.69
660.821	59.92
661.01	59.66
661.198	60.02
661.387	60.81
661.575	60.93
661.763	60.01
661.952	61.35
662.14	61.37
662.328	61.61
662.517	61.66
662.705	62.23
662.893	61.4
663.082	60.77
663.27	60.73
663.458	60.38
663.646	60.06
663.834	60.79
664.023	59.76
664.211	59.82
664.399	59.87
664.587	60.27
664.775	60.46
664.963	59.83
665.152	60.55
665.34	61.1
665.528	61.52
665.716	62.09
665.904	62.64
666.092	62.96
666.28	62.33
666.468	62.85
666.656	63.09
666.844	63.59
667.032	65.03
667.22	65.01
667.408	64.07
667.596	63.59
667.784	63.66
667.971	62.88
668.159	62.43
668.347	63.38
668.535	63.19
668.723	63.14
668.911	62.24
669.098	62.13
669.286	62.51
669.474	62.34
669.662	62.64
669.849	63.08
670.037	63.86
670.225	65.2
670.413	65.71
670.6	65.75
670.788	65.67
670.976	66.04
671.163	65.39
671.351	65.13
671.538	66.76
671.726	66.66
671.913	65.89
672.101	65.45
672.289	65.14
672.476	64.83
672.664	64.92
672.851	64.37
673.039	64.51
673.226	63.97
673.413	63.49
673.601	62.77
673.788	62.73
673.976	63.3
674.163	64.32
674.35	64.28
674.538	65.33
674.725	65.63
674.912	66.43
675.1	66.12
675.287	68.4
675.474	68.59
675.662	67.88
675.849	67.73
676.036	69.42
676.223	68.56
676.411	68.49
676.598	67.02
676.785	66.83
676.972	66.19
677.159	66.08
677.346	64.04
677.533	64.83
677.721	65.31
677.908	65.26
678.095	64.16
678.282	63.67
678.469	62.74
678.656	62.73
678.843	62.48
679.03	63.29
679.217	63.33
679.404	64.03
679.591	64.43
679.778	64.08
679.964	64.04
680.151	63.73
680.338	64.06
680.525	64.23
680.712	64.78
680.899	64.76
681.086	63.95
681.272	65.25
681.459	65.67
681.646	64.25
681.833	64.86
682.02	64.99
682.206	65.32
682.393	65.38
682.58	66.06
682.766	66.15
682.953	66.95
683.14	67.27
683.326	66.43
683.513	66.2
683.7	67.31
683.886	68.29
684.073	68.34
684.259	67.65
684.446	67.23
684.632	68.12
684.819	66.45
685.005	65.8
685.192	66.68
685.378	67.42
685.565	67.91
685.751	66.62
685.938	66.54
686.124	67.3
686.31	67.43
686.497	69.26
686.683	67.68
686.87	69.44
687.056	69.48
687.242	68.77
687.429	68.94
687.615	69.39
687.801	70.44
687.987	71.11
688.174	71.25
688.36	72.01
688.546	72.19
688.732	74.21
688.918	74.47
689.105	74.81
689.291	75.35
689.477	75.88
689.663	75.63
689.849	75.52
690.035	74.51
690.221	74.59
690.407	75.63
690.593	73.59
690.779	74.18
690.965	74.27
691.151	75.33
691.337	75.31
691.523	73.77
691.709	74.31
691.895	75.03
692.081	74.83
692.267	75.43
692.453	74.09
692.639	76.47
692.825	75
693.011	74.61
693.196	74.79
693.382	74.38
693.568	75.92
693.754	76.27
693.94	76.12
694.125	75.76
694.311	75.63
694.497	76.75
694.682	75.28
694.868	75.72
695.054	75.66
695.239	74.96
695.425	76.2
695.611	74.55
695.796	73.32
695.982	71.72
696.168	71.62
696.353	70.73
696.539	69.61
696.724	68.6
696.91	67.41
697.095	67.03
697.281	66.44
697.466	64.91
697.652	64.46
697.837	63.99
698.023	64.26
698.208	64.22
698.393	63.61
698.579	63.62
698.764	64
698.949	64.98
699.135	65.39
699.32	66.41
699.505	67.23
699.691	67.7
699.876	68.54
700.061	69.91
700.246	70.12
700.432	72.58
700.617	73.36
700.802	75.03
700.987	75.72
701.172	77.77
701.358	76.82
701.543	77.45
701.728	78.25
701.913	77.37
702.098	78.32
702.283	79.82
702.468	79.62
702.653	79.75
702.838	79.13
703.023	80.15
703.208	77.63
703.393	78.07
703.578	78.74
703.763	79.74
703.948	82.24
704.133	81.45
704.318	80.01
704.503	79.2
704.688	80.45
704.873	81.57
705.057	79.91
705.242	81.24
705.427	82.53
705.612	82.93
705.797	82.88
705.981	83.04
706.166	83.6
706.351	84.31
706.536	85.04
706.72	84.69
706.905	84.93
707.09	85.81
707.274	85.79
707.459	84.58
707.644	85.2
707.828	83.71
708.013	81.4
708.197	79.31
708.382	79.55
708.567	79.5
708.751	79.02
708.936	77.11
709.12	76.2
709.305	75.94
709.489	76.08
709.673	74.73
709.858	75.15
710.042	75.3
710.227	76.73
710.411	76.93
710.596	75.65
710.78	75.9
710.964	76.79
711.149	77.45
711.333	77.51
711.517	77.21
711.702	78.13
711.886	78.86
712.07	80.02
712.254	79.72
712.438	78.88
712.623	78.7
712.807	77.41
712.991	76.55
713.175	77.32
713.359	77.34
713.544	76.89
713.728	75.37
713.912	74.46
714.096	73.8
714.28	74.16
714.464	75.05
714.648	76.19
714.832	76.18
715.016	75.91
715.2	74.86
715.384	75.61
715.568	76.78
715.752	78.01
715.936	78.94
716.12	79.77
716.304	80
716.488	79.5
716.671	78.5
716.855	79.82
717.039	80.19
717.223	80.45
717.407	80.85
717.59	81.65
717.774	80.86
717.958	82.5
718.142	82.55
718.325	83.38
718.509	85.06
718.693	86.92
718.877	86.44
719.06	87.71
719.244	87.55
719.428	87
719.611	88.79
719.795	89.55
719.978	88.77
720.162	89.55
720.345	90.64
720.529	90.87
720.713	90.79
720.896	92.78
721.08	92.19
721.263	90.93
721.446	90.9
721.63	87.91
721.813	89.05
721.997	87.71
722.18	87.66
722.364	86.82
722.547	84.83
722.73	86.58
722.914	86.21
723.097	87.94
723.28	90.65
723.464	90.6
723.647	90.6
723.83	89.78
724.013	89.72
724.197	88.84
724.38	88.96
724.563	89.58
724.746	86.46
724.929	87.25
725.112	84.09
725.296	82.53
725.479	83.46
725.662	83.79
725.845	85.65
726.028	86.62
726.211	87.74
726.394	87.65
726.577	86.63
726.76	87.49
726.943	86.32
727.126	87.67
727.309	87.41
727.492	85.84
727.675	85.77
727.858	84.05
728.041	84.67
728.224	82.83
728.407	80.83
728.589	79.4
728.772	79.04
728.955	79.06
729.138	79.33
729.321	79.8
729.503	80.87
729.686	80.68
729.869	80.96
730.052	81.07
730.234	81.53
730.417	81.8
730.6	82.49
730.782	82.41
730.965	81.39
731.148	80.65
731.33	80.9
731.513	78.05
731.695	78.23
731.878	79.7
732.061	79.4
732.243	79.72
732.426	79.57
732.608	80.41
732.791	81.01
732.973	82.85
733.156	84.34
733.338	84.39
733.52	87.35
733.703	86.55
733.885	87.64
734.068	87.95
734.25	88.77
734.432	89.94
734.615	92.75
734.797	94.49
734.979	93.52
735.162	93.79
735.344	95.06
735.526	93.86
735.708	95.07
735.891	92.92
736.073	90.72
736.255	93.01
736.437	93.2
736.619	90.63
736.802	88.87
736.984	88.5
737.166	89.59
737.348	90.15
737.53	91.09
737.712	93.79
737.894	91.43
738.076	93.84
738.258	91.27
738.44	92.52
738.622	91.54
738.804	93.44
738.986	93.16
739.168	91.75
739.35	90.34
739.532	91.08
739.714	90.18
739.896	91.98
740.078	91.95
740.259	93.19
740.441	93.6
740.623	93.87
740.805	93.47
740.987	95.76
741.168	98.64
741.35	101.98
741.532	101.72
741.714	99.83
741.895	99.61
742.077	99.59
742.259	99.72
742.44	97.99
742.622	101.09
742.804	100.6
742.985	98.03
743.167	95.08
743.348	92.63
743.53	93.65
743.711	94.14
743.893	92.72
744.075	91.14
744.256	88.71
744.438	92
744.619	91.33
744.8	89.76
744.982	93.55
745.163	96.09
745.345	96.66
745.526	95.57
745.707	94.79
745.889	94.97
746.07	97.9
746.252	99.82
746.433	98.02
746.614	100.25
746.795	104.42
746.977	102.95
747.158	100.34
747.339	101.22
747.52	100.68
747.702	102.75
747.883	107.16
748.064	103.73
748.245	105.18
748.426	105.38
748.607	101.95
748.788	102.04
748.97	102
749.151	105.68
749.332	106.5
749.513	106.01
749.694	105.46
749.875	102.15
750.056	106.6
750.237	107.08
750.418	108.67
750.599	107.04
750.78	105.77
750.96	104.71
751.141	100.79
751.322	99.98
751.503	101.58
751.684	100.63
751.865	102.14
752.046	97.92
752.226	99.13
752.407	96.65
752.588	99.83
752.769	101.93
752.949	100.83
753.13	102.94
753.311	101.65
753.492	102.42
753.672	101.59
753.853	103.67
754.034	106.52
754.214	106.78
754.395	107.38
754.575	108.59
754.756	104.91
754.937	105.98
755.117	104.01
755.298	106.2
755.478	104.66
755.659	107
755.839	105.4
756.02	103.07
756.2	100.41
756.381	101.57
756.561	100.23
756.741	98.29
756.922	100.54
757.102	102.12
757.283	100.98
757.463	102.39
757.643	101.27
757.823	103.87
758.004	103.88
758.184	102.24
758.364	102.61
758.545	103.19
758.725	106.1
758.905	102.87
759.085	103.29
759.265	102.84
759.446	103.78
759.626	103.65
759.806	98.9
759.986	101.5
760.166	99.16
760.346	98.96
760.526	99.62
760.706	98.4
760.886	94.31
761.066	92.37
761.246	87.88
761.426	83.07
761.606	80.91
761.786	79.8
761.966	75.88
762.146	77.38
762.326	75.77
762.506	74.03
762.686	73.43
762.866	74.25
763.046	74.74
763.225	76.88
763.405	79.86
763.585	80.21
763.765	80.48
763.945	83.32
764.124	83.61
764.304	85.76
764.484	87.19
764.664	90.32
764.843	91.21
765.023	92.41
765.203	93.21
765.382	92.69
765.562	93.93
765.741	95.64
765.921	95.89
766.101	95.69
766.28	92.82
766.46	92.05
766.639	90.91
766.819	93.3
766.998	92.63
767.178	93.72
767.357	94.95
767.537	96.07
767.716	96.36
767.896	96.37
768.075	97.62
768.254	98.54
768.434	99.56
768.613	102.07
768.792	104.25
768.972	104.37
769.151	104.77
769.33	104.92
769.51	107.78
769.689	110.14
769.868	112.12
770.047	113.51
770.226	114.14
770.406	115.21
770.585	116.11
770.764	113.23
770.943	114.44
771.122	114
771.301	113.88
771.48	112.41
771.66	113.35
771.839	112.15
772.018	109.97
772.197	117.16
772.376	118.27
772.555	116.52
772.734	120.57
772.913	122.54
773.092	119.56
773.271	120.45
773.449	119.16
773.628	119.7
773.807	118.22
773.986	124.23
774.165	120.28
774.344	119.35
774.523	116.22
774.701	118.54
774.88	114.21
775.059	117.2
775.238	117.03
775.417	119.61
775.595	116.03
775.774	117.98
775.953	113.68
776.131	114.02
776.31	114.5
776.489	115.19
776.667	117.14
776.846	118.91
777.025	119.96
777.203	120.1
777.382	116.98
777.56	121.71
777.739	122.2
777.917	123.84
778.096	121.91
778.274	121.31
778.453	124.06
778.631	121.01
778.81	122.36
778.988	123.37
779.166	124.32
779.345	130.16
779.523	126.96
779.702	130.58
779.88	128.29
780.058	128.72
780.237	129.33
780.415	130.83
780.593	131.67
780.771	130.19
780.95	130.22
781.128	132.42
781.306	129.37
781.484	129.76
781.662	126.45
781.841	129.54
782.019	131.28
782.197	136.57
782.375	135.72
782.553	135.12
782.731	138.71
782.909	140.06
783.087	133.62
783.265	137.32
783.443	142.41
783.621	143.85
783.799	142.42
783.977	136.89
784.155	132.16
784.333	127.81
784.511	126.17
784.689	129.7
784.867	130.35
785.045	137.37
785.223	137.16
785.4	128.71
785.578	128.29
785.756	127.31
785.934	126.1
786.112	130.55
786.289	128.69
786.467	125.89
786.645	126.17
786.823	121.53
787	120.37
787.178	119.5
787.356	120.75
787.533	120.03
787.711	122.61
787.889	122.89
788.066	121.81
788.244	125.72
788.421	126.42
788.599	123.28
788.776	126.66
788.954	126.81
789.131	125.63
789.309	130.39
789.486	128.63
789.664	127.31
789.841	133.07
790.019	128.41
790.196	127.13
790.373	128.41
790.551	127.34
790.728	124.28
790.906	123.35
791.083	121.38
791.26	121.66
791.437	123.55
791.615	126.35
791.792	125.75
791.969	129.88
792.146	127.43
792.324	126.33
792.501	132.96
792.678	135.29
792.855	140.04
793.032	143.18
793.209	139.26
793.387	138.92
793.564	133.17
793.741	133.26
793.918	132.17
794.095	136.12
794.272	138.07
794.449	130.02
794.626	133.9
794.803	123.55
794.98	120.28
795.157	122.88
795.334	120.48
795.511	128.13
795.688	126.73
795.864	124.61
796.041	120.69
796.218	125.95
796.395	129.8
796.572	120.67
796.749	126.78
796.925	130.53
797.102	127.2
797.279	133.5
797.456	125.48
797.632	125.28
797.809	125.8
797.986	131.9
798.162	125.83
798.339	123.53
798.516	125.76
798.692	121.93
798.869	118.45
799.046	121.52
799.222	117.05
799.399	120.67
799.575	122.01
799.752	126.65
799.928	124.38
800.105	127.05
800.281	128.23
800.458	135.53
800.634	139.95
800.811	142.42
800.987	141.96
801.163	140.37
801.34	135.56
801.516	134.88
801.692	128.57
801.869	123.47
802.045	124.38
802.221	122.32
802.398	120.14
802.574	122.6
802.75	123.15
802.926	124.36
803.103	128.72
803.279	133.96
803.455	133.36
803.631	135.66
803.807	147.43
803.983	140.05
804.16	141.98
804.336	142.45
804.512	140.7
804.688	140.52
804.864	142.05
805.04	138.7
805.216	136.56
805.392	133.17
805.568	131.04
805.744	130.93
805.92	139.29
806.096	138.04
806.272	139.25
806.448	137.22
806.623	137.16
806.799	128.89
806.975	131.82
807.151	126.36
807.327	129.46
807.503	133.37
807.678	129.4
807.854	132.2
808.03	133.1
808.206	128.37
808.381	124.5
808.557	132.54
808.733	134.65
808.908	139.09
809.084	149.94
809.26	152.47
809.435	149.62
809.611	150.29
809.787	142.89
809.962	152.23
810.138	155.45
810.313	162.4
810.489	149.35
810.664	161.09
810.84	150.85
811.015	150.85
811.191	147.79
811.366	150.31
811.542	147.38
811.717	140.64
811.892	136.97
812.068	136.09
812.243	131.71
812.419	131.33
812.594	123.85
812.769	127.04
812.944	126.49
813.12	130.33
813.295	128.08
813.47	134.66
813.645	142.2
813.821	136.12
813.996	135.94
814.171	145.3
814.346	152.18
814.521	153.45
814.697	150.73
814.872	151.94
815.047	142.46
815.222	142.78
815.397	137.2
815.572	136.59
815.747	142.32
815.922	141.92
816.097	133.64
816.272	132.27
816.447	127.97
816.622	125.84
816.797	123.7
816.972	122.53
817.147	127.41
817.322	128.27
817.496	124.85
817.671	120.35
817.846	121.95
818.021	120.27
818.196	115.06
818.371	116.46
818.545	121.43
818.72	122.09
818.895	122.33
819.069	116.03
819.244	108.37
819.419	105.07
819.594	102.28
819.768	97.14
819.943	92.88
820.117	86.67
820.292	81.74
820.467	74.12
820.641	69.42
820.816	66
820.99	63.68
821.165	61.86
821.339	59.58
821.514	57.25
821.688	56.63
821.863	55.75
822.037	55.87
822.212	55.94
822.386	56.83
822.56	56.67
822.735	57.11
822.909	57.68
823.084	58.35
823.258	59.14
823.432	60.15
823.606	60.72
823.781	61.17
823.955	61.5
824.129	61.75
824.303	62.48
824.478	63.46
824.652	64.66
824.826	64.98
825	66.44
825.174	66.5
825.348	67.87
825.523	67.04
825.697	68.67
825.871	69.5
826.045	69.09
826.219	68.63
826.393	68.56
826.567	68.03
826.741	67.83
826.915	68.48
827.089	70.29
827.263	71.67
827.437	73.98
827.611	74.01
827.784	75.33
827.958	75.79
828.132	76.93
828.306	79.21
828.48	80.55
828.654	81.15
828.827	81.57
829.001	82.63
829.175	83.65
829.349	85.28
829.522	87.35
829.696	91.86
829.87	96.88
830.044	101.83
830.217	106.47
830.391	112.79
830.565	116.31
830.738	117.6
830.912	117.56
831.085	118.45
831.259	113.67
831.432	114.25
831.606	111.66
831.779	110.14
831.953	108.44
832.126	102.09
832.3	96.85
832.473	95.13
832.647	94.36
832.82	95.71
832.994	93.28
833.167	96.17
833.34	93.4
833.514	90.72
833.687	92.57
833.86	92
834.034	95.53
834.207	96.61
834.38	96.88
834.553	98.4
834.727	97.82
834.9	97.78
835.073	95.56
835.246	97.41
835.419	98.32
835.593	97.44
835.766	97.73
835.939	96.7
836.112	100.16
836.285	105.76
836.458	106.97
836.631	108.5
836.804	109.89
836.977	116.63
837.15	125.25
837.323	130.41
837.496	131.69
837.669	139.66
837.842	135.37
838.015	132.14
838.188	126.68
838.361	126.47
838.533	128.29
838.706	126.81
838.879	124.85
839.052	116.47
839.225	118.15
839.398	116.11
839.57	115.69
839.743	122
839.916	124.27
840.088	127.94
840.261	130.24
840.434	129.33
840.607	134.71
840.779	139.46
840.952	152.07
841.124	150.65
841.297	158.07
841.47	151.36
841.642	153.29
841.815	162.84
841.987	174.78
842.16	167.73
842.332	174.81
842.505	193.13
842.677	201.66
842.85	193.22
843.022	210.97
843.194	235.92
843.367	266.28
843.539	255.81
843.712	243.57
843.884	217.55
844.056	252.96
844.229	258.82
844.401	253.61
844.573	250.81
844.745	249.29
844.918	241.29
845.09	247.29
845.262	258.11
845.434	252.14
845.606	273.95
845.779	249.35
845.951	233.73
846.123	243.51
846.295	212.15
846.467	207.52
846.639	236.55
846.811	224.18
846.983	194.02
847.155	198.82
847.327	211.37
847.499	207.03
847.671	248.29
847.843	251.53
848.015	231.34
848.187	237.52
848.359	272.73
848.531	256.21
848.703	261.62
848.875	277.88
849.047	252.52
849.218	284.83
849.39	265.35
849.562	262.71
849.734	279.52
849.905	280.72
850.077	335.18
850.249	284.4
850.421	271.88
850.592	256.57
850.764	244.34
850.936	241.83
851.107	234.78
851.279	265.45
851.451	254.39
851.622	232.15
851.794	279.33
851.965	251.05
852.137	266.05
852.308	305.05
852.48	339.66
852.651	321.81
852.823	317.66
852.994	259
853.166	244.37
853.337	244.29
853.509	256.99
853.68	230.11
853.851	218.4
854.023	200.69
854.194	201.47
854.365	190.63
854.537	215.81
854.708	219.17
854.879	238.91
855.05	240.43
855.222	248.36
855.393	251.56
855.564	254.46
855.735	271.5
855.906	299.42
856.078	261.69
856.249	267.71
856.42	271.92
856.591	269.84
856.762	277.24
856.933	297.27
857.104	313.68
857.275	306.58
857.446	327.1
857.617	325.3
857.788	427.07
857.959	520.98
858.13	485.08
858.301	477.37
858.472	443.26
858.643	384.81
858.814	345.87
858.985	318.19
859.155	301.25
859.326	257.58
859.497	263.29
859.668	209.67
859.839	181.12
860.009	165.3
860.18	179.79
860.351	194.58
860.522	205.42
860.692	194.67
860.863	229.07
861.034	267.93
861.204	264.83
861.375	258.91
861.546	260.39
861.716	277.03
861.887	346
862.057	323.32
862.228	266.24
862.398	273.57
862.569	287.68
862.739	250.55
862.91	216.69
863.08	217.31
863.251	216.08
863.421	229.61
863.592	217.72
863.762	205.18
863.932	221.64
864.103	202.84
864.273	197.3
864.443	202.66
864.614	218.51
864.784	217.15
864.954	209.86
865.125	226.22
865.295	211.03
865.465	239.55
865.635	233.91
865.805	212.67
865.976	257.47
866.146	257.84
866.316	263.25
866.486	261.01
866.656	250.5
866.826	260.63
866.996	236.24
867.166	217.5
867.336	216.76
867.506	246.43
867.676	248.05
867.846	258.48
868.016	256.09
868.186	253.13
868.356	211.1
868.526	249.92
868.696	267.47
868.866	296.93
869.036	412.59
869.206	392.18
869.376	339.26
869.545	339.26
869.715	338.14
869.885	306.42
870.055	275.39
870.224	264.8
870.394	219.5
870.564	220.15
870.734	208.15
870.903	203.49
871.073	204.02
871.243	189.93
871.412	194.39
871.582	203.7
871.751	195.02
871.921	200.74
872.091	213.37
872.26	224.2
872.43	200.19
872.599	192.74
872.769	177.85
872.938	186.03
873.108	201.87
873.277	209.1
873.446	201.65
873.616	227.29
873.785	225.59
873.955	216.48
874.124	228.23
874.293	281.71
874.463	293.77
874.632	297.89
874.801	253.04
874.971	231.58
875.14	204.11
875.309	205.66
875.478	182.92
875.647	195.48
875.817	194.23
875.986	186.51
876.155	164.71
876.324	162.32
876.493	158.54
876.662	170.07
876.831	179.99
877	199.43
877.17	192.13
877.339	233.59
877.508	217.03
877.677	222.25
877.846	207.26
878.015	199.18
878.184	187.59
878.352	204.43
878.521	210.71
878.69	198.32
878.859	191.19
879.028	190.9
879.197	179.14
879.366	157.35
879.534	148.11
879.703	147.36
879.872	142.01
880.041	133.2
880.21	116.82
880.378	104.05
880.547	97.23
880.716	87.65
880.884	79.84
881.053	76.2
881.222	71.79
881.39	69.08
881.559	66.01
881.727	64.24
881.896	62.58
882.065	63.35
882.233	62.22
882.402	61.59
882.57	61.43
882.739	61.85
882.907	63.58
883.076	64.83
883.244	67.25
883.412	67.11
883.581	70.26
883.749	72.22
883.918	70.87
884.086	73.18
884.254	75.77
884.423	79.86
884.591	82.06
884.759	81.41
884.927	85.34
885.096	88.19
885.264	91.21
885.432	88.86
885.6	96.68
885.769	101.91
885.937	109.15
886.105	117.81
886.273	120.4
886.441	122.36
886.609	120.17
886.777	116.65
886.945	105.64
887.113	112.28
887.281	116.11
887.449	107.43
887.617	115.26
887.785	119.89
887.953	122.46
888.121	127.87
888.289	142.04
888.457	176.9
888.625	203.28
888.793	212.32
888.961	224.28
889.129	233.1
889.296	277.86
889.464	276.19
889.632	261.81
889.8	249.05
889.967	248.46
890.135	284.14
