Data from JASIL_3156_Reflection_1.txt Node
Date: Thu Nov 12 21:34:57 EST 2015
User: Geneva
Spectrometer: USB4E03002
Autoset integration time: false
Trigger mode: 4
Integration Time (sec): 1.000000E-1
Scans to average: 10
Electric dark correction enabled: true
Nonlinearity correction enabled: false
Boxcar width: 5
Stray light correction enabled: false
XAxis mode: Wavelengths
Stop averaging: false
Number of Pixels in Spectrum: 3648
>>>>>Begin Spectral Data<<<<<
177.575	235.8
177.794	431.76
178.014	588.08
178.233	-76.43
178.452	-14126.09
178.672	-168.67
178.891	-52.76
179.11	-150.45
179.33	-139.38
179.549	-619.61
179.768	1045.14
179.987	1005.86
180.207	-371.3
180.426	-155.43
180.645	-58.12
180.864	-74.28
181.084	-54.58
181.303	-37.89
181.522	-8.92
181.741	6.09
181.96	6.83
182.179	-3.99
182.398	-0.5
182.618	1.63
182.837	-6.05
183.056	2.76
183.275	-25.35
183.494	-16.98
183.713	-46.18
183.932	-97.55
184.151	-97.03
184.37	-178.09
184.589	-78.59
184.808	-71.17
185.027	-84.47
185.246	-105.56
185.465	-134.48
185.684	-123.61
185.903	-271.8
186.122	-128.77
186.341	-91.4
186.56	-98.07
186.779	7.52
186.998	-24.97
187.216	-89.92
187.435	-193.14
187.654	-115.53
187.873	-165.19
188.092	-45.34
188.311	-27.34
188.53	-54.45
188.748	-68.89
188.967	-164.75
189.186	-233.05
189.405	-127.03
189.623	-118.81
189.842	-65.86
190.061	-88.34
190.28	-70.93
190.498	-121.91
190.717	-87.54
190.936	-44.92
191.154	-41.32
191.373	17.56
191.592	13.35
191.81	9.86
192.029	10.39
192.248	32.85
192.466	36.56
192.685	59.86
192.904	48.2
193.122	46.62
193.341	86.21
193.559	101.3
193.778	126.68
193.996	163.25
194.215	94.12
194.433	139.64
194.652	62.62
194.87	-6.82
195.089	-43.8
195.307	-24.85
195.526	-29.26
195.744	-36.69
195.963	-17.58
196.181	-6.71
196.399	-13.48
196.618	5.95
196.836	17.99
197.055	0.33
197.273	28.95
197.491	2.17
197.71	-139.77
197.928	-37.8
198.146	-56.22
198.365	-2238.56
198.583	487.79
198.801	457.4
199.019	153.58
199.238	182.34
199.456	347.04
199.674	206.58
199.892	246.6
200.111	1316.24
200.329	3859.13
200.547	328.4
200.765	1090.4
200.983	-1589.45
201.202	-646.34
201.42	-249.13
201.638	-315.3
201.856	-286.53
202.074	-96.03
202.292	-384.67
202.51	-176.35
202.728	-160.38
202.946	-139.33
203.165	-124.18
203.383	-94.04
203.601	-88.46
203.819	-42.22
204.037	-11.94
204.255	-48.32
204.473	-33.83
204.691	-0.87
204.909	-45.85
205.127	-36
205.345	-35.42
205.562	-4.13
205.78	-31.21
205.998	-17.77
206.216	-51.98
206.434	-89.74
206.652	-39.37
206.87	-64.25
207.088	5.17
207.306	0.48
207.523	12.46
207.741	24.41
207.959	1.41
208.177	38.67
208.395	24.49
208.612	-61.91
208.83	-529.67
209.048	180.55
209.266	-6332.14
209.483	147.9
209.701	154.38
209.919	-1685.28
210.136	218.49
210.354	218.31
210.572	-10385.19
210.79	-5696.21
211.007	1234.65
211.225	-235.69
211.442	-256.69
211.66	-233.19
211.878	-221.67
212.095	72.13
212.313	67.26
212.53	80.3
212.748	93.04
212.966	103.09
213.183	113.38
213.401	111.43
213.618	112.66
213.836	103.17
214.053	94.69
214.271	89.11
214.488	-24
214.705	-37.28
214.923	-71.69
215.14	-47.93
215.358	-50.05
215.575	-64.96
215.793	-72.8
216.01	-22.14
216.227	-109.06
216.445	-367.45
216.662	-93.41
216.879	-47.55
217.097	-65.2
217.314	-298.76
217.531	-723.18
217.749	-708.95
217.966	-205.27
218.183	-100.96
218.4	-75.74
218.618	-146.9
218.835	-148.18
219.052	-271.12
219.269	-856.67
219.487	-271.87
219.704	-105.95
219.921	-42.4
220.138	-41.97
220.355	-42.19
220.572	-118.31
220.79	-321.82
221.007	-142.54
221.224	-55.85
221.441	-56.94
221.658	-68.55
221.875	-100.37
222.092	-44.04
222.309	-445.94
222.526	-203.25
222.743	-179.69
222.96	-129
223.177	-104.69
223.394	-79.88
223.611	-448.69
223.828	-201.89
224.045	-1780.27
224.262	364.3
224.479	191.49
224.696	348.61
224.913	212.42
225.13	263.69
225.347	239.5
225.564	153.12
225.781	167.45
225.997	144.28
226.214	104.86
226.431	126.1
226.648	169.76
226.865	93.44
227.082	12.69
227.298	41
227.515	58.07
227.732	34.54
227.949	26.32
228.165	9.12
228.382	20.39
228.599	15.54
228.816	8.63
229.032	8.81
229.249	22.54
229.466	32.85
229.682	21.83
229.899	14.65
230.116	25.36
230.332	30.07
230.549	42.44
230.765	46.26
230.982	44.54
231.199	56.46
231.415	54.67
231.632	46.25
231.848	37.76
232.065	54.83
232.281	59.81
232.498	51.28
232.714	52.83
232.931	31.38
233.147	22.03
233.364	21.7
233.58	12.92
233.797	16.23
234.013	28.88
234.23	37.25
234.446	5.81
234.662	-13.16
234.879	-13.47
235.095	-13.24
235.312	26.18
235.528	69
235.744	74.42
235.961	87.15
236.177	69.88
236.393	79.61
236.61	52.42
236.826	73.39
237.042	53.87
237.258	85.6
237.475	106.09
237.691	95.16
237.907	98.89
238.123	108.13
238.339	90.38
238.556	67.74
238.772	71.5
238.988	88.79
239.204	70.99
239.42	67.99
239.636	47.4
239.853	52.47
240.069	45.9
240.285	32.62
240.501	26.76
240.717	27.73
240.933	31.66
241.149	33.88
241.365	18.61
241.581	20.4
241.797	17.66
242.013	20.66
242.229	17.38
242.445	18.47
242.661	16.68
242.877	18.49
243.093	24.71
243.309	19.99
243.525	20.57
243.741	29.43
243.957	26.29
244.173	32.42
244.388	27.38
244.604	28.97
244.82	26.07
245.036	27.78
245.252	25.66
245.468	23.33
245.683	24.85
245.899	19.67
246.115	18.84
246.331	21.1
246.547	19.69
246.762	17.71
246.978	14.95
247.194	15.22
247.409	15.89
247.625	16.89
247.841	13
248.057	7.72
248.272	9.92
248.488	11.18
248.703	8.39
248.919	7.96
249.135	14.32
249.35	15.29
249.566	17.95
249.782	14.06
249.997	7.97
250.213	8.53
250.428	11.19
250.644	0.84
250.859	-0.32
251.075	2.99
251.29	10.39
251.506	0.89
251.721	0.64
251.937	0.98
252.152	1.36
252.368	-0.16
252.583	0.87
252.798	3.58
253.014	7.27
253.229	0.02
253.445	-0.79
253.66	-2.1
253.875	-2.93
254.091	-3.16
254.306	0.81
254.521	-0.79
254.737	15.37
254.952	10.86
255.167	16.08
255.383	23.7
255.598	40.5
255.813	36.33
256.028	40.71
256.244	37.02
256.459	38.64
256.674	35.16
256.889	32.62
257.104	25.74
257.32	27.89
257.535	27.53
257.75	17.66
257.965	16.62
258.18	17.11
258.395	11.91
258.61	16.2
258.826	16.46
259.041	15.46
259.256	14.85
259.471	15.5
259.686	13.04
259.901	12.38
260.116	17.84
260.331	14.72
260.546	17.49
260.761	18.66
260.976	16.33
261.191	16.5
261.406	17.49
261.621	15.51
261.836	13.83
262.05	17.68
262.265	16.92
262.48	19.01
262.695	20.88
262.91	15.63
263.125	16.55
263.34	18.96
263.555	16.99
263.769	11.12
263.984	17.58
264.199	20.62
264.414	19.64
264.629	19.32
264.843	13.55
265.058	11.61
265.273	10.78
265.488	8.68
265.702	5.6
265.917	5.63
266.132	1.02
266.346	1.33
266.561	-1.08
266.776	-1.24
266.99	-2.81
267.205	-0.38
267.42	0.72
267.634	3.63
267.849	7.99
268.063	9.22
268.278	9.27
268.492	13.84
268.707	13.82
268.922	11.19
269.136	10.34
269.351	16.46
269.565	14.03
269.78	14.29
269.994	10.97
270.209	8.86
270.423	7.71
270.637	9.57
270.852	13.36
271.066	11.08
271.281	11.73
271.495	7.96
271.709	1.24
271.924	-0.29
272.138	-1.35
272.353	0.14
272.567	0.63
272.781	1.75
272.996	-1.16
273.21	-5.76
273.424	-4.65
273.638	-1.38
273.853	2.71
274.067	5.16
274.281	8.68
274.495	7.88
274.71	9.36
274.924	9.63
275.138	12.55
275.352	9.26
275.566	10.02
275.781	9.59
275.995	9.71
276.209	7.34
276.423	6.72
276.637	4.73
276.851	8.85
277.065	2.54
277.279	1.87
277.493	-3.67
277.707	0.54
277.921	4.81
278.135	6
278.349	8.04
278.563	9.35
278.777	8.21
278.991	8.64
279.205	5.68
279.419	8.26
279.633	5.06
279.847	7.07
280.061	9.4
280.275	10.08
280.489	7.65
280.703	0.35
280.917	3.3
281.131	3.18
281.344	3.52
281.558	7.27
281.772	7.95
281.986	8.36
282.2	9.03
282.414	9.32
282.627	7
282.841	9.54
283.055	14.35
283.269	11.72
283.482	13.07
283.696	11.13
283.91	10.41
284.123	7.52
284.337	10.31
284.551	7.35
284.764	6.67
284.978	7.71
285.192	8.56
285.405	7.61
285.619	10.04
285.833	12.9
286.046	15.1
286.26	13.64
286.473	15.84
286.687	14.54
286.9	17.69
287.114	16.34
287.327	15.18
287.541	14.43
287.754	14.56
287.968	10.01
288.181	7.25
288.395	3.71
288.608	6.2
288.822	5.81
289.035	6.02
289.248	5.58
289.462	5.87
289.675	7.22
289.889	8.3
290.102	9.25
290.315	12.44
290.529	12.87
290.742	14.72
290.955	13.66
291.169	15.57
291.382	15.49
291.595	15.73
291.808	17.08
292.022	16.23
292.235	14.46
292.448	12.1
292.661	11.62
292.875	8.78
293.088	10.92
293.301	11.86
293.514	9.45
293.727	7.11
293.94	5.67
294.153	6.52
294.367	6.18
294.58	7.29
294.793	8.06
295.006	7.33
295.219	10.11
295.432	8.82
295.645	5.86
295.858	7.95
296.071	7.24
296.284	8.49
296.497	8.94
296.71	8.71
296.923	8.35
297.136	7.48
297.349	7.4
297.562	7.66
297.775	6.1
297.988	8.07
298.201	6.98
298.414	9.88
298.626	10.26
298.839	9.41
299.052	13.7
299.265	14.12
299.478	17.11
299.691	19.28
299.903	18.45
300.116	21.55
300.329	22.64
300.542	22.51
300.755	21.1
300.967	20.58
301.18	21.41
301.393	17.43
301.605	16.58
301.818	13.87
302.031	11.33
302.243	10.76
302.456	9.25
302.669	8.86
302.881	7.5
303.094	6.82
303.307	6.65
303.519	3.93
303.732	4.2
303.944	3.35
304.157	2.49
304.37	4.06
304.582	5.49
304.795	3.76
305.007	3.57
305.22	5.93
305.432	8.08
305.645	9.41
305.857	12.5
306.069	12.67
306.282	14.02
306.494	16.98
306.707	17.25
306.919	17.76
307.132	18.83
307.344	16.12
307.556	16.16
307.769	14.69
307.981	11.32
308.193	10.83
308.406	10.79
308.618	9.57
308.83	9.55
309.043	11.05
309.255	9.57
309.467	7.24
309.679	8.27
309.892	8.2
310.104	8.74
310.316	9.42
310.528	7.85
310.74	7.88
310.953	7.25
311.165	6.15
311.377	6.71
311.589	5.85
311.801	8.44
312.013	9.63
312.225	10.87
312.437	10.69
312.649	9.33
312.862	11.29
313.074	11.19
313.286	13.39
313.498	15.45
313.71	11.22
313.922	13.76
314.134	12.14
314.346	10.57
314.558	10.47
314.77	11.74
314.982	14.11
315.193	12.53
315.405	12.22
315.617	14.37
315.829	12.16
316.041	13.65
316.253	15.29
316.465	16.23
316.677	16.97
316.888	18.5
317.1	21.03
317.312	17.68
317.524	18.94
317.736	18.33
317.947	13.83
318.159	14.8
318.371	16.33
318.583	14.3
318.794	14.51
319.006	13.78
319.218	11.84
319.43	9.03
319.641	12.9
319.853	14.54
320.064	17.17
320.276	20.18
320.488	20.14
320.699	20.2
320.911	22.01
321.123	20.01
321.334	19.1
321.546	18.18
321.757	18.4
321.969	18.66
322.18	15.26
322.392	14.8
322.603	13.67
322.815	13.38
323.026	11.35
323.238	8.45
323.449	12.79
323.661	12.41
323.872	13.06
324.083	11.89
324.295	12.91
324.506	15.64
324.718	12.19
324.929	12.47
325.14	13.33
325.352	11.23
325.563	12.57
325.774	11.3
325.986	13.75
326.197	13.09
326.408	13.68
326.62	12.47
326.831	7.87
327.042	10.35
327.253	10.71
327.464	10.62
327.676	14.24
327.887	14.48
328.098	12.82
328.309	12.31
328.52	14.96
328.732	14.6
328.943	12.29
329.154	16.33
329.365	14.45
329.576	14.7
329.787	17.41
329.998	19.34
330.209	18.62
330.42	22.53
330.631	21.66
330.842	18.66
331.053	20.29
331.264	22.22
331.475	21.99
331.686	22.7
331.897	23.05
332.108	18.04
332.319	17.25
332.53	15.66
332.741	12.6
332.952	14.59
333.163	13.4
333.374	13.32
333.585	10.97
333.795	9.96
334.006	8.94
334.217	9.95
334.428	11.96
334.639	9.6
334.849	13.19
335.06	15.84
335.271	14.89
335.482	16.56
335.692	15.52
335.903	17.85
336.114	18.06
336.325	21.24
336.535	19.07
336.746	17.86
336.957	17.1
337.167	15.76
337.378	11.43
337.589	11.96
337.799	10.89
338.01	11.22
338.22	10.63
338.431	12.3
338.642	10.15
338.852	12.17
339.063	12.32
339.273	12.02
339.484	12.38
339.694	17.79
339.905	15.87
340.115	14.89
340.326	14.58
340.536	14.59
340.746	11.21
340.957	12.95
341.167	11.94
341.378	13.17
341.588	14.47
341.799	11.61
342.009	6.99
342.219	8.55
342.43	10.71
342.64	11.57
342.85	9.83
343.061	10.76
343.271	9.01
343.481	7.52
343.691	4.88
343.902	5.17
344.112	6.99
344.322	8.32
344.532	7.43
344.743	6.97
344.953	7.34
345.163	9.57
345.373	10.19
345.583	8.75
345.793	11.01
346.004	12.9
346.214	12.79
346.424	12.97
346.634	13.26
346.844	13.22
347.054	15.07
347.264	13.27
347.474	12.93
347.684	13.1
347.894	13.1
348.104	12.49
348.314	12.92
348.524	12.26
348.734	14.4
348.944	16.27
349.154	16.08
349.364	14.24
349.574	16.47
349.784	17.02
349.994	17.64
350.204	19.73
350.413	18.52
350.623	17.49
350.833	18.03
351.043	16.15
351.253	14.48
351.463	14.58
351.672	14.67
351.882	13.29
352.092	10.46
352.302	9.43
352.511	7.32
352.721	6.63
352.931	7.74
353.141	8.62
353.35	9.3
353.56	9.02
353.77	9.89
353.979	8.44
354.189	8.04
354.399	9.21
354.608	7.88
354.818	9.3
355.027	11.09
355.237	10.51
355.447	8.51
355.656	7.14
355.866	6.52
356.075	5.79
356.285	7.33
356.494	7.44
356.704	8.69
356.913	10.6
357.123	10.41
357.332	10.14
357.542	10.67
357.751	12.07
357.96	12.35
358.17	13.02
358.379	15.8
358.589	16.04
358.798	15.15
359.007	15.01
359.217	16.06
359.426	16.7
359.635	16.33
359.845	15.76
360.054	14.95
360.263	15
360.472	15
360.682	12.49
360.891	12.35
361.1	13.28
361.309	13.9
361.519	12.44
361.728	11.5
361.937	11.3
362.146	11.18
362.355	12.44
362.564	13.08
362.774	12.74
362.983	13
363.192	12.2
363.401	11.77
363.61	9.85
363.819	8.81
364.028	9.31
364.237	10.18
364.446	9.55
364.655	7.57
364.864	6.38
365.073	7.4
365.282	7.31
365.491	7.83
365.7	8.51
365.909	9.65
366.118	10.99
366.327	10.84
366.536	10.63
366.745	11.53
366.954	11.37
367.162	11.77
367.371	10.96
367.58	11.88
367.789	13.54
367.998	11.94
368.207	12.19
368.415	12.45
368.624	12.25
368.833	11.26
369.042	10.39
369.25	11.41
369.459	11.25
369.668	11.5
369.877	11.48
370.085	10.26
370.294	10.53
370.503	9.97
370.711	10.05
370.92	10.71
371.129	12.45
371.337	12.99
371.546	13.38
371.754	13.55
371.963	12.88
372.171	12.65
372.38	11.63
372.589	11.69
372.797	11.79
373.006	9.96
373.214	9.17
373.423	8.77
373.631	8.96
373.84	9.38
374.048	10.38
374.256	10.86
374.465	10.3
374.673	10.58
374.882	11.4
375.09	10.93
375.298	12.47
375.507	14.82
375.715	15.49
375.923	15.52
376.132	14.16
376.34	13.63
376.548	12.96
376.757	12.74
376.965	13.93
377.173	13.87
377.381	13.93
377.59	14.09
377.798	11.63
378.006	10.1
378.214	9.97
378.423	10.47
378.631	11.02
378.839	11.77
379.047	12.63
379.255	11.86
379.463	13.18
379.671	11.8
379.879	11.47
380.088	12.38
380.296	12.64
380.504	12.03
380.712	12.39
380.92	11.18
381.128	11.44
381.336	11.92
381.544	10.88
381.752	9.74
381.96	10.84
382.168	10.95
382.376	10.82
382.584	11.27
382.791	11.55
382.999	11.46
383.207	12.22
383.415	13.35
383.623	12.34
383.831	13.45
384.039	13.47
384.247	14.08
384.454	14.55
384.662	14.66
384.87	15.6
385.078	14.94
385.285	13.97
385.493	12.36
385.701	11.21
385.909	12.19
386.116	12.76
386.324	12.23
386.532	12.29
386.739	11.66
386.947	10.29
387.155	8.48
387.362	8.62
387.57	9.43
387.778	10.26
387.985	10.55
388.193	8.65
388.4	7.37
388.608	7.03
388.816	5.13
389.023	4.46
389.231	5.51
389.438	5.27
389.646	4.82
389.853	4.36
390.061	4.34
390.268	2.66
390.475	4.98
390.683	5.95
390.89	5.67
391.098	7.63
391.305	8.03
391.512	7.99
391.72	7.73
391.927	8.5
392.135	7.93
392.342	8.3
392.549	9.03
392.756	8.2
392.964	8.36
393.171	7.87
393.378	7.19
393.586	7.22
393.793	6.73
394	7.3
394.207	7.66
394.414	8.42
394.622	8.26
394.829	7.7
395.036	6.97
395.243	5.45
395.45	5.92
395.657	6.4
395.864	6.7
396.072	6.62
396.279	6.67
396.486	5.19
396.693	4.72
396.9	4.78
397.107	5.29
397.314	5.94
397.521	6.01
397.728	6.62
397.935	5.34
398.142	3.84
398.349	5.02
398.556	5.2
398.763	6.93
398.97	6.71
399.177	6.5
399.383	7.48
399.59	7.17
399.797	7.51
400.004	7.56
400.211	8.79
400.418	9.51
400.625	8.49
400.831	8.34
401.038	7.73
401.245	7.91
401.452	7.94
401.658	7.65
401.865	7.91
402.072	7.97
402.279	7.82
402.485	5.87
402.692	6.77
402.899	6.12
403.105	6.77
403.312	7.2
403.519	6.49
403.725	6.46
403.932	5.66
404.138	4.93
404.345	5.34
404.552	4.97
404.758	5.83
404.965	5.03
405.171	5.71
405.378	4.49
405.584	4.25
405.791	5.28
405.997	4.13
406.204	3.61
406.41	3.07
406.617	2.63
406.823	2.72
407.029	3.37
407.236	3.26
407.442	3.25
407.649	2.77
407.855	2.59
408.061	1.87
408.268	3.66
408.474	5.67
408.68	6.72
408.887	7.72
409.093	8.48
409.299	7.13
409.505	7.91
409.712	7.32
409.918	8.21
410.124	7.89
410.33	8.48
410.537	8.12
410.743	7.94
410.949	7.4
411.155	6.97
411.361	6.84
411.567	8.31
411.773	8.28
411.98	9.19
412.186	8.87
412.392	9.1
412.598	8.58
412.804	8.7
413.01	7.4
413.216	8.22
413.422	7.83
413.628	7.19
413.834	6.15
414.04	5.97
414.246	6.64
414.452	6.99
414.658	7.28
414.864	6.59
415.07	6.42
415.275	6.23
415.481	6
415.687	5.25
415.893	5.28
416.099	6.45
416.305	5.77
416.511	5.13
416.716	4.72
416.922	4.18
417.128	4.38
417.334	4.25
417.539	4.33
417.745	4.62
417.951	5.59
418.157	5.79
418.362	4.9
418.568	5.07
418.774	5.62
418.979	5.21
419.185	5.61
419.391	6.07
419.596	5.97
419.802	6.3
420.008	6.04
420.213	1.27
420.419	1.05
420.624	1.25
420.83	1.46
421.035	1.25
421.241	2.1
421.446	1.47
421.652	1.2
421.857	1.27
422.063	0.99
422.268	1.01
422.474	5.02
422.679	5.18
422.885	5.44
423.09	5.41
423.295	5.4
423.501	5.12
423.706	5.44
423.911	5.65
424.117	5.59
424.322	5.61
424.527	5.49
424.733	5.84
424.938	5.86
425.143	5.29
425.349	5.29
425.554	5.1
425.759	5.32
425.964	5.48
426.169	5.91
426.375	6.18
426.58	6.63
426.785	6.96
426.99	6.48
427.195	6.78
427.4	7.7
427.605	7.41
427.811	8.19
428.016	8.15
428.221	7.61
428.426	7.06
428.631	6.5
428.836	6.63
429.041	6.68
429.246	6.87
429.451	6.51
429.656	6.69
429.861	6.68
430.066	6.2
430.271	5.9
430.476	6.22
430.681	6.33
430.886	6.91
431.09	6.91
431.295	6.68
431.5	6.41
431.705	6.66
431.91	6.53
432.115	7.28
432.32	7
432.524	6.85
432.729	6.79
432.934	6.36
433.139	6.09
433.343	5.63
433.548	5.22
433.753	5.17
433.958	5.63
434.162	5.18
434.367	4.79
434.572	4.63
434.776	4.52
434.981	4.72
435.186	5.53
435.39	5.41
435.595	5.21
435.799	5.93
436.004	5.78
436.209	5.19
436.413	5.23
436.618	5.02
436.822	5.01
437.027	4.84
437.231	5.29
437.436	4.68
437.64	4.06
437.845	4.56
438.049	4.2
438.253	4.63
438.458	4.61
438.662	4.39
438.867	4.51
439.071	4.47
439.275	4.73
439.48	4.24
439.684	4.29
439.888	5.1
440.093	4.76
440.297	4.83
440.501	5.13
440.706	4.49
440.91	4.45
441.114	4.03
441.318	3.95
441.523	4.1
441.727	4.3
441.931	5.09
442.135	5.15
442.339	5.23
442.543	5.81
442.748	5.47
442.952	5.96
443.156	6.32
443.36	6.76
443.564	7.08
443.768	6.97
443.972	6.22
444.176	5.96
444.38	5.93
444.584	6.06
444.788	5.62
444.992	5.45
445.196	5.47
445.4	5.47
445.604	5.35
445.808	5.12
446.012	5.17
446.216	5.5
446.42	5.13
446.624	4.75
446.828	4.51
447.032	4.58
447.235	5
447.439	5.16
447.643	5.1
447.847	4.82
448.051	4.64
448.254	4.62
448.458	4.98
448.662	5.18
448.866	5.56
449.069	5.67
449.273	5.76
449.477	5.6
449.681	5.32
449.884	4.97
450.088	5.2
450.292	5.77
450.495	5.93
450.699	5.7
450.902	5.69
451.106	5.69
451.31	6.07
451.513	5.24
451.717	5.23
451.92	5.47
452.124	6.12
452.327	6.33
452.531	6.08
452.734	6.09
452.938	6.06
453.141	5.69
453.345	5.66
453.548	5.54
453.752	6.24
453.955	6.03
454.158	6.06
454.362	5.04
454.565	5.7
454.769	5.79
454.972	5.49
455.175	5.26
455.379	5.6
455.582	5.78
455.785	5.39
455.988	5.32
456.192	5.37
456.395	5.26
456.598	6.18
456.801	5.93
457.005	5.49
457.208	6.03
457.411	6.27
457.614	6.06
457.817	5.57
458.021	5.49
458.224	5.16
458.427	5.04
458.63	4.74
458.833	4.62
459.036	4.29
459.239	4.42
459.442	3.88
459.645	3.79
459.848	4.08
460.051	4.25
460.254	4.73
460.457	4.82
460.66	4.76
460.863	5.56
461.066	5.49
461.269	5.72
461.472	5.5
461.675	5.92
461.878	6.37
462.081	6.33
462.284	6.41
462.486	5.97
462.689	5.81
462.892	6.25
463.095	5.52
463.298	5.37
463.5	5.01
463.703	5.49
463.906	5.79
464.109	5.09
464.311	5
464.514	4.52
464.717	4.63
464.92	5.39
465.122	5.56
465.325	6.07
465.528	6.74
465.73	7.02
465.933	6.82
466.135	6.13
466.338	6.69
466.541	6.44
466.743	6.94
466.946	6.64
467.148	6.18
467.351	6.19
467.553	5.51
467.756	4.44
467.958	4.13
468.161	4.72
468.363	4.78
468.566	4.2
468.768	4.26
468.971	4.54
469.173	5.36
469.375	5.73
469.578	4.89
469.78	5.1
469.983	5.75
470.185	5.96
470.387	5.79
470.59	6.4
470.792	6.03
470.994	6.02
471.196	4.8
471.399	3.65
471.601	3.2
471.803	3.92
472.005	4.41
472.208	4.2
472.41	3.86
472.612	3.51
472.814	2.9
473.016	3.18
473.218	3.28
473.421	4.03
473.623	4.72
473.825	5.25
474.027	4.96
474.229	4.91
474.431	5.15
474.633	5.29
474.835	5.69
475.037	5.67
475.239	5.95
475.441	5.94
475.643	5.5
475.845	4.78
476.047	4.5
476.249	4.15
476.451	4.33
476.653	4.36
476.855	4.65
477.057	4.15
477.258	4.4
477.46	4.46
477.662	4.61
477.864	5.29
478.066	5.55
478.268	5.62
478.469	5.84
478.671	5.4
478.873	5.42
479.075	5.37
479.276	5.9
479.478	5.84
479.68	5.52
479.882	5.24
480.083	5.03
480.285	4.98
480.487	4.83
480.688	5.01
480.89	5.01
481.091	4.86
481.293	4.84
481.495	4.72
481.696	4.72
481.898	4.99
482.099	5
482.301	4.97
482.502	5.25
482.704	5.51
482.905	5.45
483.107	5.39
483.308	5.35
483.51	5.32
483.711	5.27
483.913	5.35
484.114	5.31
484.315	5.42
484.517	5.49
484.718	5.31
484.92	5.15
485.121	5.1
485.322	5.17
485.524	5.29
485.725	5.33
485.926	5.27
486.127	5.24
486.329	5.26
486.53	5.23
486.731	5.05
486.932	5.15
487.134	5.07
487.335	5.01
487.536	5.03
487.737	5.13
487.938	5.07
488.139	5.02
488.341	4.82
488.542	4.77
488.743	4.77
488.944	4.81
489.145	4.68
489.346	4.62
489.547	4.68
489.748	4.69
489.949	4.63
490.15	4.7
490.351	4.99
490.552	5.23
490.753	5.15
490.954	5.07
491.155	5.17
491.356	5.15
491.557	5.21
491.758	5.26
491.959	5.27
492.159	5.2
492.36	5.14
492.561	5.03
492.762	4.74
492.963	4.92
493.164	5.03
493.364	4.97
493.565	5.18
493.766	5.43
493.967	5.78
494.167	5.75
494.368	5.94
494.569	5.84
494.769	5.9
494.97	6.05
495.171	5.94
495.371	5.57
495.572	5.53
495.773	5.69
495.973	5.7
496.174	5.26
496.375	5.53
496.575	5.83
496.776	5.99
496.976	5.91
497.177	6.09
497.377	5.96
497.578	6.06
497.778	6.16
497.979	5.85
498.179	5.67
498.38	5.84
498.58	5.45
498.78	5.28
498.981	5.42
499.181	5.58
499.382	5.56
499.582	5.9
499.782	6.01
499.983	5.67
500.183	6.22
500.383	6.1
500.584	6.06
500.784	6.02
500.984	6
501.184	5.58
501.385	5.46
501.585	5.61
501.785	5.5
501.985	5.98
502.185	5.85
502.386	5.7
502.586	5.95
502.786	6.23
502.986	6.42
503.186	5.91
503.386	5.94
503.586	5.43
503.786	5.6
503.987	5.72
504.187	5.56
504.387	6.18
504.587	6.18
504.787	6.32
504.987	6.14
505.187	6.39
505.387	6.89
505.587	7.17
505.786	7.41
505.986	7.17
506.186	6.92
506.386	6.45
506.586	6.33
506.786	6.49
506.986	6.59
507.186	6.77
507.386	6.47
507.585	6.32
507.785	6.61
507.985	7
508.185	6.55
508.384	6.73
508.584	6.66
508.784	6.8
508.984	6.58
509.183	6.19
509.383	6.33
509.583	6.5
509.782	6.64
509.982	6.56
510.182	6.75
510.381	6.91
510.581	6.61
510.781	7.02
510.98	7.24
511.18	7.26
511.379	7.3
511.579	6.98
511.778	7.27
511.978	7.46
512.177	7.62
512.377	7.03
512.576	7.56
512.776	7.83
512.975	7.84
513.175	7.51
513.374	7.7
513.573	7.95
513.773	7.95
513.972	7.98
514.172	8.01
514.371	8.05
514.57	8.75
514.77	8.36
514.969	8.71
515.168	8.61
515.367	9
515.567	8.97
515.766	9.09
515.965	9.05
516.164	8.86
516.364	8.35
516.563	8.31
516.762	8.27
516.961	8.68
517.16	8.5
517.359	8.71
517.559	8.53
517.758	8.5
517.957	8.78
518.156	9.35
518.355	9.81
518.554	10.16
518.753	10.22
518.952	10.15
519.151	10.21
519.35	10.4
519.549	10.38
519.748	10.5
519.947	10.55
520.146	10.45
520.345	10.24
520.544	9.97
520.743	10.04
520.942	10.04
521.141	10.09
521.339	10.06
521.538	9.99
521.737	10.11
521.936	10.66
522.135	10.91
522.333	11.04
522.532	11.23
522.731	11.19
522.93	11.34
523.129	11.21
523.327	11.71
523.526	11.72
523.725	11.78
523.923	11.66
524.122	11.18
524.321	11.35
524.519	11.41
524.718	11.25
524.917	11.25
525.115	11.02
525.314	11.2
525.512	11.06
525.711	11.32
525.909	11.58
526.108	11.79
526.306	11.94
526.505	12.13
526.703	11.82
526.902	11.94
527.1	12.06
527.299	12.3
527.497	12.43
527.696	12.49
527.894	12.46
528.092	12.45
528.291	12.68
528.489	12.74
528.688	12.65
528.886	13.03
529.084	13.12
529.283	13.28
529.481	13.37
529.679	13.34
529.877	13.25
530.076	13.16
530.274	13.19
530.472	12.99
530.67	13.2
530.869	13.08
531.067	12.87
531.265	13.11
531.463	13.21
531.661	13.31
531.859	13.41
532.057	13.57
532.255	13.84
532.454	14.06
532.652	13.98
532.85	14.09
533.048	14.46
533.246	14.67
533.444	14.58
533.642	14.48
533.84	14.75
534.038	14.68
534.236	14.86
534.434	14.98
534.632	15.1
534.83	15.62
535.027	15.73
535.225	15.69
535.423	15.46
535.621	15.69
535.819	15.86
536.017	15.62
536.215	16
536.412	16.32
536.61	16.16
536.808	16.29
537.006	16.19
537.203	16.31
537.401	16.29
537.599	16.74
537.797	16.75
537.994	16.81
538.192	17.07
538.39	17.07
538.587	17
538.785	17.06
538.983	17
539.18	17.25
539.378	16.98
539.575	17.02
539.773	16.93
539.97	16.93
540.168	17.18
540.366	16.95
540.563	17.06
540.761	16.94
540.958	17.01
541.155	16.95
541.353	16.75
541.55	16.73
541.748	16.75
541.945	16.67
542.143	16.67
542.34	16.47
542.537	16.63
542.735	16.39
542.932	16.42
543.129	16.56
543.327	16.87
543.524	16.62
543.721	16.7
543.919	16.66
544.116	16.87
544.313	16.65
544.51	16.56
544.708	16.63
544.905	16.81
545.102	16.87
545.299	16.8
545.496	16.45
545.693	16.81
545.891	17.2
546.088	17.33
546.285	17.52
546.482	17.66
546.679	17.65
546.876	17.8
547.073	18.06
547.27	17.91
547.467	17.97
547.664	18.24
547.861	18.35
548.058	18.45
548.255	18.65
548.452	18.81
548.649	19.49
548.846	19.98
549.043	19.89
549.24	19.79
549.437	20.59
549.633	20.95
549.83	20.75
550.027	21.15
550.224	21.01
550.421	21.04
550.618	21.24
550.814	20.87
551.011	20.78
551.208	20.88
551.405	21.27
551.601	20.7
551.798	20.63
551.995	20.75
552.191	20.22
552.388	19.96
552.585	19.78
552.781	19.7
552.978	19.36
553.175	19.45
553.371	19.65
553.568	19.73
553.764	19.82
553.961	19.57
554.157	19.47
554.354	19.94
554.55	20.2
554.747	21.06
554.943	20.95
555.14	21.1
555.336	21.05
555.533	20.67
555.729	20.44
555.926	21.06
556.122	21.62
556.318	22.01
556.515	22.11
556.711	21.8
556.907	21
557.104	21.4
557.3	22.31
557.496	22.65
557.693	22.96
557.889	22.53
558.085	22.3
558.281	22.46
558.478	22.21
558.674	21.93
558.87	22.94
559.066	22.94
559.262	22.74
559.459	22.73
559.655	22.77
559.851	22.13
560.047	22.07
560.243	21.82
560.439	21.64
560.635	22.29
560.831	22.79
561.027	22.48
561.223	22.64
561.419	22.6
561.615	22.24
561.811	22.13
562.007	23.2
562.203	23.63
562.399	23.81
562.595	23.8
562.791	23.73
562.987	24.09
563.183	24.23
563.379	24.33
563.575	24.16
563.771	23.91
563.966	23.58
564.162	22.85
564.358	23.17
564.554	23.53
564.75	23.67
564.945	23.21
565.141	22.45
565.337	22.55
565.533	22.48
565.728	22.49
565.924	22.89
566.12	22.97
566.315	22.77
566.511	22.58
566.707	22.19
566.902	21.94
567.098	22.47
567.293	22.79
567.489	22.5
567.684	22.72
567.88	22.86
568.076	22.65
568.271	22.87
568.467	23.59
568.662	23.61
568.858	23.96
569.053	24.06
569.248	23.58
569.444	23.57
569.639	23.29
569.835	22.93
570.03	22.98
570.225	23.3
570.421	23.14
570.616	23.24
570.812	23.34
571.007	23.06
571.202	22.54
571.397	22.6
571.593	22.28
571.788	22.55
571.983	22.72
572.178	22.59
572.374	22.4
572.569	22.6
572.764	22.24
572.959	22.18
573.154	22.55
573.35	23.64
573.545	23.62
573.74	24.33
573.935	24.33
574.13	24.01
574.325	23.88
574.52	23.67
574.715	24.08
574.91	24.32
575.105	24.02
575.3	24.04
575.495	23.74
575.69	24.06
575.885	23.46
576.08	22.52
576.275	23.17
576.47	23.79
576.665	24.3
576.86	23.7
577.055	23.67
577.25	24.35
577.444	23.95
577.639	23.92
577.834	23.68
578.029	24.91
578.224	26.3
578.418	26.99
578.613	26.39
578.808	26.49
579.003	26.51
579.197	27.25
579.392	26.49
579.587	27.03
579.781	26.63
579.976	26.92
580.171	26.51
580.365	26.11
580.56	25.8
580.755	25.79
580.949	25.43
581.144	25.88
581.338	24.89
581.533	25.51
581.727	24.57
581.922	24.89
582.116	24.8
582.311	24.45
582.505	23.97
582.7	23.66
582.894	23.4
583.089	22.99
583.283	22.69
583.478	22.88
583.672	23.21
583.866	23.89
584.061	23.66
584.255	24.05
584.449	24
584.644	24.45
584.838	24.28
585.032	25.03
585.226	25.6
585.421	25.68
585.615	26.04
585.809	25.51
586.003	25.76
586.198	26.1
586.392	25.97
586.586	26.26
586.78	27.12
586.974	26.54
587.168	26.94
587.363	26.62
587.557	26.5
587.751	26.11
587.945	26.58
588.139	26.22
588.333	25.84
588.527	25.59
588.721	25.55
588.915	25.24
589.109	25.66
589.303	24.84
589.497	25.25
589.691	25.41
589.885	25.13
590.079	25.31
590.273	25.07
590.466	25.9
590.66	25.87
590.854	25.71
591.048	25.01
591.242	25.06
591.436	24.6
591.629	23.76
591.823	23.55
592.017	24.08
592.211	23.4
592.404	23.23
592.598	22.58
592.792	22.53
592.986	22.29
593.179	22.8
593.373	23.49
593.567	24.33
593.76	24.72
593.954	24.79
594.147	25.34
594.341	25.27
594.535	25.97
594.728	26.01
594.922	25.85
595.115	25.98
595.309	25.86
595.502	25.57
595.696	25.5
595.889	25.45
596.083	25.2
596.276	24.36
596.47	24.64
596.663	24.98
596.856	25.66
597.05	26.37
597.243	26.39
597.437	26.2
597.63	25.71
597.823	25.56
598.017	26.47
598.21	27.45
598.403	28.28
598.596	28.53
598.79	27.72
598.983	27.24
599.176	26.84
599.369	26.84
599.563	27.44
599.756	28.07
599.949	28.38
600.142	27.71
600.335	27.83
600.528	27.99
600.722	27.9
600.915	27.93
601.108	27.67
601.301	27.68
601.494	27.57
601.687	27.25
601.88	27.45
602.073	27.31
602.266	27.3
602.459	26.4
602.652	25.68
602.845	25.59
603.038	26.24
603.231	26.4
603.424	26.12
603.617	26.11
603.809	26.24
604.002	25.68
604.195	26.01
604.388	26.12
604.581	26.85
604.774	27.55
604.966	27.16
605.159	26.35
605.352	26.24
605.545	25.81
605.737	25.71
605.93	25.63
606.123	26.06
606.316	25.3
606.508	25.72
606.701	25.03
606.894	24.98
607.086	25.43
607.279	26.11
607.471	27.09
607.664	27.91
607.857	27.74
608.049	27.43
608.242	27.35
608.434	28.03
608.627	27.58
608.819	27.83
609.012	27.42
609.204	27.15
609.397	27.62
609.589	27
609.782	27.14
609.974	27.53
610.166	27.81
610.359	28.1
610.551	27.87
610.743	28.06
610.936	28.41
611.128	28.87
611.32	29.34
611.513	27.84
611.705	28.26
611.897	27.85
612.09	28.66
612.282	29.3
612.474	29.12
612.666	28.99
612.858	28.81
613.051	28.2
613.243	27.99
613.435	28.25
613.627	29.66
613.819	29.69
614.011	30.34
614.203	29.29
614.395	28.47
614.588	28.77
614.78	29.66
614.972	29.34
615.164	29.66
615.356	29.06
615.548	28.95
615.74	27.95
615.932	27.27
616.124	26.78
616.315	27.33
616.507	27.1
616.699	26.99
616.891	25.92
617.083	25.75
617.275	24.74
617.467	24.24
617.659	24.68
617.85	25.22
618.042	25.6
618.234	25.98
618.426	25.37
618.618	25.82
618.809	25.8
619.001	25.88
619.193	26.34
619.384	28.04
619.576	29.02
619.768	29.36
619.959	28.36
620.151	28.36
620.343	27.86
620.534	28.31
620.726	28.45
620.917	28.63
621.109	29.26
621.301	29.43
621.492	28.63
621.684	29.25
621.875	28.3
622.067	29.91
622.258	29.2
622.45	29.21
622.641	30.13
622.832	29.88
623.024	29.34
623.215	28.93
623.407	28.82
623.598	29.07
623.789	28.11
623.981	28.11
624.172	27.71
624.363	28.12
624.555	28.68
624.746	27.82
624.937	28.19
625.129	28.29
625.32	27.51
625.511	28.11
625.702	27.58
625.893	27.87
626.085	28.26
626.276	28.66
626.467	28.62
626.658	28.38
626.849	27.57
627.04	27.47
627.231	27.5
627.422	28.05
627.614	26.93
627.805	27.08
627.996	27.55
628.187	27.37
628.378	26.43
628.569	26.43
628.76	26.52
628.951	27.57
629.142	27.13
629.332	27.18
629.523	27.04
629.714	27.37
629.905	27.85
630.096	27.2
630.287	27.29
630.478	28.05
630.669	28.53
630.859	27.99
631.05	28.3
631.241	28.76
631.432	28.64
631.623	29.27
631.813	29.08
632.004	29.39
632.195	29.36
632.385	29.37
632.576	29.27
632.767	29.44
632.957	30.43
633.148	30.18
633.339	30.29
633.529	30.59
633.72	30.07
633.91	30.82
634.101	30.71
634.292	31.4
634.482	31.64
634.673	31.7
634.863	30.67
635.054	29.71
635.244	29.97
635.435	29.48
635.625	30.02
635.815	31.58
636.006	30.8
636.196	30.31
636.387	29.53
636.577	29.48
636.767	28.67
636.958	28.2
637.148	28.94
637.338	28.01
637.529	28.26
637.719	27.8
637.909	26.28
638.099	25.98
638.29	26.99
638.48	27.53
638.67	27.99
638.86	29.19
639.05	30.26
639.241	29.86
639.431	30.46
639.621	31.3
639.811	30.21
640.001	29.72
640.191	30.36
640.381	28.69
640.571	28.36
640.761	27
640.951	25.89
641.141	26.36
641.331	26.67
641.521	25.7
641.711	25.83
641.901	26.78
642.091	28.32
642.281	28.69
642.471	29.38
642.661	29.76
642.851	30.82
643.041	32.22
643.231	31.13
643.42	31.35
643.61	31.27
643.8	30.05
643.99	29.67
644.18	29.74
644.369	29.87
644.559	30.98
644.749	29.79
644.939	29.09
645.128	28.81
645.318	29.6
645.508	28.86
645.697	29.77
645.887	31.43
646.076	31.94
646.266	31.78
646.456	31.94
646.645	31.34
646.835	32.93
647.024	33.61
647.214	32.75
647.403	31.71
647.593	33.17
647.782	32.8
647.972	31.91
648.161	32.29
648.351	31.91
648.54	31.7
648.73	31.29
648.919	30.75
649.108	30.26
649.298	30.14
649.487	31.22
649.677	30.57
649.866	31.44
650.055	30.41
650.244	29.6
650.434	29.39
650.623	30.31
650.812	31.33
651.002	31.34
651.191	31.35
651.38	31.33
651.569	31.22
651.758	30.79
651.947	31.13
652.137	31.91
652.326	31.97
652.515	31.64
652.704	30.97
652.893	29.51
653.082	28.86
653.271	29.04
653.46	30.15
653.649	30.91
653.838	30.52
654.027	28.98
654.216	29.89
654.405	30.68
654.594	31.45
654.783	30.91
654.972	31.82
655.161	32.35
655.35	31.61
655.539	30.97
655.728	29.67
655.916	30.78
656.105	31.75
656.294	30.99
656.483	30.7
656.672	30.52
656.86	30.25
657.049	29.45
657.238	29.54
657.427	29.95
657.615	29.4
657.804	29.16
657.993	28.74
658.181	28.93
658.37	28.91
658.559	27.95
658.747	28.61
658.936	28.75
659.125	28.34
659.313	28.17
659.502	27.78
659.69	28.66
659.879	30.95
660.067	31.27
660.256	31.2
660.444	30.63
660.633	31.63
660.821	31.86
661.01	31.2
661.198	32.83
661.387	33.13
661.575	33.34
661.763	33.47
661.952	30.98
662.14	29.31
662.328	28.63
662.517	29.28
662.705	29.27
662.893	27.96
663.082	29.11
663.27	29.65
663.458	29.63
663.646	30.06
663.834	30.17
664.023	30.98
664.211	32.07
664.399	32.79
664.587	33.19
664.775	33.44
664.963	34.7
665.152	35.29
665.34	33.74
665.528	33.88
665.716	34.47
665.904	34.56
666.092	34.61
666.28	35.1
666.468	33.92
666.656	33.12
666.844	33.11
667.032	32.53
667.22	32.63
667.408	33.62
667.596	33.75
667.784	33.69
667.971	34.26
668.159	33.57
668.347	33.4
668.535	34.5
668.723	35.43
668.911	34.92
669.098	34.42
669.286	34.56
669.474	34.84
669.662	35.3
669.849	34.8
670.037	31.49
670.225	32.15
670.413	31.9
670.6	32.07
670.788	32.55
670.976	33.24
671.163	33.97
671.351	32.31
671.538	32.91
671.726	33.15
671.913	32.15
672.101	35.25
672.289	34.98
672.476	34.58
672.664	35.01
672.851	34.06
673.039	33.74
673.226	33.57
673.413	34.6
673.601	33.67
673.788	32.36
673.976	34.16
674.163	34.23
674.35	35.59
674.538	35.53
674.725	35.24
674.912	35.93
675.1	35.62
675.287	36.29
675.474	35.9
675.662	35.79
675.849	36.77
676.036	36.02
676.223	35.19
676.411	35.05
676.598	35.79
676.785	35.33
676.972	35.12
677.159	35.49
677.346	34.18
677.533	35.31
677.721	34.62
677.908	33.56
678.095	34.14
678.282	34.44
678.469	34.06
678.656	33.24
678.843	34.03
679.03	34.07
679.217	35.18
679.404	35.62
679.591	34.61
679.778	35
679.964	35.56
680.151	35.46
680.338	34.44
680.525	33.39
680.712	33.24
680.899	32.7
681.086	31.7
681.272	30.73
681.459	29.48
681.646	29.41
681.833	29.13
682.02	28.99
682.206	27.35
682.393	28.03
682.58	27.85
682.766	29.11
682.953	28.95
683.14	30.58
683.326	30.06
683.513	31.74
683.7	31.52
683.886	31.66
684.073	30.81
684.259	33.29
684.446	33.42
684.632	34.71
684.819	33.09
685.005	32.33
685.192	30.94
685.378	30.55
685.565	30.28
685.751	32.35
685.938	31.83
686.124	32.56
686.31	31.86
686.497	31.95
686.683	31.83
686.87	32.77
687.056	34.89
687.242	35.77
687.429	36.73
687.615	34.91
687.801	33.25
687.987	32.62
688.174	33.09
688.36	32.2
688.546	32.05
688.732	30.48
688.918	30.63
689.105	29.37
689.291	29.43
689.477	29.88
689.663	32.25
689.849	34.51
690.035	36.35
690.221	35.73
690.407	37
690.593	36.25
690.779	37.69
690.965	36.4
691.151	35.94
691.337	35.83
691.523	34.26
691.709	34.07
691.895	32.38
692.081	32.48
692.267	31.05
692.453	30.65
692.639	33.49
692.825	33.67
693.011	33.94
693.196	34.37
693.382	32.56
693.568	32.46
693.754	32.3
693.94	32.26
694.125	32.54
694.311	35.7
694.497	35.13
694.682	33.01
694.868	32.35
695.054	35.04
695.239	35.16
695.425	36.39
695.611	36.77
695.796	35.29
695.982	34.72
696.168	32.91
696.353	31.22
696.539	32.83
696.724	33.08
696.91	33.46
697.095	32.94
697.281	32.29
697.466	33.19
697.652	33.63
697.837	33.81
698.023	33.1
698.208	33.92
698.393	34.25
698.579	32.97
698.764	32.18
698.949	32.05
699.135	32.61
699.32	32.78
699.505	31.43
699.691	30.21
699.876	31.59
700.061	32.8
700.246	32.38
700.432	31.99
700.617	33.03
700.802	34.81
700.987	35.8
701.172	35.85
701.358	37.48
701.543	38.65
701.728	40.86
701.913	40.89
702.098	41.52
702.283	41.05
702.468	41.96
702.653	41.32
702.838	41.31
703.023	40.79
703.208	41.46
703.393	39.3
703.578	39.28
703.763	40.28
703.948	40.04
704.133	41.17
704.318	43.6
704.503	42.66
704.688	42.08
704.873	41.5
705.057	39.85
705.242	38.03
705.427	39.46
705.612	38.1
705.797	37.79
705.981	38.79
706.166	36.5
706.351	34.52
706.536	35.73
706.72	35.15
706.905	35.09
707.09	36.1
707.274	35.81
707.459	35.27
707.644	37.13
707.828	32.81
708.013	31.3
708.197	31.75
708.382	31.78
708.567	31.91
708.751	33.2
708.936	34.31
709.12	35.31
709.305	34.88
709.489	32.52
709.673	30.7
709.858	34.06
710.042	32.38
710.227	31.59
710.411	32.19
710.596	31.09
710.78	30.08
710.964	29.75
711.149	30.15
711.333	31.15
711.517	33.17
711.702	34.68
711.886	34.85
712.07	35.98
712.254	37.23
712.438	35.87
712.623	36.87
712.807	38.34
712.991	38.8
713.175	38.1
713.359	38.13
713.544	37.9
713.728	35.53
713.912	36.1
714.096	35.43
714.28	34.77
714.464	34.25
714.648	35.4
714.832	34.82
715.016	32.96
715.2	33.53
715.384	33.36
715.568	35.52
715.752	36.87
715.936	35.58
716.12	36.66
716.304	38.24
716.488	40.09
716.671	38.18
716.855	36.4
717.039	36.55
717.223	34.12
717.407	34.14
717.59	31.76
717.774	32.05
717.958	32.57
718.142	33.33
718.325	32.47
718.509	32.54
718.693	32.84
718.877	33.98
719.06	33.04
719.244	35.82
719.428	38.34
719.611	38.17
719.795	39.93
719.978	40.14
720.162	39
720.345	39.01
720.529	41.42
720.713	41.92
720.896	41.95
721.08	43.05
721.263	40.08
721.446	38.06
721.63	41.15
721.813	41.35
721.997	40.43
722.18	39.08
722.364	39.08
722.547	36.9
722.73	37.18
722.914	37.23
723.097	39.02
723.28	40.52
723.464	41.16
723.647	40.08
723.83	39.55
724.013	39.77
724.197	38.73
724.38	39.02
724.563	39.19
724.746	39.15
724.929	41.43
725.112	39.28
725.296	40.19
725.479	39.36
725.662	37.1
725.845	35.91
726.028	33.15
726.211	34.97
726.394	33.55
726.577	35.27
726.76	34.6
726.943	35.75
727.126	36.22
727.309	35.85
727.492	34.23
727.675	35.79
727.858	35.2
728.041	37.65
728.224	37.62
728.407	38.25
728.589	36.97
728.772	37.21
728.955	34.91
729.138	34.56
729.321	33.44
729.503	34.08
729.686	36.06
729.869	37.11
730.052	37.54
730.234	39.25
730.417	39.46
730.6	38.37
730.782	38.62
730.965	37.37
731.148	38.11
731.33	39.47
731.513	40
731.695	39.46
731.878	37.31
732.061	36.92
732.243	35.05
732.426	34.14
732.608	34.28
732.791	34.85
732.973	36.97
733.156	36.23
733.338	35.76
733.52	35.28
733.703	34.02
733.885	33.42
734.068	35.73
734.25	36.57
734.432	37.64
734.615	35.78
734.797	35.93
734.979	35.18
735.162	35.99
735.344	37.29
735.526	38.05
735.708	40
735.891	43.88
736.073	41.76
736.255	42.62
736.437	41.12
736.619	44.83
736.802	43.78
736.984	44.16
737.166	44.28
737.348	43.21
737.53	43.07
737.712	39.45
737.894	35.89
738.076	34.38
738.258	32.17
738.44	34.69
738.622	32.12
738.804	33.41
738.986	35.33
739.168	36.3
739.35	34.74
739.532	32.47
739.714	37.66
739.896	44.19
740.078	44.23
740.259	48.15
740.441	46.93
740.623	47.01
740.805	47.59
740.987	45.43
741.168	44.72
741.35	46.75
741.532	45.18
741.714	43.23
741.895	40.42
742.077	40.78
742.259	36.75
742.44	38.03
742.622	36.95
742.804	36.67
742.985	38.24
743.167	37.86
743.348	39.72
743.53	42.99
743.711	39.89
743.893	40.57
744.075	41.67
744.256	46.83
744.438	44.54
744.619	45.43
744.8	45.86
744.982	46.71
745.163	46
745.345	41.98
745.526	43.28
745.707	44.48
745.889	43.71
746.07	45.07
746.252	43.9
746.433	47.99
746.614	50.26
746.795	51.23
746.977	45.69
747.158	47.17
747.339	49.78
747.52	51.6
747.702	48.66
747.883	48.52
748.064	46.64
748.245	46.87
748.426	44.33
748.607	46.25
748.788	43.07
748.97	47.5
749.151	48.41
749.332	47.19
749.513	46.09
749.694	50.09
749.875	51.75
750.056	52.67
750.237	49.01
750.418	49.64
750.599	45.69
750.78	44.62
750.96	40.47
751.141	37.87
751.322	35.17
751.503	30.69
751.684	33.05
751.865	30.49
752.046	29.63
752.226	31.11
752.407	29.04
752.588	32.71
752.769	36.23
752.949	41.59
753.13	45.46
753.311	47.79
753.492	50.84
753.672	48.85
753.853	48.99
754.034	47.83
754.214	45.38
754.395	44.36
754.575	43.93
754.756	42.51
754.937	39.1
755.117	39.76
755.298	41.95
755.478	42.34
755.659	38.83
755.839	38.85
756.02	38.79
756.2	41.6
756.381	44.3
756.561	41.97
756.741	42.31
756.922	42.75
757.102	38.68
757.283	35.89
757.463	35.31
757.643	37.92
757.823	39.49
758.004	41.81
758.184	40.91
758.364	43.1
758.545	41.63
758.725	39.18
758.905	39.6
759.085	40.76
759.265	42.62
759.446	42.14
759.626	40.52
759.806	36.13
759.986	34.95
760.166	34.88
760.346	31.02
760.526	29.7
760.706	32.97
760.886	33.79
761.066	32.3
761.246	31.18
761.426	33.09
761.606	32.58
761.786	34.88
761.966	36.21
762.146	35.64
762.326	34.88
762.506	38.47
762.686	37.2
762.866	35.95
763.046	39.54
763.225	39.13
763.405	38
763.585	38.25
763.765	38.57
763.945	37.51
764.124	39.57
764.304	40.71
764.484	39.71
764.664	40.39
764.843	41.07
765.023	40.48
765.203	41.64
765.382	41.57
765.562	41.99
765.741	42.41
765.921	45.19
766.101	41.24
766.28	40.5
766.46	40.33
766.639	41.87
766.819	41.59
766.998	38.84
767.178	42.58
767.357	47.38
767.537	46.28
767.716	48.7
767.896	44.65
768.075	45.78
768.254	48.5
768.434	48.61
768.613	46.84
768.792	47.53
768.972	48.58
769.151	47.04
769.33	42.17
769.51	45.07
769.689	44.89
769.868	48.37
770.047	47.4
770.226	49.43
770.406	50.36
770.585	51.86
770.764	53.1
770.943	52.76
771.122	51.58
771.301	49.87
771.48	51.15
771.66	49.13
771.839	49.44
772.018	52.24
772.197	48.93
772.376	47.22
772.555	44.89
772.734	45.3
772.913	45.86
773.092	46.48
773.271	45.47
773.449	45.02
773.628	44.63
773.807	43
773.986	43.68
774.165	45.72
774.344	45.5
774.523	43.14
774.701	43.79
774.88	40.73
775.059	36.85
775.238	43.47
775.417	42.15
775.595	41.11
775.774	37.85
775.953	35.4
776.131	28.98
776.31	30.43
776.489	36.81
776.667	30.4
776.846	31.24
777.025	35.08
777.203	29.17
777.382	30.11
777.56	32.88
777.739	37.75
777.917	42.07
778.096	46.38
778.274	45.14
778.453	43.23
778.631	51.18
778.81	53.69
778.988	53.1
779.166	57
779.345	53.94
779.523	54.74
779.702	56.67
779.88	50.46
780.058	51.67
780.237	53.05
780.415	56.01
780.593	54.01
780.771	54.54
780.95	60.26
781.128	60.79
781.306	58.17
781.484	59.44
781.662	57.05
781.841	58.56
782.019	63.85
782.197	64.31
782.375	60.69
782.553	61.68
782.731	56.83
782.909	53.84
783.087	50.81
783.265	58.46
783.443	51.49
783.621	49.18
783.799	50
783.977	41.55
784.155	40.93
784.333	37.67
784.511	36.83
784.689	37.41
784.867	34.88
785.045	34.25
785.223	30.7
785.4	32.64
785.578	32.04
785.756	32.39
785.934	33.97
786.112	32.99
786.289	33.43
786.467	30.36
786.645	30.76
786.823	38.24
787	44.1
787.178	45.33
787.356	44.35
787.533	46.99
787.711	51.21
787.889	50.07
788.066	48.86
788.244	49.7
788.421	49.36
788.599	51.57
788.776	45.08
788.954	40.29
789.131	36.76
789.309	33.64
789.486	26.68
789.664	27.58
789.841	32.29
790.019	34.09
790.196	33.98
790.373	36.77
790.551	31.71
790.728	32.4
790.906	37.11
791.083	44.06
791.26	50.64
791.437	54.12
791.615	55.79
791.792	51.84
791.969	54.84
792.146	57.42
792.324	60.11
792.501	65.94
792.678	65.15
792.855	62.34
793.032	61.91
793.209	60.8
793.387	66.21
793.564	63.24
793.741	68.1
793.918	67.26
794.095	62.69
794.272	60.71
794.449	55.83
794.626	57.32
794.803	55.55
794.98	50.22
795.157	50.16
795.334	48.89
795.511	42.87
795.688	41.88
795.864	42.6
796.041	43.06
796.218	44.4
796.395	50.3
796.572	49.63
796.749	51.91
796.925	56.89
797.102	58.3
797.279	54.8
797.456	59.32
797.632	55.27
797.809	48.75
797.986	52.72
798.162	53.44
798.339	46.06
798.516	40.6
798.692	39.16
798.869	46.85
799.046	46.98
799.222	51.43
799.399	53.4
799.575	55.72
799.752	56.53
799.928	49.24
800.105	50.25
800.281	52.66
800.458	55.43
800.634	56.61
800.811	44.16
800.987	43.43
801.163	40.82
801.34	41.26
801.516	35.64
801.692	40.28
801.869	43.28
802.045	38.75
802.221	37.98
802.398	38.1
802.574	36.73
802.75	40.58
802.926	41.18
803.103	39.65
803.279	40.88
803.455	49.38
803.631	45.63
803.807	49.03
803.983	58.27
804.16	57.76
804.336	53.66
804.512	55.91
804.688	52.17
804.864	51.84
805.04	56.9
805.216	53.28
805.392	47.45
805.568	46.8
805.744	48.8
805.92	37.45
806.096	43.49
806.272	41.67
806.448	46.3
806.623	50.98
806.799	61.1
806.975	59.07
807.151	61
807.327	64.04
807.503	64.86
807.678	66.24
807.854	74.99
808.03	73.8
808.206	80.39
808.381	85.91
808.557	92.27
808.733	81
808.908	78.29
809.084	89.46
809.26	81.72
809.435	93.84
809.611	93.72
809.787	85.27
809.962	84.77
810.138	83.82
810.313	69.57
810.489	67.87
810.664	65.67
810.84	72.93
811.015	62.96
811.191	76.67
811.366	69.31
811.542	73.37
811.717	79.24
811.892	78.85
812.068	77.09
812.243	81.62
812.419	79.15
812.594	70.78
812.769	73.22
812.944	77.31
813.12	74.61
813.295	81.16
813.47	69.34
813.645	58.04
813.821	54.76
813.996	57.7
814.171	56.97
814.346	58.74
814.521	61.39
814.697	57.63
814.872	57.11
815.047	56.08
815.222	55.77
815.397	52.24
815.572	61.54
815.747	62.02
815.922	63.28
816.097	65.04
816.272	59.82
816.447	65.92
816.622	59.36
816.797	58.58
816.972	51.43
817.147	45.22
817.322	45.18
817.496	41.98
817.671	31.33
817.846	25.8
818.021	23.66
818.196	30.04
818.371	28.57
818.545	37.75
818.72	31.76
818.895	29.96
819.069	28.7
819.244	34.17
819.419	32.55
819.594	41.69
819.768	44.44
819.943	40.08
820.117	37.1
820.292	34.53
820.467	31.71
820.641	34.3
820.816	36.07
820.99	36.33
821.165	35.24
821.339	34.92
821.514	34.93
821.688	34.66
821.863	36.18
822.037	35.75
822.212	35.95
822.386	36.56
822.56	36.01
822.735	35.01
822.909	35.44
823.084	35.87
823.258	34.95
823.432	34.87
823.606	34.08
823.781	32.91
823.955	34.14
824.129	34.84
824.303	33.51
824.478	33.03
824.652	33.46
824.826	33.79
825	33.28
825.174	36.3
825.348	34.48
825.523	36.94
825.697	37.72
825.871	39.45
826.045	38.87
826.219	40.24
826.393	39.69
826.567	42.24
826.741	41.13
826.915	42.95
827.089	41.1
827.263	39.99
827.437	39.32
827.611	38.62
827.784	37.74
827.958	38.16
828.132	38.32
828.306	41.12
828.48	37.14
828.654	39.89
828.827	37.31
829.001	35.66
829.175	41.68
829.349	42.45
829.522	40.12
829.696	39.23
829.87	40.82
830.044	40.11
830.217	39.68
830.391	47.09
830.565	43.84
830.738	39.55
830.912	46.5
831.085	43.84
831.259	38.92
831.432	44.11
831.606	40
831.779	41.98
831.953	39.31
832.126	44.99
832.3	35.36
832.473	28.61
832.647	33.23
832.82	32
832.994	31.06
833.167	36
833.34	34.8
833.514	34.62
833.687	34.15
833.86	36.1
834.034	28.56
834.207	33.39
834.38	38.28
834.553	36.92
834.727	35.57
834.9	38.76
835.073	37.69
835.246	36.12
835.419	36.89
835.593	34.8
835.766	36.33
835.939	33.5
836.112	30.23
836.285	28.13
836.458	33.08
836.631	33.46
836.804	27.58
836.977	20.82
837.15	20.87
837.323	19.99
837.496	16.84
837.669	9.4
837.842	20.35
838.015	27.99
838.188	41.48
838.361	27.93
838.533	31.15
838.706	47.33
838.879	55.52
839.052	67.99
839.225	76.6
839.398	94.65
839.57	94.04
839.743	96.13
839.916	87.38
840.088	75.54
840.261	73.62
840.434	79.18
840.607	75.08
840.779	73.38
840.952	72.67
841.124	74.54
841.297	64.08
841.47	65.23
841.642	63.96
841.815	56.71
841.987	66.01
842.16	78.18
842.332	76.25
842.505	82.32
842.677	93.93
842.85	86.95
843.022	88.71
843.194	92.36
843.367	100.96
843.539	86.38
843.712	89.39
843.884	79.37
844.056	71.97
844.229	56.14
844.401	35.63
844.573	43.56
844.745	40.31
844.918	55.16
845.09	102.37
845.262	95
845.434	123.14
845.606	163.04
845.779	208.45
845.951	425.39
846.123	512.09
846.295	467.08
846.467	269.38
846.639	287.41
846.811	658.76
846.983	327.72
847.155	546.15
847.327	235.66
847.499	172.38
847.671	206.53
847.843	186.93
848.015	180.16
848.187	192.63
848.359	677.1
848.531	-768.49
848.703	738.61
848.875	-1636.22
849.047	1700
849.218	-896.73
849.39	-157.52
849.562	-132.98
849.734	-80.14
849.905	-124.46
850.077	-204.23
850.249	948.76
850.421	825.27
850.592	-847.58
850.764	379.79
850.936	279.52
851.107	118.77
851.279	80.03
851.451	52.23
851.622	59.01
851.794	60.69
851.965	55.05
852.137	58.62
852.308	58.68
852.48	44.52
852.651	37.52
852.823	55.57
852.994	54
853.166	107.14
853.337	142.18
853.509	159.58
853.68	838.75
853.851	74.46
854.023	99.05
854.194	23.48
854.365	71.48
854.537	88.42
854.708	63.78
854.879	61.51
855.05	82.66
855.222	107.92
855.393	191.88
855.564	509.61
855.735	-379.13
855.906	-1510.55
856.078	-438.6
856.249	-1254.55
856.42	-33910.71
856.591	1579.59
856.762	12989.47
856.933	832.92
857.104	1758.35
857.275	342.54
857.446	175.6
857.617	144.9
857.788	122.92
857.959	118.93
858.13	129.18
858.301	194.97
858.472	259.68
858.643	183.93
858.814	294.45
858.985	211.31
859.155	344.32
859.326	538.88
859.497	1483.03
859.668	-527.94
859.839	-236.37
860.009	-99.01
860.18	-218.06
860.351	-90.02
860.522	-146.01
860.692	-71.73
860.863	13.75
861.034	24.23
861.204	21.48
861.375	-13.27
861.546	-73.06
861.716	-32.58
861.887	-96.61
862.057	6952
862.228	218.64
862.398	631.17
862.569	444.42
862.739	468.6
862.91	331.03
863.08	261.28
863.251	169.73
863.421	166.03
863.592	154.23
863.762	188.28
863.932	198.11
864.103	215.62
864.273	253.27
864.443	535.34
864.614	153.94
864.784	174.47
864.954	137.78
865.125	286.79
865.295	195.48
865.465	245.91
865.635	101.13
865.805	159.84
865.976	101.16
866.146	72.32
866.316	52.02
866.486	78.61
866.656	111.77
866.826	111.11
866.996	129.83
867.166	366.22
867.336	447.91
867.506	1544.37
867.676	-66.9
867.846	-66.31
868.016	-45.82
868.186	-75.57
868.356	-65.33
868.526	-53.22
868.696	-53.77
868.866	-10.31
869.036	-38.98
869.206	-82.63
869.376	-157.92
869.545	218.18
869.715	95.34
869.885	75.98
870.055	51.41
870.224	81.94
870.394	88.92
870.564	97.54
870.734	105.75
870.903	100.53
871.073	86.25
871.243	73.6
871.412	71.7
871.582	132.63
871.751	173.3
871.921	225.3
872.091	206.41
872.26	173.14
872.43	163.22
872.599	139.87
872.769	146.67
872.938	179.01
873.108	188.38
873.277	185.8
873.446	159.72
873.616	168.15
873.785	156.34
873.955	200.34
874.124	185.3
874.293	227.54
874.463	268.69
874.632	218.39
874.801	206.74
874.971	241.7
875.14	421.19
875.309	283.69
875.478	181.56
875.647	152.83
875.817	104.02
875.986	154.81
876.155	111.72
876.324	117.81
876.493	131.64
876.662	157.75
876.831	151.28
877	120.97
877.17	125.76
877.339	150.02
877.508	162.26
877.677	162.25
877.846	186.11
878.015	219.02
878.184	196.83
878.352	140.52
878.521	73.39
878.69	88.11
878.859	117.97
879.028	91.72
879.197	77.7
879.366	72.61
879.534	53.14
879.703	51.58
879.872	45.04
880.041	42.45
880.21	46.88
880.378	45.97
880.547	42.81
880.716	33.27
880.884	37.7
881.053	38.82
881.222	39.54
881.39	43.46
881.559	43.17
881.727	46.97
881.896	47.28
882.065	44.69
882.233	45.64
882.402	43.84
882.57	44.67
882.739	43.81
882.907	43.95
883.076	40.37
883.244	42.26
883.412	40.78
883.581	40.31
883.749	39.71
883.918	43.75
884.086	42.09
884.254	46.34
884.423	51.67
884.591	53.66
884.759	60.96
884.927	66.5
885.096	63.6
885.264	68.14
885.432	73.33
885.6	77.25
885.769	79.46
885.937	86.99
886.105	81.81
886.273	78.93
886.441	70.02
886.609	57.17
886.777	67.16
886.945	71.9
887.113	68.21
887.281	62.82
887.449	61.82
887.617	84.46
887.785	78.02
887.953	98.03
888.121	106.86
888.289	99.3
888.457	125.64
888.625	112.57
888.793	85.18
888.961	260.6
889.129	93.14
889.296	121.31
889.464	92.96
889.632	106.98
889.8	110.27
889.967	106.64
890.135	125.36
