Data from JASIL_3013_Reflection_02.txt Node
Date: Mon Nov 09 10:36:17 EST 2015
User: Geneva
Spectrometer: USB4E03002
Autoset integration time: false
Trigger mode: 4
Integration Time (sec): 1.000000E-1
Scans to average: 10
Electric dark correction enabled: false
Nonlinearity correction enabled: false
Boxcar width: 5
Stray light correction enabled: false
XAxis mode: Wavelengths
Stop averaging: false
Number of Pixels in Spectrum: 3648
>>>>>Begin Spectral Data<<<<<
177.575	93.91
177.794	102.08
178.014	78.11
178.233	130.04
178.452	166.67
178.672	603.51
178.891	1482.61
179.11	-541.46
179.33	-1127.27
179.549	-21.15
179.768	24.5
179.987	-98.61
180.207	168.33
180.426	317.91
180.645	126.3
180.864	90.17
181.084	69.62
181.303	60.65
181.522	82.04
181.741	130.74
181.96	103.83
182.179	119.7
182.398	72.22
182.618	61.22
182.837	41.26
183.056	-235.79
183.275	229.63
183.494	-174.44
183.713	-517.5
183.932	-196.81
184.151	-818.18
184.37	-98.43
184.589	-2150
184.808	220.71
185.027	120
185.246	21.91
185.465	34.56
185.684	8.09
185.903	20.77
186.122	38.22
186.341	49.14
186.56	2.12
186.779	-191.84
186.998	231.87
187.216	136
187.435	164.58
187.654	27.34
187.873	84.11
188.092	130.39
188.311	112.28
188.53	117.69
188.748	130.88
188.967	197.28
189.186	-189.25
189.405	-123.6
189.623	-239.25
189.842	-426.98
190.061	6820
190.28	414.89
190.498	373.33
190.717	114.76
190.936	155.17
191.154	133.16
191.373	163.32
191.592	253.15
191.81	148.47
192.029	159.26
192.248	88.31
192.466	106.19
192.685	51.23
192.904	-452.17
193.122	-55.07
193.341	3340
193.559	-1916.67
193.778	-297.73
193.996	-582.14
194.215	-360.64
194.433	-295.41
194.652	-223.42
194.87	-58.57
195.089	-55.66
195.307	-142.67
195.526	-154.94
195.744	-28.78
195.963	-82.35
196.181	34.04
196.399	-9.64
196.618	49.64
196.836	51.6
197.055	19.63
197.273	128.16
197.491	163.5
197.71	134.72
197.928	71.34
198.146	126.53
198.365	99.53
198.583	2744.44
198.801	-111.95
199.019	-52.9
199.238	14.01
199.456	-23.27
199.674	3.45
199.892	-76.85
200.111	-96
200.329	-446.43
200.547	1533.33
200.765	-90.91
200.983	106.62
201.202	45.24
201.42	90.62
201.638	133.15
201.856	328.15
202.074	282.83
202.292	298.41
202.51	377.78
202.728	4550
202.946	-80.3
203.165	1289.47
203.383	-215.38
203.601	-350
203.819	72.09
204.037	186.25
204.255	77
204.473	250.38
204.691	252.94
204.909	-895.24
205.127	481.82
205.345	462.75
205.562	-381.48
205.78	502
205.998	457.97
206.216	323.58
206.434	292.13
206.652	3000
206.87	113.56
207.088	-13.94
207.306	-76.43
207.523	-131.06
207.741	-369.23
207.959	-161.71
208.177	-123.84
208.395	-109.46
208.612	-45.17
208.83	11.01
209.048	-22.15
209.266	-237.5
209.483	-485.25
209.701	855.17
209.919	-10050
210.136	32.73
210.354	1850
210.572	-536.17
210.79	-666.67
211.007	215.33
211.225	78.36
211.442	336.84
211.66	-1.64
211.878	32.89
212.095	-1841.51
212.313	-33433.33
212.53	-776.23
212.748	-339.34
212.966	-1970.73
213.183	-38400
213.401	-309.29
213.618	-243.69
213.836	-294.42
214.053	-430.05
214.271	-630.2
214.488	59.06
214.705	61.13
214.923	107.18
215.14	158.27
215.358	167.04
215.575	187.94
215.793	619.7
216.01	1858.33
216.227	568.52
216.445	-135.07
216.662	-343.88
216.879	-104.53
217.097	-131.92
217.314	-203.23
217.531	-465.52
217.749	166.05
217.966	190
218.183	129.31
218.4	114
218.618	153.04
218.835	82.76
219.052	75.23
219.269	58.11
219.487	52.04
219.704	61.6
219.921	40.69
220.138	28.4
220.355	60.41
220.572	-2166.67
220.79	182.41
221.007	168.38
221.224	196.87
221.441	134.9
221.658	-9.95
221.875	83.21
222.092	90.93
222.309	97.86
222.526	112.24
222.743	66.6
222.96	47.98
223.177	47.07
223.394	54.39
223.611	57.45
223.828	50.6
224.045	60.53
224.262	40.25
224.479	36.32
224.696	25.11
224.913	12.84
225.13	17.46
225.347	31.75
225.564	23.55
225.781	15.65
225.997	25.78
226.214	14.69
226.431	1.4
226.648	6
226.865	6.04
227.082	9.99
227.298	8.5
227.515	5.68
227.732	-1.11
227.949	2.27
228.165	3.25
228.382	0.99
228.599	5.13
228.816	12.95
229.032	7.61
229.249	-1.14
229.466	-4.34
229.682	-2.74
229.899	0.41
230.116	6.9
230.332	5.4
230.549	-4.83
230.765	-5.12
230.982	3.61
231.199	7.57
231.415	17.52
231.632	26.71
231.848	29.68
232.065	33.86
232.281	22.59
232.498	17.42
232.714	25.52
232.931	27.37
233.147	19.31
233.364	18.74
233.58	0.6
233.797	-5.42
234.013	0.13
234.23	-8.25
234.446	-3.99
234.662	22.7
234.879	30.76
235.095	30.88
235.312	35.97
235.528	38.84
235.744	37.44
235.961	44.01
236.177	42.44
236.393	41.84
236.61	41.1
236.826	30.24
237.042	12.32
237.258	11.42
237.475	8.41
237.691	10.62
237.907	16.86
238.123	8.79
238.339	11.3
238.556	15.22
238.772	20.35
238.988	14.01
239.204	16.89
239.42	19.16
239.636	15.33
239.853	11.66
240.069	9.13
240.285	3.84
240.501	8.33
240.717	10.28
240.933	10.56
241.149	8.08
241.365	9.48
241.581	9.99
241.797	12.14
242.013	12.34
242.229	15.48
242.445	14.68
242.661	14.11
242.877	13.56
243.093	12.82
243.309	13.17
243.525	10.66
243.741	18.83
243.957	19.42
244.173	16.5
244.388	17.14
244.604	14.24
244.82	14.29
245.036	13.78
245.252	12.67
245.468	10.86
245.683	9.42
245.899	8.81
246.115	6.37
246.331	6.6
246.547	6.74
246.762	4.51
246.978	3.94
247.194	3.43
247.409	4.02
247.625	1.03
247.841	1.33
248.057	4.42
248.272	3.76
248.488	5.03
248.703	1.52
248.919	3.49
249.135	7.57
249.35	8.57
249.566	10.38
249.782	6.96
249.997	10.28
250.213	13.3
250.428	13.62
250.644	15.34
250.859	13.53
251.075	17.65
251.29	13.07
251.506	15.43
251.721	14.5
251.937	12.9
252.152	17.01
252.368	17.96
252.583	19.65
252.798	19.14
253.014	23.27
253.229	26.68
253.445	20.94
253.66	21.31
253.875	11.06
254.091	8.16
254.306	10.39
254.521	10.93
254.737	4.93
254.952	3.49
255.167	2.54
255.383	-3.37
255.598	-3.06
255.813	-0.27
256.028	-2.22
256.244	7.03
256.459	9.18
256.674	11.8
256.889	9.23
257.104	12.16
257.32	9.66
257.535	7.16
257.75	7.81
257.965	7.29
258.18	8.4
258.395	9.12
258.61	7.22
258.826	6.76
259.041	3.61
259.256	4.89
259.471	3.91
259.686	4.48
259.901	6.58
260.116	3.8
260.331	5.53
260.546	4.4
260.761	3.82
260.976	5.31
261.191	5.95
261.406	7.83
261.621	6.8
261.836	8.19
262.05	5.53
262.265	2.14
262.48	6.52
262.695	5.42
262.91	11.05
263.125	14.93
263.34	14.93
263.555	13.85
263.769	14.04
263.984	15.68
264.199	17.52
264.414	19.11
264.629	16.23
264.843	16.68
265.058	15.99
265.273	9.73
265.488	8.34
265.702	6.04
265.917	5.05
266.132	9.75
266.346	8.96
266.561	10.29
266.776	9.6
266.99	12.09
267.205	13.42
267.42	12.18
267.634	14.06
267.849	16.04
268.063	17.85
268.278	21.13
268.492	18.9
268.707	18.41
268.922	16.29
269.136	14.8
269.351	13.21
269.565	10.85
269.78	11.12
269.994	8.27
270.209	5.75
270.423	3.49
270.637	0.87
270.852	2.13
271.066	2.01
271.281	0.24
271.495	3.5
271.709	3.67
271.924	3.66
272.138	4.4
272.353	5.61
272.567	5.9
272.781	6.27
272.996	6.5
273.21	5.03
273.424	6.53
273.638	6.1
273.853	2.97
274.067	4.56
274.281	5.06
274.495	5.81
274.71	6.06
274.924	4.2
275.138	5.74
275.352	6.66
275.566	7.69
275.781	5.8
275.995	7.28
276.209	6.34
276.423	4.88
276.637	5.67
276.851	5.12
277.065	5.51
277.279	7.25
277.493	8.38
277.707	6.47
277.921	4.45
278.135	4.24
278.349	4.23
278.563	3.09
278.777	2.93
278.991	4.1
279.205	3.23
279.419	1.93
279.633	3.13
279.847	2.29
280.061	-0.76
280.275	-1.04
280.489	-1.1
280.703	-2.32
280.917	-0.06
281.131	2.52
281.344	0.57
281.558	0.27
281.772	1.08
281.986	-0.79
282.2	-1.48
282.414	3.13
282.627	6.12
282.841	3.86
283.055	4.96
283.269	5.09
283.482	2.53
283.696	3.93
283.91	3.68
284.123	2.96
284.337	2.96
284.551	2.58
284.764	2.75
284.978	1.3
285.192	4.41
285.405	6.32
285.619	6.4
285.833	7.12
286.046	6.95
286.26	6.26
286.473	7.55
286.687	7.21
286.9	9.67
287.114	7.8
287.327	8.26
287.541	6.6
287.754	3.61
287.968	6.58
288.181	6.47
288.395	5.94
288.608	7.1
288.822	4.93
289.035	7.07
289.248	4.23
289.462	8.53
289.675	6.75
289.889	6.42
290.102	6.52
290.315	4.13
290.529	4.9
290.742	5.86
290.955	5.41
291.169	6.88
291.382	5.68
291.595	5.55
291.808	3.05
292.022	3.14
292.235	2.68
292.448	3.39
292.661	3.66
292.875	2.23
293.088	-1.75
293.301	-0.47
293.514	-0.06
293.727	-0.17
293.94	0.63
294.153	0.29
294.367	1.77
294.58	1.99
294.793	2.01
295.006	1.83
295.219	1.71
295.432	4.63
295.645	4.5
295.858	4.47
296.071	4.06
296.284	3.6
296.497	4.12
296.71	2.81
296.923	3.16
297.136	2.83
297.349	1.58
297.562	2.24
297.775	1.94
297.988	0.75
298.201	-0.38
298.414	0.07
298.626	1.33
298.839	-0.63
299.052	-0.4
299.265	0.42
299.478	0.68
299.691	2.14
299.903	2.07
300.116	1.32
300.329	2.55
300.542	4.83
300.755	3.5
300.967	4.37
301.18	2.69
301.393	5.71
301.605	4.73
301.818	4.58
302.031	4.69
302.243	4.73
302.456	4.89
302.669	4.81
302.881	4.84
303.094	4.73
303.307	3.78
303.519	7.02
303.732	3.08
303.944	4.01
304.157	6.3
304.37	5.81
304.582	4.4
304.795	6.49
305.007	6.95
305.22	6.39
305.432	7.18
305.645	7.5
305.857	5.74
306.069	6.19
306.282	6.35
306.494	5.33
306.707	5.85
306.919	6.95
307.132	5.07
307.344	4.54
307.556	6.45
307.769	7.86
307.981	8.37
308.193	8.78
308.406	11.16
308.618	9.19
308.83	9.32
309.043	7.66
309.255	8.89
309.467	9.25
309.679	9.01
309.892	7.76
310.104	8.8
310.316	8.49
310.528	6.75
310.74	5.53
310.953	7.73
311.165	6.05
311.377	9.33
311.589	7.68
311.801	8.89
312.013	9.91
312.225	11.73
312.437	10.89
312.649	9.29
312.862	11.52
313.074	9.56
313.286	9.75
313.498	11.64
313.71	10.1
313.922	11.67
314.134	9.63
314.346	9.67
314.558	6.02
314.77	5.3
314.982	5.24
315.193	6.7
315.405	9.69
315.617	8.33
315.829	10.96
316.041	11.39
316.253	14.64
316.465	15.04
316.677	16.5
316.888	16.9
317.1	17.97
317.312	18.42
317.524	16.47
317.736	15.09
317.947	15.89
318.159	16.23
318.371	16.69
318.583	11.48
318.794	13.13
319.006	6.61
319.218	6.11
319.43	5.29
319.641	7.52
319.853	8.7
320.064	10.46
320.276	10.6
320.488	8.08
320.699	8.1
320.911	10.68
321.123	10.8
321.334	13.16
321.546	14.55
321.757	16.15
321.969	18.41
322.18	16.86
322.392	15.78
322.603	14.89
322.815	12.45
323.026	11.77
323.238	12.52
323.449	11.84
323.661	13.29
323.872	14.61
324.083	13.34
324.295	11.4
324.506	10.38
324.718	9.43
324.929	8.86
325.14	10.84
325.352	9.7
325.563	8.58
325.774	7.29
325.986	8.97
326.197	6.74
326.408	5.58
326.62	6.44
326.831	8.78
327.042	11.59
327.253	14.91
327.464	13.78
327.676	15.66
327.887	15.9
328.098	15.37
328.309	12.74
328.52	14.86
328.732	15.24
328.943	14.47
329.154	14.7
329.365	13.08
329.576	11.82
329.787	11.81
329.998	10.09
330.209	8.13
330.42	10.71
330.631	15.58
330.842	14.75
331.053	13.49
331.264	12.99
331.475	14.14
331.686	15.82
331.897	16.48
332.108	14.28
332.319	16.15
332.53	18.42
332.741	18.09
332.952	15.41
333.163	15.71
333.374	17.85
333.585	18.61
333.795	19.05
334.006	17.7
334.217	16.3
334.428	21.32
334.639	18.9
334.849	17.75
335.06	18.26
335.271	20.46
335.482	18.75
335.692	19.41
335.903	18.52
336.114	16.95
336.325	16.49
336.535	18.1
336.746	17.09
336.957	18.17
337.167	20.43
337.378	19.48
337.589	16.04
337.799	15.72
338.01	15.34
338.22	18.03
338.431	17.04
338.642	15.66
338.852	13.69
339.063	9.8
339.273	11.41
339.484	8.7
339.694	6.59
339.905	7.83
340.115	9.47
340.326	10.84
340.536	8.05
340.746	9.47
340.957	10.28
341.167	11.73
341.378	14.73
341.588	13.13
341.799	11.6
342.009	15.73
342.219	16.69
342.43	17.04
342.64	16.28
342.85	16.99
343.061	14.85
343.271	15.4
343.481	15.46
343.691	13.64
343.902	13.5
344.112	14.99
344.322	12.3
344.532	13.57
344.743	12.54
344.953	10.91
345.163	11.11
345.373	14.35
345.583	15.28
345.793	14.62
346.004	14.42
346.214	15.72
346.424	16.02
346.634	17.16
346.844	16.38
347.054	16.4
347.264	16.4
347.474	16.82
347.684	16.03
347.894	15.24
348.104	15.12
348.314	16.66
348.524	14.99
348.734	15.62
348.944	17.25
349.154	16.74
349.364	19.1
349.574	19.06
349.784	16.31
349.994	15.3
350.204	16.63
350.413	15.98
350.623	14.82
350.833	14.54
351.043	12.66
351.253	9.71
351.463	9.75
351.672	7.43
351.882	9.66
352.092	12.9
352.302	13.18
352.511	12.91
352.721	14.72
352.931	15.88
353.141	15.71
353.35	17.13
353.56	18.8
353.77	20.52
353.979	20.96
354.189	19.57
354.399	18.77
354.608	19.3
354.818	17.98
355.027	15.75
355.237	15.36
355.447	17.16
355.656	15.8
355.866	14.29
356.075	12.32
356.285	12.12
356.494	12.65
356.704	12.31
356.913	11.5
357.123	12.52
357.332	13.14
357.542	13.32
357.751	12.83
357.96	14.32
358.17	15.77
358.379	14.77
358.589	14.94
358.798	13.7
359.007	13.53
359.217	14.21
359.426	14.96
359.635	15.85
359.845	16.26
360.054	14.96
360.263	13.93
360.472	13.64
360.682	15.59
360.891	15.64
361.1	17.28
361.309	17
361.519	16.56
361.728	15.57
361.937	15.14
362.146	14.39
362.355	15.89
362.564	15.84
362.774	16.52
362.983	14.82
363.192	15
363.401	13.69
363.61	14.88
363.819	15.25
364.028	15.38
364.237	15.34
364.446	16.48
364.655	15.66
364.864	18.13
365.073	18.61
365.282	18.59
365.491	19.38
365.7	22.09
365.909	22
366.118	22.82
366.327	22.83
366.536	24.62
366.745	24.54
366.954	25.04
367.162	24.81
367.371	25.45
367.58	25.12
367.789	22.97
367.998	19.2
368.207	19.83
368.415	19.53
368.624	19.4
368.833	17.52
369.042	16.93
369.25	16.06
369.459	16.01
369.668	13.56
369.877	12.32
370.085	13.67
370.294	15.26
370.503	12.64
370.711	10.87
370.92	10.01
371.129	9.45
371.337	7.97
371.546	9.46
371.754	8.7
371.963	9.59
372.171	12.52
372.38	12.7
372.589	12.08
372.797	12.74
373.006	13.41
373.214	14.08
373.423	14.54
373.631	16.38
373.84	14.68
374.048	13.4
374.256	13.69
374.465	13
374.673	12.77
374.882	13.48
375.09	16.03
375.298	14.82
375.507	14.88
375.715	14.68
375.923	14.13
376.132	15.69
376.34	17.1
376.548	17.09
376.757	17.67
376.965	17.8
377.173	17.37
377.381	15.53
377.59	16.74
377.798	17.47
378.006	16.5
378.214	16.45
378.423	15.66
378.631	15.58
378.839	15.06
379.047	14.75
379.255	14.94
379.463	13.32
379.671	13.87
379.879	14.22
380.088	14
380.296	14.96
380.504	15.87
380.712	16.15
380.92	15.46
381.128	15.65
381.336	15.75
381.544	14.16
381.752	15.64
381.96	15.93
382.168	15.39
382.376	16.01
382.584	16.07
382.791	15.04
382.999	14.24
383.207	14.7
383.415	13.65
383.623	12.81
383.831	13.05
384.039	13.44
384.247	13.55
384.454	12.9
384.662	12.25
384.87	13.01
385.078	12.53
385.285	13.55
385.493	12.7
385.701	13.92
385.909	14.56
386.116	13.52
386.324	13.44
386.532	12.57
386.739	12.82
386.947	13.05
387.155	12.79
387.362	12.91
387.57	12.77
387.778	12.57
387.985	9.84
388.193	8.15
388.4	9.73
388.608	8.55
388.816	9.54
389.023	9.92
389.231	9.85
389.438	8.7
389.646	7.56
389.853	7.39
390.061	8.08
390.268	10.21
390.475	12.02
390.683	12.46
390.89	12.7
391.098	12.62
391.305	13.43
391.512	13.97
391.72	14.42
391.927	15.78
392.135	16.2
392.342	16.32
392.549	14.87
392.756	13.96
392.964	14.02
393.171	13.93
393.378	13.35
393.586	12.45
393.793	10.79
394	10.93
394.207	11.75
394.414	11.74
394.622	11.47
394.829	12.39
395.036	13.76
395.243	14.07
395.45	13.76
395.657	13.6
395.864	13.63
396.072	13.87
396.279	14.29
396.486	13.94
396.693	13.56
396.9	12.81
397.107	13.51
397.314	12.28
397.521	11.42
397.728	12.09
397.935	12.53
398.142	12.44
398.349	12.42
398.556	10.4
398.763	8.81
398.97	8.05
399.177	8.31
399.383	8.55
399.59	8.22
399.797	7.99
400.004	8.49
400.211	8.82
400.418	8.24
400.625	9.32
400.831	11.02
401.038	11.84
401.245	12.8
401.452	13.43
401.658	12.34
401.865	13.58
402.072	14.57
402.279	14.24
402.485	12.87
402.692	13.58
402.899	12.86
403.105	13.13
403.312	13.43
403.519	14.24
403.725	13.92
403.932	14.82
404.138	14.94
404.345	13.8
404.552	13.41
404.758	15.2
404.965	14.65
405.171	14.83
405.378	14.8
405.584	14.91
405.791	13.99
405.997	14.22
406.204	13.39
406.41	12.71
406.617	13.82
406.823	14.16
407.029	13.7
407.236	14.61
407.442	14.47
407.649	14.22
407.855	13.94
408.061	14.28
408.268	14.45
408.474	14.38
408.68	15.22
408.887	14.61
409.093	14.37
409.299	13.36
409.505	13.03
409.712	13.49
409.918	13.63
410.124	14.36
410.33	12.59
410.537	13.21
410.743	13.36
410.949	11.78
411.155	12.14
411.361	12.48
411.567	13.05
411.773	13.15
411.98	12.69
412.186	12.43
412.392	10.86
412.598	12.38
412.804	11.63
413.01	12.07
413.216	12.6
413.422	12.69
413.628	12.74
413.834	12.38
414.04	12.16
414.246	12.46
414.452	13.08
414.658	13.94
414.864	13.35
415.07	12.25
415.275	12
415.481	11.44
415.687	11.25
415.893	10.58
416.099	11.28
416.305	10.93
416.511	11.3
416.716	10.88
416.922	10.6
417.128	10.95
417.334	11.45
417.539	11.15
417.745	11.46
417.951	11.63
418.157	12.62
418.362	12.21
418.568	12.27
418.774	11.81
418.979	11.38
419.185	11.89
419.391	11.42
419.596	11.58
419.802	11.34
420.008	11.09
420.213	6.43
420.419	5.88
420.624	5.68
420.83	5.67
421.035	5.47
421.241	6.21
421.446	5.81
421.652	5.85
421.857	5.24
422.063	5.81
422.268	5.72
422.474	9.95
422.679	9.67
422.885	10.1
423.09	10.34
423.295	10.62
423.501	10.13
423.706	10.29
423.911	10.71
424.117	11.3
424.322	11.12
424.527	11.68
424.733	12.17
424.938	12.52
425.143	12.27
425.349	11.9
425.554	11.42
425.759	12.13
425.964	12.6
426.169	12.85
426.375	13.1
426.58	13.68
426.785	13.4
426.99	12.83
427.195	12.44
427.4	13.08
427.605	13.59
427.811	14.49
428.016	13.7
428.221	12.69
428.426	11.66
428.631	11.74
428.836	11.63
429.041	12.06
429.246	12.55
429.451	12.86
429.656	12.32
429.861	12.49
430.066	12.34
430.271	12.18
430.476	12.7
430.681	12.95
430.886	12.54
431.09	11.97
431.295	11.78
431.5	11.63
431.705	11.53
431.91	11.26
432.115	11.73
432.32	11.1
432.524	11.76
432.729	11.35
432.934	11.28
433.139	11.65
433.343	11.65
433.548	11.85
433.753	11.59
433.958	11.58
434.162	11.82
434.367	11.44
434.572	11.97
434.776	11.69
434.981	11.89
435.186	11.95
435.39	11.93
435.595	12.33
435.799	11.68
436.004	12.28
436.209	12.21
436.413	11.98
436.618	11.92
436.822	11.97
437.027	11.88
437.231	12.32
437.436	11.88
437.64	11.55
437.845	11.66
438.049	11.73
438.253	11.11
438.458	11.45
438.662	11.42
438.867	11.1
439.071	11.01
439.275	10.68
439.48	9.68
439.684	9.91
439.888	9.87
440.093	9.47
440.297	9.09
440.501	9.46
440.706	9.6
440.91	9.95
441.114	9.77
441.318	9.47
441.523	9.59
441.727	10.11
441.931	10.57
442.135	10.34
442.339	10.64
442.543	11.54
442.748	11.6
442.952	11.24
443.156	10.55
443.36	10.86
443.564	11.49
443.768	11.48
443.972	11.27
444.176	10.87
444.38	11.27
444.584	11.33
444.788	11.38
444.992	11.22
445.196	10.81
445.4	10.92
445.604	10.66
445.808	9.71
446.012	9.73
446.216	9.63
446.42	9.51
446.624	9.55
446.828	9.4
447.032	9.17
447.235	8.99
447.439	9.05
447.643	9.53
447.847	9.79
448.051	10.31
448.254	10
448.458	10.34
448.662	11.34
448.866	10.78
449.069	10.69
449.273	10.17
449.477	10.53
449.681	11.21
449.884	10.88
450.088	10.79
450.292	11.64
450.495	12.29
450.699	12
450.902	11.31
451.106	11.35
451.31	11.37
451.513	11.88
451.717	12.17
451.92	11.75
452.124	11.84
452.327	11.49
452.531	10.85
452.734	10.72
452.938	10.87
453.141	10.53
453.345	11.02
453.548	10.6
453.752	10.77
453.955	10.65
454.158	10.9
454.362	10.54
454.565	11.07
454.769	11.01
454.972	11.17
455.175	10.99
455.379	11.33
455.582	10.8
455.785	11.72
455.988	11.06
456.192	10.98
456.395	11.16
456.598	11.78
456.801	11.31
457.005	11.92
457.208	11.03
457.411	11.34
457.614	11.36
457.817	11.57
458.021	11.42
458.224	11.42
458.427	11.5
458.63	11.67
458.833	11.3
459.036	11.51
459.239	11.38
459.442	11.45
459.645	11.22
459.848	11.57
460.051	11.63
460.254	11.41
460.457	11.43
460.66	11.2
460.863	10.82
461.066	11.06
461.269	10.78
461.472	10.23
461.675	10.25
461.878	10.37
462.081	10.49
462.284	9.84
462.486	9.99
462.689	10.28
462.892	10.65
463.095	10.86
463.298	10.98
463.5	11.87
463.703	11.73
463.906	12.44
464.109	11.99
464.311	11.27
464.514	11.82
464.717	11.95
464.92	12.49
465.122	11.93
465.325	11.49
465.528	11.6
465.73	11.09
465.933	11.79
466.135	11.65
466.338	12.2
466.541	12.33
466.743	12.13
466.946	11.57
467.148	10.95
467.351	11.33
467.553	11.81
467.756	11.21
467.958	11.02
468.161	10.83
468.363	11.26
468.566	11.15
468.768	11.28
468.971	11.31
469.173	12.17
469.375	12.24
469.578	12.28
469.78	12.24
469.983	12.43
470.185	13
470.387	12.7
470.59	12.32
470.792	12.46
470.994	12.63
471.196	13.06
471.399	13.28
471.601	13.33
471.803	13.25
472.005	13.11
472.208	13.15
472.41	13.23
472.612	13.44
472.814	13.33
473.016	14.02
473.218	13.75
473.421	12.72
473.623	12.02
473.825	11.84
474.027	11.77
474.229	11.37
474.431	11.11
474.633	11.13
474.835	11.65
475.037	11.52
475.239	10.96
475.441	11.14
475.643	11.06
475.845	11.31
476.047	11.56
476.249	11.36
476.451	11.62
476.653	11.82
476.855	11.35
477.057	10.55
477.258	10.59
477.46	10.93
477.662	10.73
477.864	11.15
478.066	11.08
478.268	10.74
478.469	10.74
478.671	10.94
478.873	10.89
479.075	10.51
479.276	11.19
479.478	10.64
479.68	11.03
479.882	10.95
480.083	10.96
480.285	10.99
480.487	10.85
480.688	10.77
480.89	10.65
481.091	10.36
481.293	10.26
481.495	9.75
481.696	9.61
481.898	9.09
482.099	8.97
482.301	8.88
482.502	8.73
482.704	8.68
482.905	8.74
483.107	8.54
483.308	8.67
483.51	8.87
483.711	8.91
483.913	9.16
484.114	9.02
484.315	8.99
484.517	9.09
484.718	9.12
484.92	9.35
485.121	9.4
485.322	9.46
485.524	9.4
485.725	9.38
485.926	9.5
486.127	9.3
486.329	9.48
486.53	9.55
486.731	9.72
486.932	9.86
487.134	9.63
487.335	9.38
487.536	9.62
487.737	9.51
487.938	9.45
488.139	9.58
488.341	9.89
488.542	10.05
488.743	10.05
488.944	9.96
489.145	9.76
489.346	10.15
489.547	10.46
489.748	10.27
489.949	10.35
490.15	10.36
490.351	10.15
490.552	10.01
490.753	9.67
490.954	9.86
491.155	9.82
491.356	9.82
491.557	9.77
491.758	9.95
491.959	10.03
492.159	9.93
492.36	9.87
492.561	9.9
492.762	9.99
492.963	10.6
493.164	10.6
493.364	10.42
493.565	10.41
493.766	10.04
493.967	9.82
494.167	9.93
494.368	10.14
494.569	10
494.769	9.99
494.97	9.89
495.171	10.15
495.371	10.56
495.572	10.63
495.773	10.68
495.973	11.11
496.174	11.08
496.375	10.82
496.575	10.85
496.776	11.5
496.976	11.3
497.177	11.35
497.377	10.93
497.578	10.34
497.778	10.73
497.979	10.86
498.179	11.09
498.38	10.97
498.58	11.02
498.78	10.98
498.981	10.53
499.181	10.7
499.382	11.63
499.582	11.81
499.782	12.06
499.983	12.2
500.183	12.04
500.383	11.88
500.584	12.1
500.784	12.52
500.984	12.55
501.184	12.77
501.385	13.27
501.585	12.7
501.785	12.3
501.985	12.09
502.185	12.11
502.386	12.83
502.586	12.94
502.786	12.4
502.986	12.35
503.186	13.02
503.386	13.05
503.586	12.82
503.786	12.82
503.987	13.19
504.187	13.1
504.387	13.32
504.587	13.08
504.787	13
504.987	13.71
505.187	14.12
505.387	13.26
505.587	12.81
505.786	13.08
505.986	13.03
506.186	13.62
506.386	13.55
506.586	13.18
506.786	12.91
506.986	12.78
507.186	12.49
507.386	12.54
507.585	13.31
507.785	13.78
507.985	13.81
508.185	13.79
508.384	13.34
508.584	13.77
508.784	13.5
508.984	14.02
509.183	14.02
509.383	14.1
509.583	13.78
509.782	13.36
509.982	13.56
510.182	13.27
510.381	13.38
510.581	13.05
510.781	12.73
510.98	13.47
511.18	13.17
511.379	13.12
511.579	12.71
511.778	13.12
511.978	13.13
512.177	13.09
512.377	13.24
512.576	13.74
512.776	14.24
512.975	15.08
513.175	14.75
513.374	14.83
513.573	15.12
513.773	15.5
513.972	15.2
514.172	15.37
514.371	15.52
514.57	15.37
514.77	15.3
514.969	15.6
515.168	15.04
515.367	15.4
515.567	15.18
515.766	15
515.965	15.27
516.164	15.3
516.364	15.43
516.563	15.13
516.762	15.33
516.961	14.76
517.16	14.22
517.359	14.32
517.559	14.09
517.758	14.09
517.957	14.11
518.156	14.35
518.355	14.57
518.554	14.6
518.753	14.72
518.952	14.35
519.151	14.57
519.35	15.21
519.549	15.63
519.748	15.76
519.947	16.05
520.146	16.81
520.345	16.93
520.544	16.86
520.743	16.89
520.942	16.71
521.141	17.74
521.339	18.15
521.538	17.98
521.737	18.4
521.936	18.55
522.135	19.25
522.333	18.63
522.532	18.48
522.731	18.48
522.93	18.22
523.129	18.53
523.327	18.27
523.526	18.02
523.725	17.99
523.923	17.16
524.122	17
524.321	16.56
524.519	17
524.718	16.56
524.917	16.47
525.115	16.61
525.314	16.38
525.512	16.15
525.711	15.95
525.909	15.59
526.108	15.39
526.306	15.25
526.505	15.09
526.703	14.47
526.902	14.66
527.1	14.78
527.299	14.81
527.497	14.99
527.696	15.03
527.894	15.21
528.092	15.33
528.291	15.61
528.489	15.98
528.688	16.13
528.886	16.69
529.084	16.79
529.283	16.78
529.481	17.25
529.679	17.26
529.877	17.3
530.076	17.24
530.274	17.59
530.472	17.52
530.67	17.42
530.869	17.53
531.067	17.46
531.265	17.77
531.463	17.84
531.661	17.75
531.859	17.78
532.057	18.16
532.255	18.33
532.454	18.3
532.652	18.23
532.85	18.1
533.048	18.16
533.246	18.28
533.444	18.28
533.642	18.39
533.84	18.43
534.038	18.8
534.236	18.64
534.434	18.87
534.632	19.08
534.83	19.61
535.027	19.8
535.225	19.59
535.423	19.82
535.621	19.78
535.819	20.13
536.017	20.04
536.215	19.7
536.412	20.08
536.61	19.94
536.808	19.82
537.006	19.82
537.203	19.94
537.401	20.32
537.599	20.58
537.797	20.52
537.994	20.24
538.192	20.32
538.39	20.54
538.587	20.29
538.785	20
538.983	19.78
539.18	19.69
539.378	19.32
539.575	19.25
539.773	18.58
539.97	18.61
540.168	18.57
540.366	18.57
540.563	18.37
540.761	18.4
540.958	18.47
541.155	18.67
541.353	18.55
541.55	18.89
541.748	18.97
541.945	19.5
542.143	19.63
542.34	20.32
542.537	20.05
542.735	20.53
542.932	20.35
543.129	20.5
543.327	20.7
543.524	21.2
543.721	20.93
543.919	21.13
544.116	20.85
544.313	20.93
544.51	20.47
544.708	21.18
544.905	20.82
545.102	21.12
545.299	21.38
545.496	21.25
545.693	21.07
545.891	21.43
546.088	21.6
546.285	21.41
546.482	21.5
546.679	21.75
546.876	21.86
547.073	22.83
547.27	22.99
547.467	22.99
547.664	23.35
547.861	23.56
548.058	23.82
548.255	23.57
548.452	24.1
548.649	24.46
548.846	24.54
549.043	24.48
549.24	24.07
549.437	25.07
549.633	25.09
549.83	25.24
550.027	25.23
550.224	25.49
550.421	26.02
550.618	26.44
550.814	26.1
551.011	25.78
551.208	25.73
551.405	25.58
551.601	24.53
551.798	24.73
551.995	24.32
552.191	24.18
552.388	24.02
552.585	24.09
552.781	24.36
552.978	24.38
553.175	24.59
553.371	25.25
553.568	25.41
553.764	25.69
553.961	25.88
554.157	26.24
554.354	27.06
554.55	27.21
554.747	27.15
554.943	26.44
555.14	26.51
555.336	27.19
555.533	26.91
555.729	26.89
555.926	27.03
556.122	28.04
556.318	28.34
556.515	28.29
556.711	28.58
556.907	28.47
557.104	29.19
557.3	29.68
557.496	29.32
557.693	29.28
557.889	29.41
558.085	29.27
558.281	28.37
558.478	28.56
558.674	29
558.87	29.22
559.066	29.16
559.262	29.16
559.459	28.76
559.655	28.35
559.851	27.81
560.047	28.57
560.243	28.53
560.439	28.32
560.635	27.81
560.831	27.51
561.027	27.46
561.223	27.61
561.419	27.61
561.615	28.28
561.811	28.38
562.007	28.76
562.203	28.17
562.399	28.45
562.595	28.95
562.791	29.38
562.987	29.12
563.183	28.43
563.379	28.68
563.575	28.43
563.771	28.38
563.966	27.96
564.162	27.91
564.358	27.74
564.554	27.78
564.75	27.34
564.945	27.39
565.141	27.29
565.337	27.47
565.533	27.47
565.728	27.54
565.924	26.99
566.12	27.48
566.315	27.38
566.511	27.33
566.707	27.55
566.902	27.92
567.098	28.01
567.293	27.65
567.489	27.99
567.684	28.12
567.88	28.12
568.076	28.09
568.271	28.65
568.467	28.92
568.662	28.79
568.858	28.43
569.053	28.82
569.248	29.1
569.444	29.34
569.639	29.09
569.835	28.47
570.03	28.54
570.225	28.54
570.421	27.8
570.616	27.71
570.812	28.07
571.007	28.42
571.202	28.05
571.397	27.76
571.593	28.26
571.788	28.42
571.983	28.58
572.178	29.21
572.374	29.61
572.569	29.95
572.764	30.35
572.959	30.49
573.154	30.29
573.35	30.11
573.545	29.7
573.74	29.18
573.935	29.28
574.13	29.69
574.325	28.79
574.52	29.51
574.715	29.7
574.91	29.85
575.105	30.13
575.3	30.04
575.495	30.25
575.69	30.95
575.885	31.49
576.08	31.62
576.275	31.56
576.47	31.86
576.665	31.5
576.86	32.15
577.055	31.73
577.25	30.76
577.444	30.85
577.639	31.24
577.834	31.22
578.029	31.47
578.224	31.11
578.418	31.3
578.613	31.14
578.808	30.98
579.003	30.31
579.197	30.8
579.392	31.25
579.587	32.34
579.781	31.96
579.976	32.04
580.171	31.57
580.365	31.98
580.56	32.1
580.755	33.41
580.949	33.97
581.144	33.99
581.338	34.65
581.533	35.13
581.727	34.85
581.922	35.49
582.116	35.73
582.311	36.32
582.505	35.95
582.7	36.54
582.894	35.9
583.089	36.1
583.283	36.34
583.478	35.98
583.672	36.06
583.866	35.46
584.061	35.78
584.255	35.56
584.449	35.41
584.644	36.59
584.838	35.66
585.032	35.24
585.226	34.68
585.421	34.62
585.615	33.98
585.809	34.44
586.003	35.03
586.198	34.44
586.392	34.16
586.586	33.03
586.78	31.77
586.974	31.28
587.168	32.3
587.363	32.25
587.557	32.15
587.751	32.08
587.945	31.6
588.139	31.11
588.333	30.58
588.527	30.94
588.721	31.53
588.915	32.15
589.109	32.58
589.303	32.22
589.497	31.88
589.691	31.73
589.885	31.03
590.079	31.52
590.273	32.48
590.466	33.69
590.66	33.41
590.854	33.53
591.048	33.41
591.242	34.14
591.436	32.97
591.629	33.02
591.823	32.77
592.017	34.7
592.211	34.96
592.404	33.61
592.598	33.32
592.792	33.31
592.986	32.87
593.179	32.87
593.373	32.94
593.567	34.3
593.76	34.49
593.954	34.26
594.147	32.9
594.341	32.07
594.535	32.43
594.728	31.86
594.922	32.01
595.115	32.43
595.309	32.18
595.502	31.58
595.696	31
595.889	30.84
596.083	31.15
596.276	31.4
596.47	31.91
596.663	32.31
596.856	32.81
597.05	33.12
597.243	33.26
597.437	33.82
597.63	34.33
597.823	34.87
598.017	35.38
598.21	35.83
598.403	36.41
598.596	35.59
598.79	35.78
598.983	35.81
599.176	35.17
599.369	35.63
599.563	35.61
599.756	35.55
599.949	35.32
600.142	35.72
600.335	35.38
600.528	34.84
600.722	35.41
600.915	34.47
601.108	34.01
601.301	33.83
601.494	33.25
601.687	32.89
601.88	32.17
602.073	32.19
602.266	31.87
602.459	32.16
602.652	32.09
602.845	31.96
603.038	32.23
603.231	32.35
603.424	32.17
603.617	32.25
603.809	32.26
604.002	32.04
604.195	31.55
604.388	31.7
604.581	31.38
604.774	31.74
604.966	31.4
605.159	31.34
605.352	31.78
605.545	31.89
605.737	32.69
605.93	33.07
606.123	35.21
606.316	36.03
606.508	35.84
606.701	35.56
606.894	35.87
607.086	36.83
607.279	36.34
607.471	35.88
607.664	36.59
607.857	35.43
608.049	35.85
608.242	34.39
608.434	34.01
608.627	34.04
608.819	34.79
609.012	34.98
609.204	34.11
609.397	34.37
609.589	34.49
609.782	34.33
609.974	35.23
610.166	34.91
610.359	35.62
610.551	36.77
610.743	36.34
610.936	36.39
611.128	35.76
611.32	35.78
611.513	36.97
611.705	37.62
611.897	37.98
612.09	37.98
612.282	38.45
612.474	39.01
612.666	38.15
612.858	39.75
613.051	39.44
613.243	39.31
613.435	40.07
613.627	39.76
613.819	39.61
614.011	40.36
614.203	41.24
614.395	40.4
614.588	40.19
614.78	41.47
614.972	41.13
615.164	41.65
615.356	42.32
615.548	42.46
615.74	41.44
615.932	40.86
616.124	40.14
616.315	38.84
616.507	39.81
616.699	39.38
616.891	38.93
617.083	38.9
617.275	38.79
617.467	38.88
617.659	38.26
617.85	39.61
618.042	39.83
618.234	39.08
618.426	39.02
618.618	38.67
618.809	38.57
619.001	37.87
619.193	37.04
619.384	36.88
619.576	36.37
619.768	36.6
619.959	35.78
620.151	35.89
620.343	37.12
620.534	36.63
620.726	36.61
620.917	37.18
621.109	37.09
621.301	37.12
621.492	37.06
621.684	38.1
621.875	39.21
622.067	39.47
622.258	39.35
622.45	38.96
622.641	39.22
622.832	39.86
623.024	39.62
623.215	39.5
623.407	39.88
623.598	39.92
623.789	38.79
623.981	37.76
624.172	37.32
624.363	36.62
624.555	36.58
624.746	36.75
624.937	36.62
625.129	36.22
625.32	36.35
625.511	36.15
625.702	35.42
625.893	36.19
626.085	36.73
626.276	36.93
626.467	37.36
626.658	37.76
626.849	37.42
627.04	37.14
627.231	37.58
627.422	38
627.614	38.19
627.805	39.06
627.996	38.22
628.187	37.72
628.378	38.19
628.569	38.71
628.76	38.43
628.951	40.08
629.142	40.12
629.332	39.66
629.523	39.7
629.714	40.5
629.905	40.38
630.096	40.58
630.287	39.78
630.478	40
630.669	40.41
630.859	40.7
631.05	39.9
631.241	40.13
631.432	40.34
631.623	40.29
631.813	38.93
632.004	38.96
632.195	38.87
632.385	40.22
632.576	39.8
632.767	39.63
632.957	39.06
633.148	39.12
633.339	39.08
633.529	38.93
633.72	39.51
633.91	40.49
634.101	40.15
634.292	39.83
634.482	40.14
634.673	39.83
634.863	40.18
635.054	41.32
635.244	41.04
635.435	40.94
635.625	41.04
635.815	40.7
636.006	39.75
636.196	40.86
636.387	42.14
636.577	42.3
636.767	43.04
636.958	43.38
637.148	41.84
637.338	42.38
637.529	42.26
637.719	42.83
637.909	43.45
638.099	42.87
638.29	41.51
638.48	40.68
638.67	39.48
638.86	39.45
639.05	38.21
639.241	37.26
639.431	36.92
639.621	36.19
639.811	36.38
640.001	35.76
640.191	38.25
640.381	39.86
640.571	39.75
640.761	40.84
640.951	40.57
641.141	42.23
641.331	42.72
641.521	43.87
641.711	44.56
641.901	44.32
642.091	43.83
642.281	42.65
642.471	41.5
642.661	42.38
642.851	42.26
643.041	42.08
643.231	40.98
643.42	42.29
643.61	41.98
643.8	41.36
643.99	41.64
644.18	41.27
644.369	40.57
644.559	41.11
644.749	39.84
644.939	39.28
645.128	40.18
645.318	40.08
645.508	39.71
645.697	39.3
645.887	38.72
646.076	38.38
646.266	39.28
646.456	40.79
646.645	42
646.835	43.88
647.024	43.77
647.214	43
647.403	42.92
647.593	42.69
647.782	41.69
647.972	43.57
648.161	44.19
648.351	45.09
648.54	44.76
648.73	44.47
648.919	42.85
649.108	42.45
649.298	42.55
649.487	41.95
649.677	42.04
649.866	42.58
650.055	41.54
650.244	41.69
650.434	41.06
650.623	41.54
650.812	40.82
651.002	42.41
651.191	43.14
651.38	43.12
651.569	44.24
651.758	45.51
651.947	46.08
652.137	45.29
652.326	45.17
652.515	45.27
652.704	46.25
652.893	46.69
653.082	45.79
653.271	46.67
653.46	47.58
653.649	47.21
653.838	46.42
654.027	46.73
654.216	47.66
654.405	47.22
654.594	47.04
654.783	44.96
654.972	45.06
655.161	46.01
655.35	44.72
655.539	44.79
655.728	45.49
655.916	44.7
656.105	44.13
656.294	43.85
656.483	43.82
656.672	43.31
656.86	43.53
657.049	42.71
657.238	41.11
657.427	41.45
657.615	40.7
657.804	40
657.993	40.21
658.181	40.7
658.37	40.9
658.559	40.43
658.747	40.61
658.936	40.73
659.125	40.54
659.313	41.26
659.502	41.5
659.69	41.49
659.879	41.41
660.067	40.73
660.256	39.77
660.444	39.35
660.633	40.1
660.821	39.84
661.01	40.49
661.198	40.59
661.387	40.63
661.575	40.32
661.763	41.75
661.952	40.75
662.14	43.11
662.328	44.14
662.517	45.59
662.705	45.85
662.893	46
663.082	44.88
663.27	45.86
663.458	45.6
663.646	44.89
663.834	43.77
664.023	46.1
664.211	45.24
664.399	44.82
664.587	45.27
664.775	45.03
664.963	44.93
665.152	43.82
665.34	44.02
665.528	43.73
665.716	43.57
665.904	43.5
666.092	42.25
666.28	42.59
666.468	43.11
666.656	42.01
666.844	42.17
667.032	42.56
667.22	45.16
667.408	44.87
667.596	44.83
667.784	45.78
667.971	46.23
668.159	46.52
668.347	46.16
668.535	46.53
668.723	46.63
668.911	46.67
669.098	46.11
669.286	44.89
669.474	45.81
669.662	46.25
669.849	45.87
670.037	44.06
670.225	43.87
670.413	44.27
670.6	44.39
670.788	43.95
670.976	42.85
671.163	43.58
671.351	43.12
671.538	41.61
671.726	42.07
671.913	42.46
672.101	43.97
672.289	44.15
672.476	44.79
672.664	44.41
672.851	46.22
673.039	48.27
673.226	49.04
673.413	49.2
673.601	50.86
673.788	51.58
673.976	50.72
674.163	51.21
674.35	51.58
674.538	51.1
674.725	50.68
674.912	50.11
675.1	48.49
675.287	48.62
675.474	48.27
675.662	47.63
675.849	47.63
676.036	47.65
676.223	46.11
676.411	45.65
676.598	45.37
676.785	45.29
676.972	46.21
677.159	45.37
677.346	45.19
677.533	45.01
677.721	44.13
677.908	43.72
678.095	43.41
678.282	43.03
678.469	43.28
678.656	43.45
678.843	43.81
679.03	42.21
679.217	43.23
679.404	41.95
679.591	42.93
679.778	43.35
679.964	42.88
680.151	43.59
680.338	44.75
680.525	43.64
680.712	43.75
680.899	42.94
681.086	43.69
681.272	44.07
681.459	44.07
681.646	44.82
681.833	43.44
682.02	43.33
682.206	44.58
682.393	45.5
682.58	47.47
682.766	45.76
682.953	46.49
683.14	46.17
683.326	47.26
683.513	47.93
683.7	47.72
683.886	48.94
684.073	47.4
684.259	46.41
684.446	44.55
684.632	44.07
684.819	46.89
685.005	46.38
685.192	45.24
685.378	43.61
685.565	44.13
685.751	43.68
685.938	43.48
686.124	45.01
686.31	46.09
686.497	47.3
686.683	46.83
686.87	45.95
687.056	45.06
687.242	45.25
687.429	44.35
687.615	44.48
687.801	43.98
687.987	44.41
688.174	45.14
688.36	43.68
688.546	43.03
688.732	43.61
688.918	42.43
689.105	44.84
689.291	45.67
689.477	46.88
689.663	47.43
689.849	47.83
690.035	47.71
690.221	47.32
690.407	48.74
690.593	50.34
690.779	50.9
690.965	50.62
691.151	49.56
691.337	49.61
691.523	48.25
691.709	46.57
691.895	47.74
692.081	48.01
692.267	47.68
692.453	47.63
692.639	47.22
692.825	45.1
693.011	46.91
693.196	45.72
693.382	44.89
693.568	44.88
693.754	44.62
693.94	43.67
694.125	42.62
694.311	43.13
694.497	42.7
694.682	43.7
694.868	43.9
695.054	43.55
695.239	42.7
695.425	43.38
695.611	44.92
695.796	44.52
695.982	43.91
696.168	44.1
696.353	43.75
696.539	43.48
696.724	40.79
696.91	40.65
697.095	39.73
697.281	39.76
697.466	39.7
697.652	38.64
697.837	38.48
698.023	37.53
698.208	37.36
698.393	38.77
698.579	38.11
698.764	39.38
698.949	40.11
699.135	40.94
699.32	42.51
699.505	41.92
699.691	42.97
699.876	44.64
700.061	44.96
700.246	44.52
700.432	44.2
700.617	45.43
700.802	43.99
700.987	43.71
701.172	44.36
701.358	42.96
701.543	45.67
701.728	45.34
701.913	45.44
702.098	47.34
702.283	51.05
702.468	48.3
702.653	48.98
702.838	50.14
703.023	52.31
703.208	51.55
703.393	51.59
703.578	49.77
703.763	48.98
703.948	48.66
704.133	48.71
704.318	47.86
704.503	48.75
704.688	48.45
704.873	49.24
705.057	48.22
705.242	47.9
705.427	50.03
705.612	50.73
705.797	52.33
705.981	52.87
706.166	53.02
706.351	52.97
706.536	53.88
706.72	53.39
706.905	52.51
707.09	52.64
707.274	53.15
707.459	53.8
707.644	53.88
707.828	53.5
708.013	53.75
708.197	53.37
708.382	53.21
708.567	52.75
708.751	51.69
708.936	52.55
709.12	53.21
709.305	52.79
709.489	50.65
709.673	53.54
709.858	52.52
710.042	53.59
710.227	52.73
710.411	52.37
710.596	52.78
710.78	54.86
710.964	56.52
711.149	55.65
711.333	53.64
711.517	56.03
711.702	51.43
711.886	52.96
712.07	51.87
712.254	52.78
712.438	53.41
712.623	52.14
712.807	51.87
712.991	49.96
713.175	49.87
713.359	50.41
713.544	48.11
713.728	48.96
713.912	47.43
714.096	47.74
714.28	47.13
714.464	45.96
714.648	45.32
714.832	43.31
715.016	44.76
715.2	43.6
715.384	42.36
715.568	43.32
715.752	43.79
715.936	44.17
716.12	42.58
716.304	42.71
716.488	42.42
716.671	42.98
716.855	44.67
717.039	43.33
717.223	43.9
717.407	46.48
717.59	47.73
717.774	47.82
717.958	48.6
718.142	49.26
718.325	47.56
718.509	48.55
718.693	51.3
718.877	52.65
719.06	53.53
719.244	55.9
719.428	57.43
719.611	56.29
719.795	59.49
719.978	58.89
720.162	56.57
720.345	58.95
720.529	57.81
720.713	56.77
720.896	52.16
721.08	53.47
721.263	48.97
721.446	44.48
721.63	43.32
721.813	39.18
721.997	38.01
722.18	39.86
722.364	39.21
722.547	38.36
722.73	37.04
722.914	40.39
723.097	38.88
723.28	43.16
723.464	47.33
723.647	48.25
723.83	46.38
724.013	49.41
724.197	47.46
724.38	46.83
724.563	46.11
724.746	46.59
724.929	45.91
725.112	46.5
725.296	44.59
725.479	43.73
725.662	43.88
725.845	45.3
726.028	43.03
726.211	42.8
726.394	44.2
726.577	45.17
726.76	44.87
726.943	42.18
727.126	40.77
727.309	42.41
727.492	42.27
727.675	43.64
727.858	44.47
728.041	44.02
728.224	45.87
728.407	45.5
728.589	46.91
728.772	45.37
728.955	46.61
729.138	46.56
729.321	45.77
729.503	45.8
729.686	44.22
729.869	43.09
730.052	44.13
730.234	45.51
730.417	45.74
730.6	44.33
730.782	45.97
730.965	47.73
731.148	47.8
731.33	47.17
731.513	48.53
731.695	48.07
731.878	48.67
732.061	51.3
732.243	51.13
732.426	52.9
732.608	55.13
732.791	53.98
732.973	53.05
733.156	53.04
733.338	53.32
733.52	53.97
733.703	52.46
733.885	52.12
734.068	48.28
734.25	48.37
734.432	50.18
734.615	49.03
734.797	50.88
734.979	51.36
735.162	53.13
735.344	53.52
735.526	53.24
735.708	57.08
735.891	61.36
736.073	63.1
736.255	61.34
736.437	60.53
736.619	61.14
736.802	62.03
736.984	63.65
737.166	64.62
737.348	68.11
737.53	66.45
737.712	65.54
737.894	64.48
738.076	66.2
738.258	67.13
738.44	66.67
738.622	67.69
738.804	66.38
738.986	65.47
739.168	64.66
739.35	62.64
739.532	66.39
739.714	67.59
739.896	65.82
740.078	65.15
740.259	65.04
740.441	65.17
740.623	64.36
740.805	62.41
740.987	64.6
741.168	66.62
741.35	69.88
741.532	69.68
741.714	68.37
741.895	68.84
742.077	67.14
742.259	71.7
742.44	75.89
742.622	77
742.804	81.3
742.985	79.15
743.167	76.91
743.348	74.03
743.53	72.55
743.711	75.44
743.893	76.3
744.075	80.1
744.256	75.81
744.438	71.2
744.619	71.12
744.8	72.26
744.982	73.49
745.163	72.66
745.345	73.97
745.526	79.21
745.707	78.65
745.889	77.65
746.07	73.39
746.252	77.87
746.433	78.98
746.614	80.43
746.795	78.52
746.977	79.72
747.158	81.3
747.339	79.54
747.52	76.43
747.702	75.96
747.883	75.54
748.064	78.27
748.245	77.53
748.426	73.93
748.607	72.96
748.788	73.11
748.97	71.24
749.151	70.38
749.332	69.33
749.513	68.01
749.694	69.65
749.875	70.52
750.056	68.29
750.237	65.18
750.418	69.91
750.599	66.67
750.78	67.51
750.96	69.87
751.141	70.63
751.322	71.96
751.503	73.43
751.684	72.57
751.865	74.1
752.046	75.64
752.226	73.38
752.407	68.43
752.588	70.51
752.769	71.69
752.949	68.64
753.13	73.3
753.311	70.03
753.492	68.19
753.672	67.96
753.853	66.18
754.034	64.5
754.214	71.18
754.395	77.49
754.575	80.81
754.756	78.49
754.937	85.56
755.117	82.68
755.298	84.39
755.478	85.72
755.659	84.47
755.839	85.03
756.02	87.39
756.2	82.88
756.381	80.95
756.561	77
756.741	77.82
756.922	71.55
757.102	69.54
757.283	70.15
757.463	70.04
757.643	70.25
757.823	67.87
758.004	69.74
758.184	69.32
758.364	71.32
758.545	70.01
758.725	68.27
758.905	64.4
759.085	62.75
759.265	64.99
759.446	59.28
759.626	58.61
759.806	52.46
759.986	47
760.166	45.32
760.346	42.94
760.526	43.88
760.706	40.3
760.886	43.94
761.066	42.46
761.246	36.76
761.426	37.77
761.606	38.26
761.786	42.36
761.966	42.56
762.146	41.17
762.326	38.96
762.506	38.96
762.686	39.14
762.866	38.31
763.046	41.97
763.225	44.57
763.405	45.44
763.585	46.54
763.765	43.61
763.945	44.65
764.124	47.12
764.304	52.57
764.484	52.63
764.664	55.03
764.843	56.55
765.023	57.56
765.203	58.96
765.382	62
765.562	60.56
765.741	68.28
765.921	71.97
766.101	76.62
766.28	80.46
766.46	79.62
766.639	81.58
766.819	83.03
766.998	84.84
767.178	83.91
767.357	82.8
767.537	80.5
767.716	79.66
767.896	78.06
768.075	76.95
768.254	71.93
768.434	76.84
768.613	75.73
768.792	75.67
768.972	73.62
769.151	75.39
769.33	80.39
769.51	84.84
769.689	86.59
769.868	85.91
770.047	82.33
770.226	84.51
770.406	84.56
770.585	90.58
770.764	87.73
770.943	92.13
771.122	92.48
771.301	95.08
771.48	95.18
771.66	91.37
771.839	88.89
772.018	88.3
772.197	84.47
772.376	85.04
772.555	81.36
772.734	80.29
772.913	73.76
773.092	66.49
773.271	67.68
773.449	68.52
773.628	74.2
773.807	79.12
773.986	87.56
774.165	98.08
774.344	96.36
774.523	94.59
774.701	95.11
774.88	96.15
775.059	105.51
775.238	99.8
775.417	102.34
775.595	104.4
775.774	99.18
775.953	97.51
776.131	93.91
776.31	95.9
776.489	98
776.667	103.23
776.846	101.2
777.025	98.85
777.203	98.84
777.382	96.09
777.56	98.78
777.739	108.2
777.917	108.85
778.096	107.31
778.274	109.96
778.453	110.23
778.631	102.68
778.81	106.77
778.988	104.04
779.166	105.56
779.345	100.2
779.523	86.87
779.702	83.46
779.88	79.03
780.058	86.19
780.237	82.8
780.415	88.69
780.593	91.67
780.771	92.82
780.95	93.3
781.128	91.14
781.306	97.07
781.484	107.5
781.662	109.25
781.841	110.43
782.019	100.18
782.197	101.72
782.375	102.32
782.553	104.82
782.731	107.23
782.909	112.74
783.087	103.34
783.265	102.81
783.443	98.81
783.621	94.42
783.799	99.28
783.977	103.54
784.155	102.68
784.333	97.64
784.511	95.44
784.689	91.58
784.867	94.19
785.045	102.94
785.223	94.63
785.4	88.16
785.578	91.08
785.756	91.53
785.934	88.77
786.112	82.73
786.289	79.72
786.467	78.72
786.645	76.67
786.823	72.08
787	66.26
787.178	70.77
787.356	75.33
787.533	68.2
787.711	65.53
787.889	63.3
788.066	66.85
788.244	64.02
788.421	62.68
788.599	61.21
788.776	63.2
788.954	68.7
789.131	67.43
789.309	70.05
789.486	79.69
789.664	82.08
789.841	88.59
790.019	95.92
790.196	99.26
790.373	103.67
790.551	124.78
790.728	124.14
790.906	120.72
791.083	146.59
791.26	140.71
791.437	134.73
791.615	131.02
791.792	115.46
791.969	99.2
792.146	106.9
792.324	119.93
792.501	109.1
792.678	104.27
792.855	104.14
793.032	83.78
793.209	77.3
793.387	73.43
793.564	75.19
793.741	78.76
793.918	90.41
794.095	87.42
794.272	83.03
794.449	74.66
794.626	77.93
794.803	79.46
794.98	81.06
795.157	85.68
795.334	91.64
795.511	97.93
795.688	101.53
795.864	88.57
796.041	94.78
796.218	87.78
796.395	94.49
796.572	89.42
796.749	83.11
796.925	81.02
797.102	81.69
797.279	77.32
797.456	67.1
797.632	62.71
797.809	69.05
797.986	69.02
798.162	70.36
798.339	70.77
798.516	71.62
798.692	75.86
798.869	78.53
799.046	79.3
799.222	88.09
799.399	90.87
799.575	97.23
799.752	97.06
799.928	98.63
800.105	102.35
800.281	103.44
800.458	108.53
800.634	101.28
800.811	96.43
800.987	95.66
801.163	85.64
801.34	85.95
801.516	74.64
801.692	66.67
801.869	61.75
802.045	61.35
802.221	61.94
802.398	57.94
802.574	72.82
802.75	73.63
802.926	75.6
803.103	75.48
803.279	83.77
803.455	91.62
803.631	97.52
803.807	103.15
803.983	112.48
804.16	111.16
804.336	109.69
804.512	112.13
804.688	119.38
804.864	112.66
805.04	115.67
805.216	107.51
805.392	99.69
805.568	98.39
805.744	91.17
805.92	78.45
806.096	80.71
806.272	84.78
806.448	83.39
806.623	77.56
806.799	71.62
806.975	88.27
807.151	78.01
807.327	78.27
807.503	80.63
807.678	86.24
807.854	82.73
808.03	81.5
808.206	74.94
808.381	82.43
808.557	98.33
808.733	117.04
808.908	102.03
809.084	99.41
809.26	104.28
809.435	105.73
809.611	97.09
809.787	99.69
809.962	92.44
810.138	81.52
810.313	58.68
810.489	56.39
810.664	51.23
810.84	48.01
811.015	77.65
811.191	72.24
811.366	64.94
811.542	74.06
811.717	79.41
811.892	88.6
812.068	102.36
812.243	105.95
812.419	109.43
812.594	82.16
812.769	69
812.944	59.61
813.12	45.86
813.295	56.88
813.47	48.26
813.645	53.84
813.821	59.17
813.996	69.96
814.171	73.5
814.346	76.78
814.521	79.85
814.697	80.1
814.872	77.78
815.047	98.03
815.222	83.14
815.397	96.11
815.572	93.53
815.747	74.47
815.922	60.74
816.097	62.54
816.272	54.19
816.447	50.17
816.622	48.87
816.797	48.76
816.972	50.83
817.147	53.12
817.322	47.95
817.496	44.78
817.671	49.21
817.846	48.58
818.021	50.76
818.196	44.19
818.371	51.31
818.545	46.82
818.72	49.9
818.895	46.36
819.069	42.74
819.244	38.45
819.419	37.69
819.594	32.68
819.768	33.94
819.943	30.05
820.117	31.63
820.292	28.6
820.467	30.91
820.641	29.25
820.816	28.69
820.99	29.04
821.165	28.84
821.339	28.87
821.514	30.01
821.688	29.55
821.863	32.1
822.037	31.44
822.212	32.85
822.386	33.79
822.56	35.81
822.735	34.75
822.909	35.32
823.084	38.87
823.258	39.03
823.432	41.04
823.606	42.91
823.781	39.41
823.955	43.81
824.129	46.24
824.303	48.22
824.478	48.14
824.652	51.72
824.826	55.93
825	55.67
825.174	54.77
825.348	51.71
825.523	51.43
825.697	53.41
825.871	53.07
826.045	52.77
826.219	52.35
826.393	49.92
826.567	49.49
826.741	44.2
826.915	43.76
827.089	42.85
827.263	43.37
827.437	45.82
827.611	48.97
827.784	46.39
827.958	40.77
828.132	35.85
828.306	35.04
828.48	38.81
828.654	51.88
828.827	50.75
829.001	50.75
829.175	57.49
829.349	51.13
829.522	47.31
829.696	57.24
829.87	69
830.044	69.48
830.217	73.35
830.391	86.56
830.565	63.53
830.738	72.88
830.912	73.97
831.085	82.91
831.259	81.61
831.432	75.52
831.606	68.18
831.779	56
831.953	65.13
832.126	66.79
832.3	63.16
832.473	67.46
832.647	63.36
832.82	65.24
832.994	56.01
833.167	57.68
833.34	55.73
833.514	50.44
833.687	52.89
833.86	50.53
834.034	45.28
834.207	43.85
834.38	44
834.553	47.32
834.727	49.78
834.9	54.37
835.073	53.07
835.246	51.04
835.419	59.56
835.593	65.36
835.766	89.17
835.939	119.57
836.112	125.99
836.285	133.72
836.458	110.07
836.631	80.15
836.804	86.15
836.977	89.79
837.15	96.31
837.323	102.78
837.496	104.71
837.669	95.34
837.842	85.27
838.015	72.73
838.188	62.18
838.361	78.9
838.533	82.34
838.706	81.8
838.879	95.81
839.052	107.88
839.225	104.37
839.398	105.07
839.57	96.95
839.743	102.74
839.916	102.22
840.088	110.28
840.261	89.4
840.434	95.05
840.607	103.81
840.779	87.44
840.952	98.47
841.124	95.97
841.297	115.14
841.47	128.4
841.642	127.55
841.815	166.23
841.987	174.18
842.16	268.4
842.332	235.59
842.505	154.11
842.677	151.45
842.85	115.28
843.022	118.08
843.194	104.71
843.367	82.39
843.539	72.12
843.712	85.84
843.884	76.96
844.056	47.51
844.229	62.02
844.401	96.35
844.573	156.72
844.745	185.94
844.918	225.93
845.09	226.36
845.262	223.73
845.434	240.85
845.606	366.96
845.779	-977.27
845.951	13750
846.123	-1400
846.295	1063.27
846.467	-868.42
846.639	-1486.96
846.811	460.23
846.983	252.31
847.155	331.25
847.327	527.36
847.499	258.56
847.671	216.67
847.843	281.36
848.015	299.03
848.187	268.98
848.359	184.93
848.531	238.75
848.703	361
848.875	410.19
849.047	1857.5
849.218	3500
849.39	-592.59
849.562	13320
849.734	-2596.43
849.905	12014.29
850.077	-1122.97
850.249	-574.29
850.421	1558.73
850.592	908.94
850.764	407.63
850.936	303.15
851.107	366.67
851.279	265.27
851.451	246.74
851.622	375.98
851.794	203.63
851.965	236.81
852.137	208.7
852.308	2188.89
852.48	-26.85
852.651	-93.19
852.823	-202.38
852.994	-1277.78
853.166	4375
853.337	-694.44
853.509	119.6
853.68	5375
853.851	325.56
854.023	221.68
854.194	386.44
854.365	226.89
854.537	183.95
854.708	153.64
854.879	115
855.05	141.08
855.222	179.44
855.393	382.69
855.564	211.3
855.735	156.16
855.906	214.45
856.078	177.63
856.249	140.56
856.42	163.25
856.591	328.4
856.762	-2884.21
856.933	-2400
857.104	-760
857.275	15250
857.446	1020
857.617	-11933.33
857.788	26450
857.959	360.57
858.13	1232.65
858.301	395.93
858.472	311.67
858.643	209.42
858.814	139.09
858.985	90.14
859.155	81.25
859.326	14.85
859.497	111.59
859.668	201.59
859.839	283.93
860.009	99.4
860.18	109.87
860.351	60.4
860.522	79.52
860.692	93.5
860.863	118.73
861.034	88.3
861.204	108.15
861.375	39.53
861.546	85.87
861.716	79.93
861.887	175.09
862.057	629.41
862.228	1300
862.398	-77.39
862.569	-850.98
862.739	-963.64
862.91	793.48
863.08	9328.57
863.251	-3366.67
863.421	-644
863.592	-6137.5
863.762	-488.31
863.932	895.12
864.103	-584.44
864.273	331.58
864.443	230.95
864.614	170.69
864.784	44.62
864.954	67.41
865.125	82.09
865.295	84.03
865.465	110.75
865.635	76.35
865.805	72.38
865.976	76.22
866.146	81.35
866.316	90.2
866.486	73.08
866.656	108.97
866.826	113.43
866.996	108.1
867.166	146.99
867.336	142.37
867.506	149.4
867.676	171.89
867.846	189.24
868.016	146.93
868.186	222.02
868.356	909.64
868.526	460.61
868.696	-2870.59
868.866	-601.49
869.036	-1503.7
869.206	1305.41
869.376	-1722.22
869.545	2180
869.715	2823.81
869.885	-1141.18
870.055	-655.56
870.224	405.17
870.394	558.91
870.564	791.47
870.734	775.89
870.903	388.43
871.073	534.51
871.243	397.31
871.412	341.28
871.582	577.17
871.751	-1968.18
871.921	-201.27
872.091	-26.3
872.26	-53.54
872.43	-87.12
872.599	-189.45
872.769	-171.6
872.938	-254.42
873.108	-242.22
873.277	-522.58
873.446	6007.69
873.616	-722.58
873.785	326.85
873.955	299.36
874.124	310.74
874.293	368.56
874.463	1856.76
874.632	-746.38
874.801	-523.64
874.971	-122.15
875.14	-74.94
875.309	-47.27
875.478	-181.32
875.647	-36.14
875.817	10.53
875.986	-18.25
876.155	7900
876.324	84.09
876.493	66.98
876.662	61.9
876.831	110.47
877	151.26
877.17	199.66
877.339	266.25
877.508	271.89
877.677	0
877.846	-2329.17
878.015	-946.67
878.184	-493.22
878.352	-13783.33
878.521	1111.76
878.69	352.72
878.859	276.77
879.028	197.54
879.197	165.96
879.366	131.26
879.534	92.78
879.703	111.73
879.872	100.8
880.041	79.24
880.21	70.43
880.378	68.7
880.547	53.97
880.716	49.82
880.884	44.83
881.053	47.33
881.222	43.39
881.39	36.73
881.559	33.01
881.727	33.72
881.896	33.71
882.065	24.31
882.233	17.01
882.402	16.48
882.57	2.22
882.739	-2.97
882.907	-7.37
883.076	-13.13
883.244	-1.46
883.412	-10.68
883.581	9.19
883.749	13.2
883.918	27.84
884.086	61.92
884.254	75.75
884.423	86.21
884.591	98.29
884.759	122.22
884.927	132.17
885.096	129.04
885.264	126.47
885.432	103.65
885.6	106.85
885.769	80.27
885.937	69.46
886.105	73.29
886.273	88.44
886.441	89.75
886.609	65.19
886.777	49.03
886.945	57.65
887.113	84.31
887.281	98.48
887.449	94.22
887.617	98.86
887.785	112.53
887.953	120.62
888.121	163.49
888.289	306.67
888.457	775
888.625	372.62
888.793	-794.74
888.961	843.75
889.129	2016.67
889.296	640.62
889.464	900
889.632	663.08
889.8	354.63
889.967	184.91
890.135	145.34
