Data from JASIL_3263_Reflection_1.txt Node
Date: Mon Nov 16 20:54:47 EST 2015
User: Geneva
Spectrometer: USB4E03002
Autoset integration time: false
Trigger mode: 4
Integration Time (sec): 1.000000E-1
Scans to average: 10
Electric dark correction enabled: false
Nonlinearity correction enabled: false
Boxcar width: 5
Stray light correction enabled: false
XAxis mode: Wavelengths
Stop averaging: false
Number of Pixels in Spectrum: 3648
>>>>>Begin Spectral Data<<<<<
177.575	-609.4
177.794	-631.43
178.014	-613.25
178.233	-1031.78
178.452	-1419.28
178.672	-1068.18
178.891	-1347.17
179.11	4043.24
179.33	1359.82
179.549	-6836.36
179.768	1192.37
179.987	1309.68
180.207	841.94
180.426	472.82
180.645	513.84
180.864	950.65
181.084	385.86
181.303	383.33
181.522	775
181.741	2439.44
181.96	554.42
182.179	765.43
182.398	944.44
182.618	871.61
182.837	842.86
183.056	742.46
183.275	461.48
183.494	476.51
183.713	544.2
183.932	421.77
184.151	426.26
184.37	445.96
184.589	361.47
184.808	309.08
185.027	305.48
185.246	389.04
185.465	553.06
185.684	609.38
185.903	2448.28
186.122	825.11
186.341	1079.78
186.56	516.84
186.779	947.15
186.998	1296.15
187.216	1283.46
187.435	1078.44
187.654	994.05
187.873	480.92
188.092	416.55
188.311	368.96
188.53	600.34
188.748	545.34
188.967	1270.4
189.186	650.57
189.405	705.19
189.623	696.76
189.842	647.74
190.061	716.75
190.28	2075.64
190.498	-1998.75
190.717	1500.79
190.936	-2925.42
191.154	-1468.75
191.373	-34433.33
191.592	-17918.18
191.81	-1086.21
192.029	-1567.94
192.248	-495.45
192.466	-440.58
192.685	-478.27
192.904	-662.64
193.122	-406.4
193.341	-907.57
193.559	-885.28
193.778	-930.91
193.996	-1232.06
194.215	45050
194.433	-3945.24
194.652	829.06
194.87	695.67
195.089	605.24
195.307	686.32
195.526	2471.19
195.744	1468.42
195.963	1007.14
196.181	22350
196.399	-1639.32
196.618	9750
196.836	34100
197.055	-1650.82
197.273	-3848.28
197.491	-2612.22
197.71	-4650.98
197.928	2961.25
198.146	5202.38
198.365	-20590
198.583	959.31
198.801	1184.8
199.019	2484.42
199.238	-4311.9
199.456	1850
199.674	767.37
199.892	597.01
200.111	781.54
200.329	765.28
200.547	560.56
200.765	486.39
200.983	517.17
201.202	417.62
201.42	691.73
201.638	468.87
201.856	546.31
202.074	1668.6
202.292	1954.55
202.51	1268.03
202.728	1877.32
202.946	-4707.5
203.165	6390.91
203.383	-2211.34
203.601	-2543.02
203.819	4432
204.037	21270
204.255	2174.23
204.473	917.76
204.691	1318.67
204.909	906.12
205.127	937.67
205.345	1110.23
205.562	908.91
205.78	675.5
205.998	809.39
206.216	705.36
206.434	690.2
206.652	633.03
206.87	477.59
207.088	367.81
207.306	461.02
207.523	438.45
207.741	351.86
207.959	371.38
208.177	376
208.395	293.29
208.612	340.2
208.83	308.01
209.048	352.37
209.266	452.76
209.483	477.88
209.701	383.68
209.919	449.48
210.136	459.64
210.354	1092
210.572	1094.57
210.79	1700
211.007	995.63
211.225	1671.32
211.442	-9614.29
211.66	-2743.06
211.878	-1317.36
212.095	320
212.313	334.55
212.53	453.76
212.748	285.24
212.966	256.34
213.183	236.21
213.401	246.18
213.618	234.17
213.836	249.87
214.053	239.31
214.271	234.11
214.488	1640.34
214.705	904.13
214.923	685.16
215.14	708.54
215.358	558.77
215.575	825.94
215.793	805.48
216.01	1154.6
216.227	429.36
216.445	344.91
216.662	408.17
216.879	421.92
217.097	371.54
217.314	411.82
217.531	481.69
217.749	531.27
217.966	688.67
218.183	564.46
218.4	616.61
218.618	743.31
218.835	771.07
219.052	521.01
219.269	454.55
219.487	665.97
219.704	464.73
219.921	345.08
220.138	261.93
220.355	260.87
220.572	284.43
220.79	291.49
221.007	367.8
221.224	516.11
221.441	444.35
221.658	554.7
221.875	379.27
222.092	404.97
222.309	623.55
222.526	729.44
222.743	646.6
222.96	933.49
223.177	460.72
223.394	487.9
223.611	345.99
223.828	417.94
224.045	458.14
224.262	514.88
224.479	335.3
224.696	257.6
224.913	305.71
225.13	232.19
225.347	178.27
225.564	165.66
225.781	128.17
225.997	121.58
226.214	94.41
226.431	71.7
226.648	61.86
226.865	59.2
227.082	58.35
227.298	46.57
227.515	45.77
227.732	44.58
227.949	42.94
228.165	41.24
228.382	37.06
228.599	36.16
228.816	40.39
229.032	42.28
229.249	42.35
229.466	41.08
229.682	43.34
229.899	43.66
230.116	42.05
230.332	45.1
230.549	49.82
230.765	53.99
230.982	57.45
231.199	58.63
231.415	59.85
231.632	59.72
231.848	62.7
232.065	64.58
232.281	62.38
232.498	70.59
232.714	78.05
232.931	78.84
233.147	75.55
233.364	78.4
233.58	73.59
233.797	83.48
234.013	86.85
234.23	88.93
234.446	97.65
234.662	98.1
234.879	95.77
235.095	90.32
235.312	91.33
235.528	93.91
235.744	97.9
235.961	99.02
236.177	90.11
236.393	96.22
236.61	108.91
236.826	101.29
237.042	105.92
237.258	103.67
237.475	103.01
237.691	101.92
237.907	99.34
238.123	98.62
238.339	91.21
238.556	89.51
238.772	80.74
238.988	66.99
239.204	69.82
239.42	69.27
239.636	65.01
239.853	58.65
240.069	54.78
240.285	54.73
240.501	48.92
240.717	44.93
240.933	39.95
241.149	37.02
241.365	33.53
241.581	28.07
241.797	26.38
242.013	28.08
242.229	29.28
242.445	29.05
242.661	27.79
242.877	27.59
243.093	27.65
243.309	29.73
243.525	28.55
243.741	33
243.957	36.88
244.173	34.03
244.388	31.83
244.604	31.31
244.82	30.32
245.036	26.65
245.252	26.03
245.468	23.46
245.683	20.72
245.899	21.42
246.115	21.15
246.331	20.03
246.547	19.87
246.762	18.57
246.978	18.93
247.194	19.74
247.409	21.23
247.625	22.07
247.841	23.81
248.057	25.97
248.272	25.94
248.488	26.46
248.703	27.38
248.919	29.15
249.135	31.7
249.35	32.49
249.566	34.93
249.782	33.4
249.997	33.3
250.213	33.45
250.428	32.1
250.644	34.02
250.859	31.83
251.075	31.46
251.29	33.46
251.506	33.36
251.721	34.16
251.937	32.36
252.152	32.78
252.368	32.72
252.583	34.25
252.798	36.3
253.014	37.62
253.229	37.62
253.445	39.02
253.66	39.73
253.875	41.65
254.091	46.61
254.306	46.36
254.521	49.49
254.737	50.25
254.952	50.68
255.167	48.18
255.383	45.2
255.598	46.11
255.813	43.87
256.028	40.8
256.244	42.63
256.459	36.91
256.674	33.13
256.889	30.96
257.104	26.81
257.32	24.72
257.535	22.53
257.75	20.62
257.965	17.97
258.18	18.22
258.395	16.21
258.61	14.24
258.826	14.23
259.041	15.36
259.256	15.64
259.471	15.83
259.686	14.82
259.901	15.42
260.116	15.9
260.331	17.47
260.546	17.1
260.761	17.84
260.976	18.15
261.191	19
261.406	18.72
261.621	19.22
261.836	20.24
262.05	23.63
262.265	24.12
262.48	24.74
262.695	24.71
262.91	24.62
263.125	27.52
263.34	29.24
263.555	29.27
263.769	31.74
263.984	31.3
264.199	35.05
264.414	32.66
264.629	31.21
264.843	30.56
265.058	29.29
265.273	29.08
265.488	26.19
265.702	26.2
265.917	25.02
266.132	22.41
266.346	21.83
266.561	18.75
266.776	20.07
266.99	21.37
267.205	21.8
267.42	22.38
267.634	22.85
267.849	23.2
268.063	22.53
268.278	23.76
268.492	24.93
268.707	26.35
268.922	25.53
269.136	24.11
269.351	21.64
269.565	20.73
269.78	20.9
269.994	20.82
270.209	20.64
270.423	20.39
270.637	19.78
270.852	18.87
271.066	18.49
271.281	20.35
271.495	19.53
271.709	21.16
271.924	23.16
272.138	22.43
272.353	22.03
272.567	23
272.781	22.1
272.996	21.26
273.21	21.95
273.424	21.83
273.638	22.19
273.853	24.02
274.067	23.81
274.281	22.3
274.495	23.13
274.71	23.9
274.924	23.33
275.138	24.68
275.352	24.95
275.566	24
275.781	23.58
275.995	22.77
276.209	20.82
276.423	22.63
276.637	22.33
276.851	23.01
277.065	22.34
277.279	22.33
277.493	22.51
277.707	22.5
277.921	23.48
278.135	23.95
278.349	24.09
278.563	25.82
278.777	24.73
278.991	24.35
279.205	23.36
279.419	23.86
279.633	22.84
279.847	22.4
280.061	21.95
280.275	20.94
280.489	19.4
280.703	17.87
280.917	17.25
281.131	15.55
281.344	16.4
281.558	16.62
281.772	15.98
281.986	17.82
282.2	17.66
282.414	17.63
282.627	18.29
282.841	19.25
283.055	21.26
283.269	21.13
283.482	22.37
283.696	21.68
283.91	21.03
284.123	20.95
284.337	19.83
284.551	19.05
284.764	19.87
284.978	18.17
285.192	18.09
285.405	17.45
285.619	17.08
285.833	17.36
286.046	16.73
286.26	16.67
286.473	17.01
286.687	17.43
286.9	18.39
287.114	17.55
287.327	20.15
287.541	19.87
287.754	19.04
287.968	18.3
288.181	17.02
288.395	16.59
288.608	17.51
288.822	17.26
289.035	17.29
289.248	16.34
289.462	16.58
289.675	15.54
289.889	15.67
290.102	14.89
290.315	15.62
290.529	15.76
290.742	15.64
290.955	15.2
291.169	15.42
291.382	14.06
291.595	14.35
291.808	13.88
292.022	13.27
292.235	13.61
292.448	15.66
292.661	15.45
292.875	17.43
293.088	19.16
293.301	18.49
293.514	16.81
293.727	17.37
293.94	16.88
294.153	18.17
294.367	19.33
294.58	17.85
294.793	16.71
295.006	17.53
295.219	16.23
295.432	15.78
295.645	14.97
295.858	15.24
296.071	14.29
296.284	13.77
296.497	12.94
296.71	12.11
296.923	12.96
297.136	12.02
297.349	11.59
297.562	11.43
297.775	11.57
297.988	10.95
298.201	11.84
298.414	11.74
298.626	12.81
298.839	12.19
299.052	12.09
299.265	12.57
299.478	13.88
299.691	13.14
299.903	14.28
300.116	13.93
300.329	15.92
300.542	16.2
300.755	18.02
300.967	18.47
301.18	18.36
301.393	20.06
301.605	19.82
301.818	18.99
302.031	20.39
302.243	19.65
302.456	20.63
302.669	20.38
302.881	20.97
303.094	20.42
303.307	20.37
303.519	22.16
303.732	21.08
303.944	21.16
304.157	21.22
304.37	20.92
304.582	21.03
304.795	20.71
305.007	21.11
305.22	19.13
305.432	18.58
305.645	19.28
305.857	19.43
306.069	20.09
306.282	20.47
306.494	20.62
306.707	20.32
306.919	21.29
307.132	20.67
307.344	20.82
307.556	21.49
307.769	23.54
307.981	22.14
308.193	19.73
308.406	19.45
308.618	18.59
308.83	19.31
309.043	18.91
309.255	18.31
309.467	18.7
309.679	17.78
309.892	17.7
310.104	15.71
310.316	16.29
310.528	16.81
310.74	15.82
310.953	15.98
311.165	16.02
311.377	15.45
311.589	15.56
311.801	14.4
312.013	15.19
312.225	16.41
312.437	16.52
312.649	16.37
312.862	18.37
313.074	17.47
313.286	17.82
313.498	18.32
313.71	17.73
313.922	18.88
314.134	20.47
314.346	20.47
314.558	19.7
314.77	21.08
314.982	20.86
315.193	18.97
315.405	20.75
315.617	19.76
315.829	19.83
316.041	20.79
316.253	19.43
316.465	19.99
316.677	19.48
316.888	21.3
317.1	20.32
317.312	20.5
317.524	19.37
317.736	20
317.947	21.66
318.159	21.91
318.371	22.99
318.583	23.68
318.794	22.33
319.006	22.76
319.218	20.05
319.43	20.55
319.641	21.42
319.853	24.02
320.064	24.4
320.276	24.82
320.488	24.17
320.699	23.51
320.911	24
321.123	25.34
321.334	25.61
321.546	26.07
321.757	25.98
321.969	26.34
322.18	24.37
322.392	23.45
322.603	22
322.815	21.45
323.026	22.12
323.238	21.55
323.449	19.44
323.661	19.21
323.872	18.92
324.083	19.29
324.295	17.59
324.506	18.25
324.718	16.54
324.929	17.13
325.14	17.31
325.352	18.34
325.563	18.5
325.774	19.32
325.986	18.44
326.197	17.63
326.408	18.53
326.62	18.34
326.831	18.18
327.042	20.73
327.253	20.71
327.464	21.46
327.676	19.8
327.887	19.15
328.098	19.12
328.309	20.53
328.52	23.4
328.732	22.67
328.943	24.87
329.154	25.45
329.365	25.23
329.576	25.32
329.787	25.56
329.998	27
330.209	25.17
330.42	25.33
330.631	25.32
330.842	24.59
331.053	24.64
331.264	23.91
331.475	23.55
331.686	23.36
331.897	22.71
332.108	23.08
332.319	22.36
332.53	23.13
332.741	23.81
332.952	22.32
333.163	22.39
333.374	21.18
333.585	20.52
333.795	21.88
334.006	21.3
334.217	21.29
334.428	19.71
334.639	19.27
334.849	19.7
335.06	20.02
335.271	21.72
335.482	20.71
335.692	20.94
335.903	21.75
336.114	20.57
336.325	20.76
336.535	22.08
336.746	23.63
336.957	23.92
337.167	24.4
337.378	24.02
337.589	22.58
337.799	22.67
338.01	23.28
338.22	23.11
338.431	22.81
338.642	22.76
338.852	21.78
339.063	22.27
339.273	22.7
339.484	23.25
339.694	22.99
339.905	23.32
340.115	22.8
340.326	22.74
340.536	22.91
340.746	23.34
340.957	22.84
341.167	23.01
341.378	22.27
341.588	21.13
341.799	21.2
342.009	20.9
342.219	21.59
342.43	22.67
342.64	22.78
342.85	21.45
343.061	20.87
343.271	21.83
343.481	20.75
343.691	19.58
343.902	20.35
344.112	19.23
344.322	18.74
344.532	18.89
344.743	18.25
344.953	17.75
345.163	18.19
345.373	19.03
345.583	19.06
345.793	19.09
346.004	19.99
346.214	19.67
346.424	19.74
346.634	19.94
346.844	20.09
347.054	20.86
347.264	20.64
347.474	21.79
347.684	21.2
347.894	20.97
348.104	21.97
348.314	20.67
348.524	20.98
348.734	20.59
348.944	20.83
349.154	19.71
349.364	19.09
349.574	18.9
349.784	18.08
349.994	17.99
350.204	17.7
350.413	17.5
350.623	18.38
350.833	17.14
351.043	17.45
351.253	17.65
351.463	17.57
351.672	16.87
351.882	17.6
352.092	17.13
352.302	16.78
352.511	16.43
352.721	15.91
352.931	16.05
353.141	17.06
353.35	16.48
353.56	16.8
353.77	17.63
353.979	17.98
354.189	17.37
354.399	17.17
354.608	18.03
354.818	17.37
355.027	17.54
355.237	16.17
355.447	15.77
355.656	15.96
355.866	14.47
356.075	13.77
356.285	13.22
356.494	13.01
356.704	12.92
356.913	12.67
357.123	13.54
357.332	12.22
357.542	12.28
357.751	12.79
357.96	13.59
358.17	13.86
358.379	13.91
358.589	13.7
358.798	14.12
359.007	14.39
359.217	12.85
359.426	12.17
359.635	13.03
359.845	11.96
360.054	11.16
360.263	10.74
360.472	10.78
360.682	11.05
360.891	11.74
361.1	11.87
361.309	11.25
361.519	12.28
361.728	12.97
361.937	12.92
362.146	13.93
362.355	14.28
362.564	14.46
362.774	14.62
362.983	14.52
363.192	14.83
363.401	14.67
363.61	15.76
363.819	15.59
364.028	14.73
364.237	15.04
364.446	14.73
364.655	14.98
364.864	15.1
365.073	16.71
365.282	16.04
365.491	15.26
365.7	15.14
365.909	14.68
366.118	14.51
366.327	15.05
366.536	15.12
366.745	15
366.954	15.33
367.162	15.79
367.371	14.15
367.58	14.62
367.789	15
367.998	14.68
368.207	14.43
368.415	15.31
368.624	15.59
368.833	15.75
369.042	16.35
369.25	16.62
369.459	16.41
369.668	16.1
369.877	16.18
370.085	16.2
370.294	16.21
370.503	16.37
370.711	16.16
370.92	15.81
371.129	16.02
371.337	16.12
371.546	15.01
371.754	14.54
371.963	14.78
372.171	14.68
372.38	15.03
372.589	15.58
372.797	15.58
373.006	15.32
373.214	14.77
373.423	13.91
373.631	14.07
373.84	13.78
374.048	13.15
374.256	13.58
374.465	13.9
374.673	13.04
374.882	12.82
375.09	12.78
375.298	12.49
375.507	12.19
375.715	13.28
375.923	12.4
376.132	12.24
376.34	12.57
376.548	12.49
376.757	12.27
376.965	12.62
377.173	12.31
377.381	12.72
377.59	13.04
377.798	13.27
378.006	12.3
378.214	12.96
378.423	13.05
378.631	12.94
378.839	12.31
379.047	12.55
379.255	12.39
379.463	13
379.671	12.72
379.879	11.98
380.088	12.06
380.296	12.74
380.504	13.22
380.712	13.51
380.92	13.23
381.128	13.41
381.336	13.46
381.544	14.07
381.752	13.08
381.96	12.92
382.168	13.32
382.376	13.3
382.584	12.75
382.791	11.76
382.999	12.24
383.207	12.88
383.415	13.73
383.623	13.16
383.831	12.16
384.039	12.83
384.247	13.45
384.454	14.13
384.662	13.55
384.87	13.08
385.078	13.7
385.285	13.58
385.493	13.5
385.701	12.7
385.909	13.19
386.116	13.56
386.324	13.28
386.532	12.85
386.739	11.58
386.947	12.16
387.155	13.09
387.362	12.81
387.57	12.82
387.778	13.06
387.985	12.87
388.193	12.5
388.4	12.49
388.608	12.83
388.816	11.85
389.023	12.06
389.231	12.66
389.438	12.08
389.646	12.24
389.853	12.07
390.061	11.42
390.268	11.56
390.475	11.59
390.683	11.4
390.89	11.34
391.098	11.2
391.305	11.79
391.512	10.75
391.72	10.35
391.927	10.05
392.135	9.67
392.342	9.37
392.549	9.64
392.756	9.51
392.964	9.7
393.171	9.61
393.378	10.34
393.586	9.58
393.793	9.47
394	9.81
394.207	10.17
394.414	10.17
394.622	10.91
394.829	10.32
395.036	10.4
395.243	10.25
395.45	10.28
395.657	10.67
395.864	11.49
396.072	12.05
396.279	11.54
396.486	11.76
396.693	12.64
396.9	12.35
397.107	12.7
397.314	12.6
397.521	12.86
397.728	13.18
397.935	12.73
398.142	12.11
398.349	12.07
398.556	12.7
398.763	12.35
398.97	11.91
399.177	11.99
399.383	12.4
399.59	12.68
399.797	12.47
400.004	12.29
400.211	12.55
400.418	13.22
400.625	13.85
400.831	14.26
401.038	14.12
401.245	13.81
401.452	13.27
401.658	12.95
401.865	12.5
402.072	12.37
402.279	11.84
402.485	11.62
402.692	10.99
402.899	10.49
403.105	10.24
403.312	10.27
403.519	10.4
403.725	10.3
403.932	9.92
404.138	10.21
404.345	10.48
404.552	10.32
404.758	9.84
404.965	9.64
405.171	9.42
405.378	9.12
405.584	9.11
405.791	9.08
405.997	9.45
406.204	9.44
406.41	9.36
406.617	8.65
406.823	9.25
407.029	9.54
407.236	9.4
407.442	9.76
407.649	9.75
407.855	9.47
408.061	9.6
408.268	9.3
408.474	10.04
408.68	9.23
408.887	9.81
409.093	9.33
409.299	9.12
409.505	9.47
409.712	9.07
409.918	8.83
410.124	8.5
410.33	7.96
410.537	8.32
410.743	7.78
410.949	8.62
411.155	8.53
411.361	8.76
411.567	9
411.773	8.98
411.98	8.61
412.186	8.61
412.392	9.37
412.598	9.16
412.804	9.06
413.01	9.42
413.216	9.03
413.422	9.16
413.628	8.99
413.834	9.3
414.04	9.21
414.246	9.97
414.452	10.5
414.658	10.41
414.864	11.14
415.07	11.35
415.275	11.3
415.481	11.99
415.687	11.82
415.893	11.92
416.099	11.65
416.305	11.85
416.511	11.19
416.716	10.42
416.922	10.08
417.128	9.61
417.334	9.26
417.539	8.61
417.745	8.31
417.951	7.85
418.157	7.43
418.362	7.33
418.568	6.68
418.774	6.59
418.979	6.9
419.185	6.75
419.391	6.85
419.596	6.66
419.802	6.65
420.008	6.27
420.213	8.62
420.419	8.64
420.624	8.48
420.83	8.63
421.035	8.9
421.241	8.52
421.446	8.7
421.652	8.43
421.857	8.3
422.063	8.55
422.268	8.68
422.474	6.66
422.679	6.59
422.885	6.55
423.09	6.64
423.295	6.37
423.501	6.55
423.706	6.4
423.911	6.44
424.117	6.63
424.322	6.51
424.527	6.27
424.733	6.07
424.938	6.47
425.143	6.44
425.349	6.32
425.554	6.6
425.759	6.66
425.964	6.64
426.169	6.77
426.375	6.88
426.58	6.68
426.785	7.05
426.99	7.43
427.195	7.28
427.4	7.32
427.605	7.93
427.811	7.54
428.016	7.51
428.221	8
428.426	8.13
428.631	8.58
428.836	9.1
429.041	9.02
429.246	8.99
429.451	8.88
429.656	9.24
429.861	8.67
430.066	8.85
430.271	9.02
430.476	8.59
430.681	8.59
430.886	8.07
431.09	7.98
431.295	8.01
431.5	7.5
431.705	7.46
431.91	7.23
432.115	7.14
432.32	7.37
432.524	7.34
432.729	7.08
432.934	6.77
433.139	6.56
433.343	6.47
433.548	6.43
433.753	6.65
433.958	6.83
434.162	6.77
434.367	6.94
434.572	6.58
434.776	6.73
434.981	7.12
435.186	7.21
435.39	7.48
435.595	7.76
435.799	7.36
436.004	7.18
436.209	6.9
436.413	6.88
436.618	7.19
436.822	7.76
437.027	7.27
437.231	6.67
437.436	6.81
437.64	6.58
437.845	6.55
438.049	6.8
438.253	6.84
438.458	6.84
438.662	6.98
438.867	6.9
439.071	6.49
439.275	6.63
439.48	7.01
439.684	7.01
439.888	7.03
440.093	7.08
440.297	6.95
440.501	7.23
440.706	7.22
440.91	7.31
441.114	7.01
441.318	7.36
441.523	7.38
441.727	7.22
441.931	7.15
442.135	6.98
442.339	6.8
442.543	7.17
442.748	7.24
442.952	7.47
443.156	7.28
443.36	7.52
443.564	7.44
443.768	7.13
443.972	7.69
444.176	7.33
444.38	7.61
444.584	7.42
444.788	6.98
444.992	6.74
445.196	6.66
445.4	6.8
445.604	6.54
445.808	6.45
446.012	6.64
446.216	6.23
446.42	6.37
446.624	6.66
446.828	6.42
447.032	6.59
447.235	6.7
447.439	6.62
447.643	6.51
447.847	6.59
448.051	6.56
448.254	6.56
448.458	6.52
448.662	6.49
448.866	6.09
449.069	6.55
449.273	6.68
449.477	6.43
449.681	6.46
449.884	6.46
450.088	6.51
450.292	6.33
450.495	6.44
450.699	6.63
450.902	7.05
451.106	7.17
451.31	7.28
451.513	7.24
451.717	7.33
451.92	7.36
452.124	7.27
452.327	7.49
452.531	7.62
452.734	7.63
452.938	7.38
453.141	7.22
453.345	7.16
453.548	6.87
453.752	6.63
453.955	7.07
454.158	6.69
454.362	6.68
454.565	6.84
454.769	7.06
454.972	7.37
455.175	7.64
455.379	7.79
455.582	7.46
455.785	7.67
455.988	7.84
456.192	7.41
456.395	7.92
456.598	7.81
456.801	7.6
457.005	7.32
457.208	6.91
457.411	6.86
457.614	6.57
457.817	6.84
458.021	6.48
458.224	6.46
458.427	6.24
458.63	6.03
458.833	5.78
459.036	5.52
459.239	5.3
459.442	5.19
459.645	5.23
459.848	5.29
460.051	5.16
460.254	5.31
460.457	5.2
460.66	5.3
460.863	5.22
461.066	5.41
461.269	5.63
461.472	5.83
461.675	5.91
461.878	6.16
462.081	6.43
462.284	6.52
462.486	6.61
462.689	6.81
462.892	6.89
463.095	7.17
463.298	7.3
463.5	7.07
463.703	7.11
463.906	6.99
464.109	6.69
464.311	6.68
464.514	6.84
464.717	6.8
464.92	6.63
465.122	6.69
465.325	6.33
465.528	6.4
465.73	6.25
465.933	6.29
466.135	6.73
466.338	6.61
466.541	6.4
466.743	6.23
466.946	6.42
467.148	6.89
467.351	7.17
467.553	7.45
467.756	7.61
467.958	8
468.161	7.8
468.363	7.46
468.566	7.35
468.768	7.52
468.971	7.64
469.173	7.51
469.375	7.1
469.578	6.77
469.78	6.66
469.983	6.28
470.185	6.6
470.387	7.16
470.59	7.32
470.792	7.61
470.994	7.14
471.196	7.02
471.399	7.09
471.601	7.03
471.803	7.03
472.005	7.05
472.208	7.09
472.41	6.53
472.612	6.46
472.814	6.33
473.016	6.51
473.218	6.67
473.421	6.74
473.623	6.35
473.825	6.4
474.027	6.39
474.229	6.21
474.431	6.71
474.633	7.04
474.835	7.04
475.037	7.22
475.239	6.95
475.441	7.27
475.643	7.46
475.845	7.52
476.047	7.5
476.249	7.55
476.451	7.65
476.653	7.25
476.855	7.17
477.057	6.96
477.258	6.96
477.46	7
477.662	6.71
477.864	6.35
478.066	6.44
478.268	6.4
478.469	5.9
478.671	5.57
478.873	5.64
479.075	5.33
479.276	5.41
479.478	5.05
479.68	4.86
479.882	4.83
480.083	4.84
480.285	4.7
480.487	4.84
480.688	5.43
480.89	5.62
481.091	5.55
481.293	5.69
481.495	5.4
481.696	5.47
481.898	5.44
482.099	5.31
482.301	5.17
482.502	5.12
482.704	4.8
482.905	4.51
483.107	4.4
483.308	4.21
483.51	3.99
483.711	3.95
483.913	3.85
484.114	3.76
484.315	3.74
484.517	3.69
484.718	3.66
484.92	3.66
485.121	3.65
485.322	3.67
485.524	3.71
485.725	3.95
485.926	3.86
486.127	3.89
486.329	3.87
486.53	3.88
486.731	3.92
486.932	3.85
487.134	3.94
487.335	3.98
487.536	3.93
487.737	3.93
487.938	3.8
488.139	3.87
488.341	3.74
488.542	3.92
488.743	4.04
488.944	4.07
489.145	4.14
489.346	4.23
489.547	4.25
489.748	4.48
489.949	4.52
490.15	4.59
490.351	4.77
490.552	4.83
490.753	4.6
490.954	4.45
491.155	4.36
491.356	4.41
491.557	4.47
491.758	4.44
491.959	4.29
492.159	4.53
492.36	4.55
492.561	4.44
492.762	4.62
492.963	4.8
493.164	4.89
493.364	5.12
493.565	5.25
493.766	5.29
493.967	5.56
494.167	5.72
494.368	5.45
494.569	5.24
494.769	5.36
494.97	5.5
495.171	5.55
495.371	5.82
495.572	5.84
495.773	5.66
495.973	5.67
496.174	5.57
496.375	5.68
496.575	5.99
496.776	6
496.976	5.88
497.177	5.85
497.377	6.09
497.578	5.95
497.778	6.05
497.979	6.23
498.179	5.9
498.38	6.1
498.58	6.18
498.78	5.87
498.981	6.25
499.181	6.72
499.382	6.81
499.582	6.54
499.782	6.56
499.983	6.52
500.183	6.53
500.383	6.75
500.584	6.34
500.784	6.24
500.984	6.45
501.184	6.03
501.385	5.64
501.585	5.55
501.785	5.72
501.985	5.91
502.185	6.22
502.386	6.05
502.586	5.84
502.786	5.95
502.986	5.88
503.186	5.95
503.386	6.22
503.586	6.34
503.786	6.49
503.987	6.51
504.187	6.36
504.387	6.19
504.587	6.31
504.787	6.7
504.987	7.08
505.187	7.09
505.387	7.06
505.587	6.93
505.786	6.81
505.986	6.81
506.186	6.6
506.386	6.66
506.586	6.71
506.786	6.83
506.986	6.58
507.186	6.36
507.386	6.45
507.585	6.55
507.785	6.71
507.985	6.9
508.185	6.67
508.384	6.79
508.584	6.87
508.784	6.62
508.984	6.49
509.183	6.61
509.383	6.66
509.583	6.46
509.782	6.49
509.982	6.78
510.182	6.5
510.381	6.73
510.581	6.96
510.781	6.84
510.98	6.88
511.18	6.94
511.379	6.97
511.579	6.93
511.778	6.96
511.978	7.02
512.177	6.85
512.377	6.84
512.576	6.69
512.776	6.56
512.975	6.52
513.175	6.7
513.374	6.94
513.573	7.06
513.773	7.13
513.972	7.32
514.172	7.3
514.371	7.42
514.57	7.96
514.77	8.05
514.969	8.26
515.168	8.45
515.367	8.61
515.567	8.68
515.766	8.85
515.965	8.96
516.164	8.92
516.364	8.99
516.563	8.8
516.762	8.45
516.961	8.39
517.16	8.34
517.359	8.23
517.559	8.1
517.758	8.12
517.957	8.06
518.156	8.23
518.355	8.26
518.554	8.26
518.753	8.29
518.952	8.45
519.151	8.51
519.35	8.54
519.549	8.68
519.748	8.92
519.947	8.74
520.146	9.04
520.345	8.97
520.544	9.15
520.743	9.16
520.942	9.48
521.141	9.54
521.339	9.83
521.538	9.81
521.737	9.98
521.936	9.85
522.135	9.85
522.333	9.76
522.532	9.73
522.731	9.63
522.93	9.5
523.129	9.07
523.327	9.14
523.526	9.16
523.725	9.24
523.923	9.23
524.122	9.21
524.321	9.12
524.519	8.96
524.718	9.09
524.917	9.04
525.115	8.99
525.314	9.17
525.512	8.99
525.711	8.91
525.909	8.82
526.108	8.71
526.306	8.58
526.505	8.68
526.703	8.5
526.902	8.32
527.1	8.23
527.299	8.24
527.497	8.09
527.696	8.17
527.894	8.14
528.092	7.99
528.291	8.05
528.489	8.11
528.688	8.01
528.886	7.99
529.084	7.98
529.283	8.1
529.481	8.08
529.679	8.22
529.877	8.16
530.076	8.14
530.274	8.38
530.472	8.48
530.67	8.61
530.869	8.82
531.067	8.98
531.265	9.12
531.463	9.17
531.661	9.29
531.859	9.31
532.057	9.4
532.255	9.5
532.454	9.33
532.652	9.17
532.85	9.07
533.048	9.09
533.246	9.19
533.444	9.24
533.642	9.28
533.84	9.38
534.038	9.3
534.236	9.47
534.434	9.35
534.632	9.55
534.83	9.68
535.027	9.94
535.225	9.96
535.423	10.09
535.621	10.11
535.819	10.08
536.017	9.83
536.215	9.85
536.412	9.83
536.61	10.02
536.808	10.05
537.006	10.08
537.203	10.22
537.401	10.47
537.599	10.47
537.797	10.63
537.994	10.51
538.192	10.89
538.39	11.22
538.587	11.07
538.785	11.2
538.983	11.16
539.18	11.14
539.378	10.89
539.575	10.68
539.773	10.57
539.97	10.41
540.168	10.51
540.366	10.27
540.563	10.22
540.761	10.25
540.958	10.19
541.155	10.32
541.353	10.27
541.55	10.18
541.748	10.21
541.945	10.31
542.143	10.22
542.34	10.3
542.537	10.43
542.735	10.28
542.932	10.36
543.129	10.37
543.327	10.44
543.524	10.66
543.721	10.7
543.919	10.82
544.116	10.94
544.313	11.13
544.51	11.08
544.708	11.35
544.905	11.61
545.102	11.71
545.299	12
545.496	11.94
545.693	12.04
545.891	12.27
546.088	12.42
546.285	12.37
546.482	12.59
546.679	12.66
546.876	12.65
547.073	12.79
547.27	12.68
547.467	12.6
547.664	12.52
547.861	12.51
548.058	12.59
548.255	12.5
548.452	12.79
548.649	13.13
548.846	13.42
549.043	13.75
549.24	13.98
549.437	14.25
549.633	14.38
549.83	14.41
550.027	14.32
550.224	14.11
550.421	14.34
550.618	14.38
550.814	13.8
551.011	13.98
551.208	13.52
551.405	13.7
551.601	13.4
551.798	13.3
551.995	13.29
552.191	13.55
552.388	13.72
552.585	13.8
552.781	13.68
552.978	14.15
553.175	13.87
553.371	14.19
553.568	13.98
553.764	14.38
553.961	14.49
554.157	14.92
554.354	14.72
554.55	14.88
554.747	14.7
554.943	14.42
555.14	14.24
555.336	14.58
555.533	14.67
555.729	15.01
555.926	15.32
556.122	15.59
556.318	15.8
556.515	15.93
556.711	15.9
556.907	16.11
557.104	16.49
557.3	16.44
557.496	16.51
557.693	16.52
557.889	16.75
558.085	17.03
558.281	17.31
558.478	16.73
558.674	16.64
558.87	16.56
559.066	16.46
559.262	16.14
559.459	16.32
559.655	16.36
559.851	16.39
560.047	15.84
560.243	15.54
560.439	15.47
560.635	15.82
560.831	16.16
561.027	16.39
561.223	16.52
561.419	16.8
561.615	16.95
561.811	16.73
562.007	16.81
562.203	16.97
562.399	16.55
562.595	16.29
562.791	16.35
562.987	16.64
563.183	16.67
563.379	16.66
563.575	16.68
563.771	16.36
563.966	16.58
564.162	16.54
564.358	16.58
564.554	17.03
564.75	17.15
564.945	17
565.141	16.55
565.337	16.7
565.533	16.79
565.728	16.67
565.924	16.95
566.12	16.69
566.315	16.31
566.511	16.02
566.707	15.9
566.902	15.98
567.098	16.21
567.293	16.42
567.489	16.11
567.684	15.83
567.88	16.02
568.076	15.99
568.271	16.06
568.467	16.4
568.662	16.59
568.858	17.05
569.053	16.83
569.248	16.82
569.444	16.79
569.639	17.11
569.835	17.44
570.03	17.19
570.225	16.94
570.421	17.16
570.616	17.3
570.812	17.43
571.007	17.03
571.202	16.98
571.397	16.75
571.593	16.78
571.788	16.76
571.983	16.56
572.178	16.85
572.374	17.12
572.569	17.05
572.764	17.15
572.959	17.33
573.154	17.42
573.35	17.82
573.545	18.26
573.74	18.28
573.935	18.1
574.13	18.13
574.325	18.02
574.52	17.89
574.715	17.93
574.91	17.75
575.105	17.56
575.3	17.74
575.495	17.46
575.69	17.28
575.885	17.49
576.08	18.02
576.275	18.62
576.47	18.76
576.665	18.81
576.86	18.88
577.055	18.98
577.25	19.13
577.444	18.81
577.639	19.1
577.834	19.23
578.029	19.13
578.224	18.8
578.418	18.49
578.613	18.64
578.808	19.18
579.003	19.33
579.197	19.45
579.392	19.53
579.587	19.59
579.781	19.62
579.976	19.68
580.171	19.48
580.365	19.39
580.56	19.05
580.755	18.97
580.949	19.09
581.144	19.41
581.338	19.3
581.533	19.06
581.727	19.41
581.922	19.2
582.116	19.48
582.311	19.62
582.505	20.12
582.7	20.16
582.894	20.48
583.089	20.17
583.283	20.16
583.478	20.67
583.672	20.78
583.866	20.77
584.061	20.79
584.255	20.71
584.449	20.75
584.644	20.56
584.838	21.18
585.032	21.42
585.226	21.36
585.421	21.65
585.615	21.33
585.809	21.73
586.003	21.4
586.198	21.91
586.392	21.68
586.586	21.99
586.78	22.13
586.974	21.96
587.168	21.58
587.363	21.59
587.557	21.14
587.751	21.1
587.945	20.95
588.139	21.5
588.333	21.26
588.527	21.36
588.721	21.44
588.915	21.38
589.109	21.39
589.303	21.54
589.497	21.32
589.691	21.7
589.885	21.51
590.079	21.38
590.273	21.26
590.466	21.06
590.66	20.9
590.854	20.75
591.048	20.5
591.242	20.49
591.436	20.16
591.629	20.45
591.823	20.11
592.017	20.47
592.211	21.17
592.404	21.25
592.598	20.82
592.792	20.75
592.986	20.74
593.179	20.62
593.373	20.33
593.567	20.6
593.76	20.32
593.954	20.24
594.147	20.26
594.341	19.41
594.535	19.47
594.728	20.04
594.922	20.04
595.115	19.9
595.309	19.83
595.502	20.08
595.696	19.9
595.889	19.99
596.083	19.91
596.276	19.86
596.47	20.2
596.663	20.25
596.856	20.27
597.05	20.32
597.243	20.2
597.437	20.63
597.63	20.68
597.823	20.93
598.017	21.28
598.21	21.42
598.403	21.65
598.596	21.97
598.79	22.22
598.983	22.22
599.176	22.2
599.369	22.36
599.563	22.07
599.756	21.97
599.949	22.11
600.142	22.18
600.335	22.34
600.528	22.17
600.722	21.82
600.915	21.41
601.108	21.81
601.301	22.1
601.494	22.43
601.687	22.91
601.88	22.66
602.073	22.5
602.266	21.75
602.459	22.01
602.652	21.54
602.845	21.61
603.038	21.7
603.231	21.4
603.424	21.17
603.617	20.91
603.809	20.66
604.002	20.65
604.195	20.44
604.388	20.71
604.581	20.46
604.774	20.96
604.966	20.46
605.159	20.39
605.352	19.98
605.545	19.9
605.737	19.92
605.93	20.27
606.123	20.65
606.316	20.65
606.508	21.08
606.701	21
606.894	21.03
607.086	21.73
607.279	21.92
607.471	22.45
607.664	22.74
607.857	22.91
608.049	22.53
608.242	22.53
608.434	22.6
608.627	22.31
608.819	22.15
609.012	22.15
609.204	21.94
609.397	21.86
609.589	22.2
609.782	22.27
609.974	22.17
610.166	21.88
610.359	21.68
610.551	21.96
610.743	22.34
610.936	22.68
611.128	22.63
611.32	22.93
611.513	22.91
611.705	22.77
611.897	23.03
612.09	22.96
612.282	23.66
612.474	24.03
612.666	24.31
612.858	24.57
613.051	24.86
613.243	24.87
613.435	25.23
613.627	25.67
613.819	25.68
614.011	26.05
614.203	26.6
614.395	26.41
614.588	26.79
614.78	27.06
614.972	26.51
615.164	26.16
615.356	25.79
615.548	25.44
615.74	25.8
615.932	25.64
616.124	25.01
616.315	24.9
616.507	25.57
616.699	25.11
616.891	24.71
617.083	25.2
617.275	24.9
617.467	25.25
617.659	25.47
617.85	24.84
618.042	25.36
618.234	25.61
618.426	25.5
618.618	24.48
618.809	24.48
619.001	24.42
619.193	23.82
619.384	24.73
619.576	25.27
619.768	25.28
619.959	24.51
620.151	24.25
620.343	24.22
620.534	24.34
620.726	24.6
620.917	24.98
621.109	24.67
621.301	25.47
621.492	25.59
621.684	25.91
621.875	26.2
622.067	27.05
622.258	26.42
622.45	26.57
622.641	26.45
622.832	26.3
623.024	25.67
623.215	25.96
623.407	25.01
623.598	25.09
623.789	24.03
623.981	23.76
624.172	23.02
624.363	23.33
624.555	22.87
624.746	22.94
624.937	23.37
625.129	23.45
625.32	23.43
625.511	24.14
625.702	23.41
625.893	24.02
626.085	23.55
626.276	24.03
626.467	23.85
626.658	24.65
626.849	24.41
627.04	24.15
627.231	24.29
627.422	24.22
627.614	24.4
627.805	24.35
627.996	23.78
628.187	24.22
628.378	24.64
628.569	24.8
628.76	25.04
628.951	25.2
629.142	25.22
629.332	25.24
629.523	25.3
629.714	25.08
629.905	25.75
630.096	26.14
630.287	26.14
630.478	25.7
630.669	26.3
630.859	25.63
631.05	25.47
631.241	25.41
631.432	25.29
631.623	25.86
631.813	25.8
632.004	25.49
632.195	25.1
632.385	24.75
632.576	25.2
632.767	25.05
632.957	24.74
633.148	25.38
633.339	25.69
633.529	25.94
633.72	25.42
633.91	25.33
634.101	25.66
634.292	26.14
634.482	26.44
634.673	26.27
634.863	26.15
635.054	25.98
635.244	25.18
635.435	25.32
635.625	25.96
635.815	25.7
636.006	25.84
636.196	25.79
636.387	25.77
636.577	25.87
636.767	25.46
636.958	25.66
637.148	26.23
637.338	27.23
637.529	27.08
637.719	26.71
637.909	27.04
638.099	26.96
638.29	26.66
638.48	26.79
638.67	26.7
638.86	27.32
639.05	27.04
639.241	27.56
639.431	27.13
639.621	27.36
639.811	27.08
640.001	27.27
640.191	27.25
640.381	27.33
640.571	27.29
640.761	27.67
640.951	27.36
641.141	27.77
641.331	27.49
641.521	27.52
641.711	28.08
641.901	28.54
642.091	28.84
642.281	29.45
642.471	29.74
642.661	30
642.851	29.61
643.041	29.33
643.231	29.3
643.42	28.79
643.61	29.85
643.8	29.75
643.99	29.06
644.18	28.93
644.369	28.08
644.559	28.06
644.749	28.03
644.939	28.3
645.128	29.09
645.318	29.26
645.508	29.4
645.697	29.22
645.887	28.46
646.076	28.4
646.266	28.19
646.456	27.89
646.645	28.48
646.835	27.39
647.024	26.87
647.214	26.86
647.403	26.06
647.593	26.05
647.782	25.28
647.972	25.56
648.161	25.97
648.351	26.71
648.54	27.76
648.73	27.06
648.919	27.73
649.108	27.72
649.298	27.72
649.487	28.11
649.677	28.95
649.866	28.85
650.055	29.31
650.244	29.43
650.434	28.02
650.623	27.9
650.812	28.64
651.002	28.98
651.191	29.12
651.38	28.3
651.569	28.05
651.758	28.03
651.947	28.08
652.137	27.47
652.326	27.24
652.515	27.81
652.704	28
652.893	27.19
653.082	26.94
653.271	26.89
653.46	27.22
653.649	27.61
653.838	26.58
654.027	27.02
654.216	27.45
654.405	27.73
654.594	27.78
654.783	27.72
654.972	28.31
655.161	28.68
655.35	28.6
655.539	28.42
655.728	28.92
655.916	28.49
656.105	28.54
656.294	27.75
656.483	28.02
656.672	28.01
656.86	26.78
657.049	26.29
657.238	25.63
657.427	25.69
657.615	25.71
657.804	25.3
657.993	25.13
658.181	24.13
658.37	25.3
658.559	24.81
658.747	24.75
658.936	25.43
659.125	26.45
659.313	26.95
659.502	27.11
659.69	27.14
659.879	26.88
660.067	27.26
660.256	27.55
660.444	27.22
660.633	27.73
660.821	27.85
661.01	27.88
661.198	26.76
661.387	27.04
661.575	27.07
661.763	27.69
661.952	27.99
662.14	28.38
662.328	28.82
662.517	28.4
662.705	27.46
662.893	27.89
663.082	27.94
663.27	27.75
663.458	26.82
663.646	27.26
663.834	27.68
664.023	27.79
664.211	28.51
664.399	29.15
664.587	29.08
664.775	29.4
664.963	29.46
665.152	29.36
665.34	30.08
665.528	30.14
665.716	29.39
665.904	29
666.092	29
666.28	28.73
666.468	29.16
666.656	29.26
666.844	30.08
667.032	29.66
667.22	30.15
667.408	29.7
667.596	29.98
667.784	31.14
667.971	31.03
668.159	31.23
668.347	30.84
668.535	29.94
668.723	28.96
668.911	28.82
669.098	29.36
669.286	29.02
669.474	28.94
669.662	29.74
669.849	29.75
670.037	29.81
670.225	29.72
670.413	29.44
670.6	29.76
670.788	31.39
670.976	31.33
671.163	31.22
671.351	31.78
671.538	31.52
671.726	31.2
671.913	30.74
672.101	30.34
672.289	30.55
672.476	30.65
672.664	30.6
672.851	30.4
673.039	29.79
673.226	29.21
673.413	29.65
673.601	29.86
673.788	30.48
673.976	30.12
674.163	30.72
674.35	29.39
674.538	30.5
674.725	30.49
674.912	30.65
675.1	31.51
675.287	31.14
675.474	30.62
675.662	31.2
675.849	31.12
676.036	30.68
676.223	30.8
676.411	32.34
676.598	31.96
676.785	32.78
676.972	32.57
677.159	32.63
677.346	33.74
677.533	32.97
677.721	32.83
677.908	31.97
678.095	32.9
678.282	32.48
678.469	31.33
678.656	30.63
678.843	29.71
679.03	29.27
679.217	28.76
679.404	28.8
679.591	29.14
679.778	29.23
679.964	29.15
680.151	28.97
680.338	29.34
680.525	30.16
680.712	30.28
680.899	30.19
681.086	29.88
681.272	29.62
681.459	29.97
681.646	30.06
681.833	29.63
682.02	29.91
682.206	30.58
682.393	30.75
682.58	30.12
682.766	30.21
682.953	30.96
683.14	31.36
683.326	32.91
683.513	32.27
683.7	32
683.886	32.6
684.073	32.89
684.259	32.22
684.446	31.96
684.632	31.99
684.819	32.44
685.005	32.79
685.192	32.78
685.378	32.57
685.565	32.82
685.751	32.59
685.938	32.65
686.124	32.39
686.31	32.77
686.497	33.13
686.683	33.77
686.87	33.94
687.056	32.5
687.242	33.25
687.429	32.82
687.615	31.57
687.801	32.56
687.987	32.26
688.174	32.94
688.36	32.91
688.546	32.33
688.732	32.76
688.918	32.92
689.105	33.79
689.291	34.07
689.477	34.02
689.663	35.15
689.849	35.43
690.035	35.76
690.221	35.09
690.407	34.98
690.593	35.27
690.779	35.07
690.965	34.34
691.151	34.12
691.337	33.24
691.523	34.17
691.709	33.31
691.895	33.13
692.081	33.19
692.267	32.69
692.453	32.78
692.639	32.56
692.825	32.12
693.011	33.01
693.196	35.05
693.382	35.38
693.568	34.61
693.754	35.6
693.94	35.31
694.125	34.74
694.311	35.34
694.497	35.1
694.682	35.74
694.868	36.74
695.054	36.57
695.239	35.12
695.425	34.74
695.611	34.12
695.796	33.93
695.982	33.07
696.168	33.11
696.353	33.25
696.539	32.54
696.724	32.03
696.91	31.54
697.095	31.68
697.281	30.91
697.466	30.69
697.652	31.01
697.837	30.87
698.023	30.98
698.208	30.49
698.393	30.36
698.579	31.09
698.764	31.3
698.949	31.13
699.135	30.83
699.32	30.87
699.505	31.58
699.691	31.04
699.876	30.57
700.061	30.28
700.246	30.9
700.432	30
700.617	29.94
700.802	29.54
700.987	30.68
701.172	31.29
701.358	32.33
701.543	32.32
701.728	33.23
701.913	34.55
702.098	34.75
702.283	35.88
702.468	37.56
702.653	37.28
702.838	38.04
703.023	37.19
703.208	36.45
703.393	36.38
703.578	38.07
703.763	38.84
703.948	38.23
704.133	39.18
704.318	39.26
704.503	39.6
704.688	40.04
704.873	38.58
705.057	39.02
705.242	39.43
705.427	39.82
705.612	38.37
705.797	38
705.981	38.53
706.166	38.36
706.351	36.51
706.536	36.32
706.72	35.33
706.905	36.71
707.09	36.47
707.274	37.4
707.459	37.49
707.644	36.76
707.828	36.29
708.013	37.02
708.197	37.04
708.382	37.71
708.567	37.57
708.751	37.56
708.936	37.41
709.12	38.19
709.305	36.87
709.489	36.03
709.673	36.36
709.858	37.78
710.042	35.93
710.227	35.62
710.411	36.52
710.596	36.84
710.78	37.19
710.964	36.79
711.149	36.15
711.333	36.83
711.517	37.23
711.702	38.12
711.886	37.22
712.07	38.15
712.254	38.53
712.438	36.59
712.623	37.01
712.807	37.44
712.991	37.44
713.175	36.55
713.359	36.38
713.544	35.72
713.728	35.29
713.912	35.32
714.096	36.66
714.28	37.3
714.464	38.35
714.648	36.76
714.832	36.99
715.016	36.84
715.2	37.55
715.384	37.64
715.568	38.12
715.752	37.45
715.936	36.98
716.12	35.73
716.304	34.76
716.488	35.05
716.671	36.42
716.855	36.39
717.039	37.16
717.223	37.19
717.407	37.81
717.59	37.86
717.774	38.48
717.958	38.27
718.142	38.1
718.325	38.03
718.509	38.06
718.693	37.54
718.877	38.14
719.06	38.57
719.244	39.09
719.428	38.55
719.611	39.26
719.795	38.81
719.978	39.5
720.162	39.36
720.345	39.31
720.529	39.75
720.713	39.44
720.896	38.76
721.08	37.65
721.263	37.08
721.446	38.25
721.63	38.5
721.813	37.2
721.997	37.84
722.18	38.22
722.364	40.48
722.547	40.32
722.73	40.77
722.914	40.75
723.097	43.35
723.28	44.17
723.464	42.94
723.647	42.72
723.83	44.14
724.013	45.16
724.197	45.77
724.38	44.05
724.563	44.39
724.746	45
724.929	45.36
725.112	44.05
725.296	43.95
725.479	43.65
725.662	42.21
725.845	41.78
726.028	40.2
726.211	39.08
726.394	38.72
726.577	38.69
726.76	38.88
726.943	38.97
727.126	37.81
727.309	37.12
727.492	37.97
727.675	38.6
727.858	40.43
728.041	40.48
728.224	39.47
728.407	40.5
728.589	39.68
728.772	38.28
728.955	37.75
729.138	38.28
729.321	37.32
729.503	37.1
729.686	37.09
729.869	36.68
730.052	37.02
730.234	39.21
730.417	38.59
730.6	39.79
730.782	40.89
730.965	40.12
731.148	40.8
731.33	40.42
731.513	40.64
731.695	41.05
731.878	40.28
732.061	39.44
732.243	38.29
732.426	37.5
732.608	36.48
732.791	37.07
732.973	37.89
733.156	38.67
733.338	40.95
733.52	40.84
733.703	40.57
733.885	40.92
734.068	41.65
734.25	41.51
734.432	44.35
734.615	44.38
734.797	44.22
734.979	44.7
735.162	43.23
735.344	43.64
735.526	43.98
735.708	43.22
735.891	42.38
736.073	41.76
736.255	44.06
736.437	41.92
736.619	42.89
736.802	42.18
736.984	42.23
737.166	42.13
737.348	40.71
737.53	41.28
737.712	43.14
737.894	45.22
738.076	45.04
738.258	44.08
738.44	44.86
738.622	44.29
738.804	44.68
738.986	43.97
739.168	44.36
739.35	44.16
739.532	42.29
739.714	42.8
739.896	39.78
740.078	41.09
740.259	41.52
740.441	41.54
740.623	40.95
740.805	40.22
740.987	40.29
741.168	40.12
741.35	41.05
741.532	42.86
741.714	43.42
741.895	44.32
742.077	42.07
742.259	42.08
742.44	42.34
742.622	44.55
742.804	46.65
742.985	46.85
743.167	46.9
743.348	48.91
743.53	48.24
743.711	47.1
743.893	50.32
744.075	53.49
744.256	52.97
744.438	53.17
744.619	53.76
744.8	51.97
744.982	52.98
745.163	56.99
745.345	54.09
745.526	53.22
745.707	53.11
745.889	51.92
746.07	53.89
746.252	53.86
746.433	54.87
746.614	54.09
746.795	54.43
746.977	55.5
747.158	51.34
747.339	50.78
747.52	53.57
747.702	53.48
747.883	53.57
748.064	49.8
748.245	50.8
748.426	48.75
748.607	47.29
748.788	49.36
748.97	47.35
749.151	48.88
749.332	50.18
749.513	49.72
749.694	50.5
749.875	51.89
750.056	52.5
750.237	52.27
750.418	54.95
750.599	54.84
750.78	52.33
750.96	54.49
751.141	53.15
751.322	53.64
751.503	50.78
751.684	50.4
751.865	47.51
752.046	47.06
752.226	44.02
752.407	41.37
752.588	41.67
752.769	40.36
752.949	39.84
753.13	41.1
753.311	41.92
753.492	45.39
753.672	45.46
753.853	48.13
754.034	48.04
754.214	49.13
754.395	52.36
754.575	53.71
754.756	56.3
754.937	57.92
755.117	57.07
755.298	55.83
755.478	54.98
755.659	54.37
755.839	53.87
756.02	54.34
756.2	56.84
756.381	56.51
756.561	55.72
756.741	55.86
756.922	52.13
757.102	53.96
757.283	52.89
757.463	50.51
757.643	51.7
757.823	49.99
758.004	49.99
758.184	48.69
758.364	46.62
758.545	48.07
758.725	46.97
758.905	48.17
759.085	48.23
759.265	46.9
759.446	47.75
759.626	46.35
759.806	46.79
759.986	46.51
760.166	47.9
760.346	48.07
760.526	45.3
760.706	46.33
760.886	45.71
761.066	45.74
761.246	46.19
761.426	45.81
761.606	44.7
761.786	44.4
761.966	44.64
762.146	42.76
762.326	42.7
762.506	44.38
762.686	42.24
762.866	42.48
763.046	41.33
763.225	40.98
763.405	39.15
763.585	38.05
763.765	36.97
763.945	37.15
764.124	38.26
764.304	38.18
764.484	38.27
764.664	40.04
764.843	39.87
765.023	41.01
765.203	41.39
765.382	44.17
765.562	46.14
765.741	49.14
765.921	50.2
766.101	50.48
766.28	51.09
766.46	50.18
766.639	48.51
766.819	47.35
766.998	46.81
767.178	45.94
767.357	46.09
767.537	48.29
767.716	45.76
767.896	45.63
768.075	44.55
768.254	44.75
768.434	45.4
768.613	47.7
768.792	50.23
768.972	50.25
769.151	53.61
769.33	52.7
769.51	52.16
769.689	54.91
769.868	54.54
770.047	55.4
770.226	55.46
770.406	55.9
770.585	56.47
770.764	57.62
770.943	59.86
771.122	58.25
771.301	60.84
771.48	63.48
771.66	63.57
771.839	65.63
772.018	68.44
772.197	70.14
772.376	70
772.555	72.56
772.734	71.18
772.913	69.39
773.092	68.98
773.271	68.24
773.449	67.8
773.628	67.02
773.807	67.67
773.986	65.02
774.165	62.39
774.344	64.45
774.523	61.2
774.701	64.37
774.88	67.42
775.059	67.79
775.238	66.95
775.417	64.07
775.595	64.66
775.774	63.46
775.953	64.96
776.131	65.64
776.31	63.9
776.489	62.44
776.667	58.67
776.846	54.48
777.025	57.71
777.203	57.83
777.382	55.7
777.56	55.28
777.739	52.56
777.917	52.43
778.096	55.07
778.274	55.68
778.453	56.9
778.631	57.51
778.81	59.24
778.988	58.23
779.166	57.69
779.345	62.95
779.523	65.83
779.702	70.18
779.88	70.77
780.058	68.56
780.237	70.86
780.415	73.33
780.593	73.46
780.771	77.38
780.95	81.45
781.128	80.57
781.306	76.9
781.484	73.32
781.662	74.98
781.841	76.43
782.019	73.01
782.197	67.82
782.375	62.54
782.553	63.65
782.731	63.64
782.909	59.06
783.087	62.52
783.265	66.6
783.443	68.28
783.621	62.77
783.799	60.18
783.977	62.04
784.155	67.77
784.333	67.8
784.511	65.72
784.689	62.12
784.867	63.05
785.045	66.41
785.223	64.89
785.4	65.83
785.578	66.32
785.756	61.55
785.934	64.5
786.112	66.01
786.289	67.63
786.467	69.28
786.645	67.95
786.823	67.98
787	63.15
787.178	62.98
787.356	60.32
787.533	60.65
787.711	64.84
787.889	63.83
788.066	61.52
788.244	62.91
788.421	63.47
788.599	64.15
788.776	65.18
788.954	66.12
789.131	65.02
789.309	67.2
789.486	66.53
789.664	66.19
789.841	67.27
790.019	65.01
790.196	69.07
790.373	67.81
790.551	68.07
790.728	68.54
790.906	72.64
791.083	79.56
791.26	81.91
791.437	81.38
791.615	81.96
791.792	82.79
791.969	85.9
792.146	82.41
792.324	83.83
792.501	87.1
792.678	82.27
792.855	77.34
793.032	77.06
793.209	75.84
793.387	78.98
793.564	76.79
793.741	76.32
793.918	76.29
794.095	73.5
794.272	76.7
794.449	74.84
794.626	77.87
794.803	78.74
794.98	71.23
795.157	69.96
795.334	66.7
795.511	69.43
795.688	68.39
795.864	65.83
796.041	66.34
796.218	62.36
796.395	57.49
796.572	55.49
796.749	56.47
796.925	59.29
797.102	57.82
797.279	59.86
797.456	59.99
797.632	59.44
797.809	64.42
797.986	65.28
798.162	69.09
798.339	74.04
798.516	78.8
798.692	76.24
798.869	77.12
799.046	84.02
799.222	81.12
799.399	78.8
799.575	83.99
799.752	81.88
799.928	82.15
800.105	76.89
800.281	74.84
800.458	76.13
800.634	72.88
800.811	73.13
800.987	72.67
801.163	74.4
801.34	76.34
801.516	71.41
801.692	67.87
801.869	70.9
802.045	72.91
802.221	72.43
802.398	67.73
802.574	72.37
802.75	73.79
802.926	73.08
803.103	75.22
803.279	75.17
803.455	78.08
803.631	83.71
803.807	81.92
803.983	89.41
804.16	91.19
804.336	97.49
804.512	95.82
804.688	99.44
804.864	100.33
805.04	99.56
805.216	97.64
805.392	99.57
805.568	99.37
805.744	96.38
805.92	84.31
806.096	89.04
806.272	88.27
806.448	89.08
806.623	86.33
806.799	87.23
806.975	81.4
807.151	84.3
807.327	83.19
807.503	81.57
807.678	80.9
807.854	85.57
808.03	87.69
808.206	86.27
808.381	86.35
808.557	82.41
808.733	83.61
808.908	89.75
809.084	90.08
809.26	92.02
809.435	90.39
809.611	91.48
809.787	85.89
809.962	87.84
810.138	97.01
810.313	100.56
810.489	100.65
810.664	97.93
810.84	91.46
811.015	85.65
811.191	87.19
811.366	92.07
811.542	96.72
811.717	98.8
811.892	94.67
812.068	88.49
812.243	90.43
812.419	91.44
812.594	89.46
812.769	92.99
812.944	103.98
813.12	97.51
813.295	98.51
813.47	95.11
813.645	103.01
813.821	107.92
813.996	110.52
814.171	108.21
814.346	109.94
814.521	109.9
814.697	114.26
814.872	106.15
815.047	109.64
815.222	100.73
815.397	100.85
815.572	101.48
815.747	96.93
815.922	90.93
816.097	88.62
816.272	87.13
816.447	84.1
816.622	81.11
816.797	82.62
816.972	79.22
817.147	85.05
817.322	84.75
817.496	79.99
817.671	74.37
817.846	75.31
818.021	76.8
818.196	74.51
818.371	78.19
818.545	77.86
818.72	74.49
818.895	73.29
819.069	68.67
819.244	67.2
819.419	64.51
819.594	60.14
819.768	56.53
819.943	51.99
820.117	49.92
820.292	45.89
820.467	44.45
820.641	43.59
820.816	40.71
820.99	39.25
821.165	36.58
821.339	35.48
821.514	34.94
821.688	33.53
821.863	32.12
822.037	31.6
822.212	30.79
822.386	30.17
822.56	29.02
822.735	28.82
822.909	27.97
823.084	27.67
823.258	26.9
823.432	27.72
823.606	28.8
823.781	30.11
823.955	31.82
824.129	32.31
824.303	32.86
824.478	34.46
824.652	36.81
824.826	38.04
825	39.61
825.174	41.98
825.348	42.63
825.523	40.8
825.697	41.06
825.871	39.31
826.045	38.59
826.219	38.68
826.393	38.05
826.567	36.1
826.741	37.58
826.915	37.85
827.089	37.81
827.263	37.95
827.437	39.93
827.611	41.12
827.784	42.06
827.958	44.82
828.132	46.2
828.306	46.8
828.48	48.54
828.654	49.6
828.827	52.26
829.001	54.45
829.175	54.98
829.349	57.29
829.522	58.26
829.696	60.05
829.87	60.59
830.044	65.76
830.217	72.66
830.391	82.44
830.565	83.25
830.738	85.54
830.912	83.63
831.085	82.58
831.259	79.42
831.432	83.23
831.606	90.93
831.779	91.21
831.953	83.34
832.126	81.12
832.3	73.66
832.473	71.37
832.647	70.96
832.82	70.06
832.994	69.46
833.167	63.94
833.34	61.18
833.514	56.55
833.687	54.35
833.86	52.87
834.034	51.27
834.207	52.78
834.38	53.38
834.553	52.05
834.727	52.8
834.9	54.07
835.073	62.55
835.246	63.68
835.419	65.81
835.593	71.21
835.766	74.15
835.939	72.85
836.112	77.8
836.285	74.48
836.458	76.53
836.631	76.14
836.804	80.6
836.977	77.79
837.15	76.26
837.323	78.94
837.496	77.8
837.669	79.12
837.842	85.32
838.015	79.98
838.188	90.7
838.361	92.69
838.533	94.16
838.706	99.89
838.879	101.26
839.052	107.95
839.225	116.61
839.398	119.23
839.57	121.08
839.743	120.45
839.916	121.14
840.088	102.02
840.261	104.41
840.434	114.26
840.607	110.06
840.779	114
840.952	108.86
841.124	96.73
841.297	111.05
841.47	109.92
841.642	110.52
841.815	106.92
841.987	134.65
842.16	129.99
842.332	139.39
842.505	149.48
842.677	135.59
842.85	159.95
843.022	166.82
843.194	158.31
843.367	155.89
843.539	149.4
843.712	148.31
843.884	144.95
844.056	161.78
844.229	149.21
844.401	144.09
844.573	147.84
844.745	144.83
844.918	157.42
845.09	145.17
845.262	163.74
845.434	158.86
845.606	161.49
845.779	159.3
845.951	161.21
846.123	139.12
846.295	150.13
846.467	163.53
846.639	148.98
846.811	150.35
846.983	156.09
847.155	157.04
847.327	154.41
847.499	175.16
847.671	219.94
847.843	209.28
848.015	336.89
848.187	286.68
848.359	282.56
848.531	315.98
848.703	290.93
848.875	373.45
849.047	334.27
849.218	431.36
849.39	375.05
849.562	297.69
849.734	285.59
849.905	232.48
850.077	278.29
850.249	392.95
850.421	413.72
850.592	384.36
850.764	331.72
850.936	318.15
851.107	381.64
851.279	445.06
851.451	347.56
851.622	281.39
851.794	227.69
851.965	199.25
852.137	176.69
852.308	175.9
852.48	173.95
852.651	153.26
852.823	162.5
852.994	149.06
853.166	147.64
853.337	154.93
853.509	198.95
853.68	259.45
853.851	279.35
854.023	331.94
854.194	314.55
854.365	367.93
854.537	366.67
854.708	537.22
854.879	844.1
855.05	694.01
855.222	586.96
855.393	322.19
855.564	377.11
855.735	312.47
855.906	262.34
856.078	302.14
856.249	343.2
856.42	337.73
856.591	295.23
856.762	312.11
856.933	412.66
857.104	469.66
857.275	584.03
857.446	339.12
857.617	347.31
857.788	331.91
857.959	279.08
858.13	233.7
858.301	272.81
858.472	314.71
858.643	304.39
858.814	328.19
858.985	307.92
859.155	284.03
859.326	402.93
859.497	361.86
859.668	339.04
859.839	582.59
860.009	414.87
860.18	299.84
860.351	242.09
860.522	240.35
860.692	200.5
860.863	211.62
861.034	200.42
861.204	178.92
861.375	201.49
861.546	200.67
861.716	191.23
861.887	209.3
862.057	264.12
862.228	225.87
862.398	249.1
862.569	232.34
862.739	230.95
862.91	223.92
863.08	278.5
863.251	272.17
863.421	292.74
863.592	267.71
863.762	286.48
863.932	212.52
864.103	258.92
864.273	217.39
864.443	246.23
864.614	220.65
864.784	249.79
864.954	236.61
865.125	232.66
865.295	246.58
865.465	256.32
865.635	280.19
865.805	311.32
865.976	292.15
866.146	310.29
866.316	347.24
866.486	509.09
866.656	323.47
866.826	337.7
866.996	325.05
867.166	289.94
867.336	293.28
867.506	244.44
867.676	239.26
867.846	225.92
868.016	245.32
868.186	242.74
868.356	218.93
868.526	261.74
868.696	270.3
868.866	296.49
869.036	297.09
869.206	249.57
869.376	275.04
869.545	264.33
869.715	314.77
869.885	339.68
870.055	354.25
870.224	389.81
870.394	561.76
870.564	424.84
870.734	457.37
870.903	432.11
871.073	536.97
871.243	410.24
871.412	420.98
871.582	340.26
871.751	319.57
871.921	325.62
872.091	303.67
872.26	267.75
872.43	212.28
872.599	209.18
872.769	226.69
872.938	223.7
873.108	320.38
873.277	358.1
873.446	439.2
873.616	395.08
873.785	408.66
873.955	535.68
874.124	407.71
874.293	1078.97
874.463	1174.25
874.632	1446.97
874.801	1496.64
874.971	441.33
875.14	457.66
875.309	313.68
875.478	280.51
875.647	272.21
875.817	222.94
875.986	262.25
876.155	262.77
876.324	272.01
876.493	250.84
876.662	232.94
876.831	268.18
877	237.88
877.17	278.35
877.339	359.79
877.508	261.26
877.677	295.3
877.846	304.15
878.015	259.54
878.184	223.89
878.352	223.36
878.521	234.66
878.69	230.7
878.859	206.92
879.028	217.68
879.197	181.52
879.366	207.48
879.534	193.71
879.703	177.09
879.872	169.25
880.041	174.72
880.21	152.78
880.378	136.65
880.547	124.78
880.716	119.64
880.884	106.07
881.053	98.39
881.222	92.85
881.39	82.88
881.559	76.2
881.727	76.21
881.896	69.19
882.065	65.65
882.233	67.92
882.402	68.26
882.57	66.68
882.739	64.77
882.907	66
883.076	67.04
883.244	68.96
883.412	70.49
883.581	66.1
883.749	69.34
883.918	71.31
884.086	72.98
884.254	73.22
884.423	75.22
884.591	80.62
884.759	82.54
884.927	82.13
885.096	83.77
885.264	92.3
885.432	97.68
885.6	102.21
885.769	110.62
885.937	110.04
886.105	118.18
886.273	117.96
886.441	115.67
886.609	125.26
886.777	141.19
886.945	162.04
887.113	156.35
887.281	174.54
887.449	178.18
887.617	180.41
887.785	207.98
887.953	204.67
888.121	214.76
888.289	233.12
888.457	283.99
888.625	368.37
888.793	286.92
888.961	313.95
889.129	237.89
889.296	247.54
889.464	267.69
889.632	221.42
889.8	243.84
889.967	262.5
890.135	292.05
