Data from JASIL_3280_Reflection_1.txt Node
Date: Tue Nov 17 19:13:22 EST 2015
User: Geneva
Spectrometer: USB4E03002
Autoset integration time: false
Trigger mode: 4
Integration Time (sec): 1.000000E-1
Scans to average: 10
Electric dark correction enabled: false
Nonlinearity correction enabled: false
Boxcar width: 5
Stray light correction enabled: false
XAxis mode: Wavelengths
Stop averaging: false
Number of Pixels in Spectrum: 3648
>>>>>Begin Spectral Data<<<<<
177.575	-10.29
177.794	32.32
178.014	-32.89
178.233	-925
178.452	104.17
178.672	55.07
178.891	66.87
179.11	118.13
179.33	127.44
179.549	75.75
179.768	72.83
179.987	53.6
180.207	-226.39
180.426	-221.74
180.645	325
180.864	125.91
181.084	62.5
181.303	63.19
181.522	72.18
181.741	81.94
181.96	92.07
182.179	106.85
182.398	128.88
182.618	78.8
182.837	101.58
183.056	-633.33
183.275	4.56
183.494	-5.24
183.713	12.16
183.932	2.81
184.151	10.32
184.37	5.89
184.589	2.05
184.808	-0.77
185.027	-22.73
185.246	-42.34
185.465	-60.38
185.684	-2120
185.903	238.46
186.122	209.96
186.341	132.97
186.56	189.27
186.779	190.91
186.998	162.5
187.216	164.09
187.435	146.36
187.654	180.14
187.873	319.61
188.092	227.07
188.311	207.52
188.53	156.91
188.748	169.56
188.967	157.11
189.186	108.8
189.405	46.79
189.623	64
189.842	42.9
190.061	46.21
190.28	20.89
190.498	-30.67
190.717	2750
190.936	311.65
191.154	409.84
191.373	350
191.592	3436.36
191.81	-234.53
192.029	2046.15
192.248	-4690
192.466	-182.05
192.685	-602.99
192.904	-72.64
193.122	-30.02
193.341	-10.47
193.559	6.14
193.778	21.04
193.996	26.73
194.215	48.83
194.433	115.36
194.652	68.69
194.87	260
195.089	102.05
195.307	265.91
195.526	989.66
195.744	-201.75
195.963	177.42
196.181	133.72
196.399	147.18
196.618	109.34
196.836	165.91
197.055	256.96
197.273	353.57
197.491	344.09
197.71	386.09
197.928	402.74
198.146	145.45
198.365	168.08
198.583	125
198.801	147.5
199.019	162.63
199.238	97.11
199.456	55.07
199.674	53.14
199.892	77.04
200.111	80.13
200.329	93.22
200.547	86.25
200.765	104.84
200.983	152.19
201.202	134.09
201.42	150.81
201.638	156.99
201.856	644.9
202.074	-738.46
202.292	129.41
202.51	255.56
202.728	54.31
202.946	46.37
203.165	99.14
203.383	185.9
203.601	334.67
203.819	180.57
204.037	214.21
204.255	165.45
204.473	167.93
204.691	202.79
204.909	165.58
205.127	165.29
205.345	209.43
205.562	213.19
205.78	215.65
205.998	96.21
206.216	65.56
206.434	122.26
206.652	137.5
206.87	130.61
207.088	132.44
207.306	158.61
207.523	135.55
207.741	124
207.959	103.75
208.177	105.96
208.395	114.12
208.612	119.73
208.83	81.91
209.048	69.98
209.266	70.3
209.483	54.79
209.701	64.54
209.919	52.62
210.136	53.68
210.354	72.56
210.572	84.81
210.79	96.3
211.007	90.59
211.225	76.24
211.442	55.88
211.66	74.19
211.878	86.04
212.095	-24.86
212.313	-26.88
212.53	-15.38
212.748	-21.08
212.966	-32.84
213.183	-41.27
213.401	-40.11
213.618	-40.4
213.836	-48.52
214.053	-143.34
214.271	-129.72
214.488	157.14
214.705	100
214.923	124.62
215.14	78.08
215.358	49.46
215.575	68.52
215.793	82.99
216.01	78.85
216.227	64.81
216.445	72.94
216.662	79.1
216.879	86.51
217.097	110.87
217.314	109.98
217.531	155.93
217.749	142.28
217.966	134.55
218.183	151.05
218.4	158.57
218.618	238.59
218.835	206.61
219.052	202.04
219.269	198.71
219.487	159.1
219.704	114.69
219.921	108.6
220.138	79.63
220.355	72.35
220.572	40.77
220.79	41.67
221.007	61.42
221.224	74.05
221.441	76.97
221.658	79.86
221.875	66.73
222.092	48.35
222.309	22.01
222.526	48.62
222.743	-8.91
222.96	47.45
223.177	26.03
223.394	0.95
223.611	-1.21
223.828	11.58
224.045	25.13
224.262	21.46
224.479	28.87
224.696	43.05
224.913	43.69
225.13	49.36
225.347	36.52
225.564	34.41
225.781	26.99
225.997	33.2
226.214	29.32
226.431	18.49
226.648	25.46
226.865	26.48
227.082	25.21
227.298	17.39
227.515	21.63
227.732	17.71
227.949	17.64
228.165	17.82
228.382	15.82
228.599	9.82
228.816	10.18
229.032	6.64
229.249	5.43
229.466	7.73
229.682	9.66
229.899	3.48
230.116	6.34
230.332	0.97
230.549	-3.62
230.765	-15.67
230.982	-1.81
231.199	7.62
231.415	15.18
231.632	17.62
231.848	-2.52
232.065	5.9
232.281	3.73
232.498	6.18
232.714	17.91
232.931	24.08
233.147	26.06
233.364	14.47
233.58	6.86
233.797	4.37
234.013	-2.74
234.23	8.45
234.446	-0.91
234.662	6.14
234.879	3.91
235.095	0.96
235.312	-2.98
235.528	8.81
235.744	19.96
235.961	26.79
236.177	26.61
236.393	35.33
236.61	40.17
236.826	37.14
237.042	37.44
237.258	33.73
237.475	34.41
237.691	44.73
237.907	30.64
238.123	27.21
238.339	27.98
238.556	28.39
238.772	23.7
238.988	23.37
239.204	27.91
239.42	29.29
239.636	27.68
239.853	21.85
240.069	12.8
240.285	18.07
240.501	14.13
240.717	9.33
240.933	7.25
241.149	7.2
241.365	3.27
241.581	4.52
241.797	1.37
242.013	0.31
242.229	3.35
242.445	6.54
242.661	5.57
242.877	5.46
243.093	7.62
243.309	5.47
243.525	4.42
243.741	5.54
243.957	-0.77
244.173	0.74
244.388	-2.26
244.604	-6
244.82	-6.24
245.036	-6.41
245.252	-0.84
245.468	-0.33
245.683	-0.12
245.899	1.77
246.115	1.51
246.331	3.48
246.547	4.58
246.762	5.68
246.978	7.93
247.194	10.69
247.409	10.98
247.625	11.06
247.841	12.84
248.057	15.55
248.272	14.01
248.488	15.43
248.703	17.54
248.919	16.44
249.135	16.9
249.35	15.98
249.566	12.52
249.782	15.6
249.997	13.19
250.213	10.37
250.428	11.97
250.644	10.69
250.859	9.94
251.075	9.74
251.29	9.48
251.506	10.68
251.721	10.14
251.937	10.71
252.152	4.78
252.368	3.62
252.583	7.22
252.798	2.29
253.014	5.1
253.229	5.51
253.445	6.88
253.66	6.51
253.875	7.46
254.091	6.18
254.306	8.24
254.521	17.75
254.737	16.93
254.952	13.73
255.167	15.93
255.383	15.12
255.598	15.01
255.813	14.62
256.028	13.63
256.244	10.3
256.459	8.64
256.674	5.04
256.889	4.62
257.104	5.44
257.32	8.4
257.535	6.62
257.75	6.94
257.965	7.24
258.18	5
258.395	5.1
258.61	6.6
258.826	5.65
259.041	6.43
259.256	6.32
259.471	6.6
259.686	5.46
259.901	6.55
260.116	5.72
260.331	5.97
260.546	5.97
260.761	6.51
260.976	5.71
261.191	8.43
261.406	9
261.621	6.59
261.836	4.79
262.05	5.23
262.265	4.29
262.48	6.98
262.695	5.95
262.91	7.36
263.125	9.35
263.34	11.48
263.555	11.6
263.769	9.38
263.984	12.88
264.199	16.04
264.414	16.1
264.629	14.98
264.843	11.65
265.058	11.17
265.273	10.03
265.488	6.05
265.702	5
265.917	4.21
266.132	4.39
266.346	3.08
266.561	5.09
266.776	5.75
266.99	6.65
267.205	8.3
267.42	8.46
267.634	9.35
267.849	9.88
268.063	8.11
268.278	9.01
268.492	11.57
268.707	10
268.922	7.26
269.136	6.46
269.351	7.33
269.565	5.55
269.78	6.19
269.994	4.24
270.209	4.49
270.423	6.52
270.637	6.15
270.852	3.19
271.066	3.05
271.281	1.93
271.495	2.94
271.709	2
271.924	3.61
272.138	3.93
272.353	4.64
272.567	6.76
272.781	5.56
272.996	6.81
273.21	7.05
273.424	6.59
273.638	7.75
273.853	7.45
274.067	8.27
274.281	8.68
274.495	6.27
274.71	8.19
274.924	7.69
275.138	6.87
275.352	5.43
275.566	6.31
275.781	7.91
275.995	7.89
276.209	5.86
276.423	5.83
276.637	5.91
276.851	6.06
277.065	4
277.279	3.06
277.493	5.25
277.707	5.88
277.921	6.8
278.135	5.56
278.349	7.46
278.563	8.8
278.777	8.86
278.991	9.38
279.205	12.4
279.419	12.84
279.633	12.72
279.847	13.4
280.061	12.9
280.275	13.24
280.489	15.18
280.703	14.2
280.917	12.95
281.131	11.92
281.344	12.19
281.558	8.03
281.772	8.33
281.986	7.86
282.2	6.73
282.414	6.97
282.627	8.47
282.841	8.33
283.055	9.27
283.269	11.12
283.482	12.06
283.696	11.1
283.91	11.78
284.123	11.56
284.337	12.08
284.551	12.94
284.764	12.59
284.978	9.93
285.192	9.08
285.405	7.16
285.619	6.3
285.833	6.65
286.046	5.2
286.26	6.17
286.473	4.28
286.687	2.67
286.9	3
287.114	1.42
287.327	1.76
287.541	1.28
287.754	2.57
287.968	2.35
288.181	0.42
288.395	3.16
288.608	3.51
288.822	5.96
289.035	7.52
289.248	5.97
289.462	5.66
289.675	5.47
289.889	6.54
290.102	5.34
290.315	5.55
290.529	7
290.742	6.5
290.955	4.6
291.169	3.25
291.382	2.14
291.595	3.24
291.808	4.47
292.022	6.22
292.235	5.26
292.448	6.62
292.661	7.46
292.875	8.9
293.088	8.32
293.301	9.17
293.514	8.99
293.727	10.93
293.94	9.42
294.153	9.85
294.367	9.41
294.58	7.79
294.793	7.87
295.006	5.64
295.219	2.45
295.432	3.16
295.645	5.31
295.858	5.21
296.071	5.1
296.284	5.78
296.497	5.55
296.71	4.84
296.923	6.57
297.136	5.69
297.349	7.18
297.562	7.42
297.775	6.31
297.988	4.01
298.201	4.34
298.414	2.89
298.626	2.86
298.839	1.55
299.052	1.63
299.265	1.77
299.478	2.42
299.691	1.3
299.903	2.03
300.116	0.45
300.329	2.02
300.542	3.67
300.755	4.77
300.967	4.63
301.18	7.31
301.393	7.1
301.605	6.62
301.818	5.92
302.031	6.55
302.243	7.52
302.456	9.6
302.669	9.67
302.881	8.47
303.094	8.18
303.307	8.47
303.519	7.12
303.732	9.2
303.944	8.16
304.157	7.99
304.37	8.36
304.582	8.26
304.795	8.35
305.007	8.12
305.22	8.36
305.432	7.14
305.645	7.31
305.857	7.86
306.069	6.02
306.282	7.69
306.494	7.87
306.707	9.04
306.919	9.08
307.132	9.96
307.344	10.77
307.556	10.67
307.769	10.37
307.981	10
308.193	9.64
308.406	9.72
308.618	8.49
308.83	9.21
309.043	8.7
309.255	9.2
309.467	7.1
309.679	6.8
309.892	6.59
310.104	6.6
310.316	6.62
310.528	7.03
310.74	7.66
310.953	8.32
311.165	8.44
311.377	7.81
311.589	6.3
311.801	7.79
312.013	7.3
312.225	7.27
312.437	8.65
312.649	7.86
312.862	6.93
313.074	6.33
313.286	5.08
313.498	5.75
313.71	5.3
313.922	6.33
314.134	6.8
314.346	7.34
314.558	7.73
314.77	7.14
314.982	7.57
315.193	8.85
315.405	8.75
315.617	11.57
315.829	10.43
316.041	10.86
316.253	10.86
316.465	10.25
316.677	10.75
316.888	10.3
317.1	8.5
317.312	7.87
317.524	6.28
317.736	7.91
317.947	5.71
318.159	7.07
318.371	6.08
318.583	5.58
318.794	6.2
319.006	5.49
319.218	4.58
319.43	6.17
319.641	7.26
319.853	8.66
320.064	7.72
320.276	7.99
320.488	5.31
320.699	5.39
320.911	5.14
321.123	3.7
321.334	3.54
321.546	3.48
321.757	3.79
321.969	3.56
322.18	1.45
322.392	0.74
322.603	1.35
322.815	2.2
323.026	3.27
323.238	4.9
323.449	6.59
323.661	7.53
323.872	9.09
324.083	8.54
324.295	9.72
324.506	9.89
324.718	10.4
324.929	9.3
325.14	9.32
325.352	9.76
325.563	10.18
325.774	9.57
325.986	9.16
326.197	10.59
326.408	12.04
326.62	11.71
326.831	13.08
327.042	14.39
327.253	16.04
327.464	16.92
327.676	17.88
327.887	16.89
328.098	16.14
328.309	16
328.52	15.07
328.732	13.94
328.943	14.84
329.154	14.19
329.365	11.81
329.576	10.76
329.787	10.78
329.998	9.29
330.209	9.59
330.42	10.02
330.631	10.39
330.842	11.45
331.053	12.06
331.264	11.97
331.475	13.27
331.686	13.64
331.897	15.97
332.108	15.43
332.319	16.16
332.53	14.86
332.741	17.58
332.952	16.48
333.163	13.8
333.374	12.99
333.585	13.29
333.795	12.45
334.006	13.94
334.217	11.59
334.428	12.13
334.639	12.68
334.849	13.08
335.06	11.12
335.271	12.56
335.482	13.92
335.692	14.67
335.903	13.05
336.114	13.27
336.325	11.04
336.535	12.04
336.746	11.24
336.957	10.14
337.167	9.77
337.378	10.47
337.589	8.93
337.799	8.19
338.01	9.28
338.22	10.86
338.431	10.09
338.642	11.34
338.852	10.47
339.063	9.37
339.273	10.39
339.484	11.63
339.694	9.97
339.905	12.12
340.115	12.34
340.326	11.27
340.536	9.13
340.746	9.74
340.957	9.76
341.167	8.79
341.378	11.27
341.588	10.8
341.799	10.82
342.009	11.72
342.219	11.5
342.43	12.08
342.64	11.76
342.85	13.33
343.061	14.08
343.271	15.34
343.481	16.2
343.691	15.98
343.902	15.55
344.112	14.99
344.322	14.3
344.532	13.09
344.743	11.74
344.953	11.36
345.163	10.61
345.373	10.11
345.583	9.68
345.793	11.53
346.004	11.29
346.214	9.71
346.424	10.63
346.634	11.14
346.844	11.49
347.054	13.15
347.264	14.01
347.474	13.93
347.684	14.04
347.894	13.43
348.104	12.14
348.314	12.36
348.524	13.65
348.734	12.58
348.944	11.5
349.154	10.54
349.364	8.61
349.574	6.94
349.784	7.65
349.994	6.51
350.204	6.22
350.413	6.41
350.623	5.99
350.833	7.36
351.043	8.48
351.253	9.58
351.463	11.35
351.672	12.69
351.882	14.7
352.092	13.67
352.302	15.33
352.511	14.4
352.721	13.92
352.931	13.33
353.141	11.29
353.35	10.86
353.56	11.05
353.77	9.66
353.979	9.25
354.189	9.15
354.399	9.16
354.608	9.15
354.818	9.4
355.027	9.37
355.237	8.93
355.447	10.13
355.656	9.51
355.866	9.81
356.075	10.48
356.285	11.13
356.494	11.07
356.704	11.17
356.913	10.97
357.123	12.15
357.332	12.43
357.542	12.24
357.751	11.4
357.96	12.54
358.17	10.99
358.379	11.28
358.589	10.71
358.798	9.74
359.007	10.5
359.217	10.4
359.426	9.96
359.635	9.66
359.845	10.47
360.054	11.16
360.263	10.12
360.472	11.09
360.682	10.52
360.891	10.38
361.1	10.26
361.309	9.23
361.519	9
361.728	9.04
361.937	8.92
362.146	8.75
362.355	9.27
362.564	9.95
362.774	9.42
362.983	8.75
363.192	9.23
363.401	9.11
363.61	9.57
363.819	10.07
364.028	10.14
364.237	10.61
364.446	10.39
364.655	9.31
364.864	8.69
365.073	9.16
365.282	10.01
365.491	10.39
365.7	11.7
365.909	12.19
366.118	11.32
366.327	11.07
366.536	10.95
366.745	10.01
366.954	9.5
367.162	9.88
367.371	9.88
367.58	10.44
367.789	9.59
367.998	9.2
368.207	8.51
368.415	8.26
368.624	7.83
368.833	7.47
369.042	8.7
369.25	9.65
369.459	9.72
369.668	9.18
369.877	9.01
370.085	8.86
370.294	8.88
370.503	9.12
370.711	9.01
370.92	9.23
371.129	8.82
371.337	8.69
371.546	8.24
371.754	8.09
371.963	7.4
372.171	7.69
372.38	7.92
372.589	7.92
372.797	7.97
373.006	8.34
373.214	9.34
373.423	9.68
373.631	9.6
373.84	9.92
374.048	11.28
374.256	11.67
374.465	10.91
374.673	11.25
374.882	10.89
375.09	10.9
375.298	10.53
375.507	10.1
375.715	10.63
375.923	10.72
376.132	10.23
376.34	8.7
376.548	8.8
376.757	9.74
376.965	9.81
377.173	9.5
377.381	8.61
377.59	9.31
377.798	9.59
378.006	8.98
378.214	9.05
378.423	8.99
378.631	9.41
378.839	9.5
379.047	8.06
379.255	7.36
379.463	6.87
379.671	8.38
379.879	8.57
380.088	8.13
380.296	7.94
380.504	8.05
380.712	8.51
380.92	8.71
381.128	8.71
381.336	9.73
381.544	10.33
381.752	11.16
381.96	10.33
382.168	9.71
382.376	10.31
382.584	10.3
382.791	10
382.999	9.83
383.207	9.73
383.415	9.58
383.623	9.55
383.831	9.34
384.039	9.5
384.247	9.21
384.454	8.46
384.662	8.38
384.87	8.9
385.078	8.52
385.285	8.01
385.493	7.86
385.701	8.46
385.909	8.89
386.116	8.73
386.324	8.63
386.532	8.81
386.739	9.54
386.947	8.99
387.155	9.3
387.362	9.59
387.57	10.34
387.778	10.22
387.985	10.34
388.193	9.97
388.4	9.68
388.608	9.33
388.816	9.25
389.023	8.39
389.231	8.21
389.438	7.61
389.646	7.38
389.853	7.32
390.061	6.68
390.268	6.14
390.475	5.35
390.683	5.44
390.89	5.57
391.098	6.02
391.305	6.68
391.512	6.99
391.72	7.26
391.927	7.09
392.135	6.88
392.342	7.75
392.549	7.86
392.756	7.93
392.964	8.32
393.171	8.14
393.378	8
393.586	8.07
393.793	8.06
394	7.98
394.207	8.56
394.414	8.52
394.622	8.67
394.829	8.69
395.036	9.49
395.243	9.23
395.45	9.33
395.657	9.92
395.864	10.24
396.072	9.52
396.279	9.63
396.486	9.68
396.693	9.83
396.9	8.97
397.107	8.87
397.314	8
397.521	7.78
397.728	8.21
397.935	7.49
398.142	7.02
398.349	8.15
398.556	8.13
398.763	7.69
398.97	8.05
399.177	8.52
399.383	8.96
399.59	9.09
399.797	9.87
400.004	9.46
400.211	9.07
400.418	9.66
400.625	8.95
400.831	8.56
401.038	8.92
401.245	7.89
401.452	7.58
401.658	7.62
401.865	7.83
402.072	7.65
402.279	7.87
402.485	8.15
402.692	7.62
402.899	8.15
403.105	8.51
403.312	8.18
403.519	8.62
403.725	8.4
403.932	7.88
404.138	7.92
404.345	6.99
404.552	7.23
404.758	6.67
404.965	7.19
405.171	6.84
405.378	6.66
405.584	6.2
405.791	6.34
405.997	6.8
406.204	6.88
406.41	6.9
406.617	7.53
406.823	7.65
407.029	8.04
407.236	7.52
407.442	7.57
407.649	7.49
407.855	8.24
408.061	8.47
408.268	8.09
408.474	8.35
408.68	7.64
408.887	7.1
409.093	6.24
409.299	6.56
409.505	6.69
409.712	6.79
409.918	7.34
410.124	7.17
410.33	7.22
410.537	7.71
410.743	7.72
410.949	8.36
411.155	8.94
411.361	9.43
411.567	8.51
411.773	8.71
411.98	8.46
412.186	8.52
412.392	8.79
412.598	8.57
412.804	8.62
413.01	7.91
413.216	7.48
413.422	6.62
413.628	6.81
413.834	7.34
414.04	7.47
414.246	7.29
414.452	6.41
414.658	5.87
414.864	5.71
415.07	5.21
415.275	5.3
415.481	5.5
415.687	6.53
415.893	5.97
416.099	5.77
416.305	5.23
416.511	5.18
416.716	5.56
416.922	6.21
417.128	6.09
417.334	6.35
417.539	6.54
417.745	6.95
417.951	6.55
418.157	6.63
418.362	6.95
418.568	6.57
418.774	6.82
418.979	6.66
419.185	6.21
419.391	6.23
419.596	6.14
419.802	6.24
420.008	6.14
420.213	6.24
420.419	6.31
420.624	5.85
420.83	6.58
421.035	6.54
421.241	6.48
421.446	6.81
421.652	6.75
421.857	6.53
422.063	6.27
422.268	5.78
422.474	5.84
422.679	5.87
422.885	6.08
423.09	5.72
423.295	5.93
423.501	6.11
423.706	5.76
423.911	5.71
424.117	5.82
424.322	5.66
424.527	6.02
424.733	5.82
424.938	5.92
425.143	6.39
425.349	6.19
425.554	6.04
425.759	6.23
425.964	6.18
426.169	6.39
426.375	6.52
426.58	6.84
426.785	6.59
426.99	6.78
427.195	6.65
427.4	6.61
427.605	6.95
427.811	6.64
428.016	6.38
428.221	6.32
428.426	6.32
428.631	6.15
428.836	6.27
429.041	6.49
429.246	6.18
429.451	6.06
429.656	6.08
429.861	6.02
430.066	6.13
430.271	6.07
430.476	6.32
430.681	6.34
430.886	6.63
431.09	6.84
431.295	6.44
431.5	6.65
431.705	6.77
431.91	6.49
432.115	6.8
432.32	6.66
432.524	6.79
432.729	6.49
432.934	6.56
433.139	6.5
433.343	6.24
433.548	6.44
433.753	6.81
433.958	6.57
434.162	6.34
434.367	6.28
434.572	6.2
434.776	5.63
434.981	5.58
435.186	5.69
435.39	5.28
435.595	5.38
435.799	5.56
436.004	5.13
436.209	5.04
436.413	5.07
436.618	5.06
436.822	5.08
437.027	5.1
437.231	5.61
437.436	5
437.64	5.16
437.845	5
438.049	5
438.253	4.66
438.458	4.85
438.662	4.7
438.867	4.41
439.071	4.54
439.275	4.82
439.48	4.52
439.684	4.68
439.888	4.99
440.093	5.25
440.297	5.18
440.501	5.38
440.706	5.07
440.91	5.3
441.114	5.52
441.318	5.59
441.523	5.49
441.727	5.68
441.931	5.58
442.135	5.26
442.339	5.2
442.543	5.24
442.748	5.17
442.952	5.45
443.156	5
443.36	5.12
443.564	4.82
443.768	4.94
443.972	5.06
444.176	5.42
444.38	5.41
444.584	5.19
444.788	5.18
444.992	5.4
445.196	5.48
445.4	5.59
445.604	5.26
445.808	5.41
446.012	5.01
446.216	4.77
446.42	4.5
446.624	4.85
446.828	4.91
447.032	4.98
447.235	4.71
447.439	4.93
447.643	5.32
447.847	5.69
448.051	5.71
448.254	6.29
448.458	6.37
448.662	6.77
448.866	6.32
449.069	6.4
449.273	6.44
449.477	6.8
449.681	6.48
449.884	6.51
450.088	5.95
450.292	5.6
450.495	5.19
450.699	5.03
450.902	4.95
451.106	5.06
451.31	4.86
451.513	4.36
451.717	4.18
451.92	4.09
452.124	4.01
452.327	4.69
452.531	4.72
452.734	4.81
452.938	4.86
453.141	4.9
453.345	4.82
453.548	4.95
453.752	5.46
453.955	5.14
454.158	5.22
454.362	5.06
454.565	4.64
454.769	5.02
454.972	4.98
455.175	5.35
455.379	4.99
455.582	5.04
455.785	5.04
455.988	5.26
456.192	5.1
456.395	4.5
456.598	4.61
456.801	4.78
457.005	4.9
457.208	4.92
457.411	5.02
457.614	5.27
457.817	5.07
458.021	5.13
458.224	5.2
458.427	5.33
458.63	5.71
458.833	5.64
459.036	5.58
459.239	5.54
459.442	5.3
459.645	5.09
459.848	5.19
460.051	5.2
460.254	5.2
460.457	4.8
460.66	5.1
460.863	5.23
461.066	4.97
461.269	5.05
461.472	4.97
461.675	5.27
461.878	5.51
462.081	5.41
462.284	5.94
462.486	5.75
462.689	5.86
462.892	6.02
463.095	5.54
463.298	6.1
463.5	5.81
463.703	5.65
463.906	6.07
464.109	5.92
464.311	5.63
464.514	5.23
464.717	5.44
464.92	5.66
465.122	5.59
465.325	5.78
465.528	5.67
465.73	5.55
465.933	5.85
466.135	5.99
466.338	6.12
466.541	6.44
466.743	6.84
466.946	6.74
467.148	6.75
467.351	6.59
467.553	6.69
467.756	6.91
467.958	7.61
468.161	7.4
468.363	6.98
468.566	6.69
468.768	6.2
468.971	5.84
469.173	5.94
469.375	5.67
469.578	5.74
469.78	6.18
469.983	6.04
470.185	5.9
470.387	5.87
470.59	5.73
470.792	5.67
470.994	5.77
471.196	5.79
471.399	5.97
471.601	5.94
471.803	6.18
472.005	5.96
472.208	5.95
472.41	5.44
472.612	5.82
472.814	6.22
473.016	6.78
473.218	7.14
473.421	6.94
473.623	6.78
473.825	6.95
474.027	6.62
474.229	6.96
474.431	6.51
474.633	6.4
474.835	6.28
475.037	5.83
475.239	5.78
475.441	5.35
475.643	5.62
475.845	5.47
476.047	5.58
476.249	5.47
476.451	5.12
476.653	5.41
476.855	5.73
477.057	5.7
477.258	5.77
477.46	5.36
477.662	5.63
477.864	5.71
478.066	6.04
478.268	5.52
478.469	5.85
478.671	5.7
478.873	5.62
479.075	5.41
479.276	5.49
479.478	5.38
479.68	5.56
479.882	5.61
480.083	5.67
480.285	5.32
480.487	5.47
480.688	5.29
480.89	5.38
481.091	5.34
481.293	5.19
481.495	5.15
481.696	5.22
481.898	5.18
482.099	5.16
482.301	5.18
482.502	5.2
482.704	5.08
482.905	5.09
483.107	5.04
483.308	5
483.51	5.14
483.711	5.14
483.913	5.17
484.114	5.14
484.315	5.09
484.517	4.96
484.718	4.95
484.92	5.02
485.121	4.91
485.322	4.93
485.524	4.95
485.725	4.87
485.926	4.72
486.127	4.75
486.329	4.73
486.53	4.79
486.731	4.86
486.932	4.89
487.134	5.05
487.335	5.08
487.536	5.05
487.737	5.06
487.938	5.12
488.139	5.14
488.341	5.01
488.542	4.83
488.743	4.66
488.944	4.48
489.145	4.6
489.346	4.47
489.547	4.42
489.748	4.43
489.949	4.35
490.15	4.36
490.351	4.42
490.552	4.6
490.753	4.87
490.954	4.76
491.155	4.88
491.356	4.89
491.557	4.89
491.758	5.1
491.959	5.18
492.159	5.25
492.36	5.13
492.561	5.17
492.762	5.23
492.963	5.24
493.164	5.52
493.364	5.55
493.565	5.51
493.766	5.76
493.967	5.68
494.167	5.57
494.368	5.56
494.569	5.66
494.769	5.69
494.97	5.34
495.171	5.09
495.371	5.32
495.572	5.37
495.773	4.89
495.973	4.77
496.174	4.65
496.375	4.84
496.575	4.75
496.776	4.91
496.976	4.86
497.177	5.07
497.377	5.31
497.578	5.3
497.778	5.25
497.979	5.69
498.179	5.92
498.38	5.92
498.58	5.97
498.78	6.4
498.981	6.18
499.181	6.14
499.382	6.42
499.582	6.2
499.782	5.92
499.983	6.07
500.183	6.04
500.383	5.82
500.584	6.07
500.784	6.07
500.984	6.13
501.184	6.38
501.385	6.37
501.585	6.08
501.785	6.41
501.985	6.55
502.185	6.54
502.386	6.42
502.586	6.73
502.786	6.63
502.986	6.56
503.186	6.63
503.386	6.84
503.586	6.77
503.786	6.69
503.987	6.42
504.187	6.58
504.387	6.73
504.587	6.99
504.787	6.89
504.987	6.91
505.187	6.89
505.387	6.75
505.587	6.48
505.786	6.78
505.986	6.58
506.186	6.86
506.386	6.59
506.586	6.52
506.786	6.23
506.986	6.29
507.186	6.32
507.386	6.74
507.585	6.45
507.785	6.51
507.985	6.14
508.185	6.4
508.384	6.31
508.584	6.56
508.784	6.58
508.984	6.7
509.183	6.4
509.383	6.12
509.583	5.98
509.782	6.25
509.982	6.14
510.182	6.62
510.381	6.68
510.581	7.04
510.781	6.86
510.98	6.67
511.18	6.58
511.379	6.6
511.579	6.49
511.778	6.15
511.978	6.4
512.177	6.73
512.377	6.52
512.576	6.25
512.776	6.01
512.975	6.12
513.175	6.38
513.374	6.49
513.573	6.83
513.773	7.38
513.972	7.67
514.172	7.39
514.371	7.11
514.57	7.25
514.77	7.78
514.969	7.99
515.168	8.26
515.367	8.03
515.567	7.84
515.766	7.67
515.965	7.74
516.164	7.68
516.364	7.83
516.563	8.07
516.762	7.77
516.961	7.78
517.16	7.65
517.359	7.75
517.559	7.79
517.758	8
517.957	8.11
518.156	8.05
518.355	8.14
518.554	8.23
518.753	8.08
518.952	8.47
519.151	8.34
519.35	8.48
519.549	8.27
519.748	8.32
519.947	8.27
520.146	8.15
520.345	8.48
520.544	8.39
520.743	8.31
520.942	8.91
521.141	8.79
521.339	8.89
521.538	9.02
521.737	9.31
521.936	9.11
522.135	9.06
522.333	9.22
522.532	8.75
522.731	8.73
522.93	8.8
523.129	8.36
523.327	8.36
523.526	8.6
523.725	8.88
523.923	9.1
524.122	9.44
524.321	9.55
524.519	9.56
524.718	9.8
524.917	9.69
525.115	9.83
525.314	10.03
525.512	10.16
525.711	10.12
525.909	9.86
526.108	9.68
526.306	9.72
526.505	9.81
526.703	9.79
526.902	9.79
527.1	9.98
527.299	9.95
527.497	9.89
527.696	9.98
527.894	10.05
528.092	10.26
528.291	10.34
528.489	10.3
528.688	10.59
528.886	10.83
529.084	11.09
529.283	11.21
529.481	11.35
529.679	11.54
529.877	11.5
530.076	11.68
530.274	11.63
530.472	11.68
530.67	12.03
530.869	11.89
531.067	11.72
531.265	11.68
531.463	11.74
531.661	11.81
531.859	11.89
532.057	12
532.255	11.95
532.454	11.83
532.652	11.8
532.85	11.76
533.048	11.68
533.246	11.96
533.444	12.11
533.642	12.11
533.84	11.91
534.038	11.87
534.236	11.91
534.434	12.05
534.632	12.3
534.83	12.48
535.027	12.72
535.225	12.94
535.423	12.7
535.621	12.44
535.819	12.36
536.017	12.56
536.215	12.65
536.412	12.63
536.61	12.78
536.808	12.9
537.006	13.05
537.203	13.07
537.401	13.16
537.599	13.63
537.797	13.78
537.994	14.27
538.192	14.54
538.39	14.83
538.587	15.05
538.785	14.73
538.983	14.57
539.18	14.68
539.378	14.52
539.575	14.61
539.773	14.49
539.97	14.65
540.168	14.59
540.366	14.64
540.563	14.64
540.761	14.75
540.958	14.94
541.155	15.08
541.353	15.02
541.55	15.18
541.748	15.16
541.945	15.29
542.143	15.51
542.34	15.71
542.537	15.66
542.735	15.84
542.932	16.02
543.129	16.15
543.327	16.23
543.524	16.3
543.721	16.62
543.919	16.82
544.116	16.9
544.313	16.68
544.51	16.75
544.708	16.92
544.905	17.22
545.102	17.24
545.299	17.14
545.496	17.3
545.693	17.63
545.891	17.47
546.088	17.44
546.285	17.62
546.482	17.67
546.679	17.73
546.876	17.98
547.073	17.81
547.27	18.02
547.467	18.55
547.664	18.8
547.861	18.65
548.058	18.85
548.255	19.2
548.452	19.28
548.649	19.65
548.846	19.88
549.043	19.91
549.24	19.96
549.437	20.38
549.633	20.23
549.83	20.38
550.027	20.8
550.224	20.93
550.421	21.44
550.618	21.27
550.814	21.37
551.011	21.3
551.208	21.35
551.405	21.19
551.601	21.05
551.798	20.93
551.995	21.1
552.191	21.13
552.388	21.17
552.585	20.73
552.781	20.93
552.978	21.32
553.175	21.66
553.371	21.99
553.568	22.31
553.764	22.16
553.961	22.59
554.157	22.5
554.354	22.5
554.55	22.51
554.747	22.7
554.943	22.77
555.14	22.66
555.336	22.9
555.533	22.92
555.729	23.25
555.926	23.73
556.122	23.6
556.318	23.72
556.515	23.9
556.711	23.93
556.907	24.25
557.104	24.86
557.3	24.98
557.496	24.74
557.693	24.93
557.889	24.68
558.085	24.36
558.281	24.68
558.478	24.81
558.674	25.14
558.87	26.12
559.066	26.39
559.262	26.25
559.459	26.22
559.655	26.1
559.851	26.23
560.047	26.71
560.243	27.48
560.439	27.74
560.635	28.15
560.831	28.25
561.027	27.64
561.223	27.27
561.419	27.13
561.615	27.48
561.811	28.19
562.007	28.41
562.203	28.58
562.399	28.02
562.595	28.01
562.791	28.16
562.987	27.74
563.183	27.6
563.379	28.08
563.575	28.53
563.771	28.25
563.966	28.05
564.162	27.9
564.358	27.83
564.554	28.17
564.75	28.09
564.945	28.02
565.141	28.43
565.337	28.95
565.533	28.78
565.728	28.95
565.924	29.03
566.12	29.32
566.315	29.55
566.511	29.75
566.707	30.03
566.902	30.29
567.098	30.17
567.293	30.42
567.489	30.2
567.684	30.29
567.88	30.15
568.076	30.35
568.271	30.12
568.467	30.31
568.662	30.28
568.858	29.88
569.053	29.74
569.248	30.12
569.444	30.4
569.639	30.56
569.835	30.75
570.03	30.95
570.225	31
570.421	30.88
570.616	30.57
570.812	30.42
571.007	30.92
571.202	31.02
571.397	30.53
571.593	30.04
571.788	29.75
571.983	30.1
572.178	29.83
572.374	29.86
572.569	30.21
572.764	30.47
572.959	30.88
573.154	30.62
573.35	30.7
573.545	31.13
573.74	31.35
573.935	32.04
574.13	31.84
574.325	32.22
574.52	32.6
574.715	33.07
574.91	33.04
575.105	32.89
575.3	32.95
575.495	33.29
575.69	33.23
575.885	33.28
576.08	33.49
576.275	33.7
576.47	33.86
576.665	33.82
576.86	33.39
577.055	33.38
577.25	33.69
577.444	34.04
577.639	34.18
577.834	34.41
578.029	35.01
578.224	34.76
578.418	34.66
578.613	34.63
578.808	35.16
579.003	35.29
579.197	35.56
579.392	35.71
579.587	35.63
579.781	35.64
579.976	35.62
580.171	35.14
580.365	35.04
580.56	35.38
580.755	35.38
580.949	35.1
581.144	35.18
581.338	35.51
581.533	35.34
581.727	34.82
581.922	35.04
582.116	35.55
582.311	35.61
582.505	36.04
582.7	35.94
582.894	35.93
583.089	35.85
583.283	35.9
583.478	35.64
583.672	36.12
583.866	36.92
584.061	36.46
584.255	36.36
584.449	36.51
584.644	36.45
584.838	36.68
585.032	36.59
585.226	37.02
585.421	37.1
585.615	37.25
585.809	36.92
586.003	37.03
586.198	37.34
586.392	37.61
586.586	37.78
586.78	37.98
586.974	38.02
587.168	38.46
587.363	38.35
587.557	38.57
587.751	38.88
587.945	38.91
588.139	38.77
588.333	38.45
588.527	38.84
588.721	38.89
588.915	38.59
589.109	38.62
589.303	38.86
589.497	38.95
589.691	38.88
589.885	38.82
590.079	39.01
590.273	39.15
590.466	39.54
590.66	38.7
590.854	38.85
591.048	38.67
591.242	38.85
591.436	38.34
591.629	38.43
591.823	38.52
592.017	38.02
592.211	37.81
592.404	37.86
592.598	37.87
592.792	38.6
592.986	38.15
593.179	38.68
593.373	38.65
593.567	38.69
593.76	38.63
593.954	37.9
594.147	38.49
594.341	38.91
594.535	38.78
594.728	38.82
594.922	38.29
595.115	38.28
595.309	38.09
595.502	37.72
595.696	38.09
595.889	38.18
596.083	38.72
596.276	38.53
596.47	38.62
596.663	38.98
596.856	39.08
597.05	39.26
597.243	39.73
597.437	40.02
597.63	40.5
597.823	40.5
598.017	40.41
598.21	40.62
598.403	40.72
598.596	40.91
598.79	41.31
598.983	41.91
599.176	42.34
599.369	42.46
599.563	42.46
599.756	42.16
599.949	42.42
600.142	42.58
600.335	42.53
600.528	42.52
600.722	42.21
600.915	41.84
601.108	41.47
601.301	41.18
601.494	41.02
601.687	41.16
601.88	40.7
602.073	40.34
602.266	39.87
602.459	39.58
602.652	39.45
602.845	39.25
603.038	39.09
603.231	38.52
603.424	38.61
603.617	38.79
603.809	38.71
604.002	39.04
604.195	39.01
604.388	38.94
604.581	39.12
604.774	39.31
604.966	39.43
605.159	39.36
605.352	40.09
605.545	40.68
605.737	41.24
605.93	41.27
606.123	41.55
606.316	42
606.508	42.62
606.701	43.16
606.894	42.84
607.086	42.64
607.279	42.65
607.471	42.63
607.664	41.65
607.857	40.94
608.049	40.91
608.242	40.8
608.434	40.43
608.627	40.16
608.819	39.83
609.012	40.37
609.204	41.05
609.397	40.79
609.589	40.36
609.782	41
609.974	41.37
610.166	41.56
610.359	41.73
610.551	42.55
610.743	43.23
610.936	43.36
611.128	43.24
611.32	43.09
611.513	43.37
611.705	44.53
611.897	44.75
612.09	44.57
612.282	44.89
612.474	44.89
612.666	44.73
612.858	44.55
613.051	44.48
613.243	44.74
613.435	44.6
613.627	45.17
613.819	44.5
614.011	43.76
614.203	43.91
614.395	44.21
614.588	45.33
614.78	45.47
614.972	45.74
615.164	46.33
615.356	45.98
615.548	46.26
615.74	46.32
615.932	46.65
616.124	47.07
616.315	47.6
616.507	47.14
616.699	46.36
616.891	46.17
617.083	45.91
617.275	46.1
617.467	46.63
617.659	46.69
617.85	46.73
618.042	46.56
618.234	46.49
618.426	46.47
618.618	46.22
618.809	45.96
619.001	45.56
619.193	45.37
619.384	44.74
619.576	44.79
619.768	44.56
619.959	44.31
620.151	44.43
620.343	45.01
620.534	44.39
620.726	45.14
620.917	45.74
621.109	47.04
621.301	47.89
621.492	48.09
621.684	48.17
621.875	48.4
622.067	49.06
622.258	48.45
622.45	48.54
622.641	48.84
622.832	49.01
623.024	48.62
623.215	47.56
623.407	47.68
623.598	47.33
623.789	47.07
623.981	46.86
624.172	46.38
624.363	47.23
624.555	47.18
624.746	47.09
624.937	46.38
625.129	45.89
625.32	46.46
625.511	46.15
625.702	46.64
625.893	46.64
626.085	46.69
626.276	46.96
626.467	46.84
626.658	46.58
626.849	46.62
627.04	47.05
627.231	47.88
627.422	47.68
627.614	47.76
627.805	47.94
627.996	48.14
628.187	47.91
628.378	47.21
628.569	46.82
628.76	46.78
628.951	46.73
629.142	47.02
629.332	47.02
629.523	46.72
629.714	46.57
629.905	46.92
630.096	47.09
630.287	48.03
630.478	49.03
630.669	49.24
630.859	48.86
631.05	48.79
631.241	47.99
631.432	47.59
631.623	47.71
631.813	47.63
632.004	46.73
632.195	46.41
632.385	45.32
632.576	44.63
632.767	44.5
632.957	45.39
633.148	45.08
633.339	45.65
633.529	46.14
633.72	46.04
633.91	46.5
634.101	46.61
634.292	47.06
634.482	47.57
634.673	48.49
634.863	49.33
635.054	49.36
635.244	50
635.435	49.39
635.625	48.81
635.815	48.75
636.006	48
636.196	49
636.387	49.15
636.577	49.43
636.767	48.56
636.958	47.68
637.148	46.95
637.338	47.31
637.529	47.82
637.719	48.12
637.909	48.42
638.099	48.5
638.29	48.09
638.48	48.26
638.67	48.61
638.86	50.22
639.05	51.24
639.241	52.76
639.431	53.08
639.621	53.92
639.811	55.04
640.001	55.64
640.191	55.79
640.381	56.32
640.571	56.26
640.761	55.99
640.951	55.13
641.141	54.93
641.331	53.96
641.521	53.68
641.711	53.72
641.901	53.2
642.091	52.36
642.281	53.55
642.471	52.74
642.661	52.43
642.851	53.18
643.041	52.79
643.231	52.72
643.42	53.18
643.61	53.08
643.8	52.72
643.99	52.98
644.18	53.19
644.369	52.27
644.559	52.58
644.749	52.97
644.939	52.84
645.128	52.79
645.318	52.42
645.508	51.86
645.697	52.06
645.887	52.01
646.076	51.13
646.266	51.14
646.456	51.65
646.645	51.66
646.835	51.5
647.024	50.45
647.214	50.51
647.403	51.87
647.593	52.32
647.782	52.39
647.972	52.99
648.161	53.56
648.351	53.89
648.54	53.49
648.73	53.46
648.919	53.19
649.108	53.18
649.298	53.11
649.487	52.25
649.677	52.31
649.866	52.34
650.055	52.13
650.244	52.29
650.434	51.71
650.623	52.42
650.812	52.44
651.002	52.26
651.191	53.01
651.38	52.96
651.569	52.82
651.758	52.65
651.947	52.56
652.137	52.17
652.326	51.27
652.515	52.67
652.704	52.15
652.893	52.6
653.082	53.58
653.271	53.98
653.46	54.62
653.649	54.86
653.838	55.03
654.027	54.64
654.216	54.83
654.405	55.46
654.594	54.73
654.783	54.33
654.972	53.81
655.161	53.47
655.35	53.02
655.539	53.16
655.728	53.14
655.916	53.07
656.105	52.96
656.294	52.62
656.483	52.81
656.672	51.99
656.86	52.83
657.049	52.89
657.238	52.3
657.427	52.37
657.615	51.62
657.804	50.87
657.993	50.14
658.181	49.78
658.37	49.63
658.559	49.31
658.747	50.1
658.936	49.2
659.125	48.82
659.313	49.04
659.502	48.78
659.69	49.62
659.879	50.1
660.067	51.35
660.256	52.47
660.444	52.87
660.633	53.48
660.821	53.6
661.01	54.02
661.198	55.13
661.387	55.92
661.575	56.55
661.763	56
661.952	56.11
662.14	55.77
662.328	55.03
662.517	55.23
662.705	55.49
662.893	55.16
663.082	56.59
663.27	56.49
663.458	56.61
663.646	57.13
663.834	58.08
664.023	58.69
664.211	58.25
664.399	59.33
664.587	59.99
664.775	59.29
664.963	59.65
665.152	59.52
665.34	59.15
665.528	58.32
665.716	57.42
665.904	56.79
666.092	56.23
666.28	55.63
666.468	54.84
666.656	54.43
666.844	54.29
667.032	54.36
667.22	52.85
667.408	52.59
667.596	53.53
667.784	54.28
667.971	54.22
668.159	54.66
668.347	54.71
668.535	55.45
668.723	55.63
668.911	55.78
669.098	55.69
669.286	55.77
669.474	56
669.662	56.05
669.849	55.13
670.037	55.41
670.225	55.58
670.413	57.84
670.6	58.16
670.788	58.44
670.976	59.07
671.163	59.22
671.351	59.92
671.538	60.72
671.726	59.3
671.913	60.46
672.101	60.13
672.289	59.82
672.476	58.96
672.664	58.81
672.851	57.94
673.039	58.16
673.226	57.52
673.413	59.11
673.601	58.45
673.788	59.59
673.976	59.07
674.163	59.92
674.35	61.25
674.538	60.86
674.725	60.98
674.912	61.23
675.1	61.42
675.287	61.82
675.474	61.2
675.662	59.76
675.849	59.07
676.036	58.74
676.223	57.53
676.411	56.66
676.598	56.64
676.785	55.93
676.972	56.2
677.159	55.19
677.346	55.77
677.533	55.1
677.721	56.39
677.908	56.87
678.095	56.37
678.282	56.57
678.469	56.88
678.656	56.77
678.843	56.04
679.03	55.79
679.217	56.23
679.404	55.83
679.591	55.85
679.778	55.74
679.964	55.49
680.151	55.7
680.338	56.27
680.525	55.65
680.712	55.58
680.899	56.4
681.086	55.78
681.272	55.74
681.459	55.75
681.646	55.66
681.833	56.23
682.02	56.88
682.206	58.34
682.393	59.16
682.58	60.18
682.766	60.62
682.953	60.44
683.14	61.28
683.326	61.37
683.513	60.53
683.7	61.2
683.886	60.76
684.073	60.59
684.259	59.62
684.446	57.84
684.632	56.88
684.819	56.84
685.005	56.79
685.192	56.47
685.378	56.94
685.565	58.2
685.751	57.12
685.938	57.36
686.124	57.06
686.31	58
686.497	59.26
686.683	60.72
686.87	60.67
687.056	61.76
687.242	62.74
687.429	62.65
687.615	62.32
687.801	63.21
687.987	63.5
688.174	64.06
688.36	63.64
688.546	62.24
688.732	61.24
688.918	61.56
689.105	60.96
689.291	60.76
689.477	60.37
689.663	60.6
689.849	61.29
690.035	62.14
690.221	62.06
690.407	61.14
690.593	62.5
690.779	62.05
690.965	62
691.151	62.11
691.337	62.54
691.523	63.23
691.709	63.58
691.895	63.07
692.081	62.79
692.267	63.12
692.453	62.84
692.639	63.86
692.825	65.23
693.011	64.88
693.196	64.84
693.382	64.7
693.568	64.42
693.754	65.16
693.94	65.3
694.125	63.46
694.311	63.96
694.497	64.32
694.682	63.25
694.868	64.03
695.054	64.73
695.239	64.3
695.425	62.42
695.611	61.65
695.796	60.35
695.982	57.46
696.168	57.68
696.353	57.15
696.539	56.46
696.724	56.11
696.91	54.94
697.095	54.33
697.281	53.96
697.466	54.18
697.652	53.17
697.837	52.71
698.023	53.62
698.208	53.83
698.393	53.03
698.579	53.48
698.764	53.11
698.949	52.84
699.135	53.13
699.32	53.64
699.505	54.88
699.691	56.86
699.876	57.4
700.061	58.88
700.246	59.51
700.432	60.97
700.617	61.41
700.802	63.28
700.987	64.98
701.172	65.55
701.358	65.66
701.543	65.67
701.728	65.9
701.913	66.15
702.098	66.66
702.283	68.66
702.468	67.6
702.653	66.66
702.838	66.3
703.023	65.77
703.208	65.85
703.393	67.08
703.578	67.29
703.763	68.44
703.948	68.43
704.133	66.89
704.318	64.89
704.503	65.97
704.688	68.63
704.873	68.06
705.057	67.23
705.242	67.14
705.427	65.47
705.612	65.63
705.797	64.93
705.981	65.39
706.166	66.28
706.351	66.23
706.536	65.82
706.72	65.14
706.905	65.41
707.09	65.96
707.274	66.15
707.459	66.44
707.644	66.45
707.828	66.75
708.013	65.81
708.197	65.96
708.382	65.45
708.567	65.24
708.751	63.94
708.936	64.68
709.12	64.52
709.305	64.15
709.489	64.65
709.673	63.1
709.858	62.06
710.042	63.34
710.227	62.75
710.411	62.68
710.596	62.12
710.78	62.65
710.964	61.73
711.149	62.21
711.333	62.03
711.517	62.09
711.702	63.6
711.886	63.67
712.07	62.27
712.254	63.3
712.438	64.6
712.623	65.39
712.807	65.27
712.991	65.38
713.175	65.57
713.359	64.97
713.544	64.47
713.728	64.33
713.912	65.11
714.096	65.69
714.28	65.18
714.464	63.79
714.648	64.06
714.832	64.19
715.016	63.62
715.2	61.68
715.384	63.45
715.568	64.79
715.752	64.93
715.936	66.15
716.12	66.66
716.304	65.64
716.488	67.28
716.671	67.39
716.855	69.34
717.039	71.41
717.223	73.28
717.407	73.06
717.59	74.33
717.774	74.71
717.958	72.4
718.142	71.31
718.325	72.92
718.509	73.11
718.693	72.9
718.877	71.59
719.06	70.17
719.244	69.57
719.428	70.44
719.611	68.72
719.795	69.01
719.978	69.88
720.162	73.4
720.345	73.32
720.529	74.09
720.713	74.55
720.896	74.1
721.08	75.69
721.263	76.36
721.446	75.74
721.63	77.4
721.813	77.08
721.997	76.99
722.18	75.55
722.364	77.04
722.547	75.45
722.73	76.14
722.914	76.33
723.097	75.42
723.28	75.77
723.464	75.11
723.647	72.47
723.83	72.97
724.013	72.3
724.197	70.65
724.38	70.63
724.563	70.21
724.746	69.04
724.929	69.22
725.112	70.22
725.296	70.53
725.479	70.85
725.662	72.23
725.845	72.58
726.028	73.32
726.211	74.46
726.394	72.8
726.577	72.93
726.76	73.77
726.943	72.35
727.126	71.8
727.309	70.01
727.492	70.14
727.675	70.05
727.858	70.35
728.041	70.04
728.224	70.14
728.407	70.45
728.589	70.22
728.772	70.34
728.955	72.44
729.138	71.56
729.321	71.98
729.503	72.78
729.686	72.8
729.869	72.23
730.052	73.33
730.234	72.85
730.417	73.12
730.6	73.94
730.782	73.5
730.965	72.9
731.148	74.6
731.33	74.5
731.513	74.36
731.695	75.78
731.878	73.71
732.061	70.87
732.243	72.44
732.426	72.78
732.608	71.07
732.791	70.66
732.973	70.87
733.156	69.68
733.338	70.62
733.52	69.82
733.703	67.26
733.885	69.74
734.068	71.86
734.25	70.24
734.432	71.38
734.615	71.57
734.797	73.47
734.979	73.56
735.162	73.21
735.344	73.25
735.526	73.32
735.708	74.73
735.891	73.62
736.073	73
736.255	73.39
736.437	70.91
736.619	72.58
736.802	72.12
736.984	70.23
737.166	69.59
737.348	69.84
737.53	69.23
737.712	67.63
737.894	67.57
738.076	69
738.258	67.93
738.44	67.54
738.622	67.46
738.804	68.2
738.986	70.06
739.168	70.73
739.35	71.74
739.532	71.36
739.714	73.46
739.896	74.9
740.078	74.23
740.259	74.74
740.441	77.42
740.623	78.48
740.805	76.22
740.987	75.77
741.168	74.17
741.35	73.41
741.532	75.84
741.714	74.66
741.895	73.18
742.077	71.91
742.259	71.77
742.44	70.93
742.622	68.67
742.804	69.02
742.985	67.7
743.167	69.77
743.348	68.85
743.53	67.73
743.711	70.15
743.893	69.33
744.075	69.76
744.256	70.78
744.438	74.41
744.619	78
744.8	78.36
744.982	81.89
745.163	81.79
745.345	83.99
745.526	83.78
745.707	82.59
745.889	85.67
746.07	86.82
746.252	88.98
746.433	82.55
746.614	81.24
746.795	80.33
746.977	80.12
747.158	80.55
747.339	78.13
747.52	79.11
747.702	79.69
747.883	78.24
748.064	77.25
748.245	75.71
748.426	78.35
748.607	78.67
748.788	78.32
748.97	78.33
749.151	78.22
749.332	80.96
749.513	81.35
749.694	81.36
749.875	81.14
750.056	82.25
750.237	83.95
750.418	83.18
750.599	83.48
750.78	83.42
750.96	83.81
751.141	85.44
751.322	84.61
751.503	84.91
751.684	86.33
751.865	86.75
752.046	86.6
752.226	85.34
752.407	85.47
752.588	84.4
752.769	84
752.949	81.98
753.13	79.92
753.311	78.72
753.492	78.18
753.672	75.91
753.853	75.15
754.034	74.27
754.214	72.69
754.395	72.5
754.575	71.42
754.756	72.9
754.937	73.85
755.117	74.91
755.298	77.23
755.478	76.37
755.659	77.24
755.839	78.23
756.02	80.83
756.2	82.98
756.381	83.86
756.561	84.82
756.741	85.37
756.922	84.09
757.102	84.46
757.283	83.75
757.463	84.01
757.643	82.59
757.823	82
758.004	79.76
758.184	78.33
758.364	74.98
758.545	77.15
758.725	78.35
758.905	79.21
759.085	79.55
759.265	78.02
759.446	79.63
759.626	78.74
759.806	78.82
759.986	79.11
760.166	80.16
760.346	83
760.526	81.08
760.706	79.54
760.886	77.81
761.066	76.65
761.246	75.44
761.426	72.42
761.606	72.17
761.786	71.44
761.966	71.12
762.146	70.28
762.326	69.22
762.506	69.41
762.686	68.64
762.866	67.66
763.046	67.09
763.225	67.62
763.405	68.22
763.585	67.46
763.765	66.89
763.945	67.79
764.124	67.95
764.304	67.24
764.484	65.34
764.664	66.03
764.843	66.98
765.023	65.78
765.203	66.4
765.382	67.43
765.562	67.84
765.741	69.81
765.921	70.17
766.101	70.6
766.28	71.83
766.46	74.24
766.639	74.23
766.819	77.35
766.998	81.41
767.178	83.4
767.357	82.48
767.537	85.52
767.716	85.59
767.896	84.76
768.075	84.86
768.254	86.58
768.434	86.47
768.613	86.72
768.792	86.47
768.972	85.44
769.151	83
769.33	85.12
769.51	84.8
769.689	86.03
769.868	86.68
770.047	86.26
770.226	88.4
770.406	89.4
770.585	91.3
770.764	91.73
770.943	91.03
771.122	91.99
771.301	90.44
771.48	92.35
771.66	90.49
771.839	92.67
772.018	97.47
772.197	99.81
772.376	101.62
772.555	98.06
772.734	97.21
772.913	98.28
773.092	100.74
773.271	100.55
773.449	100.76
773.628	100.99
773.807	100
773.986	96.97
774.165	93.55
774.344	94.86
774.523	101.22
774.701	102.67
774.88	99.94
775.059	99.21
775.238	99.63
775.417	99.31
775.595	101.84
775.774	101.65
775.953	102.98
776.131	100.64
776.31	97.04
776.489	94.42
776.667	94.21
776.846	99.08
777.025	99.13
777.203	97.9
777.382	97.14
777.56	95.42
777.739	94.85
777.917	92.27
778.096	92.95
778.274	91.45
778.453	90.83
778.631	91.84
778.81	88.99
778.988	88.18
779.166	90.27
779.345	88.66
779.523	88.77
779.702	88.46
779.88	89
780.058	89.51
780.237	90.48
780.415	90.38
780.593	90.93
780.771	92.63
780.95	93.17
781.128	94.1
781.306	96.21
781.484	100.84
781.662	100.37
781.841	101.88
782.019	103.17
782.197	105.51
782.375	105.22
782.553	107.08
782.731	104.47
782.909	104.49
783.087	102.63
783.265	99.61
783.443	95.36
783.621	94.69
783.799	96.69
783.977	95.32
784.155	97.08
784.333	98.13
784.511	88.47
784.689	86.85
784.867	87.9
785.045	90.17
785.223	89.47
785.4	92.68
785.578	93.17
785.756	92.6
785.934	93.37
786.112	89.92
786.289	87.19
786.467	91.83
786.645	90.97
786.823	88.73
787	85.14
787.178	87.46
787.356	83.7
787.533	82.44
787.711	81.03
787.889	83.32
788.066	84.19
788.244	83.75
788.421	84.91
788.599	93.4
788.776	91.93
788.954	90.82
789.131	95.3
789.309	95.56
789.486	97.5
789.664	100.02
789.841	95.1
790.019	95.59
790.196	96.62
790.373	96.87
790.551	86.53
790.728	89.13
790.906	90.95
791.083	88.34
791.26	93
791.437	95.75
791.615	93.51
791.792	93.76
791.969	93.65
792.146	93.85
792.324	96.1
792.501	99.38
792.678	97.18
792.855	101.35
793.032	96.65
793.209	94.75
793.387	93.89
793.564	97.16
793.741	99.04
793.918	102.38
794.095	102.82
794.272	104.55
794.449	104.36
794.626	107.61
794.803	105.23
794.98	104.71
795.157	101.24
795.334	98.67
795.511	96.32
795.688	93.06
795.864	88.82
796.041	90.17
796.218	88.76
796.395	86.8
796.572	87.38
796.749	89.69
796.925	93.16
797.102	96.1
797.279	97.98
797.456	95.16
797.632	97.14
797.809	99.47
797.986	97.28
798.162	91.13
798.339	97.29
798.516	92.84
798.692	90.65
798.869	89.19
799.046	86.11
799.222	83.55
799.399	86.33
799.575	84.21
799.752	81
799.928	82.38
800.105	86.01
800.281	82.03
800.458	84.5
800.634	80.79
800.811	80.81
800.987	85.88
801.163	87.05
801.34	87.29
801.516	94.68
801.692	97.04
801.869	94.87
802.045	94.06
802.221	94.05
802.398	95.3
802.574	97.82
802.75	99.26
802.926	96.75
803.103	101.84
803.279	101.86
803.455	94.15
803.631	91.71
803.807	90.39
803.983	90.23
804.16	85.98
804.336	81.97
804.512	83.82
804.688	81.15
804.864	73.09
805.04	71.06
805.216	66.09
805.392	71.08
805.568	69.2
805.744	74.23
805.92	74.89
806.096	81.5
806.272	81.88
806.448	75.94
806.623	78.42
806.799	89.67
806.975	83.29
807.151	85.31
807.327	83.52
807.503	83.36
807.678	86.82
807.854	85.81
808.03	87.11
808.206	89.36
808.381	92.15
808.557	92.76
808.733	88.56
808.908	94.34
809.084	97.11
809.26	101.01
809.435	107.89
809.611	95.11
809.787	97.04
809.962	95.48
810.138	97.52
810.313	100
810.489	100.15
810.664	101.66
810.84	96.31
811.015	100.42
811.191	95.06
811.366	92
811.542	100.75
811.717	101.07
811.892	106.71
812.068	105.65
812.243	103.08
812.419	102
812.594	100.26
812.769	98
812.944	90.94
813.12	90.02
813.295	90.69
813.47	88.83
813.645	89.67
813.821	84.42
813.996	83.5
814.171	82.59
814.346	83.02
814.521	84.97
814.697	87.98
814.872	92.02
815.047	94.12
815.222	97.25
815.397	93.68
815.572	87.65
815.747	86.22
815.922	85.47
816.097	83.32
816.272	84.5
816.447	83.61
816.622	84.47
816.797	83.35
816.972	83.86
817.147	80.12
817.322	83.45
817.496	85.07
817.671	86.64
817.846	84.36
818.021	85.87
818.196	80.27
818.371	79.79
818.545	77.74
818.72	77.61
818.895	76.07
819.069	74.88
819.244	73.73
819.419	73.65
819.594	67.87
819.768	66.72
819.943	63.25
820.117	60.61
820.292	54.98
820.467	52.19
820.641	49.52
820.816	47.37
820.99	45.38
821.165	43.66
821.339	41.48
821.514	41.4
821.688	40.98
821.863	40.81
822.037	40.3
822.212	41.03
822.386	41.21
822.56	41.42
822.735	41.63
822.909	42.9
823.084	43.29
823.258	43.26
823.432	43.65
823.606	42.88
823.781	43.04
823.955	43.34
824.129	43.76
824.303	44.1
824.478	43.23
824.652	42.2
824.826	40.09
825	39.59
825.174	41.26
825.348	41.85
825.523	43.64
825.697	43.73
825.871	44.47
826.045	45.51
826.219	46.37
826.393	48.19
826.567	50.19
826.741	51.05
826.915	51.52
827.089	52.27
827.263	52.43
827.437	52.94
827.611	53.84
827.784	55.8
827.958	55.58
828.132	54.13
828.306	54.03
828.48	54.79
828.654	58.21
828.827	59.84
829.001	60.95
829.175	62.42
829.349	63.04
829.522	63.16
829.696	62.94
829.87	63.55
830.044	67.56
830.217	69.82
830.391	68.61
830.565	64.08
830.738	67.37
830.912	68.54
831.085	67.74
831.259	64.59
831.432	64.54
831.606	63.68
831.779	61.39
831.953	58.95
832.126	57.96
832.3	55.98
832.473	56.16
832.647	54.08
832.82	53.06
832.994	51.05
833.167	52.13
833.34	50.74
833.514	52.18
833.687	53.48
833.86	54.75
834.034	53.65
834.207	55.81
834.38	57.92
834.553	58.7
834.727	60.24
834.9	62.18
835.073	61.2
835.246	60.81
835.419	59.27
835.593	59.11
835.766	59.01
835.939	58.62
836.112	58.05
836.285	55.47
836.458	54.57
836.631	52.08
836.804	53.93
836.977	56.48
837.15	60.57
837.323	63.09
837.496	65.81
837.669	59.99
837.842	63.65
838.015	64.89
838.188	64.46
838.361	60.3
838.533	56.55
838.706	50.38
838.879	51.46
839.052	52.99
839.225	53.04
839.398	50.3
839.57	52.19
839.743	52.59
839.916	55.96
840.088	57.8
840.261	61.37
840.434	66.92
840.607	68.67
840.779	73.2
840.952	74.18
841.124	76.27
841.297	79.33
841.47	83.68
841.642	90.06
841.815	86.65
841.987	87.3
842.16	92.71
842.332	94.89
842.505	96.16
842.677	94.95
842.85	100.14
843.022	99.69
843.194	97.02
843.367	102.73
843.539	100.81
843.712	107.36
843.884	113.17
844.056	109.37
844.229	104.26
844.401	110.56
844.573	109.59
844.745	100.05
844.918	101.22
845.09	105.1
845.262	96.77
845.434	92.46
845.606	89.95
845.779	86.93
845.951	90.06
846.123	92.17
846.295	99.55
846.467	108.94
846.639	111.22
846.811	109.25
846.983	113.71
847.155	116.7
847.327	121.54
847.499	123.38
847.671	124.1
847.843	126.35
848.015	117.43
848.187	113.29
848.359	105.78
848.531	106.36
848.703	102.69
848.875	104.64
849.047	107.42
849.218	106.08
849.39	112.24
849.562	121.39
849.734	120.52
849.905	131.86
850.077	133.1
850.249	137.7
850.421	141.78
850.592	140.65
850.764	144.82
850.936	131.19
851.107	137.26
851.279	121.47
851.451	111.69
851.622	108.94
851.794	112.22
851.965	108.94
852.137	102.22
852.308	109.58
852.48	114.93
852.651	107.54
852.823	116.55
852.994	104.35
853.166	108.7
853.337	109.15
853.509	101.81
853.68	106.04
853.851	111.25
854.023	114.62
854.194	96.67
854.365	88.28
854.537	87.1
854.708	87.98
854.879	95.21
855.05	93.11
855.222	92.1
855.393	99.38
855.564	87.4
855.735	82.59
855.906	85.99
856.078	96.7
856.249	105.99
856.42	116.12
856.591	117.43
856.762	114.23
856.933	123.69
857.104	125.3
857.275	117.76
857.446	124.18
857.617	120.84
857.788	106.83
857.959	98.93
858.13	89.31
858.301	82.55
858.472	75.77
858.643	78.77
858.814	66.71
858.985	70.95
859.155	83.27
859.326	84.97
859.497	76.98
859.668	78.66
859.839	72.53
860.009	86.16
860.18	89.56
860.351	98.18
860.522	91.45
860.692	98.43
860.863	96.63
861.034	95.21
861.204	100
861.375	108.3
861.546	110.92
861.716	116.57
861.887	117.32
862.057	116.99
862.228	116.13
862.398	101.48
862.569	100.32
862.739	95.83
862.91	101.11
863.08	87.69
863.251	80.67
863.421	74.1
863.592	84.97
863.762	81.49
863.932	83.14
864.103	90.51
864.273	103.17
864.443	106.25
864.614	96.85
864.784	87.2
864.954	87.67
865.125	89.53
865.295	94.11
865.465	85.09
865.635	80.42
865.805	73.4
865.976	58.9
866.146	63.14
866.316	52.4
866.486	62.01
866.656	64.49
866.826	72.62
866.996	83.02
867.166	91.96
867.336	86.79
867.506	85.54
867.676	84.67
867.846	87.55
868.016	93.6
868.186	97.72
868.356	92.89
868.526	92.1
868.696	87.84
868.866	80.42
869.036	74.7
869.206	82.31
869.376	81.29
869.545	97.33
869.715	112.49
869.885	99.33
870.055	98.41
870.224	115.41
870.394	104.84
870.564	101.18
870.734	94.49
870.903	90.18
871.073	90.82
871.243	95.7
871.412	81.61
871.582	82.48
871.751	84.2
871.921	91.73
872.091	73.14
872.26	79.02
872.43	93.6
872.599	99.55
872.769	110.96
872.938	108.7
873.108	110.78
873.277	131.37
873.446	124.21
873.616	132.51
873.785	123.29
873.955	123.91
874.124	118.17
874.293	115.54
874.463	113.18
874.632	104.79
874.801	108.23
874.971	102.65
875.14	84.63
875.309	82.89
875.478	87.54
875.647	97.46
875.817	96.58
875.986	99.76
876.155	98.45
876.324	92.32
876.493	94.9
876.662	82.38
876.831	75.04
877	86.36
877.17	88.92
877.339	80.57
877.508	72.34
877.677	62.51
877.846	59.56
878.015	57.04
878.184	56.34
878.352	48.66
878.521	57.19
878.69	58.41
878.859	56.39
879.028	57.62
879.197	59.73
879.366	53.91
879.534	52.13
879.703	52.11
879.872	51.67
880.041	50.63
880.21	50.88
880.378	42.33
880.547	44.21
880.716	42.75
880.884	40.86
881.053	40.15
881.222	40.16
881.39	39.73
881.559	39.37
881.727	36.95
881.896	35.38
882.065	35.03
882.233	37.65
882.402	36.37
882.57	35.32
882.739	36.26
882.907	36.54
883.076	37.77
883.244	37.95
883.412	37.93
883.581	39.96
883.749	42.08
883.918	41.06
884.086	39.7
884.254	40.27
884.423	41.5
884.591	43.2
884.759	41.96
884.927	41.55
885.096	43.09
885.264	43.13
885.432	45.03
885.6	46.84
885.769	51.27
885.937	60
886.105	63.96
886.273	59.64
886.441	52.19
886.609	53.19
886.777	53.89
886.945	58.47
887.113	65.82
887.281	56.32
887.449	57.2
887.617	58.47
887.785	55.16
887.953	57.62
888.121	65.97
888.289	69.24
888.457	73.14
888.625	75.45
888.793	70.78
888.961	70.12
889.129	76.94
889.296	66.5
889.464	61.39
889.632	53.84
889.8	50.35
889.967	51.13
890.135	56.12
