Data from JASIL_3265_Reflection_2.txt Node
Date: Mon Nov 16 20:59:43 EST 2015
User: Geneva
Spectrometer: USB4E03002
Autoset integration time: false
Trigger mode: 4
Integration Time (sec): 1.000000E-1
Scans to average: 10
Electric dark correction enabled: false
Nonlinearity correction enabled: false
Boxcar width: 5
Stray light correction enabled: false
XAxis mode: Wavelengths
Stop averaging: false
Number of Pixels in Spectrum: 3648
>>>>>Begin Spectral Data<<<<<
177.575	-915.38
177.794	-945.71
178.014	-935.54
178.233	-1594.39
178.452	-2230.12
178.672	-1565.15
178.891	-1993.4
179.11	6294.59
179.33	2087.5
179.549	-10436.36
179.768	1913.56
179.987	2343.01
180.207	1401.29
180.426	767.6
180.645	841.18
180.864	1509.09
181.084	620.05
181.303	559.26
181.522	1050
181.741	3226.76
181.96	662.11
182.179	865.43
182.398	1037.33
182.618	994.07
182.837	1003.78
183.056	816.67
183.275	514.85
183.494	515.35
183.713	547.9
183.932	436.55
184.151	468.93
184.37	501.15
184.589	415.24
184.808	344.73
185.027	353.84
185.246	443.51
185.465	690.46
185.684	750.52
185.903	3124.14
186.122	1251.12
186.341	1530.34
186.56	729.21
186.779	1351.81
186.998	1915.38
187.216	1996.85
187.435	1543.11
187.654	1342.7
187.873	632.06
188.092	540.59
188.311	485.62
188.53	776.29
188.748	750.62
188.967	1851.2
189.186	923.75
189.405	1047.62
189.623	1096.3
189.842	988.89
190.061	1085.65
190.28	2983.33
190.498	-2980
190.717	2105.56
190.936	-4196.61
191.154	-2066.96
191.373	-42666.67
191.592	-22254.55
191.81	-1309.77
192.029	-1790.84
192.248	-541.98
192.466	-495.41
192.685	-527.23
192.904	-732.97
193.122	-522.93
193.341	-1025.41
193.559	-1029.44
193.778	-1189.7
193.996	-1587.02
194.215	54700
194.433	-4866.67
194.652	1062.07
194.87	967.53
195.089	885.59
195.307	1054.74
195.526	3103.39
195.744	1781.58
195.963	1068.13
196.181	22050
196.399	-1608.55
196.618	9500
196.836	32733.33
197.055	-1688.52
197.273	-3329.31
197.491	-2204.44
197.71	-3978.43
197.928	2773.75
198.146	5433.33
198.365	-23360
198.583	1085.28
198.801	1381.87
199.019	3033.77
199.238	-5507.14
199.456	2265.09
199.674	1060.17
199.892	794.61
200.111	1002.31
200.329	968.3
200.547	734.65
200.765	697.91
200.983	752.11
201.202	597.62
201.42	975.2
201.638	617.69
201.856	723.58
202.074	2145.45
202.292	2492.93
202.51	1713.61
202.728	2582.47
202.946	-5922.5
203.165	6930.3
203.383	-2482.47
203.601	-2786.05
203.819	5120
204.037	25390
204.255	2655.67
204.473	1137.85
204.691	1635.33
204.909	1031.02
205.127	1129.77
205.345	1321.59
205.562	1208.42
205.78	811.41
205.998	948.57
206.216	804.29
206.434	768.92
206.652	662.42
206.87	490.3
207.088	436.66
207.306	548.49
207.523	489.64
207.741	390.22
207.959	409.27
208.177	442.55
208.395	360.7
208.612	411.04
208.83	371.65
209.048	414.75
209.266	546.36
209.483	542.12
209.701	446.49
209.919	500.42
210.136	536.55
210.354	1212.5
210.572	1125.34
210.79	1714.07
211.007	1006.55
211.225	1686.05
211.442	-10204.76
211.66	-3127.78
211.878	-1418.75
212.095	453.22
212.313	482.36
212.53	681.89
212.748	383.28
212.966	376.34
213.183	342.57
213.401	342.96
213.618	329.38
213.836	385.53
214.053	367.22
214.271	365.53
214.488	2051.26
214.705	1146.79
214.923	803.23
215.14	927.4
215.358	732.31
215.575	1163.21
215.793	1172.6
216.01	1513.5
216.227	531.49
216.445	406.33
216.662	439.48
216.879	449.62
217.097	366.02
217.314	409.19
217.531	478.17
217.749	541.19
217.966	656.67
218.183	522.87
218.4	638.44
218.618	741.73
218.835	738.84
219.052	504.79
219.269	466.52
219.487	780.56
219.704	547.1
219.921	409.68
220.138	314.34
220.355	314.45
220.572	341.86
220.79	356.43
221.007	439.8
221.224	635.87
221.441	587.83
221.658	673.15
221.875	424.57
222.092	447.18
222.309	688.41
222.526	807.66
222.743	678.91
222.96	919.81
223.177	453.08
223.394	484.44
223.611	330.77
223.828	388.17
224.045	396.29
224.262	471.71
224.479	328.21
224.696	248.07
224.913	288.43
225.13	242.11
225.347	207.48
225.564	198.34
225.781	165.48
225.997	160.09
226.214	135.06
226.431	122.09
226.648	101.13
226.865	95.41
227.082	92.74
227.298	81.11
227.515	74
227.732	66.98
227.949	60.45
228.165	56.89
228.382	52.39
228.599	50.73
228.816	49.05
229.032	50.38
229.249	48.38
229.466	49.37
229.682	50.26
229.899	51.58
230.116	53.03
230.332	61.49
230.549	66.58
230.765	69.77
230.982	73.46
231.199	77.16
231.415	86.02
231.632	93.06
231.848	96.97
232.065	109.92
232.281	105.69
232.498	119.59
232.714	115.2
232.931	107.74
233.147	103.7
233.364	110.67
233.58	112.58
233.797	110.47
234.013	101.65
234.23	98.74
234.446	89.04
234.662	87.54
234.879	82.88
235.095	86.69
235.312	89.63
235.528	94.26
235.744	94.5
235.961	94.24
236.177	85.39
236.393	99.32
236.61	107.31
236.826	108.45
237.042	118.55
237.258	117.34
237.475	112.96
237.691	113.64
237.907	110.19
238.123	107.08
238.339	91.72
238.556	92.31
238.772	83.96
238.988	72.44
239.204	67.82
239.42	66.31
239.636	68.18
239.853	63.79
240.069	58.43
240.285	60.02
240.501	54.76
240.717	55.01
240.933	48.51
241.149	42.7
241.365	40.35
241.581	39.34
241.797	35.09
242.013	33.26
242.229	32.88
242.445	33.37
242.661	30.53
242.877	31.1
243.093	30.47
243.309	35.28
243.525	39.21
243.741	43.05
243.957	45.44
244.173	46.84
244.388	45.75
244.604	45.16
244.82	44.15
245.036	42.29
245.252	39.26
245.468	36.91
245.683	32.32
245.899	29.97
246.115	25.73
246.331	23.15
246.547	21.88
246.762	21.3
246.978	21.3
247.194	20.56
247.409	19.53
247.625	19.09
247.841	18.37
248.057	19.35
248.272	19.87
248.488	23.08
248.703	26.4
248.919	29.5
249.135	31.3
249.35	30.5
249.566	32.35
249.782	34.79
249.997	37.7
250.213	37.52
250.428	38.45
250.644	38.92
250.859	37.57
251.075	36.29
251.29	34.61
251.506	35.13
251.721	36.11
251.937	37.63
252.152	39.27
252.368	40.64
252.583	45.13
252.798	45.75
253.014	47.52
253.229	48.43
253.445	49.37
253.66	54.72
253.875	59.61
254.091	66.09
254.306	65.88
254.521	66.72
254.737	66.78
254.952	63.68
255.167	64.25
255.383	61.31
255.598	58.57
255.813	55.44
256.028	51.4
256.244	48.69
256.459	44.06
256.674	43
256.889	41.24
257.104	36.79
257.32	37.47
257.535	32.01
257.75	28.25
257.965	26.66
258.18	24.4
258.395	22.43
258.61	19.8
258.826	18.36
259.041	17.62
259.256	18.15
259.471	18.11
259.686	16.38
259.901	16.43
260.116	17.78
260.331	18.92
260.546	20.22
260.761	20.95
260.976	22.35
261.191	23.67
261.406	25.68
261.621	26.82
261.836	29.05
262.05	31.49
262.265	34.91
262.48	34.98
262.695	35.1
262.91	35.13
263.125	36.88
263.34	38.36
263.555	39.15
263.769	38.62
263.984	36.68
264.199	36.99
264.414	38.03
264.629	37.12
264.843	38.45
265.058	37.41
265.273	33.35
265.488	31.33
265.702	30.43
265.917	30.74
266.132	29.22
266.346	29.75
266.561	28.22
266.776	28.1
266.99	28.84
267.205	28.77
267.42	28.27
267.634	31.22
267.849	30.29
268.063	30.14
268.278	30.92
268.492	31.35
268.707	30.83
268.922	31.46
269.136	29.59
269.351	28.43
269.565	26.69
269.78	25.24
269.994	24.08
270.209	25.58
270.423	24.24
270.637	23.12
270.852	21.74
271.066	21.83
271.281	22.58
271.495	22.1
271.709	22.36
271.924	23.14
272.138	24.88
272.353	25.99
272.567	25.14
272.781	24.83
272.996	24.82
273.21	25.56
273.424	25.75
273.638	26.1
273.853	28.01
274.067	29
274.281	28.98
274.495	28.03
274.71	26.9
274.924	27.19
275.138	26.35
275.352	26.21
275.566	26.11
275.781	26.45
275.995	24.79
276.209	23.82
276.423	24.91
276.637	23.79
276.851	25.94
277.065	26.6
277.279	27.49
277.493	29.45
277.707	26.97
277.921	26.94
278.135	27.46
278.349	28.85
278.563	28.6
278.777	28.11
278.991	27.28
279.205	25.72
279.419	25.77
279.633	24.5
279.847	23.55
280.061	25.03
280.275	24.62
280.489	23.63
280.703	21.93
280.917	21.44
281.131	20.19
281.344	21.82
281.558	22.24
281.772	21.45
281.986	21.51
282.2	21.9
282.414	20.44
282.627	20.8
282.841	20.65
283.055	20.9
283.269	21.94
283.482	22.27
283.696	21.94
283.91	21.67
284.123	21.85
284.337	21.37
284.551	20.05
284.764	21.68
284.978	20.55
285.192	20.35
285.405	21
285.619	19.47
285.833	19.21
286.046	18.65
286.26	17.85
286.473	17.2
286.687	17.94
286.9	19.79
287.114	20.9
287.327	21.99
287.541	21.09
287.754	20.07
287.968	20.54
288.181	21.42
288.395	21.33
288.608	22.65
288.822	23.46
289.035	23.19
289.248	21.87
289.462	20.01
289.675	20.35
289.889	20.7
290.102	20.31
290.315	20.57
290.529	19.71
290.742	20.15
290.955	20.43
291.169	19.97
291.382	19.97
291.595	22
291.808	22.67
292.022	22.92
292.235	23.56
292.448	24.16
292.661	24.93
292.875	26.55
293.088	27.51
293.301	26.29
293.514	25.29
293.727	25.19
293.94	23.12
294.153	23.54
294.367	23.36
294.58	22.31
294.793	21.73
295.006	22.04
295.219	19.54
295.432	18.9
295.645	18.15
295.858	18.62
296.071	18.4
296.284	18.3
296.497	17.36
296.71	16.51
296.923	17.38
297.136	16.61
297.349	15.65
297.562	16.99
297.775	17.09
297.988	17.63
298.201	18.16
298.414	17.05
298.626	17.68
298.839	18.09
299.052	18.45
299.265	17.18
299.478	18.92
299.691	19.04
299.903	18.95
300.116	19.24
300.329	19.09
300.542	19.03
300.755	21.79
300.967	21.84
301.18	21.1
301.393	21.65
301.605	22.5
301.818	22.73
302.031	23.36
302.243	23.36
302.456	23.75
302.669	24.77
302.881	24.77
303.094	24.52
303.307	25.07
303.519	26.1
303.732	26.65
303.944	27
304.157	25.56
304.37	25.4
304.582	25.56
304.795	25.27
305.007	25.05
305.22	25.43
305.432	25.12
305.645	24.37
305.857	25.06
306.069	24.33
306.282	24.8
306.494	24.62
306.707	24.98
306.919	25.36
307.132	24.89
307.344	24.97
307.556	24.41
307.769	24.53
307.981	24.69
308.193	23.34
308.406	24.33
308.618	22.35
308.83	23.05
309.043	22.48
309.255	22.89
309.467	22.49
309.679	21.61
309.892	21.34
310.104	20.23
310.316	19.83
310.528	20.38
310.74	18.98
310.953	19.91
311.165	20.34
311.377	20.25
311.589	19.41
311.801	20.24
312.013	20.73
312.225	22.25
312.437	23.4
312.649	23.72
312.862	24.69
313.074	23.88
313.286	25.9
313.498	25.47
313.71	25.54
313.922	26.5
314.134	26.18
314.346	26.4
314.558	25.27
314.77	24.63
314.982	24.81
315.193	23.6
315.405	25.98
315.617	23.92
315.829	25.13
316.041	24.26
316.253	22.87
316.465	23.15
316.677	22.9
316.888	22.99
317.1	22.92
317.312	21.93
317.524	22.21
317.736	22.31
317.947	24.16
318.159	24.91
318.371	25.91
318.583	25.31
318.794	26.33
319.006	26.38
319.218	25.78
319.43	26.21
319.641	28.27
319.853	28.89
320.064	28.33
320.276	27.27
320.488	25.46
320.699	26.1
320.911	28.95
321.123	27.86
321.334	30.23
321.546	31.48
321.757	30.95
321.969	30.78
322.18	29.71
322.392	30.36
322.603	31.78
322.815	32.75
323.026	31.47
323.238	30.4
323.449	28.68
323.661	27.04
323.872	26.7
324.083	26.72
324.295	25.6
324.506	27.15
324.718	25.62
324.929	24.51
325.14	25.18
325.352	26.3
325.563	25.83
325.774	27.34
325.986	26.78
326.197	26.66
326.408	27.93
326.62	28.74
326.831	26.06
327.042	27.74
327.253	27.92
327.464	28.06
327.676	26.97
327.887	27.45
328.098	27.8
328.309	28.62
328.52	28.99
328.732	27.48
328.943	28.15
329.154	31.09
329.365	30.69
329.576	31.59
329.787	30
329.998	32.02
330.209	30.05
330.42	30.43
330.631	31.6
330.842	30.83
331.053	31.96
331.264	31.25
331.475	28.87
331.686	29.9
331.897	28.9
332.108	29.27
332.319	28.7
332.53	29.72
332.741	28.97
332.952	28.59
333.163	29.86
333.374	28.37
333.585	29.02
333.795	30.13
334.006	28.93
334.217	28.34
334.428	27.73
334.639	26.65
334.849	25.94
335.06	26.07
335.271	25.88
335.482	24.67
335.692	25.18
335.903	24.13
336.114	24.06
336.325	24.7
336.535	25.63
336.746	27.37
336.957	28.15
337.167	28.32
337.378	28.13
337.589	26.77
337.799	26.88
338.01	28.34
338.22	28.59
338.431	28.7
338.642	27.49
338.852	26.27
339.063	24.88
339.273	24.51
339.484	25.89
339.694	25.74
339.905	25.9
340.115	25.56
340.326	24.18
340.536	24.33
340.746	23.97
340.957	24.38
341.167	25.28
341.378	25.45
341.588	24.8
341.799	24.48
342.009	23.38
342.219	24.01
342.43	24.77
342.64	24.8
342.85	23.86
343.061	22.79
343.271	22.04
343.481	21.71
343.691	21.17
343.902	21.95
344.112	21.02
344.322	22.09
344.532	22.06
344.743	22.31
344.953	21.76
345.163	22.18
345.373	23.28
345.583	25.26
345.793	25.39
346.004	25.81
346.214	25.59
346.424	25.8
346.634	25.72
346.844	25.54
347.054	25.79
347.264	26.62
347.474	27.39
347.684	27.75
347.894	26.32
348.104	26.6
348.314	26.57
348.524	25.56
348.734	24.51
348.944	24.1
349.154	24.75
349.364	24.58
349.574	24.44
349.784	23.73
349.994	23.2
350.204	23.83
350.413	22.66
350.623	21.78
350.833	21.94
351.043	23.59
351.253	23.21
351.463	22.32
351.672	21.81
351.882	21.65
352.092	22.61
352.302	22.56
352.511	22.79
352.721	22.95
352.931	23.73
353.141	24.17
353.35	23.62
353.56	24.25
353.77	24.36
353.979	24.5
354.189	23.81
354.399	22.17
354.608	21.99
354.818	20.96
355.027	20.49
355.237	20.12
355.447	20.02
355.656	20.64
355.866	20.24
356.075	20.12
356.285	19.33
356.494	18.84
356.704	19.19
356.913	19.24
357.123	19.34
357.332	19
357.542	19.21
357.751	18.7
357.96	17.65
358.17	17.28
358.379	17.55
358.589	17.69
358.798	19.03
359.007	18.79
359.217	17.52
359.426	17.34
359.635	18.02
359.845	16.99
360.054	16.92
360.263	17.1
360.472	17.28
360.682	17.29
360.891	17.39
361.1	16.97
361.309	17.16
361.519	18.02
361.728	18.06
361.937	18.12
362.146	19.11
362.355	19.46
362.564	19.77
362.774	19.63
362.983	19.14
363.192	19.36
363.401	19.3
363.61	18.78
363.819	19.5
364.028	19.03
364.237	19.04
364.446	18.3
364.655	18.04
364.864	18.44
365.073	19.43
365.282	19.78
365.491	19.41
365.7	19.05
365.909	19.84
366.118	18.81
366.327	19.55
366.536	19.55
366.745	20.07
366.954	20.91
367.162	20.78
367.371	20.53
367.58	20.87
367.789	21.12
367.998	21.2
368.207	21.1
368.415	21.9
368.624	21.71
368.833	22.44
369.042	22.31
369.25	22.7
369.459	22.26
369.668	21.94
369.877	21.3
370.085	20.82
370.294	21.45
370.503	21.17
370.711	20.35
370.92	20.3
371.129	20.36
371.337	19.8
371.546	18.67
371.754	19.07
371.963	18.86
372.171	18.85
372.38	19.28
372.589	18.65
372.797	19.39
373.006	19.6
373.214	18.86
373.423	17.58
373.631	18.04
373.84	17.24
374.048	15.65
374.256	15.76
374.465	15.9
374.673	15.45
374.882	15.28
375.09	14.28
375.298	14.39
375.507	14.39
375.715	15.02
375.923	14.38
376.132	15.35
376.34	16.23
376.548	16.61
376.757	16.57
376.965	16.78
377.173	16.93
377.381	17.74
377.59	17.74
377.798	17.54
378.006	17.07
378.214	17.81
378.423	17.66
378.631	17.01
378.839	15.67
379.047	15.69
379.255	16.03
379.463	16.26
379.671	16.07
379.879	16.49
380.088	17.44
380.296	17.78
380.504	17.76
380.712	18
380.92	18.6
381.128	19.29
381.336	19.23
381.544	18.96
381.752	18.63
381.96	18.29
382.168	17.71
382.376	17.13
382.584	17.24
382.791	16.18
382.999	16.02
383.207	15.65
383.415	16.14
383.623	15.44
383.831	14.58
384.039	15.25
384.247	15.49
384.454	15.92
384.662	15.74
384.87	14.92
385.078	15.24
385.285	15.18
385.493	15.47
385.701	15.25
385.909	15.58
386.116	16.12
386.324	15.26
386.532	14.62
386.739	13.75
386.947	13.78
387.155	14.59
387.362	14.89
387.57	14.33
387.778	14.82
387.985	14.67
388.193	15.19
388.4	14.93
388.608	15.09
388.816	15.17
389.023	15.06
389.231	15.11
389.438	14.82
389.646	14.94
389.853	15.39
390.061	14.98
390.268	14.73
390.475	13.96
390.683	13.4
390.89	13.57
391.098	13.4
391.305	13.78
391.512	13.5
391.72	13.11
391.927	13.21
392.135	13.06
392.342	12.82
392.549	13.14
392.756	13.56
392.964	14.01
393.171	14.26
393.378	14.7
393.586	14.37
393.793	14.2
394	14.3
394.207	13.86
394.414	13.6
394.622	13.85
394.829	13.3
395.036	13.07
395.243	13.65
395.45	13.26
395.657	13.36
395.864	13.92
396.072	14.9
396.279	14.9
396.486	15.48
396.693	16.1
396.9	15.71
397.107	15.95
397.314	15.73
397.521	15.49
397.728	15.41
397.935	14.58
398.142	14.31
398.349	13.23
398.556	12.87
398.763	12.29
398.97	12.1
399.177	12.39
399.383	12.88
399.59	13.3
399.797	12.92
400.004	12.96
400.211	13.36
400.418	13.54
400.625	14.16
400.831	14.38
401.038	14.52
401.245	14.71
401.452	14.02
401.658	13.7
401.865	13.26
402.072	13.45
402.279	13.29
402.485	13.69
402.692	13.65
402.899	13.21
403.105	13.23
403.312	13.27
403.519	13.25
403.725	13.56
403.932	12.91
404.138	12.75
404.345	12.91
404.552	12.87
404.758	12.25
404.965	11.83
405.171	12.27
405.378	12.26
405.584	11.64
405.791	11.38
405.997	11.55
406.204	12
406.41	12.36
406.617	11.81
406.823	11.72
407.029	11.8
407.236	11.79
407.442	11.65
407.649	11.92
407.855	12.54
408.061	12.83
408.268	12.59
408.474	12.76
408.68	12.56
408.887	12.58
409.093	12.71
409.299	12.83
409.505	13.02
409.712	12.69
409.918	12.76
410.124	12.48
410.33	11.56
410.537	11.31
410.743	11.12
410.949	11.36
411.155	11.17
411.361	11.84
411.567	11.95
411.773	11.8
411.98	11.38
412.186	10.68
412.392	10.89
412.598	11.49
412.804	11.84
413.01	11.6
413.216	11.67
413.422	12.05
413.628	11.3
413.834	11.26
414.04	11.93
414.246	12.85
414.452	13.42
414.658	13.37
414.864	13.43
415.07	13.49
415.275	14.2
415.481	14.05
415.687	14.04
415.893	13.59
416.099	13.36
416.305	12.85
416.511	12.31
416.716	11.51
416.922	11.21
417.128	10.81
417.334	10.66
417.539	9.83
417.745	9.72
417.951	9.33
418.157	9.37
418.362	9.3
418.568	8.81
418.774	8.45
418.979	8.57
419.185	8.11
419.391	7.9
419.596	7.62
419.802	7.64
420.008	7.37
420.213	7.04
420.419	7.22
420.624	7
420.83	6.97
421.035	7.03
421.241	6.94
421.446	7.24
421.652	7.32
421.857	7.24
422.063	7.38
422.268	7.3
422.474	7.78
422.679	7.58
422.885	7.62
423.09	7.71
423.295	7.58
423.501	7.63
423.706	7.5
423.911	7.49
424.117	7.48
424.322	7.25
424.527	7.32
424.733	6.91
424.938	6.92
425.143	6.99
425.349	6.92
425.554	7.42
425.759	7.47
425.964	7.8
426.169	7.82
426.375	7.65
426.58	7.78
426.785	7.82
426.99	8.08
427.195	8.17
427.4	7.85
427.605	8.41
427.811	7.53
428.016	7.68
428.221	7.78
428.426	7.83
428.631	8.35
428.836	8.33
429.041	8.59
429.246	8.9
429.451	9.04
429.656	9.45
429.861	9.15
430.066	9.71
430.271	9.96
430.476	9.58
430.681	9.96
430.886	10.27
431.09	10.12
431.295	9.81
431.5	9.38
431.705	9.22
431.91	9.06
432.115	8.82
432.32	9.06
432.524	8.89
432.729	8.9
432.934	8.48
433.139	8.18
433.343	8.27
433.548	8.26
433.753	8.52
433.958	8.66
434.162	8.5
434.367	8.78
434.572	8.58
434.776	8.28
434.981	8.25
435.186	8.31
435.39	8.13
435.595	8.24
435.799	8.2
436.004	8.01
436.209	7.75
436.413	8.01
436.618	8.13
436.822	8.48
437.027	8.29
437.231	7.84
437.436	7.72
437.64	7.93
437.845	7.88
438.049	7.94
438.253	7.83
438.458	7.59
438.662	7.7
438.867	7.58
439.071	7.44
439.275	7.73
439.48	8.23
439.684	8.47
439.888	8.3
440.093	8.37
440.297	8.15
440.501	8.31
440.706	8.52
440.91	8.3
441.114	8.28
441.318	8.32
441.523	8.21
441.727	8.21
441.931	8.07
442.135	7.91
442.339	8
442.543	8.21
442.748	8.58
442.952	8.75
443.156	8.77
443.36	8.59
443.564	8.39
443.768	8.25
443.972	8.29
444.176	8.17
444.38	8.25
444.584	8.03
444.788	7.98
444.992	7.64
445.196	7.77
445.4	7.75
445.604	7.65
445.808	7.49
446.012	7.61
446.216	7.08
446.42	6.96
446.624	7.33
446.828	7.31
447.032	7.31
447.235	7.46
447.439	7.01
447.643	6.91
447.847	6.99
448.051	7.2
448.254	7.2
448.458	7.59
448.662	7.65
448.866	7.26
449.069	7.29
449.273	7.21
449.477	7.03
449.681	7.15
449.884	7.36
450.088	7.56
450.292	7.62
450.495	7.8
450.699	7.79
450.902	8.12
451.106	8.44
451.31	8.6
451.513	9.03
451.717	9.32
451.92	9.67
452.124	9.65
452.327	9.51
452.531	9.43
452.734	9.26
452.938	9.41
453.141	9.49
453.345	9.55
453.548	9.32
453.752	9.57
453.955	9.58
454.158	9.35
454.362	9
454.565	9.34
454.769	9.6
454.972	9.99
455.175	9.82
455.379	9.53
455.582	9.18
455.785	9.23
455.988	8.7
456.192	8.28
456.395	8.18
456.598	8.47
456.801	8.39
457.005	8.19
457.208	7.96
457.411	7.78
457.614	8.07
457.817	8.22
458.021	8.07
458.224	8
458.427	7.97
458.63	8.2
458.833	8
459.036	7.6
459.239	7.47
459.442	7.19
459.645	7.24
459.848	7.13
460.051	7.04
460.254	7.1
460.457	6.9
460.66	6.89
460.863	6.68
461.066	6.91
461.269	7.28
461.472	7.52
461.675	7.81
461.878	8.02
462.081	8.38
462.284	8.43
462.486	8.5
462.689	8.84
462.892	8.99
463.095	8.99
463.298	8.92
463.5	8.74
463.703	8.54
463.906	8.6
464.109	8.64
464.311	8.03
464.514	8.28
464.717	8.42
464.92	8.38
465.122	8.26
465.325	8.12
465.528	8
465.73	7.77
465.933	7.96
466.135	8.01
466.338	7.7
466.541	7.79
466.743	7.53
466.946	7.33
467.148	7.47
467.351	7.57
467.553	7.82
467.756	8.29
467.958	8.67
468.161	8.47
468.363	8.5
468.566	8.41
468.768	8.57
468.971	8.44
469.173	8.75
469.375	8.49
469.578	8.32
469.78	8.43
469.983	7.96
470.185	7.94
470.387	8.26
470.59	8.23
470.792	8.41
470.994	8.01
471.196	8.19
471.399	8.27
471.601	8.24
471.803	8.13
472.005	7.59
472.208	7.91
472.41	7.62
472.612	7.56
472.814	7.02
473.016	6.94
473.218	6.97
473.421	6.89
473.623	6.83
473.825	6.92
474.027	7.58
474.229	7.93
474.431	7.79
474.633	8.05
474.835	8.03
475.037	8.35
475.239	8.69
475.441	9.18
475.643	9.38
475.845	9.28
476.047	9.42
476.249	8.94
476.451	8.76
476.653	8.65
476.855	8.62
477.057	8.31
477.258	8.21
477.46	8.21
477.662	8
477.864	7.76
478.066	7.71
478.268	7.5
478.469	7.28
478.671	7.33
478.873	7.34
479.075	7.29
479.276	7.29
479.478	7.55
479.68	7.24
479.882	7.13
480.083	7.17
480.285	7.12
480.487	7.28
480.688	7.49
480.89	7.3
481.091	7.27
481.293	6.97
481.495	6.75
481.696	6.37
481.898	6.27
482.099	6.13
482.301	5.89
482.502	5.66
482.704	5.36
482.905	5.11
483.107	4.93
483.308	4.75
483.51	4.63
483.711	4.58
483.913	4.52
484.114	4.54
484.315	4.52
484.517	4.52
484.718	4.57
484.92	4.61
485.121	4.69
485.322	4.83
485.524	4.86
485.725	5
485.926	5.07
486.127	5.15
486.329	5.08
486.53	5.08
486.731	5.07
486.932	4.97
487.134	4.96
487.335	4.94
487.536	4.88
487.737	4.88
487.938	4.95
488.139	4.92
488.341	4.94
488.542	5.02
488.743	5.05
488.944	5.11
489.145	5.17
489.346	5.33
489.547	5.39
489.748	5.51
489.949	5.6
490.15	5.7
490.351	5.62
490.552	5.73
490.753	5.64
490.954	5.65
491.155	5.69
491.356	5.73
491.557	5.67
491.758	5.64
491.959	5.51
492.159	5.6
492.36	5.44
492.561	5.71
492.762	5.6
492.963	5.69
493.164	5.67
493.364	5.58
493.565	5.64
493.766	5.76
493.967	5.99
494.167	6.36
494.368	6.55
494.569	6.43
494.769	6.39
494.97	6.79
495.171	6.84
495.371	7.13
495.572	7.31
495.773	7.37
495.973	7.32
496.174	7.31
496.375	7.52
496.575	7.49
496.776	7.56
496.976	7.33
497.177	7.12
497.377	7.16
497.578	7.01
497.778	6.95
497.979	7.07
498.179	6.98
498.38	6.95
498.58	6.88
498.78	6.8
498.981	7.07
499.181	7.4
499.382	7.46
499.582	7.52
499.782	7.6
499.983	7.78
500.183	7.63
500.383	7.65
500.584	7.52
500.784	7.36
500.984	7.32
501.184	7.23
501.385	7.18
501.585	6.99
501.785	7.37
501.985	7.57
502.185	7.77
502.386	7.85
502.586	7.95
502.786	8.23
502.986	8.39
503.186	8.58
503.386	8.69
503.586	8.6
503.786	8.78
503.987	8.33
504.187	8.27
504.387	8.39
504.587	8.3
504.787	8.41
504.987	8.39
505.187	8.43
505.387	8.31
505.587	8.36
505.786	8.54
505.986	8.63
506.186	8.72
506.386	8.66
506.586	8.6
506.786	8.77
506.986	8.7
507.186	8.73
507.386	8.53
507.585	8.67
507.785	8.79
507.985	8.88
508.185	8.81
508.384	8.78
508.584	8.74
508.784	8.58
508.984	8.57
509.183	8.71
509.383	8.77
509.583	8.92
509.782	9.02
509.982	8.95
510.182	8.81
510.381	8.74
510.581	8.91
510.781	8.87
510.98	8.97
511.18	9.07
511.379	9.04
511.579	8.95
511.778	9.07
511.978	9.17
512.177	9.17
512.377	9.18
512.576	9.4
512.776	9.45
512.975	9.57
513.175	9.68
513.374	9.56
513.573	9.53
513.773	9.74
513.972	9.71
514.172	9.49
514.371	9.75
514.57	10.14
514.77	10.12
514.969	10.29
515.168	10.34
515.367	10.24
515.567	10.41
515.766	10.67
515.965	10.71
516.164	10.84
516.364	11.06
516.563	10.89
516.762	10.67
516.961	10.83
517.16	10.81
517.359	10.69
517.559	10.71
517.758	10.67
517.957	10.6
518.156	10.51
518.355	10.47
518.554	10.59
518.753	10.44
518.952	10.24
519.151	10.16
519.35	10.12
519.549	10.3
519.748	10.31
519.947	10.48
520.146	10.65
520.345	10.87
520.544	10.93
520.743	10.85
520.942	11.29
521.141	11.6
521.339	11.73
521.538	11.76
521.737	11.87
521.936	11.72
522.135	11.65
522.333	11.57
522.532	11.49
522.731	11.43
522.93	11.13
523.129	10.96
523.327	11.3
523.526	11.45
523.725	11.78
523.923	11.7
524.122	11.72
524.321	11.75
524.519	11.62
524.718	11.58
524.917	11.52
525.115	11.66
525.314	11.8
525.512	11.46
525.711	11.43
525.909	11.18
526.108	11.15
526.306	11.34
526.505	11.19
526.703	11.13
526.902	11.06
527.1	10.9
527.299	10.91
527.497	10.65
527.696	10.62
527.894	10.5
528.092	10.4
528.291	10.37
528.489	10.22
528.688	10.16
528.886	10.18
529.084	10.13
529.283	10.27
529.481	10.19
529.679	10.41
529.877	10.51
530.076	10.59
530.274	10.84
530.472	11.07
530.67	11.26
530.869	11.59
531.067	11.87
531.265	12.14
531.463	12.23
531.661	12.38
531.859	12.26
532.057	12.3
532.255	12.28
532.454	12.17
532.652	11.95
532.85	12.05
533.048	11.97
533.246	11.9
533.444	11.79
533.642	11.95
533.84	12.06
534.038	12.17
534.236	12.31
534.434	12.48
534.632	12.65
534.83	12.81
535.027	12.87
535.225	12.99
535.423	13.26
535.621	13.51
535.819	13.39
536.017	13.19
536.215	13.2
536.412	13.21
536.61	13.31
536.808	13.23
537.006	13.45
537.203	13.62
537.401	13.83
537.599	13.77
537.797	13.85
537.994	13.98
538.192	14.27
538.39	14.49
538.587	14.7
538.785	14.87
538.983	15.16
539.18	15.22
539.378	15.09
539.575	14.88
539.773	14.65
539.97	14.59
540.168	14.42
540.366	14.35
540.563	14.16
540.761	14.03
540.958	13.82
541.155	13.72
541.353	13.61
541.55	13.38
541.748	13.49
541.945	13.55
542.143	13.53
542.34	13.69
542.537	13.61
542.735	13.58
542.932	13.67
543.129	13.84
543.327	14.03
543.524	14.19
543.721	14.59
543.919	14.73
544.116	15.01
544.313	15.15
544.51	15.09
544.708	15.65
544.905	15.89
545.102	16.08
545.299	16.3
545.496	16.14
545.693	16.25
545.891	16.28
546.088	16.33
546.285	16.29
546.482	16.49
546.679	16.78
546.876	16.73
547.073	16.86
547.27	16.7
547.467	16.78
547.664	16.88
547.861	17.01
548.058	17.17
548.255	17.29
548.452	17.51
548.649	17.81
548.846	17.9
549.043	18.19
549.24	18.5
549.437	18.96
549.633	18.96
549.83	19.11
550.027	19.42
550.224	19.59
550.421	19.75
550.618	19.83
550.814	19.51
551.011	19.82
551.208	19.37
551.405	19.45
551.601	19.44
551.798	19.55
551.995	19.58
552.191	19.73
552.388	19.71
552.585	19.64
552.781	19.58
552.978	20.14
553.175	19.64
553.371	19.86
553.568	19.84
553.764	20.04
553.961	20.3
554.157	20.68
554.354	20.4
554.55	20.58
554.747	20.78
554.943	21.09
555.14	20.85
555.336	21.39
555.533	21.69
555.729	21.8
555.926	21.89
556.122	21.71
556.318	21.85
556.515	22.06
556.711	22.13
556.907	22.33
557.104	22.35
557.3	22.46
557.496	22.44
557.693	22.24
557.889	22.59
558.085	22.68
558.281	23.27
558.478	23.14
558.674	23.49
558.87	23.54
559.066	23.56
559.262	23.6
559.459	23.5
559.655	23.75
559.851	24.22
560.047	24.16
560.243	24.13
560.439	24.04
560.635	24.15
560.831	23.94
561.027	24.15
561.223	24.29
561.419	24.58
561.615	25.01
561.811	25.05
562.007	25.01
562.203	24.94
562.399	25
562.595	24.99
562.791	25.1
562.987	25.51
563.183	25.62
563.379	26.12
563.575	26.09
563.771	25.67
563.966	25.53
564.162	25.5
564.358	25.48
564.554	25.51
564.75	25.53
564.945	25.36
565.141	24.94
565.337	25
565.533	24.73
565.728	24.89
565.924	25.1
566.12	25.54
566.315	25.51
566.511	25.78
566.707	25.76
566.902	25.55
567.098	25.86
567.293	26.43
567.489	26.27
567.684	26.18
567.88	26.17
568.076	26.22
568.271	26.19
568.467	26.3
568.662	26.44
568.858	27.09
569.053	27.47
569.248	27.44
569.444	27.4
569.639	28.02
569.835	28.21
570.03	28.13
570.225	28.34
570.421	28.24
570.616	28.16
570.812	28
571.007	27.39
571.202	27.22
571.397	27.52
571.593	27.7
571.788	27.39
571.983	27.52
572.178	28
572.374	27.99
572.569	28.28
572.764	28.52
572.959	28.79
573.154	29.22
573.35	29.55
573.545	29.88
573.74	29.9
573.935	30.13
574.13	30.15
574.325	30.06
574.52	30.25
574.715	30.41
574.91	30.56
575.105	30.62
575.3	30.73
575.495	30.73
575.69	30.49
575.885	30.78
576.08	30.86
576.275	30.91
576.47	31.05
576.665	31.4
576.86	31.39
577.055	31.61
577.25	31.87
577.444	32.22
577.639	32.76
577.834	32.85
578.029	32.73
578.224	32.84
578.418	33.68
578.613	33.74
578.808	33.73
579.003	34.33
579.197	34.6
579.392	34.82
579.587	34.6
579.781	34.46
579.976	34.73
580.171	34.64
580.365	34.61
580.56	34.1
580.755	34.31
580.949	34.3
581.144	33.68
581.338	33.58
581.533	33.61
581.727	34.1
581.922	33.78
582.116	33.99
582.311	33.88
582.505	34.15
582.7	34.1
582.894	34.28
583.089	34.03
583.283	34.39
583.478	35.04
583.672	35.25
583.866	35.18
584.061	35.57
584.255	35.31
584.449	35.81
584.644	35.68
584.838	36.51
585.032	36.65
585.226	37.21
585.421	37.45
585.615	37.27
585.809	37.36
586.003	37.6
586.198	37.85
586.392	38.11
586.586	38.12
586.78	38.54
586.974	37.96
587.168	37.79
587.363	37.76
587.557	37.55
587.751	37.38
587.945	37.27
588.139	37.04
588.333	36.95
588.527	36.95
588.721	37.18
588.915	37.09
589.109	36.88
589.303	36.98
589.497	37.27
589.691	37.66
589.885	37.27
590.079	37.01
590.273	36.8
590.466	37.16
590.66	37.38
590.854	37.36
591.048	37.45
591.242	37.74
591.436	37.45
591.629	37.26
591.823	36.92
592.017	37.44
592.211	37.78
592.404	38.44
592.598	37.97
592.792	37.64
592.986	38.13
593.179	38.08
593.373	37.89
593.567	38.29
593.76	38.38
593.954	38.62
594.147	38.6
594.341	38.6
594.535	38.36
594.728	38.54
594.922	38.82
595.115	38.11
595.309	38.08
595.502	38.5
595.696	38.38
595.889	38.23
596.083	38.08
596.276	37.97
596.47	37.99
596.663	38.28
596.856	38.38
597.05	38.02
597.243	38.41
597.437	38.89
597.63	38.81
597.823	39.13
598.017	39.39
598.21	39.27
598.403	39.74
598.596	40.08
598.79	40.09
598.983	40.28
599.176	40.61
599.369	40.86
599.563	40.55
599.756	41.16
599.949	40.89
600.142	40.76
600.335	40.83
600.528	40.92
600.722	40.58
600.915	40.4
601.108	40.8
601.301	40.81
601.494	40.67
601.687	40.75
601.88	40.23
602.073	40.38
602.266	40.5
602.459	40.79
602.652	40.59
602.845	40.71
603.038	40.29
603.231	40.03
603.424	40.2
603.617	39.99
603.809	39.56
604.002	39.58
604.195	39.38
604.388	39.33
604.581	39.31
604.774	39.28
604.966	39.1
605.159	39.56
605.352	39.11
605.545	39.44
605.737	39.46
605.93	40.08
606.123	40.44
606.316	40.69
606.508	40.72
606.701	40.97
606.894	41.08
607.086	41.45
607.279	41.66
607.471	42.2
607.664	41.88
607.857	42.13
608.049	42.2
608.242	42.06
608.434	42.37
608.627	42.33
608.819	41.93
609.012	41.78
609.204	41.84
609.397	41.5
609.589	41.5
609.782	41.48
609.974	41.19
610.166	41.05
610.359	40.78
610.551	40.97
610.743	41.05
610.936	41.4
611.128	41.58
611.32	41.9
611.513	42.06
611.705	42
611.897	42.85
612.09	43.47
612.282	43.89
612.474	44.75
612.666	44.65
612.858	45.01
613.051	45.49
613.243	45.66
613.435	45.74
613.627	45.84
613.819	46.47
614.011	46.63
614.203	46.81
614.395	46.92
614.588	46.57
614.78	46.61
614.972	46.63
615.164	46.37
615.356	46.49
615.548	46.2
615.74	46.69
615.932	46.46
616.124	45.38
616.315	45.66
616.507	45.71
616.699	45.62
616.891	45.2
617.083	45.42
617.275	45.5
617.467	45.65
617.659	45.79
617.85	45.87
618.042	45.97
618.234	46.64
618.426	45.68
618.618	45.59
618.809	45.9
619.001	46.59
619.193	46.65
619.384	46.92
619.576	46.99
619.768	46.95
619.959	46.45
620.151	46.31
620.343	45.94
620.534	46.76
620.726	46.14
620.917	46.46
621.109	45.94
621.301	45.64
621.492	44.91
621.684	44.87
621.875	45.44
622.067	45.73
622.258	45.25
622.45	45.51
622.641	45.4
622.832	45.62
623.024	45.24
623.215	45.36
623.407	45.46
623.598	46.3
623.789	45.77
623.981	46.08
624.172	45.52
624.363	46.07
624.555	45.6
624.746	45.25
624.937	45.23
625.129	45.67
625.32	45.24
625.511	45.12
625.702	44.81
625.893	44.91
626.085	44.38
626.276	44.94
626.467	44.77
626.658	45.38
626.849	45.22
627.04	45.47
627.231	45.11
627.422	45.45
627.614	46.2
627.805	46.22
627.996	46.82
628.187	46.67
628.378	46.74
628.569	47.02
628.76	47.04
628.951	46.89
629.142	46.69
629.332	46.87
629.523	47.04
629.714	46.54
629.905	46.89
630.096	46.96
630.287	47.51
630.478	47.62
630.669	48.13
630.859	48.16
631.05	48.92
631.241	49.38
631.432	49.57
631.623	49.97
631.813	50.37
632.004	49.49
632.195	48.74
632.385	48.9
632.576	48.83
632.767	48.58
632.957	48.22
633.148	48.19
633.339	47.9
633.529	46.95
633.72	46.46
633.91	46.29
634.101	46.71
634.292	47.16
634.482	46.3
634.673	45.99
634.863	46.19
635.054	46.91
635.244	46.68
635.435	47.1
635.625	47.6
635.815	47.9
636.006	48.05
636.196	48.38
636.387	48.81
636.577	49.63
636.767	49.9
636.958	49.13
637.148	48.94
637.338	49.3
637.529	49
637.719	49.31
637.909	49.01
638.099	49.14
638.29	48.77
638.48	48.76
638.67	48.47
638.86	49.12
639.05	49.39
639.241	48.95
639.431	49.99
639.621	50.71
639.811	50.71
640.001	50.94
640.191	50.63
640.381	51.08
640.571	50.42
640.761	50.75
640.951	50.17
641.141	51.18
641.331	51.47
641.521	50.52
641.711	50.37
641.901	50.32
642.091	50.27
642.281	50.58
642.471	50.62
642.661	51.29
642.851	51.27
643.041	51.14
643.231	50.41
643.42	50.53
643.61	50.82
643.8	51.26
643.99	51.08
644.18	51.12
644.369	50.76
644.559	50.34
644.749	50.26
644.939	49.95
645.128	50.39
645.318	50.28
645.508	50.61
645.697	50.65
645.887	49.56
646.076	49.72
646.266	49.76
646.456	49.85
646.645	50.65
646.835	49.8
647.024	49.86
647.214	50.06
647.403	49.82
647.593	49.81
647.782	49.02
647.972	49.37
648.161	49.58
648.351	50.29
648.54	50.43
648.73	50.39
648.919	50.6
649.108	50.64
649.298	50.61
649.487	50.8
649.677	51.09
649.866	51.61
650.055	51.39
650.244	51.79
650.434	50.07
650.623	50.08
650.812	49.94
651.002	50.94
651.191	51.31
651.38	51.18
651.569	50.74
651.758	50.42
651.947	50.87
652.137	50.85
652.326	50.53
652.515	51.33
652.704	51.33
652.893	51.08
653.082	50.65
653.271	50.61
653.46	50.85
653.649	51.73
653.838	51.35
654.027	50.54
654.216	51.11
654.405	51.68
654.594	52.53
654.783	52.77
654.972	52.86
655.161	53.6
655.35	53.25
655.539	52.87
655.728	53.05
655.916	52.95
656.105	53.64
656.294	53.29
656.483	52.81
656.672	52.68
656.86	52.07
657.049	52.61
657.238	51.46
657.427	51.6
657.615	51.29
657.804	50.36
657.993	49.68
658.181	48.73
658.37	49.31
658.559	49.44
658.747	49.16
658.936	49.38
659.125	49.23
659.313	50.17
659.502	50.46
659.69	49.95
659.879	50.47
660.067	51.54
660.256	52.04
660.444	52.04
660.633	51.71
660.821	51.21
661.01	51.14
661.198	50.76
661.387	50.41
661.575	49.76
661.763	50.67
661.952	51.37
662.14	51.63
662.328	52.4
662.517	52.2
662.705	51.98
662.893	53.26
663.082	54.24
663.27	54.43
663.458	54.22
663.646	54.83
663.834	54.85
664.023	54.36
664.211	53.92
664.399	53.62
664.587	53.7
664.775	53.9
664.963	53.88
665.152	54.06
665.34	54.03
665.528	52.9
665.716	52.95
665.904	53.55
666.092	53.26
666.28	53.77
666.468	53.7
666.656	53.66
666.844	54.11
667.032	53.77
667.22	52.37
667.408	52.58
667.596	53.71
667.784	53.95
667.971	54.23
668.159	54.51
668.347	54.13
668.535	54.69
668.723	53.9
668.911	54.65
669.098	55.12
669.286	55.6
669.474	55.21
669.662	55.64
669.849	56.17
670.037	56.18
670.225	56.3
670.413	55.66
670.6	54.95
670.788	56.53
670.976	55.62
671.163	55.04
671.351	55.33
671.538	56.12
671.726	55.85
671.913	55.1
672.101	54.23
672.289	54.5
672.476	55.52
672.664	56.11
672.851	55.91
673.039	56.67
673.226	56.92
673.413	57.73
673.601	58.08
673.788	58.76
673.976	58.23
674.163	58.51
674.35	57.99
674.538	58.04
674.725	58.11
674.912	57.61
675.1	57.17
675.287	56.58
675.474	56.2
675.662	55.33
675.849	55.07
676.036	55.01
676.223	55.56
676.411	55.6
676.598	55.24
676.785	55.09
676.972	54.2
677.159	54.12
677.346	54.63
677.533	55.09
677.721	55.51
677.908	55.57
678.095	56.52
678.282	55.94
678.469	55.62
678.656	55.41
678.843	54.74
679.03	54.86
679.217	54.75
679.404	54.44
679.591	53.7
679.778	53.14
679.964	52.58
680.151	51.95
680.338	51.45
680.525	52.12
680.712	52.62
680.899	52.77
681.086	53.2
681.272	53.68
681.459	54.45
681.646	54.36
681.833	54.93
682.02	55.2
682.206	55.19
682.393	56.32
682.58	55.55
682.766	54.63
682.953	55.51
683.14	55.27
683.326	54.96
683.513	54.61
683.7	54.03
683.886	53.63
684.073	54.3
684.259	54.4
684.446	55.28
684.632	56.05
684.819	57.05
685.005	56.59
685.192	56.89
685.378	58.13
685.565	58.43
685.751	59.42
685.938	59.26
686.124	59.19
686.31	59.41
686.497	58.82
686.683	58.79
686.87	58.78
687.056	58.3
687.242	59.3
687.429	57.96
687.615	57.19
687.801	57.49
687.987	58.74
688.174	58.57
688.36	58.49
688.546	58.06
688.732	57.94
688.918	58.02
689.105	58.75
689.291	58.13
689.477	59
689.663	59.61
689.849	59.82
690.035	59.85
690.221	59.32
690.407	60.06
690.593	60.64
690.779	60.93
690.965	60.46
691.151	60.37
691.337	59.8
691.523	59.6
691.709	59.79
691.895	59.47
692.081	58.83
692.267	59.72
692.453	59.63
692.639	58.04
692.825	58.43
693.011	59.51
693.196	61.15
693.382	62.54
693.568	62.48
693.754	62.17
693.94	61.99
694.125	62.43
694.311	61.84
694.497	61.49
694.682	62.12
694.868	62.11
695.054	61.65
695.239	60.78
695.425	59.9
695.611	58.8
695.796	58.98
695.982	59.08
696.168	59.11
696.353	59.13
696.539	58.69
696.724	58.6
696.91	58.17
697.095	57.72
697.281	56.26
697.466	56.31
697.652	56.36
697.837	55.76
698.023	55.5
698.208	54.36
698.393	54.38
698.579	54.15
698.764	53.76
698.949	52.8
699.135	52.63
699.32	53.46
699.505	53.68
699.691	54.13
699.876	53.88
700.061	53.71
700.246	54.67
700.432	53.92
700.617	55.54
700.802	57.05
700.987	58.64
701.172	58.95
701.358	59.09
701.543	58.7
701.728	59.23
701.913	60.12
702.098	60.92
702.283	61.25
702.468	62.23
702.653	61.96
702.838	62.13
703.023	62.33
703.208	62.93
703.393	62.94
703.578	64.14
703.763	64.51
703.948	65.09
704.133	65.76
704.318	66.55
704.503	67.25
704.688	67.47
704.873	66.24
705.057	67.77
705.242	67.75
705.427	67.68
705.612	68.28
705.797	67.99
705.981	68.06
706.166	67.68
706.351	65.87
706.536	65.98
706.72	63.82
706.905	64.96
707.09	63.72
707.274	64.13
707.459	65.08
707.644	63.63
707.828	63.75
708.013	63.18
708.197	63.62
708.382	65.57
708.567	65.81
708.751	66.22
708.936	65.65
709.12	64.79
709.305	64.03
709.489	64.26
709.673	63.37
709.858	63.84
710.042	64.01
710.227	62.59
710.411	62.95
710.596	61.43
710.78	62.04
710.964	61.06
711.149	60.42
711.333	61.02
711.517	59.99
711.702	61.85
711.886	60.78
712.07	61.11
712.254	62.1
712.438	61.07
712.623	62.12
712.807	62.17
712.991	62.36
713.175	63.61
713.359	64.09
713.544	63.69
713.728	61.68
713.912	61.77
714.096	62.49
714.28	61.78
714.464	61.55
714.648	61.78
714.832	62.47
715.016	61.89
715.2	61.55
715.384	60.7
715.568	61.16
715.752	63.08
715.936	63.86
716.12	62.71
716.304	62.96
716.488	63.63
716.671	62.05
716.855	61.51
717.039	62.49
717.223	62.86
717.407	63.85
717.59	64.8
717.774	64.38
717.958	64.07
718.142	65.26
718.325	66.25
718.509	65.65
718.693	67.37
718.877	68.58
719.06	69.1
719.244	70.25
719.428	70.63
719.611	70.95
719.795	71.04
719.978	71.17
720.162	70.12
720.345	69.5
720.529	69.94
720.713	70.13
720.896	67.95
721.08	68.64
721.263	68.25
721.446	67.98
721.63	67.73
721.813	65.77
721.997	68.81
722.18	69.07
722.364	70.48
722.547	71.04
722.73	70.54
722.914	71.96
723.097	72.35
723.28	73.61
723.464	75.04
723.647	73.67
723.83	75.16
724.013	72.77
724.197	74.04
724.38	72.94
724.563	72.31
724.746	74
724.929	74.16
725.112	74.03
725.296	72.4
725.479	70.71
725.662	71.49
725.845	71.83
726.028	71.96
726.211	71.09
726.394	70.32
726.577	71
726.76	68.8
726.943	68.33
727.126	67.92
727.309	67.52
727.492	67.72
727.675	68.34
727.858	67.34
728.041	68.07
728.224	66.74
728.407	66.14
728.589	65.71
728.772	65.23
728.955	65.23
729.138	65.58
729.321	66.09
729.503	66.39
729.686	65.25
729.869	65.89
730.052	64.76
730.234	67.01
730.417	66.62
730.6	66.53
730.782	66.42
730.965	66.9
731.148	65.89
731.33	65.01
731.513	65.5
731.695	65.04
731.878	64.74
732.061	64.64
732.243	62.59
732.426	63.82
732.608	62.98
732.791	64.66
732.973	64.2
733.156	65.9
733.338	67.85
733.52	67.29
733.703	68.55
733.885	68.96
734.068	70.33
734.25	71.71
734.432	72.46
734.615	74.32
734.797	72.82
734.979	73.31
735.162	72.7
735.344	71.82
735.526	70.82
735.708	70.78
735.891	70.8
736.073	69.31
736.255	69.95
736.437	71.38
736.619	72.14
736.802	73.86
736.984	72.23
737.166	72.26
737.348	72.07
737.53	73.15
737.712	73.99
737.894	73.88
738.076	74.71
738.258	74.21
738.44	73.38
738.622	72.75
738.804	73.21
738.986	74.91
739.168	75.5
739.35	75.99
739.532	74.39
739.714	72.52
739.896	70.44
740.078	72.15
740.259	71.09
740.441	72.4
740.623	72.64
740.805	72.37
740.987	70.26
741.168	69.01
741.35	68.6
741.532	70.39
741.714	70.91
741.895	73.2
742.077	68.82
742.259	70.83
742.44	69.64
742.622	70.47
742.804	68.9
742.985	71.38
743.167	72.25
743.348	72.74
743.53	74.35
743.711	76.84
743.893	78.74
744.075	82.79
744.256	82.45
744.438	82.57
744.619	83.81
744.8	84.29
744.982	85.81
745.163	88.21
745.345	88.29
745.526	86.36
745.707	84.96
745.889	83.9
746.07	83.68
746.252	84.14
746.433	82.72
746.614	81.16
746.795	81.08
746.977	80.99
747.158	80.47
747.339	79.54
747.52	79.48
747.702	79.07
747.883	80.66
748.064	79.6
748.245	79.8
748.426	80.66
748.607	79.5
748.788	82.52
748.97	79.31
749.151	79.84
749.332	82.21
749.513	82.36
749.694	81.76
749.875	81.97
750.056	83.15
750.237	81.26
750.418	82.37
750.599	84.08
750.78	81.41
750.96	82.68
751.141	79.16
751.322	78.32
751.503	78.15
751.684	81.23
751.865	78.5
752.046	76.48
752.226	75.99
752.407	76.4
752.588	74.74
752.769	76.87
752.949	79.03
753.13	80.28
753.311	79.23
753.492	78.78
753.672	77.55
753.853	79.62
754.034	78.97
754.214	79.23
754.395	79.35
754.575	79.31
754.756	80.88
754.937	80.35
755.117	81.67
755.298	82.63
755.478	85.05
755.659	83.37
755.839	82.56
756.02	86.4
756.2	89.73
756.381	89.36
756.561	91.24
756.741	89.02
756.922	87.97
757.102	88.27
757.283	87.73
757.463	84.35
757.643	86.54
757.823	84
758.004	82.27
758.184	79
758.364	78.05
758.545	78
758.725	76.82
758.905	77.13
759.085	75.5
759.265	75.38
759.446	76.44
759.626	74.15
759.806	73.96
759.986	73
760.166	73.72
760.346	74.36
760.526	72.95
760.706	74.63
760.886	75.68
761.066	76.31
761.246	74.72
761.426	72.47
761.606	70.53
761.786	71.85
761.966	71.3
762.146	71.15
762.326	69.34
762.506	68.01
762.686	65.69
762.866	63.64
763.046	62.02
763.225	62.84
763.405	63.84
763.585	64.64
763.765	63.99
763.945	64.05
764.124	64.41
764.304	66.83
764.484	68.37
764.664	70.39
764.843	72.13
765.023	74.54
765.203	73.33
765.382	74.12
765.562	75.91
765.741	77.57
765.921	79.96
766.101	80.86
766.28	79.13
766.46	79.18
766.639	78.22
766.819	79.13
766.998	78.05
767.178	79.1
767.357	78.34
767.537	80.84
767.716	82.47
767.896	82.78
768.075	82.48
768.254	82.4
768.434	82.92
768.613	84.67
768.792	83.12
768.972	84.46
769.151	89.59
769.33	91.89
769.51	91.63
769.689	92.4
769.868	91.76
770.047	90.85
770.226	90.53
770.406	91.42
770.585	91.8
770.764	93.25
770.943	95.08
771.122	89.94
771.301	92.62
771.48	89.63
771.66	89.42
771.839	91.49
772.018	94.83
772.197	99.92
772.376	99.31
772.555	102.14
772.734	101.26
772.913	100.57
773.092	99.41
773.271	96.2
773.449	98.93
773.628	96.84
773.807	97.51
773.986	96.57
774.165	94.52
774.344	97.61
774.523	92.95
774.701	95.82
774.88	95.46
775.059	100
775.238	102.47
775.417	105.44
775.595	106.7
775.774	102.2
775.953	102.75
776.131	100.77
776.31	98.57
776.489	97.9
776.667	94.21
776.846	94.05
777.025	92.01
777.203	89.37
777.382	85.91
777.56	85.02
777.739	85.84
777.917	87.28
778.096	88.64
778.274	89.31
778.453	89.71
778.631	94.83
778.81	93.97
778.988	94.96
779.166	96.51
779.345	97.67
779.523	100.41
779.702	103.1
779.88	103.94
780.058	100.51
780.237	99.8
780.415	102.77
780.593	100.84
780.771	104.34
780.95	107.25
781.128	107.88
781.306	108.36
781.484	105.57
781.662	107.72
781.841	106.1
782.019	107.17
782.197	107.29
782.375	105.09
782.553	104.19
782.731	104.04
782.909	103.78
783.087	105.19
783.265	106.49
783.443	109.23
783.621	107.61
783.799	106.25
783.977	106.56
784.155	109.35
784.333	108.93
784.511	107.38
784.689	109.37
784.867	111.08
785.045	111.06
785.223	109.19
785.4	112.85
785.578	109.84
785.756	105.71
785.934	108.3
786.112	108.27
786.289	108.45
786.467	109.36
786.645	103.43
786.823	101.18
787	102.59
787.178	104.99
787.356	99.48
787.533	100.28
787.711	103.37
787.889	102.93
788.066	96.31
788.244	98.9
788.421	99.21
788.599	101.96
788.776	103.51
788.954	97.61
789.131	94.75
789.309	96.97
789.486	103.47
789.664	107.73
789.841	109.73
790.019	117.1
790.196	117.42
790.373	118.38
790.551	118.45
790.728	121.6
790.906	124.6
791.083	131.14
791.26	132.23
791.437	120.82
791.615	117.5
791.792	119.42
791.969	118.9
792.146	115.84
792.324	112.06
792.501	115.32
792.678	109.09
792.855	113.14
793.032	107.73
793.209	104.58
793.387	106.42
793.564	107.9
793.741	108.69
793.918	108.27
794.095	106.82
794.272	113.13
794.449	111.73
794.626	117.23
794.803	116.15
794.98	112.37
795.157	113.78
795.334	113.41
795.511	111.49
795.688	106.83
795.864	107.02
796.041	108.57
796.218	108.55
796.395	104.3
796.572	100.65
796.749	100.63
796.925	100.74
797.102	98.54
797.279	97.2
797.456	98.57
797.632	102.31
797.809	103.34
797.986	105.71
798.162	106.03
798.339	111.74
798.516	114.52
798.692	116.95
798.869	127.09
799.046	136.67
799.222	136.06
799.399	138.34
799.575	138.86
799.752	134.66
799.928	131.36
800.105	120.98
800.281	119.95
800.458	120.28
800.634	111.41
800.811	110.35
800.987	109.83
801.163	113.59
801.34	109.82
801.516	103.29
801.692	100.96
801.869	103.15
802.045	108.64
802.221	105.24
802.398	104.52
802.574	111.69
802.75	110.56
802.926	110.78
803.103	110.73
803.279	111.62
803.455	113.73
803.631	128.32
803.807	131.05
803.983	132.75
804.16	142.18
804.336	139.68
804.512	133.28
804.688	139.59
804.864	143.16
805.04	141.15
805.216	140.53
805.392	146.15
805.568	141.23
805.744	138.94
805.92	136.52
806.096	132.96
806.272	137.87
806.448	141.01
806.623	134.99
806.799	137.84
806.975	135.59
807.151	139.9
807.327	139.19
807.503	129.31
807.678	129.66
807.854	137.17
808.03	133.98
808.206	137.22
808.381	137.92
808.557	128.86
808.733	123.2
808.908	122.04
809.084	119.53
809.26	119.63
809.435	126.3
809.611	126.25
809.787	117.47
809.962	123.09
810.138	123.16
810.313	127.11
810.489	134.39
810.664	135.94
810.84	129.91
811.015	130.25
811.191	135.43
811.366	136.15
811.542	139.7
811.717	145.63
811.892	142.24
812.068	141.73
812.243	142.33
812.419	141.42
812.594	137.59
812.769	148.68
812.944	149.01
813.12	146.28
813.295	148.95
813.47	143.99
813.645	147.45
813.821	151.39
813.996	153.77
814.171	157.41
814.346	160.41
814.521	162.21
814.697	163.91
814.872	166.53
815.047	167.26
815.222	158.9
815.397	156.62
815.572	153.32
815.747	148.28
815.922	137.29
816.097	132.76
816.272	129.26
816.447	122.49
816.622	121.19
816.797	117.76
816.972	113.02
817.147	112.85
817.322	115.83
817.496	114.37
817.671	113.92
817.846	117.84
818.021	118.19
818.196	119.2
818.371	123.52
818.545	124.58
818.72	116.63
818.895	111.13
819.069	109.97
819.244	109.5
819.419	109.19
819.594	100.13
819.768	92.1
819.943	84.16
820.117	78.21
820.292	76.25
820.467	72.9
820.641	71.33
820.816	67.73
820.99	63.98
821.165	60.03
821.339	57.44
821.514	56.68
821.688	56.51
821.863	55.29
822.037	54.96
822.212	53.1
822.386	52.36
822.56	52.03
822.735	52.59
822.909	52.95
823.084	52.44
823.258	51.89
823.432	52.7
823.606	53.13
823.781	54.78
823.955	55.43
824.129	56.57
824.303	56.6
824.478	58.34
824.652	58.29
824.826	60.49
825	63.06
825.174	65.62
825.348	65.14
825.523	64.72
825.697	62.97
825.871	65.14
826.045	64.47
826.219	65.75
826.393	64.99
826.567	64.52
826.741	65.73
826.915	65.96
827.089	67.22
827.263	68.11
827.437	70.87
827.611	74.2
827.784	75.12
827.958	77.92
828.132	79.52
828.306	82.25
828.48	86.99
828.654	86.66
828.827	87.8
829.001	88.15
829.175	91.6
829.349	93.12
829.522	93.98
829.696	93.09
829.87	94.58
830.044	101.56
830.217	104.68
830.391	110.14
830.565	113.54
830.738	117.8
830.912	117.44
831.085	120.33
831.259	114.51
831.432	119.84
831.606	126.04
831.779	126.1
831.953	114.81
832.126	110.77
832.3	102.96
832.473	98.72
832.647	100.11
832.82	96.78
832.994	92.87
833.167	89.66
833.34	87.17
833.514	83.05
833.687	81.8
833.86	80.91
834.034	80.9
834.207	81.36
834.38	82.95
834.553	78.31
834.727	81.87
834.9	85.8
835.073	92.34
835.246	93.36
835.419	98.05
835.593	102.67
835.766	103.07
835.939	104.96
836.112	111.68
836.285	113.98
836.458	121.94
836.631	119.42
836.804	120.57
836.977	122.77
837.15	124.59
837.323	129.39
837.496	127.74
837.669	146.14
837.842	145.6
838.015	141.37
838.188	141
838.361	138.91
838.533	138.48
838.706	137.81
838.879	139.1
839.052	146.34
839.225	147.61
839.398	154.5
839.57	145.96
839.743	155.29
839.916	158.07
840.088	140.04
840.261	143.41
840.434	163.72
840.607	156.03
840.779	167.09
840.952	160.12
841.124	151.64
841.297	159.37
841.47	165.21
841.642	165.7
841.815	170.93
841.987	208.9
842.16	211.5
842.332	207.98
842.505	239.05
842.677	215.26
842.85	247.9
843.022	263.52
843.194	268.38
843.367	265.68
843.539	239.07
843.712	219.69
843.884	201.91
844.056	210.08
844.229	205.91
844.401	199.86
844.573	203.08
844.745	196.46
844.918	195.51
845.09	186.61
845.262	197.39
845.434	205.96
845.606	223.51
845.779	218.43
845.951	233.99
846.123	203.59
846.295	209.4
846.467	215.32
846.639	208.59
846.811	219.06
846.983	214.44
847.155	226.73
847.327	210.76
847.499	218.65
847.671	268.6
847.843	267.32
848.015	389.15
848.187	338.63
848.359	338.31
848.531	358.54
848.703	327.58
848.875	416.06
849.047	378.49
849.218	501.63
849.39	453.85
849.562	376.58
849.734	328.82
849.905	271.46
850.077	354.57
850.249	494.66
850.421	580.55
850.592	551.18
850.764	471.31
850.936	456.48
851.107	505.59
851.279	584.37
851.451	462.37
851.622	412.26
851.794	347.12
851.965	273.88
852.137	245.31
852.308	234.75
852.48	243.72
852.651	234.52
852.823	226.55
852.994	208.15
853.166	205.82
853.337	219.87
853.509	268.53
853.68	362.72
853.851	372.01
854.023	458.02
854.194	446.4
854.365	522.76
854.537	517.53
854.708	778.98
854.879	1356.41
855.05	1141.47
855.222	1008.7
855.393	615.46
855.564	678.95
855.735	626.33
855.906	456.98
856.078	499.46
856.249	577.4
856.42	525.27
856.591	455.85
856.762	447.68
856.933	571.32
857.104	632.48
857.275	716.95
857.446	435
857.617	432.44
857.788	460.56
857.959	379.46
858.13	301.63
858.301	361.34
858.472	420
858.643	429.24
858.814	483.69
858.985	419.81
859.155	406.99
859.326	533.18
859.497	523.72
859.668	444.3
859.839	722.22
860.009	529.98
860.18	384.01
860.351	312.33
860.522	300.38
860.692	241.24
860.863	281.34
861.034	286.6
861.204	252.79
861.375	269.81
861.546	272.68
861.716	259.19
861.887	268.88
862.057	342.28
862.228	306.31
862.398	325.71
862.569	323.54
862.739	320.75
862.91	299.77
863.08	387.1
863.251	405.17
863.421	448.23
863.592	415.67
863.762	441.9
863.932	356.76
864.103	430.93
864.273	361.86
864.443	395.44
864.614	333.63
864.784	365.55
864.954	332.31
865.125	329.57
865.295	334.81
865.465	357.28
865.635	415.88
865.805	406.2
865.976	388.78
866.146	434.97
866.316	525.59
866.486	768.03
866.656	491.52
866.826	539.96
866.996	482.62
867.166	423.05
867.336	405.5
867.506	327.13
867.676	334.44
867.846	308.52
868.016	322.78
868.186	296.18
868.356	274.86
868.526	320.42
868.696	319.64
868.866	343.12
869.036	363.8
869.206	335.55
869.376	383.91
869.545	357.87
869.715	415.69
869.885	430.32
870.055	436.22
870.224	489.4
870.394	742.94
870.564	590.11
870.734	618.97
870.903	546.42
871.073	624.07
871.243	490.13
871.412	529.74
871.582	427
871.751	415.22
871.921	419.57
872.091	390.08
872.26	335.26
872.43	257.96
872.599	265.8
872.769	308.13
872.938	306.86
873.108	429.14
873.277	465.14
873.446	581.82
873.616	499.15
873.785	554.61
873.955	709.8
874.124	521.68
874.293	1376.41
874.463	1640.12
874.632	1951.52
874.801	2138.66
874.971	643.11
875.14	620.44
875.309	421.17
875.478	399.11
875.647	372.92
875.817	298
875.986	346.75
876.155	345.83
876.324	327.86
876.493	310.17
876.662	266.1
876.831	294.04
877	290.56
877.17	336.59
877.339	445.55
877.508	339.5
877.677	388.59
877.846	408.89
878.015	349.94
878.184	297.67
878.352	281.33
878.521	304.29
878.69	292.72
878.859	243.94
879.028	249.8
879.197	217.22
879.366	246.36
879.534	216.42
879.703	214.63
879.872	202.98
880.041	193.77
880.21	178.05
880.378	159.97
880.547	162.8
880.716	163.54
880.884	149.31
881.053	135.71
881.222	123.72
881.39	118.01
881.559	103.34
881.727	96.41
881.896	93.03
882.065	89.22
882.233	89.23
882.402	84.88
882.57	82.16
882.739	79.56
882.907	78.52
883.076	82.41
883.244	86.36
883.412	87.29
883.581	89.88
883.749	96.24
883.918	97.38
884.086	100.35
884.254	106.79
884.423	113.29
884.591	125.58
884.759	131.11
884.927	122.94
885.096	120.07
885.264	136.85
885.432	142.24
885.6	143.04
885.769	159.7
885.937	168.26
886.105	171.46
886.273	172.22
886.441	167.12
886.609	172.52
886.777	191.22
886.945	215.06
887.113	209.02
887.281	234.14
887.449	238.33
887.617	230.29
887.785	263.72
887.953	259.34
888.121	251.66
888.289	282.38
888.457	366.8
888.625	449.56
888.793	345.13
888.961	375.33
889.129	277.37
889.296	279.87
889.464	303.72
889.632	247.08
889.8	267.79
889.967	286.82
890.135	282.34
