Data from JASIL_2964_Reflection_2.txt Node
Date: Sat Nov 07 21:27:38 EST 2015
User: Geneva
Spectrometer: USB4E03002
Autoset integration time: false
Trigger mode: 4
Integration Time (sec): 1.000000E-1
Scans to average: 10
Electric dark correction enabled: true
Nonlinearity correction enabled: false
Boxcar width: 5
Stray light correction enabled: false
XAxis mode: Wavelengths
Stop averaging: false
Number of Pixels in Spectrum: 3648
>>>>>Begin Spectral Data<<<<<
177.575	6.42
177.794	-44.1
178.014	-9.52
178.233	-111.72
178.452	-28.47
178.672	126.93
178.891	110.37
179.11	130.1
179.33	234.75
179.549	141.07
179.768	74.33
179.987	25.26
180.207	-120.93
180.426	263.28
180.645	111.2
180.864	92.66
181.084	71.27
181.303	50.86
181.522	40.05
181.741	68.09
181.96	65.33
182.179	65.81
182.398	48.99
182.618	32.33
182.837	7.33
183.056	-83.85
183.275	-64.2
183.494	12.56
183.713	48.29
183.932	40.83
184.151	108.05
184.37	35.97
184.589	29.74
184.808	33.25
185.027	47.21
185.246	48.54
185.465	55.15
185.684	51.57
185.903	31.74
186.122	32.9
186.341	34.83
186.56	31.49
186.779	31.13
186.998	48.8
187.216	55.31
187.435	48.49
187.654	57.19
187.873	60.01
188.092	42.93
188.311	40.23
188.53	41.46
188.748	38.85
188.967	29.99
189.186	35.41
189.405	8.2
189.623	16.23
189.842	33.49
190.061	27.98
190.28	37.09
190.498	57.88
190.717	59.87
190.936	-5.68
191.154	-71.14
191.373	2102.16
191.592	-389.97
191.81	-473.08
192.029	-142.37
192.248	-297.12
192.466	-189.75
192.685	-29.86
192.904	-6.85
193.122	2.36
193.341	-6.33
193.559	29.07
193.778	20.33
193.996	51.65
194.215	49.7
194.433	51.77
194.652	50.17
194.87	24.42
195.089	14.79
195.307	44.32
195.526	51.02
195.744	62.16
195.963	59.22
196.181	66.78
196.399	51.64
196.618	61.98
196.836	69.39
197.055	75.7
197.273	76.6
197.491	66.67
197.71	41.51
197.928	34.34
198.146	30.13
198.365	10.11
198.583	-3.72
198.801	3.05
199.019	-11.24
199.238	-24.47
199.456	-32.15
199.674	-24.84
199.892	-25.98
200.111	-45.37
200.329	-18.66
200.547	-35.46
200.765	-29.52
200.983	-22.76
201.202	-13.71
201.42	0.5
201.638	-2.67
201.856	-9.59
202.074	0.02
202.292	-2.2
202.51	-1.35
202.728	-7.93
202.946	-16.15
203.165	-8.47
203.383	-5.31
203.601	-0.23
203.819	-8.89
204.037	-3.83
204.255	23.28
204.473	38.64
204.691	38.23
204.909	38.67
205.127	35.74
205.345	63.53
205.562	62.97
205.78	68.56
205.998	67.59
206.216	64.26
206.434	54.87
206.652	20.62
206.87	17.48
207.088	10.72
207.306	15.15
207.523	10.89
207.741	-5.75
207.959	-9.33
208.177	-16.9
208.395	-30.35
208.612	-50.98
208.83	-11.02
209.048	-5.63
209.266	-49.71
209.483	-54.98
209.701	-62.84
209.919	-82.58
210.136	-59.14
210.354	-10.42
210.572	5.66
210.79	13.79
211.007	26.64
211.225	23.85
211.442	23.06
211.66	43.92
211.878	43.08
212.095	100.54
212.313	98.15
212.53	91.4
212.748	85.25
212.966	100.05
213.183	97.79
213.401	82.73
213.618	87.52
213.836	86.74
214.053	78.62
214.271	76.21
214.488	14.22
214.705	9.42
214.923	8.27
215.14	12.28
215.358	9.57
215.575	11.17
215.793	19.01
216.01	11.34
216.227	14.23
216.445	17.32
216.662	16.42
216.879	14.94
217.097	13.65
217.314	11.22
217.531	6.57
217.749	-5.16
217.966	-5.74
218.183	-7.18
218.4	-13.62
218.618	-13.07
218.835	-10.63
219.052	-11.57
219.269	-6.64
219.487	-1.92
219.704	-1.89
219.921	-0.4
220.138	7.45
220.355	10.15
220.572	9.61
220.79	6.4
221.007	11.11
221.224	13.56
221.441	14.54
221.658	13.49
221.875	11.88
222.092	15.6
222.309	16.45
222.526	16.99
222.743	14.38
222.96	14.48
223.177	16.51
223.394	12.93
223.611	12.53
223.828	14.63
224.045	13
224.262	14.01
224.479	10.8
224.696	11.87
224.913	9.88
225.13	10.83
225.347	11.14
225.564	9.6
225.781	10.04
225.997	9.19
226.214	8.05
226.431	8.68
226.648	8.58
226.865	9.97
227.082	9.84
227.298	10.81
227.515	10.54
227.732	9.93
227.949	10.75
228.165	10.07
228.382	9.41
228.599	9.48
228.816	9.09
229.032	8.58
229.249	8.24
229.466	8.03
229.682	7.55
229.899	7.82
230.116	8.61
230.332	8.82
230.549	10.82
230.765	12.96
230.982	13.24
231.199	13.58
231.415	14.38
231.632	13.86
231.848	13.53
232.065	13.83
232.281	13.98
232.498	13.22
232.714	12.1
232.931	10.82
233.147	9.9
233.364	9.25
233.58	9.93
233.797	9.7
234.013	9.56
234.23	9.85
234.446	10.12
234.662	10.89
234.879	12.12
235.095	11.79
235.312	12.27
235.528	12.79
235.744	12.64
235.961	11.29
236.177	10.75
236.393	10.46
236.61	9.9
236.826	9.29
237.042	7.13
237.258	6.02
237.475	6.8
237.691	6.81
237.907	6.24
238.123	6.95
238.339	8.08
238.556	8.12
238.772	8.04
238.988	8.26
239.204	7.99
239.42	8.77
239.636	9.04
239.853	9.17
240.069	8.4
240.285	8.14
240.501	8.06
240.717	8.03
240.933	8.47
241.149	8.83
241.365	9.1
241.581	9.02
241.797	8.82
242.013	8.47
242.229	8.25
242.445	8.4
242.661	8.58
242.877	8.9
243.093	8.9
243.309	8.85
243.525	8.24
243.741	8.05
243.957	8.3
244.173	8.93
244.388	8.72
244.604	8.72
244.82	9.03
245.036	8.84
245.252	8.62
245.468	8.5
245.683	8.35
245.899	8.82
246.115	8.57
246.331	8.49
246.547	8.26
246.762	8.39
246.978	8.39
247.194	8.16
247.409	8.07
247.625	7.84
247.841	7.65
248.057	7.63
248.272	7.27
248.488	7.67
248.703	7.44
248.919	7.46
249.135	7.16
249.35	6.69
249.566	6.73
249.782	6.71
249.997	7.59
250.213	7.59
250.428	7.72
250.644	7.5
250.859	6.86
251.075	7.21
251.29	6.96
251.506	6.79
251.721	6.91
251.937	6.95
252.152	7.17
252.368	6.48
252.583	6.37
252.798	6.18
253.014	6.4
253.229	6.67
253.445	6.14
253.66	6.22
253.875	6.26
254.091	5.95
254.306	5.59
254.521	4.88
254.737	5.3
254.952	5.51
255.167	5.36
255.383	5.52
255.598	5.77
255.813	6.29
256.028	5.78
256.244	6.3
256.459	6.78
256.674	6.7
256.889	6.56
257.104	6.16
257.32	6.07
257.535	6.11
257.75	6.11
257.965	6.05
258.18	5.91
258.395	6.04
258.61	5.86
258.826	5.87
259.041	5.85
259.256	5.88
259.471	5.94
259.686	6.04
259.901	6.07
260.116	6.03
260.331	5.99
260.546	5.93
260.761	5.97
260.976	6.11
261.191	5.78
261.406	5.53
261.621	5.66
261.836	5.42
262.05	5.1
262.265	4.92
262.48	4.95
262.695	4.79
262.91	5
263.125	4.6
263.34	4.63
263.555	4.96
263.769	5.04
263.984	4.83
264.199	5.23
264.414	5.53
264.629	5.43
264.843	5.54
265.058	5.53
265.273	5.61
265.488	5.96
265.702	5.88
265.917	6.32
266.132	6.63
266.346	6.85
266.561	6.95
266.776	6.88
266.99	7.18
267.205	6.8
267.42	6.57
267.634	6.48
267.849	6.42
268.063	6.44
268.278	6.08
268.492	5.95
268.707	5.98
268.922	5.85
269.136	5.84
269.351	5.79
269.565	6.02
269.78	6.09
269.994	5.93
270.209	5.87
270.423	6.03
270.637	6.06
270.852	6.06
271.066	5.9
271.281	5.86
271.495	5.8
271.709	5.67
271.924	5.74
272.138	5.73
272.353	5.85
272.567	5.74
272.781	5.56
272.996	5.52
273.21	5.6
273.424	5.62
273.638	5.52
273.853	5.59
274.067	5.53
274.281	5.5
274.495	5.39
274.71	5.24
274.924	5.26
275.138	5.24
275.352	5.09
275.566	4.85
275.781	4.69
275.995	4.84
276.209	4.95
276.423	4.87
276.637	4.64
276.851	4.79
277.065	4.95
277.279	4.95
277.493	5.04
277.707	5.08
277.921	5.5
278.135	5.75
278.349	5.55
278.563	5.48
278.777	5.42
278.991	5.52
279.205	5.76
279.419	5.6
279.633	5.61
279.847	5.53
280.061	5.65
280.275	5.47
280.489	5.49
280.703	5.26
280.917	4.99
281.131	5.06
281.344	4.78
281.558	4.49
281.772	4.59
281.986	4.55
282.2	4.68
282.414	4.72
282.627	4.67
282.841	4.52
283.055	4.73
283.269	4.79
283.482	4.89
283.696	5.14
283.91	5.43
284.123	5.38
284.337	5.4
284.551	5.34
284.764	5.27
284.978	5.45
285.192	5.36
285.405	5.53
285.619	5.71
285.833	5.41
286.046	5.27
286.26	5.16
286.473	5.03
286.687	4.96
286.9	4.85
287.114	4.84
287.327	4.84
287.541	5.14
287.754	4.92
287.968	4.78
288.181	5
288.395	5.27
288.608	5.17
288.822	5.33
289.035	5.57
289.248	5.57
289.462	5.51
289.675	5.38
289.889	5.23
290.102	5.4
290.315	5.49
290.529	5.51
290.742	5.39
290.955	5.5
291.169	5.38
291.382	5.14
291.595	5.2
291.808	5.2
292.022	5.36
292.235	5.34
292.448	5.47
292.661	5.29
292.875	5.41
293.088	5.26
293.301	5.26
293.514	5.3
293.727	5.35
293.94	5.46
294.153	5.36
294.367	5.2
294.58	5.13
294.793	4.73
295.006	4.82
295.219	5.01
295.432	5.19
295.645	5.35
295.858	5.2
296.071	5.17
296.284	5.05
296.497	5.16
296.71	5.04
296.923	5.18
297.136	5.39
297.349	5.47
297.562	5.28
297.775	5.31
297.988	5.14
298.201	5.26
298.414	5.36
298.626	5.27
298.839	5.37
299.052	5.52
299.265	5.3
299.478	5.3
299.691	5.04
299.903	4.98
300.116	4.77
300.329	4.81
300.542	4.98
300.755	5
300.967	5.28
301.18	5.34
301.393	5.29
301.605	5.5
301.818	5.38
302.031	5.6
302.243	5.71
302.456	5.97
302.669	5.8
302.881	5.72
303.094	5.59
303.307	5.73
303.519	5.6
303.732	5.69
303.944	5.72
304.157	5.69
304.37	5.83
304.582	5.88
304.795	5.72
305.007	5.76
305.22	5.82
305.432	6
305.645	5.87
305.857	5.98
306.069	6.06
306.282	5.79
306.494	5.97
306.707	5.9
306.919	5.68
307.132	5.72
307.344	5.74
307.556	5.64
307.769	5.47
307.981	5.41
308.193	5.34
308.406	5.05
308.618	5.33
308.83	5.36
309.043	5.36
309.255	5.48
309.467	5.46
309.679	5.54
309.892	5.55
310.104	5.49
310.316	5.49
310.528	5.45
310.74	5.83
310.953	5.86
311.165	5.78
311.377	5.49
311.589	5.48
311.801	5.44
312.013	5.47
312.225	5.59
312.437	5.84
312.649	5.81
312.862	5.9
313.074	5.64
313.286	5.44
313.498	5.29
313.71	5.8
313.922	5.76
314.134	5.82
314.346	5.72
314.558	5.66
314.77	5.63
314.982	5.5
315.193	5.7
315.405	5.67
315.617	5.62
315.829	5.67
316.041	5.66
316.253	5.56
316.465	5.5
316.677	5.48
316.888	5.61
317.1	5.63
317.312	5.7
317.524	5.81
317.736	6.04
317.947	6.33
318.159	6.64
318.371	6.43
318.583	6.59
318.794	6.76
319.006	6.94
319.218	6.75
319.43	6.71
319.641	6.69
319.853	6.57
320.064	6.64
320.276	6.62
320.488	6.47
320.699	6.55
320.911	6.8
321.123	6.96
321.334	7.14
321.546	7.26
321.757	7.32
321.969	7.56
322.18	7.35
322.392	6.99
322.603	6.86
322.815	7.02
323.026	7.18
323.238	7.02
323.449	7
323.661	6.93
323.872	7.09
324.083	7.1
324.295	7.06
324.506	7.27
324.718	7.41
324.929	7.65
325.14	7.69
325.352	7.6
325.563	7.95
325.774	8.02
325.986	8.1
326.197	8.14
326.408	8.27
326.62	8.45
326.831	8.53
327.042	8.78
327.253	8.87
327.464	9.01
327.676	9.19
327.887	9.2
328.098	9.18
328.309	9.36
328.52	9.49
328.732	9.98
328.943	10.27
329.154	10.45
329.365	10.54
329.576	10.74
329.787	10.73
329.998	11.07
330.209	11.26
330.42	11.42
330.631	11.49
330.842	11.52
331.053	11.52
331.264	11.35
331.475	11.42
331.686	11.6
331.897	11.73
332.108	11.86
332.319	11.91
332.53	11.95
332.741	12.01
332.952	11.94
333.163	12.16
333.374	12.2
333.585	12.25
333.795	12.31
334.006	12.39
334.217	12.36
334.428	12.31
334.639	12.29
334.849	12.34
335.06	12.44
335.271	12.62
335.482	12.6
335.692	12.56
335.903	12.48
336.114	12.43
336.325	12.5
336.535	12.49
336.746	12.66
336.957	12.73
337.167	12.73
337.378	12.71
337.589	12.73
337.799	12.78
338.01	12.78
338.22	13.01
338.431	12.99
338.642	13.1
338.852	12.95
339.063	12.91
339.273	12.86
339.484	13.01
339.694	13.07
339.905	12.91
340.115	12.7
340.326	12.58
340.536	12.55
340.746	12.59
340.957	12.42
341.167	12.77
341.378	12.75
341.588	12.85
341.799	12.55
342.009	12.4
342.219	12.61
342.43	12.76
342.64	12.87
342.85	12.89
343.061	12.98
343.271	12.89
343.481	12.72
343.691	12.68
343.902	12.38
344.112	12.35
344.322	12.48
344.532	12.45
344.743	12.46
344.953	12.34
345.163	12.41
345.373	12.3
345.583	12.3
345.793	12.3
346.004	12.3
346.214	12.37
346.424	12.46
346.634	12.58
346.844	12.62
347.054	12.74
347.264	12.96
347.474	12.8
347.684	12.73
347.894	12.79
348.104	12.65
348.314	12.61
348.524	12.86
348.734	12.98
348.944	12.83
349.154	12.71
349.364	12.56
349.574	12.47
349.784	12.4
349.994	12.47
350.204	12.42
350.413	12.49
350.623	12.65
350.833	12.38
351.043	12.31
351.253	12.48
351.463	12.48
351.672	12.29
351.882	12.2
352.092	12.14
352.302	12.11
352.511	12
352.721	12
352.931	11.9
353.141	11.73
353.35	11.64
353.56	11.4
353.77	11.55
353.979	11.73
354.189	11.76
354.399	12.04
354.608	11.95
354.818	12.06
355.027	12.06
355.237	11.99
355.447	12.29
355.656	12.36
355.866	12.39
356.075	12.25
356.285	12.14
356.494	12.01
356.704	11.82
356.913	11.9
357.123	11.7
357.332	11.65
357.542	11.81
357.751	11.72
357.96	11.55
358.17	11.53
358.379	11.55
358.589	11.58
358.798	11.72
359.007	11.68
359.217	11.53
359.426	11.63
359.635	11.49
359.845	11.34
360.054	11.22
360.263	11.28
360.472	11.19
360.682	11.2
360.891	11.18
361.1	11.07
361.309	11.14
361.519	11.23
361.728	11.27
361.937	11.38
362.146	11.36
362.355	11.46
362.564	11.42
362.774	11.46
362.983	11.31
363.192	11.18
363.401	11.24
363.61	11.16
363.819	11.18
364.028	11.26
364.237	11.15
364.446	11.24
364.655	11.17
364.864	11.25
365.073	11.31
365.282	11.44
365.491	11.52
365.7	11.5
365.909	11.52
366.118	11.56
366.327	11.4
366.536	11.47
366.745	11.39
366.954	11.32
367.162	11.23
367.371	11.16
367.58	11.1
367.789	11.05
367.998	11.04
368.207	11.08
368.415	10.94
368.624	10.93
368.833	10.99
369.042	11.08
369.25	11.12
369.459	11.1
369.668	11.1
369.877	11.08
370.085	11.16
370.294	11.1
370.503	11.04
370.711	11
370.92	10.95
371.129	10.89
371.337	10.76
371.546	10.64
371.754	10.54
371.963	10.54
372.171	10.44
372.38	10.29
372.589	10.27
372.797	10.23
373.006	10.17
373.214	10.1
373.423	10.02
373.631	9.93
373.84	10.1
374.048	10.1
374.256	9.97
374.465	9.97
374.673	9.99
374.882	9.89
375.09	9.82
375.298	9.86
375.507	9.92
375.715	9.9
375.923	9.93
376.132	9.73
376.34	9.71
376.548	9.72
376.757	9.74
376.965	9.85
377.173	9.95
377.381	9.98
377.59	9.92
377.798	9.89
378.006	9.93
378.214	9.89
378.423	10.03
378.631	10.03
378.839	10.06
379.047	10.02
379.255	9.95
379.463	9.86
379.671	9.77
379.879	9.77
380.088	9.83
380.296	9.81
380.504	9.8
380.712	9.76
380.92	9.91
381.128	9.85
381.336	9.85
381.544	9.8
381.752	9.85
381.96	9.85
382.168	9.77
382.376	9.67
382.584	9.55
382.791	9.52
382.999	9.49
383.207	9.34
383.415	9.31
383.623	9.37
383.831	9.19
384.039	9.16
384.247	9.19
384.454	9.23
384.662	9.25
384.87	9.31
385.078	9.23
385.285	9.18
385.493	9.11
385.701	9.21
385.909	9.12
386.116	9.27
386.324	9.27
386.532	9.23
386.739	9.17
386.947	9.13
387.155	9.04
387.362	9.17
387.57	9.27
387.778	9.29
387.985	9.19
388.193	9.17
388.4	9.21
388.608	9.06
388.816	9.07
389.023	9.07
389.231	9
389.438	8.93
389.646	8.73
389.853	8.61
390.061	8.49
390.268	8.53
390.475	8.4
390.683	8.24
390.89	8.27
391.098	8.22
391.305	8.29
391.512	8.29
391.72	8.29
391.927	8.31
392.135	8.26
392.342	8.29
392.549	8.18
392.756	8.13
392.964	8.18
393.171	8.11
393.378	8.09
393.586	8.02
393.793	8.09
394	8.04
394.207	8.08
394.414	8.09
394.622	8.12
394.829	8.15
395.036	8.22
395.243	8.2
395.45	8.24
395.657	8.23
395.864	8.09
396.072	8.06
396.279	8.15
396.486	8.12
396.693	8.11
396.9	8.12
397.107	8
397.314	8
397.521	7.91
397.728	7.9
397.935	7.81
398.142	7.85
398.349	7.72
398.556	7.66
398.763	7.62
398.97	7.62
399.177	7.63
399.383	7.71
399.59	7.72
399.797	7.78
400.004	7.76
400.211	7.84
400.418	7.84
400.625	7.84
400.831	7.85
401.038	7.85
401.245	7.8
401.452	7.71
401.658	7.76
401.865	7.92
402.072	7.88
402.279	7.87
402.485	7.78
402.692	7.7
402.899	7.71
403.105	7.7
403.312	7.63
403.519	7.6
403.725	7.62
403.932	7.53
404.138	7.36
404.345	7.29
404.552	7.28
404.758	7.3
404.965	7.36
405.171	7.28
405.378	7.21
405.584	7.29
405.791	7.31
405.997	7.2
406.204	7.23
406.41	7.2
406.617	7.24
406.823	7.28
407.029	7.34
407.236	7.31
407.442	7.36
407.649	7.49
407.855	7.48
408.061	7.5
408.268	7.56
408.474	7.48
408.68	7.5
408.887	7.48
409.093	7.42
409.299	7.37
409.505	7.41
409.712	7.39
409.918	7.26
410.124	7.19
410.33	7.1
410.537	7.16
410.743	7.19
410.949	7.2
411.155	7.18
411.361	7.15
411.567	7.09
411.773	7
411.98	7.03
412.186	7.04
412.392	7.07
412.598	7.12
412.804	6.99
413.01	6.95
413.216	6.97
413.422	6.99
413.628	7.05
413.834	7.03
414.04	7.09
414.246	7
414.452	6.97
414.658	6.89
414.864	6.88
415.07	6.93
415.275	6.9
415.481	6.87
415.687	6.76
415.893	6.67
416.099	6.67
416.305	6.62
416.511	6.62
416.716	6.58
416.922	6.56
417.128	6.52
417.334	6.51
417.539	6.49
417.745	6.44
417.951	6.49
418.157	6.55
418.362	6.54
418.568	6.52
418.774	6.48
418.979	6.46
419.185	6.45
419.391	6.43
419.596	6.38
419.802	6.32
420.008	6.28
420.213	6.55
420.419	6.51
420.624	6.52
420.83	6.52
421.035	6.54
421.241	6.55
421.446	6.58
421.652	6.53
421.857	6.52
422.063	6.52
422.268	6.55
422.474	6.24
422.679	6.21
422.885	6.17
423.09	6.2
423.295	6.19
423.501	6.18
423.706	6.13
423.911	6.17
424.117	6.18
424.322	6.21
424.527	6.21
424.733	6.18
424.938	6.22
425.143	6.27
425.349	6.17
425.554	6.17
425.759	6.17
425.964	6.22
426.169	6.21
426.375	6.2
426.58	6.15
426.785	6.14
426.99	6.19
427.195	6.15
427.4	6.1
427.605	6.17
427.811	6.21
428.016	6.28
428.221	6.3
428.426	6.31
428.631	6.25
428.836	6.33
429.041	6.32
429.246	6.32
429.451	6.35
429.656	6.35
429.861	6.35
430.066	6.32
430.271	6.24
430.476	6.16
430.681	6.1
430.886	6.19
431.09	6.19
431.295	6.19
431.5	6.15
431.705	6.13
431.91	6.11
432.115	6.12
432.32	6.14
432.524	6.11
432.729	6.11
432.934	6.15
433.139	6.14
433.343	6.15
433.548	6.11
433.753	6.16
433.958	6.17
434.162	6.18
434.367	6.12
434.572	6.07
434.776	6.13
434.981	6.18
435.186	6.17
435.39	6.18
435.595	6.2
435.799	6.26
436.004	6.24
436.209	6.22
436.413	6.21
436.618	6.19
436.822	6.2
437.027	6.14
437.231	6.1
437.436	6.05
437.64	6
437.845	5.9
438.049	5.85
438.253	5.8
438.458	5.75
438.662	5.74
438.867	5.76
439.071	5.78
439.275	5.8
439.48	5.79
439.684	5.82
439.888	5.82
440.093	5.82
440.297	5.84
440.501	5.9
440.706	5.91
440.91	5.95
441.114	5.94
441.318	5.93
441.523	5.94
441.727	5.97
441.931	6.03
442.135	6.02
442.339	6.07
442.543	6.05
442.748	6
442.952	6.02
443.156	5.99
443.36	6.01
443.564	5.96
443.768	5.92
443.972	5.89
444.176	5.81
444.38	5.81
444.584	5.78
444.788	5.74
444.992	5.76
445.196	5.74
445.4	5.72
445.604	5.7
445.808	5.7
446.012	5.71
446.216	5.69
446.42	5.68
446.624	5.68
446.828	5.65
447.032	5.66
447.235	5.64
447.439	5.64
447.643	5.68
447.847	5.69
448.051	5.71
448.254	5.71
448.458	5.74
448.662	5.8
448.866	5.8
449.069	5.86
449.273	5.94
449.477	5.98
449.681	6.02
449.884	6.04
450.088	6.08
450.292	6.11
450.495	6.13
450.699	6.17
450.902	6.15
451.106	6.18
451.31	6.17
451.513	6.12
451.717	6.04
451.92	5.99
452.124	5.93
452.327	5.85
452.531	5.84
452.734	5.85
452.938	5.8
453.141	5.75
453.345	5.8
453.548	5.76
453.752	5.78
453.955	5.83
454.158	5.84
454.362	5.82
454.565	5.83
454.769	5.84
454.972	5.87
455.175	5.8
455.379	5.86
455.582	5.79
455.785	5.83
455.988	5.79
456.192	5.8
456.395	5.77
456.598	5.77
456.801	5.75
457.005	5.71
457.208	5.65
457.411	5.66
457.614	5.63
457.817	5.61
458.021	5.53
458.224	5.53
458.427	5.53
458.63	5.51
458.833	5.51
459.036	5.53
459.239	5.52
459.442	5.51
459.645	5.53
459.848	5.56
460.051	5.54
460.254	5.54
460.457	5.54
460.66	5.52
460.863	5.56
461.066	5.57
461.269	5.59
461.472	5.64
461.675	5.72
461.878	5.74
462.081	5.69
462.284	5.74
462.486	5.83
462.689	5.84
462.892	5.88
463.095	5.88
463.298	5.87
463.5	5.85
463.703	5.8
463.906	5.73
464.109	5.71
464.311	5.75
464.514	5.78
464.717	5.83
464.92	5.8
465.122	5.82
465.325	5.89
465.528	5.93
465.73	5.91
465.933	5.9
466.135	5.96
466.338	5.97
466.541	5.98
466.743	5.94
466.946	5.9
467.148	5.95
467.351	5.98
467.553	5.93
467.756	5.94
467.958	5.99
468.161	6.05
468.363	6.02
468.566	6.03
468.768	5.97
468.971	5.99
469.173	6.02
469.375	6
469.578	6
469.78	5.98
469.983	5.97
470.185	5.95
470.387	5.95
470.59	5.91
470.792	5.91
470.994	5.96
471.196	5.98
471.399	5.92
471.601	5.91
471.803	5.83
472.005	5.82
472.208	5.82
472.41	5.78
472.612	5.75
472.814	5.83
473.016	5.82
473.218	5.82
473.421	5.77
473.623	5.78
473.825	5.78
474.027	5.83
474.229	5.83
474.431	5.83
474.633	5.83
474.835	5.83
475.037	5.77
475.239	5.78
475.441	5.8
475.643	5.81
475.845	5.85
476.047	5.88
476.249	5.87
476.451	5.89
476.653	5.86
476.855	5.88
477.057	5.87
477.258	5.86
477.46	5.85
477.662	5.83
477.864	5.87
478.066	5.87
478.268	5.82
478.469	5.81
478.671	5.8
478.873	5.81
479.075	5.78
479.276	5.78
479.478	5.77
479.68	5.74
479.882	5.7
480.083	5.69
480.285	5.65
480.487	5.66
480.688	5.63
480.89	5.6
481.091	5.58
481.293	5.54
481.495	5.5
481.696	5.45
481.898	5.43
482.099	5.39
482.301	5.35
482.502	5.31
482.704	5.28
482.905	5.26
483.107	5.26
483.308	5.24
483.51	5.24
483.711	5.25
483.913	5.26
484.114	5.27
484.315	5.27
484.517	5.28
484.718	5.3
484.92	5.32
485.121	5.33
485.322	5.33
485.524	5.33
485.725	5.34
485.926	5.33
486.127	5.33
486.329	5.32
486.53	5.31
486.731	5.31
486.932	5.28
487.134	5.28
487.335	5.29
487.536	5.29
487.737	5.31
487.938	5.3
488.139	5.32
488.341	5.32
488.542	5.34
488.743	5.38
488.944	5.38
489.145	5.42
489.346	5.42
489.547	5.44
489.748	5.43
489.949	5.41
490.15	5.42
490.351	5.42
490.552	5.41
490.753	5.38
490.954	5.36
491.155	5.36
491.356	5.36
491.557	5.37
491.758	5.38
491.959	5.39
492.159	5.4
492.36	5.43
492.561	5.45
492.762	5.47
492.963	5.54
493.164	5.56
493.364	5.61
493.565	5.62
493.766	5.67
493.967	5.69
494.167	5.75
494.368	5.79
494.569	5.77
494.769	5.75
494.97	5.75
495.171	5.71
495.371	5.72
495.572	5.71
495.773	5.77
495.973	5.72
496.174	5.73
496.375	5.71
496.575	5.73
496.776	5.73
496.976	5.78
497.177	5.85
497.377	5.86
497.578	5.88
497.778	5.85
497.979	5.84
498.179	5.91
498.38	5.89
498.58	5.93
498.78	5.9
498.981	5.95
499.181	5.94
499.382	5.94
499.582	6.01
499.782	6.03
499.983	6.08
500.183	6.12
500.383	6.09
500.584	6.1
500.784	6.11
500.984	6.14
501.184	6.15
501.385	6.18
501.585	6.17
501.785	6.15
501.985	6.15
502.185	6.19
502.386	6.16
502.586	6.21
502.786	6.28
502.986	6.28
503.186	6.3
503.386	6.31
503.586	6.33
503.786	6.34
503.987	6.42
504.187	6.47
504.387	6.49
504.587	6.55
504.787	6.54
504.987	6.54
505.187	6.55
505.387	6.56
505.587	6.57
505.786	6.61
505.986	6.63
506.186	6.6
506.386	6.61
506.586	6.65
506.786	6.64
506.986	6.67
507.186	6.67
507.386	6.71
507.585	6.76
507.785	6.81
507.985	6.78
508.185	6.85
508.384	6.91
508.584	6.91
508.784	6.92
508.984	6.96
509.183	6.99
509.383	7.03
509.583	7.04
509.782	7.04
509.982	7.07
510.182	7.12
510.381	7.1
510.581	7.08
510.781	7.08
510.98	7.08
511.18	7.07
511.379	7.13
511.579	7.15
511.778	7.21
511.978	7.23
512.177	7.24
512.377	7.28
512.576	7.3
512.776	7.36
512.975	7.43
513.175	7.49
513.374	7.57
513.573	7.56
513.773	7.6
513.972	7.61
514.172	7.68
514.371	7.75
514.57	7.77
514.77	7.81
514.969	7.81
515.168	7.85
515.367	7.87
515.567	7.88
515.766	7.92
515.965	7.93
516.164	7.95
516.364	7.92
516.563	7.91
516.762	7.91
516.961	7.92
517.16	7.93
517.359	7.93
517.559	7.93
517.758	7.96
517.957	8.01
518.156	8.04
518.355	8.08
518.554	8.13
518.753	8.16
518.952	8.19
519.151	8.23
519.35	8.3
519.549	8.32
519.748	8.37
519.947	8.42
520.146	8.45
520.345	8.47
520.544	8.49
520.743	8.53
520.942	8.58
521.141	8.63
521.339	8.65
521.538	8.69
521.737	8.78
521.936	8.81
522.135	8.83
522.333	8.85
522.532	8.9
522.731	8.95
522.93	8.97
523.129	8.99
523.327	8.99
523.526	8.99
523.725	9.01
523.923	9
524.122	9.02
524.321	9.05
524.519	9.04
524.718	9.04
524.917	9.05
525.115	9.09
525.314	9.12
525.512	9.14
525.711	9.19
525.909	9.2
526.108	9.21
526.306	9.19
526.505	9.15
526.703	9.15
526.902	9.16
527.1	9.14
527.299	9.14
527.497	9.14
527.696	9.16
527.894	9.18
528.092	9.19
528.291	9.2
528.489	9.25
528.688	9.28
528.886	9.33
529.084	9.35
529.283	9.39
529.481	9.43
529.679	9.47
529.877	9.5
530.076	9.51
530.274	9.58
530.472	9.63
530.67	9.69
530.869	9.73
531.067	9.74
531.265	9.78
531.463	9.83
531.661	9.85
531.859	9.85
532.057	9.88
532.255	9.92
532.454	9.92
532.652	9.94
532.85	9.96
533.048	9.98
533.246	9.99
533.444	10.04
533.642	10.08
533.84	10.11
534.038	10.16
534.236	10.23
534.434	10.27
534.632	10.3
534.83	10.31
535.027	10.35
535.225	10.4
535.423	10.45
535.621	10.49
535.819	10.52
536.017	10.54
536.215	10.57
536.412	10.57
536.61	10.62
536.808	10.66
537.006	10.71
537.203	10.75
537.401	10.79
537.599	10.82
537.797	10.84
537.994	10.89
538.192	10.96
538.39	11.01
538.587	11.04
538.785	11.04
538.983	11.09
539.18	11.09
539.378	11.07
539.575	11.07
539.773	11.07
539.97	11.06
540.168	11.05
540.366	11.04
540.563	11.03
540.761	11.04
540.958	11.06
541.155	11.07
541.353	11.12
541.55	11.16
541.748	11.19
541.945	11.25
542.143	11.29
542.34	11.35
542.537	11.39
542.735	11.45
542.932	11.51
543.129	11.55
543.327	11.62
543.524	11.65
543.721	11.71
543.919	11.78
544.116	11.8
544.313	11.87
544.51	11.92
544.708	11.97
544.905	12.01
545.102	12.02
545.299	12.03
545.496	12.06
545.693	12.12
545.891	12.14
546.088	12.15
546.285	12.18
546.482	12.18
546.679	12.22
546.876	12.25
547.073	12.28
547.27	12.39
547.467	12.44
547.664	12.46
547.861	12.52
548.058	12.54
548.255	12.59
548.452	12.64
548.649	12.72
548.846	12.73
549.043	12.75
549.24	12.83
549.437	12.84
549.633	12.87
549.83	12.91
550.027	12.88
550.224	12.97
550.421	13.03
550.618	13.03
550.814	13.09
551.011	13.12
551.208	13.22
551.405	13.23
551.601	13.23
551.798	13.25
551.995	13.27
552.191	13.32
552.388	13.3
552.585	13.29
552.781	13.34
552.978	13.34
553.175	13.38
553.371	13.38
553.568	13.4
553.764	13.45
553.961	13.5
554.157	13.53
554.354	13.58
554.55	13.76
554.747	13.8
554.943	13.83
555.14	13.84
555.336	13.92
555.533	13.94
555.729	14.01
555.926	14.03
556.122	14.06
556.318	14.12
556.515	14.11
556.711	14.04
556.907	14.09
557.104	14.14
557.3	14.19
557.496	14.21
557.693	14.29
557.889	14.29
558.085	14.38
558.281	14.42
558.478	14.42
558.674	14.51
558.87	14.49
559.066	14.51
559.262	14.54
559.459	14.55
559.655	14.56
559.851	14.52
560.047	14.56
560.243	14.54
560.439	14.53
560.635	14.55
560.831	14.56
561.027	14.61
561.223	14.7
561.419	14.72
561.615	14.73
561.811	14.7
562.007	14.8
562.203	14.82
562.399	14.85
562.595	14.89
562.791	14.85
562.987	14.86
563.183	14.86
563.379	14.83
563.575	14.84
563.771	14.92
563.966	14.97
564.162	14.94
564.358	14.98
564.554	14.97
564.75	15.03
564.945	15.07
565.141	15.11
565.337	15.14
565.533	15.12
565.728	15.16
565.924	15.13
566.12	15.17
566.315	15.2
566.511	15.16
566.707	15.23
566.902	15.22
567.098	15.24
567.293	15.24
567.489	15.24
567.684	15.27
567.88	15.25
568.076	15.26
568.271	15.27
568.467	15.29
568.662	15.34
568.858	15.3
569.053	15.39
569.248	15.42
569.444	15.39
569.639	15.44
569.835	15.44
570.03	15.48
570.225	15.48
570.421	15.51
570.616	15.54
570.812	15.55
571.007	15.57
571.202	15.54
571.397	15.53
571.593	15.57
571.788	15.57
571.983	15.59
572.178	15.59
572.374	15.62
572.569	15.59
572.764	15.58
572.959	15.6
573.154	15.57
573.35	15.53
573.545	15.54
573.74	15.55
573.935	15.53
574.13	15.58
574.325	15.6
574.52	15.6
574.715	15.65
574.91	15.68
575.105	15.71
575.3	15.82
575.495	15.88
575.69	15.96
575.885	16.01
576.08	16.09
576.275	16.08
576.47	16.16
576.665	16.22
576.86	16.19
577.055	16.24
577.25	16.25
577.444	16.32
577.639	16.32
577.834	16.32
578.029	16.32
578.224	16.31
578.418	16.35
578.613	16.31
578.808	16.35
579.003	16.41
579.197	16.45
579.392	16.42
579.587	16.33
579.781	16.32
579.976	16.28
580.171	16.28
580.365	16.33
580.56	16.32
580.755	16.34
580.949	16.36
581.144	16.34
581.338	16.29
581.533	16.35
581.727	16.33
581.922	16.43
582.116	16.5
582.311	16.55
582.505	16.57
582.7	16.64
582.894	16.66
583.089	16.69
583.283	16.69
583.478	16.73
583.672	16.73
583.866	16.75
584.061	16.73
584.255	16.71
584.449	16.68
584.644	16.7
584.838	16.72
585.032	16.78
585.226	16.73
585.421	16.76
585.615	16.79
585.809	16.86
586.003	16.95
586.198	16.97
586.392	16.99
586.586	17
586.78	16.98
586.974	16.99
587.168	16.97
587.363	16.87
587.557	16.89
587.751	16.83
587.945	16.78
588.139	16.76
588.333	16.71
588.527	16.7
588.721	16.77
588.915	16.73
589.109	16.7
589.303	16.62
589.497	16.69
589.691	16.69
589.885	16.72
590.079	16.75
590.273	16.75
590.466	16.8
590.66	16.83
590.854	16.8
591.048	16.8
591.242	16.77
591.436	16.85
591.629	16.87
591.823	16.88
592.017	16.94
592.211	16.92
592.404	16.9
592.598	16.88
592.792	16.92
592.986	16.91
593.179	16.92
593.373	16.95
593.567	16.96
593.76	16.96
593.954	16.89
594.147	16.83
594.341	16.83
594.535	16.88
594.728	16.86
594.922	16.82
595.115	16.8
595.309	16.83
595.502	16.81
595.696	16.8
595.889	16.84
596.083	16.82
596.276	16.81
596.47	16.78
596.663	16.72
596.856	16.71
597.05	16.72
597.243	16.75
597.437	16.76
597.63	16.76
597.823	16.76
598.017	16.75
598.21	16.82
598.403	16.86
598.596	16.91
598.79	16.96
598.983	17
599.176	16.99
599.369	16.99
599.563	16.98
599.756	17.03
599.949	16.99
600.142	16.97
600.335	16.98
600.528	16.98
600.722	17.04
600.915	17
601.108	17.05
601.301	17.03
601.494	16.99
601.687	16.96
601.88	16.96
602.073	16.98
602.266	16.98
602.459	16.95
602.652	16.96
602.845	16.92
603.038	16.95
603.231	16.88
603.424	16.9
603.617	16.89
603.809	16.88
604.002	16.83
604.195	16.86
604.388	16.84
604.581	16.84
604.774	16.81
604.966	16.81
605.159	16.82
605.352	16.91
605.545	16.95
605.737	17.08
605.93	17.1
606.123	17.09
606.316	17.1
606.508	17.14
606.701	17.25
606.894	17.27
607.086	17.29
607.279	17.21
607.471	17.12
607.664	17.03
607.857	17
608.049	17.05
608.242	17.09
608.434	17.1
608.627	17.08
608.819	17.06
609.012	17.1
609.204	17.07
609.397	17.2
609.589	17.25
609.782	17.33
609.974	17.34
610.166	17.38
610.359	17.47
610.551	17.51
610.743	17.55
610.936	17.53
611.128	17.5
611.32	17.53
611.513	17.55
611.705	17.57
611.897	17.58
612.09	17.57
612.282	17.57
612.474	17.46
612.666	17.52
612.858	17.47
613.051	17.52
613.243	17.56
613.435	17.58
613.627	17.52
613.819	17.54
614.011	17.52
614.203	17.48
614.395	17.44
614.588	17.53
614.78	17.51
614.972	17.56
615.164	17.44
615.356	17.4
615.548	17.44
615.74	17.48
615.932	17.38
616.124	17.39
616.315	17.44
616.507	17.4
616.699	17.44
616.891	17.52
617.083	17.58
617.275	17.69
617.467	17.68
617.659	17.64
617.85	17.58
618.042	17.66
618.234	17.65
618.426	17.6
618.618	17.67
618.809	17.66
619.001	17.52
619.193	17.46
619.384	17.43
619.576	17.48
619.768	17.55
619.959	17.46
620.151	17.44
620.343	17.41
620.534	17.46
620.726	17.43
620.917	17.42
621.109	17.39
621.301	17.35
621.492	17.27
621.684	17.17
621.875	17.08
622.067	17.14
622.258	17.09
622.45	17.13
622.641	17.13
622.832	17.1
623.024	17.01
623.215	17.12
623.407	17.18
623.598	17.31
623.789	17.33
623.981	17.37
624.172	17.38
624.363	17.4
624.555	17.4
624.746	17.33
624.937	17.38
625.129	17.37
625.32	17.25
625.511	17.27
625.702	17.12
625.893	17.18
626.085	17.18
626.276	17.23
626.467	17.25
626.658	17.23
626.849	17.22
627.04	17.18
627.231	17.25
627.422	17.37
627.614	17.42
627.805	17.49
627.996	17.42
628.187	17.46
628.378	17.39
628.569	17.4
628.76	17.44
628.951	17.51
629.142	17.52
629.332	17.47
629.523	17.4
629.714	17.33
629.905	17.34
630.096	17.39
630.287	17.37
630.478	17.43
630.669	17.39
630.859	17.37
631.05	17.36
631.241	17.38
631.432	17.39
631.623	17.41
631.813	17.39
632.004	17.4
632.195	17.46
632.385	17.38
632.576	17.34
632.767	17.43
632.957	17.47
633.148	17.54
633.339	17.5
633.529	17.57
633.72	17.51
633.91	17.44
634.101	17.44
634.292	17.38
634.482	17.38
634.673	17.46
634.863	17.34
635.054	17.31
635.244	17.25
635.435	17.23
635.625	17.15
635.815	17.17
636.006	17.23
636.196	17.25
636.387	17.25
636.577	17.3
636.767	17.23
636.958	17.27
637.148	17.24
637.338	17.19
637.529	17.28
637.719	17.33
637.909	17.4
638.099	17.44
638.29	17.4
638.48	17.46
638.67	17.51
638.86	17.57
639.05	17.63
639.241	17.72
639.431	17.77
639.621	17.74
639.811	17.75
640.001	17.65
640.191	17.57
640.381	17.55
640.571	17.49
640.761	17.45
640.951	17.33
641.141	17.24
641.331	17.14
641.521	17.19
641.711	17.17
641.901	17.13
642.091	17.21
642.281	17.27
642.471	17.29
642.661	17.32
642.851	17.34
643.041	17.44
643.231	17.43
643.42	17.47
643.61	17.3
643.8	17.28
643.99	17.33
644.18	17.29
644.369	17.28
644.559	17.36
644.749	17.33
644.939	17.28
645.128	17.2
645.318	17.24
645.508	17.27
645.697	17.42
645.887	17.55
646.076	17.61
646.266	17.67
646.456	17.73
646.645	17.69
646.835	17.69
647.024	17.73
647.214	17.9
647.403	17.91
647.593	17.96
647.782	17.91
647.972	17.82
648.161	17.68
648.351	17.68
648.54	17.62
648.73	17.59
648.919	17.76
649.108	17.69
649.298	17.65
649.487	17.67
649.677	17.66
649.866	17.71
650.055	17.74
650.244	17.73
650.434	17.66
650.623	17.68
650.812	17.62
651.002	17.45
651.191	17.53
651.38	17.43
651.569	17.48
651.758	17.41
651.947	17.36
652.137	17.39
652.326	17.35
652.515	17.43
652.704	17.4
652.893	17.53
653.082	17.54
653.271	17.56
653.46	17.56
653.649	17.53
653.838	17.51
654.027	17.53
654.216	17.45
654.405	17.58
654.594	17.55
654.783	17.59
654.972	17.52
655.161	17.61
655.35	17.67
655.539	17.7
655.728	17.74
655.916	17.72
656.105	17.71
656.294	17.71
656.483	17.59
656.672	17.52
656.86	17.45
657.049	17.41
657.238	17.29
657.427	17.2
657.615	17.16
657.804	17.1
657.993	17.12
658.181	17.08
658.37	17.12
658.559	17.03
658.747	17.09
658.936	17.1
659.125	17.17
659.313	17.19
659.502	17.15
659.69	17.19
659.879	17.12
660.067	17.15
660.256	17.17
660.444	17.2
660.633	17.34
660.821	17.28
661.01	17.38
661.198	17.33
661.387	17.4
661.575	17.4
661.763	17.37
661.952	17.51
662.14	17.56
662.328	17.64
662.517	17.62
662.705	17.66
662.893	17.74
663.082	17.7
663.27	17.64
663.458	17.58
663.646	17.67
663.834	17.75
664.023	17.7
664.211	17.71
664.399	17.59
664.587	17.61
664.775	17.45
664.963	17.4
665.152	17.33
665.34	17.42
665.528	17.45
665.716	17.39
665.904	17.33
666.092	17.31
666.28	17.29
666.468	17.45
666.656	17.42
666.844	17.54
667.032	17.52
667.22	17.62
667.408	17.54
667.596	17.56
667.784	17.57
667.971	17.62
668.159	17.61
668.347	17.58
668.535	17.5
668.723	17.43
668.911	17.47
669.098	17.47
669.286	17.4
669.474	17.53
669.662	17.51
669.849	17.53
670.037	17.48
670.225	17.59
670.413	17.5
670.6	17.53
670.788	17.56
670.976	17.58
671.163	17.6
671.351	17.57
671.538	17.52
671.726	17.6
671.913	17.6
672.101	17.53
672.289	17.44
672.476	17.63
672.664	17.63
672.851	17.69
673.039	17.58
673.226	17.57
673.413	17.66
673.601	17.73
673.788	17.64
673.976	17.63
674.163	17.68
674.35	17.7
674.538	17.57
674.725	17.61
674.912	17.55
675.1	17.67
675.287	17.64
675.474	17.65
675.662	17.61
675.849	17.61
676.036	17.67
676.223	17.77
676.411	17.79
676.598	17.78
676.785	17.77
676.972	17.79
677.159	17.78
677.346	17.81
677.533	17.72
677.721	17.73
677.908	17.76
678.095	17.63
678.282	17.72
678.469	17.65
678.656	17.65
678.843	17.59
679.03	17.57
679.217	17.57
679.404	17.51
679.591	17.57
679.778	17.53
679.964	17.49
680.151	17.51
680.338	17.46
680.525	17.56
680.712	17.54
680.899	17.57
681.086	17.61
681.272	17.58
681.459	17.73
681.646	17.7
681.833	17.7
682.02	17.76
682.206	17.78
682.393	17.68
682.58	17.6
682.766	17.7
682.953	17.64
683.14	17.68
683.326	17.74
683.513	17.77
683.7	17.7
683.886	17.76
684.073	17.75
684.259	17.78
684.446	17.91
684.632	17.9
684.819	17.87
685.005	17.99
685.192	17.93
685.378	17.92
685.565	17.79
685.751	17.85
685.938	17.82
686.124	17.71
686.31	17.62
686.497	17.57
686.683	17.67
686.87	17.65
687.056	17.58
687.242	17.6
687.429	17.56
687.615	17.57
687.801	17.75
687.987	17.61
688.174	17.66
688.36	17.81
688.546	17.75
688.732	17.65
688.918	17.68
689.105	17.67
689.291	17.62
689.477	17.68
689.663	17.76
689.849	17.5
690.035	17.77
690.221	17.84
690.407	17.84
690.593	17.96
690.779	18.11
690.965	18.06
691.151	18.16
691.337	18.26
691.523	18.25
691.709	18.3
691.895	18.51
692.081	18.38
692.267	18.47
692.453	18.39
692.639	18.31
692.825	18.28
693.011	18.29
693.196	18.18
693.382	18.11
693.568	17.97
693.754	17.77
693.94	17.56
694.125	17.52
694.311	17.51
694.497	17.52
694.682	17.48
694.868	17.38
695.054	17.32
695.239	17.3
695.425	17.34
695.611	17.44
695.796	17.52
695.982	17.6
696.168	17.5
696.353	17.47
696.539	17.47
696.724	17.3
696.91	17.3
697.095	17.26
697.281	17.22
697.466	17.19
697.652	17.08
697.837	17.13
698.023	17.17
698.208	17.28
698.393	17.2
698.579	17.18
698.764	17.36
698.949	17.3
699.135	17.4
699.32	17.48
699.505	17.48
699.691	17.53
699.876	17.48
700.061	17.4
700.246	17.29
700.432	17.36
700.617	17.5
700.802	17.51
700.987	17.69
701.172	17.6
701.358	17.41
701.543	17.64
701.728	17.68
701.913	17.85
702.098	17.9
702.283	18.06
702.468	18.15
702.653	17.96
702.838	17.97
703.023	17.86
703.208	18.06
703.393	18.28
703.578	18.19
703.763	18.25
703.948	18.11
704.133	18.29
704.318	18.04
704.503	17.97
704.688	18.05
704.873	18.02
705.057	18.19
705.242	18
705.427	18.17
705.612	18.11
705.797	18.18
705.981	18.23
706.166	18.14
706.351	18.42
706.536	18.44
706.72	18.37
706.905	18.34
707.09	18.09
707.274	18.2
707.459	17.85
707.644	17.86
707.828	17.7
708.013	17.65
708.197	17.66
708.382	17.54
708.567	17.43
708.751	17.59
708.936	17.66
709.12	17.8
709.305	17.79
709.489	17.92
709.673	17.8
709.858	17.84
710.042	17.87
710.227	17.76
710.411	17.69
710.596	17.82
710.78	17.78
710.964	17.64
711.149	17.63
711.333	17.74
711.517	17.87
711.702	17.89
711.886	18.02
712.07	18.02
712.254	18.14
712.438	18.28
712.623	18.28
712.807	18.33
712.991	18.44
713.175	18.35
713.359	18.29
713.544	18.19
713.728	18.3
713.912	18.17
714.096	18.23
714.28	18.06
714.464	18.11
714.648	18.01
714.832	17.93
715.016	17.86
715.2	17.79
715.384	17.69
715.568	17.73
715.752	17.65
715.936	17.77
716.12	17.74
716.304	17.83
716.488	17.84
716.671	17.96
716.855	18
717.039	18.15
717.223	18.34
717.407	18.36
717.59	18.24
717.774	18.29
717.958	18.1
718.142	17.95
718.325	18.03
718.509	17.9
718.693	17.71
718.877	17.54
719.06	17.4
719.244	17.21
719.428	17.26
719.611	17.47
719.795	17.35
719.978	17.48
720.162	17.6
720.345	17.48
720.529	17.33
720.713	17.59
720.896	17.56
721.08	17.4
721.263	17.54
721.446	17.5
721.63	17.38
721.813	17.54
721.997	17.62
722.18	17.64
722.364	17.9
722.547	18.25
722.73	18.16
722.914	18.26
723.097	18.49
723.28	18.41
723.464	18.46
723.647	18.59
723.83	18.46
724.013	18.34
724.197	18.4
724.38	18.39
724.563	18.28
724.746	18.17
724.929	18.2
725.112	18.11
725.296	18.26
725.479	18.25
725.662	18
725.845	18.09
726.028	18.01
726.211	18.05
726.394	17.88
726.577	17.71
726.76	17.77
726.943	17.73
727.126	17.76
727.309	17.76
727.492	17.81
727.675	17.97
727.858	17.94
728.041	18.14
728.224	17.98
728.407	18.08
728.589	18.08
728.772	18.07
728.955	18.31
729.138	18.46
729.321	18.5
729.503	18.59
729.686	18.59
729.869	18.59
730.052	18.43
730.234	18.37
730.417	18.32
730.6	18.38
730.782	18.32
730.965	18.08
731.148	17.98
731.33	17.86
731.513	17.69
731.695	17.69
731.878	17.69
732.061	17.86
732.243	17.91
732.426	17.94
732.608	18.04
732.791	18.02
732.973	18.1
733.156	18.06
733.338	18.11
733.52	17.99
733.703	17.99
733.885	18.16
734.068	18.08
734.25	18.2
734.432	18.18
734.615	18.3
734.797	18.27
734.979	18.32
735.162	18.38
735.344	18.36
735.526	18.69
735.708	18.53
735.891	18.39
736.073	18.48
736.255	18.47
736.437	18.45
736.619	18.27
736.802	18.44
736.984	18.46
737.166	18.63
737.348	18.44
737.53	18.26
737.712	18.38
737.894	18.26
738.076	18.22
738.258	18.12
738.44	18.04
738.622	17.89
738.804	17.65
738.986	17.63
739.168	17.5
739.35	17.66
739.532	17.77
739.714	17.58
739.896	17.6
740.078	17.5
740.259	17.56
740.441	17.64
740.623	17.91
740.805	18.28
740.987	18.27
741.168	18.22
741.35	18
741.532	18.05
741.714	18.29
741.895	18.34
742.077	18.42
742.259	18.44
742.44	18.29
742.622	18.13
742.804	17.81
742.985	17.93
743.167	17.93
743.348	18.1
743.53	18.07
743.711	18.22
743.893	18.23
744.075	18.12
744.256	17.83
744.438	18
744.619	18.27
744.8	18.32
744.982	18.26
745.163	18.26
745.345	18.25
745.526	18.4
745.707	18.2
745.889	18.16
746.07	18.23
746.252	18.59
746.433	18.64
746.614	18.32
746.795	18.51
746.977	18.81
747.158	18.85
747.339	18.97
747.52	18.67
747.702	18.83
747.883	18.75
748.064	18.8
748.245	18.71
748.426	18.58
748.607	18.67
748.788	18.42
748.97	17.96
749.151	18.19
749.332	18.05
749.513	18.44
749.694	18.45
749.875	18.73
750.056	18.91
750.237	18.95
750.418	18.91
750.599	18.94
750.78	19.15
750.96	19.45
751.141	19.26
751.322	19.53
751.503	19.35
751.684	19.02
751.865	18.94
752.046	18.83
752.226	18.85
752.407	18.89
752.588	19.01
752.769	19.17
752.949	19.15
753.13	18.98
753.311	18.64
753.492	18.48
753.672	18.77
753.853	18.38
754.034	18.56
754.214	18.61
754.395	18.44
754.575	18.51
754.756	18.33
754.937	17.83
755.117	18.07
755.298	18.38
755.478	18.66
755.659	18.6
755.839	19.04
756.02	18.78
756.2	18.43
756.381	18.29
756.561	18.35
756.741	18.72
756.922	19.11
757.102	19
757.283	18.88
757.463	18.54
757.643	18.24
757.823	18.15
758.004	17.88
758.184	18.21
758.364	18.84
758.545	18.72
758.725	18.48
758.905	18.4
759.085	18.47
759.265	18.18
759.446	18.31
759.626	18.48
759.806	18.58
759.986	18.82
760.166	18.9
760.346	18.34
760.526	18.08
760.706	17.92
760.886	17.87
761.066	17.56
761.246	18.12
761.426	18.22
761.606	18.09
761.786	18.16
761.966	18.31
762.146	18
762.326	18.19
762.506	18.23
762.686	18.35
762.866	18.49
763.046	18.56
763.225	18.5
763.405	18.39
763.585	18.62
763.765	18.42
763.945	18.41
764.124	18.75
764.304	18.75
764.484	18.85
764.664	18.8
764.843	18.72
765.023	18.96
765.203	18.69
765.382	18.72
765.562	18.68
765.741	18.86
765.921	18.74
766.101	18.65
766.28	18.78
766.46	18.55
766.639	18.41
766.819	18.22
766.998	18
767.178	18.01
767.357	18.24
767.537	17.88
767.716	17.66
767.896	17.88
768.075	17.85
768.254	17.82
768.434	18.45
768.613	18.3
768.792	18.48
768.972	18.77
769.151	19
769.33	19.01
769.51	19.27
769.689	19.49
769.868	19.44
770.047	19.23
770.226	19.66
770.406	19.32
770.585	19.52
770.764	19.41
770.943	19.42
771.122	19.63
771.301	19.36
771.48	19.64
771.66	19.65
771.839	19.76
772.018	19.95
772.197	19.67
772.376	19.4
772.555	19.47
772.734	19.75
772.913	19.48
773.092	19.06
773.271	19.44
773.449	19.5
773.628	19.84
773.807	19.43
773.986	19.14
774.165	19.13
774.344	19.22
774.523	19.47
774.701	18.98
774.88	19.02
775.059	19.35
775.238	19.02
775.417	18.65
775.595	18.13
775.774	18.2
775.953	18.36
776.131	18.01
776.31	17.96
776.489	17.7
776.667	18
776.846	18.23
777.025	17.76
777.203	17.83
777.382	18.21
777.56	17.78
777.739	17.47
777.917	17.47
778.096	17.71
778.274	17.9
778.453	18.18
778.631	18.17
778.81	17.99
778.988	18.03
779.166	17.91
779.345	17.69
779.523	18.23
779.702	18.64
779.88	18.53
780.058	18.43
780.237	18.38
780.415	18.44
780.593	18.46
780.771	18.63
780.95	18.53
781.128	18.55
781.306	18.98
781.484	19.05
781.662	19.14
781.841	19.32
782.019	19.35
782.197	19.93
782.375	19.68
782.553	19.9
782.731	20.04
782.909	20.64
783.087	20.51
783.265	20.21
783.443	20.67
783.621	20.4
783.799	20.75
783.977	20.61
784.155	19.6
784.333	19.78
784.511	19.67
784.689	19.69
784.867	19.8
785.045	19.84
785.223	19.37
785.4	18.98
785.578	19.21
785.756	19.15
785.934	18.99
786.112	19.44
786.289	19.1
786.467	19.1
786.645	18.86
786.823	18.1
787	18.42
787.178	18.99
787.356	19.13
787.533	19.11
787.711	18.85
787.889	19.58
788.066	19.46
788.244	19.32
788.421	19.27
788.599	19.18
788.776	19.52
788.954	19.59
789.131	19.41
789.309	18.81
789.486	18.37
789.664	18.75
789.841	17.96
790.019	18.02
790.196	18.09
790.373	17.78
790.551	17.47
790.728	17.8
790.906	17.35
791.083	16.9
791.26	16.96
791.437	17.13
791.615	16.47
791.792	16.55
791.969	16.71
792.146	16.94
792.324	17.19
792.501	17.75
792.678	17.56
792.855	17.65
793.032	18.13
793.209	18.73
793.387	19.13
793.564	19.03
793.741	19.46
793.918	19.11
794.095	19.46
794.272	19.66
794.449	19.13
794.626	19.21
794.803	19.15
794.98	18.56
795.157	18.41
795.334	18.23
795.511	18.08
795.688	17.74
795.864	18.23
796.041	18.27
796.218	17.93
796.395	18.75
796.572	18.67
796.749	18.55
796.925	19.07
797.102	19.03
797.279	19.16
797.456	19.96
797.632	20.31
797.809	19.78
797.986	19.14
798.162	19.51
798.339	19.31
798.516	19.39
798.692	19.45
798.869	19.64
799.046	19.11
799.222	18.93
799.399	18.01
799.575	17.66
799.752	17.73
799.928	18.17
800.105	17.73
800.281	17.52
800.458	17.56
800.634	17.56
800.811	17.45
800.987	17.82
801.163	18
801.34	18.37
801.516	18.32
801.692	18.26
801.869	18.33
802.045	18.31
802.221	18.01
802.398	17.92
802.574	18.21
802.75	18.21
802.926	18.35
803.103	17.79
803.279	18.41
803.455	18.79
803.631	19.96
803.807	19.56
803.983	20.18
804.16	20.25
804.336	19.88
804.512	19.86
804.688	20.11
804.864	19.84
805.04	20.35
805.216	19.74
805.392	19.09
805.568	18.18
805.744	19.47
805.92	19.34
806.096	19.65
806.272	19.98
806.448	19.47
806.623	18.77
806.799	19.51
806.975	19.53
807.151	19.52
807.327	19.55
807.503	19.58
807.678	17.91
807.854	17.43
808.03	17.34
808.206	16.37
808.381	16.73
808.557	16.81
808.733	16.35
808.908	16.45
809.084	16.47
809.26	16.49
809.435	16.63
809.611	17.7
809.787	17.58
809.962	17.25
810.138	18.4
810.313	18.35
810.489	18.27
810.664	18.09
810.84	17.96
811.015	18.16
811.191	19.2
811.366	18.83
811.542	18.08
811.717	18.87
811.892	19.89
812.068	20.01
812.243	20.11
812.419	20.06
812.594	20.22
812.769	20.17
812.944	20.25
813.12	19.52
813.295	20.42
813.47	21.06
813.645	21.25
813.821	21
813.996	20.17
814.171	20.52
814.346	20.9
814.521	21.14
814.697	20.86
814.872	20.62
815.047	20.77
815.222	19.8
815.397	19.82
815.572	19.31
815.747	19.02
815.922	19.3
816.097	19.02
816.272	18.71
816.447	18.49
816.622	18.83
816.797	18.83
816.972	19.21
817.147	19.31
817.322	18.67
817.496	18.54
817.671	18.65
817.846	18.47
818.021	18.15
818.196	18.42
818.371	18.78
818.545	18.87
818.72	19.09
818.895	18.83
819.069	19.3
819.244	19.46
819.419	19.54
819.594	19.71
819.768	19.78
819.943	19.75
820.117	19.68
820.292	19.48
820.467	19.62
820.641	19.53
820.816	19.28
820.99	18.98
821.165	18.92
821.339	18.88
821.514	18.82
821.688	18.81
821.863	18.71
822.037	18.77
822.212	18.76
822.386	18.65
822.56	18.66
822.735	18.79
822.909	19
823.084	18.91
823.258	19.05
823.432	19.24
823.606	19.33
823.781	19.64
823.955	19.66
824.129	19.76
824.303	19.71
824.478	19.75
824.652	19.79
824.826	19.53
825	19.72
825.174	19.22
825.348	18.86
825.523	18.78
825.697	18.54
825.871	18.42
826.045	18.41
826.219	18.61
826.393	18.66
826.567	18.8
826.741	19.02
826.915	19.22
827.089	19.69
827.263	19.65
827.437	19.87
827.611	20.12
827.784	20.17
827.958	20.18
828.132	20.04
828.306	20.23
828.48	20.42
828.654	20.2
828.827	19.98
829.001	19.65
829.175	19.62
829.349	19.74
829.522	19.89
829.696	19.93
829.87	19.6
830.044	20.18
830.217	19.55
830.391	18.75
830.565	19.2
830.738	19.29
830.912	18.76
831.085	19.1
831.259	18.68
831.432	18.39
831.606	18.39
831.779	19.03
831.953	18.79
832.126	19.1
832.3	19.14
832.473	18.95
832.647	18.74
832.82	19
832.994	18.83
833.167	18.69
833.34	18.53
833.514	18.53
833.687	18.39
833.86	18.19
834.034	18.17
834.207	18.24
834.38	17.76
834.553	18.14
834.727	18.35
834.9	18.48
835.073	18.56
835.246	18.26
835.419	18.38
835.593	18.49
835.766	18.9
835.939	18.22
836.112	17.76
836.285	18.44
836.458	18.23
836.631	18.05
836.804	17.8
836.977	17.74
837.15	18.97
837.323	18.02
837.496	16.84
837.669	16.78
837.842	17.5
838.015	18.53
838.188	18.86
838.361	18.87
838.533	19.22
838.706	18.75
838.879	18.91
839.052	18.41
839.225	19.79
839.398	20.61
839.57	19.98
839.743	19.9
839.916	19.14
840.088	19.56
840.261	20.1
840.434	20.16
840.607	20.31
840.779	19.95
840.952	20.06
841.124	20.02
841.297	20.42
841.47	20.83
841.642	21.52
841.815	21.97
841.987	21.37
842.16	20.92
842.332	19.38
842.505	20.51
842.677	21.67
842.85	20.76
843.022	20.28
843.194	20.3
843.367	21.68
843.539	20.88
843.712	20.33
843.884	20.38
844.056	19.53
844.229	19.92
844.401	18.13
844.573	18.99
844.745	20.69
844.918	19.65
845.09	19.12
845.262	16.12
845.434	17.6
845.606	17.12
845.779	16.12
845.951	18.21
846.123	19.78
846.295	20.81
846.467	17.9
846.639	16.35
846.811	17.67
846.983	17.87
847.155	18.29
847.327	17.7
847.499	19.04
847.671	19.88
847.843	17.51
848.015	16.47
848.187	17.25
848.359	16.65
848.531	15.83
848.703	15.77
848.875	18.24
849.047	19.3
849.218	17.77
849.39	17.55
849.562	17.27
849.734	15.88
849.905	17.17
850.077	16.14
850.249	18.51
850.421	18.38
850.592	16.57
850.764	13.41
850.936	12.41
851.107	10.92
851.279	11.05
851.451	11.92
851.622	16.08
851.794	16
851.965	16.05
852.137	15.7
852.308	16.45
852.48	18.52
852.651	18.74
852.823	19.17
852.994	21.49
853.166	21.55
853.337	21.64
853.509	20.01
853.68	21.09
853.851	22.47
854.023	23.34
854.194	23.82
854.365	22.56
854.537	22.5
854.708	21.69
854.879	19.11
855.05	18.47
855.222	18.16
855.393	16.1
855.564	14.02
855.735	10.96
855.906	7.55
856.078	6.24
856.249	8.85
856.42	8.62
856.591	10.77
856.762	15.7
856.933	17.44
857.104	16.02
857.275	19.02
857.446	17.69
857.617	18.73
857.788	20.15
857.959	20.37
858.13	19.17
858.301	20.67
858.472	18.68
858.643	17.2
858.814	16.99
858.985	18.97
859.155	18.84
859.326	23.48
859.497	24.51
859.668	23.87
859.839	23.43
860.009	23.59
860.18	20.84
860.351	24.44
860.522	22.6
860.692	22.88
860.863	22.46
861.034	20.95
861.204	18.26
861.375	19.02
861.546	20.02
861.716	20.08
861.887	17.93
862.057	18.58
862.228	15.8
862.398	16.17
862.569	17.36
862.739	17.44
862.91	17.98
863.08	18.96
863.251	15.68
863.421	13.13
863.592	14.16
863.762	16.44
863.932	16.96
864.103	16.89
864.273	15.2
864.443	13.21
864.614	13.44
864.784	16.09
864.954	16.29
865.125	16.84
865.295	19.9
865.465	21.9
865.635	21.27
865.805	22.17
865.976	21.3
866.146	22.67
866.316	22.9
866.486	21.86
866.656	18.36
866.826	15.52
866.996	15.16
867.166	12.38
867.336	12.22
867.506	11.5
867.676	9.96
867.846	9.06
868.016	7
868.186	4.95
868.356	6.17
868.526	6.25
868.696	9.4
868.866	13.8
869.036	14.77
869.206	13.8
869.376	14.59
869.545	14.69
869.715	17.28
869.885	20.8
870.055	21.89
870.224	21.18
870.394	23.75
870.564	22.98
870.734	18.35
870.903	20.67
871.073	20.47
871.243	20.46
871.412	22.7
871.582	22.6
871.751	22.82
871.921	22.09
872.091	20.55
872.26	16.99
872.43	14.37
872.599	15.09
872.769	14.2
872.938	13.35
873.108	14.11
873.277	11.43
873.446	14.39
873.616	12.67
873.785	16.26
873.955	19.15
874.124	20.82
874.293	23.01
874.463	23.87
874.632	23.07
874.801	24.48
874.971	25.44
875.14	25.58
875.309	21.43
875.478	21.63
875.647	21.32
875.817	20.3
875.986	19.58
876.155	18.65
876.324	18.06
876.493	21.6
876.662	21.54
876.831	19.37
877	19.89
877.17	23.57
877.339	25.1
877.508	23.59
877.677	24.8
877.846	24.22
878.015	24.94
878.184	26.03
878.352	24.81
878.521	25.3
878.69	24.24
878.859	22.88
879.028	20.47
879.197	19.11
879.366	18.82
879.534	18.24
879.703	18.42
879.872	18.51
880.041	19.03
880.21	18.92
880.378	18.58
880.547	19.16
880.716	19.9
880.884	19.71
881.053	19.51
881.222	19.32
881.39	19.29
881.559	19.75
881.727	19.88
881.896	19.66
882.065	19.35
882.233	19.69
882.402	19.99
882.57	19.64
882.739	20
882.907	20.25
883.076	20.77
883.244	20.97
883.412	21.17
883.581	21.14
883.749	21.01
883.918	21.68
884.086	21.82
884.254	21.11
884.423	21.72
884.591	21.68
884.759	21.11
884.927	21.5
885.096	20.57
885.264	20.16
885.432	20.56
885.6	20.31
885.769	19.07
885.937	18.28
886.105	17.77
886.273	17.21
886.441	17.23
886.609	18.45
886.777	15.41
886.945	15.81
887.113	15.05
887.281	13.81
887.449	14.7
887.617	15.42
887.785	14.3
887.953	16.1
888.121	14.9
888.289	12.98
888.457	13.21
888.625	14.69
888.793	14.83
888.961	13.1
889.129	13.28
889.296	12.96
889.464	12.5
889.632	12.95
889.8	11.52
889.967	12.04
890.135	15.37
