Data from JASIL_3084_Reflection_02.txt Node
Date: Mon Nov 09 12:02:44 EST 2015
User: Geneva
Spectrometer: USB4E03002
Autoset integration time: false
Trigger mode: 4
Integration Time (sec): 1.000000E-1
Scans to average: 10
Electric dark correction enabled: false
Nonlinearity correction enabled: false
Boxcar width: 5
Stray light correction enabled: false
XAxis mode: Wavelengths
Stop averaging: false
Number of Pixels in Spectrum: 3648
>>>>>Begin Spectral Data<<<<<
177.575	-131.5
177.794	1526.32
178.014	-661.22
178.233	-186.13
178.452	-263.77
178.672	-100
178.891	-67.57
179.11	-243.75
179.33	-59.22
179.549	-65.96
179.768	-201.56
179.987	-65.25
180.207	-5.34
180.426	-12.1
180.645	2.02
180.864	-11.66
181.084	-94.04
181.303	-90.52
181.522	-51.94
181.741	-3200
181.96	165.79
182.179	240
182.398	59.39
182.618	81.57
182.837	107.14
183.056	162.43
183.275	744.44
183.494	-93.48
183.713	-7950
183.932	-2727.27
184.151	-138.56
184.37	-67.35
184.589	-2.08
184.808	18.07
185.027	60.25
185.246	106.19
185.465	94.9
185.684	178.86
185.903	451.06
186.122	662.26
186.341	533.72
186.56	1034.21
186.779	-432.39
186.998	-528.09
187.216	-816
187.435	130.43
187.654	-5757.14
187.873	-901.96
188.092	-595
188.311	-102.89
188.53	-37.55
188.748	7.39
188.967	56.57
189.186	42.66
189.405	40.19
189.623	68.25
189.842	87.21
190.061	182.49
190.28	249.77
190.498	863.64
190.717	275.94
190.936	119.17
191.154	34.25
191.373	-129.57
191.592	-103.5
191.81	-120.69
192.029	23.59
192.248	-10.78
192.466	2.92
192.685	-7.84
192.904	-3.05
193.122	13.39
193.341	49.4
193.559	69.2
193.778	87.09
193.996	95.84
194.215	79.3
194.433	46.61
194.652	93.27
194.87	116.56
195.089	199.2
195.307	401.03
195.526	800
195.744	1208.57
195.963	365.73
196.181	534.41
196.399	209.74
196.618	178.63
196.836	166.59
197.055	184.18
197.273	221.38
197.491	140.75
197.71	112.46
197.928	112.48
198.146	102.46
198.365	63.51
198.583	69.02
198.801	22.68
199.019	70.29
199.238	207.41
199.456	214.68
199.674	539.58
199.892	-2381.82
200.111	-188.31
200.329	4100
200.547	96.59
200.765	81.18
200.983	73.48
201.202	167.14
201.42	124.72
201.638	98.91
201.856	109.1
202.074	85.96
202.292	106.87
202.51	109.25
202.728	101.94
202.946	113.87
203.165	112.35
203.383	107.95
203.601	77.9
203.819	56.51
204.037	44.77
204.255	21.66
204.473	7.86
204.691	-5.02
204.909	7.45
205.127	28.63
205.345	47.07
205.562	49.13
205.78	70.64
205.998	60.03
206.216	101.55
206.434	65.06
206.652	43.77
206.87	54.14
207.088	61.47
207.306	32.25
207.523	12.28
207.741	-28.17
207.959	-1127.27
208.177	767.19
208.395	-878.13
208.612	-3466.67
208.83	-132.93
209.048	112.62
209.266	4633.33
209.483	-27.27
209.701	-66.93
209.919	-51.16
210.136	-88.53
210.354	862.9
210.572	1366.67
210.79	-451.3
211.007	-562.5
211.225	-161.06
211.442	-36.95
211.66	-6.2
211.878	-7.01
212.095	93.55
212.313	102.56
212.53	672.73
212.748	-124.44
212.966	-134.29
213.183	166.67
213.401	37.06
213.618	118.1
213.836	193.46
214.053	39.85
214.271	-109.62
214.488	75.7
214.705	72.29
214.923	149.48
215.14	156.96
215.358	162.65
215.575	164.91
215.793	93.03
216.01	43.51
216.227	82.93
216.445	95.9
216.662	95.17
216.879	-36.54
217.097	-2.68
217.314	-186.61
217.531	226.14
217.749	893.75
217.966	-2010
218.183	16700
218.4	-62.96
218.618	168.63
218.835	-114.71
219.052	33.5
219.269	38.19
219.487	0.57
219.704	276
219.921	113.64
220.138	-23.68
220.355	208.06
220.572	53.05
220.79	58.9
221.007	88.86
221.224	85.03
221.441	44.48
221.658	20.57
221.875	24.06
222.092	44.78
222.309	47.65
222.526	27.6
222.743	29.2
222.96	21.11
223.177	7.78
223.394	-10.2
223.611	6.21
223.828	29.02
224.045	32.6
224.262	23.48
224.479	2.02
224.696	-2.3
224.913	2.2
225.13	-27.98
225.347	-9.91
225.564	-9.5
225.781	-5.69
225.997	-6.19
226.214	-9.43
226.431	-2.69
226.648	-7.38
226.865	0
227.082	-0.87
227.298	-8.3
227.515	-1.08
227.732	2.85
227.949	11.32
228.165	11.64
228.382	13.38
228.599	14.71
228.816	19.75
229.032	29.15
229.249	22.87
229.466	28.92
229.682	36.68
229.899	35.95
230.116	33.44
230.332	26.8
230.549	25.18
230.765	21.86
230.982	17.21
231.199	2.63
231.415	3.98
231.632	25.81
231.848	37.86
232.065	46.78
232.281	42.87
232.498	29.49
232.714	21.84
232.931	26.18
233.147	26.52
233.364	26.85
233.58	29.06
233.797	21.67
234.013	12.16
234.23	-1.34
234.446	-9.4
234.662	0.27
234.879	-3.84
235.095	4.87
235.312	-1.37
235.528	1.32
235.744	-5.25
235.961	-22.83
236.177	-23.43
236.393	-21.21
236.61	-14.55
236.826	-11.14
237.042	-24.88
237.258	-11.07
237.475	-17.14
237.691	-3.34
237.907	-5.72
238.123	4.51
238.339	10.15
238.556	7.15
238.772	8.92
238.988	7.1
239.204	6.46
239.42	10.95
239.636	13.87
239.853	17.85
240.069	12.28
240.285	15.81
240.501	13.31
240.717	14.33
240.933	15.25
241.149	13.75
241.365	13.56
241.581	11.32
241.797	11.45
242.013	9.69
242.229	6.78
242.445	6.72
242.661	7.69
242.877	5.46
243.093	4.45
243.309	7.04
243.525	5.34
243.741	7.85
243.957	10.68
244.173	5.2
244.388	3.9
244.604	1.46
244.82	3.22
245.036	0.96
245.252	4.19
245.468	2.67
245.683	1.64
245.899	4.15
246.115	4.36
246.331	4.68
246.547	3.76
246.762	3.28
246.978	4.76
247.194	1.55
247.409	0.5
247.625	-0.83
247.841	0.38
248.057	2.35
248.272	-0.17
248.488	-0.76
248.703	-6.17
248.919	2.35
249.135	8.55
249.35	8.21
249.566	14.27
249.782	14.16
249.997	12.08
250.213	11.28
250.428	6.55
250.644	11.57
250.859	12.68
251.075	14.36
251.29	10.49
251.506	6
251.721	7.61
251.937	9.7
252.152	12.94
252.368	11.68
252.583	14.21
252.798	19.78
253.014	17.92
253.229	13.16
253.445	17.69
253.66	10.91
253.875	12.48
254.091	11.92
254.306	19.41
254.521	14.39
254.737	12.38
254.952	10.74
255.167	1.24
255.383	-0.09
255.598	4.57
255.813	7.72
256.028	11.05
256.244	9.75
256.459	9.08
256.674	1.34
256.889	4.73
257.104	5.83
257.32	8.85
257.535	10.7
257.75	7.02
257.965	3.27
258.18	-1.11
258.395	-0.81
258.61	-0.42
258.826	-0.42
259.041	-1.29
259.256	-2.85
259.471	-2.3
259.686	-3.11
259.901	-3.85
260.116	-3.27
260.331	-2.97
260.546	-0.97
260.761	-0.28
260.976	-1.51
261.191	-3.06
261.406	-1.35
261.621	0.53
261.836	1.9
262.05	-3.86
262.265	-5.65
262.48	-0.36
262.695	2.55
262.91	3.02
263.125	8.42
263.34	4.92
263.555	4.46
263.769	4.63
263.984	1.31
264.199	-5.65
264.414	1.12
264.629	0.12
264.843	-1.69
265.058	-4.21
265.273	-6.51
265.488	-8.85
265.702	-6.17
265.917	-3.66
266.132	-4.1
266.346	-1.82
266.561	3.78
266.776	4.62
266.99	4.45
267.205	3.44
267.42	2.56
267.634	4.88
267.849	3.87
268.063	0.02
268.278	-1.84
268.492	-4.77
268.707	-5.25
268.922	-6.63
269.136	-11.46
269.351	-3.58
269.565	-0
269.78	0.86
269.994	0.5
270.209	0.17
270.423	4.4
270.637	3.62
270.852	5.96
271.066	7.02
271.281	4.15
271.495	3.44
271.709	-0.51
271.924	-6.23
272.138	-7.51
272.353	-6.42
272.567	-6.58
272.781	-6.87
272.996	-6.13
273.21	-5.04
273.424	-9.15
273.638	-5.42
273.853	-4.1
274.067	-4.49
274.281	-0.29
274.495	3.41
274.71	3.97
274.924	3.97
275.138	2.11
275.352	-1.69
275.566	-5.31
275.781	-7.19
275.995	-7.47
276.209	-8.07
276.423	-3.02
276.637	-2.1
276.851	-6.45
277.065	-6.68
277.279	-5.16
277.493	-2.69
277.707	-1.15
277.921	0.14
278.135	4.58
278.349	2.13
278.563	3.81
278.777	3.66
278.991	1.84
279.205	5.46
279.419	-0.18
279.633	-3.13
279.847	-2.83
280.061	2.27
280.275	5.07
280.489	5.57
280.703	6.73
280.917	7.47
281.131	4.6
281.344	5.85
281.558	2.57
281.772	1.97
281.986	4.11
282.2	1.48
282.414	-0.63
282.627	-4.7
282.841	-6.93
283.055	-9.07
283.269	-13.14
283.482	-11.51
283.696	-11.06
283.91	-6.85
284.123	-5.31
284.337	-5.69
284.551	-4.54
284.764	-4.01
284.978	-3.51
285.192	-2.26
285.405	1.64
285.619	1.3
285.833	1.57
286.046	2.65
286.26	1.71
286.473	3.12
286.687	2.84
286.9	4.94
287.114	3.32
287.327	3.22
287.541	3.23
287.754	1.28
287.968	2.99
288.181	2.24
288.395	2.63
288.608	1.95
288.822	0.79
289.035	0.47
289.248	-1.65
289.462	-3.23
289.675	-2.28
289.889	-2.42
290.102	-1.6
290.315	1.49
290.529	-0.51
290.742	-3.17
290.955	-4.15
291.169	-1.58
291.382	0.57
291.595	1.48
291.808	1.82
292.022	2.43
292.235	3.19
292.448	2.62
292.661	-0.19
292.875	0.55
293.088	0.99
293.301	0.92
293.514	3.78
293.727	4.36
293.94	5.12
294.153	6.74
294.367	6.14
294.58	5.75
294.793	6.25
295.006	5.65
295.219	5.3
295.432	5.56
295.645	8.88
295.858	5.22
296.071	4.46
296.284	3.61
296.497	3.69
296.71	5.17
296.923	4.28
297.136	3.36
297.349	5.13
297.562	6.3
297.775	4.16
297.988	2.87
298.201	4.66
298.414	2.79
298.626	3.33
298.839	5.41
299.052	3.09
299.265	2.2
299.478	3.35
299.691	3.85
299.903	3.78
300.116	6.3
300.329	4.15
300.542	4.16
300.755	6.62
300.967	4.82
301.18	2.45
301.393	2.8
301.605	4.9
301.818	4.12
302.031	3.48
302.243	4.23
302.456	3.49
302.669	4.1
302.881	4.46
303.094	2.03
303.307	3.94
303.519	3.05
303.732	1.74
303.944	3.61
304.157	1.62
304.37	0.14
304.582	-1.97
304.795	0
305.007	-1.2
305.22	1.61
305.432	4.5
305.645	3.85
305.857	4.98
306.069	6.25
306.282	2.13
306.494	3.44
306.707	3.12
306.919	2.99
307.132	-0.97
307.344	0.96
307.556	-1.88
307.769	-2.93
307.981	-4.64
308.193	-3.54
308.406	-4.17
308.618	-2.47
308.83	-1.95
309.043	0.31
309.255	1.57
309.467	3.68
309.679	4.08
309.892	3.16
310.104	4.77
310.316	5.33
310.528	4.09
310.74	4.51
310.953	4.86
311.165	5.68
311.377	4.09
311.589	4.25
311.801	2.2
312.013	-0.99
312.225	-1.83
312.437	-7.62
312.649	-7.72
312.862	-9.04
313.074	-10.27
313.286	-11.48
313.498	-12.5
313.71	-9.87
313.922	-10.59
314.134	-7.97
314.346	-3.59
314.558	0.9
314.77	7.58
314.982	8.89
315.193	10.67
315.405	9.8
315.617	11.21
315.829	9.57
316.041	9.3
316.253	11.25
316.465	10.43
316.677	9.33
316.888	4
317.1	2.65
317.312	2.52
317.524	-0.63
317.736	-0.23
317.947	-1.86
318.159	0.44
318.371	-1.38
318.583	0.33
318.794	1.84
319.006	1.51
319.218	3.62
319.43	2.55
319.641	0.2
319.853	6.7
320.064	9.36
320.276	9.48
320.488	6.94
320.699	10.35
320.911	6.63
321.123	6.3
321.334	7.49
321.546	8.29
321.757	4.01
321.969	7.32
322.18	4.92
322.392	5.74
322.603	3.72
322.815	5.78
323.026	4.42
323.238	5.27
323.449	5.47
323.661	2.96
323.872	1.95
324.083	4.91
324.295	-0.05
324.506	-0.89
324.718	-2.01
324.929	2.53
325.14	4.39
325.352	4.63
325.563	4.94
325.774	4.31
325.986	5.38
326.197	4.54
326.408	4.39
326.62	10.07
326.831	9.61
327.042	9.63
327.253	7.18
327.464	6.1
327.676	8.53
327.887	8.81
328.098	7.26
328.309	5.93
328.52	8.57
328.732	6.66
328.943	5.15
329.154	6.59
329.365	5.75
329.576	3.93
329.787	1.61
329.998	-2.18
330.209	-0.74
330.42	2.39
330.631	3.84
330.842	3.66
331.053	4.81
331.264	3.61
331.475	4.85
331.686	4.68
331.897	6.81
332.108	7.69
332.319	6.86
332.53	6.83
332.741	7.07
332.952	6.56
333.163	7.67
333.374	10.87
333.585	10.03
333.795	9.52
334.006	8.2
334.217	6.39
334.428	8.21
334.639	9.41
334.849	9.67
335.06	7.66
335.271	9.16
335.482	6.08
335.692	4.27
335.903	4.8
336.114	3.78
336.325	2.94
336.535	6.24
336.746	6.36
336.957	5.93
337.167	4.95
337.378	7.5
337.589	8.8
337.799	12.91
338.01	13.15
338.22	13.22
338.431	11.89
338.642	16.04
338.852	13.71
339.063	12.69
339.273	12.74
339.484	12.78
339.694	13.19
339.905	12.15
340.115	11.26
340.326	11.61
340.536	11.73
340.746	12.93
340.957	10.67
341.167	10.86
341.378	8.66
341.588	9.54
341.799	8.95
342.009	7.78
342.219	5.6
342.43	3.43
342.64	1.34
342.85	1.83
343.061	1.62
343.271	0.54
343.481	3.39
343.691	6.09
343.902	6.99
344.112	5.47
344.322	6.72
344.532	9.5
344.743	10.49
344.953	11.7
345.163	12.4
345.373	11.73
345.583	14.53
345.793	9.74
346.004	10.41
346.214	10.17
346.424	10.59
346.634	9.73
346.844	10.01
347.054	9.04
347.264	6.64
347.474	4.2
347.684	5.14
347.894	2.79
348.104	3.08
348.314	0.57
348.524	-2.66
348.734	-1.49
348.944	-3.78
349.154	-4.75
349.364	-3.27
349.574	-1.87
349.784	0.04
349.994	-0.2
350.204	1.52
350.413	4.21
350.623	3.93
350.833	6.31
351.043	6.44
351.253	7.23
351.463	6.87
351.672	5.17
351.882	6.33
352.092	7.43
352.302	6.32
352.511	6.74
352.721	5.28
352.931	4.56
353.141	5.08
353.35	3.87
353.56	4.6
353.77	4.65
353.979	5.44
354.189	4.67
354.399	3.67
354.608	4.08
354.818	4.39
355.027	7.67
355.237	9.58
355.447	9.6
355.656	9.6
355.866	11.41
356.075	10.05
356.285	10.12
356.494	11.03
356.704	10.55
356.913	10.41
357.123	8.01
357.332	4.73
357.542	3.64
357.751	2.32
357.96	2.37
358.17	-0.4
358.379	0.41
358.589	0.84
358.798	0.8
359.007	0.31
359.217	1.68
359.426	3.2
359.635	5.22
359.845	6.47
360.054	6.51
360.263	6.74
360.472	6.23
360.682	7
360.891	7.07
361.1	5.46
361.309	6.22
361.519	6.15
361.728	7.04
361.937	6.22
362.146	6.15
362.355	6.13
362.564	7.18
362.774	7.03
362.983	6.93
363.192	7.2
363.401	8.77
363.61	10.05
363.819	11.41
364.028	12.2
364.237	12.05
364.446	10.51
364.655	10.58
364.864	9.81
365.073	12.13
365.282	12.06
365.491	12.16
365.7	11.92
365.909	12.07
366.118	11.86
366.327	10.97
366.536	11.18
366.745	11.97
366.954	12.25
367.162	12.73
367.371	10.61
367.58	10.89
367.789	11.53
367.998	10.61
368.207	8.86
368.415	6.72
368.624	4.46
368.833	5.74
369.042	5.12
369.25	6.89
369.459	5.96
369.668	7.68
369.877	7.68
370.085	5.35
370.294	6.36
370.503	7.38
370.711	8.86
370.92	10.21
371.129	9.7
371.337	10.02
371.546	8.24
371.754	9.02
371.963	7.94
372.171	8.26
372.38	8.37
372.589	9.53
372.797	8.55
373.006	7.99
373.214	7.09
373.423	6.4
373.631	5.98
373.84	5.54
374.048	4.7
374.256	4.9
374.465	2.83
374.673	4.67
374.882	2.14
375.09	2.25
375.298	2.14
375.507	1.26
375.715	2.36
375.923	3.66
376.132	4.04
376.34	4.87
376.548	4.2
376.757	5.27
376.965	3.76
377.173	6.15
377.381	6.27
377.59	6.64
377.798	9.41
378.006	6.88
378.214	7.09
378.423	8.41
378.631	6.97
378.839	8.74
379.047	8.83
379.255	8.98
379.463	7.74
379.671	8.71
379.879	8.12
380.088	6.38
380.296	7.9
380.504	8.9
380.712	7.55
380.92	8
381.128	5.26
381.336	4.57
381.544	5.32
381.752	6.5
381.96	6.58
382.168	4.77
382.376	6.11
382.584	5.53
382.791	4.64
382.999	4.53
383.207	4.6
383.415	4.79
383.623	5.94
383.831	5.59
384.039	5.03
384.247	4.96
384.454	5.69
384.662	5.35
384.87	5.85
385.078	5.75
385.285	4.67
385.493	6.04
385.701	8.22
385.909	7.98
386.116	8.36
386.324	7.26
386.532	6.23
386.739	6.64
386.947	6.54
387.155	5.97
387.362	6.37
387.57	7.07
387.778	6.49
387.985	4.42
388.193	4.54
388.4	4.17
388.608	4.08
388.816	4.56
389.023	5.87
389.231	4.67
389.438	6.79
389.646	5.77
389.853	4.85
390.061	5.76
390.268	6.98
390.475	6.7
390.683	6.22
390.89	6.66
391.098	6.29
391.305	5.94
391.512	6.41
391.72	4.6
391.927	4.6
392.135	6.39
392.342	6.47
392.549	5.75
392.756	4.75
392.964	5.93
393.171	5.13
393.378	5.83
393.586	6.92
393.793	6.7
394	6.41
394.207	5.84
394.414	6.26
394.622	5.46
394.829	5.68
395.036	7.36
395.243	6.85
395.45	7.7
395.657	8.1
395.864	5.37
396.072	6.54
396.279	7.34
396.486	8.95
396.693	8.6
396.9	8.88
397.107	9.66
397.314	9.6
397.521	9.24
397.728	9.24
397.935	8.54
398.142	10.04
398.349	9.15
398.556	8.98
398.763	9.08
398.97	9.38
399.177	9.57
399.383	9.31
399.59	9.14
399.797	9.67
400.004	9.93
400.211	10.11
400.418	10.2
400.625	10.3
400.831	11.14
401.038	10.61
401.245	10.83
401.452	10.25
401.658	10.3
401.865	10.19
402.072	10.19
402.279	10.02
402.485	9.36
402.692	8.84
402.899	8.92
403.105	8.5
403.312	8.69
403.519	7.39
403.725	8.47
403.932	8.85
404.138	9.12
404.345	8.74
404.552	9.27
404.758	9.91
404.965	10.98
405.171	11.3
405.378	12.11
405.584	12.1
405.791	13.03
405.997	12.3
406.204	12.55
406.41	11.32
406.617	11.19
406.823	10.44
407.029	10.35
407.236	9.18
407.442	9.33
407.649	9.5
407.855	10.03
408.061	9.33
408.268	8.74
408.474	8
408.68	8.76
408.887	9.75
409.093	9.28
409.299	9.45
409.505	9.62
409.712	9.51
409.918	7.94
410.124	8.58
410.33	8.48
410.537	8.5
410.743	9.07
410.949	9.17
411.155	7.99
411.361	8.39
411.567	8.41
411.773	9.02
411.98	9.71
412.186	10.64
412.392	8.47
412.598	9.7
412.804	9.45
413.01	8.93
413.216	8.01
413.422	7.93
413.628	7.95
413.834	7.28
414.04	7.42
414.246	6.92
414.452	7.65
414.658	8.45
414.864	8.57
415.07	8.91
415.275	9.92
415.481	10.98
415.687	11.87
415.893	12.82
416.099	12.96
416.305	12.38
416.511	12.26
416.716	11.73
416.922	11.88
417.128	11.94
417.334	12.03
417.539	11.68
417.745	11.57
417.951	11.57
418.157	11.34
418.362	11.3
418.568	11.32
418.774	10.98
418.979	11.12
419.185	10.29
419.391	9.65
419.596	9.95
419.802	9.29
420.008	9.28
420.213	4.33
420.419	4.2
420.624	4.13
420.83	4.24
421.035	4.66
421.241	4.35
421.446	4.84
421.652	5.2
421.857	4.93
422.063	5.57
422.268	5.8
422.474	10.55
422.679	10.97
422.885	10.31
423.09	9.74
423.295	9.6
423.501	9.96
423.706	10.04
423.911	9.9
424.117	10.19
424.322	10.04
424.527	9.96
424.733	10.23
424.938	9.67
425.143	10.87
425.349	11.66
425.554	11.44
425.759	11.53
425.964	11.85
426.169	12.08
426.375	11.57
426.58	11.77
426.785	12.12
426.99	11.2
427.195	11.54
427.4	11.41
427.605	11.2
427.811	11.83
428.016	11.54
428.221	11.63
428.426	11.53
428.631	12.75
428.836	13.27
429.041	12.71
429.246	13.37
429.451	13.81
429.656	14.03
429.861	14.92
430.066	14.99
430.271	14.86
430.476	14.61
430.681	13.91
430.886	13.06
431.09	11.66
431.295	11.93
431.5	12.83
431.705	12.95
431.91	12.95
432.115	12.21
432.32	11.87
432.524	11.77
432.729	12.11
432.934	12.27
433.139	12.39
433.343	12.98
433.548	13.08
433.753	12.43
433.958	11.92
434.162	11.53
434.367	11.34
434.572	11.29
434.776	11.05
434.981	10.81
435.186	11.09
435.39	11.1
435.595	11.45
435.799	11.28
436.004	10.55
436.209	10.17
436.413	10.66
436.618	10.45
436.822	10.75
437.027	11.11
437.231	11.11
437.436	11.6
437.64	11.05
437.845	11.23
438.049	11.11
438.253	12.11
438.458	12.29
438.662	12.45
438.867	12.73
439.071	12.47
439.275	12.31
439.48	12.58
439.684	12.66
439.888	13.28
440.093	12.9
440.297	13.44
440.501	13.5
440.706	13.44
440.91	13.38
441.114	13.51
441.318	14.42
441.523	14.49
441.727	14.11
441.931	13.4
442.135	13.28
442.339	13.42
442.543	12.96
442.748	12.55
442.952	12.71
443.156	12.49
443.36	12.72
443.564	12.24
443.768	12.5
443.972	12.77
444.176	12.94
444.38	12.98
444.584	12.94
444.788	12.69
444.992	12.9
445.196	12.83
445.4	12.7
445.604	12.68
445.808	12.68
446.012	12.72
446.216	12.66
446.42	12.75
446.624	12.51
446.828	13
447.032	13.19
447.235	12.97
447.439	13.26
447.643	13.58
447.847	13.69
448.051	13.45
448.254	13.96
448.458	14.41
448.662	14.7
448.866	15.04
449.069	14.96
449.273	15.52
449.477	15.5
449.681	15.24
449.884	15.23
450.088	14.83
450.292	15.2
450.495	14.66
450.699	13.83
450.902	13.19
451.106	12.34
451.31	12.16
451.513	12.33
451.717	11.77
451.92	11.54
452.124	11.3
452.327	10.83
452.531	10.58
452.734	10.09
452.938	10.28
453.141	10.77
453.345	12.18
453.548	11.97
453.752	11.61
453.955	12.47
454.158	13.1
454.362	12.82
454.565	13.2
454.769	13.16
454.972	13.05
455.175	13.24
455.379	13.65
455.582	13.24
455.785	13.23
455.988	12.33
456.192	11.37
456.395	11.35
456.598	11.81
456.801	12.06
457.005	12.55
457.208	13.1
457.411	13.08
457.614	12.45
457.817	11.83
458.021	11.82
458.224	12.66
458.427	13.1
458.63	13.23
458.833	13.41
459.036	13.53
459.239	13.51
459.442	13.69
459.645	13.61
459.848	13.58
460.051	14.01
460.254	14.43
460.457	14.09
460.66	13.97
460.863	13.7
461.066	13.26
461.269	13.39
461.472	13.09
461.675	12.6
461.878	13.09
462.081	13.33
462.284	12.94
462.486	12.3
462.689	11.82
462.892	12.34
463.095	12.65
463.298	12.85
463.5	12.87
463.703	12.61
463.906	13.15
464.109	12.51
464.311	12.77
464.514	13.25
464.717	13.56
464.92	14.06
465.122	13.77
465.325	13.98
465.528	14.55
465.73	13.84
465.933	14.29
466.135	14.06
466.338	14.49
466.541	14.65
466.743	14.72
466.946	14.17
467.148	14
467.351	14.06
467.553	14.33
467.756	13.39
467.958	13.83
468.161	13.67
468.363	13.86
468.566	13.77
468.768	13.6
468.971	13.49
469.173	13.95
469.375	14.04
469.578	14.45
469.78	13.86
469.983	14.32
470.185	14.96
470.387	14.97
470.59	14.69
470.792	13.81
470.994	14.23
471.196	14.35
471.399	14.22
471.601	14.11
471.803	14.01
472.005	13.38
472.208	13.27
472.41	12.31
472.612	11.77
472.814	12.15
473.016	12.45
473.218	12.06
473.421	12.01
473.623	12.27
473.825	12
474.027	12.03
474.229	12.09
474.431	11.82
474.633	12.54
474.835	12.89
475.037	12.1
475.239	12.39
475.441	12.56
475.643	12.75
475.845	13.01
476.047	13.64
476.249	13.15
476.451	13.62
476.653	14.07
476.855	13.9
477.057	14.35
477.258	14.88
477.46	15.25
477.662	15.29
477.864	15.88
478.066	15.53
478.268	15.17
478.469	15.69
478.671	15.44
478.873	14.9
479.075	14.7
479.276	14.43
479.478	14.08
479.68	13.78
479.882	13.5
480.083	12.93
480.285	13.08
480.487	13.12
480.688	12.73
480.89	12.87
481.091	13.24
481.293	13.48
481.495	13.74
481.696	13.9
481.898	13.71
482.099	13.64
482.301	13.46
482.502	13.52
482.704	13.56
482.905	13.64
483.107	13.73
483.308	13.71
483.51	13.6
483.711	13.4
483.913	13.29
484.114	13.37
484.315	13.6
484.517	13.66
484.718	13.53
484.92	13.52
485.121	13.47
485.322	13.34
485.524	13.17
485.725	13.04
485.926	13.21
486.127	13.2
486.329	13.15
486.53	12.81
486.731	12.82
486.932	13.07
487.134	13.12
487.335	13.01
487.536	13.08
487.737	13.16
487.938	13.25
488.139	13.21
488.341	13.36
488.542	13.51
488.743	13.74
488.944	13.89
489.145	13.71
489.346	13.63
489.547	13.74
489.748	13.56
489.949	13.74
490.15	13.84
490.351	13.81
490.552	13.87
490.753	13.82
490.954	13.59
491.155	13.36
491.356	13.21
491.557	13.24
491.758	13.54
491.959	13.68
492.159	13.72
492.36	13.65
492.561	13.65
492.762	13.63
492.963	13.38
493.164	13.96
493.364	14.52
493.565	14.89
493.766	14.89
493.967	14.94
494.167	14.62
494.368	14.54
494.569	14.83
494.769	15.09
494.97	14.93
495.171	15.5
495.371	15.42
495.572	15.33
495.773	15.17
495.973	15.26
496.174	14.98
496.375	15.27
496.575	15.52
496.776	15.55
496.976	15.37
497.177	15.6
497.377	15.19
497.578	15.51
497.778	15.32
497.979	15.13
498.179	15.26
498.38	15.08
498.58	15.12
498.78	15.24
498.981	15.22
499.181	15.55
499.382	15.83
499.582	16.33
499.782	15.87
499.983	16.4
500.183	16.83
500.383	16.14
500.584	16.51
500.784	16.62
500.984	16.59
501.184	16.56
501.385	16.53
501.585	16.45
501.785	16.44
501.985	17.02
502.185	16.64
502.386	16.93
502.586	17.39
502.786	17.45
502.986	17.48
503.186	17.2
503.386	17.33
503.586	17.11
503.786	16.7
503.987	16.7
504.187	16.38
504.387	16.43
504.587	16.16
504.787	16.57
504.987	16.6
505.187	16.52
505.387	16.45
505.587	16.28
505.786	16.45
505.986	16.97
506.186	16.58
506.386	17.2
506.586	17.42
506.786	17.75
506.986	17.4
507.186	17.05
507.386	17.32
507.585	17.78
507.785	17.84
507.985	18.04
508.185	17.91
508.384	18.64
508.584	18.28
508.784	18.28
508.984	18.32
509.183	18.5
509.383	18.61
509.583	19.05
509.782	19.29
509.982	19.78
510.182	19.76
510.381	19.8
510.581	19.43
510.781	19.42
510.98	19.43
511.18	19.06
511.379	19.25
511.579	19.16
511.778	19.21
511.978	18.7
512.177	18.6
512.377	18.62
512.576	18.82
512.776	18.91
512.975	19.06
513.175	19.53
513.374	19.84
513.573	19.73
513.773	20.75
513.972	20.37
514.172	20.84
514.371	20.84
514.57	21.13
514.77	20.84
514.969	21.03
515.168	21.11
515.367	20.94
515.567	21.19
515.766	21.32
515.965	21.24
516.164	21.43
516.364	20.9
516.563	20.75
516.762	20.36
516.961	20.59
517.16	20.75
517.359	20.51
517.559	20.46
517.758	20.67
517.957	21.13
518.156	20.87
518.355	20.68
518.554	21.26
518.753	21.28
518.952	21.23
519.151	21.55
519.35	21.38
519.549	21.62
519.748	22.01
519.947	21.71
520.146	21.55
520.345	21.62
520.544	22.18
520.743	22.75
520.942	22.94
521.141	23.54
521.339	23.53
521.538	23.89
521.737	24.15
521.936	24.23
522.135	24.73
522.333	24.88
522.532	25.32
522.731	25.12
522.93	24.42
523.129	24.87
523.327	24.86
523.526	24.84
523.725	25.08
523.923	25.16
524.122	25.29
524.321	25.14
524.519	25.11
524.718	24.91
524.917	24.8
525.115	24.91
525.314	24.87
525.512	25.07
525.711	25.36
525.909	25.17
526.108	25.17
526.306	24.85
526.505	24.88
526.703	24.96
526.902	25.07
527.1	25.2
527.299	25.45
527.497	25.59
527.696	25.47
527.894	25.4
528.092	25.49
528.291	25.66
528.489	26.02
528.688	26.16
528.886	26.48
529.084	26.89
529.283	27.03
529.481	27.33
529.679	27.43
529.877	28.03
530.076	28.56
530.274	28.77
530.472	29.13
530.67	29.34
530.869	29.42
531.067	29.21
531.265	28.83
531.463	29.28
531.661	29.11
531.859	29.19
532.057	29.27
532.255	29.31
532.454	29.26
532.652	29.4
532.85	29.15
533.048	29.24
533.246	29.65
533.444	30.04
533.642	30.14
533.84	30.32
534.038	30.15
534.236	30.15
534.434	30.05
534.632	30.47
534.83	30.39
535.027	30.64
535.225	30.88
535.423	31.05
535.621	31.08
535.819	30.92
536.017	31.02
536.215	31.3
536.412	31.26
536.61	31.7
536.808	31.76
537.006	31.88
537.203	32.24
537.401	32.51
537.599	32.3
537.797	32.15
537.994	32.67
538.192	32.39
538.39	33.01
538.587	32.81
538.785	32.77
538.983	32.75
539.18	32.5
539.378	32.83
539.575	33.07
539.773	33.16
539.97	33.44
540.168	33.14
540.366	33.15
540.563	33
540.761	33.37
540.958	33.48
541.155	33.89
541.353	34.34
541.55	34.18
541.748	33.88
541.945	33.96
542.143	34.08
542.34	34.21
542.537	34.84
542.735	35.32
542.932	35.45
543.129	35.48
543.327	35.76
543.524	36.1
543.721	36.31
543.919	37.13
544.116	37.41
544.313	37.72
544.51	38.07
544.708	38.15
544.905	38.02
545.102	38.47
545.299	38.48
545.496	38.14
545.693	38.32
545.891	38.41
546.088	38.39
546.285	38.54
546.482	39.11
546.679	39.7
546.876	39.75
547.073	39.97
547.27	39.9
547.467	40.37
547.664	40.63
547.861	40.6
548.058	41.45
548.255	42.03
548.452	42.23
548.649	42.36
548.846	42.28
549.043	42.66
549.24	42.79
549.437	43.46
549.633	43.61
549.83	43.98
550.027	44.18
550.224	44.43
550.421	43.99
550.618	43.53
550.814	43.42
551.011	43.4
551.208	42.95
551.405	43.05
551.601	42.93
551.798	42.83
551.995	42.79
552.191	43.04
552.388	42.79
552.585	43.09
552.781	43.65
552.978	43.31
553.175	43.66
553.371	44.56
553.568	44.47
553.764	44.37
553.961	44.89
554.157	44.76
554.354	45.03
554.55	44.71
554.747	44.56
554.943	44.99
555.14	45.82
555.336	45.88
555.533	46.2
555.729	46.97
555.926	46.68
556.122	46.74
556.318	47.11
556.515	46.67
556.711	46.99
556.907	47.08
557.104	46.97
557.3	46.92
557.496	47.69
557.693	47.31
557.889	47.09
558.085	47.72
558.281	47.86
558.478	47.79
558.674	48.18
558.87	48.67
559.066	49.41
559.262	49.7
559.459	49.82
559.655	49.4
559.851	49.24
560.047	49.99
560.243	50.09
560.439	50.54
560.635	50.48
560.831	50.16
561.027	50.06
561.223	49.57
561.419	49.75
561.615	49.59
561.811	49.96
562.007	50.2
562.203	49.56
562.399	48.95
562.595	48.8
562.791	48.83
562.987	49.12
563.183	49.31
563.379	49.69
563.575	49.38
563.771	49.98
563.966	49.41
564.162	49.06
564.358	49.29
564.554	49.93
564.75	49.55
564.945	50.31
565.141	50.08
565.337	50.14
565.533	49.69
565.728	49.65
565.924	48.99
566.12	49.37
566.315	50.16
566.511	50.21
566.707	50.15
566.902	49.95
567.098	49.14
567.293	49.24
567.489	48.68
567.684	49.1
567.88	49.62
568.076	49.4
568.271	49.88
568.467	49.62
568.662	49.46
568.858	49.53
569.053	49.77
569.248	49.64
569.444	49.88
569.639	50.16
569.835	49.86
570.03	49.57
570.225	50.27
570.421	49.79
570.616	49.58
570.812	49.6
571.007	50.45
571.202	50.9
571.397	51.43
571.593	51.43
571.788	51.64
571.983	51.75
572.178	52.13
572.374	52.11
572.569	52
572.764	52.19
572.959	51.96
573.154	51.06
573.35	51.02
573.545	50.98
573.74	51.09
573.935	51.08
574.13	51.77
574.325	51.37
574.52	51.18
574.715	51.18
574.91	51.99
575.105	52.02
575.3	52.46
575.495	52.15
575.69	51.94
575.885	51.5
576.08	51.62
576.275	51.13
576.47	51.11
576.665	50.99
576.86	51.36
577.055	50.98
577.25	51.78
577.444	52.19
577.639	53.05
577.834	53.29
578.029	53.95
578.224	54.46
578.418	54.65
578.613	55.44
578.808	56.39
579.003	55.87
579.197	55.92
579.392	55.72
579.587	55.29
579.781	55.75
579.976	56.38
580.171	57.02
580.365	56.67
580.56	56.84
580.755	56.66
580.949	56.61
581.144	57.71
581.338	57.69
581.533	58.09
581.727	58.02
581.922	57.37
582.116	58.18
582.311	57.52
582.505	58.39
582.7	58.1
582.894	58.05
583.089	58.04
583.283	57.85
583.478	58.02
583.672	58.32
583.866	58.56
584.061	59.18
584.255	59.66
584.449	60.28
584.644	59.71
584.838	60.75
585.032	61.19
585.226	60.59
585.421	60.81
585.615	60.66
585.809	59.52
586.003	59.08
586.198	58.55
586.392	57.54
586.586	57.27
586.78	56.86
586.974	56.42
587.168	56.38
587.363	56.86
587.557	56.7
587.751	56.32
587.945	57.13
588.139	56.96
588.333	56.83
588.527	56.96
588.721	57.28
588.915	57.59
589.109	56.98
589.303	56.52
589.497	56.71
589.691	56.28
589.885	56.64
590.079	56.31
590.273	56.2
590.466	55.93
590.66	55.51
590.854	55.35
591.048	54.95
591.242	55.35
591.436	55.34
591.629	54.8
591.823	55.04
592.017	54.92
592.211	55.05
592.404	55.47
592.598	55.89
592.792	55.96
592.986	55.56
593.179	55.91
593.373	55.65
593.567	55.59
593.76	55.71
593.954	55.75
594.147	55.72
594.341	55.78
594.535	55.72
594.728	55.43
594.922	55.44
595.115	55.63
595.309	56
595.502	56.49
595.696	56.6
595.889	56.81
596.083	57.07
596.276	57.19
596.47	57.17
596.663	57.41
596.856	57.33
597.05	57.2
597.243	57.12
597.437	56.81
597.63	56.14
597.823	55.88
598.017	56.86
598.21	56.36
598.403	56.17
598.596	56.39
598.79	56.38
598.983	57.11
599.176	56.79
599.369	57.08
599.563	57.46
599.756	58.29
599.949	58.97
600.142	58.13
600.335	59.13
600.528	60.05
600.722	59.99
600.915	59.75
601.108	59.34
601.301	60.74
601.494	61.32
601.687	60.94
601.88	60.06
602.073	59.75
602.266	59.5
602.459	59.13
602.652	57.93
602.845	57.69
603.038	57.68
603.231	57.69
603.424	57.01
603.617	56.56
603.809	56.46
604.002	56.75
604.195	56.72
604.388	56.36
604.581	55.48
604.774	56.26
604.966	56.53
605.159	56.92
605.352	57.83
605.545	58.43
605.737	58.46
605.93	58.97
606.123	59.03
606.316	60.08
606.508	60.89
606.701	62.18
606.894	61.68
607.086	61.69
607.279	61.39
607.471	61.43
607.664	61.41
607.857	61.27
608.049	61.26
608.242	61.71
608.434	61.43
608.627	61.1
608.819	61.06
609.012	61.87
609.204	62.1
609.397	62.75
609.589	62.02
609.782	62.55
609.974	63.16
610.166	63.15
610.359	62.97
610.551	63.47
610.743	63.74
610.936	63.85
611.128	63.68
611.32	63.84
611.513	64.07
611.705	65.11
611.897	64.75
612.09	65.05
612.282	65.91
612.474	65.68
612.666	65.95
612.858	66.02
613.051	66.57
613.243	67.11
613.435	67.76
613.627	67.62
613.819	68.3
614.011	67.97
614.203	68.49
614.395	67.95
614.588	68.81
614.78	67.81
614.972	67.43
615.164	68.15
615.356	68.1
615.548	67.09
615.74	66.53
615.932	66.08
616.124	66.32
616.315	65.68
616.507	65.91
616.699	65.83
616.891	66.82
617.083	67.8
617.275	66.34
617.467	66.13
617.659	66.87
617.85	66.68
618.042	65.76
618.234	66.44
618.426	65.91
618.618	66.06
618.809	66.32
619.001	65.41
619.193	66.37
619.384	66.2
619.576	66.49
619.768	67.05
619.959	67.76
620.151	68.52
620.343	67.66
620.534	69.3
620.726	68.39
620.917	69.41
621.109	69.77
621.301	69.17
621.492	70.11
621.684	70.42
621.875	70.44
622.067	70.67
622.258	70.41
622.45	71.08
622.641	69.19
622.832	70.24
623.024	69.43
623.215	70.55
623.407	70.02
623.598	69.67
623.789	68.83
623.981	68.06
624.172	67.01
624.363	66.57
624.555	65.28
624.746	65.99
624.937	64.9
625.129	65.26
625.32	64.31
625.511	64.28
625.702	64.64
625.893	64.59
626.085	64.89
626.276	66.06
626.467	66.31
626.658	66.77
626.849	66.84
627.04	67.1
627.231	66.9
627.422	67.21
627.614	67.72
627.805	67.28
627.996	67.58
628.187	67.61
628.378	66.88
628.569	67.09
628.76	67.66
628.951	67.49
629.142	67.98
629.332	68.11
629.523	67.99
629.714	66.85
629.905	67.19
630.096	67.26
630.287	66.65
630.478	67.14
630.669	66.85
630.859	66.79
631.05	66.89
631.241	66.23
631.432	66.3
631.623	65.99
631.813	66.89
632.004	67.38
632.195	67.47
632.385	68.14
632.576	67.01
632.767	66.4
632.957	66.48
633.148	67.18
633.339	67.35
633.529	66.18
633.72	66.58
633.91	66.43
634.101	65.84
634.292	66.07
634.482	66.03
634.673	67.46
634.863	67.22
635.054	67.09
635.244	66.85
635.435	66.82
635.625	68.13
635.815	68.63
636.006	69.26
636.196	68.75
636.387	68.67
636.577	69.35
636.767	68.66
636.958	69.34
637.148	68.87
637.338	68.78
637.529	70.4
637.719	70.89
637.909	71.12
638.099	70.53
638.29	72.02
638.48	72.02
638.67	72.1
638.86	73.18
639.05	75.33
639.241	76.64
639.431	76.11
639.621	76.11
639.811	76.42
640.001	75.88
640.191	75.28
640.381	75.31
640.571	75.95
640.761	75.46
640.951	75.68
641.141	74.65
641.331	74.18
641.521	75.55
641.711	75.46
641.901	74.45
642.091	74.3
642.281	74.99
642.471	74.83
642.661	74.61
642.851	74.71
643.041	74.14
643.231	72.65
643.42	73.1
643.61	71.75
643.8	70.76
643.99	70.65
644.18	70.3
644.369	70.82
644.559	70.52
644.749	70.17
644.939	69.97
645.128	68.08
645.318	69.43
645.508	68.94
645.697	70.2
645.887	69.33
646.076	68.71
646.266	69.72
646.456	69.06
646.645	68.86
646.835	69.4
647.024	70.09
647.214	70.53
647.403	70.5
647.593	70.86
647.782	70.52
647.972	71.32
648.161	73.55
648.351	72.37
648.54	72.57
648.73	72.35
648.919	71.77
649.108	71.79
649.298	73.52
649.487	73.64
649.677	73.61
649.866	73.4
650.055	74.04
650.244	72.33
650.434	73.27
650.623	73.37
650.812	73.63
651.002	74.08
651.191	73.73
651.38	74.37
651.569	74.35
651.758	74.28
651.947	75.04
652.137	74.66
652.326	75.33
652.515	76.24
652.704	75.65
652.893	74.6
653.082	75.07
653.271	75.27
653.46	73.32
653.649	73.4
653.838	72.92
654.027	72.09
654.216	72.79
654.405	71.96
654.594	69.55
654.783	69.94
654.972	70.22
655.161	70.3
655.35	69.78
655.539	69.9
655.728	69.09
655.916	69.07
656.105	68.88
656.294	67.27
656.483	67.99
656.672	68.69
656.86	69.12
657.049	69.69
657.238	68.71
657.427	68.87
657.615	68.85
657.804	68.62
657.993	68.8
658.181	68.96
658.37	70.62
658.559	69.91
658.747	70.22
658.936	70.49
659.125	70.92
659.313	71.06
659.502	71.77
659.69	72.41
659.879	73.67
660.067	74.49
660.256	74.99
660.444	74.89
660.633	75.52
660.821	77.06
661.01	78.16
661.198	79.06
661.387	78.82
661.575	78.77
661.763	79.64
661.952	79.48
662.14	80.46
662.328	81.13
662.517	81.82
662.705	82.33
662.893	81.22
663.082	80.09
663.27	79.06
663.458	79.98
663.646	80.37
663.834	82.27
664.023	81.72
664.211	79.75
664.399	79.86
664.587	79.56
664.775	80.59
664.963	81.24
665.152	82.39
665.34	82.84
665.528	84.58
665.716	84.23
665.904	81.91
666.092	81.93
666.28	82.65
666.468	83.01
666.656	82.05
666.844	81.37
667.032	80.05
667.22	79.46
667.408	80.39
667.596	78.68
667.784	79.49
667.971	79.41
668.159	79.43
668.347	80.09
668.535	78.76
668.723	78.23
668.911	78.17
669.098	78.7
669.286	78.34
669.474	76.46
669.662	77.85
669.849	76.25
670.037	75.92
670.225	76.56
670.413	75.75
670.6	76.01
670.788	78.2
670.976	78.41
671.163	79.51
671.351	80.42
671.538	80.52
671.726	80.32
671.913	80.64
672.101	81.37
672.289	80.89
672.476	81.29
672.664	83.46
672.851	83.91
673.039	84.44
673.226	84.11
673.413	82.16
673.601	83.07
673.788	83.01
673.976	83.27
674.163	82.75
674.35	82.49
674.538	81.72
674.725	80.5
674.912	78.36
675.1	78.34
675.287	79.22
675.474	79.68
675.662	79.47
675.849	78.46
676.036	78.4
676.223	79.09
676.411	79.77
676.598	80.76
676.785	79.39
676.972	79.43
677.159	79.65
677.346	78.19
677.533	78.75
677.721	79.54
677.908	78.32
678.095	77.54
678.282	78.19
678.469	77.78
678.656	78.64
678.843	79.67
679.03	79.17
679.217	77.77
679.404	76.6
679.591	76.21
679.778	75.28
679.964	76.26
680.151	77.17
680.338	76.13
680.525	76.87
680.712	75.16
680.899	74.37
681.086	75.01
681.272	75.29
681.459	77.33
681.646	76.45
681.833	76.94
682.02	77.05
682.206	76.32
682.393	76.23
682.58	75.61
682.766	76.19
682.953	76.86
683.14	76.99
683.326	77.71
683.513	78.19
683.7	79.28
683.886	79.81
684.073	79.4
684.259	79.63
684.446	79.56
684.632	79.92
684.819	79.94
685.005	79.46
685.192	79.42
685.378	79.51
685.565	77.36
685.751	77.22
685.938	76.1
686.124	75.83
686.31	76.23
686.497	76.83
686.683	76.86
686.87	77
687.056	77.01
687.242	76.43
687.429	76.12
687.615	77
687.801	77.95
687.987	79.81
688.174	79.67
688.36	80.41
688.546	80.92
688.732	79.99
688.918	78.71
689.105	77.89
689.291	77.67
689.477	76.98
689.663	75.52
689.849	73.91
690.035	70.41
690.221	71.74
690.407	72.04
690.593	71.73
690.779	71.94
690.965	73.22
691.151	74.55
691.337	75.63
691.523	75.99
691.709	76.53
691.895	77.37
692.081	79.92
692.267	79.21
692.453	76.57
692.639	76.37
692.825	77.34
693.011	77.2
693.196	77.21
693.382	77.44
693.568	76.89
693.754	79.05
693.94	78.65
694.125	80.6
694.311	80.82
694.497	82.52
694.682	81.6
694.868	82.13
695.054	81.01
695.239	80.64
695.425	79.06
695.611	79.25
695.796	77.69
695.982	76.22
696.168	74.07
696.353	71.63
696.539	69.78
696.724	69.69
696.91	66.89
697.095	66.19
697.281	65.14
697.466	65.51
697.652	65.62
697.837	65.68
698.023	66.58
698.208	66.65
698.393	68.47
698.579	69.72
698.764	69.36
698.949	71.47
699.135	71.38
699.32	73.08
699.505	73.68
699.691	74.34
699.876	74.9
700.061	75.01
700.246	76.64
700.432	77.27
700.617	77.72
700.802	77.94
700.987	78.83
701.172	82.6
701.358	83.81
701.543	84
701.728	83.02
701.913	84.29
702.098	84.93
702.283	84.75
702.468	87.45
702.653	87.26
702.838	89.33
703.023	90.97
703.208	90.03
703.393	89.8
703.578	89.29
703.763	91.21
703.948	89.96
704.133	90.66
704.318	90.34
704.503	86.86
704.688	88.75
704.873	89.01
705.057	85.92
705.242	88.33
705.427	87.14
705.612	87.4
705.797	86.35
705.981	85.99
706.166	87.35
706.351	88.59
706.536	89.41
706.72	88.18
706.905	86.58
707.09	90.7
707.274	87.82
707.459	88.73
707.644	89.18
707.828	90.21
708.013	91.04
708.197	87.17
708.382	85.94
708.567	86.82
708.751	87.43
708.936	88.57
709.12	85.36
709.305	86.3
709.489	85.83
709.673	85.67
709.858	85.61
710.042	85.29
710.227	87.97
710.411	90.28
710.596	89.86
710.78	89.3
710.964	89.64
711.149	89.83
711.333	89.89
711.517	90.61
711.702	92.65
711.886	90.12
712.07	90.23
712.254	88.09
712.438	86.88
712.623	85.97
712.807	84.01
712.991	83.67
713.175	82.68
713.359	80.68
713.544	80.45
713.728	79.07
713.912	81.01
714.096	81.2
714.28	82.23
714.464	78.52
714.648	78.52
714.832	79.99
715.016	79.87
715.2	80.23
715.384	80.85
715.568	79.68
715.752	77.76
715.936	76.38
716.12	75.64
716.304	73.75
716.488	77.22
716.671	75.79
716.855	74.18
717.039	72.43
717.223	73.87
717.407	73.85
717.59	73.27
717.774	73.08
717.958	75.03
718.142	74.66
718.325	74.93
718.509	73.98
718.693	75.07
718.877	77.79
719.06	79.48
719.244	78.37
719.428	79.88
719.611	81.87
719.795	84.52
719.978	83.2
720.162	84.92
720.345	88.71
720.529	87.32
720.713	87.39
720.896	87.62
721.08	88.62
721.263	88.78
721.446	87.58
721.63	86.61
721.813	83.96
721.997	83.91
722.18	82.4
722.364	81.93
722.547	84.52
722.73	83.85
722.914	80.32
723.097	77.27
723.28	76.35
723.464	76.24
723.647	75.8
723.83	77.13
724.013	76.84
724.197	78.23
724.38	76.95
724.563	77.59
724.746	77.93
724.929	77.63
725.112	78.4
725.296	79.16
725.479	79.16
725.662	78.8
725.845	76.51
726.028	78.17
726.211	76.59
726.394	75.58
726.577	71.67
726.76	70.27
726.943	72.92
727.126	73.7
727.309	74.83
727.492	74.37
727.675	75.11
727.858	76.62
728.041	75.77
728.224	77.42
728.407	79.42
728.589	81.38
728.772	83.44
728.955	82.3
729.138	82.01
729.321	80.77
729.503	80.67
729.686	80.48
729.869	81.49
730.052	83.35
730.234	81.95
730.417	80.65
730.6	80.79
730.782	81.06
730.965	83.21
731.148	83.86
731.33	83.99
731.513	84.7
731.695	86.42
731.878	87.59
732.061	86.62
732.243	90.43
732.426	91.55
732.608	94.36
732.791	95.43
732.973	94.93
733.156	95.16
733.338	94.89
733.52	93.42
733.703	94.31
733.885	92.16
734.068	92.9
734.25	90.05
734.432	92.27
734.615	91.94
734.797	92.82
734.979	93.49
735.162	96.23
735.344	98.4
735.526	105.28
735.708	103.76
735.891	104.4
736.073	101.54
736.255	100.4
736.437	98.86
736.619	97.91
736.802	96.43
736.984	94.95
737.166	93.49
737.348	92.85
737.53	89.45
737.712	91.12
737.894	91.67
738.076	94.78
738.258	97.09
738.44	96.87
738.622	98.17
738.804	103.14
738.986	106.85
739.168	107.51
739.35	105.39
739.532	106.02
739.714	103.84
739.896	105.04
740.078	103.24
740.259	103.48
740.441	102.63
740.623	103.22
740.805	101.61
740.987	100.15
741.168	99.06
741.35	102.61
741.532	103.09
741.714	105.39
741.895	107.46
742.077	107.34
742.259	107.16
742.44	109.53
742.622	110.02
742.804	107.09
742.985	109.04
743.167	109.28
743.348	107.94
743.53	107.31
743.711	101.54
743.893	98.22
744.075	96.44
744.256	95.29
744.438	98.84
744.619	97.53
744.8	102.68
744.982	100.97
745.163	105.69
745.345	104.31
745.526	106.51
745.707	110.88
745.889	115.02
746.07	116.58
746.252	115.55
746.433	113.35
746.614	110.12
746.795	104.03
746.977	104.46
747.158	99.61
747.339	101.17
747.52	102.16
747.702	101.73
747.883	101.23
748.064	103.09
748.245	106.87
748.426	105.85
748.607	106.42
748.788	110.2
748.97	116.72
749.151	117.8
749.332	119.15
749.513	124.02
749.694	121.65
749.875	123.41
750.056	121.93
750.237	124.68
750.418	124.22
750.599	125.62
750.78	124.05
750.96	118.61
751.141	121.96
751.322	121.57
751.503	115.23
751.684	119.58
751.865	120.56
752.046	121.73
752.226	123.13
752.407	123.94
752.588	120.36
752.769	116.39
752.949	118.57
753.13	117.64
753.311	122.32
753.492	123.37
753.672	115.52
753.853	112.97
754.034	114.24
754.214	108.49
754.395	108.23
754.575	107.98
754.756	107.26
754.937	105.27
755.117	105.15
755.298	107.13
755.478	104.65
755.659	113.48
755.839	109.93
756.02	106.54
756.2	109.21
756.381	107.48
756.561	108.71
756.741	112.44
756.922	103.77
757.102	102.33
757.283	96.89
757.463	97.1
757.643	94.01
757.823	92.77
758.004	90.18
758.184	83.49
758.364	79.76
758.545	78.33
758.725	74.06
758.905	73.92
759.085	69.5
759.265	66.7
759.446	67.32
759.626	70.79
759.806	75.35
759.986	78.94
760.166	80.67
760.346	79.82
760.526	82.53
760.706	80.93
760.886	82.75
761.066	81.71
761.246	79.6
761.426	79.51
761.606	72.73
761.786	71.29
761.966	72.19
762.146	73.03
762.326	74.88
762.506	73.4
762.686	73.63
762.866	76.04
763.046	75.27
763.225	75.48
763.405	74.69
763.585	76.94
763.765	77.23
763.945	78.05
764.124	76.65
764.304	76.74
764.484	81.27
764.664	84.39
764.843	86.74
765.023	90.73
765.203	93.26
765.382	96.18
765.562	97.92
765.741	102.74
765.921	104.76
766.101	113.12
766.28	114.09
766.46	111.95
766.639	114.44
766.819	115.2
766.998	113.72
767.178	117.36
767.357	117.93
767.537	122.74
767.716	121.33
767.896	123.84
768.075	123
768.254	121.28
768.434	122.09
768.613	125.5
768.792	119.85
768.972	130.51
769.151	126.03
769.33	133.98
769.51	132.34
769.689	135.87
769.868	138.61
770.047	140.43
770.226	147.39
770.406	153.26
770.585	147.31
770.764	148.37
770.943	144.54
771.122	152.46
771.301	142
771.48	140.07
771.66	137.53
771.839	138.77
772.018	135.33
772.197	135.94
772.376	138.42
772.555	142.84
772.734	147.59
772.913	151.05
773.092	149.38
773.271	153.12
773.449	158.36
773.628	152.01
773.807	153.92
773.986	160.28
774.165	157.39
774.344	155.38
774.523	152.66
774.701	145
774.88	138.34
775.059	133.59
775.238	135.24
775.417	135.17
775.595	136.81
775.774	125.55
775.953	121.71
776.131	126.5
776.31	120
776.489	121.72
776.667	126.96
776.846	128.59
777.025	126.3
777.203	123
777.382	123.75
777.56	126.73
777.739	133.96
777.917	136.44
778.096	130.12
778.274	135.76
778.453	132.8
778.631	140.33
778.81	138.26
778.988	142.31
779.166	143.96
779.345	145.26
779.523	140.81
779.702	136.34
779.88	135.92
780.058	144.61
780.237	143.27
780.415	141.48
780.593	130.17
780.771	144.5
780.95	148.11
781.128	143.64
781.306	131.58
781.484	128.96
781.662	137.85
781.841	142.16
782.019	141.67
782.197	147.74
782.375	152.08
782.553	160.47
782.731	153.43
782.909	157.34
783.087	154.55
783.265	189.88
783.443	191.98
783.621	177.28
783.799	179.06
783.977	182.7
784.155	170.75
784.333	169.65
784.511	168.15
784.689	166.24
784.867	148.96
785.045	162.23
785.223	140.83
785.4	135.32
785.578	137.73
785.756	129.31
785.934	116.03
786.112	107.37
786.289	101.57
786.467	90.7
786.645	86.11
786.823	92.15
787	92.87
787.178	98.61
787.356	103.3
787.533	98.66
787.711	95.59
787.889	104.98
788.066	111.14
788.244	117.72
788.421	127.9
788.599	123.99
788.776	122.35
788.954	122.39
789.131	112.6
789.309	110.07
789.486	103.08
789.664	110.07
789.841	103.49
790.019	106.48
790.196	106.1
790.373	99.37
790.551	107.44
790.728	107.76
790.906	104.73
791.083	105.12
791.26	111.5
791.437	124.78
791.615	112.42
791.792	115.33
791.969	114.42
792.146	114.77
792.324	117.75
792.501	118.71
792.678	117.38
792.855	120.9
793.032	122.2
793.209	121.26
793.387	123.5
793.564	131.21
793.741	130.14
793.918	123.44
794.095	123
794.272	128.86
794.449	127.89
794.626	127.5
794.803	124.48
794.98	120.56
795.157	120.31
795.334	114.08
795.511	108.14
795.688	104.09
795.864	99.55
796.041	102.38
796.218	94.41
796.395	92.72
796.572	92.22
796.749	91.25
796.925	93.29
797.102	97.42
797.279	104.04
797.456	109.3
797.632	116.54
797.809	128.18
797.986	125.27
798.162	128.77
798.339	124.11
798.516	120.52
798.692	114.41
798.869	112.89
799.046	102.76
799.222	95.97
799.399	98.28
799.575	96.12
799.752	90.31
799.928	89.68
800.105	90.45
800.281	96.84
800.458	102.14
800.634	103.91
800.811	107.08
800.987	111.22
801.163	108.43
801.34	111.06
801.516	107.17
801.692	112.52
801.869	111.92
802.045	106.37
802.221	96.97
802.398	94.4
802.574	94.9
802.75	97.68
802.926	100.96
803.103	109.27
803.279	110.74
803.455	118.43
803.631	114.21
803.807	107.64
803.983	121.78
804.16	125.22
804.336	120.96
804.512	111.99
804.688	111.45
804.864	104.78
805.04	99.44
805.216	83.81
805.392	80.96
805.568	81.33
805.744	88.64
805.92	78.79
806.096	82.97
806.272	96.52
806.448	112.93
806.623	120.42
806.799	123.74
806.975	121.65
807.151	149.29
807.327	153.28
807.503	195.59
807.678	193.28
807.854	231.19
808.03	199.58
808.206	168.85
808.381	145.64
808.557	142.9
808.733	146.78
808.908	166.89
809.084	153.23
809.26	151.25
809.435	124.01
809.611	121.04
809.787	113.14
809.962	118.71
810.138	125.38
810.313	126.86
810.489	121.01
810.664	107.86
810.84	109.39
811.015	98.15
811.191	87.54
811.366	88.82
811.542	85.29
811.717	82.4
811.892	89.14
812.068	83.4
812.243	86.96
812.419	79.15
812.594	78.42
812.769	75.75
812.944	75.16
813.12	102.88
813.295	99
813.47	96.29
813.645	112.49
813.821	83.5
813.996	96.75
814.171	80.67
814.346	81.42
814.521	88.88
814.697	88.3
814.872	88.36
815.047	69.3
815.222	65.65
815.397	81.25
815.572	70.91
815.747	80.23
815.922	74.13
816.097	84.72
816.272	80.68
816.447	79.67
816.622	82.03
816.797	91.25
816.972	93.65
817.147	89.53
817.322	85.54
817.496	95.96
817.671	97.48
817.846	94.6
818.021	94.91
818.196	94.31
818.371	91.06
818.545	82.96
818.72	74.88
818.895	76.81
819.069	75.51
819.244	71.6
819.419	63.72
819.594	60.82
819.768	60.31
819.943	60.76
820.117	58.76
820.292	58.02
820.467	56.04
820.641	54.57
820.816	54.05
820.99	54.17
821.165	53.14
821.339	54.23
821.514	55.87
821.688	55.58
821.863	54.33
822.037	56.33
822.212	56.15
822.386	56.8
822.56	57.84
822.735	59.24
822.909	62.22
823.084	64.17
823.258	64.74
823.432	64.66
823.606	67.67
823.781	69.35
823.955	67.31
824.129	69.05
824.303	71.9
824.478	73.15
824.652	71.08
824.826	68.8
825	69.5
825.174	63.7
825.348	59.66
825.523	59.74
825.697	60.8
825.871	60.92
826.045	63.48
826.219	62.92
826.393	64.86
826.567	63.07
826.741	61.21
826.915	62.75
827.089	69.45
827.263	73.9
827.437	72.33
827.611	70.5
827.784	67.7
827.958	68.91
828.132	72.73
828.306	75.44
828.48	80.15
828.654	82.89
828.827	86.64
829.001	84.7
829.175	85.85
829.349	86.35
829.522	97.72
829.696	111.44
829.87	103.83
830.044	108.71
830.217	95.82
830.391	93.01
830.565	98.37
830.738	87.76
830.912	62.21
831.085	60.36
831.259	56.88
831.432	52.55
831.606	53.77
831.779	53.75
831.953	51.97
832.126	51.13
832.3	56.55
832.473	58.69
832.647	61.78
832.82	64.8
832.994	62.43
833.167	65.01
833.34	69.61
833.514	70.1
833.687	73.42
833.86	77.8
834.034	82.38
834.207	82.48
834.38	81.3
834.553	74.36
834.727	73.03
834.9	72.01
835.073	71.64
835.246	71.2
835.419	61.73
835.593	59.54
835.766	53.81
835.939	45.51
836.112	43.64
836.285	39.44
836.458	41.8
836.631	54.87
836.804	62.9
836.977	59.16
837.15	54.22
837.323	57.58
837.496	53.04
837.669	70.69
837.842	83.24
838.015	90.91
838.188	92.08
838.361	89.76
838.533	93.05
838.706	89.07
838.879	93.53
839.052	93.91
839.225	98.18
839.398	106.48
839.57	93.07
839.743	104.95
839.916	105.21
840.088	122.72
840.261	134.53
840.434	147.57
840.607	170.75
840.779	180.77
840.952	171.71
841.124	170.11
841.297	166.04
841.47	203.59
841.642	185.34
841.815	166.17
841.987	147.05
842.16	143.3
842.332	150.48
842.505	152.13
842.677	137.58
842.85	151.48
843.022	159.62
843.194	138.68
843.367	130.13
843.539	129.42
843.712	128.93
843.884	130.33
844.056	156.36
844.229	146.65
844.401	137.04
844.573	137.02
844.745	137.68
844.918	137.12
845.09	181.22
845.262	151.21
845.434	147.63
845.606	170.69
845.779	209.62
845.951	175.53
846.123	151.24
846.295	153.65
846.467	167.7
846.639	158.02
846.811	165.78
846.983	150.07
847.155	210.35
847.327	226.36
847.499	259.26
847.671	258.75
847.843	522.54
848.015	1690.32
848.187	-1093.33
848.359	1481.58
848.531	-959.26
848.703	18533.33
848.875	-656.38
849.047	627.66
849.218	296.93
849.39	235.77
849.562	180.42
849.734	130.6
849.905	231.47
850.077	269.07
850.249	134.08
850.421	370.59
850.592	151.14
850.764	195.74
850.936	596
851.107	1233.33
851.279	230.71
851.451	171.99
851.622	229.93
851.794	168.46
851.965	139.96
852.137	164.2
852.308	126.87
852.48	134.03
852.651	102.77
852.823	124.57
852.994	131.5
853.166	145.53
853.337	138.11
853.509	115.53
853.68	140.42
853.851	163.17
854.023	181.99
854.194	202.98
854.365	234.62
854.537	198.48
854.708	171.92
854.879	201.28
855.05	160.22
855.222	179.01
855.393	274.23
855.564	170.42
855.735	144.23
855.906	171.48
856.078	130.56
856.249	127.9
856.42	111.11
856.591	82.34
856.762	70.31
856.933	96.17
857.104	90.93
857.275	85.19
857.446	56.31
857.617	39.13
857.788	58.81
857.959	83.2
858.13	103.39
858.301	107.6
858.472	97.87
858.643	107.18
858.814	144.06
858.985	167.29
859.155	191.83
859.326	221.39
859.497	668.07
859.668	212.44
859.839	211.56
860.009	193.56
860.18	240.16
860.351	263.29
860.522	275.32
860.692	194.09
860.863	138.89
861.034	102.65
861.204	78.25
861.375	88.21
861.546	109.3
861.716	149.68
861.887	168.31
862.057	202.94
862.228	173.58
862.398	217.14
862.569	204.28
862.739	172.18
862.91	163.2
863.08	225.11
863.251	265.77
863.421	289.57
863.592	226.84
863.762	203.49
863.932	229.67
864.103	-53.49
864.273	-325
864.443	-150.83
864.614	-34.89
864.784	2.82
864.954	-750
865.125	2842.86
865.295	-146.27
865.465	-70.18
865.635	-2700
865.805	317.72
865.976	-6100
866.146	-504.55
866.316	-392
866.486	514.29
866.656	-126.97
866.826	-6.08
866.996	-225
867.166	220.28
867.336	238.96
867.506	78.57
867.676	90.35
867.846	53.61
868.016	75
868.186	111.75
868.356	113.88
868.526	98.58
868.696	118.8
868.866	163.39
869.036	303.25
869.206	171.51
869.376	215.13
869.545	2894.74
869.715	1410.53
869.885	262.32
870.055	249
870.224	498.84
870.394	-895.24
870.564	573.13
870.734	436
870.903	175.38
871.073	262.95
871.243	158.29
871.412	74.12
871.582	75.61
871.751	88.75
871.921	42.35
872.091	29.06
872.26	3.51
872.43	17.83
872.599	-0.39
872.769	-0.16
872.938	-11.34
873.108	-2.61
873.277	-1.08
873.446	-10.38
873.616	1.13
873.785	9.31
873.955	18.06
874.124	46.11
874.293	51.05
874.463	68.15
874.632	91.75
874.801	122.02
874.971	167.63
875.14	180.15
875.309	232.06
875.478	433.68
875.647	431.22
875.817	256.48
875.986	193.14
876.155	104.88
876.324	83.64
876.493	64.89
876.662	67.68
876.831	61.12
877	74.61
877.17	68.58
877.339	52.53
877.508	58.14
877.677	77.07
877.846	81.25
878.015	97.49
878.184	92.87
878.352	94.39
878.521	77.02
878.69	74.09
878.859	71.65
879.028	57.62
879.197	60.19
879.366	57.95
879.534	57.71
879.703	66.79
879.872	70.35
880.041	76.07
880.21	73.92
880.378	70.6
880.547	77.51
880.716	62.99
880.884	61.82
881.053	61.97
881.222	61.17
881.39	57.03
881.559	52.94
881.727	55.44
881.896	46.74
882.065	46.66
882.233	50.56
882.402	48.26
882.57	48.73
882.739	48.84
882.907	47.83
883.076	50
883.244	50.41
883.412	50
883.581	49.96
883.749	56.57
883.918	51.35
884.086	50.11
884.254	46.97
884.423	50.63
884.591	61.07
884.759	72.54
884.927	88.6
885.096	78.68
885.264	81.85
885.432	78.64
885.6	96.22
885.769	122.92
885.937	87.98
886.105	81.59
886.273	116.09
886.441	105.32
886.609	150.41
886.777	40.72
886.945	124.43
887.113	112.28
887.281	3300
887.449	62.35
887.617	0
887.785	-34.36
887.953	-18.34
888.121	-50.25
888.289	-42.21
888.457	-258.9
888.625	-11100
888.793	3130
888.961	5875
889.129	942.86
889.296	281.61
889.464	847.92
889.632	275
889.8	296.73
889.967	387.78
890.135	183.03
