Data from JASIL_2936_Reflection_2.txt Node
Date: Sat Nov 07 21:02:54 EST 2015
User: Geneva
Spectrometer: USB4E03002
Autoset integration time: false
Trigger mode: 4
Integration Time (sec): 1.000000E-1
Scans to average: 10
Electric dark correction enabled: true
Nonlinearity correction enabled: false
Boxcar width: 5
Stray light correction enabled: false
XAxis mode: Wavelengths
Stop averaging: false
Number of Pixels in Spectrum: 3648
>>>>>Begin Spectral Data<<<<<
177.575	1000.48
177.794	523.85
178.014	501.83
178.233	217.02
178.452	186.49
178.672	158.83
178.891	50.52
179.11	0
179.33	-146.77
179.549	591.28
179.768	-304.98
179.987	274.15
180.207	202.55
180.426	106.67
180.645	89.91
180.864	64.36
181.084	52.82
181.303	36.55
181.522	40.71
181.741	52.15
181.96	55.39
182.179	58.82
182.398	57.2
182.618	46.52
182.837	42.94
183.056	43.09
183.275	62.76
183.494	70.15
183.713	71.1
183.932	51.59
184.151	60.74
184.37	54.16
184.589	53.21
184.808	47.3
185.027	57.26
185.246	59.82
185.465	56.07
185.684	45.81
185.903	56.42
186.122	62.5
186.341	72.93
186.56	76.74
186.779	96.01
186.998	91.91
187.216	94.21
187.435	89.62
187.654	81.1
187.873	101.86
188.092	133.91
188.311	112.19
188.53	98.39
188.748	94.01
188.967	75.85
189.186	59.73
189.405	74.31
189.623	82.59
189.842	81.5
190.061	87.59
190.28	55.49
190.498	54.44
190.717	41.17
190.936	29.55
191.154	0.83
191.373	-2.24
191.592	-5.13
191.81	-32.24
192.029	-12.75
192.248	-32.62
192.466	-1.88
192.685	21.64
192.904	15.38
193.122	17.83
193.341	12.84
193.559	28.47
193.778	31.41
193.996	33.3
194.215	44.22
194.433	42.64
194.652	42.75
194.87	37.1
195.089	50.87
195.307	64.59
195.526	77.64
195.744	84.2
195.963	89.46
196.181	97.75
196.399	105.38
196.618	108.95
196.836	96.72
197.055	84.09
197.273	89.81
197.491	102.53
197.71	79.45
197.928	65.97
198.146	54.2
198.365	65.08
198.583	56.33
198.801	56.71
199.019	50.43
199.238	48.78
199.456	53.99
199.674	43.98
199.892	16.57
200.111	-0.76
200.329	21.74
200.547	5.9
200.765	-0.72
200.983	-8.18
201.202	22.38
201.42	29.21
201.638	13.42
201.856	15.94
202.074	37.03
202.292	44.21
202.51	52.94
202.728	36.91
202.946	32.55
203.165	27.61
203.383	37.43
203.601	29.15
203.819	47.48
204.037	50.52
204.255	45.36
204.473	40.84
204.691	22.12
204.909	19.14
205.127	34.38
205.345	50.08
205.562	46.17
205.78	42.47
205.998	28.03
206.216	22.27
206.434	16.72
206.652	18.32
206.87	23.7
207.088	43.27
207.306	46.46
207.523	41.11
207.741	32.29
207.959	46.26
208.177	38.64
208.395	50.51
208.612	33.99
208.83	51.42
209.048	36.58
209.266	32.4
209.483	15.56
209.701	7.33
209.919	5.31
210.136	12.94
210.354	30.79
210.572	50.47
210.79	50.89
211.007	50.83
211.225	43.36
211.442	47.09
211.66	49.08
211.878	47.83
212.095	105.12
212.313	107.09
212.53	106.29
212.748	102.37
212.966	100.29
213.183	98.38
213.401	101.25
213.618	107.54
213.836	117.32
214.053	112.38
214.271	113.68
214.488	52.27
214.705	41.38
214.923	37.19
215.14	27.93
215.358	21.33
215.575	17.54
215.793	21.34
216.01	7.43
216.227	-0.83
216.445	-0.16
216.662	-1.83
216.879	0.08
217.097	1.17
217.314	-0.19
217.531	5.75
217.749	5.35
217.966	11
218.183	2.38
218.4	7.34
218.618	8.01
218.835	11.14
219.052	15.41
219.269	17.84
219.487	18.33
219.704	16.29
219.921	13.99
220.138	19.13
220.355	17.93
220.572	20.12
220.79	19.32
221.007	26.6
221.224	30.85
221.441	26.8
221.658	25.21
221.875	25.66
222.092	28.24
222.309	27.28
222.526	24.41
222.743	21.45
222.96	19.82
223.177	18.91
223.394	15.23
223.611	12.27
223.828	9.6
224.045	5.13
224.262	5.79
224.479	3.91
224.696	7.33
224.913	8.92
225.13	10.53
225.347	11.5
225.564	10.51
225.781	11.1
225.997	11.46
226.214	10.75
226.431	12.05
226.648	11.73
226.865	12.2
227.082	11.44
227.298	10.77
227.515	10.22
227.732	9.72
227.949	9.44
228.165	9.32
228.382	8.81
228.599	9.21
228.816	9.01
229.032	8.62
229.249	8.95
229.466	8.81
229.682	8.59
229.899	8.89
230.116	9.48
230.332	10.96
230.549	11
230.765	12.21
230.982	13.55
231.199	13.52
231.415	14.33
231.632	13.08
231.848	13.22
232.065	13.94
232.281	13.62
232.498	13.27
232.714	12.05
232.931	11.14
233.147	10.81
233.364	10.02
233.58	11.89
233.797	11.47
234.013	11.61
234.23	11.16
234.446	11.59
234.662	12.07
234.879	12.47
235.095	13.04
235.312	14.75
235.528	14.07
235.744	13.68
235.961	12.23
236.177	12.43
236.393	12.73
236.61	13.67
236.826	12.19
237.042	12.44
237.258	12.52
237.475	12.26
237.691	10.41
237.907	10.5
238.123	9.38
238.339	8.95
238.556	8.52
238.772	8.05
238.988	8.63
239.204	8.45
239.42	7.72
239.636	7.43
239.853	7.31
240.069	7.35
240.285	7.67
240.501	7.79
240.717	7.9
240.933	8.21
241.149	8.3
241.365	8.21
241.581	8.13
241.797	8.3
242.013	8.26
242.229	8.37
242.445	8.48
242.661	8.15
242.877	8.55
243.093	8.99
243.309	8.93
243.525	8.72
243.741	8.3
243.957	8.9
244.173	9
244.388	8.88
244.604	8.63
244.82	8.86
245.036	8.64
245.252	8.34
245.468	7.73
245.683	7.65
245.899	7.96
246.115	7.79
246.331	7.65
246.547	7.5
246.762	7.47
246.978	7.48
247.194	7.1
247.409	7.4
247.625	7.27
247.841	7.19
248.057	7.01
248.272	6.56
248.488	6.72
248.703	6.6
248.919	6.9
249.135	6.65
249.35	6.67
249.566	6.91
249.782	6.39
249.997	6.96
250.213	7.37
250.428	7.61
250.644	7.88
250.859	7.34
251.075	7.26
251.29	6.94
251.506	7.02
251.721	6.94
251.937	7.06
252.152	7.33
252.368	7.1
252.583	7.22
252.798	7.35
253.014	7.49
253.229	7.89
253.445	8.15
253.66	8.11
253.875	8.36
254.091	7.73
254.306	8.03
254.521	7.63
254.737	8.16
254.952	7.26
255.167	6.7
255.383	6.63
255.598	6.87
255.813	6.71
256.028	6.49
256.244	6.45
256.459	6.72
256.674	6.68
256.889	6.3
257.104	5.99
257.32	6.33
257.535	6.03
257.75	5.91
257.965	5.74
258.18	5.62
258.395	5.63
258.61	5.44
258.826	5.37
259.041	5.06
259.256	5.2
259.471	5.16
259.686	5.13
259.901	5.44
260.116	5.44
260.331	5.58
260.546	5.61
260.761	5.55
260.976	5.73
261.191	5.64
261.406	5.72
261.621	5.76
261.836	5.45
262.05	5.44
262.265	4.89
262.48	4.88
262.695	4.64
262.91	4.64
263.125	4.55
263.34	4.59
263.555	5.37
263.769	5.51
263.984	5.42
264.199	5.9
264.414	5.8
264.629	6.15
264.843	5.94
265.058	5.82
265.273	5.95
265.488	6.03
265.702	5.82
265.917	5.72
266.132	5.64
266.346	5.48
266.561	5.21
266.776	5.15
266.99	4.97
267.205	5.08
267.42	5.05
267.634	4.87
267.849	4.9
268.063	4.95
268.278	4.51
268.492	4.65
268.707	4.74
268.922	4.68
269.136	4.85
269.351	5.09
269.565	5.04
269.78	5.04
269.994	5
270.209	5.01
270.423	5.19
270.637	5.24
270.852	5.19
271.066	5.2
271.281	5.36
271.495	5.34
271.709	5.16
271.924	5.03
272.138	4.96
272.353	5.02
272.567	4.84
272.781	4.66
272.996	4.83
273.21	4.75
273.424	4.76
273.638	4.61
273.853	4.54
274.067	4.36
274.281	4.67
274.495	4.68
274.71	4.62
274.924	4.68
275.138	4.8
275.352	4.64
275.566	4.97
275.781	5.1
275.995	5.34
276.209	5.45
276.423	5.46
276.637	5.14
276.851	5.1
277.065	5.32
277.279	5.29
277.493	5.4
277.707	5.39
277.921	5.32
278.135	5.21
278.349	4.93
278.563	4.83
278.777	4.69
278.991	5.05
279.205	5.26
279.419	5.17
279.633	5.17
279.847	4.88
280.061	5.01
280.275	4.92
280.489	5.03
280.703	5.11
280.917	4.97
281.131	5.24
281.344	4.93
281.558	4.64
281.772	4.6
281.986	4.64
282.2	4.64
282.414	4.59
282.627	4.61
282.841	4.53
283.055	4.59
283.269	4.72
283.482	4.55
283.696	4.56
283.91	4.84
284.123	4.87
284.337	4.79
284.551	4.85
284.764	4.83
284.978	4.86
285.192	4.73
285.405	4.79
285.619	4.79
285.833	4.57
286.046	4.66
286.26	4.52
286.473	4.38
286.687	4.47
286.9	4.54
287.114	4.51
287.327	4.53
287.541	4.75
287.754	4.62
287.968	4.52
288.181	4.9
288.395	4.82
288.608	4.73
288.822	4.83
289.035	5.08
289.248	5.03
289.462	5.14
289.675	5.05
289.889	4.84
290.102	4.92
290.315	5.05
290.529	4.9
290.742	4.93
290.955	5.06
291.169	5.19
291.382	4.82
291.595	4.74
291.808	4.65
292.022	4.74
292.235	4.92
292.448	4.94
292.661	4.79
292.875	5.24
293.088	5.18
293.301	5.08
293.514	4.9
293.727	4.98
293.94	5.16
294.153	5
294.367	4.82
294.58	4.5
294.793	4.25
295.006	4.18
295.219	4
295.432	3.98
295.645	4.23
295.858	4.06
296.071	4.04
296.284	3.94
296.497	4.03
296.71	4.1
296.923	4.35
297.136	4.46
297.349	4.74
297.562	4.66
297.775	4.72
297.988	4.56
298.201	4.82
298.414	4.86
298.626	4.72
298.839	4.74
299.052	4.82
299.265	4.58
299.478	4.55
299.691	4.19
299.903	4.32
300.116	4.35
300.329	4.55
300.542	4.49
300.755	4.52
300.967	4.67
301.18	4.79
301.393	4.85
301.605	4.91
301.818	4.97
302.031	5.23
302.243	5.11
302.456	5.28
302.669	5.03
302.881	5.08
303.094	5.08
303.307	5.16
303.519	5.17
303.732	5.25
303.944	5.4
304.157	5.25
304.37	5.28
304.582	5.35
304.795	5.24
305.007	5.34
305.22	5.39
305.432	5.4
305.645	5.26
305.857	5.36
306.069	5.17
306.282	4.92
306.494	5.18
306.707	5.11
306.919	5.2
307.132	5.09
307.344	5.06
307.556	5
307.769	4.95
307.981	4.93
308.193	4.86
308.406	4.74
308.618	4.93
308.83	4.78
309.043	4.82
309.255	4.88
309.467	4.97
309.679	4.96
309.892	4.91
310.104	4.89
310.316	4.88
310.528	4.83
310.74	4.98
310.953	5.1
311.165	5.13
311.377	4.99
311.589	4.86
311.801	4.92
312.013	5.12
312.225	5.25
312.437	5.49
312.649	5.71
312.862	5.74
313.074	5.72
313.286	5.5
313.498	5.45
313.71	5.77
313.922	5.86
314.134	5.73
314.346	5.52
314.558	5.56
314.77	5.51
314.982	5.05
315.193	5.14
315.405	4.83
315.617	4.87
315.829	4.89
316.041	4.66
316.253	4.53
316.465	4.65
316.677	4.65
316.888	4.72
317.1	4.48
317.312	5.07
317.524	5.1
317.736	5.5
317.947	5.7
318.159	6.06
318.371	6.01
318.583	6.33
318.794	6.32
319.006	6.52
319.218	6.43
319.43	6.4
319.641	6.11
319.853	6.14
320.064	6.14
320.276	6.4
320.488	6.01
320.699	6.11
320.911	6.05
321.123	6.3
321.334	6.03
321.546	6.01
321.757	6.44
321.969	6.74
322.18	6.56
322.392	6.45
322.603	6.21
322.815	6.43
323.026	6.57
323.238	6.41
323.449	6.31
323.661	6.42
323.872	6.43
324.083	6.32
324.295	6.12
324.506	6.23
324.718	6.38
324.929	6.44
325.14	6.45
325.352	6.45
325.563	6.66
325.774	6.67
325.986	6.74
326.197	6.73
326.408	6.7
326.62	7.01
326.831	7.07
327.042	6.97
327.253	6.99
327.464	7.1
327.676	7.01
327.887	6.93
328.098	6.8
328.309	7.01
328.52	7.39
328.732	7.58
328.943	7.57
329.154	7.79
329.365	7.77
329.576	7.99
329.787	8.08
329.998	8.25
330.209	8.5
330.42	8.74
330.631	8.7
330.842	8.6
331.053	8.55
331.264	8.44
331.475	8.35
331.686	8.71
331.897	8.65
332.108	8.62
332.319	8.61
332.53	8.58
332.741	8.73
332.952	8.73
333.163	8.85
333.374	9.26
333.585	9.36
333.795	9.36
334.006	9.36
334.217	9.46
334.428	9.56
334.639	9.68
334.849	9.59
335.06	9.49
335.271	9.49
335.482	9.36
335.692	9.29
335.903	9.31
336.114	9.35
336.325	9.34
336.535	9.35
336.746	9.28
336.957	9.19
337.167	9.29
337.378	9.32
337.589	9.32
337.799	9.41
338.01	9.23
338.22	9.26
338.431	9.32
338.642	9.24
338.852	8.88
339.063	8.96
339.273	8.97
339.484	9.01
339.694	8.91
339.905	8.86
340.115	8.75
340.326	8.62
340.536	8.68
340.746	8.82
340.957	8.81
341.167	8.94
341.378	8.87
341.588	9.05
341.799	8.95
342.009	9.01
342.219	8.87
342.43	8.9
342.64	8.97
342.85	8.81
343.061	8.67
343.271	8.66
343.481	8.88
343.691	8.87
343.902	8.6
344.112	8.69
344.322	8.64
344.532	8.84
344.743	8.91
344.953	8.81
345.163	8.84
345.373	8.76
345.583	8.77
345.793	8.51
346.004	8.54
346.214	8.69
346.424	8.54
346.634	8.65
346.844	8.6
347.054	8.58
347.264	8.88
347.474	8.89
347.684	8.88
347.894	8.89
348.104	8.99
348.314	9.05
348.524	9.09
348.734	9.13
348.944	8.94
349.154	8.99
349.364	8.88
349.574	8.65
349.784	8.56
349.994	8.55
350.204	8.48
350.413	8.35
350.623	8.32
350.833	8.1
351.043	8.08
351.253	8.39
351.463	8.21
351.672	8.14
351.882	8.15
352.092	8.14
352.302	8.19
352.511	8.18
352.721	8.32
352.931	8.26
353.141	8.31
353.35	8.36
353.56	8.12
353.77	8.31
353.979	8.44
354.189	8.37
354.399	8.56
354.608	8.48
354.818	8.5
355.027	8.51
355.237	8.53
355.447	8.5
355.656	8.47
355.866	8.57
356.075	8.47
356.285	8.32
356.494	8.26
356.704	8.19
356.913	8.22
357.123	8.15
357.332	8.07
357.542	8.19
357.751	8.28
357.96	8.12
358.17	8.02
358.379	8.12
358.589	8.15
358.798	8.28
359.007	8.18
359.217	8.12
359.426	8.15
359.635	8.16
359.845	8.05
360.054	7.85
360.263	7.98
360.472	7.93
360.682	7.87
360.891	7.87
361.1	7.8
361.309	7.77
361.519	7.86
361.728	7.93
361.937	7.92
362.146	7.9
362.355	8.01
362.564	8.06
362.774	8.07
362.983	8.01
363.192	7.98
363.401	7.99
363.61	8.06
363.819	8.02
364.028	7.96
364.237	7.99
364.446	8
364.655	7.97
364.864	7.87
365.073	7.95
365.282	8
365.491	8.08
365.7	8.17
365.909	8.13
366.118	8.2
366.327	8.15
366.536	8.14
366.745	8.11
366.954	8.16
367.162	8.19
367.371	8.08
367.58	7.95
367.789	7.81
367.998	7.75
368.207	7.84
368.415	7.79
368.624	7.75
368.833	7.77
369.042	7.86
369.25	7.9
369.459	7.95
369.668	7.94
369.877	8.08
370.085	8.23
370.294	8.11
370.503	8.06
370.711	8.01
370.92	7.97
371.129	7.93
371.337	7.81
371.546	7.67
371.754	7.59
371.963	7.74
372.171	7.74
372.38	7.63
372.589	7.81
372.797	7.77
373.006	7.71
373.214	7.69
373.423	7.59
373.631	7.64
373.84	7.76
374.048	7.79
374.256	7.74
374.465	7.63
374.673	7.65
374.882	7.51
375.09	7.54
375.298	7.57
375.507	7.62
375.715	7.71
375.923	7.59
376.132	7.56
376.34	7.49
376.548	7.42
376.757	7.5
376.965	7.62
377.173	7.78
377.381	7.79
377.59	7.78
377.798	7.88
378.006	7.89
378.214	8.08
378.423	8.04
378.631	8.13
378.839	8.14
379.047	8.16
379.255	8.05
379.463	8
379.671	7.99
379.879	8.05
380.088	8.01
380.296	8.06
380.504	8.07
380.712	8.22
380.92	8.31
381.128	8.33
381.336	8.28
381.544	8.29
381.752	8.23
381.96	8.2
382.168	8.31
382.376	8.31
382.584	8.33
382.791	8.35
382.999	8.23
383.207	8.16
383.415	8.17
383.623	8.28
383.831	8.32
384.039	8.42
384.247	8.55
384.454	8.47
384.662	8.53
384.87	8.5
385.078	8.43
385.285	8.62
385.493	8.65
385.701	8.67
385.909	8.62
386.116	8.64
386.324	8.65
386.532	8.61
386.739	8.57
386.947	8.52
387.155	8.52
387.362	8.62
387.57	8.55
387.778	8.6
387.985	8.72
388.193	8.74
388.4	8.82
388.608	8.68
388.816	8.7
389.023	8.74
389.231	8.79
389.438	8.76
389.646	8.65
389.853	8.65
390.061	8.56
390.268	8.47
390.475	8.56
390.683	8.48
390.89	8.55
391.098	8.56
391.305	8.56
391.512	8.46
391.72	8.5
391.927	8.57
392.135	8.65
392.342	8.69
392.549	8.71
392.756	8.62
392.964	8.64
393.171	8.7
393.378	8.68
393.586	8.71
393.793	8.83
394	8.81
394.207	8.8
394.414	8.77
394.622	8.91
394.829	8.97
395.036	8.99
395.243	9.05
395.45	9.01
395.657	9.05
395.864	9.02
396.072	9.03
396.279	9.08
396.486	9.07
396.693	9.1
396.9	9.04
397.107	8.95
397.314	8.99
397.521	8.94
397.728	8.97
397.935	8.93
398.142	8.96
398.349	9
398.556	9.06
398.763	9.1
398.97	9.05
399.177	9.06
399.383	9.16
399.59	9.21
399.797	9.27
400.004	9.34
400.211	9.35
400.418	9.37
400.625	9.35
400.831	9.33
401.038	9.34
401.245	9.33
401.452	9.26
401.658	9.29
401.865	9.3
402.072	9.33
402.279	9.3
402.485	9.42
402.692	9.49
402.899	9.49
403.105	9.55
403.312	9.56
403.519	9.56
403.725	9.68
403.932	9.76
404.138	9.77
404.345	9.74
404.552	9.77
404.758	9.8
404.965	9.78
405.171	9.79
405.378	9.75
405.584	9.8
405.791	9.9
405.997	9.87
406.204	9.8
406.41	9.87
406.617	9.95
406.823	9.98
407.029	9.98
407.236	10.05
407.442	10.11
407.649	10.26
407.855	10.37
408.061	10.45
408.268	10.47
408.474	10.49
408.68	10.47
408.887	10.45
409.093	10.48
409.299	10.45
409.505	10.41
409.712	10.45
409.918	10.38
410.124	10.36
410.33	10.33
410.537	10.41
410.743	10.42
410.949	10.48
411.155	10.63
411.361	10.65
411.567	10.66
411.773	10.69
411.98	10.71
412.186	10.75
412.392	10.68
412.598	10.71
412.804	10.69
413.01	10.73
413.216	10.77
413.422	10.76
413.628	10.8
413.834	10.84
414.04	10.88
414.246	10.88
414.452	10.85
414.658	10.96
414.864	10.92
415.07	10.88
415.275	10.92
415.481	10.89
415.687	10.82
415.893	10.77
416.099	10.8
416.305	10.89
416.511	10.95
416.716	10.89
416.922	10.87
417.128	10.91
417.334	10.97
417.539	10.96
417.745	10.99
417.951	10.96
418.157	11.04
418.362	11.09
418.568	11.03
418.774	10.9
418.979	10.95
419.185	10.92
419.391	10.92
419.596	10.88
419.802	10.87
420.008	10.85
420.213	10.9
420.419	10.85
420.624	10.78
420.83	10.78
421.035	10.88
421.241	10.92
421.446	10.96
421.652	10.97
421.857	10.99
422.063	10.98
422.268	11.02
422.474	11.07
422.679	11.13
422.885	11.12
423.09	11.14
423.295	11.14
423.501	11.14
423.706	11.13
423.911	11.15
424.117	11.19
424.322	11.27
424.527	11.29
424.733	11.23
424.938	11.23
425.143	11.32
425.349	11.33
425.554	11.35
425.759	11.39
425.964	11.43
426.169	11.45
426.375	11.5
426.58	11.48
426.785	11.46
426.99	11.51
427.195	11.49
427.4	11.54
427.605	11.6
427.811	11.65
428.016	11.71
428.221	11.71
428.426	11.7
428.631	11.64
428.836	11.63
429.041	11.66
429.246	11.71
429.451	11.8
429.656	11.76
429.861	11.79
430.066	11.85
430.271	11.82
430.476	11.83
430.681	11.84
430.886	11.89
431.09	11.95
431.295	11.96
431.5	11.92
431.705	11.87
431.91	11.84
432.115	11.86
432.32	11.84
432.524	11.86
432.729	11.88
432.934	11.95
433.139	11.91
433.343	11.97
433.548	12
433.753	12.05
433.958	12.1
434.162	12.16
434.367	12.18
434.572	12.14
434.776	12.15
434.981	12.18
435.186	12.09
435.39	12.18
435.595	12.18
435.799	12.19
436.004	12.2
436.209	12.24
436.413	12.23
436.618	12.21
436.822	12.25
437.027	12.19
437.231	12.2
437.436	12.23
437.64	12.14
437.845	12.11
438.049	12.11
438.253	12.11
438.458	12.1
438.662	12.13
438.867	12.12
439.071	12.14
439.275	12.21
439.48	12.2
439.684	12.21
439.888	12.22
440.093	12.2
440.297	12.22
440.501	12.22
440.706	12.22
440.91	12.26
441.114	12.24
441.318	12.26
441.523	12.26
441.727	12.31
441.931	12.38
442.135	12.42
442.339	12.47
442.543	12.47
442.748	12.44
442.952	12.4
443.156	12.34
443.36	12.34
443.564	12.31
443.768	12.27
443.972	12.25
444.176	12.19
444.38	12.2
444.584	12.14
444.788	12.1
444.992	12.1
445.196	12.1
445.4	12.1
445.604	12.12
445.808	12.12
446.012	12.1
446.216	12.07
446.42	12.07
446.624	12.08
446.828	12.06
447.032	12.08
447.235	12.08
447.439	12.1
447.643	12.13
447.847	12.13
448.051	12.11
448.254	12.14
448.458	12.19
448.662	12.25
448.866	12.25
449.069	12.28
449.273	12.33
449.477	12.36
449.681	12.35
449.884	12.38
450.088	12.36
450.292	12.42
450.495	12.4
450.699	12.4
450.902	12.36
451.106	12.36
451.31	12.36
451.513	12.35
451.717	12.27
451.92	12.29
452.124	12.23
452.327	12.26
452.531	12.22
452.734	12.24
452.938	12.18
453.141	12.19
453.345	12.17
453.548	12.22
453.752	12.2
453.955	12.27
454.158	12.3
454.362	12.28
454.565	12.27
454.769	12.28
454.972	12.26
455.175	12.22
455.379	12.23
455.582	12.21
455.785	12.17
455.988	12.14
456.192	12.09
456.395	12
456.598	12.03
456.801	12.03
457.005	12.03
457.208	12.04
457.411	12.05
457.614	12.03
457.817	12.04
458.021	12.04
458.224	12.04
458.427	12.05
458.63	12.09
458.833	12.05
459.036	12.05
459.239	12.04
459.442	12.05
459.645	12.07
459.848	12.1
460.051	12.1
460.254	12.12
460.457	12.14
460.66	12.18
460.863	12.19
461.066	12.22
461.269	12.27
461.472	12.27
461.675	12.3
461.878	12.36
462.081	12.32
462.284	12.38
462.486	12.35
462.689	12.35
462.892	12.37
463.095	12.38
463.298	12.4
463.5	12.4
463.703	12.42
463.906	12.42
464.109	12.36
464.311	12.41
464.514	12.39
464.717	12.44
464.92	12.46
465.122	12.46
465.325	12.49
465.528	12.47
465.73	12.43
465.933	12.43
466.135	12.47
466.338	12.51
466.541	12.46
466.743	12.46
466.946	12.46
467.148	12.46
467.351	12.41
467.553	12.42
467.756	12.51
467.958	12.56
468.161	12.57
468.363	12.51
468.566	12.5
468.768	12.5
468.971	12.48
469.173	12.45
469.375	12.48
469.578	12.55
469.78	12.48
469.983	12.43
470.185	12.43
470.387	12.43
470.59	12.46
470.792	12.47
470.994	12.51
471.196	12.53
471.399	12.53
471.601	12.55
471.803	12.51
472.005	12.53
472.208	12.53
472.41	12.5
472.612	12.51
472.814	12.54
473.016	12.55
473.218	12.59
473.421	12.6
473.623	12.64
473.825	12.59
474.027	12.65
474.229	12.6
474.431	12.57
474.633	12.57
474.835	12.55
475.037	12.51
475.239	12.51
475.441	12.46
475.643	12.38
475.845	12.35
476.047	12.39
476.249	12.33
476.451	12.39
476.653	12.43
476.855	12.41
477.057	12.41
477.258	12.39
477.46	12.36
477.662	12.37
477.864	12.42
478.066	12.43
478.268	12.4
478.469	12.4
478.671	12.35
478.873	12.29
479.075	12.3
479.276	12.31
479.478	12.32
479.68	12.32
479.882	12.3
480.083	12.3
480.285	12.28
480.487	12.26
480.688	12.25
480.89	12.27
481.091	12.25
481.293	12.24
481.495	12.18
481.696	12.11
481.898	12.08
482.099	12.05
482.301	11.99
482.502	11.97
482.704	11.95
482.905	11.95
483.107	11.92
483.308	11.92
483.51	11.91
483.711	11.94
483.913	11.97
484.114	11.99
484.315	12.01
484.517	12.05
484.718	12.06
484.92	12.09
485.121	12.09
485.322	12.12
485.524	12.14
485.725	12.15
485.926	12.14
486.127	12.11
486.329	12.11
486.53	12.12
486.731	12.11
486.932	12.1
487.134	12.1
487.335	12.1
487.536	12.1
487.737	12.12
487.938	12.13
488.139	12.14
488.341	12.18
488.542	12.18
488.743	12.17
488.944	12.2
489.145	12.23
489.346	12.24
489.547	12.27
489.748	12.28
489.949	12.28
490.15	12.27
490.351	12.27
490.552	12.27
490.753	12.28
490.954	12.3
491.155	12.31
491.356	12.33
491.557	12.38
491.758	12.4
491.959	12.45
492.159	12.46
492.36	12.5
492.561	12.52
492.762	12.55
492.963	12.59
493.164	12.63
493.364	12.65
493.565	12.66
493.766	12.67
493.967	12.68
494.167	12.68
494.368	12.72
494.569	12.74
494.769	12.77
494.97	12.78
495.171	12.79
495.371	12.78
495.572	12.79
495.773	12.85
495.973	12.84
496.174	12.82
496.375	12.83
496.575	12.84
496.776	12.84
496.976	12.87
497.177	12.9
497.377	12.91
497.578	12.96
497.778	12.97
497.979	12.95
498.179	13.01
498.38	13.06
498.58	13.1
498.78	13.1
498.981	13.13
499.181	13.18
499.382	13.15
499.582	13.19
499.782	13.2
499.983	13.23
500.183	13.23
500.383	13.22
500.584	13.25
500.784	13.25
500.984	13.27
501.184	13.29
501.385	13.31
501.585	13.38
501.785	13.37
501.985	13.38
502.185	13.37
502.386	13.42
502.586	13.48
502.786	13.49
502.986	13.5
503.186	13.55
503.386	13.56
503.586	13.61
503.786	13.6
503.987	13.7
504.187	13.74
504.387	13.82
504.587	13.85
504.787	13.87
504.987	13.91
505.187	13.96
505.387	13.95
505.587	14.02
505.786	14.03
505.986	14.05
506.186	14.04
506.386	14.06
506.586	14.08
506.786	14.09
506.986	14.08
507.186	14.11
507.386	14.15
507.585	14.21
507.785	14.17
507.985	14.17
508.185	14.21
508.384	14.25
508.584	14.29
508.784	14.32
508.984	14.34
509.183	14.43
509.383	14.47
509.583	14.45
509.782	14.46
509.982	14.49
510.182	14.56
510.381	14.59
510.581	14.62
510.781	14.64
510.98	14.7
511.18	14.7
511.379	14.67
511.579	14.7
511.778	14.77
511.978	14.79
512.177	14.83
512.377	14.83
512.576	14.87
512.776	14.91
512.975	14.92
513.175	14.89
513.374	14.95
513.573	15.01
513.773	15.06
513.972	15.07
514.172	15.13
514.371	15.21
514.57	15.21
514.77	15.25
514.969	15.23
515.168	15.33
515.367	15.37
515.567	15.42
515.766	15.43
515.965	15.45
516.164	15.5
516.364	15.52
516.563	15.51
516.762	15.55
516.961	15.57
517.16	15.59
517.359	15.55
517.559	15.61
517.758	15.65
517.957	15.66
518.156	15.67
518.355	15.69
518.554	15.73
518.753	15.78
518.952	15.8
519.151	15.82
519.35	15.9
519.549	15.93
519.748	15.92
519.947	15.96
520.146	16.01
520.345	16.01
520.544	16.07
520.743	16.11
520.942	16.13
521.141	16.18
521.339	16.17
521.538	16.17
521.737	16.25
521.936	16.29
522.135	16.32
522.333	16.36
522.532	16.41
522.731	16.43
522.93	16.4
523.129	16.45
523.327	16.42
523.526	16.48
523.725	16.51
523.923	16.51
524.122	16.55
524.321	16.59
524.519	16.59
524.718	16.6
524.917	16.62
525.115	16.63
525.314	16.66
525.512	16.71
525.711	16.73
525.909	16.76
526.108	16.8
526.306	16.81
526.505	16.81
526.703	16.84
526.902	16.89
527.1	16.89
527.299	16.93
527.497	16.95
527.696	16.98
527.894	17.01
528.092	17.03
528.291	17.05
528.489	17.1
528.688	17.15
528.886	17.19
529.084	17.23
529.283	17.3
529.481	17.36
529.679	17.4
529.877	17.44
530.076	17.49
530.274	17.58
530.472	17.64
530.67	17.7
530.869	17.74
531.067	17.77
531.265	17.81
531.463	17.83
531.661	17.82
531.859	17.86
532.057	17.91
532.255	17.96
532.454	17.95
532.652	17.98
532.85	17.99
533.048	18.03
533.246	18.09
533.444	18.1
533.642	18.14
533.84	18.21
534.038	18.25
534.236	18.31
534.434	18.34
534.632	18.41
534.83	18.44
535.027	18.5
535.225	18.55
535.423	18.6
535.621	18.64
535.819	18.67
536.017	18.72
536.215	18.77
536.412	18.82
536.61	18.83
536.808	18.88
537.006	18.94
537.203	18.97
537.401	19
537.599	19.03
537.797	19.09
537.994	19.15
538.192	19.19
538.39	19.24
538.587	19.26
538.785	19.35
538.983	19.41
539.18	19.47
539.378	19.52
539.575	19.6
539.773	19.66
539.97	19.67
540.168	19.7
540.366	19.75
540.563	19.79
540.761	19.85
540.958	19.88
541.155	19.91
541.353	19.96
541.55	20.02
541.748	20.05
541.945	20.1
542.143	20.17
542.34	20.29
542.537	20.35
542.735	20.42
542.932	20.49
543.129	20.56
543.327	20.63
543.524	20.67
543.721	20.72
543.919	20.8
544.116	20.85
544.313	20.94
544.51	20.96
544.708	21.03
544.905	21.07
545.102	21.1
545.299	21.15
545.496	21.21
545.693	21.29
545.891	21.34
546.088	21.37
546.285	21.4
546.482	21.38
546.679	21.47
546.876	21.5
547.073	21.56
547.27	21.62
547.467	21.68
547.664	21.71
547.861	21.77
548.058	21.86
548.255	21.94
548.452	22.03
548.649	22.16
548.846	22.16
549.043	22.22
549.24	22.32
549.437	22.38
549.633	22.42
549.83	22.55
550.027	22.63
550.224	22.67
550.421	22.67
550.618	22.66
550.814	22.71
551.011	22.78
551.208	22.9
551.405	22.92
551.601	22.96
551.798	23.02
551.995	23.04
552.191	23.1
552.388	23.1
552.585	23.22
552.781	23.37
552.978	23.45
553.175	23.47
553.371	23.49
553.568	23.57
553.764	23.62
553.961	23.74
554.157	23.79
554.354	23.84
554.55	23.98
554.747	23.97
554.943	24.03
555.14	24.03
555.336	24.1
555.533	24.18
555.729	24.31
555.926	24.46
556.122	24.45
556.318	24.58
556.515	24.61
556.711	24.67
556.907	24.8
557.104	24.84
557.3	24.95
557.496	25.05
557.693	25.12
557.889	25.17
558.085	25.23
558.281	25.31
558.478	25.29
558.674	25.43
558.87	25.42
559.066	25.46
559.262	25.5
559.459	25.54
559.655	25.62
559.851	25.66
560.047	25.65
560.243	25.7
560.439	25.78
560.635	25.86
560.831	25.88
561.027	26.04
561.223	26.1
561.419	26.21
561.615	26.31
561.811	26.37
562.007	26.45
562.203	26.55
562.399	26.57
562.595	26.59
562.791	26.6
562.987	26.69
563.183	26.75
563.379	26.79
563.575	26.84
563.771	26.9
563.966	26.96
564.162	27
564.358	27.05
564.554	27.1
564.75	27.25
564.945	27.33
565.141	27.38
565.337	27.37
565.533	27.51
565.728	27.56
565.924	27.61
566.12	27.67
566.315	27.81
566.511	27.89
566.707	27.96
566.902	27.98
567.098	28.06
567.293	28.12
567.489	28.2
567.684	28.14
567.88	28.19
568.076	28.26
568.271	28.32
568.467	28.35
568.662	28.39
568.858	28.44
569.053	28.46
569.248	28.5
569.444	28.55
569.639	28.63
569.835	28.74
570.03	28.81
570.225	28.89
570.421	28.98
570.616	28.99
570.812	29.01
571.007	29.1
571.202	29.17
571.397	29.23
571.593	29.31
571.788	29.37
571.983	29.4
572.178	29.47
572.374	29.51
572.569	29.59
572.764	29.68
572.959	29.71
573.154	29.75
573.35	29.89
573.545	29.92
573.74	29.94
573.935	29.98
574.13	30.08
574.325	30.12
574.52	30.15
574.715	30.1
574.91	30.16
575.105	30.23
575.3	30.29
575.495	30.25
575.69	30.34
575.885	30.4
576.08	30.4
576.275	30.44
576.47	30.46
576.665	30.5
576.86	30.6
577.055	30.62
577.25	30.75
577.444	30.8
577.639	30.89
577.834	30.94
578.029	31.02
578.224	31.07
578.418	31.1
578.613	31.17
578.808	31.26
579.003	31.3
579.197	31.36
579.392	31.37
579.587	31.4
579.781	31.4
579.976	31.39
580.171	31.38
580.365	31.5
580.56	31.6
580.755	31.63
580.949	31.66
581.144	31.71
581.338	31.81
581.533	31.76
581.727	31.87
581.922	31.96
582.116	32.03
582.311	32.06
582.505	32.1
582.7	32.08
582.894	32.16
583.089	32.15
583.283	32.15
583.478	32.15
583.672	32.32
583.866	32.35
584.061	32.42
584.255	32.54
584.449	32.64
584.644	32.72
584.838	32.77
585.032	32.84
585.226	32.88
585.421	32.96
585.615	32.91
585.809	32.86
586.003	32.87
586.198	32.88
586.392	32.86
586.586	32.89
586.78	32.96
586.974	33.02
587.168	33.11
587.363	33.1
587.557	33.13
587.751	33.21
587.945	33.21
588.139	33.15
588.333	33.1
588.527	33.15
588.721	33.23
588.915	33.23
589.109	33.28
589.303	33.2
589.497	33.31
589.691	33.37
589.885	33.46
590.079	33.57
590.273	33.68
590.466	33.82
590.66	33.87
590.854	33.86
591.048	33.82
591.242	33.83
591.436	33.92
591.629	33.94
591.823	33.99
592.017	34.07
592.211	34.04
592.404	34.08
592.598	34.06
592.792	34.09
592.986	34.15
593.179	34.29
593.373	34.31
593.567	34.29
593.76	34.35
593.954	34.3
594.147	34.26
594.341	34.28
594.535	34.41
594.728	34.46
594.922	34.45
595.115	34.46
595.309	34.35
595.502	34.45
595.696	34.44
595.889	34.48
596.083	34.54
596.276	34.54
596.47	34.67
596.663	34.63
596.856	34.66
597.05	34.71
597.243	34.78
597.437	34.92
597.63	34.87
597.823	34.99
598.017	34.99
598.21	34.99
598.403	35.05
598.596	34.96
598.79	35.02
598.983	35.07
599.176	35.13
599.369	35.1
599.563	35.09
599.756	35.17
599.949	35.14
600.142	35.14
600.335	35.28
600.528	35.28
600.722	35.33
600.915	35.38
601.108	35.4
601.301	35.44
601.494	35.41
601.687	35.41
601.88	35.41
602.073	35.41
602.266	35.45
602.459	35.47
602.652	35.51
602.845	35.59
603.038	35.59
603.231	35.56
603.424	35.59
603.617	35.67
603.809	35.71
604.002	35.78
604.195	35.87
604.388	35.92
604.581	35.87
604.774	35.92
604.966	35.9
605.159	35.87
605.352	35.94
605.545	35.94
605.737	35.97
605.93	35.98
606.123	35.98
606.316	36
606.508	36.05
606.701	36.18
606.894	36.2
607.086	36.22
607.279	36.2
607.471	36.3
607.664	36.33
607.857	36.35
608.049	36.43
608.242	36.48
608.434	36.52
608.627	36.64
608.819	36.65
609.012	36.72
609.204	36.74
609.397	36.88
609.589	36.9
609.782	36.97
609.974	37.05
610.166	37.17
610.359	37.31
610.551	37.37
610.743	37.32
610.936	37.36
611.128	37.42
611.32	37.54
611.513	37.51
611.705	37.56
611.897	37.52
612.09	37.49
612.282	37.38
612.474	37.3
612.666	37.36
612.858	37.35
613.051	37.4
613.243	37.33
613.435	37.25
613.627	37.3
613.819	37.32
614.011	37.4
614.203	37.42
614.395	37.41
614.588	37.35
614.78	37.26
614.972	37.27
615.164	37.23
615.356	37.26
615.548	37.33
615.74	37.36
615.932	37.36
616.124	37.33
616.315	37.35
616.507	37.36
616.699	37.38
616.891	37.46
617.083	37.48
617.275	37.58
617.467	37.6
617.659	37.54
617.85	37.56
618.042	37.53
618.234	37.65
618.426	37.72
618.618	37.8
618.809	37.86
619.001	37.82
619.193	37.95
619.384	37.87
619.576	37.91
619.768	38.03
619.959	37.99
620.151	38.07
620.343	38
620.534	38.01
620.726	37.96
620.917	37.97
621.109	37.98
621.301	37.83
621.492	37.82
621.684	37.78
621.875	37.8
622.067	37.94
622.258	37.91
622.45	37.93
622.641	37.98
622.832	37.97
623.024	38
623.215	38.06
623.407	38.19
623.598	38.32
623.789	38.38
623.981	38.37
624.172	38.48
624.363	38.46
624.555	38.54
624.746	38.49
624.937	38.57
625.129	38.56
625.32	38.46
625.511	38.57
625.702	38.62
625.893	38.64
626.085	38.66
626.276	38.62
626.467	38.67
626.658	38.67
626.849	38.73
627.04	38.75
627.231	38.83
627.422	39.03
627.614	38.99
627.805	39.04
627.996	39.1
628.187	39.14
628.378	39.19
628.569	39.18
628.76	39.17
628.951	39.18
629.142	39.18
629.332	39.12
629.523	39.05
629.714	39.04
629.905	39.05
630.096	39.06
630.287	39.11
630.478	39.03
630.669	39.12
630.859	39.15
631.05	39.23
631.241	39.31
631.432	39.4
631.623	39.44
631.813	39.43
632.004	39.31
632.195	39.36
632.385	39.29
632.576	39.42
632.767	39.46
632.957	39.47
633.148	39.48
633.339	39.47
633.529	39.45
633.72	39.41
633.91	39.37
634.101	39.5
634.292	39.41
634.482	39.49
634.673	39.42
634.863	39.37
635.054	39.43
635.244	39.3
635.435	39.36
635.625	39.37
635.815	39.37
636.006	39.45
636.196	39.47
636.387	39.58
636.577	39.61
636.767	39.61
636.958	39.66
637.148	39.67
637.338	39.82
637.529	39.78
637.719	39.87
637.909	39.97
638.099	40.05
638.29	40.02
638.48	40.07
638.67	40.03
638.86	40.09
639.05	40.06
639.241	40.11
639.431	40.08
639.621	40.07
639.811	40.14
640.001	40.03
640.191	40.08
640.381	40.07
640.571	40.04
640.761	40.04
640.951	40.05
641.141	40.08
641.331	40.04
641.521	39.95
641.711	40
641.901	39.88
642.091	39.99
642.281	39.9
642.471	39.86
642.661	39.87
642.851	40.02
643.041	39.94
643.231	39.85
643.42	39.85
643.61	39.96
643.8	39.99
643.99	40.12
644.18	40.13
644.369	40.22
644.559	40.32
644.749	40.33
644.939	40.31
645.128	40.34
645.318	40.49
645.508	40.65
645.697	40.73
645.887	40.75
646.076	40.77
646.266	40.82
646.456	40.8
646.645	40.78
646.835	40.76
647.024	40.76
647.214	40.82
647.403	40.79
647.593	40.71
647.782	40.69
647.972	40.68
648.161	40.58
648.351	40.59
648.54	40.6
648.73	40.64
648.919	40.81
649.108	40.77
649.298	40.74
649.487	40.81
649.677	40.82
649.866	40.8
650.055	40.81
650.244	40.89
650.434	40.92
650.623	40.96
650.812	40.97
651.002	40.82
651.191	40.82
651.38	40.83
651.569	40.9
651.758	40.99
651.947	40.95
652.137	40.9
652.326	40.81
652.515	40.79
652.704	40.78
652.893	40.87
653.082	41.02
653.271	41.07
653.46	41.17
653.649	41.14
653.838	41.06
654.027	41.08
654.216	41.13
654.405	41.18
654.594	41.19
654.783	41.24
654.972	41.2
655.161	41.12
655.35	41.13
655.539	41.1
655.728	41.01
655.916	41.04
656.105	41.14
656.294	41.17
656.483	41.16
656.672	41.21
656.86	41.24
657.049	41.22
657.238	41.24
657.427	41.16
657.615	41.22
657.804	41.3
657.993	41.33
658.181	41.34
658.37	41.36
658.559	41.45
658.747	41.4
658.936	41.27
659.125	41.31
659.313	41.31
659.502	41.41
659.69	41.43
659.879	41.46
660.067	41.55
660.256	41.44
660.444	41.53
660.633	41.46
660.821	41.5
661.01	41.62
661.198	41.61
661.387	41.67
661.575	41.78
661.763	41.81
661.952	41.81
662.14	41.69
662.328	41.88
662.517	41.87
662.705	42.01
662.893	42.03
663.082	42.1
663.27	42.02
663.458	41.89
663.646	41.79
663.834	41.78
664.023	41.75
664.211	41.79
664.399	41.71
664.587	41.71
664.775	41.55
664.963	41.58
665.152	41.53
665.34	41.68
665.528	41.84
665.716	41.79
665.904	41.76
666.092	41.83
666.28	41.92
666.468	42.05
666.656	42.02
666.844	42.23
667.032	42.27
667.22	42.47
667.408	42.45
667.596	42.51
667.784	42.64
667.971	42.8
668.159	42.81
668.347	42.71
668.535	42.62
668.723	42.75
668.911	42.66
669.098	42.66
669.286	42.55
669.474	42.52
669.662	42.39
669.849	42.38
670.037	42.17
670.225	42.12
670.413	42.12
670.6	42.3
670.788	42.25
670.976	42.37
671.163	42.43
671.351	42.4
671.538	42.48
671.726	42.65
671.913	42.59
672.101	42.65
672.289	42.82
672.476	43.01
672.664	42.97
672.851	42.84
673.039	42.55
673.226	42.37
673.413	42.31
673.601	42.33
673.788	42.29
673.976	42.38
674.163	42.59
674.35	42.4
674.538	42.33
674.725	42.23
674.912	42.27
675.1	42.44
675.287	42.53
675.474	42.64
675.662	42.71
675.849	42.63
676.036	42.73
676.223	42.69
676.411	42.72
676.598	42.68
676.785	42.78
676.972	42.87
677.159	42.92
677.346	42.97
677.533	43.02
677.721	43.07
677.908	43.05
678.095	42.93
678.282	42.96
678.469	43.03
678.656	43.14
678.843	43.15
679.03	43.08
679.217	43.16
679.404	43.13
679.591	43.08
679.778	42.96
679.964	43
680.151	43.04
680.338	42.97
680.525	43.01
680.712	42.89
680.899	42.82
681.086	42.9
681.272	42.84
681.459	42.95
681.646	42.99
681.833	42.99
682.02	42.97
682.206	42.98
682.393	43.02
682.58	42.87
682.766	42.99
682.953	43
683.14	43
683.326	43.06
683.513	43.1
683.7	43.14
683.886	43.12
684.073	43.27
684.259	43.29
684.446	43.27
684.632	43.39
684.819	43.26
685.005	43.37
685.192	43.46
685.378	43.45
685.565	43.28
685.751	43.25
685.938	43.36
686.124	43.35
686.31	43.38
686.497	43.29
686.683	43.33
686.87	43.42
687.056	43.33
687.242	43.16
687.429	43.17
687.615	43.23
687.801	43.34
687.987	43.24
688.174	43.17
688.36	43.19
688.546	43.27
688.732	43.14
688.918	43.18
689.105	43.23
689.291	43.35
689.477	43.3
689.663	43.4
689.849	43.27
690.035	43.4
690.221	43.42
690.407	43.34
690.593	43.2
690.779	43.42
690.965	43.47
691.151	43.6
691.337	43.66
691.523	43.74
691.709	43.68
691.895	43.71
692.081	43.57
692.267	43.57
692.453	43.55
692.639	43.8
692.825	43.7
693.011	43.66
693.196	43.52
693.382	43.57
693.568	43.51
693.754	43.43
693.94	43.48
694.125	43.65
694.311	43.73
694.497	43.86
694.682	43.7
694.868	43.85
695.054	43.73
695.239	43.65
695.425	43.48
695.611	43.6
695.796	43.59
695.982	43.62
696.168	43.47
696.353	43.48
696.539	43.52
696.724	43.67
696.91	43.6
697.095	43.67
697.281	43.73
697.466	43.74
697.652	43.61
697.837	43.69
698.023	43.69
698.208	43.83
698.393	43.85
698.579	43.78
698.764	43.74
698.949	43.69
699.135	43.69
699.32	43.79
699.505	43.8
699.691	43.88
699.876	43.86
700.061	43.82
700.246	43.69
700.432	43.63
700.617	43.62
700.802	43.55
700.987	43.57
701.172	43.67
701.358	43.56
701.543	43.64
701.728	43.66
701.913	43.88
702.098	43.99
702.283	44.11
702.468	44.1
702.653	44.19
702.838	44.42
703.023	44.39
703.208	44.36
703.393	44.39
703.578	44.36
703.763	44.27
703.948	43.97
704.133	43.82
704.318	43.62
704.503	43.74
704.688	43.68
704.873	43.59
705.057	43.77
705.242	43.64
705.427	43.67
705.612	43.79
705.797	43.93
705.981	44.15
706.166	44.37
706.351	44.46
706.536	44.31
706.72	44.17
706.905	44.14
707.09	44.26
707.274	44.34
707.459	44.17
707.644	44.06
707.828	44.22
708.013	44.19
708.197	44.07
708.382	44.09
708.567	44.2
708.751	44.36
708.936	44.21
709.12	44
709.305	43.98
709.489	44.12
709.673	44.09
709.858	43.76
710.042	43.7
710.227	43.67
710.411	43.67
710.596	43.64
710.78	43.53
710.964	43.7
711.149	43.79
711.333	43.87
711.517	43.88
711.702	43.9
711.886	43.96
712.07	43.89
712.254	43.91
712.438	43.86
712.623	43.81
712.807	43.8
712.991	43.61
713.175	43.63
713.359	43.54
713.544	43.55
713.728	43.63
713.912	43.74
714.096	43.75
714.28	43.8
714.464	43.85
714.648	43.93
714.832	43.96
715.016	44.03
715.2	43.86
715.384	43.8
715.568	43.64
715.752	43.55
715.936	43.61
716.12	43.55
716.304	43.47
716.488	43.41
716.671	43.31
716.855	43.32
717.039	43.41
717.223	43.35
717.407	43.49
717.59	43.6
717.774	43.75
717.958	43.72
718.142	43.89
718.325	43.86
718.509	43.89
718.693	43.96
718.877	43.95
719.06	44.01
719.244	44.17
719.428	44.2
719.611	44.28
719.795	44.12
719.978	44.08
720.162	44.25
720.345	44.25
720.529	44.13
720.713	44.13
720.896	44.16
721.08	44.13
721.263	44.06
721.446	44.01
721.63	43.97
721.813	44.03
721.997	43.97
722.18	43.84
722.364	43.89
722.547	44.17
722.73	44.26
722.914	44.33
723.097	44.3
723.28	44.4
723.464	44.47
723.647	44.52
723.83	44.52
724.013	44.54
724.197	44.49
724.38	44.53
724.563	44.48
724.746	44.56
724.929	44.38
725.112	44.14
725.296	44.27
725.479	43.94
725.662	43.85
725.845	43.85
726.028	43.7
726.211	43.52
726.394	43.69
726.577	43.69
726.76	43.37
726.943	43.45
727.126	43.56
727.309	43.51
727.492	43.64
727.675	43.63
727.858	43.48
728.041	43.43
728.224	43.71
728.407	43.59
728.589	43.53
728.772	43.81
728.955	43.89
729.138	43.98
729.321	43.76
729.503	44.11
729.686	44.06
729.869	44.26
730.052	44.33
730.234	44.11
730.417	44.05
730.6	43.94
730.782	43.59
730.965	43.56
731.148	43.51
731.33	43.5
731.513	43.08
731.695	43.07
731.878	43.06
732.061	43.2
732.243	43.31
732.426	43.18
732.608	43.35
732.791	43.55
732.973	43.45
733.156	43.38
733.338	43.44
733.52	43.6
733.703	43.7
733.885	43.63
734.068	43.34
734.25	43.25
734.432	43.39
734.615	43.43
734.797	43.41
734.979	43.42
735.162	43.58
735.344	43.52
735.526	43.39
735.708	43.43
735.891	43.5
736.073	43.78
736.255	43.75
736.437	43.67
736.619	43.49
736.802	43.62
736.984	43.82
737.166	43.94
737.348	43.86
737.53	43.96
737.712	43.93
737.894	43.87
738.076	43.88
738.258	43.93
738.44	43.85
738.622	43.93
738.804	43.79
738.986	43.77
739.168	43.54
739.35	43.71
739.532	43.62
739.714	43.5
739.896	43.36
740.078	43.11
740.259	43.05
740.441	43.16
740.623	43.09
740.805	42.88
740.987	42.78
741.168	42.61
741.35	42.58
741.532	42.72
741.714	42.87
741.895	43.03
742.077	43.32
742.259	43.51
742.44	43.54
742.622	43.46
742.804	43.82
742.985	43.66
743.167	43.97
743.348	43.92
743.53	44.11
743.711	43.85
743.893	43.61
744.075	43.46
744.256	43.32
744.438	43.14
744.619	43.27
744.8	43.16
744.982	43.36
745.163	43.31
745.345	43.27
745.526	42.96
745.707	43.12
745.889	43.36
746.07	43.5
746.252	43.47
746.433	43.78
746.614	43.73
746.795	43.66
746.977	43.53
747.158	43.64
747.339	43.82
747.52	43.95
747.702	44.02
747.883	43.92
748.064	43.71
748.245	43.53
748.426	43.29
748.607	43.3
748.788	43.22
748.97	43.21
749.151	42.97
749.332	42.8
749.513	42.81
749.694	42.81
749.875	42.78
750.056	42.96
750.237	42.93
750.418	42.94
750.599	42.93
750.78	43.08
750.96	42.98
751.141	43.12
751.322	43.3
751.503	42.9
751.684	42.98
751.865	43.18
752.046	43.22
752.226	43.35
752.407	43.46
752.588	43.27
752.769	43.65
752.949	43.86
753.13	43.89
753.311	43.72
753.492	43.92
753.672	43.69
753.853	43.43
754.034	43.32
754.214	43.82
754.395	43.7
754.575	43.95
754.756	43.12
754.937	42.92
755.117	42.95
755.298	42.89
755.478	43.13
755.659	43.46
755.839	43.35
756.02	43.37
756.2	42.83
756.381	42.69
756.561	42.26
756.741	43.06
756.922	42.97
757.102	42.8
757.283	42.85
757.463	42.44
757.643	41.93
757.823	42.04
758.004	41.56
758.184	41.67
758.364	42.03
758.545	42.28
758.725	41.81
758.905	41.85
759.085	42
759.265	41.88
759.446	42.09
759.626	42.6
759.806	42.85
759.986	43.14
760.166	43.24
760.346	42.95
760.526	42.92
760.706	42.79
760.886	42.9
761.066	42.8
761.246	42.96
761.426	43.04
761.606	42.8
761.786	42.48
761.966	42.46
762.146	42.31
762.326	42.29
762.506	42.48
762.686	42.75
762.866	42.66
763.046	42.57
763.225	42.48
763.405	42.42
763.585	42.59
763.765	42.92
763.945	43.07
764.124	43.03
764.304	43.2
764.484	43.21
764.664	43.06
764.843	43.18
765.023	43.37
765.203	43.42
765.382	43.65
765.562	43.43
765.741	43.21
765.921	43.12
766.101	43.51
766.28	43.23
766.46	43.14
766.639	43.27
766.819	43.22
766.998	43.35
767.178	43.44
767.357	43.32
767.537	43.29
767.716	43.3
767.896	43.39
768.075	42.97
768.254	43.3
768.434	43.5
768.613	43.46
768.792	43.66
768.972	43.42
769.151	43.2
769.33	43.06
769.51	43.12
769.689	43.2
769.868	43.2
770.047	43.46
770.226	43.52
770.406	42.93
770.585	42.63
770.764	42.83
770.943	43.01
771.122	43.43
771.301	43.76
771.48	43.9
771.66	43.79
771.839	43.57
772.018	43.67
772.197	43.54
772.376	43.8
772.555	44.21
772.734	43.88
772.913	43.47
773.092	43.56
773.271	43.35
773.449	43.14
773.628	43.41
773.807	43.21
773.986	43.09
774.165	43.23
774.344	43.42
774.523	43.44
774.701	43.52
774.88	43.31
775.059	43.03
775.238	43.09
775.417	42.72
775.595	42.67
775.774	43.04
775.953	43.23
776.131	43.1
776.31	42.82
776.489	42.36
776.667	42.31
776.846	42.65
777.025	42.3
777.203	42.1
777.382	42.25
777.56	41.82
777.739	42.09
777.917	42.06
778.096	41.96
778.274	42.33
778.453	42.96
778.631	42.45
778.81	42.53
778.988	42.69
779.166	42.64
779.345	42.65
779.523	42.98
779.702	42.67
779.88	42.83
780.058	43.11
780.237	42.81
780.415	42.38
780.593	43.08
780.771	43.21
780.95	43.85
781.128	43.79
781.306	44.14
781.484	44.25
781.662	44.12
781.841	43.62
782.019	43.21
782.197	43.6
782.375	43.81
782.553	43.62
782.731	43.69
782.909	42.81
783.087	43.25
783.265	43.51
783.443	43.16
783.621	43.14
783.799	43.21
783.977	43.63
784.155	43.36
784.333	43.19
784.511	43.1
784.689	42.95
784.867	43.62
785.045	42.95
785.223	42.83
785.4	42.66
785.578	42.92
785.756	43.07
785.934	42.58
786.112	42.61
786.289	42.58
786.467	42.28
786.645	41.84
786.823	41.36
787	41.52
787.178	41.35
787.356	41.53
787.533	41.22
787.711	41.12
787.889	41.17
788.066	40.91
788.244	40.98
788.421	41.02
788.599	41.76
788.776	42.13
788.954	41.97
789.131	42.13
789.309	42.15
789.486	42.43
789.664	42.19
789.841	42.56
790.019	42.53
790.196	42.43
790.373	41.96
790.551	41.79
790.728	41.38
790.906	41.72
791.083	41.28
791.26	41.12
791.437	41.02
791.615	41.17
791.792	40.9
791.969	41.01
792.146	40.63
792.324	41.03
792.501	40.65
792.678	40.63
792.855	40.51
793.032	40.91
793.209	40.79
793.387	41.22
793.564	40.93
793.741	40.27
793.918	40.06
794.095	40.52
794.272	41.09
794.449	41.15
794.626	41.48
794.803	41.32
794.98	41.02
795.157	41.28
795.334	41.03
795.511	41.1
795.688	41.51
795.864	41.89
796.041	42.03
796.218	41.81
796.395	42.19
796.572	42.14
796.749	42.08
796.925	42.21
797.102	41.99
797.279	41.98
797.456	42.23
797.632	42.51
797.809	42.36
797.986	41.75
798.162	42.01
798.339	41.44
798.516	41.24
798.692	41.62
798.869	42
799.046	41.73
799.222	41.59
799.399	42
799.575	41.84
799.752	41.84
799.928	42.04
800.105	41.85
800.281	41.92
800.458	41.94
800.634	41.79
800.811	41.26
800.987	41.65
801.163	41.41
801.34	40.61
801.516	40.93
801.692	40.89
801.869	41.49
802.045	41.32
802.221	41.84
802.398	41.97
802.574	42.24
802.75	42.48
802.926	42.45
803.103	42.62
803.279	43.52
803.455	43.27
803.631	43.35
803.807	42.68
803.983	43.05
804.16	41.71
804.336	41.23
804.512	40.9
804.688	41.16
804.864	41.61
805.04	41.7
805.216	40.35
805.392	40.01
805.568	40.03
805.744	40.66
805.92	40.5
806.096	41.58
806.272	41.62
806.448	41.84
806.623	41.23
806.799	40.9
806.975	40.93
807.151	41.75
807.327	41.5
807.503	42.03
807.678	42.08
807.854	41.68
808.03	41.42
808.206	41.07
808.381	40.8
808.557	41.14
808.733	41.59
808.908	41.61
809.084	41.41
809.26	42.23
809.435	41.47
809.611	41.46
809.787	41.84
809.962	41.54
810.138	42.04
810.313	42.55
810.489	42.19
810.664	42.02
810.84	41.58
811.015	41.67
811.191	41.01
811.366	41.02
811.542	40.44
811.717	40.3
811.892	41
812.068	41.71
812.243	41.18
812.419	41.67
812.594	41.32
812.769	41.4
812.944	41.23
813.12	41
813.295	40.8
813.47	41.03
813.645	40.39
813.821	40.17
813.996	39.26
814.171	39.07
814.346	38.36
814.521	38.37
814.697	38.71
814.872	38.9
815.047	39.54
815.222	39.6
815.397	39.61
815.572	40.4
815.747	40.29
815.922	40.48
816.097	40.76
816.272	41.33
816.447	40.94
816.622	40.49
816.797	40.03
816.972	40.47
817.147	41.07
817.322	41.33
817.496	40.85
817.671	41.37
817.846	40.76
818.021	40.55
818.196	40.17
818.371	40.34
818.545	40.53
818.72	40.82
818.895	40.69
819.069	40.75
819.244	40.86
819.419	41.08
819.594	40.5
819.768	40.93
819.943	40.63
820.117	40.44
820.292	40.37
820.467	40.29
820.641	40.28
820.816	40.18
820.99	40.07
821.165	39.86
821.339	39.68
821.514	39.73
821.688	39.73
821.863	39.9
822.037	39.98
822.212	40.01
822.386	40.05
822.56	40.02
822.735	39.95
822.909	39.97
823.084	39.98
823.258	40.16
823.432	40.06
823.606	40.02
823.781	40.02
823.955	39.93
824.129	40.02
824.303	40.1
824.478	40.21
824.652	40.4
824.826	40.11
825	40.43
825.174	40.53
825.348	40.7
825.523	40.84
825.697	40.66
825.871	41.02
826.045	40.88
826.219	40.75
826.393	40.62
826.567	40.71
826.741	41.22
826.915	41.14
827.089	41.31
827.263	41.35
827.437	41.4
827.611	41.59
827.784	41.12
827.958	40.96
828.132	41.11
828.306	41.32
828.48	41.06
828.654	40.47
828.827	40.03
829.001	39.36
829.175	39.37
829.349	39.1
829.522	38.64
829.696	39
829.87	39.15
830.044	39.63
830.217	39.29
830.391	38.9
830.565	38.99
830.738	39
830.912	39.66
831.085	39.74
831.259	39.85
831.432	40.45
831.606	40.17
831.779	40.5
831.953	40.1
832.126	40.06
832.3	40.27
832.473	40.41
832.647	40.63
832.82	40.29
832.994	40.23
833.167	39.84
833.34	39.52
833.514	39.62
833.687	39.56
833.86	39.08
834.034	39.32
834.207	39.45
834.38	39.28
834.553	39.11
834.727	38.95
834.9	39.06
835.073	39.41
835.246	39.66
835.419	39.86
835.593	40.16
835.766	40.48
835.939	40.2
836.112	40.11
836.285	40.08
836.458	41.27
836.631	41.16
836.804	40.29
836.977	39.81
837.15	39.51
837.323	39.71
837.496	38.94
837.669	38.92
837.842	38.82
838.015	39.43
838.188	39.73
838.361	38
838.533	38.14
838.706	38.83
838.879	39.13
839.052	39.8
839.225	39.05
839.398	39.96
839.57	40.23
839.743	40.11
839.916	39.51
840.088	39.88
840.261	40.85
840.434	41.37
840.607	41.66
840.779	41.79
840.952	41.22
841.124	41.43
841.297	40.45
841.47	40.77
841.642	41.16
841.815	40.57
841.987	40.98
842.16	40.45
842.332	40.49
842.505	40.32
842.677	40.96
842.85	42.38
843.022	42.65
843.194	44.33
843.367	44.62
843.539	45.41
843.712	46.39
843.884	45.37
844.056	46.21
844.229	46.29
844.401	46.71
844.573	47.45
844.745	46.04
844.918	45.5
845.09	45.47
845.262	43.75
845.434	43.73
845.606	44.71
845.779	45.14
845.951	44.4
846.123	44.92
846.295	43.85
846.467	42.36
846.639	41.36
846.811	42.48
846.983	41.85
847.155	42.79
847.327	40.99
847.499	38.14
847.671	37.81
847.843	37.39
848.015	36.13
848.187	36.64
848.359	36.46
848.531	39.2
848.703	38.08
848.875	36.25
849.047	36.27
849.218	37.6
849.39	39.24
849.562	38.27
849.734	37.88
849.905	38.67
850.077	39.55
850.249	39.48
850.421	36.51
850.592	37.29
850.764	38.94
850.936	37.37
851.107	36.63
851.279	36.03
851.451	36.17
851.622	36.65
851.794	36.41
851.965	36.66
852.137	37.63
852.308	36.95
852.48	37.6
852.651	37.94
852.823	38.63
852.994	39.5
853.166	42.16
853.337	43.97
853.509	42.6
853.68	41.97
853.851	41.09
854.023	39.42
854.194	41.63
854.365	39.47
854.537	39.4
854.708	40.14
854.879	38.35
855.05	36.29
855.222	36.06
855.393	36.05
855.564	35.96
855.735	35.26
855.906	36.74
856.078	36.89
856.249	40.66
856.42	38.07
856.591	38.33
856.762	40.43
856.933	41.92
857.104	40.46
857.275	41.58
857.446	41.59
857.617	38.23
857.788	35.79
857.959	34.61
858.13	31.78
858.301	31.58
858.472	31.22
858.643	27.96
858.814	27.33
858.985	28.36
859.155	28.23
859.326	30.25
859.497	34.43
859.668	34.66
859.839	36.38
860.009	37.32
860.18	36.86
860.351	37.1
860.522	39.44
860.692	41.82
860.863	42.14
861.034	41.89
861.204	40.15
861.375	39.94
861.546	42.47
861.716	41.51
861.887	41.6
862.057	46.37
862.228	45.39
862.398	44.63
862.569	42.62
862.739	44.17
862.91	44.59
863.08	45.02
863.251	42.83
863.421	39.63
863.592	40.45
863.762	40.25
863.932	35.92
864.103	35.33
864.273	36.25
864.443	36.06
864.614	33.25
864.784	33.54
864.954	33.28
865.125	33.92
865.295	36.85
865.465	35.43
865.635	34.1
865.805	36.75
865.976	36.59
866.146	35.57
866.316	35
866.486	35.94
866.656	35.39
866.826	35.15
866.996	37.95
867.166	35.87
867.336	37.45
867.506	39.67
867.676	38.31
867.846	39.2
868.016	40.14
868.186	36.44
868.356	38.28
868.526	36.62
868.696	38.24
868.866	38.28
869.036	40.01
869.206	40.17
869.376	36.73
869.545	36.71
869.715	36.68
869.885	36.43
870.055	39.11
870.224	37.94
870.394	40.13
870.564	40.88
870.734	38.33
870.903	36.77
871.073	36.28
871.243	41.18
871.412	43.7
871.582	44.73
871.751	45.61
871.921	45.93
872.091	43.24
872.26	42.34
872.43	39.37
872.599	41.16
872.769	41.07
872.938	39.33
873.108	36.14
873.277	32.22
873.446	34.68
873.616	32.99
873.785	33.89
873.955	36.39
874.124	35.9
874.293	38.35
874.463	37.67
874.632	39.11
874.801	39.11
874.971	39.72
875.14	40.23
875.309	36.68
875.478	38.14
875.647	38.04
875.817	38.97
875.986	38.67
876.155	35.81
876.324	33.38
876.493	34.54
876.662	36.58
876.831	36.65
877	39.34
877.17	42.35
877.339	43.52
877.508	44.14
877.677	43.49
877.846	44.92
878.015	43.98
878.184	45.96
878.352	45.01
878.521	43.44
878.69	42.05
878.859	41.21
879.028	41.4
879.197	39.64
879.366	39.74
879.534	38.93
879.703	37.41
879.872	37.93
880.041	38.31
880.21	37.82
880.378	37.72
880.547	38.26
880.716	38.7
880.884	37.83
881.053	38.01
881.222	37.38
881.39	37.49
881.559	38.12
881.727	38.11
881.896	37.94
882.065	37.82
882.233	37.97
882.402	38.05
882.57	37.67
882.739	37.61
882.907	37.83
883.076	38.52
883.244	38.53
883.412	38.64
883.581	39.09
883.749	39.35
883.918	39.99
884.086	41.14
884.254	40.94
884.423	40.94
884.591	42.04
884.759	41.11
884.927	40.63
885.096	40.74
885.264	40.82
885.432	40.29
885.6	39.14
885.769	38.91
885.937	37.17
886.105	38.17
886.273	38.32
886.441	37.94
886.609	38.63
886.777	37.86
886.945	37.14
887.113	35.49
887.281	33.83
887.449	36.42
887.617	34.88
887.785	34.15
887.953	32.78
888.121	33.07
888.289	32.08
888.457	34.03
888.625	33.23
888.793	34.81
888.961	33.01
889.129	36.97
889.296	35.53
889.464	36.78
889.632	36.92
889.8	36.46
889.967	36.68
890.135	37.52
