Data from JASIL_3080_Reflection_01.txt Node
Date: Mon Nov 09 11:55:03 EST 2015
User: Geneva
Spectrometer: USB4E03002
Autoset integration time: false
Trigger mode: 4
Integration Time (sec): 1.000000E-1
Scans to average: 10
Electric dark correction enabled: false
Nonlinearity correction enabled: false
Boxcar width: 5
Stray light correction enabled: false
XAxis mode: Wavelengths
Stop averaging: false
Number of Pixels in Spectrum: 3648
>>>>>Begin Spectral Data<<<<<
177.575	-314.96
177.794	2505.26
178.014	-987.76
178.233	-246.82
178.452	-339.13
178.672	-211.76
178.891	-94.98
179.11	-277.08
179.33	-45.81
179.549	3.92
179.768	14.06
179.987	50.12
180.207	54.42
180.426	67.49
180.645	53.31
180.864	38.96
181.084	66.46
181.303	39.81
181.522	58.14
181.741	-272.73
181.96	-10.53
182.179	-38.46
182.398	-18.78
182.618	-0.54
182.837	-38.66
183.056	-108.99
183.275	-705.56
183.494	125.36
183.713	3800
183.932	1027.27
184.151	-23.53
184.37	-39.07
184.589	-8.13
184.808	-4.02
185.027	1.93
185.246	-25.33
185.465	0.51
185.684	25.12
185.903	-38.3
186.122	-260.38
186.341	-10.47
186.56	544.74
186.779	-77.46
186.998	-55.06
187.216	372
187.435	128.26
187.654	-2471.43
187.873	-611.76
188.092	-353
188.311	-52.48
188.53	-20.07
188.748	25.85
188.967	37.83
189.186	54.55
189.405	51.83
189.623	86.49
189.842	90.27
190.061	166.93
190.28	146.08
190.498	528.79
190.717	133.08
190.936	69.58
191.154	-16.14
191.373	-113.04
191.592	-79.72
191.81	-74.71
192.029	-4.93
192.248	36.39
192.466	32.66
192.685	45.12
192.904	22.67
193.122	35.57
193.341	51
193.559	52.04
193.778	60.51
193.996	76.37
194.215	98.09
194.433	137.29
194.652	104.71
194.87	118.79
195.089	170.52
195.307	356.7
195.526	387.04
195.744	497.14
195.963	201.4
196.181	202.15
196.399	112.36
196.618	113.68
196.836	91.26
197.055	91.81
197.273	93.79
197.491	70.5
197.71	72
197.928	87.2
198.146	99.81
198.365	100.23
198.583	104.08
198.801	61.48
199.019	62.29
199.238	80.56
199.456	22.94
199.674	147.92
199.892	-563.64
200.111	9.09
200.329	4633.33
200.547	25.57
200.765	46.47
200.983	42.54
201.202	113.71
201.42	69.84
201.638	55.83
201.856	62.48
202.074	47.12
202.292	57.05
202.51	59.82
202.728	42.18
202.946	65.65
203.165	60.79
203.383	71.06
203.601	53.4
203.819	67.73
204.037	70.04
204.255	86.63
204.473	126.42
204.691	107.64
204.909	142.98
205.127	138.04
205.345	131.92
205.562	157.86
205.78	106.04
205.998	104.29
206.216	126.71
206.434	114.86
206.652	95.69
206.87	78.34
207.088	62.22
207.306	42.96
207.523	35.67
207.741	22.48
207.959	-363.64
208.177	207.81
208.395	-78.13
208.612	-2622.22
208.83	-160.98
209.048	-20.39
209.266	1733.33
209.483	-34.09
209.701	-28.35
209.919	20.23
210.136	63.3
210.354	-45.16
210.572	109.8
210.79	70.43
211.007	-76.56
211.225	-0.96
211.442	25.17
211.66	70.16
211.878	102.21
212.095	1958.06
212.313	-1485.9
212.53	-2918.18
212.748	994.44
212.966	2517.14
213.183	-7016.67
213.401	680.42
213.618	519.46
213.836	1249.53
214.053	893.23
214.271	1819.23
214.488	89.72
214.705	59.04
214.923	63.67
215.14	86.96
215.358	79.22
215.575	74.22
215.793	38.52
216.01	17.56
216.227	-36.59
216.445	4.1
216.662	54.11
216.879	-19.87
217.097	-102.68
217.314	-100
217.531	157.95
217.749	90.62
217.966	210
218.183	0
218.4	-15.74
218.618	225.49
218.835	-408.82
219.052	-109.85
219.269	-109.55
219.487	-56.25
219.704	-748
219.921	-233.33
220.138	267.54
220.355	461.29
220.572	167.61
220.79	125.31
221.007	106.93
221.224	84.75
221.441	23.2
221.658	21.05
221.875	28.99
222.092	32.2
222.309	65.68
222.526	32.48
222.743	49.29
222.96	22.84
223.177	8.37
223.394	5.44
223.611	18.36
223.828	21.28
224.045	25.03
224.262	36.84
224.479	40.03
224.696	23.96
224.913	48.44
225.13	27.01
225.347	36.88
225.564	29.45
225.781	34.68
225.997	32.77
226.214	40.48
226.431	34.78
226.648	23.33
226.865	14.06
227.082	13.99
227.298	17.05
227.515	21.57
227.732	14.42
227.949	15.6
228.165	18.61
228.382	20.6
228.599	20.92
228.816	30.22
229.032	32.96
229.249	37.77
229.466	38.47
229.682	31.81
229.899	18.51
230.116	27.79
230.332	26.8
230.549	15.38
230.765	10.41
230.982	10.07
231.199	-10.9
231.415	-11.84
231.632	12.26
231.848	9.2
232.065	14.13
232.281	28.42
232.498	16.62
232.714	24.61
232.931	28.5
233.147	15.93
233.364	15.46
233.58	21.3
233.797	16.49
234.013	3.04
234.23	6.32
234.446	-2.96
234.662	3.6
234.879	-6.76
235.095	-15.29
235.312	-13.91
235.528	-1.84
235.744	-9
235.961	-11.33
236.177	-12.37
236.393	-11.47
236.61	-13.3
236.826	-10.38
237.042	-21.14
237.258	-3.88
237.475	2.42
237.691	7.29
237.907	5.65
238.123	4.89
238.339	6.88
238.556	5.79
238.772	14.04
238.988	14.83
239.204	15.9
239.42	12.87
239.636	21.27
239.853	17.89
240.069	19.94
240.285	21.5
240.501	20.46
240.717	17.56
240.933	19.31
241.149	14.83
241.365	14.55
241.581	12.61
241.797	15.92
242.013	14.91
242.229	12.69
242.445	7.73
242.661	6.4
242.877	7.5
243.093	11.5
243.309	5.17
243.525	3.79
243.741	4.63
243.957	0.16
244.173	-2.27
244.388	-0.79
244.604	0.9
244.82	2.76
245.036	2.04
245.252	1.84
245.468	-2.75
245.683	-0.75
245.899	1.71
246.115	3.72
246.331	7.96
246.547	6.63
246.762	4.89
246.978	4.65
247.194	2.89
247.409	3.27
247.625	2.1
247.841	4.35
248.057	4.15
248.272	-1.2
248.488	-11.24
248.703	-23.88
248.919	-20.4
249.135	-21.88
249.35	-22.38
249.566	-15.54
249.782	-21.92
249.997	-23.64
250.213	-17.2
250.428	-16.57
250.644	-9.91
250.859	-5.13
251.075	1.43
251.29	-1.3
251.506	-3
251.721	1.03
251.937	5.59
252.152	11.34
252.368	10.65
252.583	8.24
252.798	9.97
253.014	11.84
253.229	11.82
253.445	8.07
253.66	7.42
253.875	12.52
254.091	8.56
254.306	5.81
254.521	5.95
254.737	-1.38
254.952	-2.36
255.167	2.04
255.383	0.52
255.598	-0.96
255.813	1.16
256.028	1.51
256.244	-1.51
256.459	-4.45
256.674	-7.28
256.889	-3.86
257.104	3.38
257.32	4.98
257.535	-0.04
257.75	-2.65
257.965	-1.25
258.18	-1.09
258.395	-0.82
258.61	-0.3
258.826	0.52
259.041	0.22
259.256	-0.08
259.471	1.06
259.686	1.15
259.901	3.63
260.116	8.19
260.331	8.41
260.546	8.28
260.761	7.84
260.976	7.72
261.191	6.7
261.406	9.99
261.621	10.1
261.836	8.12
262.05	5.4
262.265	7.63
262.48	6.46
262.695	7.53
262.91	7.13
263.125	15.74
263.34	17
263.555	19.36
263.769	15.6
263.984	12.77
264.199	14.2
264.414	14.7
264.629	11.38
264.843	11.7
265.058	7.98
265.273	12.01
265.488	8.57
265.702	7.95
265.917	10.25
266.132	11.48
266.346	10.99
266.561	12.02
266.776	14.8
266.99	11.54
267.205	9.4
267.42	9.44
267.634	6.14
267.849	2.58
268.063	-0.49
268.278	-5.51
268.492	-7.25
268.707	-4.75
268.922	-7.94
269.136	-13.57
269.351	-8.97
269.565	-4.87
269.78	-2.06
269.994	-3.12
270.209	-2.4
270.423	1.2
270.637	3.79
270.852	4
271.066	2.65
271.281	2.7
271.495	3.47
271.709	1.79
271.924	-4.12
272.138	-7.26
272.353	-5.79
272.567	-3.1
272.781	-5.26
272.996	-6.5
273.21	-2.12
273.424	-4.9
273.638	-3.4
273.853	-0.38
274.067	1.13
274.281	1.53
274.495	5.5
274.71	7.39
274.924	4.49
275.138	5.38
275.352	0.16
275.566	-7.04
275.781	-1.29
275.995	-0.53
276.209	-2.1
276.423	-0.37
276.637	3.52
276.851	0.2
277.065	0.87
277.279	-0.42
277.493	-1.26
277.707	2.08
277.921	3.85
278.135	0.45
278.349	0.6
278.563	1.67
278.777	2.34
278.991	1.62
279.205	4.17
279.419	-0.48
279.633	-2.01
279.847	-2.26
280.061	-0.58
280.275	2.08
280.489	2.42
280.703	-1.28
280.917	-2.35
281.131	-4.51
281.344	-6.38
281.558	-10.41
281.772	-9.43
281.986	-6.29
282.2	-8.06
282.414	-9.45
282.627	-11.49
282.841	-11.16
283.055	-12.45
283.269	-13.46
283.482	-11.38
283.696	-8.63
283.91	-4.79
284.123	-5.5
284.337	-6.56
284.551	-5.73
284.764	-5.33
284.978	-6.78
285.192	-8.1
285.405	-3.83
285.619	-4.02
285.833	-2.81
286.046	-0.09
286.26	-2.64
286.473	-2.19
286.687	-1.71
286.9	0.83
287.114	0.42
287.327	2.08
287.541	4.51
287.754	2.43
287.968	3.77
288.181	1.25
288.395	-1.66
288.608	0.05
288.822	1.63
289.035	0.8
289.248	0.5
289.462	-0.97
289.675	-1.56
289.889	-2.83
290.102	-3.06
290.315	-3.64
290.529	-5.02
290.742	-7.09
290.955	-5.37
291.169	-6.66
291.382	-7.01
291.595	-8.48
291.808	-8.12
292.022	-6.55
292.235	-4.69
292.448	-5.16
292.661	-5.12
292.875	-3.77
293.088	-2.24
293.301	-4.5
293.514	-2.34
293.727	0.28
293.94	0.13
294.153	2.6
294.367	2.98
294.58	2.76
294.793	2.94
295.006	1.5
295.219	2.96
295.432	2.31
295.645	5.17
295.858	4.14
296.071	3.93
296.284	4.81
296.497	3.85
296.71	5.19
296.923	5.16
297.136	5.43
297.349	6.55
297.562	3.91
297.775	4.89
297.988	4.25
298.201	4.65
298.414	4.45
298.626	4.93
298.839	6.43
299.052	4.28
299.265	4.64
299.478	6.29
299.691	8.33
299.903	9.28
300.116	8.37
300.329	7.33
300.542	8.9
300.755	9.31
300.967	8.38
301.18	7.93
301.393	6.92
301.605	7.13
301.818	6.77
302.031	5.75
302.243	7.81
302.456	8.27
302.669	7.73
302.881	7.52
303.094	5.61
303.307	7.52
303.519	6.66
303.732	6.86
303.944	6.79
304.157	5.82
304.37	5.26
304.582	4.35
304.795	5.07
305.007	4.3
305.22	4.23
305.432	5.72
305.645	2.68
305.857	0.31
306.069	1.11
306.282	0.06
306.494	0.67
306.707	-1
306.919	-1.26
307.132	-3.03
307.344	0.38
307.556	-1.73
307.769	-3.31
307.981	-4.05
308.193	-1.84
308.406	-1.26
308.618	-0.72
308.83	-1.52
309.043	0.06
309.255	0.52
309.467	0.82
309.679	-0.08
309.892	-0.08
310.104	3.21
310.316	3.2
310.528	4
310.74	3.25
310.953	4.31
311.165	6.12
311.377	6.47
311.589	7.36
311.801	7.76
312.013	6.03
312.225	7.98
312.437	3.42
312.649	4.53
312.862	1.21
313.074	0.17
313.286	-2.59
313.498	-3.09
313.71	0.48
313.922	0.81
314.134	-0.02
314.346	0.6
314.558	2.14
314.77	4.59
314.982	6.69
315.193	9.76
315.405	10.06
315.617	9.67
315.829	6.74
316.041	3.46
316.253	2.7
316.465	5.41
316.677	6.51
316.888	2
317.1	5.05
317.312	2.36
317.524	-1
317.736	0.75
317.947	3.88
318.159	5.31
318.371	2.98
318.583	4.54
318.794	3.53
319.006	4.28
319.218	7.23
319.43	4.17
319.641	5.42
319.853	9.34
320.064	8.96
320.276	5.92
320.488	3.17
320.699	8.11
320.911	7.25
321.123	7.48
321.334	6.26
321.546	5.5
321.757	4.05
321.969	7.03
322.18	5.64
322.392	6.82
322.603	5.98
322.815	8.21
323.026	6.13
323.238	4.48
323.449	4.94
323.661	3.58
323.872	2.52
324.083	3.07
324.295	-1.35
324.506	-1.84
324.718	-4.17
324.929	-0.89
325.14	-0.59
325.352	-1
325.563	1.86
325.774	3.68
325.986	4.34
326.197	4.22
326.408	5.68
326.62	8.25
326.831	8.55
327.042	10.97
327.253	9.7
327.464	9.5
327.676	13.65
327.887	13.3
328.098	10.72
328.309	12.5
328.52	14.1
328.732	9.04
328.943	10.84
329.154	11.96
329.365	10.12
329.576	9.16
329.787	8.73
329.998	6.85
330.209	7.04
330.42	8.2
330.631	9.03
330.842	7.86
331.053	12.42
331.264	9.69
331.475	8.91
331.686	9.13
331.897	11.55
332.108	12.89
332.319	9.5
332.53	9.7
332.741	9.43
332.952	6.05
333.163	9.58
333.374	9.56
333.585	10.47
333.795	11.16
334.006	8.87
334.217	7.55
334.428	9
334.639	7.6
334.849	6.39
335.06	6.23
335.271	7.72
335.482	4.78
335.692	3.94
335.903	2.56
336.114	4.66
336.325	6.13
336.535	4.82
336.746	5.31
336.957	6.69
337.167	6.63
337.378	6.72
337.589	7.44
337.799	9.77
338.01	10.37
338.22	10.78
338.431	9
338.642	9.46
338.852	10.8
339.063	7.31
339.273	7.88
339.484	10.81
339.694	11.92
339.905	10.93
340.115	8.41
340.326	9.18
340.536	9
340.746	6.52
340.957	7.84
341.167	8.9
341.378	8.83
341.588	10.24
341.799	7.67
342.009	6.54
342.219	6.21
342.43	5.46
342.64	4.84
342.85	5.92
343.061	8.01
343.271	6.35
343.481	5.94
343.691	6.51
343.902	6.71
344.112	5.81
344.322	5.37
344.532	4.66
344.743	5.22
344.953	5.49
345.163	4.61
345.373	3.92
345.583	5.14
345.793	3.97
346.004	3.43
346.214	3.07
346.424	2.47
346.634	3.87
346.844	7.4
347.054	7.15
347.264	5.79
347.474	6.89
347.684	6.98
347.894	6.91
348.104	5.49
348.314	5.05
348.524	4.67
348.734	5.98
348.944	2.79
349.154	2.64
349.364	5.57
349.574	5.46
349.784	3.57
349.994	3.13
350.204	2.23
350.413	3.05
350.623	3.73
350.833	2.02
351.043	2.28
351.253	5.74
351.463	4.36
351.672	0.83
351.882	2.38
352.092	3.05
352.302	3.69
352.511	5.6
352.721	6.15
352.931	7.42
353.141	8.16
353.35	7.32
353.56	7.43
353.77	7.45
353.979	8.49
354.189	8.06
354.399	9.84
354.608	9.67
354.818	10.03
355.027	10.96
355.237	10.41
355.447	11.36
355.656	11
355.866	11.23
356.075	11.43
356.285	11.66
356.494	12.27
356.704	10.82
356.913	11.11
357.123	9.72
357.332	7.56
357.542	7.01
357.751	5.52
357.96	5.88
358.17	4.5
358.379	3.7
358.589	6.12
358.798	5.89
359.007	5.61
359.217	6.47
359.426	6.49
359.635	9.5
359.845	11.91
360.054	10.92
360.263	11.36
360.472	10.83
360.682	11.11
360.891	9.69
361.1	8.34
361.309	8.13
361.519	7.09
361.728	6.69
361.937	3.83
362.146	3.8
362.355	6.72
362.564	7.1
362.774	7.14
362.983	6.98
363.192	7.81
363.401	9.27
363.61	9.87
363.819	11.84
364.028	12.91
364.237	14.56
364.446	11.58
364.655	10.82
364.864	9.46
365.073	10.24
365.282	9.31
365.491	7.99
365.7	7.59
365.909	8.15
366.118	7.72
366.327	8.62
366.536	9.41
366.745	10.71
366.954	10.75
367.162	11.8
367.371	10.6
367.58	11.74
367.789	12.31
367.998	11.43
368.207	10.57
368.415	9.42
368.624	6.48
368.833	4.96
369.042	4.03
369.25	4.42
369.459	3.2
369.668	5.32
369.877	6.2
370.085	4.43
370.294	4.89
370.503	6.34
370.711	7.92
370.92	9.4
371.129	10.38
371.337	10.64
371.546	9.95
371.754	11.83
371.963	11.27
372.171	10.86
372.38	11.65
372.589	12.53
372.797	10.67
373.006	8.78
373.214	8.61
373.423	9.23
373.631	8.91
373.84	7.56
374.048	6.6
374.256	5.53
374.465	4.69
374.673	5.46
374.882	4.49
375.09	4.8
375.298	5.49
375.507	5.33
375.715	4.73
375.923	5.75
376.132	6.07
376.34	6.08
376.548	5.78
376.757	6.06
376.965	6.13
377.173	7.33
377.381	8.25
377.59	8.67
377.798	9.84
378.006	8.77
378.214	9.39
378.423	9.74
378.631	9.02
378.839	10.3
379.047	10.26
379.255	9.65
379.463	9.29
379.671	10.47
379.879	9.89
380.088	6.67
380.296	7.12
380.504	7.39
380.712	8.66
380.92	8.75
381.128	7.7
381.336	7.44
381.544	7.23
381.752	6.87
381.96	5.75
382.168	5.39
382.376	8.46
382.584	8.27
382.791	7.58
382.999	6.38
383.207	7.2
383.415	8.46
383.623	8.62
383.831	10.06
384.039	10.43
384.247	10.19
384.454	9.31
384.662	9.19
384.87	8.96
385.078	8.88
385.285	8.83
385.493	8.89
385.701	7.93
385.909	7.92
386.116	6
386.324	5.78
386.532	4.79
386.739	5.27
386.947	5.37
387.155	4.98
387.362	4.48
387.57	3.27
387.778	2.31
387.985	2.12
388.193	2.64
388.4	2.9
388.608	3.11
388.816	4.13
389.023	5.28
389.231	3.6
389.438	5.07
389.646	4.88
389.853	4.91
390.061	6.59
390.268	6.87
390.475	6.19
390.683	6.28
390.89	5.21
391.098	5.27
391.305	5.35
391.512	6.25
391.72	5.99
391.927	5.5
392.135	7.87
392.342	7.23
392.549	6.89
392.756	7.11
392.964	8.14
393.171	8.46
393.378	8.43
393.586	8.63
393.793	8.17
394	8.1
394.207	8.09
394.414	8.67
394.622	7.27
394.829	6.99
395.036	7.52
395.243	6.68
395.45	6.16
395.657	6.4
395.864	4.38
396.072	3.67
396.279	3.21
396.486	5.33
396.693	4.12
396.9	5.69
397.107	6.91
397.314	6.25
397.521	5.67
397.728	6.26
397.935	5.03
398.142	6.39
398.349	7.23
398.556	8.26
398.763	6.99
398.97	7.22
399.177	6.45
399.383	6
399.59	6.37
399.797	8.1
400.004	8.44
400.211	9.77
400.418	9.79
400.625	9.47
400.831	8.79
401.038	9.12
401.245	9.61
401.452	10.74
401.658	10.59
401.865	10.66
402.072	9.61
402.279	9.06
402.485	8.16
402.692	8.08
402.899	8.61
403.105	8.31
403.312	8.67
403.519	7.14
403.725	5.63
403.932	6.05
404.138	5.91
404.345	5.02
404.552	5.44
404.758	6.18
404.965	6.68
405.171	6.36
405.378	7.79
405.584	7.9
405.791	8.5
405.997	9.23
406.204	8.77
406.41	8.67
406.617	9.69
406.823	9.7
407.029	9.92
407.236	9.15
407.442	8.91
407.649	7.87
407.855	6.99
408.061	6.99
408.268	7.21
408.474	7.6
408.68	6.91
408.887	6.78
409.093	6.49
409.299	5.74
409.505	5.29
409.712	5.84
409.918	4.56
410.124	5.37
410.33	5.68
410.537	5.03
410.743	4.52
410.949	7.08
411.155	7.14
411.361	8.01
411.567	8.09
411.773	9.07
411.98	9.77
412.186	10.8
412.392	9.85
412.598	9.49
412.804	9.53
413.01	10.14
413.216	8.96
413.422	9.59
413.628	8.91
413.834	8.83
414.04	8.24
414.246	7.55
414.452	7.01
414.658	7.14
414.864	6.83
415.07	8.16
415.275	8.01
415.481	8.39
415.687	8.43
415.893	9.12
416.099	9.79
416.305	9.77
416.511	9.51
416.716	10.33
416.922	10.75
417.128	11.71
417.334	11.26
417.539	11.41
417.745	10.86
417.951	10.72
418.157	10.14
418.362	9.66
418.568	9.49
418.774	8.91
418.979	8.27
419.185	7.85
419.391	7.02
419.596	7.11
419.802	7.15
420.008	7.58
420.213	2.94
420.419	2.92
420.624	2.9
420.83	2.79
421.035	3.51
421.241	4.1
421.446	4.03
421.652	4.17
421.857	3.76
422.063	3.12
422.268	2.74
422.474	7.22
422.679	7.72
422.885	7.64
423.09	7.48
423.295	7.33
423.501	6.77
423.706	7.52
423.911	7.49
424.117	7.57
424.322	7.44
424.527	7.64
424.733	7.81
424.938	6.94
425.143	7.34
425.349	8.17
425.554	8.36
425.759	9.2
425.964	8.73
426.169	9.16
426.375	9.07
426.58	9.81
426.785	10.1
426.99	9.3
427.195	9.77
427.4	9.04
427.605	8.54
427.811	9.03
428.016	8.22
428.221	8.64
428.426	8.02
428.631	8.08
428.836	8.46
429.041	7.57
429.246	8.74
429.451	9.07
429.656	9.58
429.861	10.48
430.066	10.27
430.271	10.29
430.476	10.08
430.681	9.75
430.886	9.86
431.09	9.12
431.295	9.74
431.5	9.51
431.705	9.5
431.91	9.72
432.115	9.08
432.32	8.56
432.524	8.42
432.729	8.16
432.934	8.17
433.139	8.27
433.343	8.67
433.548	8.28
433.753	8.67
433.958	8.88
434.162	8.35
434.367	8.47
434.572	8.7
434.776	8.85
434.981	8.67
435.186	9.16
435.39	9.35
435.595	9.77
435.799	9.64
436.004	8.91
436.209	8.1
436.413	8.45
436.618	8.24
436.822	7.96
437.027	8.58
437.231	8.87
437.436	8.67
437.64	8.13
437.845	7.8
438.049	8.32
438.253	8.35
438.458	8.66
438.662	8.89
438.867	8.93
439.071	9.04
439.275	8.57
439.48	8.52
439.684	9.02
439.888	9.28
440.093	9.55
440.297	9.6
440.501	9.92
440.706	9.76
440.91	10.1
441.114	10.14
441.318	10.26
441.523	10.31
441.727	10.12
441.931	9.94
442.135	10.03
442.339	10.4
442.543	10.08
442.748	9.33
442.952	10.01
443.156	9.63
443.36	9.78
443.564	10.18
443.768	10.3
443.972	10.46
444.176	10.35
444.38	10.18
444.584	9.25
444.788	9.11
444.992	9.65
445.196	9.27
445.4	8.87
445.604	8.35
445.808	7.87
446.012	7.59
446.216	7.62
446.42	7.34
446.624	7.2
446.828	7.79
447.032	7.4
447.235	7.72
447.439	7.62
447.643	8.27
447.847	8.6
448.051	8.62
448.254	8.72
448.458	8.6
448.662	9.04
448.866	9.25
449.069	9.02
449.273	9.98
449.477	9.27
449.681	9.5
449.884	9.46
450.088	9.79
450.292	10.67
450.495	11.08
450.699	11.21
450.902	10.53
451.106	10.36
451.31	10.5
451.513	10.86
451.717	11.21
451.92	11.51
452.124	10.65
452.327	10.39
452.531	10.48
452.734	9.61
452.938	9.49
453.141	9.77
453.345	10.87
453.548	10.31
453.752	9.64
453.955	9.43
454.158	8.54
454.362	8.4
454.565	8
454.769	6.56
454.972	7.59
455.175	7.33
455.379	7.44
455.582	6.6
455.785	6.92
455.988	6.82
456.192	6.61
456.395	7.46
456.598	8.3
456.801	8.71
457.005	9.43
457.208	9.14
457.411	9.22
457.614	8.61
457.817	8.16
458.021	8.34
458.224	8.28
458.427	8.29
458.63	8.25
458.833	8.24
459.036	8.09
459.239	8.18
459.442	8.36
459.645	8.39
459.848	8.54
460.051	8.46
460.254	8.23
460.457	7.81
460.66	7.48
460.863	7.64
461.066	6.96
461.269	7.05
461.472	6.88
461.675	6.5
461.878	6.41
462.081	7.03
462.284	7.8
462.486	7.76
462.689	8.03
462.892	8.91
463.095	8.39
463.298	9.04
463.5	9.59
463.703	9.1
463.906	9.14
464.109	9.27
464.311	9.23
464.514	9.07
464.717	9.5
464.92	9.97
465.122	9.39
465.325	9.45
465.528	9.86
465.73	8.84
465.933	8.98
466.135	9.46
466.338	9.43
466.541	9.54
466.743	9.57
466.946	8.79
467.148	9.21
467.351	9.78
467.553	9.89
467.756	9.54
467.958	9.4
468.161	8.76
468.363	8.03
468.566	8.28
468.768	7.95
468.971	7.95
469.173	8.36
469.375	8.04
469.578	8.45
469.78	8.16
469.983	7.9
470.185	8.92
470.387	9.75
470.59	9.77
470.792	8.98
470.994	9.52
471.196	9.34
471.399	9.7
471.601	9
471.803	8.61
472.005	8.29
472.208	8.38
472.41	7.84
472.612	7.61
472.814	8.11
473.016	8.27
473.218	7.86
473.421	8.35
473.623	8.29
473.825	8.5
474.027	7.74
474.229	7.53
474.431	7.26
474.633	7.42
474.835	8.11
475.037	7.65
475.239	7.9
475.441	7.86
475.643	7.28
475.845	7.44
476.047	7.76
476.249	8.13
476.451	9.07
476.653	9.52
476.855	9.53
477.057	9.46
477.258	9.39
477.46	9.48
477.662	9.47
477.864	10.06
478.066	9.25
478.268	8.92
478.469	9.19
478.671	8.39
478.873	7.48
479.075	7.55
479.276	7.29
479.478	7.59
479.68	7.43
479.882	7.4
480.083	7.42
480.285	7.79
480.487	7.64
480.688	7.73
480.89	8
481.091	8.68
481.293	8.81
481.495	8.74
481.696	8.83
481.898	8.79
482.099	8.76
482.301	8.53
482.502	8.54
482.704	8.77
482.905	8.7
483.107	8.66
483.308	8.65
483.51	8.7
483.711	8.66
483.913	8.47
484.114	8.65
484.315	8.69
484.517	8.83
484.718	8.69
484.92	8.7
485.121	8.53
485.322	8.7
485.524	8.46
485.725	8.23
485.926	8.36
486.127	8.46
486.329	8.41
486.53	8.32
486.731	8.28
486.932	8.65
487.134	8.65
487.335	8.77
487.536	8.73
487.737	8.87
487.938	8.99
488.139	9.18
488.341	9.39
488.542	9.37
488.743	9.41
488.944	9.33
489.145	9.15
489.346	9.17
489.547	9.19
489.748	9.08
489.949	9.19
490.15	9.03
490.351	8.85
490.552	8.91
490.753	8.86
490.954	8.9
491.155	8.86
491.356	8.71
491.557	8.53
491.758	8.44
491.959	8.53
492.159	8.62
492.36	8.91
492.561	8.51
492.762	8.32
492.963	8.48
493.164	8.42
493.364	8.63
493.565	8.9
493.766	8.79
493.967	8.97
494.167	8.68
494.368	8.19
494.569	7.86
494.769	8.47
494.97	8.66
495.171	8.41
495.371	8.49
495.572	8.71
495.773	8.7
495.973	8.92
496.174	8.85
496.375	9.04
496.575	9.39
496.776	9.75
496.976	9.46
497.177	9.06
497.377	9.16
497.578	9.41
497.778	9.14
497.979	9.13
498.179	8.86
498.38	9.02
498.58	9.19
498.78	9.42
498.981	9.19
499.181	9.24
499.382	9.89
499.582	10.08
499.782	9.95
499.983	9.89
500.183	9.69
500.383	9.5
500.584	9.35
500.784	9.72
500.984	9.5
501.184	9.42
501.385	9.34
501.585	8.79
501.785	8.57
501.985	8.84
502.185	9.23
502.386	9.48
502.586	10.28
502.786	10.06
502.986	9.53
503.186	9.07
503.386	9.03
503.586	9.24
503.786	9.55
503.987	9.3
504.187	9.41
504.387	8.93
504.587	9
504.787	9.15
504.987	9.07
505.187	9.6
505.387	9.56
505.587	9.47
505.786	9.62
505.986	9.94
506.186	10.13
506.386	10.3
506.586	10.74
506.786	10.68
506.986	10.4
507.186	10.68
507.386	10.71
507.585	11.15
507.785	11.6
507.985	11.8
508.185	11.66
508.384	11.75
508.584	11.45
508.784	10.97
508.984	11.33
509.183	11.15
509.383	11.06
509.583	10.65
509.782	10.48
509.982	10.35
510.182	10.19
510.381	9.75
510.581	9.92
510.781	9.84
510.98	10.21
511.18	9.9
511.379	10.02
511.579	10.19
511.778	10.52
511.978	10.1
512.177	9.88
512.377	9.9
512.576	10.12
512.776	9.87
512.975	9.8
513.175	10.55
513.374	10.48
513.573	10.33
513.773	10.51
513.972	10.21
514.172	10.86
514.371	11.34
514.57	11.93
514.77	11.77
514.969	11.97
515.168	12.29
515.367	11.84
515.567	11.91
515.766	12.2
515.965	12.12
516.164	12.02
516.364	11.71
516.563	11.56
516.762	11.11
516.961	11.22
517.16	11.35
517.359	11.45
517.559	11.36
517.758	11.52
517.957	11.52
518.156	11.7
518.355	12.21
518.554	12.67
518.753	12.33
518.952	12.23
519.151	12.7
519.35	12.62
519.549	12.91
519.748	12.96
519.947	12.97
520.146	13.03
520.345	12.78
520.544	12.73
520.743	12.78
520.942	13.07
521.141	13.41
521.339	13.3
521.538	13.76
521.737	13.17
521.936	13.33
522.135	13.8
522.333	14.18
522.532	14.47
522.731	14.08
522.93	14.1
523.129	14.39
523.327	14.32
523.526	14.5
523.725	14.53
523.923	15.25
524.122	15.22
524.321	15.17
524.519	15
524.718	15.19
524.917	15.4
525.115	15.03
525.314	14.99
525.512	15
525.711	15.02
525.909	14.77
526.108	14.65
526.306	14.79
526.505	14.25
526.703	14.27
526.902	14.39
527.1	14.55
527.299	14.85
527.497	15.05
527.696	15.17
527.894	15.35
528.092	15.41
528.291	15.26
528.489	15.14
528.688	15.47
528.886	15.95
529.084	16.04
529.283	16.07
529.481	16.16
529.679	16.12
529.877	16.31
530.076	16.03
530.274	16.13
530.472	16.47
530.67	16.92
530.869	16.81
531.067	16.49
531.265	16.36
531.463	16.6
531.661	16.72
531.859	16.6
532.057	16.81
532.255	16.96
532.454	17.02
532.652	16.98
532.85	16.58
533.048	16.78
533.246	16.87
533.444	17
533.642	16.99
533.84	16.85
534.038	17.03
534.236	16.73
534.434	17.17
534.632	17.23
534.83	17.19
535.027	17.61
535.225	18.15
535.423	18.46
535.621	18.08
535.819	17.87
536.017	17.93
536.215	18.05
536.412	17.75
536.61	17.49
536.808	18.02
537.006	18.14
537.203	18.15
537.401	17.96
537.599	17.58
537.797	18.33
537.994	18.9
538.192	19.12
538.39	19.33
538.587	20.29
538.785	19.97
538.983	19.7
539.18	19.88
539.378	20.2
539.575	20.53
539.773	20.42
539.97	20.36
540.168	20.41
540.366	20.24
540.563	20.27
540.761	20.05
540.958	20.35
541.155	20.72
541.353	20.76
541.55	20.74
541.748	20.72
541.945	21.18
542.143	21.44
542.34	21.49
542.537	21.95
542.735	22.28
542.932	22.42
543.129	22.38
543.327	22.49
543.524	23.1
543.721	23.19
543.919	23.18
544.116	23.27
544.313	23.19
544.51	23.06
544.708	23.27
544.905	23.24
545.102	23.29
545.299	23.55
545.496	23.39
545.693	23.09
545.891	23.26
546.088	23.34
546.285	23.13
546.482	23.9
546.679	24.45
546.876	24.44
547.073	24.08
547.27	24.57
547.467	24.52
547.664	24.48
547.861	24.76
548.058	24.72
548.255	24.93
548.452	24.96
548.649	24.15
548.846	23.79
549.043	23.79
549.24	24.04
549.437	24.07
549.633	24.17
549.83	24.71
550.027	24.6
550.224	25.37
550.421	25.4
550.618	25.23
550.814	25.24
551.011	25.3
551.208	25.86
551.405	26.32
551.601	26.49
551.798	26.81
551.995	26.38
552.191	26.8
552.388	26.56
552.585	26.92
552.781	27.37
552.978	27.36
553.175	27.3
553.371	26.87
553.568	26.97
553.764	27.09
553.961	27.31
554.157	27.56
554.354	27.71
554.55	27.38
554.747	26.9
554.943	27.41
555.14	28.59
555.336	28.73
555.533	29.35
555.729	29.65
555.926	29.19
556.122	28.61
556.318	29.08
556.515	28.88
556.711	28.78
556.907	29.13
557.104	29.49
557.3	28.75
557.496	29.3
557.693	28.75
557.889	29.33
558.085	29.75
558.281	30.08
558.478	29.38
558.674	29.28
558.87	30.3
559.066	30.72
559.262	30.19
559.459	30.37
559.655	30.19
559.851	30.35
560.047	29.8
560.243	29.96
560.439	30.78
560.635	31.37
560.831	31.38
561.027	31.4
561.223	31.28
561.419	31.69
561.615	31.41
561.811	31.68
562.007	32.67
562.203	32.69
562.399	32.91
562.595	32.41
562.791	32.34
562.987	32.69
563.183	31.76
563.379	32.02
563.575	31.9
563.771	32.38
563.966	32.59
564.162	31.73
564.358	31.68
564.554	32.28
564.75	32.57
564.945	32.73
565.141	32.67
565.337	32.92
565.533	32.72
565.728	32.4
565.924	32.09
566.12	32.57
566.315	33.04
566.511	33.68
566.707	34.01
566.902	33.8
567.098	33.63
567.293	33.72
567.489	33.91
567.684	34.35
567.88	34.8
568.076	35.08
568.271	34.43
568.467	34.02
568.662	32.81
568.858	31.62
569.053	31.28
569.248	31.43
569.444	31.8
569.639	31.73
569.835	31.77
570.03	31.48
570.225	31.48
570.421	31.6
570.616	31.79
570.812	32.71
571.007	33.12
571.202	34.01
571.397	34.21
571.593	33.79
571.788	34.04
571.983	33.54
572.178	34.33
572.374	34.62
572.569	34.62
572.764	34.65
572.959	34.26
573.154	34.31
573.35	34.2
573.545	33.78
573.74	33.59
573.935	33.67
574.13	34.1
574.325	33.45
574.52	33.3
574.715	32.94
574.91	33.56
575.105	33.97
575.3	33.95
575.495	33.92
575.69	34.64
575.885	35.58
576.08	35.51
576.275	35.5
576.47	36.27
576.665	35.99
576.86	36.52
577.055	35.94
577.25	36.14
577.444	36.44
577.639	36.16
577.834	35.71
578.029	35.89
578.224	36.12
578.418	36.56
578.613	36.79
578.808	38.2
579.003	38.12
579.197	38.4
579.392	38.42
579.587	37.95
579.781	38.26
579.976	38.91
580.171	37.88
580.365	38.35
580.56	37.32
580.755	36.32
580.949	35.18
581.144	35.4
581.338	36.07
581.533	36.06
581.727	36.39
581.922	36.03
582.116	36.06
582.311	36.72
582.505	37
582.7	37.98
582.894	38.85
583.089	40.22
583.283	40.15
583.478	39.34
583.672	39.23
583.866	39.56
584.061	40.29
584.255	40.33
584.449	40.33
584.644	40.21
584.838	40.52
585.032	40.59
585.226	39.81
585.421	40.57
585.615	41.33
585.809	41.49
586.003	40.92
586.198	41.1
586.392	41.37
586.586	41.2
586.78	40.74
586.974	41.14
587.168	40.82
587.363	40.56
587.557	40.33
587.751	39.68
587.945	39.77
588.139	40.37
588.333	39.6
588.527	39.09
588.721	39.57
588.915	40.07
589.109	39.63
589.303	39.36
589.497	39.32
589.691	39.65
589.885	40.56
590.079	40.52
590.273	39.91
590.466	39.8
590.66	39.53
590.854	39.34
591.048	39.33
591.242	38.93
591.436	38.78
591.629	39
591.823	38.43
592.017	38.02
592.211	37.85
592.404	38.7
592.598	38.66
592.792	38.61
592.986	37.81
593.179	37.6
593.373	37.62
593.567	37.77
593.76	38.61
593.954	38.23
594.147	38.22
594.341	38.43
594.535	38.22
594.728	38.4
594.922	39.11
595.115	39.92
595.309	41.02
595.502	41.09
595.696	41.45
595.889	40.84
596.083	41.14
596.276	41.01
596.47	41.08
596.663	40.73
596.856	41.12
597.05	40.42
597.243	40.46
597.437	39.45
597.63	39.32
597.823	39.91
598.017	40.37
598.21	40.2
598.403	40.17
598.596	39.6
598.79	39.59
598.983	39.57
599.176	40.18
599.369	40.56
599.563	40.83
599.756	41.63
599.949	41.63
600.142	41.06
600.335	41.54
600.528	42.59
600.722	44.28
600.915	44.49
601.108	44.41
601.301	44.13
601.494	42.98
601.687	42.36
601.88	41.59
602.073	41.32
602.266	41.65
602.459	41.32
602.652	40.31
602.845	39.65
603.038	39.46
603.231	39.22
603.424	39.01
603.617	39.61
603.809	40.06
604.002	40.15
604.195	40.19
604.388	39.66
604.581	40.3
604.774	40.78
604.966	40.63
605.159	40.97
605.352	41.74
605.545	42.33
605.737	41.76
605.93	42.29
606.123	43.37
606.316	43
606.508	44.36
606.701	44.15
606.894	43.7
607.086	43.82
607.279	43.97
607.471	44.39
607.664	45.07
607.857	45.73
608.049	45.2
608.242	44.11
608.434	44.42
608.627	43.69
608.819	44
609.012	44.72
609.204	45.06
609.397	45.5
609.589	44.85
609.782	44.88
609.974	45.49
610.166	45.5
610.359	46.38
610.551	47.27
610.743	47.74
610.936	48.23
611.128	48.73
611.32	49.64
611.513	50.11
611.705	50.92
611.897	50.78
612.09	50.04
612.282	51.14
612.474	50.63
612.666	50.62
612.858	51.47
613.051	51.15
613.243	50.73
613.435	50.71
613.627	50.78
613.819	50.89
614.011	50.02
614.203	50.48
614.395	49.7
614.588	50.21
614.78	49.45
614.972	48.63
615.164	48.72
615.356	48.86
615.548	48.31
615.74	47.15
615.932	46.3
616.124	46.84
616.315	46.9
616.507	48.08
616.699	48.31
616.891	48.09
617.083	48.05
617.275	48.24
617.467	49.03
617.659	49.92
617.85	50.5
618.042	50.92
618.234	51.6
618.426	51.76
618.618	51.15
618.809	50.77
619.001	50.85
619.193	51.84
619.384	51.3
619.576	50.8
619.768	49.67
619.959	50.15
620.151	50.47
620.343	50.66
620.534	51.92
620.726	51.59
620.917	52.34
621.109	52.94
621.301	51.69
621.492	52.71
621.684	52.23
621.875	52.56
622.067	52.68
622.258	53.28
622.45	53.33
622.641	51.86
622.832	51.43
623.024	51
623.215	51.11
623.407	51.54
623.598	51.13
623.789	51.81
623.981	51.34
624.172	51.35
624.363	50.25
624.555	49.54
624.746	49.89
624.937	50.11
625.129	50.15
625.32	49.52
625.511	49.38
625.702	49.23
625.893	48.94
626.085	49.51
626.276	49.93
626.467	50.87
626.658	50.98
626.849	50.36
627.04	50.2
627.231	49.83
627.422	50.62
627.614	51.02
627.805	51.1
627.996	51.02
628.187	51.48
628.378	50.95
628.569	51.5
628.76	51.62
628.951	51.61
629.142	52.09
629.332	53.11
629.523	52.43
629.714	52.42
629.905	53.57
630.096	54.38
630.287	54.02
630.478	54.06
630.669	52.21
630.859	52.22
631.05	53.89
631.241	54.35
631.432	54.2
631.623	53.73
631.813	53.14
632.004	52.06
632.195	52.05
632.385	52.8
632.576	52.32
632.767	53.7
632.957	54.33
633.148	53.48
633.339	53.79
633.529	52.99
633.72	53.87
633.91	53.78
634.101	52.84
634.292	51.83
634.482	51.35
634.673	51.9
634.863	50.9
635.054	50.34
635.244	50.57
635.435	50.21
635.625	51.54
635.815	52.56
636.006	54.12
636.196	55.91
636.387	57.02
636.577	57.73
636.767	58.03
636.958	58.48
637.148	58.16
637.338	58.65
637.529	59.5
637.719	58.26
637.909	58.18
638.099	57.7
638.29	57.5
638.48	58.02
638.67	57.02
638.86	57.01
639.05	58.31
639.241	59.16
639.431	58.51
639.621	57.23
639.811	59.34
640.001	59.15
640.191	58.81
640.381	59.44
640.571	59.63
640.761	60.64
640.951	60.67
641.141	59.24
641.331	59.36
641.521	59.77
641.711	60.16
641.901	58.62
642.091	58.2
642.281	58.94
642.471	59.06
642.661	58.58
642.851	57.86
643.041	58.43
643.231	59.8
643.42	60
643.61	61.25
643.8	61.23
643.99	62.49
644.18	62.62
644.369	62.74
644.559	62.38
644.749	62.6
644.939	63.08
645.128	61.85
645.318	61.17
645.508	60.77
645.697	60.23
645.887	59.58
646.076	57.3
646.266	56.52
646.456	55.28
646.645	53.68
646.835	53.84
647.024	53.76
647.214	54.6
647.403	54.32
647.593	53.69
647.782	53.18
647.972	54.22
648.161	56.16
648.351	56.14
648.54	57.35
648.73	58.12
648.919	57.45
649.108	56.97
649.298	57.27
649.487	56.77
649.677	58.07
649.866	58.68
650.055	58.73
650.244	58.58
650.434	59.93
650.623	60.05
650.812	60.56
651.002	60.17
651.191	61.42
651.38	61.64
651.569	62.73
651.758	62.19
651.947	62.74
652.137	63.1
652.326	62.67
652.515	62.75
652.704	61.77
652.893	61.15
653.082	61.69
653.271	60.11
653.46	58.8
653.649	58.61
653.838	56.8
654.027	56.61
654.216	56.26
654.405	56.22
654.594	55.25
654.783	55.56
654.972	55.61
655.161	55.85
655.35	55.86
655.539	57.48
655.728	57.87
655.916	60.1
656.105	58.79
656.294	58.25
656.483	59
656.672	58.5
656.86	58.7
657.049	59.01
657.238	58.61
657.427	58.99
657.615	57.5
657.804	56.29
657.993	56.22
658.181	57.32
658.37	58.27
658.559	57.8
658.747	58.98
658.936	59.37
659.125	58.27
659.313	58.66
659.502	59.37
659.69	60.85
659.879	61.79
660.067	62.12
660.256	62.54
660.444	61.49
660.633	62.03
660.821	62.22
661.01	62.45
661.198	64.88
661.387	65.44
661.575	65.97
661.763	65.26
661.952	66.98
662.14	66.76
662.328	66.91
662.517	68.84
662.705	68.67
662.893	69.26
663.082	68.73
663.27	67.78
663.458	66.72
663.646	67.8
663.834	68.93
664.023	66.78
664.211	66.32
664.399	66.61
664.587	66.08
664.775	65.79
664.963	65.99
665.152	66.93
665.34	66.78
665.528	67.76
665.716	65.83
665.904	66.22
666.092	66.37
666.28	66.98
666.468	66.97
666.656	67.18
666.844	68.44
667.032	68.56
667.22	68.71
667.408	69.5
667.596	69.5
667.784	69.99
667.971	68.63
668.159	69.12
668.347	69.15
668.535	67.9
668.723	67.62
668.911	67.22
669.098	66.67
669.286	66.87
669.474	66.77
669.662	67.14
669.849	67.08
670.037	67.32
670.225	66.54
670.413	67.47
670.6	68.22
670.788	68.85
670.976	68.09
671.163	67.3
671.351	66.75
671.538	65.36
671.726	66.24
671.913	66.4
672.101	67.89
672.289	69.06
672.476	68.59
672.664	71.01
672.851	70.7
673.039	72.38
673.226	74.87
673.413	74.92
673.601	76.01
673.788	74.75
673.976	73.67
674.163	73.11
674.35	72.61
674.538	72.12
674.725	69.78
674.912	69.65
675.1	68.8
675.287	67.63
675.474	66.71
675.662	67.83
675.849	69.31
676.036	69.93
676.223	71.21
676.411	71.31
676.598	70.95
676.785	71.61
676.972	70.25
677.159	69.96
677.346	70.16
677.533	71.04
677.721	69.33
677.908	68.07
678.095	67.33
678.282	67.75
678.469	67.8
678.656	69.27
678.843	69.59
679.03	69.76
679.217	69.78
679.404	68.16
679.591	68.43
679.778	69.44
679.964	69.66
680.151	70.08
680.338	68.14
680.525	67.67
680.712	66.08
680.899	65.12
681.086	64.99
681.272	66.05
681.459	67.23
681.646	66.28
681.833	66.78
682.02	66.68
682.206	67.34
682.393	66.67
682.58	67.11
682.766	67.16
682.953	68.83
683.14	69.19
683.326	68.53
683.513	67.58
683.7	67.19
683.886	66.81
684.073	66.56
684.259	66.69
684.446	66.74
684.632	67.02
684.819	68.06
685.005	64.52
685.192	64.73
685.378	64.76
685.565	64.56
685.751	64.07
685.938	63.93
686.124	64.52
686.31	64.48
686.497	66.24
686.683	66.79
686.87	66.42
687.056	68.29
687.242	67.66
687.429	67.03
687.615	67.21
687.801	69.06
687.987	69.09
688.174	67.69
688.36	67.4
688.546	66.73
688.732	67.25
688.918	67.28
689.105	65.85
689.291	66.53
689.477	66.06
689.663	64.82
689.849	63.5
690.035	62.69
690.221	65.4
690.407	66.35
690.593	66.34
690.779	65.79
690.965	65.31
691.151	67.38
691.337	68.42
691.523	68.91
691.709	72.22
691.895	72.9
692.081	73.95
692.267	71.33
692.453	70.11
692.639	71.19
692.825	69.25
693.011	69.02
693.196	66.78
693.382	65.78
693.568	65.9
693.754	65.26
693.94	65.26
694.125	65.89
694.311	66.04
694.497	66.77
694.682	65.37
694.868	67.13
695.054	67.81
695.239	70.42
695.425	70.34
695.611	71.21
695.796	70.53
695.982	69.66
696.168	69.32
696.353	68.61
696.539	67.26
696.724	66.48
696.91	63.78
697.095	62.92
697.281	60.77
697.466	60.32
697.652	59.85
697.837	59.36
698.023	60.64
698.208	60.34
698.393	62.18
698.579	62.55
698.764	62.69
698.949	65.19
699.135	65.9
699.32	67.21
699.505	67.08
699.691	67.05
699.876	69.12
700.061	68.74
700.246	68.99
700.432	67.39
700.617	68.46
700.802	69.42
700.987	70.91
701.172	73.98
701.358	75.45
701.543	76.55
701.728	77.56
701.913	78.14
702.098	79.4
702.283	80.47
702.468	82.35
702.653	80.75
702.838	81.18
703.023	81.26
703.208	77.82
703.393	79.12
703.578	80.34
703.763	78.56
703.948	77.43
704.133	75.03
704.318	74.19
704.503	72.46
704.688	73.55
704.873	74.18
705.057	73.41
705.242	73.32
705.427	72.85
705.612	73.07
705.797	73.98
705.981	73.38
706.166	76.63
706.351	78.66
706.536	78.77
706.72	78.54
706.905	77.26
707.09	78.05
707.274	78.5
707.459	79.79
707.644	78.18
707.828	79.99
708.013	83.36
708.197	82
708.382	80.17
708.567	81.67
708.751	83.96
708.936	84.59
709.12	83.62
709.305	84.67
709.489	82.27
709.673	83.69
709.858	83.96
710.042	81.66
710.227	81.2
710.411	82.17
710.596	81.93
710.78	81.66
710.964	82.19
711.149	81.55
711.333	82.7
711.517	84.11
711.702	85.27
711.886	83.31
712.07	83.23
712.254	82.4
712.438	82.79
712.623	84.65
712.807	82.88
712.991	81.43
713.175	80.81
713.359	78.02
713.544	77.35
713.728	73.33
713.912	74.33
714.096	73.72
714.28	72.52
714.464	70.03
714.648	66.65
714.832	65.44
715.016	64.43
715.2	64.69
715.384	64.38
715.568	63.67
715.752	66.82
715.936	65.36
716.12	63.64
716.304	63.43
716.488	64.95
716.671	65.88
716.855	65.01
717.039	64.54
717.223	65.2
717.407	65.63
717.59	65.13
717.774	64.28
717.958	63.76
718.142	63.86
718.325	63.94
718.509	63.59
718.693	62.26
718.877	65.2
719.06	68.89
719.244	68.44
719.428	71.16
719.611	70.82
719.795	71.63
719.978	72.78
720.162	77.12
720.345	78.71
720.529	78.42
720.713	80.71
720.896	81.81
721.08	81.82
721.263	79.99
721.446	79.07
721.63	79.63
721.813	79.16
721.997	80.28
722.18	76.04
722.364	77.76
722.547	75.72
722.73	74.23
722.914	72.17
723.097	71.35
723.28	71.01
723.464	67.38
723.647	67.64
723.83	66.77
724.013	67.02
724.197	70.55
724.38	69.59
724.563	71.77
724.746	72.32
724.929	70.78
725.112	72.02
725.296	72.92
725.479	75.13
725.662	71.7
725.845	70.52
726.028	69.3
726.211	66.81
726.394	65.91
726.577	64.39
726.76	64.28
726.943	67.36
727.126	65.31
727.309	67.36
727.492	67.04
727.675	69.86
727.858	69.44
728.041	69.5
728.224	69.31
728.407	70.91
728.589	73.01
728.772	71.72
728.955	69.62
729.138	69.94
729.321	71.45
729.503	72.75
729.686	72.54
729.869	73.65
730.052	73.29
730.234	74.4
730.417	73.5
730.6	72.84
730.782	72.06
730.965	74.03
731.148	74.5
731.33	72.01
731.513	73.33
731.695	74.2
731.878	75.56
732.061	76.21
732.243	77.01
732.426	77.82
732.608	77.61
732.791	83.15
732.973	81.42
733.156	82.11
733.338	83.66
733.52	81.62
733.703	82.61
733.885	83.22
734.068	83.95
734.25	83.73
734.432	85.14
734.615	88.72
734.797	85.12
734.979	88.14
735.162	87.87
735.344	88.54
735.526	93.12
735.708	92.71
735.891	93.17
736.073	90.91
736.255	91.38
736.437	92.13
736.619	92.37
736.802	94.38
736.984	93.18
737.166	95.27
737.348	92.96
737.53	90.89
737.712	92.39
737.894	90.8
738.076	94.63
738.258	96.2
738.44	97.06
738.622	98.97
738.804	102.54
738.986	105.47
739.168	103.78
739.35	104
739.532	103.49
739.714	103.62
739.896	108.9
740.078	109.11
740.259	107.45
740.441	107.94
740.623	105.7
740.805	102.52
740.987	102.15
741.168	104.43
741.35	107.05
741.532	107.26
741.714	106.67
741.895	107.06
742.077	106.52
742.259	107.47
742.44	107.56
742.622	108.34
742.804	106.82
742.985	109.11
743.167	110.23
743.348	109.47
743.53	114.05
743.711	112.65
743.893	109.92
744.075	108.89
744.256	108.45
744.438	107.21
744.619	106.56
744.8	108.4
744.982	106.15
745.163	108.66
745.345	112.63
745.526	111.46
745.707	112.23
745.889	112.03
746.07	114.7
746.252	117.85
746.433	116.13
746.614	114.82
746.795	111.66
746.977	113.21
747.158	109.31
747.339	101.56
747.52	101.56
747.702	102.71
747.883	101.94
748.064	100.45
748.245	99.15
748.426	100.96
748.607	103.3
748.788	109.22
748.97	110.92
749.151	107.54
749.332	109.24
749.513	114.93
749.694	109.3
749.875	111.52
750.056	109.48
750.237	112.22
750.418	114.15
750.599	108.19
750.78	107.28
750.96	103.01
751.141	109.41
751.322	114.08
751.503	108.46
751.684	114.3
751.865	117.58
752.046	121.41
752.226	121.68
752.407	117.54
752.588	120.17
752.769	112.31
752.949	112.08
753.13	110.58
753.311	113.16
753.492	111.99
753.672	105.4
753.853	102.69
754.034	102.94
754.214	102.48
754.395	102.68
754.575	102.88
754.756	108.57
754.937	109.94
755.117	108.51
755.298	105.68
755.478	102.84
755.659	112.92
755.839	110.25
756.02	107.86
756.2	109.03
756.381	108.35
756.561	109.63
756.741	108.68
756.922	100.51
757.102	98.77
757.283	103.16
757.463	107.17
757.643	101
757.823	97.8
758.004	92.67
758.184	87.76
758.364	82.8
758.545	80.69
758.725	73.39
758.905	74.41
759.085	70.02
759.265	61.43
759.446	60.66
759.626	60.26
759.806	58.49
759.986	62.07
760.166	59.3
760.346	56.94
760.526	58.38
760.706	61.08
760.886	62.64
761.066	62.78
761.246	59.98
761.426	58.3
761.606	56.76
761.786	57.16
761.966	58.67
762.146	59.93
762.326	61.36
762.506	62.03
762.686	62.1
762.866	62.28
763.046	62.92
763.225	66.93
763.405	68.14
763.585	71.15
763.765	74.83
763.945	75.44
764.124	78.47
764.304	79.64
764.484	84.47
764.664	89.62
764.843	95.22
765.023	100.32
765.203	101.73
765.382	105.25
765.562	106.43
765.741	109.56
765.921	115.31
766.101	120.32
766.28	122.02
766.46	120.9
766.639	121.17
766.819	121.36
766.998	122.97
767.178	121.81
767.357	120.23
767.537	123.22
767.716	119.82
767.896	121.11
768.075	117.02
768.254	119.88
768.434	115
768.613	114.88
768.792	116.15
768.972	122.27
769.151	118.15
769.33	120.36
769.51	121.2
769.689	128.77
769.868	126.86
770.047	129.73
770.226	131.34
770.406	137.03
770.585	136.08
770.764	130.68
770.943	127.95
771.122	140.79
771.301	135.68
771.48	135.43
771.66	135.13
771.839	137.78
772.018	142.22
772.197	140.65
772.376	148.72
772.555	152.71
772.734	161.99
772.913	164.91
773.092	155.23
773.271	163.45
773.449	164.21
773.628	157.74
773.807	160.54
773.986	160.92
774.165	162.61
774.344	153.92
774.523	149.98
774.701	137.12
774.88	128.48
775.059	131.25
775.238	129.51
775.417	131.16
775.595	129.66
775.774	124.06
775.953	122.51
776.131	128.56
776.31	126.68
776.489	125.68
776.667	128.66
776.846	132.96
777.025	126.11
777.203	127.52
777.382	127.85
777.56	127.27
777.739	132.48
777.917	131.25
778.096	123.17
778.274	128.74
778.453	129.95
778.631	149.24
778.81	152.64
778.988	165.18
779.166	158.79
779.345	159.56
779.523	163.54
779.702	157.14
779.88	159.29
780.058	162.66
780.237	160.16
780.415	157.79
780.593	136.38
780.771	143.01
780.95	141.44
781.128	137.13
781.306	134.04
781.484	129.98
781.662	139.03
781.841	139.38
782.019	139.84
782.197	146.03
782.375	156.35
782.553	159.62
782.731	156
782.909	162
783.087	172.87
783.265	198.98
783.443	198.64
783.621	176.24
783.799	178.95
783.977	179.25
784.155	160.4
784.333	158.66
784.511	160.69
784.689	155.37
784.867	142.37
785.045	142.71
785.223	126.74
785.4	125.43
785.578	135.23
785.756	119.49
785.934	119.99
786.112	123.03
786.289	116.73
786.467	107.83
786.645	103.95
786.823	109.52
787	113
787.178	116.13
787.356	112.36
787.533	106.86
787.711	115.13
787.889	120.58
788.066	120.73
788.244	117.81
788.421	129.45
788.599	126.91
788.776	120.53
788.954	117.14
789.131	112.97
789.309	116.11
789.486	109.92
789.664	114.55
789.841	103.04
790.019	103.3
790.196	102.3
790.373	102.17
790.551	105.82
790.728	106.65
790.906	106
791.083	113.89
791.26	112.66
791.437	124.57
791.615	114.93
791.792	122.61
791.969	126.45
792.146	130.56
792.324	123.31
792.501	123.08
792.678	127.46
792.855	124.71
793.032	119.71
793.209	125.6
793.387	126.5
793.564	125.01
793.741	122.82
793.918	118.56
794.095	117.63
794.272	122.96
794.449	124.97
794.626	118.39
794.803	117.82
794.98	113.82
795.157	109.56
795.334	104.92
795.511	107.76
795.688	111.39
795.864	105.84
796.041	107.32
796.218	100.62
796.395	100.47
796.572	99.74
796.749	97.6
796.925	102.24
797.102	105.11
797.279	109.56
797.456	112.86
797.632	107.41
797.809	117.79
797.986	121.42
798.162	126.3
798.339	124.17
798.516	126.44
798.692	123.98
798.869	118.38
799.046	121
799.222	117.42
799.399	109.05
799.575	110.07
799.752	101.25
799.928	95.68
800.105	98.95
800.281	100.24
800.458	103.88
800.634	112.3
800.811	113.61
800.987	114.25
801.163	110.51
801.34	116.37
801.516	117.6
801.692	128.53
801.869	124.52
802.045	122.26
802.221	117.65
802.398	119.87
802.574	111.91
802.75	115.96
802.926	116.57
803.103	119.61
803.279	114.07
803.455	117.49
803.631	107.22
803.807	105.79
803.983	110.43
804.16	102.97
804.336	97.24
804.512	94.43
804.688	86.27
804.864	87.66
805.04	89.91
805.216	90.46
805.392	92.1
805.568	103.13
805.744	122.03
805.92	115.16
806.096	120
806.272	128.73
806.448	145.43
806.623	154.27
806.799	152.45
806.975	143.06
807.151	164.73
807.327	152.5
807.503	162.73
807.678	141.97
807.854	166.31
808.03	153.38
808.206	128.16
808.381	119.68
808.557	128.09
808.733	138.79
808.908	160.27
809.084	141.94
809.26	154.92
809.435	140
809.611	136.89
809.787	121.09
809.962	123.25
810.138	131.93
810.313	125.87
810.489	115.09
810.664	102.3
810.84	100.79
811.015	94.32
811.191	91
811.366	83.23
811.542	82.87
811.717	84.65
811.892	88.42
812.068	89.69
812.243	92.43
812.419	83.67
812.594	82.54
812.769	75.02
812.944	71.76
813.12	83.23
813.295	85.95
813.47	85.14
813.645	84.5
813.821	69.32
813.996	53.53
814.171	45.24
814.346	55.85
814.521	60.51
814.697	63.95
814.872	64.38
815.047	57.3
815.222	54.92
815.397	60.96
815.572	63.57
815.747	71.07
815.922	78.45
816.097	83.72
816.272	76.6
816.447	74.58
816.622	80.98
816.797	83.59
816.972	82.83
817.147	78.65
817.322	79.95
817.496	81.6
817.671	81.45
817.846	74.14
818.021	68.41
818.196	70.33
818.371	68.76
818.545	64.45
818.72	66.97
818.895	68.8
819.069	67.42
819.244	64.95
819.419	60.83
819.594	60.03
819.768	59.19
819.943	59.54
820.117	56.71
820.292	55.85
820.467	53.15
820.641	51.51
820.816	48.83
820.99	48.32
821.165	48.48
821.339	48.93
821.514	47.98
821.688	49.39
821.863	50.53
822.037	50.88
822.212	49.8
822.386	49.6
822.56	49.9
822.735	51.27
822.909	53.8
823.084	54.26
823.258	55.71
823.432	59.43
823.606	58.32
823.781	56.57
823.955	58.87
824.129	62.1
824.303	62.41
824.478	66.7
824.652	66.63
824.826	65.06
825	64.69
825.174	61.05
825.348	57.16
825.523	57.07
825.697	57.01
825.871	56.18
826.045	57.77
826.219	56.12
826.393	53.81
826.567	54.1
826.741	52.14
826.915	49.75
827.089	50.57
827.263	56.33
827.437	59.26
827.611	60.69
827.784	57.18
827.958	59.1
828.132	65.84
828.306	70.03
828.48	72.09
828.654	78.53
828.827	81.27
829.001	84.19
829.175	77.17
829.349	76.08
829.522	86.47
829.696	95.27
829.87	94.28
830.044	108.11
830.217	110.75
830.391	114.05
830.565	107.45
830.738	123.93
830.912	106.68
831.085	92.52
831.259	97.58
831.432	84.14
831.606	80.82
831.779	79.05
831.953	72.34
832.126	66.4
832.3	67.45
832.473	72.3
832.647	66.88
832.82	67.52
832.994	66.49
833.167	62.12
833.34	65.86
833.514	69.43
833.687	69.73
833.86	70.29
834.034	75.48
834.207	76.89
834.38	69.21
834.553	71.45
834.727	73.46
834.9	75.65
835.073	74.86
835.246	69.87
835.419	64.77
835.593	76.78
835.766	75.12
835.939	63.72
836.112	67.98
836.285	74.85
836.458	67
836.631	69.63
836.804	65
836.977	73.42
837.15	85.49
837.323	70.26
837.496	58.34
837.669	62.68
837.842	79.05
838.015	75.76
838.188	96.82
838.361	94.24
838.533	100.07
838.706	97.83
838.879	103.79
839.052	86.88
839.225	97.16
839.398	101.22
839.57	90.78
839.743	95.38
839.916	97.24
840.088	87.65
840.261	97.98
840.434	94.76
840.607	113.62
840.779	118.92
840.952	139.45
841.124	123.91
841.297	101.09
841.47	123.83
841.642	113.04
841.815	97.26
841.987	89.16
842.16	87.27
842.332	92.83
842.505	91.9
842.677	82.74
842.85	75.63
843.022	92.76
843.194	106.71
843.367	111.75
843.539	116.92
843.712	116.62
843.884	146
844.056	197.17
844.229	188.97
844.401	187.76
844.573	191.24
844.745	215.94
844.918	216.96
845.09	248.37
845.262	241.5
845.434	226.51
845.606	197.13
845.779	204.57
845.951	149.1
846.123	117.27
846.295	123.46
846.467	130.9
846.639	106.49
846.811	111.78
846.983	97.12
847.155	98.42
847.327	124.3
847.499	165.68
847.671	161.1
847.843	388.73
848.015	1458.06
848.187	-1273.33
848.359	1628.95
848.531	-1190.74
848.703	17000
848.875	-727.66
849.047	904.26
849.218	356.58
849.39	352.44
849.562	335.31
849.734	267.82
849.905	471.07
850.077	440.21
850.249	394.17
850.421	1611.76
850.592	636.93
850.764	727.66
850.936	3404
851.107	15066.67
851.279	724.41
851.451	310.42
851.622	325.35
851.794	236.1
851.965	208.79
852.137	205.2
852.308	161.09
852.48	172.9
852.651	164.75
852.823	182.38
852.994	161.61
853.166	197.02
853.337	183.79
853.509	163.55
853.68	165.26
853.851	166.55
854.023	181.36
854.194	174.31
854.365	202.05
854.537	154.86
854.708	132.84
854.879	154.8
855.05	140.33
855.222	181.04
855.393	278.08
855.564	188.5
855.735	188.7
855.906	244.97
856.078	199.51
856.249	168.15
856.42	141.23
856.591	163.59
856.762	178.15
856.933	203.14
857.104	144.78
857.275	136.18
857.446	156.66
857.617	148.85
857.788	129.28
857.959	119.9
858.13	136.56
858.301	174.35
858.472	158.72
858.643	137.16
858.814	153.85
858.985	225.7
859.155	251.55
859.326	229.85
859.497	574.79
859.668	205.37
859.839	259.69
860.009	274.54
860.18	276.38
860.351	288.11
860.522	323.83
860.692	259.09
860.863	168.13
861.034	145.08
861.204	162.83
861.375	128.23
861.546	164.9
861.716	186.95
861.887	184.63
862.057	209.59
862.228	191.35
862.398	252
862.569	267.97
862.739	232.91
862.91	205.77
863.08	282.58
863.251	450.77
863.421	494.78
863.592	430.88
863.762	542.44
863.932	1051.65
864.103	-987.21
864.273	-2050
864.443	-471.67
864.614	-186.29
864.784	-181.97
864.954	-2333.33
865.125	8471.43
865.295	-571.64
865.465	-764.91
865.635	-7950
865.805	792.41
865.976	-8516.67
866.146	-1518.18
866.316	-2324
866.486	1002.38
866.656	-236.84
866.826	-84.79
866.996	-828.85
867.166	402.1
867.336	503.9
867.506	417.14
867.676	192.11
867.846	182.89
868.016	209.77
868.186	219.05
868.356	194.74
868.526	153.72
868.696	183
868.866	248.36
869.036	529.22
869.206	256.99
869.376	258.75
869.545	3357.89
869.715	1597.37
869.885	238.65
870.055	160.56
870.224	390.7
870.394	-423.81
870.564	335.82
870.734	17
870.903	89.85
871.073	90.04
871.243	109.43
871.412	86.64
871.582	75.9
871.751	99.39
871.921	98.41
872.091	73.17
872.26	77.7
872.43	92.19
872.599	142.55
872.769	118.2
872.938	95.24
873.108	82.61
873.277	64.11
873.446	60.79
873.616	61.37
873.785	66.56
873.955	65.07
874.124	64.33
874.293	64.47
874.463	43.25
874.632	44.6
874.801	96.5
874.971	135.84
875.14	158.76
875.309	187.65
875.478	351.81
875.647	334.92
875.817	224.25
875.986	157.67
876.155	111.69
876.324	116.09
876.493	129.48
876.662	99.87
876.831	88.52
877	102.85
877.17	110.2
877.339	87.68
877.508	80.35
877.677	88.8
877.846	105.54
878.015	118.91
878.184	138.92
878.352	132.06
878.521	133.99
878.69	126.12
878.859	107.77
879.028	75.24
879.197	71.13
879.366	75.18
879.534	71.59
879.703	70.63
879.872	68.16
880.041	58.21
880.21	66.19
880.378	65.05
880.547	59.55
880.716	56.41
880.884	57.5
881.053	60.26
881.222	55.57
881.39	51.94
881.559	49.28
881.727	54.96
881.896	53.83
882.065	46.37
882.233	46.36
882.402	51.3
882.57	49.35
882.739	54.44
882.907	49.04
883.076	54.16
883.244	63.27
883.412	77.83
883.581	74.62
883.749	74.61
883.918	71
884.086	79.21
884.254	86.58
884.423	93.83
884.591	103.59
884.759	121.32
884.927	149.31
885.096	117.45
885.264	106.63
885.432	132.66
885.6	138.66
885.769	189.66
885.937	164.73
886.105	157.11
886.273	150.79
886.441	103.36
886.609	156.2
886.777	93.3
886.945	-18.75
887.113	-10.53
887.281	-4650
887.449	-151.85
887.617	0
887.785	-134.36
887.953	-107.42
888.121	-283.92
888.289	-247.91
888.457	-857.53
888.625	-22466.67
888.793	3810
888.961	8350
889.129	1216.33
889.296	260.92
889.464	681.25
889.632	222.92
889.8	253.59
889.967	162.22
890.135	67.27
