Data from JASIL_3140_Reflection_2.txt Node
Date: Thu Nov 12 20:56:13 EST 2015
User: Geneva
Spectrometer: USB4E03002
Autoset integration time: false
Trigger mode: 4
Integration Time (sec): 1.000000E-1
Scans to average: 10
Electric dark correction enabled: true
Nonlinearity correction enabled: false
Boxcar width: 5
Stray light correction enabled: false
XAxis mode: Wavelengths
Stop averaging: false
Number of Pixels in Spectrum: 3648
>>>>>Begin Spectral Data<<<<<
177.575	370.03
177.794	336.7
178.014	386.4
178.233	59.03
178.452	103.54
178.672	1549.57
178.891	-35.6
179.11	97.83
179.33	167.83
179.549	185.4
179.768	318.46
179.987	74.33
180.207	8826.92
180.426	-55.72
180.645	-29.6
180.864	-67.99
181.084	-31.21
181.303	-15.41
181.522	23.54
181.741	44.58
181.96	-52.81
182.179	-184.13
182.398	-225.99
182.618	5.2
182.837	37.95
183.056	153.49
183.275	-256.15
183.494	316.87
183.713	85.38
183.932	163.09
184.151	172.07
184.37	191.22
184.589	213.82
184.808	300.36
185.027	331.73
185.246	159.21
185.465	-213.52
185.684	268.72
185.903	-67.15
186.122	-40.45
186.341	-64.54
186.56	-97.42
186.779	-18.25
186.998	13.26
187.216	0.35
187.435	-18.05
187.654	-17.31
187.873	-3223.08
188.092	41.62
188.311	185.93
188.53	-119.58
188.748	160.28
188.967	142.32
189.186	253.18
189.405	-146.34
189.623	-28.23
189.842	202
190.061	100.17
190.28	39.43
190.498	51.23
190.717	49.91
190.936	47.9
191.154	13.83
191.373	-18.39
191.592	-8.8
191.81	51.71
192.029	60.72
192.248	-6.17
192.466	56.48
192.685	-1588.46
192.904	13.68
193.122	73
193.341	99.38
193.559	77.35
193.778	43.57
193.996	73.27
194.215	110.54
194.433	176.57
194.652	216.86
194.87	211.34
195.089	223.42
195.307	114.83
195.526	97.33
195.744	130.62
195.963	-408.6
196.181	414.51
196.399	358.02
196.618	209.15
196.836	134.4
197.055	63.01
197.273	63.02
197.491	55.79
197.71	92.02
197.928	57.94
198.146	37.06
198.365	51.68
198.583	36.52
198.801	13.66
199.019	15.93
199.238	-1.86
199.456	29.31
199.674	48.53
199.892	51.38
200.111	54.03
200.329	85.43
200.547	126.14
200.765	122.33
200.983	144.33
201.202	192.77
201.42	201.02
201.638	229.27
201.856	170.66
202.074	197.47
202.292	1885.07
202.51	9.05
202.728	28.75
202.946	55.53
203.165	66.36
203.383	117.29
203.601	183.03
203.819	134.79
204.037	152.77
204.255	145.15
204.473	160.47
204.691	540.58
204.909	-30.24
205.127	45.52
205.345	47.03
205.562	111.06
205.78	1263.31
205.998	-2146.63
206.216	620.15
206.434	-281.36
206.652	-49.55
206.87	-44.7
207.088	-58.01
207.306	-9.94
207.523	-54
207.741	145.05
207.959	52.42
208.177	-3853.85
208.395	-28.65
208.612	8.32
208.83	30.16
209.048	16.95
209.266	-16.06
209.483	-15.64
209.701	11.21
209.919	19.18
210.136	14.95
210.354	-9.54
210.572	-28.38
210.79	-46.32
211.007	-38.26
211.225	-68.48
211.442	-179.5
211.66	-469.59
211.878	1065.13
212.095	203.83
212.313	190.83
212.53	190.71
212.748	195.41
212.966	110.77
213.183	63.49
213.401	76.45
213.618	54
213.836	57.22
214.053	26.18
214.271	11.21
214.488	-33.17
214.705	-44.91
214.923	-628.85
215.14	93.77
215.358	12.41
215.575	55.19
215.793	103.17
216.01	70.43
216.227	79.07
216.445	27.04
216.662	66.83
216.879	49.06
217.097	-77.48
217.314	-264.42
217.531	-30.86
217.749	-17.88
217.966	2.81
218.183	8.05
218.4	-285.26
218.618	89.52
218.835	81.8
219.052	14.36
219.269	36.86
219.487	31.65
219.704	33.63
219.921	40.04
220.138	44.63
220.355	46.57
220.572	36.15
220.79	16.93
221.007	25.04
221.224	13.27
221.441	57.42
221.658	75.42
221.875	66.89
222.092	62.26
222.309	48.1
222.526	57.55
222.743	8.79
222.96	43.3
223.177	57.34
223.394	45.68
223.611	54.63
223.828	-15753.85
224.045	57.04
224.262	-217.16
224.479	114.87
224.696	1580.47
224.913	-23.38
225.13	-80.18
225.347	27.36
225.564	-165.28
225.781	-135.68
225.997	-104.5
226.214	-76.13
226.431	48.22
226.648	69.2
226.865	49.47
227.082	52.49
227.298	36.02
227.515	27.11
227.732	23.05
227.949	32.68
228.165	26.94
228.382	18.08
228.599	9.88
228.816	7.12
229.032	-11.84
229.249	-6.04
229.466	-2.18
229.682	-6.41
229.899	-14.97
230.116	-12.68
230.332	-14.34
230.549	-30.47
230.765	-15.95
230.982	-21.3
231.199	-59.25
231.415	-44.85
231.632	-42.04
231.848	-31.97
232.065	-13.63
232.281	-2.88
232.498	-7.11
232.714	-6.45
232.931	9.38
233.147	0.66
233.364	-10.15
233.58	23.25
233.797	17.92
234.013	37.96
234.23	20.72
234.446	12.37
234.662	3.11
234.879	-19.05
235.095	-33.68
235.312	-52.78
235.528	-69.24
235.744	-30.74
235.961	-34.17
236.177	-22.73
236.393	-82.44
236.61	-26.78
236.826	-41.6
237.042	-18.48
237.258	10.38
237.475	18.7
237.691	59.03
237.907	72.01
238.123	52.22
238.339	36.99
238.556	33.91
238.772	33.39
238.988	25.66
239.204	30.38
239.42	36.55
239.636	31.08
239.853	22.1
240.069	21.75
240.285	19.43
240.501	17.88
240.717	16.16
240.933	18.67
241.149	21.22
241.365	17.38
241.581	17.71
241.797	12.85
242.013	14.25
242.229	13.69
242.445	16.15
242.661	12.41
242.877	16.57
243.093	21.7
243.309	18.69
243.525	19.49
243.741	18.65
243.957	13
244.173	11.31
244.388	10.19
244.604	12.3
244.82	8.23
245.036	9.76
245.252	3.05
245.468	0.63
245.683	-1.26
245.899	-1.44
246.115	1.23
246.331	3.74
246.547	7.15
246.762	7.5
246.978	5.68
247.194	3.96
247.409	4.47
247.625	6.56
247.841	5.25
248.057	9.09
248.272	9.44
248.488	8.93
248.703	12.58
248.919	7.69
249.135	1.61
249.35	6.48
249.566	11.25
249.782	11.37
249.997	14.04
250.213	18.85
250.428	14.94
250.644	10.53
250.859	11.45
251.075	7.78
251.29	5.09
251.506	11.23
251.721	10.12
251.937	8.67
252.152	9.19
252.368	7.7
252.583	4.98
252.798	7.63
253.014	7.82
253.229	4.68
253.445	9.58
253.66	14.57
253.875	16.56
254.091	13.28
254.306	11.32
254.521	14.91
254.737	8.55
254.952	10.7
255.167	11.9
255.383	9.99
255.598	8.02
255.813	-0.21
256.028	-9
256.244	-12.97
256.459	-6.85
256.674	-8.42
256.889	-12.49
257.104	-8.39
257.32	-8.3
257.535	-4.68
257.75	0.11
257.965	5.43
258.18	9.22
258.395	12.86
258.61	13.11
258.826	11.03
259.041	10.59
259.256	10.25
259.471	12.87
259.686	10.65
259.901	7.37
260.116	6.52
260.331	5.01
260.546	3.21
260.761	2.06
260.976	-1.21
261.191	1.03
261.406	1.44
261.621	-0.57
261.836	0.12
262.05	1.81
262.265	7.09
262.48	6.49
262.695	0.09
262.91	3.26
263.125	4.47
263.34	7.81
263.555	12.78
263.769	11.66
263.984	16.73
264.199	8.97
264.414	16.35
264.629	6.53
264.843	7.69
265.058	12.24
265.273	9.13
265.488	9.46
265.702	11.23
265.917	6.29
266.132	7.78
266.346	5.98
266.561	6.43
266.776	2.67
266.99	9.28
267.205	10.28
267.42	6.4
267.634	9.42
267.849	10.68
268.063	6.31
268.278	5.65
268.492	7.71
268.707	10.22
268.922	10.58
269.136	10.68
269.351	6.77
269.565	5.04
269.78	4.96
269.994	1.06
270.209	0.75
270.423	2.3
270.637	3.44
270.852	-0.73
271.066	0.44
271.281	2.66
271.495	3.53
271.709	6.96
271.924	6.21
272.138	7.8
272.353	10.49
272.567	9.2
272.781	8.57
272.996	9.56
273.21	8.53
273.424	6.12
273.638	6.64
273.853	8.43
274.067	5.11
274.281	4.1
274.495	2.38
274.71	-1.36
274.924	-0.97
275.138	0.11
275.352	-7.1
275.566	-4.34
275.781	-5.44
275.995	-8.42
276.209	-14.58
276.423	-10.82
276.637	-9.49
276.851	-9.01
277.065	-6.32
277.279	-5.5
277.493	-2.58
277.707	2.57
277.921	0.45
278.135	-1.29
278.349	-2.12
278.563	1.69
278.777	1.48
278.991	-1.98
279.205	-2.58
279.419	-1.33
279.633	-3.29
279.847	-7.39
280.061	-9.38
280.275	-9.88
280.489	-7.56
280.703	-6.37
280.917	-8.62
281.131	-9.14
281.344	-5.25
281.558	-5.54
281.772	-11.25
281.986	-8.87
282.2	-9
282.414	-5.45
282.627	-4.77
282.841	-3.17
283.055	-3.09
283.269	-1.69
283.482	-2.82
283.696	-2.05
283.91	-1.05
284.123	0.65
284.337	0.2
284.551	1.53
284.764	-0.02
284.978	1.35
285.192	-1.49
285.405	-0.56
285.619	-3
285.833	-1.78
286.046	-3.03
286.26	-0.3
286.473	0.02
286.687	-1.45
286.9	-0.41
287.114	-0.97
287.327	-1.21
287.541	0.04
287.754	-0.69
287.968	-0.83
288.181	-1.02
288.395	-1.07
288.608	-4.22
288.822	-2.76
289.035	-0.08
289.248	-0.59
289.462	2.41
289.675	1.17
289.889	1.75
290.102	0.68
290.315	3.9
290.529	3.11
290.742	4.59
290.955	5.13
291.169	5.5
291.382	4.37
291.595	0.62
291.808	-2.25
292.022	1.16
292.235	3.97
292.448	6.44
292.661	4.99
292.875	4.09
293.088	0.86
293.301	-0.48
293.514	-1.27
293.727	-1.49
293.94	2.66
294.153	0.74
294.367	-3.35
294.58	-6
294.793	-4.24
295.006	-2.34
295.219	-0.32
295.432	1.48
295.645	1.92
295.858	1.31
296.071	1.74
296.284	0.62
296.497	1.78
296.71	4.25
296.923	6.1
297.136	4.16
297.349	4.17
297.562	3.95
297.775	3.57
297.988	5.96
298.201	5.05
298.414	5.17
298.626	5.72
298.839	6.33
299.052	5.68
299.265	4.37
299.478	4.86
299.691	4.01
299.903	1.41
300.116	1.87
300.329	2.04
300.542	3
300.755	3.38
300.967	3
301.18	2.07
301.393	0.73
301.605	0.58
301.818	1.78
302.031	-1.3
302.243	3.67
302.456	3.8
302.669	2.08
302.881	2.27
303.094	1.73
303.307	1.55
303.519	6.87
303.732	9.06
303.944	6.37
304.157	4.07
304.37	6.63
304.582	6.64
304.795	8.33
305.007	8.63
305.22	8.89
305.432	6.94
305.645	6.43
305.857	-0.49
306.069	-1.12
306.282	2.56
306.494	4.24
306.707	5.86
306.919	1.95
307.132	-0.18
307.344	-1.76
307.556	0.48
307.769	2.13
307.981	3.9
308.193	4.94
308.406	4.84
308.618	3.86
308.83	5.06
309.043	2.18
309.255	4.5
309.467	5.17
309.679	6.98
309.892	3.31
310.104	4.67
310.316	5.46
310.528	5.62
310.74	6.97
310.953	7.34
311.165	6.2
311.377	7.31
311.589	6.65
311.801	7.39
312.013	7.66
312.225	9.31
312.437	7.44
312.649	7.25
312.862	7.97
313.074	6.31
313.286	7.7
313.498	7.88
313.71	8.26
313.922	7.76
314.134	6.47
314.346	5.04
314.558	4.73
314.77	6.15
314.982	5.37
315.193	3.94
315.405	4.37
315.617	4.4
315.829	6.44
316.041	8.43
316.253	7.21
316.465	6.3
316.677	5.8
316.888	7.6
317.1	7.9
317.312	6.47
317.524	8.03
317.736	8.51
317.947	7.52
318.159	5.88
318.371	4.28
318.583	5.81
318.794	6.14
319.006	7.04
319.218	6.13
319.43	5.78
319.641	6.09
319.853	6.22
320.064	6.62
320.276	6.46
320.488	6.34
320.699	5.06
320.911	3.77
321.123	5.52
321.334	4.45
321.546	4.17
321.757	5.56
321.969	6.17
322.18	5.1
322.392	3.57
322.603	5.56
322.815	5.85
323.026	7.14
323.238	8.13
323.449	5.69
323.661	5.38
323.872	9.23
324.083	8.57
324.295	9.42
324.506	8.78
324.718	9.22
324.929	8.19
325.14	7
325.352	6.98
325.563	6.94
325.774	8.92
325.986	11.7
326.197	7.9
326.408	5.76
326.62	5.7
326.831	6.86
327.042	8.2
327.253	7.8
327.464	7.37
327.676	7.29
327.887	5.04
328.098	6.53
328.309	4.24
328.52	8
328.732	9.33
328.943	8.06
329.154	6.21
329.365	4.77
329.576	5.72
329.787	6.33
329.998	6.62
330.209	10.57
330.42	8.07
330.631	8.24
330.842	4.67
331.053	5.59
331.264	4.88
331.475	7.1
331.686	6.46
331.897	4.47
332.108	4.74
332.319	3.01
332.53	3.33
332.741	4.26
332.952	5.26
333.163	6.02
333.374	5.71
333.585	8.8
333.795	8.03
334.006	10.19
334.217	11.05
334.428	12.54
334.639	13.26
334.849	9.44
335.06	7.87
335.271	8.34
335.482	7.1
335.692	6.1
335.903	7.32
336.114	8.71
336.325	5.57
336.535	7.39
336.746	5.91
336.957	7.6
337.167	9.75
337.378	12.61
337.589	11.66
337.799	12.47
338.01	13.75
338.22	9.12
338.431	7.56
338.642	10.05
338.852	6.28
339.063	9.45
339.273	10.03
339.484	11.74
339.694	11.35
339.905	11.44
340.115	13.13
340.326	12.81
340.536	16.74
340.746	17.97
340.957	16.1
341.167	18.35
341.378	19.7
341.588	17.19
341.799	16.7
342.009	15.59
342.219	15.22
342.43	12.51
342.64	12.56
342.85	10.46
343.061	10.2
343.271	11.34
343.481	9.91
343.691	5.9
343.902	6.47
344.112	4.43
344.322	2.69
344.532	3.62
344.743	5.34
344.953	4.78
345.163	6.07
345.373	5.16
345.583	5.5
345.793	6.68
346.004	6.63
346.214	8.42
346.424	9.62
346.634	11.42
346.844	11.63
347.054	11.53
347.264	12.66
347.474	9.8
347.684	11.48
347.894	11.33
348.104	10.52
348.314	11.16
348.524	9.86
348.734	9.48
348.944	11.73
349.154	11.35
349.364	12.36
349.574	11.96
349.784	14.94
349.994	15.86
350.204	15.7
350.413	14.75
350.623	17.48
350.833	17.86
351.043	16.62
351.253	15.35
351.463	14.14
351.672	13.51
351.882	13.78
352.092	12.17
352.302	11.18
352.511	13.09
352.721	15.19
352.931	12.64
353.141	12.39
353.35	14.52
353.56	12.58
353.77	13.69
353.979	13.84
354.189	13.61
354.399	13.92
354.608	13.29
354.818	11.17
355.027	9.69
355.237	9.35
355.447	8.93
355.656	8.02
355.866	10.42
356.075	11.7
356.285	11.09
356.494	9.28
356.704	9.99
356.913	9.89
357.123	9.94
357.332	9.17
357.542	9.51
357.751	10.34
357.96	10.57
358.17	9.79
358.379	8.4
358.589	8.01
358.798	9.01
359.007	8.53
359.217	8.42
359.426	9.44
359.635	11.36
359.845	10.81
360.054	9.98
360.263	10.08
360.472	10.57
360.682	10.78
360.891	10.22
361.1	9.57
361.309	9.99
361.519	10.6
361.728	10.36
361.937	8.82
362.146	10.46
362.355	10.53
362.564	10.77
362.774	10.14
362.983	10.41
363.192	10.54
363.401	11.97
363.61	10.89
363.819	11.46
364.028	10.98
364.237	13.1
364.446	10.8
364.655	9.9
364.864	9.98
365.073	8.25
365.282	7.31
365.491	7.98
365.7	9.05
365.909	9.97
366.118	8.62
366.327	8.42
366.536	7.55
366.745	7.91
366.954	10.1
367.162	10.09
367.371	12.12
367.58	13.62
367.789	13.42
367.998	13.17
368.207	13.21
368.415	15.05
368.624	15.78
368.833	16.22
369.042	18
369.25	16.58
369.459	15.64
369.668	16.92
369.877	14.47
370.085	14.9
370.294	14.68
370.503	14.44
370.711	13.43
370.92	12.68
371.129	12.57
371.337	11.06
371.546	10.81
371.754	10.7
371.963	8.87
372.171	12
372.38	11.55
372.589	10.66
372.797	11.32
373.006	10.16
373.214	10.37
373.423	9.19
373.631	10.07
373.84	11.06
374.048	12.45
374.256	13.43
374.465	13.15
374.673	13.6
374.882	12.82
375.09	12.47
375.298	12.36
375.507	12.51
375.715	12.51
375.923	11.61
376.132	10.49
376.34	10.03
376.548	9.3
376.757	7.15
376.965	5.54
377.173	5.91
377.381	5.86
377.59	6.48
377.798	6.44
378.006	6.5
378.214	6.87
378.423	6.93
378.631	7.65
378.839	8.17
379.047	9.35
379.255	10.41
379.463	9.74
379.671	9.38
379.879	8.91
380.088	7.92
380.296	7.26
380.504	5.94
380.712	6.03
380.92	4.41
381.128	2.86
381.336	2.42
381.544	2.96
381.752	4.51
381.96	3.99
382.168	4.95
382.376	5.79
382.584	5.84
382.791	7.45
382.999	7.27
383.207	8.09
383.415	8.93
383.623	7.75
383.831	7.98
384.039	6.79
384.247	5.9
384.454	4.75
384.662	5.47
384.87	6.23
385.078	5.14
385.285	5.2
385.493	4.86
385.701	4.1
385.909	5.2
386.116	5.84
386.324	7.27
386.532	9.47
386.739	9.79
386.947	8.52
387.155	8.66
387.362	9.48
387.57	9.96
387.778	11.15
387.985	10.3
388.193	10.83
388.4	7.92
388.608	5.65
388.816	4.92
389.023	3.66
389.231	3.55
389.438	3.92
389.646	4.07
389.853	3.22
390.061	1.55
390.268	2.95
390.475	3.64
390.683	6.78
390.89	7.99
391.098	7.68
391.305	8.22
391.512	8.19
391.72	6.63
391.927	6.89
392.135	6.78
392.342	6.81
392.549	7.11
392.756	5.73
392.964	4.9
393.171	4.79
393.378	5.03
393.586	5.8
393.793	5.79
394	6.66
394.207	6.54
394.414	7.28
394.622	7.09
394.829	7.19
395.036	6.81
395.243	6.84
395.45	6.81
395.657	5.97
395.864	5.26
396.072	5.87
396.279	6.37
396.486	6.2
396.693	5.96
396.9	7.11
397.107	6.5
397.314	6.87
397.521	5.97
397.728	6.44
397.935	5.79
398.142	6.12
398.349	6.6
398.556	6.13
398.763	5.53
398.97	5.53
399.177	6.13
399.383	6.41
399.59	5.18
399.797	5.2
400.004	5.02
400.211	6.55
400.418	6.71
400.625	5.91
400.831	6.08
401.038	7.3
401.245	7.41
401.452	6.4
401.658	6.12
401.865	7.37
402.072	7.92
402.279	8.25
402.485	7.69
402.692	7.67
402.899	7.08
403.105	7.14
403.312	6.72
403.519	6.87
403.725	5.51
403.932	4.99
404.138	5.31
404.345	4.49
404.552	3.82
404.758	4.13
404.965	3.88
405.171	5.56
405.378	5.35
405.584	5.12
405.791	4.41
405.997	5.98
406.204	6.58
406.41	6.27
406.617	7.32
406.823	8.11
407.029	7.47
407.236	7.41
407.442	6.36
407.649	7.15
407.855	7.53
408.061	7.87
408.268	6.8
408.474	6.66
408.68	7.64
408.887	7.44
409.093	7.13
409.299	7.58
409.505	7.28
409.712	7.44
409.918	6.75
410.124	6.03
410.33	6.57
410.537	7.36
410.743	7.16
410.949	6.32
411.155	5.86
411.361	3.83
411.567	3.56
411.773	3.59
411.98	2.69
412.186	2.75
412.392	3.23
412.598	3.32
412.804	2.37
413.01	2.15
413.216	2.74
413.422	3.29
413.628	4.91
413.834	5.23
414.04	5.56
414.246	6.22
414.452	6.44
414.658	5.89
414.864	5.02
415.07	6.36
415.275	6.41
415.481	6.29
415.687	5.89
415.893	5.54
416.099	5.35
416.305	5.31
416.511	5.37
416.716	5.4
416.922	5.92
417.128	5.9
417.334	5.76
417.539	6.19
417.745	5.72
417.951	6.03
418.157	6.46
418.362	6.58
418.568	6.5
418.774	6.39
418.979	6.02
419.185	5.95
419.391	6.13
419.596	6.18
419.802	5.76
420.008	6.11
420.213	10.92
420.419	10.51
420.624	10.49
420.83	10.22
421.035	10.53
421.241	10.43
421.446	10.24
421.652	10.27
421.857	9.85
422.063	9.66
422.268	9.43
422.474	4.51
422.679	4.73
422.885	4.55
423.09	5.03
423.295	4.72
423.501	4.76
423.706	4.71
423.911	4.8
424.117	5.52
424.322	5.66
424.527	5.69
424.733	5.39
424.938	5.55
425.143	5.38
425.349	4.88
425.554	5.19
425.759	5.25
425.964	4.92
426.169	4.81
426.375	3.95
426.58	4.36
426.785	4.36
426.99	4.51
427.195	4.34
427.4	4.44
427.605	5.01
427.811	4.26
428.016	4.42
428.221	4.77
428.426	4.65
428.631	5.22
428.836	4.56
429.041	3.96
429.246	4.07
429.451	3.73
429.656	4.4
429.861	4.16
430.066	3.75
430.271	3.77
430.476	3.92
430.681	4.62
430.886	3.84
431.09	4.24
431.295	4.69
431.5	5.14
431.705	5.52
431.91	4.86
432.115	5.18
432.32	5.47
432.524	5.34
432.729	4.3
432.934	3.82
433.139	4.94
433.343	4.98
433.548	5
433.753	4.44
433.958	4.46
434.162	4.87
434.367	4.58
434.572	4.84
434.776	5.56
434.981	6.57
435.186	6.25
435.39	5.32
435.595	5.28
435.799	5.07
436.004	5.3
436.209	5.32
436.413	5.21
436.618	4.93
436.822	4.95
437.027	4.8
437.231	4.59
437.436	4.59
437.64	5.14
437.845	4.66
438.049	4.64
438.253	5.15
438.458	4.79
438.662	4.69
438.867	4.68
439.071	4.85
439.275	4.43
439.48	4.09
439.684	4.1
439.888	3.69
440.093	3.8
440.297	4.05
440.501	3.67
440.706	3.55
440.91	3.81
441.114	3.86
441.318	3.73
441.523	4.01
441.727	4.46
441.931	4.07
442.135	4.25
442.339	4.56
442.543	4.2
442.748	4.33
442.952	4.5
443.156	4.79
443.36	5.16
443.564	4.97
443.768	4.36
443.972	4.38
444.176	4.91
444.38	4.96
444.584	4.97
444.788	5.02
444.992	4.99
445.196	5.48
445.4	5.22
445.604	5.23
445.808	5.16
446.012	5.14
446.216	5.15
446.42	5.19
446.624	5.63
446.828	5.53
447.032	5.22
447.235	5.02
447.439	4.33
447.643	4.44
447.847	3.64
448.051	3.85
448.254	4.33
448.458	4.46
448.662	4.31
448.866	3.64
449.069	4.28
449.273	4.34
449.477	4.11
449.681	3.78
449.884	3.37
450.088	4.55
450.292	4.28
450.495	3.99
450.699	3.82
450.902	4.62
451.106	4.12
451.31	3.97
451.513	4.26
451.717	4.44
451.92	4.76
452.124	4.79
452.327	4.39
452.531	4.38
452.734	4.04
452.938	3.88
453.141	3.94
453.345	4.12
453.548	2.99
453.752	3.18
453.955	3.87
454.158	4.18
454.362	3.93
454.565	4.1
454.769	4.03
454.972	4.56
455.175	4.36
455.379	3.08
455.582	4.33
455.785	4.6
455.988	4.6
456.192	4.58
456.395	3.87
456.598	3.92
456.801	3.66
457.005	3.29
457.208	3.21
457.411	3.43
457.614	3.71
457.817	2.55
458.021	2.72
458.224	2.64
458.427	2.33
458.63	2.9
458.833	3.07
459.036	2.82
459.239	3.27
459.442	2.78
459.645	3.29
459.848	3.38
460.051	3.28
460.254	3.6
460.457	3.73
460.66	4.09
460.863	4.06
461.066	4.31
461.269	4.9
461.472	4.81
461.675	5.31
461.878	5.06
462.081	4.73
462.284	4.97
462.486	5.16
462.689	5.07
462.892	5
463.095	5.14
463.298	5.4
463.5	4.78
463.703	5.16
463.906	5.45
464.109	4.98
464.311	6.01
464.514	5.61
464.717	5.1
464.92	4.95
465.122	5.06
465.325	5.29
465.528	4.51
465.73	5.52
465.933	4.86
466.135	4
466.338	3.68
466.541	2.8
466.743	3.21
466.946	3.66
467.148	3.85
467.351	3.52
467.553	3.19
467.756	3.7
467.958	2.31
468.161	3.14
468.363	4.05
468.566	4.1
468.768	4.42
468.971	4.4
469.173	4.34
469.375	5.02
469.578	4.83
469.78	4.55
469.983	4.26
470.185	4.87
470.387	4.35
470.59	3.96
470.792	4.45
470.994	4.2
471.196	4.28
471.399	4.54
471.601	3.88
471.803	4.26
472.005	4.4
472.208	4.23
472.41	4.1
472.612	3.99
472.814	4.64
473.016	4.76
473.218	5.22
473.421	5.44
473.623	4.69
473.825	4.46
474.027	4.65
474.229	4.43
474.431	4.64
474.633	4.39
474.835	4.23
475.037	3.52
475.239	3.43
475.441	3.41
475.643	3.57
475.845	3.56
476.047	3.8
476.249	3.69
476.451	4.11
476.653	4
476.855	4.35
477.057	5.16
477.258	5.32
477.46	5.29
477.662	5.22
477.864	4.83
478.066	4.85
478.268	4.94
478.469	4.49
478.671	4.39
478.873	4.63
479.075	4.67
479.276	4.22
479.478	4.44
479.68	4.28
479.882	4.42
480.083	4.47
480.285	4.49
480.487	4.25
480.688	4.3
480.89	4.46
481.091	4.42
481.293	4.46
481.495	4.54
481.696	4.37
481.898	4.39
482.099	4.26
482.301	4.33
482.502	4.52
482.704	4.4
482.905	4.43
483.107	4.31
483.308	4.25
483.51	4.31
483.711	4.28
483.913	4.39
484.114	4.33
484.315	4.27
484.517	4.42
484.718	4.18
484.92	4.45
485.121	4.51
485.322	4.81
485.524	4.94
485.725	5.04
485.926	4.96
486.127	4.72
486.329	4.83
486.53	4.78
486.731	4.45
486.932	4.44
487.134	4.42
487.335	4.24
487.536	4.1
487.737	3.88
487.938	3.66
488.139	3.78
488.341	3.89
488.542	3.72
488.743	3.84
488.944	4.12
489.145	4.31
489.346	3.77
489.547	4
489.748	4.06
489.949	4.12
490.15	4.28
490.351	4.38
490.552	4.64
490.753	4.67
490.954	4.49
491.155	4.35
491.356	4.19
491.557	4.62
491.758	4.72
491.959	4.44
492.159	4.53
492.36	4.44
492.561	4.39
492.762	4.11
492.963	4.16
493.164	4.47
493.364	4.57
493.565	4.69
493.766	5.14
493.967	5.33
494.167	5.9
494.368	6.03
494.569	5.97
494.769	5.59
494.97	5.75
495.171	5.96
495.371	5.86
495.572	5.63
495.773	5.64
495.973	4.87
496.174	4.52
496.375	4.13
496.575	4.03
496.776	4.25
496.976	4.4
497.177	3.93
497.377	3.69
497.578	3.81
497.778	4
497.979	4.36
498.179	4.53
498.38	4.85
498.58	4.51
498.78	4.65
498.981	4.18
499.181	4.12
499.382	4.21
499.582	4.44
499.782	4.67
499.983	4.63
500.183	4.14
500.383	4.46
500.584	3.52
500.784	4.28
500.984	4.38
501.184	4.73
501.385	4.62
501.585	4.57
501.785	4.71
501.985	4.41
502.185	4.33
502.386	4.97
502.586	5.06
502.786	5.79
502.986	5.54
503.186	5.49
503.386	6.04
503.586	6.14
503.786	6.71
503.987	6.85
504.187	6.69
504.387	6.89
504.587	6.53
504.787	6.6
504.987	6.52
505.187	6.43
505.387	6.45
505.587	5.56
505.786	5.89
505.986	5.98
506.186	5.81
506.386	6
506.586	6.08
506.786	6.07
506.986	5.89
507.186	5.99
507.386	6.41
507.585	6.47
507.785	6.77
507.985	6.39
508.185	6.15
508.384	6.39
508.584	6.72
508.784	6.47
508.984	6.81
509.183	6.74
509.383	6.54
509.583	6.52
509.782	6.73
509.982	7.16
510.182	7.49
510.381	7.93
510.581	7.6
510.781	7.47
510.98	7.66
511.18	7.47
511.379	7.78
511.579	8.25
511.778	8.55
511.978	8.58
512.177	8.36
512.377	8.7
512.576	8.2
512.776	8.86
512.975	9.25
513.175	9.26
513.374	9.4
513.573	9.49
513.773	9.34
513.972	9.47
514.172	9.64
514.371	9.97
514.57	9.96
514.77	10.47
514.969	10.28
515.168	10.08
515.367	10.11
515.567	10.18
515.766	10.01
515.965	10.25
516.164	9.79
516.364	9.67
516.563	9.89
516.762	10.07
516.961	10.18
517.16	10.23
517.359	10.26
517.559	10.64
517.758	10.69
517.957	11.26
518.156	11.09
518.355	11.4
518.554	11.64
518.753	11.52
518.952	11.5
519.151	11.28
519.35	11.16
519.549	11.26
519.748	11.37
519.947	11.35
520.146	11.01
520.345	11.34
520.544	11.5
520.743	11.64
520.942	11.73
521.141	11.87
521.339	12.12
521.538	12.42
521.737	12.32
521.936	12.27
522.135	12.69
522.333	12.9
522.532	12.87
522.731	12.79
522.93	12.39
523.129	12.64
523.327	12.66
523.526	12.69
523.725	13.01
523.923	13.37
524.122	13.73
524.321	13.89
524.519	14.2
524.718	14.53
524.917	14.95
525.115	15.37
525.314	15.68
525.512	15.91
525.711	16.41
525.909	16.68
526.108	16.57
526.306	16.54
526.505	16.54
526.703	16.32
526.902	16.25
527.1	16.1
527.299	15.93
527.497	15.77
527.696	15.83
527.894	15.63
528.092	15.42
528.291	15.55
528.489	15.49
528.688	15.54
528.886	15.52
529.084	15.74
529.283	15.95
529.481	16.07
529.679	16.23
529.877	16.1
530.076	16.51
530.274	16.7
530.472	16.95
530.67	17.35
530.869	17.39
531.067	17.92
531.265	18.01
531.463	18.01
531.661	18.6
531.859	18.83
532.057	19.08
532.255	19.1
532.454	19.15
532.652	19.19
532.85	19.32
533.048	19.56
533.246	19.62
533.444	19.62
533.642	19.98
533.84	19.99
534.038	20.13
534.236	20.27
534.434	20.33
534.632	20.55
534.83	20.87
535.027	20.88
535.225	20.7
535.423	20.77
535.621	20.61
535.819	20.2
536.017	20.26
536.215	19.92
536.412	19.89
536.61	20.01
536.808	20.46
537.006	20.18
537.203	20.12
537.401	20.43
537.599	20.66
537.797	21.03
537.994	21.52
538.192	21.58
538.39	21.94
538.587	22.51
538.785	22.73
538.983	22.46
539.18	22.4
539.378	22.49
539.575	22.65
539.773	22.77
539.97	23.12
540.168	23.19
540.366	23.3
540.563	23.49
540.761	23.47
540.958	23.49
541.155	23.53
541.353	23.89
541.55	24.21
541.748	24.33
541.945	24.35
542.143	24.3
542.34	24.54
542.537	24.56
542.735	24.73
542.932	24.62
543.129	24.61
543.327	24.9
543.524	25.06
543.721	24.76
543.919	24.84
544.116	24.8
544.313	24.9
544.51	24.78
544.708	24.77
544.905	24.86
545.102	25.13
545.299	24.97
545.496	24.79
545.693	25.06
545.891	25.64
546.088	25.58
546.285	25.36
546.482	25.59
546.679	25.41
546.876	25.57
547.073	25.94
547.27	26.24
547.467	26.44
547.664	26.69
547.861	26.28
548.058	25.96
548.255	26.7
548.452	27.36
548.649	27.13
548.846	27.11
549.043	26.69
549.24	26.3
549.437	25.95
549.633	26.42
549.83	26.49
550.027	26.48
550.224	26.88
550.421	26.63
550.618	26.83
550.814	27.09
551.011	28.46
551.208	29.19
551.405	29.39
551.601	29.21
551.798	29.03
551.995	29.34
552.191	29.78
552.388	30.2
552.585	30.38
552.781	30.93
552.978	31.11
553.175	30.06
553.371	30.03
553.568	29.51
553.764	30.12
553.961	29.72
554.157	29.85
554.354	29.09
554.55	28.63
554.747	28.45
554.943	27.6
555.14	27.69
555.336	28.19
555.533	27.96
555.729	28.66
555.926	28.66
556.122	29.96
556.318	29.88
556.515	30.62
556.711	30.69
556.907	30.42
557.104	30.67
557.3	30.02
557.496	30.53
557.693	30.57
557.889	30.69
558.085	30.49
558.281	30.33
558.478	29.93
558.674	30.31
558.87	30.62
559.066	31.02
559.262	31.47
559.459	32.7
559.655	32.08
559.851	32.65
560.047	32.5
560.243	32.48
560.439	32.16
560.635	32.97
560.831	33.11
561.027	32.6
561.223	32.23
561.419	31.92
561.615	31.46
561.811	31.44
562.007	31.51
562.203	31.39
562.399	31.55
562.595	32.07
562.791	31.96
562.987	32.04
563.183	32.78
563.379	33.21
563.575	33.36
563.771	33.43
563.966	34.06
564.162	34.19
564.358	35.02
564.554	35.45
564.75	34.61
564.945	34.25
565.141	34.32
565.337	33.61
565.533	33.88
565.728	33.58
565.924	33.71
566.12	33.48
566.315	33.71
566.511	33.39
566.707	33.33
566.902	33.78
567.098	33.92
567.293	33.62
567.489	34.18
567.684	34.4
567.88	34.59
568.076	34.91
568.271	35.03
568.467	35.01
568.662	34.65
568.858	34.45
569.053	34.6
569.248	34.6
569.444	34.88
569.639	34.29
569.835	34.4
570.03	34.97
570.225	34.41
570.421	33.94
570.616	33.71
570.812	33.37
571.007	33.74
571.202	34.02
571.397	34.17
571.593	34.12
571.788	34.49
571.983	33.84
572.178	33.18
572.374	33.14
572.569	33.7
572.764	34.18
572.959	35.08
573.154	34.8
573.35	34.74
573.545	35.16
573.74	35.37
573.935	35.68
574.13	35.96
574.325	36.24
574.52	36.05
574.715	36.25
574.91	35.8
575.105	35.61
575.3	36.16
575.495	35.96
575.69	35.95
575.885	36.01
576.08	36.18
576.275	37.1
576.47	37.54
576.665	38.09
576.86	37.84
577.055	37.75
577.25	38.37
577.444	37.77
577.639	37.89
577.834	37.78
578.029	37.19
578.224	37.32
578.418	36.78
578.613	36.42
578.808	36.99
579.003	36.35
579.197	36.41
579.392	36.15
579.587	36.22
579.781	37.8
579.976	38.14
580.171	39.07
580.365	39.1
580.56	39.18
580.755	39.62
580.949	39.3
581.144	40.04
581.338	40.5
581.533	40.11
581.727	40.12
581.922	39.08
582.116	39.13
582.311	38.36
582.505	38.48
582.7	37.79
582.894	37.99
583.089	38.45
583.283	39
583.478	39.28
583.672	39.45
583.866	40.46
584.061	40.53
584.255	40.58
584.449	41.13
584.644	40.84
584.838	41.64
585.032	42.09
585.226	41.77
585.421	42.09
585.615	42.16
585.809	42.82
586.003	42.42
586.198	42.25
586.392	42.02
586.586	42.29
586.78	42.11
586.974	42.65
587.168	42.46
587.363	42.58
587.557	41.82
587.751	41.16
587.945	41.05
588.139	41.36
588.333	41.52
588.527	41.54
588.721	40.86
588.915	40.8
589.109	39.5
589.303	38.77
589.497	38.67
589.691	38.59
589.885	39.1
590.079	38.56
590.273	38.31
590.466	37.49
590.66	37.69
590.854	38.38
591.048	39.65
591.242	40.42
591.436	40.89
591.629	41.28
591.823	41.4
592.017	41.78
592.211	42.1
592.404	41.57
592.598	42.28
592.792	41.39
592.986	41.95
593.179	41.52
593.373	41.62
593.567	41.88
593.76	41.7
593.954	42.45
594.147	42.66
594.341	42.68
594.535	42.89
594.728	42.56
594.922	43.59
595.115	42.58
595.309	42.63
595.502	42.63
595.696	42.66
595.889	42.48
596.083	41.26
596.276	41.41
596.47	41.51
596.663	42
596.856	42.4
597.05	41.88
597.243	42.44
597.437	42.59
597.63	42.28
597.823	41.93
598.017	42.03
598.21	43.03
598.403	42.71
598.596	43.02
598.79	42.75
598.983	43.28
599.176	44.89
599.369	44.72
599.563	44.31
599.756	45.27
599.949	45.93
600.142	46.08
600.335	46.07
600.528	45.53
600.722	45.51
600.915	45.72
601.108	45.32
601.301	44.18
601.494	44.53
601.687	44.49
601.88	44.27
602.073	44.52
602.266	44.4
602.459	44.81
602.652	45.09
602.845	44.81
603.038	44.35
603.231	44.45
603.424	44.4
603.617	44.27
603.809	44.08
604.002	43.96
604.195	43.85
604.388	44.08
604.581	43.42
604.774	43.7
604.966	43.64
605.159	43.9
605.352	43.35
605.545	43.65
605.737	43.63
605.93	44.2
606.123	44.42
606.316	43.22
606.508	42.5
606.701	43.01
606.894	42.22
607.086	42.74
607.279	42.19
607.471	42.55
607.664	41.95
607.857	41.65
608.049	41.97
608.242	41.43
608.434	42.32
608.627	42.97
608.819	42.68
609.012	42.86
609.204	42.6
609.397	43.02
609.589	43.19
609.782	44.01
609.974	44.66
610.166	44.2
610.359	45.06
610.551	44.98
610.743	45.3
610.936	45.7
611.128	46.07
611.32	46.86
611.513	47.71
611.705	47.79
611.897	47.43
612.09	47.1
612.282	46.76
612.474	46.1
612.666	46.53
612.858	46.35
613.051	46.55
613.243	45.93
613.435	45
613.627	44.45
613.819	44.8
614.011	44.65
614.203	45.12
614.395	46.16
614.588	46.18
614.78	45.95
614.972	45.99
615.164	45.23
615.356	45.73
615.548	45.9
615.74	46.43
615.932	45.81
616.124	46.93
616.315	47.09
616.507	47.12
616.699	47.59
616.891	48.75
617.083	49.34
617.275	50.43
617.467	50.67
617.659	50.34
617.85	50.5
618.042	50.1
618.234	48.9
618.426	47.33
618.618	47.71
618.809	46.74
619.001	46.18
619.193	45.85
619.384	45.47
619.576	45.79
619.768	45.75
619.959	46.1
620.151	46.81
620.343	46.55
620.534	47.75
620.726	46.71
620.917	47.72
621.109	47.57
621.301	47.27
621.492	47.13
621.684	46.65
621.875	46.96
622.067	46.48
622.258	47.22
622.45	48.12
622.641	48.04
622.832	48.84
623.024	49.04
623.215	48.89
623.407	48.64
623.598	49.28
623.789	49.4
623.981	50.35
624.172	50.21
624.363	49.52
624.555	49.28
624.746	49.51
624.937	48.91
625.129	48.38
625.32	48.08
625.511	48.51
625.702	48.17
625.893	47.56
626.085	46.74
626.276	46.57
626.467	46.47
626.658	45.91
626.849	45.99
627.04	45.76
627.231	45.17
627.422	45.6
627.614	45.16
627.805	45.14
627.996	45.37
628.187	45.5
628.378	44.88
628.569	44.57
628.76	44.35
628.951	43.85
629.142	43.96
629.332	44.78
629.523	45.3
629.714	45.34
629.905	45.45
630.096	45.65
630.287	45.03
630.478	45.67
630.669	46.17
630.859	47.32
631.05	47.92
631.241	48.57
631.432	48.23
631.623	47.17
631.813	46.77
632.004	46.65
632.195	46.05
632.385	46.24
632.576	46.01
632.767	46.13
632.957	45.84
633.148	45.71
633.339	45.02
633.529	45.29
633.72	45.77
633.91	46.06
634.101	45.35
634.292	46.57
634.482	46.93
634.673	47.65
634.863	47.98
635.054	48.01
635.244	47.78
635.435	48
635.625	48.7
635.815	48.43
636.006	49.03
636.196	49.47
636.387	48.29
636.577	49.63
636.767	48.89
636.958	48.08
637.148	47.63
637.338	47.74
637.529	46.96
637.719	46.56
637.909	46.86
638.099	46.59
638.29	47.81
638.48	48.05
638.67	46.79
638.86	47.01
639.05	47.73
639.241	49.45
639.431	49.61
639.621	49.56
639.811	49.19
640.001	49.76
640.191	50.31
640.381	49.72
640.571	50.4
640.761	51.07
640.951	50.71
641.141	51.36
641.331	49.48
641.521	48.79
641.711	49.28
641.901	49.79
642.091	47.99
642.281	46.89
642.471	46.82
642.661	47.36
642.851	47.1
643.041	48.91
643.231	48.2
643.42	48.14
643.61	48.48
643.8	49.02
643.99	49.08
644.18	49.94
644.369	50.53
644.559	50.42
644.749	50.02
644.939	49.6
645.128	48.91
645.318	48.91
645.508	48.6
645.697	48.91
645.887	48.67
646.076	48.37
646.266	48.84
646.456	49.3
646.645	51.04
646.835	50.75
647.024	51.05
647.214	50.59
647.403	50.72
647.593	51.84
647.782	50.76
647.972	51.47
648.161	52.12
648.351	51.36
648.54	51
648.73	49.8
648.919	50.05
649.108	49.23
649.298	49.7
649.487	49.23
649.677	50.07
649.866	50.9
650.055	50.65
650.244	50.42
650.434	51.52
650.623	50.78
650.812	49.88
651.002	49.82
651.191	50.63
651.38	49.61
651.569	49.48
651.758	48.64
651.947	49.1
652.137	48.89
652.326	48.54
652.515	48.01
652.704	47.87
652.893	48.75
653.082	48
653.271	47.82
653.46	48.69
653.649	48.39
653.838	47.97
654.027	47.52
654.216	47.91
654.405	49
654.594	50.46
654.783	51.18
654.972	50.57
655.161	50.98
655.35	50.8
655.539	50.46
655.728	51.09
655.916	50.67
656.105	50.7
656.294	50.09
656.483	47.96
656.672	46.94
656.86	46.39
657.049	46.12
657.238	46.82
657.427	46.6
657.615	46.99
657.804	47.65
657.993	47.86
658.181	48.26
658.37	48.51
658.559	49.52
658.747	49.07
658.936	50.3
659.125	51.07
659.313	50.66
659.502	51.28
659.69	51.18
659.879	50.97
660.067	51.84
660.256	51.21
660.444	51.4
660.633	51.72
660.821	52.54
661.01	51.68
661.198	51.37
661.387	52.16
661.575	52.98
661.763	53.81
661.952	53.44
662.14	53.51
662.328	53.68
662.517	54.13
662.705	54.64
662.893	53.88
663.082	54.81
663.27	55.56
663.458	54.36
663.646	53.57
663.834	53.49
664.023	53.66
664.211	52.94
664.399	53.68
664.587	53.48
664.775	52.48
664.963	53.29
665.152	51.75
665.34	50.98
665.528	52.07
665.716	51.19
665.904	50.9
666.092	51.17
666.28	50.45
666.468	50.16
666.656	50.72
666.844	50.77
667.032	50.05
667.22	51.34
667.408	50.71
667.596	50.49
667.784	51.06
667.971	52.07
668.159	51.39
668.347	52.4
668.535	51.87
668.723	51.79
668.911	51.33
669.098	50.85
669.286	50.67
669.474	52.5
669.662	52.37
669.849	52.9
670.037	52.03
670.225	52.05
670.413	51.13
670.6	51.45
670.788	49.32
670.976	49.97
671.163	50.5
671.351	50.14
671.538	49.23
671.726	50
671.913	49.21
672.101	49.17
672.289	50
672.476	50.71
672.664	51.54
672.851	53.21
673.039	54.51
673.226	55.24
673.413	54.27
673.601	54.36
673.788	53.51
673.976	54.21
674.163	54.64
674.35	54.96
674.538	54.74
674.725	54.89
674.912	54.47
675.1	53.75
675.287	54.29
675.474	56.08
675.662	55.12
675.849	55
676.036	54.13
676.223	53.24
676.411	52.21
676.598	53.37
676.785	52.32
676.972	53.72
677.159	52.93
677.346	52.68
677.533	52.09
677.721	53.41
677.908	54.43
678.095	54.21
678.282	54.59
678.469	55.01
678.656	54.13
678.843	54.69
679.03	53.57
679.217	54.27
679.404	53.93
679.591	53.67
679.778	52.87
679.964	51.26
680.151	51.98
680.338	51.26
680.525	51.11
680.712	50.74
680.899	50.64
681.086	50.88
681.272	49.64
681.459	49.71
681.646	50.51
681.833	50.81
682.02	51.88
682.206	52.14
682.393	53.33
682.58	54.26
682.766	55.57
682.953	54.23
683.14	54.79
683.326	55.57
683.513	54
683.7	54.19
683.886	54.35
684.073	54.91
684.259	55.49
684.446	54.39
684.632	54.31
684.819	53.5
685.005	55.99
685.192	55.13
685.378	54.85
685.565	55.96
685.751	55.44
685.938	56.01
686.124	55.83
686.31	55.14
686.497	55.13
686.683	55.13
686.87	55.7
687.056	53.61
687.242	54.18
687.429	54.63
687.615	55.33
687.801	53.59
687.987	52.77
688.174	52.55
688.36	52.71
688.546	52.75
688.732	52.54
688.918	50.99
689.105	51.96
689.291	51.44
689.477	51.73
689.663	51.89
689.849	53.75
690.035	53.82
690.221	53.85
690.407	52.44
690.593	50.83
690.779	50.35
690.965	51.72
691.151	52.37
691.337	54.57
691.523	55.86
691.709	55.73
691.895	55.15
692.081	55.56
692.267	54.22
692.453	55.31
692.639	57.63
692.825	58.15
693.011	58.12
693.196	58.12
693.382	56.77
693.568	55.8
693.754	53.74
693.94	54.78
694.125	54.43
694.311	56.26
694.497	56.83
694.682	55.05
694.868	53.66
695.054	52.94
695.239	51.53
695.425	50.94
695.611	50.6
695.796	50.7
695.982	50.21
696.168	50.25
696.353	49.6
696.539	48.52
696.724	49.49
696.91	49.17
697.095	49.32
697.281	49.27
697.466	48.77
697.652	49.25
697.837	50.91
698.023	50.6
698.208	51.34
698.393	51.39
698.579	52.4
698.764	52.13
698.949	53.06
699.135	52.67
699.32	52.93
699.505	54.01
699.691	51.9
699.876	50.27
700.061	50.77
700.246	49.42
700.432	50.45
700.617	50.06
700.802	51.64
700.987	53.76
701.172	53.9
701.358	55.17
701.543	54.34
701.728	56.48
701.913	57.05
702.098	56.21
702.283	56.09
702.468	55.06
702.653	54.47
702.838	53.76
703.023	51.79
703.208	52.84
703.393	54.55
703.578	56.02
703.763	56.52
703.948	56.14
704.133	56.9
704.318	55.35
704.503	56.86
704.688	55.98
704.873	56.94
705.057	56.48
705.242	55.12
705.427	51.71
705.612	49.41
705.797	47.62
705.981	47.67
706.166	48.16
706.351	49.64
706.536	46.76
706.72	47.52
706.905	46.54
707.09	45.78
707.274	47.51
707.459	46.51
707.644	49.38
707.828	50.05
708.013	49.78
708.197	49.99
708.382	51.53
708.567	53.34
708.751	53.08
708.936	53.58
709.12	55.95
709.305	55.49
709.489	60.51
709.673	58.59
709.858	58.86
710.042	59.87
710.227	58.47
710.411	56.57
710.596	55.43
710.78	55.42
710.964	56.62
711.149	54.78
711.333	55.52
711.517	53.03
711.702	52.19
711.886	53.09
712.07	53.31
712.254	53.9
712.438	55.93
712.623	57.35
712.807	58.61
712.991	59.01
713.175	59.06
713.359	57.9
713.544	57.75
713.728	59
713.912	57.93
714.096	59.6
714.28	59.9
714.464	60.34
714.648	60.98
714.832	60.85
715.016	57.48
715.2	57.1
715.384	58.81
715.568	58.54
715.752	57.17
715.936	58.38
716.12	58.19
716.304	58.6
716.488	58.2
716.671	56.35
716.855	55.61
717.039	56.65
717.223	59.64
717.407	57.07
717.59	57.85
717.774	60.36
717.958	59.11
718.142	56.88
718.325	55.01
718.509	54.54
718.693	57.14
718.877	55.77
719.06	56.08
719.244	54.65
719.428	56.26
719.611	53.88
719.795	52.82
719.978	53.99
720.162	56.06
720.345	55.63
720.529	56.06
720.713	55.15
720.896	56.45
721.08	56.02
721.263	53.74
721.446	52.37
721.63	55.12
721.813	53.15
721.997	53.36
722.18	52.35
722.364	54.81
722.547	54.49
722.73	53.53
722.914	54.23
723.097	55.28
723.28	57.01
723.464	58.6
723.647	59.16
723.83	59.28
724.013	60.63
724.197	58.97
724.38	59.14
724.563	58.51
724.746	58.91
724.929	60.65
725.112	61.81
725.296	62.81
725.479	61.72
725.662	61.67
725.845	62.14
726.028	61.04
726.211	64.2
726.394	64.44
726.577	62.52
726.76	62.55
726.943	62.25
727.126	60.99
727.309	59.8
727.492	58.68
727.675	56.24
727.858	57.92
728.041	56.65
728.224	55.5
728.407	54.43
728.589	58.12
728.772	57.81
728.955	56.1
729.138	56.8
729.321	55.15
729.503	55.67
729.686	58.96
729.869	59.05
730.052	58.73
730.234	56.05
730.417	56.65
730.6	53.54
730.782	53.89
730.965	53.55
731.148	52.05
731.33	53.15
731.513	53.69
731.695	51.92
731.878	51.1
732.061	50.24
732.243	51.17
732.426	49.02
732.608	52.71
732.791	52.81
732.973	53.82
733.156	55.22
733.338	54.92
733.52	54.33
733.703	54.67
733.885	54.46
734.068	58.21
734.25	59.87
734.432	59.63
734.615	57.19
734.797	55.41
734.979	55.96
735.162	55.07
735.344	57.06
735.526	59.14
735.708	58.74
735.891	60.46
736.073	58.73
736.255	57.53
736.437	57.67
736.619	56.76
736.802	55.84
736.984	54.25
737.166	54.88
737.348	55.14
737.53	53.61
737.712	55.13
737.894	56.18
738.076	56.66
738.258	58.14
738.44	59.28
738.622	58.79
738.804	59.88
738.986	60.03
739.168	58.94
739.35	55.58
739.532	55.97
739.714	55.37
739.896	54.46
740.078	54.66
740.259	52.45
740.441	51.12
740.623	53.38
740.805	56.51
740.987	57.76
741.168	56.91
741.35	59.03
741.532	56.64
741.714	55.76
741.895	53.34
742.077	52.8
742.259	55.46
742.44	54.83
742.622	54.07
742.804	50.24
742.985	51.53
743.167	53.74
743.348	56.26
743.53	56.78
743.711	57.22
743.893	59.28
744.075	57.88
744.256	53.46
744.438	55.14
744.619	54.42
744.8	55.59
744.982	52.13
745.163	52.95
745.345	52.62
745.526	53.87
745.707	53.75
745.889	51.61
746.07	53.59
746.252	54.3
746.433	53.82
746.614	54.06
746.795	53.4
746.977	52.92
747.158	53.35
747.339	51.45
747.52	53.54
747.702	54.05
747.883	53.41
748.064	50.62
748.245	51.48
748.426	52.38
748.607	51.5
748.788	53.11
748.97	54.36
749.151	50.53
749.332	52.8
749.513	50.09
749.694	48.02
749.875	50.7
750.056	52.1
750.237	52.62
750.418	50.87
750.599	51.97
750.78	54.53
750.96	57.05
751.141	58.95
751.322	57.17
751.503	58.42
751.684	58.16
751.865	58.18
752.046	60.6
752.226	59.61
752.407	60.48
752.588	60
752.769	55.53
752.949	54.82
753.13	55.33
753.311	56.17
753.492	55.36
753.672	55.82
753.853	56.18
754.034	53.51
754.214	55.78
754.395	54.43
754.575	56.21
754.756	53.83
754.937	53.48
755.117	53.82
755.298	53.26
755.478	54.37
755.659	54.27
755.839	52.55
756.02	51.1
756.2	49.57
756.381	54.25
756.561	50.33
756.741	55.87
756.922	53.2
757.102	53.59
757.283	47.88
757.463	49.25
757.643	50.83
757.823	50.91
758.004	52.44
758.184	49.42
758.364	47.28
758.545	53.38
758.725	51.59
758.905	52.83
759.085	53.93
759.265	56.63
759.446	55.47
759.626	57.95
759.806	55.93
759.986	58.83
760.166	61.38
760.346	60
760.526	57.4
760.706	56.64
760.886	56.54
761.066	54.55
761.246	56.56
761.426	57.15
761.606	52.75
761.786	56.03
761.966	51.99
762.146	52.85
762.326	55.89
762.506	55.77
762.686	56.21
762.866	56.11
763.046	55.64
763.225	55.62
763.405	54.97
763.585	58.68
763.765	57.81
763.945	59.27
764.124	56.72
764.304	56.13
764.484	57.8
764.664	60.66
764.843	61.4
765.023	60.97
765.203	59.46
765.382	59.45
765.562	57.08
765.741	56.62
765.921	55.47
766.101	59.49
766.28	60.37
766.46	55.42
766.639	52.59
766.819	50.13
766.998	51.82
767.178	53.59
767.357	53.47
767.537	53.97
767.716	54.71
767.896	56.94
768.075	57.14
768.254	53.72
768.434	54.91
768.613	52.91
768.792	55.45
768.972	53.23
769.151	53.76
769.33	54.41
769.51	53.43
769.689	55.57
769.868	55.66
770.047	54.17
770.226	54.33
770.406	60.59
770.585	63.14
770.764	62.36
770.943	65.47
771.122	63.97
771.301	62.92
771.48	61.49
771.66	61.18
771.839	60.54
772.018	57.9
772.197	63.61
772.376	57.65
772.555	58.13
772.734	57.22
772.913	58.9
773.092	59.08
773.271	64.4
773.449	65.11
773.628	59.82
773.807	60.41
773.986	60.95
774.165	58.12
774.344	62.44
774.523	58.15
774.701	61.22
774.88	63.54
775.059	63.85
775.238	63.21
775.417	69.95
775.595	73.06
775.774	75.97
775.953	75.96
776.131	74.81
776.31	74.21
776.489	77.73
776.667	76.73
776.846	75.2
777.025	74.38
777.203	71.01
777.382	69.61
777.56	71
777.739	69.57
777.917	69.3
778.096	68.19
778.274	68.02
778.453	67.62
778.631	64.15
778.81	59.85
778.988	60.43
779.166	60.44
779.345	61.23
779.523	56.54
779.702	56.12
779.88	55.33
780.058	54.56
780.237	51.67
780.415	53.48
780.593	55.42
780.771	59.95
780.95	58.8
781.128	58.83
781.306	54.58
781.484	58.75
781.662	59.54
781.841	63.34
782.019	68.82
782.197	74.79
782.375	77.15
782.553	73.45
782.731	72.68
782.909	76.1
783.087	76.84
783.265	79.75
783.443	78.35
783.621	78.26
783.799	76.91
783.977	67.68
784.155	61.8
784.333	61.78
784.511	66.32
784.689	63.1
784.867	64.16
785.045	67.88
785.223	69.8
785.4	69.09
785.578	66.94
785.756	68.5
785.934	71.59
786.112	70.26
786.289	68.96
786.467	71.84
786.645	68.89
786.823	65.58
787	60.06
787.178	56.98
787.356	55.77
787.533	54.88
787.711	56.34
787.889	58.48
788.066	62.75
788.244	61.83
788.421	60.58
788.599	64
788.776	60.61
788.954	63.85
789.131	64.08
789.309	69.02
789.486	71.24
789.664	71.85
789.841	73.59
790.019	68.11
790.196	70.83
790.373	67.44
790.551	71.22
790.728	72.87
790.906	71
791.083	73.1
791.26	71.98
791.437	70.48
791.615	69.9
791.792	65.25
791.969	70.08
792.146	68.5
792.324	70.94
792.501	70.29
792.678	77.38
792.855	82.42
793.032	78.7
793.209	79.32
793.387	73.49
793.564	68.64
793.741	69.69
793.918	65.61
794.095	62.43
794.272	55.43
794.449	51.72
794.626	44.5
794.803	42.29
794.98	42.92
795.157	43.88
795.334	50.54
795.511	50.98
795.688	52.89
795.864	55.96
796.041	57.1
796.218	58.12
796.395	53.83
796.572	60.31
796.749	63.1
796.925	56.12
797.102	49.89
797.279	52.6
797.456	52.78
797.632	44.24
797.809	42.34
797.986	38.04
798.162	40.24
798.339	45.38
798.516	39.43
798.692	38.93
798.869	41.16
799.046	45.37
799.222	48.67
799.399	51.66
799.575	60.57
799.752	61.3
799.928	70.06
800.105	74.37
800.281	78.04
800.458	80.95
800.634	81.75
800.811	82.92
800.987	90.54
801.163	84.22
801.34	83.14
801.516	76.38
801.692	70.25
801.869	72.18
802.045	71.14
802.221	68.83
802.398	68.97
802.574	68.99
802.75	69.97
802.926	62.54
803.103	67.07
803.279	56.27
803.455	60.42
803.631	61.51
803.807	52.87
803.983	50.49
804.16	51.2
804.336	51.15
804.512	48.06
804.688	42.75
804.864	48.86
805.04	42.83
805.216	53.98
805.392	56.98
805.568	55.03
805.744	57.27
805.92	63.7
806.096	53.21
806.272	57.82
806.448	59.87
806.623	62.68
806.799	58.07
806.975	58.49
807.151	63.36
807.327	57
807.503	60.46
807.678	57.02
807.854	54.66
808.03	61.33
808.206	57.38
808.381	53.15
808.557	62.58
808.733	64.69
808.908	52.72
809.084	51.67
809.26	63.32
809.435	68.89
809.611	76.05
809.787	68.94
809.962	69.86
810.138	65.26
810.313	65.64
810.489	55.8
810.664	45.69
810.84	60.23
811.015	56.75
811.191	46.97
811.366	39.38
811.542	35.16
811.717	43.05
811.892	43.51
812.068	42.57
812.243	39.07
812.419	44.27
812.594	46.37
812.769	45.46
812.944	44.74
813.12	45.84
813.295	46.8
813.47	46.27
813.645	39.47
813.821	39.65
813.996	51.53
814.171	56.87
814.346	63.88
814.521	76.26
814.697	75.4
814.872	82.36
815.047	83.5
815.222	86.83
815.397	78.29
815.572	73.76
815.747	71.66
815.922	67.96
816.097	71.07
816.272	63.79
816.447	65.29
816.622	63.47
816.797	57.31
816.972	55.62
817.147	46.55
817.322	58
817.496	59.46
817.671	58.26
817.846	63.59
818.021	59.48
818.196	64.27
818.371	58.74
818.545	60.04
818.72	57.12
818.895	56.41
819.069	59.64
819.244	55.27
819.419	55.77
819.594	54.26
819.768	48.54
819.943	49.03
820.117	46.54
820.292	44.38
820.467	44.32
820.641	45.34
820.816	44.79
820.99	45.62
821.165	45.26
821.339	45.17
821.514	44.86
821.688	44.07
821.863	43.29
822.037	43.77
822.212	44.41
822.386	43.92
822.56	43.46
822.735	43.86
822.909	43.87
823.084	45.06
823.258	46.1
823.432	47.7
823.606	48.24
823.781	49.88
823.955	49.26
824.129	49.55
824.303	49.65
824.478	50.87
824.652	51.05
824.826	49.29
825	48.76
825.174	46.4
825.348	42.67
825.523	42.38
825.697	41.53
825.871	43.3
826.045	43.25
826.219	43.85
826.393	44.09
826.567	43.59
826.741	46.76
826.915	45.64
827.089	46.91
827.263	46.58
827.437	47
827.611	48.75
827.784	47.96
827.958	48.61
828.132	47.8
828.306	48.51
828.48	48.84
828.654	47.83
828.827	46.39
829.001	44.41
829.175	50.22
829.349	49.6
829.522	47.46
829.696	49.76
829.87	50.77
830.044	54.88
830.217	56.87
830.391	58
830.565	59.85
830.738	61.81
830.912	64.68
831.085	56.31
831.259	57.57
831.432	55.23
831.606	51.9
831.779	48.95
831.953	48.25
832.126	43.7
832.3	39.96
832.473	37.87
832.647	39.11
832.82	38.33
832.994	44.18
833.167	45.54
833.34	44.79
833.514	43.73
833.687	43.95
833.86	44.59
834.034	46.63
834.207	49.87
834.38	51.1
834.553	52.85
834.727	54.47
834.9	55.64
835.073	53.7
835.246	57.06
835.419	55.08
835.593	55.87
835.766	53.32
835.939	52.79
836.112	47.19
836.285	41.4
836.458	36.6
836.631	40.36
836.804	33.91
836.977	46.61
837.15	56.9
837.323	71.84
837.496	71.51
837.669	79.61
837.842	79.72
838.015	89.92
838.188	84.94
838.361	81.91
838.533	75.74
838.706	66.87
838.879	70.73
839.052	52.28
839.225	48.69
839.398	41.85
839.57	37.85
839.743	36.55
839.916	39.88
840.088	41.99
840.261	47.54
840.434	51.19
840.607	58.27
840.779	40.99
840.952	44.94
841.124	41.94
841.297	44.28
841.47	40.06
841.642	43.95
841.815	48.25
841.987	73.91
842.16	74.35
842.332	74.22
842.505	69.25
842.677	59.87
842.85	61.63
843.022	69.61
843.194	79.61
843.367	84.86
843.539	97.75
843.712	76.64
843.884	42.23
844.056	29.89
844.229	2.21
844.401	18.27
844.573	53.03
844.745	73.93
844.918	6.67
845.09	9.34
845.262	-35.94
845.434	-69.65
845.606	39.24
845.779	46.29
845.951	72.89
846.123	130.39
846.295	126.86
846.467	177.77
846.639	92.85
846.811	114.92
846.983	112.8
847.155	86.61
847.327	79.27
847.499	91.88
847.671	81.57
847.843	91.43
848.015	74.6
848.187	66.53
848.359	29.59
848.531	29.11
848.703	18.4
848.875	62.4
849.047	75.7
849.218	73.16
849.39	101.48
849.562	103.14
849.734	36.26
849.905	27.96
850.077	62.78
850.249	-0.44
850.421	63.45
850.592	27.71
850.764	23.56
850.936	37.16
851.107	41.68
851.279	28.26
851.451	51.1
851.622	66.84
851.794	86.85
851.965	117.04
852.137	110.39
852.308	127.49
852.48	167.56
852.651	198.24
852.823	174.15
852.994	193.07
853.166	191.46
853.337	246.33
853.509	178.08
853.68	174.73
853.851	147.7
854.023	170.36
854.194	160.24
854.365	137.51
854.537	144.76
854.708	140.99
854.879	109.98
855.05	114.49
855.222	122.48
855.393	123.51
855.564	136.35
855.735	130.41
855.906	165.53
856.078	142.28
856.249	136.27
856.42	136.14
856.591	127.51
856.762	140.69
856.933	220.26
857.104	221.98
857.275	209.56
857.446	107.48
857.617	106.15
857.788	79.29
857.959	75.92
858.13	81.65
858.301	66.57
858.472	64.52
858.643	55.16
858.814	43.5
858.985	43.14
859.155	30.48
859.326	66.32
859.497	74.02
859.668	102.2
859.839	116.44
860.009	108.98
860.18	112.93
860.351	106.72
860.522	105.45
860.692	94.72
860.863	81.75
861.034	82.31
861.204	80.23
861.375	63.44
861.546	49.38
861.716	16.23
861.887	25.57
862.057	24.97
862.228	23.31
862.398	26.19
862.569	31.62
862.739	22.94
862.91	21.09
863.08	33.2
863.251	66.27
863.421	80.82
863.592	93.22
863.762	73.6
863.932	71.4
864.103	84.42
864.273	71.17
864.443	19.53
864.614	15.65
864.784	13.86
864.954	-46.88
865.125	-31.36
865.295	-107.18
865.465	-76.07
865.635	-75.08
865.805	-149.64
865.976	-300.59
866.146	-29.27
866.316	29.86
866.486	110.49
866.656	155.54
866.826	63.68
866.996	37.9
867.166	66.46
867.336	62.81
867.506	80.76
867.676	80.84
867.846	79.08
868.016	65.88
868.186	65.85
868.356	67.26
868.526	87.01
868.696	95.09
868.866	128.03
869.036	129.06
869.206	90.89
869.376	76.13
869.545	100.17
869.715	120.38
869.885	125.62
870.055	172.36
870.224	129.9
870.394	66.13
870.564	49.6
870.734	20.86
870.903	-3.64
871.073	36.14
871.243	49.35
871.412	53.2
871.582	46.92
871.751	24.87
871.921	17.47
872.091	76.35
872.26	68.61
872.43	105.83
872.599	176.47
872.769	146.38
872.938	128.9
873.108	137.3
873.277	222.97
873.446	164.69
873.616	122.25
873.785	120.48
873.955	141.45
874.124	166.01
874.293	120.27
874.463	109.83
874.632	99.91
874.801	120.04
874.971	125.01
875.14	89.48
875.309	84.17
875.478	103.96
875.647	105.11
875.817	83.68
875.986	94.2
876.155	135.69
876.324	93.52
876.493	132.81
876.662	55.32
876.831	43.63
877	65.18
877.17	144.62
877.339	113.54
877.508	60.77
877.677	59.53
877.846	38.39
878.015	-10.49
878.184	53.6
878.352	45.32
878.521	104.95
878.69	84.28
878.859	88.73
879.028	83.75
879.197	78.4
879.366	78.34
879.534	65.05
879.703	63.54
879.872	60.56
880.041	54.81
880.21	56.64
880.378	49.67
880.547	57.93
880.716	57.21
880.884	50.75
881.053	48.19
881.222	50.35
881.39	52.23
881.559	51.12
881.727	50.49
881.896	51.4
882.065	53.16
882.233	54.89
882.402	52.83
882.57	51.22
882.739	51.91
882.907	54.43
883.076	53.23
883.244	51.38
883.412	48.47
883.581	50.22
883.749	47.65
883.918	42.12
884.086	43.18
884.254	41.2
884.423	41.56
884.591	43.31
884.759	36.57
884.927	36.38
885.096	38.4
885.264	40.05
885.432	33.86
885.6	41.28
885.769	47.77
885.937	46.9
886.105	50.36
886.273	49.29
886.441	54.48
886.609	68.35
886.777	71.33
886.945	75.45
887.113	97.31
887.281	107.67
887.449	89.58
887.617	75.13
887.785	81.78
887.953	85.32
888.121	88.91
888.289	36.94
888.457	49.29
888.625	50.29
888.793	34.09
888.961	15.54
889.129	-15.82
889.296	23.6
889.464	42.43
889.632	-10.62
889.8	6.32
889.967	-55.76
890.135	37.5
