Data from JASIL_3150_Reflection_1.txt Node
Date: Thu Nov 12 21:20:05 EST 2015
User: Geneva
Spectrometer: USB4E03002
Autoset integration time: false
Trigger mode: 4
Integration Time (sec): 1.000000E-1
Scans to average: 10
Electric dark correction enabled: true
Nonlinearity correction enabled: false
Boxcar width: 5
Stray light correction enabled: false
XAxis mode: Wavelengths
Stop averaging: false
Number of Pixels in Spectrum: 3648
>>>>>Begin Spectral Data<<<<<
177.575	187.11
177.794	255.21
178.014	541.97
178.233	-85.26
178.452	-12634.78
178.672	-200
178.891	-29.66
179.11	-65.32
179.33	-19.88
179.549	31.73
179.768	321.95
179.987	155.09
180.207	9.98
180.426	39.33
180.645	37.4
180.864	87.74
181.084	88.85
181.303	76.54
181.522	101.82
181.741	98.19
181.96	67.14
182.179	57.26
182.398	53.35
182.618	35.4
182.837	14.74
183.056	15.86
183.275	-46.24
183.494	-43.96
183.713	-61.32
183.932	-100.8
184.151	-99.32
184.37	-143.13
184.589	-56.94
184.808	-62.52
185.027	-45.1
185.246	-0.85
185.465	1.34
185.684	21.55
185.903	5.77
186.122	16.07
186.341	-9
186.56	34.74
186.779	43.87
186.998	54.2
187.216	48.84
187.435	49.83
187.654	11.66
187.873	-28.64
188.092	36.21
188.311	-2.33
188.53	-9.1
188.748	24.38
188.967	-90.31
189.186	-58.36
189.405	-74.13
189.623	-65.02
189.842	-34.5
190.061	-59.89
190.28	-17.45
190.498	-45
190.717	-6.06
190.936	7.48
191.154	7.27
191.373	34.62
191.592	41.75
191.81	40.18
192.029	41.48
192.248	47.02
192.466	44.92
192.685	44.33
192.904	44.14
193.122	55.72
193.341	89.41
193.559	107.15
193.778	195.47
193.996	181.03
194.215	158.89
194.433	216.58
194.652	191.01
194.87	118.75
195.089	77.02
195.307	79.59
195.526	77.38
195.744	83.68
195.963	72.66
196.181	71.83
196.399	90.11
196.618	100.91
196.836	111.83
197.055	138.21
197.273	199.04
197.491	251.23
197.71	737.19
197.928	488.55
198.146	243.63
198.365	2240.25
198.583	-615.32
198.801	-550.04
199.019	-67.2
199.238	-21.64
199.456	-144.87
199.674	-44.89
199.892	-6.95
200.111	-435.06
200.329	-426.09
200.547	44.71
200.765	-501.13
200.983	-45.65
201.202	-174.16
201.42	27.24
201.638	58.71
201.856	40.66
202.074	31.43
202.292	3.91
202.51	15.35
202.728	34.09
202.946	21.01
203.165	-16.17
203.383	-5.86
203.601	12.98
203.819	-19.81
204.037	-6.54
204.255	-13.54
204.473	-20.35
204.691	6.07
204.909	-4.32
205.127	-25.6
205.345	14.7
205.562	15.66
205.78	8.43
205.998	14.76
206.216	57.86
206.434	41.81
206.652	87.76
206.87	248.36
207.088	143.17
207.306	96.26
207.523	192.77
207.741	129.06
207.959	137.56
208.177	215.44
208.395	180.44
208.612	245.92
208.83	1102.55
209.048	-822.83
209.266	9317.86
209.483	-56.13
209.701	-88.41
209.919	499.49
210.136	-47.89
210.354	-13.94
210.572	1196.3
210.79	-2051.52
211.007	863.05
211.225	-103.09
211.442	-105.96
211.66	-109.88
211.878	-174.25
212.095	-23.16
212.313	-38.31
212.53	-20.93
212.748	-5.04
212.966	7.84
213.183	32.79
213.401	40.89
213.618	46.83
213.836	51.15
214.053	44.78
214.271	43.45
214.488	147.03
214.705	178.84
214.923	118.12
215.14	93.36
215.358	61
215.575	36.8
215.793	29.45
216.01	-0.08
216.227	-49.17
216.445	-174.32
216.662	-3.1
216.879	3.87
217.097	-13.49
217.314	-234.42
217.531	-38.12
217.749	-119.01
217.966	7.47
218.183	51.67
218.4	57.11
218.618	129.8
218.835	212.41
219.052	282.94
219.269	590.83
219.487	289.46
219.704	131.53
219.921	57.2
220.138	108.69
220.355	187.79
220.572	243.25
220.79	252.05
221.007	128.91
221.224	87.7
221.441	84.49
221.658	77.15
221.875	59.45
222.092	89.16
222.309	299.28
222.526	223.18
222.743	144.1
222.96	74.14
223.177	157.61
223.394	186.9
223.611	446.01
223.828	282.37
224.045	2621.52
224.262	-379.48
224.479	-181.04
224.696	-238.04
224.913	-164.22
225.13	-432.23
225.347	-345.69
225.564	-134.06
225.781	-54.21
225.997	-65.99
226.214	-19.35
226.431	-11.36
226.648	-32.61
226.865	-32.89
227.082	-32.21
227.298	11.22
227.515	28.9
227.732	31.69
227.949	20.66
228.165	24.91
228.382	31.94
228.599	31.2
228.816	17.07
229.032	13.52
229.249	17.98
229.466	26.56
229.682	17.14
229.899	15.46
230.116	9.18
230.332	-2.5
230.549	-6.67
230.765	-12.15
230.982	-18.48
231.199	-6.65
231.415	-3.78
231.632	-6.51
231.848	-22.19
232.065	-4.63
232.281	-0.46
232.498	-7.31
232.714	5.77
232.931	0.2
233.147	-13.45
233.364	-11.23
233.58	-5.89
233.797	-22.66
234.013	-9.52
234.23	0.65
234.446	-41.57
234.662	-70.97
234.879	-63.68
235.095	-54.84
235.312	-58.2
235.528	-13.11
235.744	-2.95
235.961	-45.7
236.177	-36.85
236.393	-56.78
236.61	-54.48
236.826	-6.71
237.042	3.12
237.258	14.91
237.475	19.57
237.691	4.16
237.907	7.18
238.123	-0.69
238.339	21.69
238.556	24.27
238.772	13.32
238.988	28.75
239.204	23.61
239.42	19.26
239.636	19
239.853	17.87
240.069	20.28
240.285	11.77
240.501	9.39
240.717	9.44
240.933	9.27
241.149	6.75
241.365	2.21
241.581	-1.26
241.797	4.01
242.013	2.79
242.229	6.07
242.445	8.95
242.661	11.73
242.877	10.96
243.093	17.05
243.309	14.39
243.525	23.88
243.741	26.07
243.957	25.04
244.173	17.38
244.388	9.37
244.604	8.77
244.82	5.41
245.036	2.95
245.252	6.34
245.468	5.59
245.683	7.84
245.899	5.24
246.115	5.23
246.331	7.7
246.547	5.49
246.762	6.88
246.978	5.32
247.194	5.38
247.409	5.47
247.625	5.48
247.841	0.12
248.057	0.11
248.272	2.52
248.488	3.32
248.703	2.78
248.919	5.72
249.135	7.4
249.35	3.66
249.566	10.22
249.782	7.63
249.997	3.26
250.213	6.7
250.428	0.53
250.644	-17.46
250.859	-21.8
251.075	-28.43
251.29	-23.07
251.506	-20.8
251.721	-16.73
251.937	-17.57
252.152	-11.38
252.368	-9.82
252.583	-18.89
252.798	-12.46
253.014	4.25
253.229	-2.17
253.445	2.6
253.66	8.8
253.875	-0.88
254.091	-5.46
254.306	-11.32
254.521	-26.73
254.737	-32
254.952	-15.47
255.167	-19.32
255.383	-24.21
255.598	-4.52
255.813	-4.08
256.028	-13.63
256.244	-4.35
256.459	-3.99
256.674	-7.63
256.889	5.9
257.104	15.54
257.32	18.41
257.535	16.18
257.75	10.77
257.965	6.5
258.18	3.33
258.395	2.99
258.61	6.38
258.826	10.84
259.041	9.8
259.256	7.18
259.471	5.1
259.686	0.69
259.901	1.66
260.116	3.03
260.331	3.99
260.546	7.99
260.761	9.8
260.976	8.59
261.191	7.36
261.406	12.19
261.621	10.3
261.836	10.69
262.05	12.6
262.265	9.11
262.48	14.44
262.695	15.1
262.91	17.7
263.125	13.86
263.34	14.94
263.555	15.69
263.769	7.03
263.984	5.14
264.199	3.7
264.414	5.13
264.629	7.05
264.843	2.05
265.058	-2.1
265.273	-5.69
265.488	-6.81
265.702	-6.61
265.917	-9.22
266.132	-11.97
266.346	-5.22
266.561	-6.87
266.776	-5.64
266.99	-9.06
267.205	-10.53
267.42	-9.81
267.634	-8.34
267.849	-7.52
268.063	-9.98
268.278	-10.5
268.492	-6.82
268.707	-7.22
268.922	-4.41
269.136	-4.24
269.351	1.81
269.565	5.03
269.78	8.51
269.994	6.04
270.209	10.28
270.423	11.53
270.637	9.61
270.852	11.78
271.066	10.44
271.281	8.38
271.495	8.39
271.709	3.46
271.924	0.53
272.138	-2.26
272.353	-2.53
272.567	-4.19
272.781	-6.1
272.996	-3.15
273.21	-5.27
273.424	-3.29
273.638	1.38
273.853	1.92
274.067	7.05
274.281	9.57
274.495	9.65
274.71	14.19
274.924	14.54
275.138	15.37
275.352	12.13
275.566	12.07
275.781	8.96
275.995	8.02
276.209	5.93
276.423	1.43
276.637	0.08
276.851	1.99
277.065	-4.97
277.279	-4.69
277.493	-1.52
277.707	2.96
277.921	5.29
278.135	7.28
278.349	8.93
278.563	8.19
278.777	10.13
278.991	11.29
279.205	10.28
279.419	11.99
279.633	6.94
279.847	5.79
280.061	2.91
280.275	4.88
280.489	3.83
280.703	-1.96
280.917	2.43
281.131	3.31
281.344	-0.18
281.558	3.26
281.772	2.69
281.986	2.39
282.2	0.87
282.414	3.32
282.627	2.33
282.841	3.84
283.055	7.11
283.269	3.8
283.482	1.69
283.696	1.13
283.91	-0.84
284.123	-0.62
284.337	1.78
284.551	2.03
284.764	3.83
284.978	1.55
285.192	2.37
285.405	1.78
285.619	3.69
285.833	6.52
286.046	10.32
286.26	11.47
286.473	12.3
286.687	13.12
286.9	13.97
287.114	10.18
287.327	9.75
287.541	8.25
287.754	7.42
287.968	5.13
288.181	3.34
288.395	1.27
288.608	0.96
288.822	-1.58
289.035	-4.95
289.248	-7.5
289.462	-5.33
289.675	-1.1
289.889	-0.45
290.102	0.63
290.315	2.31
290.529	2.88
290.742	1.84
290.955	1.29
291.169	4.11
291.382	6.25
291.595	9.98
291.808	10.33
292.022	7.13
292.235	7
292.448	6.16
292.661	5.68
292.875	2.55
293.088	4.59
293.301	5.02
293.514	3.26
293.727	2.46
293.94	-0.01
294.153	1.04
294.367	0.56
294.58	3.44
294.793	3.42
295.006	0.91
295.219	4.51
295.432	5.05
295.645	3.2
295.858	3.64
296.071	3.8
296.284	3.57
296.497	5.12
296.71	3.81
296.923	2.56
297.136	2.54
297.349	2.42
297.562	2.6
297.775	1.26
297.988	2.28
298.201	1.95
298.414	4
298.626	5.73
298.839	1.9
299.052	4.88
299.265	3.98
299.478	5.23
299.691	5.61
299.903	4.71
300.116	6
300.329	6.98
300.542	8.59
300.755	6.36
300.967	4.96
301.18	6.31
301.393	5.73
301.605	4.86
301.818	3.67
302.031	3.95
302.243	2.91
302.456	2.29
302.669	2.68
302.881	-0.78
303.094	-2.9
303.307	-2.8
303.519	-1.65
303.732	-2.95
303.944	-2.42
304.157	-4.16
304.37	-0.24
304.582	1.93
304.795	1.89
305.007	1.39
305.22	4.96
305.432	8.71
305.645	7.79
305.857	7.73
306.069	8.41
306.282	9.9
306.494	13.44
306.707	13.16
306.919	9.98
307.132	9.38
307.344	7.35
307.556	5.47
307.769	5.39
307.981	6.49
308.193	3.18
308.406	4.1
308.618	3.91
308.83	2.71
309.043	1.45
309.255	3.67
309.467	3.29
309.679	5.27
309.892	5.74
310.104	5.3
310.316	5.43
310.528	6.35
310.74	7.12
310.953	7.05
311.165	4.32
311.377	3.83
311.589	5.35
311.801	4.96
312.013	4.02
312.225	4.75
312.437	2.78
312.649	1.86
312.862	4.62
313.074	4.17
313.286	3.91
313.498	9.17
313.71	6.14
313.922	3.94
314.134	3.83
314.346	4.17
314.558	3.66
314.77	6.89
314.982	4.1
315.193	-1.38
315.405	-5.99
315.617	-2.69
315.829	-8.61
316.041	-3.54
316.253	-2.27
316.465	-2.38
316.677	-1.19
316.888	0.72
317.1	2.31
317.312	4.97
317.524	8.58
317.736	8.91
317.947	3.43
318.159	6.25
318.371	8.4
318.583	8.42
318.794	9.65
319.006	8.84
319.218	8.73
319.43	9.24
319.641	10.9
319.853	11.78
320.064	14.57
320.276	17.81
320.488	17.65
320.699	15.82
320.911	15.13
321.123	12.43
321.334	10.8
321.546	8.65
321.757	7.5
321.969	9.21
322.18	6.65
322.392	4.84
322.603	4.99
322.815	6.7
323.026	5.43
323.238	5.97
323.449	9.74
323.661	10.78
323.872	11.68
324.083	10.07
324.295	9.19
324.506	11.9
324.718	12.33
324.929	12.5
325.14	10.88
325.352	10.18
325.563	11.27
325.774	11.36
325.986	11.46
326.197	11.69
326.408	11.36
326.62	11.66
326.831	7.8
327.042	8.51
327.253	8.02
327.464	9.31
327.676	9.18
327.887	5.86
328.098	4.1
328.309	4.88
328.52	4.67
328.732	5.21
328.943	1.08
329.154	3.9
329.365	2.57
329.576	2.88
329.787	4.74
329.998	5.18
330.209	7.35
330.42	10.36
330.631	9.35
330.842	10.61
331.053	10.72
331.264	15.97
331.475	16.84
331.686	19.37
331.897	21.65
332.108	18.31
332.319	22.1
332.53	20.66
332.741	19.95
332.952	20.09
333.163	16.82
333.374	16.8
333.585	13.91
333.795	10.5
334.006	8.81
334.217	8.02
334.428	8.74
334.639	4.56
334.849	7.14
335.06	8.54
335.271	7.81
335.482	10.41
335.692	11.63
335.903	11.93
336.114	12.31
336.325	14.04
336.535	11.53
336.746	10.61
336.957	13.93
337.167	13.29
337.378	9.28
337.589	11.81
337.799	11.37
338.01	10.06
338.22	10.79
338.431	12.96
338.642	11.01
338.852	13.86
339.063	14.66
339.273	13.16
339.484	15.67
339.694	17.73
339.905	15.12
340.115	14.11
340.326	15.66
340.536	14.99
340.746	14.05
340.957	14.5
341.167	11.35
341.378	10.01
341.588	11.19
341.799	6.04
342.009	6.47
342.219	8.64
342.43	11.15
342.64	12.04
342.85	12.66
343.061	13.22
343.271	13.37
343.481	14.51
343.691	15.8
343.902	15.45
344.112	17.46
344.322	18.71
344.532	17.46
344.743	16.79
344.953	16.84
345.163	16.28
345.373	18.01
345.583	18.2
345.793	19.23
346.004	20.41
346.214	20.19
346.424	21.37
346.634	21.62
346.844	22.14
347.054	23.48
347.264	22.46
347.474	24.36
347.684	22.62
347.894	24.02
348.104	21.99
348.314	21
348.524	22.55
348.734	22.26
348.944	23.36
349.154	24.66
349.364	22.59
349.574	23.29
349.784	21.7
349.994	22.75
350.204	21.7
350.413	24.18
350.623	23.81
350.833	22.6
351.043	23.53
351.253	21.17
351.463	19.13
351.672	20
351.882	19.25
352.092	19.81
352.302	18.04
352.511	18.08
352.721	16.93
352.931	17.87
353.141	18.41
353.35	18.11
353.56	17.83
353.77	18.48
353.979	17.14
354.189	16.14
354.399	16.01
354.608	13.98
354.818	12.89
355.027	14.44
355.237	14.35
355.447	13.55
355.656	13.06
355.866	11.61
356.075	12.36
356.285	14.07
356.494	15.49
356.704	15.42
356.913	18.44
357.123	19.57
357.332	18.67
357.542	17.25
357.751	16.6
357.96	16.52
358.17	19.2
358.379	19.06
358.589	17.68
358.798	17.23
359.007	16.59
359.217	15.65
359.426	15.22
359.635	15.28
359.845	15.91
360.054	16.63
360.263	16.93
360.472	15.86
360.682	16.65
360.891	17.26
361.1	17.86
361.309	19.4
361.519	19.6
361.728	19.43
361.937	18.74
362.146	18.96
362.355	18.36
362.564	18.33
362.774	17.76
362.983	16.38
363.192	16.53
363.401	16.25
363.61	14.51
363.819	14.07
364.028	15.35
364.237	16.45
364.446	16.37
364.655	16.35
364.864	16.44
365.073	17.59
365.282	18.66
365.491	18.11
365.7	16.97
365.909	18.05
366.118	17.67
366.327	16.96
366.536	17.22
366.745	16.82
366.954	16.42
367.162	15.63
367.371	15.38
367.58	15.19
367.789	14.6
367.998	15.63
368.207	14.83
368.415	14.09
368.624	14.29
368.833	12.02
369.042	12.76
369.25	13.89
369.459	13.98
369.668	14.16
369.877	13.93
370.085	15.13
370.294	14.81
370.503	15.37
370.711	16.04
370.92	15.37
371.129	16.21
371.337	15.48
371.546	15.35
371.754	16.07
371.963	14.81
372.171	14.47
372.38	14.75
372.589	14.75
372.797	14.39
373.006	13.83
373.214	12.53
373.423	11.93
373.631	12.66
373.84	14.23
374.048	13.77
374.256	14.4
374.465	14.32
374.673	13.57
374.882	13.61
375.09	13.1
375.298	14.84
375.507	17.56
375.715	18.31
375.923	19.31
376.132	18.6
376.34	18.61
376.548	18.49
376.757	17.31
376.965	17.7
377.173	17.88
377.381	17.87
377.59	16.49
377.798	14.9
378.006	15.8
378.214	14.73
378.423	13.79
378.631	14.69
378.839	15.2
379.047	17.56
379.255	16.36
379.463	16.63
379.671	15.5
379.879	17.27
380.088	17.91
380.296	17.41
380.504	17.36
380.712	18.27
380.92	17.89
381.128	18.41
381.336	17.84
381.544	18.23
381.752	16.26
381.96	17.79
382.168	17.52
382.376	17.46
382.584	17.49
382.791	16.97
382.999	16.53
383.207	14.29
383.415	14.89
383.623	14.5
383.831	14.35
384.039	15.04
384.247	15.27
384.454	16.01
384.662	15.39
384.87	16.54
385.078	16.1
385.285	15.56
385.493	16.08
385.701	15.75
385.909	15.68
386.116	15.47
386.324	16.47
386.532	16.62
386.739	15.24
386.947	13.69
387.155	12.1
387.362	12.72
387.57	11.8
387.778	12.9
387.985	12.38
388.193	12.27
388.4	12.94
388.608	12.73
388.816	11.79
389.023	12.49
389.231	14.67
389.438	14.71
389.646	14.12
389.853	14.84
390.061	13.68
390.268	12.69
390.475	13.49
390.683	12.96
390.89	12.24
391.098	12.56
391.305	12.86
391.512	12.12
391.72	12.07
391.927	13.04
392.135	13.43
392.342	14.01
392.549	14.7
392.756	14.19
392.964	15.31
393.171	14.94
393.378	15.42
393.586	14.59
393.793	14.59
394	15.26
394.207	15.12
394.414	15.67
394.622	15.79
394.829	15.44
395.036	14.9
395.243	14.35
395.45	15.45
395.657	15.68
395.864	16.37
396.072	16.94
396.279	16.85
396.486	16.36
396.693	15.73
396.9	15.53
397.107	15.5
397.314	17.01
397.521	18.28
397.728	18.19
397.935	17.55
398.142	16.87
398.349	16.62
398.556	16.45
398.763	17.68
398.97	16.91
399.177	16.84
399.383	18.12
399.59	17.65
399.797	16.02
400.004	16.53
400.211	16.67
400.418	17.04
400.625	17.08
400.831	17.12
401.038	16.42
401.245	16.77
401.452	17.75
401.658	16.41
401.865	16.44
402.072	16.28
402.279	15.25
402.485	13.75
402.692	13.74
402.899	12.63
403.105	12.79
403.312	14.01
403.519	14.35
403.725	13.96
403.932	14.1
404.138	13.41
404.345	13.7
404.552	13.59
404.758	14.34
404.965	14.07
405.171	15.58
405.378	15.37
405.584	14.39
405.791	14.5
405.997	14.23
406.204	14.55
406.41	14.58
406.617	14.56
406.823	14.65
407.029	15.53
407.236	15.48
407.442	14.99
407.649	14.35
407.855	13.75
408.061	13.46
408.268	14.54
408.474	15.08
408.68	15.42
408.887	15.7
409.093	15.98
409.299	15.35
409.505	16.12
409.712	16.63
409.918	17.14
410.124	17.97
410.33	18.71
410.537	17.53
410.743	17.14
410.949	17.33
411.155	17.55
411.361	18.04
411.567	18.73
411.773	18.46
411.98	18.24
412.186	17.58
412.392	17.71
412.598	17.45
412.804	17.67
413.01	17.26
413.216	16.84
413.422	17.06
413.628	17.18
413.834	16.07
414.04	16.03
414.246	16.25
414.452	16.8
414.658	15.73
414.864	15.55
415.07	16.74
415.275	16.63
415.481	16.83
415.687	15.79
415.893	14.68
416.099	15.61
416.305	15.31
416.511	15.52
416.716	15.59
416.922	15.89
417.128	15.72
417.334	15.01
417.539	15.08
417.745	15.35
417.951	15.94
418.157	16.61
418.362	16.43
418.568	16.68
418.774	16.15
418.979	15.92
419.185	15.99
419.391	16.21
419.596	16.07
419.802	16.35
420.008	16.29
420.213	16.96
420.419	16.64
420.624	16.67
420.83	16.59
421.035	17.15
421.241	17.9
421.446	17.95
421.652	18.25
421.857	18.53
422.063	18.31
422.268	18.58
422.474	17.82
422.679	18.42
422.885	18.57
423.09	18.66
423.295	18.45
423.501	17.6
423.706	17.7
423.911	17.36
424.117	17.33
424.322	17.7
424.527	17.62
424.733	17.67
424.938	17.03
425.143	16.46
425.349	16.63
425.554	16.42
425.759	16.89
425.964	16.83
426.169	17.35
426.375	17.18
426.58	16.89
426.785	16.27
426.99	15.74
427.195	16.14
427.4	16.45
427.605	16.23
427.811	16.19
428.016	15.41
428.221	15.17
428.426	14.12
428.631	13.7
428.836	14.18
429.041	14.25
429.246	14.64
429.451	14.48
429.656	15.26
429.861	15.28
430.066	15.48
430.271	16.57
430.476	16.77
430.681	17.28
430.886	17.77
431.09	17.26
431.295	18.09
431.5	17.92
431.705	18.05
431.91	17.46
432.115	17.56
432.32	17.24
432.524	16.92
432.729	16.38
432.934	16.11
433.139	16.13
433.343	16.5
433.548	16.02
433.753	16.17
433.958	16.3
434.162	16.49
434.367	16.68
434.572	16.92
434.776	16.88
434.981	16.95
435.186	17.51
435.39	17.37
435.595	16.99
435.799	17.24
436.004	17.4
436.209	17.16
436.413	16.66
436.618	16.18
436.822	16.06
437.027	15.83
437.231	16.54
437.436	16.04
437.64	15.72
437.845	15.66
438.049	15.64
438.253	15.84
438.458	15.86
438.662	16.08
438.867	16.22
439.071	15.85
439.275	15.84
439.48	15.52
439.684	15.64
439.888	16.08
440.093	15.76
440.297	15.65
440.501	15.98
440.706	15.77
440.91	15.59
441.114	15.3
441.318	15.59
441.523	15.83
441.727	16.14
441.931	16.57
442.135	16.77
442.339	17.27
442.543	17.52
442.748	16.81
442.952	17.52
443.156	17.57
443.36	17.58
443.564	17.49
443.768	17.75
443.972	17.12
444.176	17.14
444.38	17.24
444.584	17.16
444.788	17.03
444.992	17.16
445.196	16.57
445.4	16.42
445.604	16.57
445.808	16.59
446.012	16.56
446.216	16.81
446.42	16.46
446.624	16.21
446.828	15.78
447.032	15.62
447.235	15.32
447.439	15.65
447.643	15.96
447.847	15.69
448.051	15.91
448.254	15.81
448.458	16.34
448.662	16.37
448.866	16.45
449.069	16.84
449.273	16.51
449.477	16.61
449.681	15.76
449.884	15.31
450.088	15.5
450.292	15.59
450.495	15.22
450.699	14.77
450.902	15.51
451.106	15.37
451.31	15.77
451.513	16.02
451.717	16.62
451.92	17.13
452.124	17.66
452.327	18.06
452.531	17.63
452.734	18.06
452.938	18.6
453.141	17.76
453.345	17.7
453.548	17.94
453.752	17.49
453.955	16.64
454.158	17.32
454.362	16.83
454.565	17.04
454.769	17.04
454.972	16.46
455.175	15.59
455.379	16.16
455.582	16.12
455.785	15.71
455.988	15.99
456.192	16.48
456.395	16.1
456.598	17
456.801	17.01
457.005	16.85
457.208	17.65
457.411	17.6
457.614	17.09
457.817	16.91
458.021	16.84
458.224	17.27
458.427	17.5
458.63	17.26
458.833	17.08
459.036	16.44
459.239	16.62
459.442	16.07
459.645	16.25
459.848	16.29
460.051	16.29
460.254	16.39
460.457	15.89
460.66	15.62
460.863	16.05
461.066	15.57
461.269	15.77
461.472	15.8
461.675	16.27
461.878	16.47
462.081	17.17
462.284	17.44
462.486	17.6
462.689	18.02
462.892	18.1
463.095	17.77
463.298	17.8
463.5	17.93
463.703	17.97
463.906	17.66
464.109	17.25
464.311	16.55
464.514	16.6
464.717	16.11
464.92	15.95
465.122	15.97
465.325	15.8
465.528	16.36
465.73	16.44
465.933	16.38
466.135	16.03
466.338	16.75
466.541	16.43
466.743	16.26
466.946	15.98
467.148	16.15
467.351	15.79
467.553	15.22
467.756	14.52
467.958	14.06
468.161	14.43
468.363	15.16
468.566	14.61
468.768	15.36
468.971	15.59
469.173	16.35
469.375	16.52
469.578	16.02
469.78	16.78
469.983	17.08
470.185	17.59
470.387	17.47
470.59	17.33
470.792	16.94
470.994	16.64
471.196	16.43
471.399	16.01
471.601	16.14
471.803	16.77
472.005	17.01
472.208	16.77
472.41	16.4
472.612	15.94
472.814	15.52
473.016	15.67
473.218	15.6
473.421	15.64
473.623	15.57
473.825	15.21
474.027	15.26
474.229	15.13
474.431	15.03
474.633	15.67
474.835	16.09
475.037	16.51
475.239	16.42
475.441	16.5
475.643	16.34
475.845	16.02
476.047	16.24
476.249	16.36
476.451	16.76
476.653	17.32
476.855	17.36
477.057	17.68
477.258	17.3
477.46	17.73
477.662	17.98
477.864	18.46
478.066	18.77
478.268	18.51
478.469	18.31
478.671	17.95
478.873	17.88
479.075	17.63
479.276	17.28
479.478	17.37
479.68	16.88
479.882	16.8
480.083	16.6
480.285	16.55
480.487	16.69
480.688	16.86
480.89	16.6
481.091	16.52
481.293	16.41
481.495	16.53
481.696	16.45
481.898	16.79
482.099	16.6
482.301	16.55
482.502	16.83
482.704	16.8
482.905	16.75
483.107	16.79
483.308	16.68
483.51	16.71
483.711	16.59
483.913	16.66
484.114	16.52
484.315	16.58
484.517	16.71
484.718	16.63
484.92	16.67
485.121	16.51
485.322	16.47
485.524	16.71
485.725	16.67
485.926	16.78
486.127	16.92
486.329	16.96
486.53	17.12
486.731	16.91
486.932	16.93
487.134	16.85
487.335	17.04
487.536	17.16
487.737	17.2
487.938	17.25
488.139	16.93
488.341	16.82
488.542	16.76
488.743	16.66
488.944	16.75
489.145	16.56
489.346	16.42
489.547	16.17
489.748	16.08
489.949	15.97
490.15	15.91
490.351	16.47
490.552	16.5
490.753	16.64
490.954	16.49
491.155	16.69
491.356	16.64
491.557	16.76
491.758	17.08
491.959	17.2
492.159	16.98
492.36	16.99
492.561	16.95
492.762	16.81
492.963	16.57
493.164	16.48
493.364	16.02
493.565	15.88
493.766	16.03
493.967	15.7
494.167	15.41
494.368	15.66
494.569	15.62
494.769	15.48
494.97	15.43
495.171	15.81
495.371	15.93
495.572	15.99
495.773	16.13
495.973	16
496.174	15.82
496.375	15.8
496.575	16.06
496.776	16.24
496.976	15.92
497.177	16.13
497.377	15.8
497.578	15.85
497.778	15.83
497.979	16.01
498.179	16.35
498.38	16.72
498.58	16.47
498.78	16.39
498.981	16.15
499.181	16.85
499.382	16.58
499.582	16.78
499.782	16.69
499.983	16.75
500.183	16.97
500.383	16.92
500.584	16.48
500.784	16.63
500.984	16.73
501.184	16.89
501.385	16.38
501.585	16.78
501.785	17.14
501.985	17.58
502.185	17.49
502.386	17.75
502.586	17.38
502.786	17.96
502.986	18.43
503.186	17.9
503.386	17.62
503.586	17.66
503.786	17.72
503.987	17.24
504.187	17.15
504.387	17.77
504.587	17.09
504.787	17.64
504.987	17.28
505.187	16.82
505.387	17.09
505.587	17.27
505.786	17.28
505.986	17
506.186	16.95
506.386	16.84
506.586	16.8
506.786	17.22
506.986	16.98
507.186	17.18
507.386	17.16
507.585	17.38
507.785	17.87
507.985	17.75
508.185	18.08
508.384	17.98
508.584	17.59
508.784	17.14
508.984	16.88
509.183	16.81
509.383	16.85
509.583	16.82
509.782	17.21
509.982	16.88
510.182	17.2
510.381	16.94
510.581	17.29
510.781	17.38
510.98	17.68
511.18	17.84
511.379	17.51
511.579	17.37
511.778	18.08
511.978	17.54
512.177	17.49
512.377	17.03
512.576	17.16
512.776	17.05
512.975	17.31
513.175	17.35
513.374	17.25
513.573	17.49
513.773	17.41
513.972	17
514.172	17
514.371	17.14
514.57	17.54
514.77	17.45
514.969	17.75
515.168	17.61
515.367	17.7
515.567	17.78
515.766	17.82
515.965	17.87
516.164	18.15
516.364	18.26
516.563	18.21
516.762	18.23
516.961	18.9
517.16	18.85
517.359	19.13
517.559	18.95
517.758	18.86
517.957	19.18
518.156	19.46
518.355	19.51
518.554	19.65
518.753	19.78
518.952	20.09
519.151	19.98
519.35	19.76
519.549	19.67
519.748	19.91
519.947	19.96
520.146	19.66
520.345	19.72
520.544	19.86
520.743	19.86
520.942	20.34
521.141	20.06
521.339	19.64
521.538	19.91
521.737	19.69
521.936	19.82
522.135	20.21
522.333	20.48
522.532	20.35
522.731	20.34
522.93	20.25
523.129	19.86
523.327	20.06
523.526	20.33
523.725	20.39
523.923	20.68
524.122	20.24
524.321	20.21
524.519	20.42
524.718	20.64
524.917	20.31
525.115	20.49
525.314	20.54
525.512	20.42
525.711	20.28
525.909	20.41
526.108	20.38
526.306	20.58
526.505	20.87
526.703	20.75
526.902	20.49
527.1	20.77
527.299	20.7
527.497	20.8
527.696	20.96
527.894	20.94
528.092	20.87
528.291	21.06
528.489	21.2
528.688	21.15
528.886	21.32
529.084	21.66
529.283	21.7
529.481	21.7
529.679	21.72
529.877	21.63
530.076	21.94
530.274	22.09
530.472	22.09
530.67	21.76
530.869	21.73
531.067	21.68
531.265	21.6
531.463	21.54
531.661	21.79
531.859	21.72
532.057	21.89
532.255	21.86
532.454	22.03
532.652	21.98
532.85	22.3
533.048	22.42
533.246	22.42
533.444	22.32
533.642	22.51
533.84	22.67
534.038	22.85
534.236	22.97
534.434	22.96
534.632	22.97
534.83	23.22
535.027	23.33
535.225	23.5
535.423	23.29
535.621	23.53
535.819	23.66
536.017	23.81
536.215	24
536.412	23.81
536.61	24.01
536.808	24.16
537.006	24.06
537.203	24.31
537.401	24
537.599	24.46
537.797	24.67
537.994	24.59
538.192	24.25
538.39	24.31
538.587	24.43
538.785	24.31
538.983	24.18
539.18	24.5
539.378	24.7
539.575	25
539.773	24.9
539.97	24.8
540.168	24.93
540.366	25.05
540.563	24.8
540.761	25
540.958	25.12
541.155	25.25
541.353	25.14
541.55	24.96
541.748	24.9
541.945	24.84
542.143	24.82
542.34	24.69
542.537	24.81
542.735	25.13
542.932	24.92
543.129	24.94
543.327	25.35
543.524	25.17
543.721	24.86
543.919	25.03
544.116	24.93
544.313	25.06
544.51	25.18
544.708	25.38
544.905	25.66
545.102	26.37
545.299	26.61
545.496	26.08
545.693	26.48
545.891	27.04
546.088	26.91
546.285	27.45
546.482	27.44
546.679	27.81
546.876	27.68
547.073	27.82
547.27	27.55
547.467	27.43
547.664	28
547.861	28.22
548.058	28.48
548.255	28.94
548.452	29.16
548.649	30.19
548.846	30.27
549.043	30.41
549.24	30.1
549.437	30.65
549.633	30.73
549.83	30.23
550.027	30.37
550.224	30.51
550.421	30.41
550.618	30.77
550.814	30.25
551.011	30.39
551.208	30.46
551.405	30.63
551.601	30.08
551.798	30.39
551.995	30.63
552.191	30.42
552.388	30.09
552.585	29.82
552.781	29.5
552.978	29.62
553.175	29.55
553.371	29.55
553.568	29.81
553.764	30.21
553.961	30.15
554.157	30.07
554.354	30.23
554.55	30.68
554.747	31.71
554.943	32.24
555.14	32
555.336	32.01
555.533	31.99
555.729	32.27
555.926	32.71
556.122	33.41
556.318	33.43
556.515	34.03
556.711	34
556.907	33.3
557.104	32.95
557.3	33.13
557.496	33.14
557.693	33.56
557.889	32.53
558.085	31.93
558.281	31.98
558.478	32.22
558.674	32.07
558.87	32.23
559.066	31.91
559.262	32
559.459	31.93
559.655	32.1
559.851	32.25
560.047	33.22
560.243	33.25
560.439	33.35
560.635	33.63
560.831	33.81
561.027	33.73
561.223	34.32
561.419	34.58
561.615	34.75
561.811	34.58
562.007	34.64
562.203	34.73
562.399	35.03
562.595	35.06
562.791	35.41
562.987	35.87
563.183	36.07
563.379	36.83
563.575	36.56
563.771	36.66
563.966	36.98
564.162	37.15
564.358	36.91
564.554	36.83
564.75	36.26
564.945	36.26
565.141	35.68
565.337	35.86
565.533	35.44
565.728	35.67
565.924	35.94
566.12	35.56
566.315	35.4
566.511	35.44
566.707	35.93
566.902	36.24
567.098	36.44
567.293	37
567.489	36.92
567.684	37.35
567.88	36.7
568.076	36.8
568.271	37.47
568.467	37.9
568.662	38.06
568.858	37.87
569.053	38
569.248	37.25
569.444	37.12
569.639	37.37
569.835	36.8
570.03	37.75
570.225	37.81
570.421	37.79
570.616	37.88
570.812	37.98
571.007	37.71
571.202	37.67
571.397	37.9
571.593	37.71
571.788	37.91
571.983	38.17
572.178	38.79
572.374	38.91
572.569	38.95
572.764	39.27
572.959	39.88
573.154	40.5
573.35	40.85
573.545	41.15
573.74	41.48
573.935	41.14
574.13	41.09
574.325	40.83
574.52	40.91
574.715	41.11
574.91	40.84
575.105	40.16
575.3	39.99
575.495	40.05
575.69	40.08
575.885	40.14
576.08	40.07
576.275	40.52
576.47	40.32
576.665	40.33
576.86	40.39
577.055	39.94
577.25	40.65
577.444	40.59
577.639	40.35
577.834	39.92
578.029	40.41
578.224	40.57
578.418	40.44
578.613	40.11
578.808	39.76
579.003	39.69
579.197	40.59
579.392	40.35
579.587	41.05
579.781	41.76
579.976	42.37
580.171	42.24
580.365	42.65
580.56	43.49
580.755	43.44
580.949	43.68
581.144	44.28
581.338	44.27
581.533	43.71
581.727	43.18
581.922	43.14
582.116	43.54
582.311	43.28
582.505	43
582.7	42.37
582.894	43.1
583.089	43.59
583.283	42.44
583.478	41.82
583.672	41.85
583.866	41.7
584.061	40.92
584.255	41.19
584.449	41.94
584.644	42.3
584.838	42.57
585.032	42.5
585.226	41.89
585.421	43.36
585.615	43.78
585.809	44.41
586.003	44.58
586.198	45.01
586.392	44.31
586.586	43.56
586.78	43.74
586.974	43.48
587.168	43.71
587.363	44.16
587.557	43.55
587.751	42.98
587.945	43.43
588.139	43.6
588.333	43.3
588.527	43.69
588.721	43.68
588.915	43.93
589.109	44.17
589.303	43.51
589.497	43.25
589.691	43.2
589.885	44.52
590.079	44.79
590.273	44.78
590.466	45.4
590.66	44.96
590.854	44.67
591.048	44.24
591.242	43.87
591.436	43.94
591.629	43.87
591.823	44.04
592.017	43.35
592.211	42.29
592.404	42.53
592.598	41.7
592.792	42.1
592.986	42.92
593.179	42.78
593.373	43.45
593.567	43.76
593.76	44.18
593.954	43.96
594.147	44.29
594.341	45.11
594.535	45.42
594.728	45.8
594.922	46.22
595.115	45.75
595.309	46.25
595.502	46.02
595.696	46.38
595.889	46.81
596.083	47.12
596.276	46.62
596.47	46.29
596.663	45.99
596.856	46.24
597.05	45.91
597.243	46.25
597.437	46
597.63	45.32
597.823	45.05
598.017	45.53
598.21	45.13
598.403	45.29
598.596	45.09
598.79	45.11
598.983	45.3
599.176	45.42
599.369	45.29
599.563	46.14
599.756	46.86
599.949	46.72
600.142	45.67
600.335	46.34
600.528	46.84
600.722	47.32
600.915	47.23
601.108	46.94
601.301	47.82
601.494	47.66
601.687	46.87
601.88	47.15
602.073	47.11
602.266	47.61
602.459	47.41
602.652	47
602.845	46.84
603.038	46.66
603.231	46.66
603.424	46.25
603.617	46.27
603.809	46.68
604.002	46.26
604.195	47.28
604.388	46.74
604.581	47.28
604.774	47.54
604.966	47.68
605.159	48.43
605.352	47.96
605.545	47.51
605.737	48.22
605.93	48.04
606.123	48.96
606.316	47.47
606.508	48.1
606.701	47.23
606.894	47.08
607.086	47.37
607.279	46.63
607.471	48.04
607.664	48.99
607.857	48.71
608.049	48.98
608.242	48.45
608.434	49.41
608.627	49.29
608.819	49.67
609.012	49.9
609.204	49.91
609.397	51.29
609.589	51.02
609.782	50.8
609.974	50.97
610.166	51.27
610.359	51.58
610.551	51.66
610.743	51.9
610.936	51.83
611.128	52.17
611.32	51.87
611.513	50.93
611.705	51.22
611.897	51.26
612.09	51.19
612.282	50.89
612.474	51.31
612.666	51.27
612.858	51.09
613.051	51.37
613.243	50.97
613.435	51.46
613.627	51.57
613.819	51.75
614.011	51.44
614.203	51.24
614.395	51.87
614.588	51.73
614.78	52.15
614.972	52.49
615.164	51.98
615.356	52.4
615.548	52.5
615.74	52.23
615.932	51.35
616.124	51.56
616.315	52.02
616.507	51.07
616.699	51.02
616.891	50.66
617.083	50.56
617.275	50.85
617.467	49.95
617.659	49.61
617.85	49.33
618.042	49.87
618.234	50.46
618.426	50.43
618.618	50.68
618.809	50.61
619.001	49.8
619.193	49.41
619.384	50.36
619.576	51.58
619.768	52.05
619.959	52.12
620.151	51.98
620.343	50.7
620.534	50.66
620.726	49.93
620.917	49.46
621.109	49.35
621.301	49.61
621.492	48.65
621.684	48.01
621.875	47.73
622.067	48.52
622.258	47.72
622.45	48.2
622.641	48.03
622.832	49.13
623.024	49.62
623.215	50.1
623.407	49.47
623.598	49.32
623.789	48.9
623.981	48.81
624.172	48.36
624.363	49.42
624.555	50.24
624.746	49.7
624.937	49.55
625.129	49.91
625.32	49.8
625.511	50.48
625.702	50.9
625.893	51.68
626.085	52.01
626.276	52.66
626.467	52.5
626.658	52.41
626.849	52.55
627.04	52.83
627.231	52.66
627.422	53.13
627.614	52.82
627.805	52.31
627.996	52.49
628.187	52.41
628.378	51.73
628.569	51.8
628.76	51.34
628.951	51.27
629.142	51.16
629.332	50.58
629.523	50.44
629.714	51.07
629.905	51.83
630.096	51.96
630.287	52.02
630.478	52.35
630.669	51.82
630.859	51.55
631.05	52.43
631.241	52.06
631.432	52.48
631.623	51.84
631.813	51.4
632.004	51.81
632.195	50.88
632.385	50.62
632.576	50.4
632.767	50.88
632.957	51.34
633.148	51.26
633.339	51.24
633.529	52.04
633.72	52.66
633.91	53.08
634.101	52.68
634.292	53.22
634.482	53.42
634.673	53.49
634.863	53.66
635.054	53.62
635.244	53.99
635.435	54.27
635.625	54.12
635.815	54.89
636.006	54.25
636.196	53.62
636.387	53.95
636.577	53.51
636.767	54.12
636.958	53.92
637.148	54.88
637.338	54.38
637.529	54.83
637.719	54.92
637.909	54.11
638.099	53.71
638.29	55.3
638.48	53.88
638.67	54.72
638.86	54.67
639.05	54.48
639.241	53.65
639.431	52.62
639.621	52.97
639.811	51.75
640.001	51.9
640.191	51.99
640.381	50.83
640.571	52.09
640.761	51.22
640.951	50.62
641.141	50.79
641.331	50.57
641.521	51.47
641.711	50.45
641.901	51.42
642.091	52.04
642.281	51.74
642.471	51.47
642.661	50.48
642.851	51.26
643.041	52.38
643.231	52.05
643.42	51.11
643.61	51.55
643.8	51.78
643.99	51.31
644.18	51.25
644.369	53.02
644.559	54.14
644.749	54.59
644.939	54.48
645.128	53.94
645.318	54.21
645.508	55.84
645.697	55.09
645.887	56.64
646.076	56.81
646.266	56.53
646.456	57.43
646.645	57.13
646.835	58.2
647.024	59.22
647.214	58.15
647.403	57.72
647.593	57.49
647.782	57.62
647.972	56.34
648.161	56.17
648.351	56.21
648.54	55.21
648.73	55.17
648.919	55.07
649.108	54.39
649.298	55.01
649.487	55.96
649.677	57.15
649.866	57.22
650.055	56.16
650.244	55.99
650.434	56.6
650.623	56.94
650.812	57.66
651.002	56.83
651.191	56.31
651.38	56.17
651.569	56.11
651.758	54.46
651.947	56.53
652.137	58.11
652.326	58.8
652.515	57.25
652.704	57.08
652.893	57.46
653.082	57.3
653.271	57.19
653.46	57.63
653.649	58.26
653.838	58.89
654.027	57.87
654.216	56.85
654.405	57.22
654.594	57.82
654.783	57.73
654.972	56.04
655.161	57
655.35	57.64
655.539	58.26
655.728	57.8
655.916	57.61
656.105	58.34
656.294	59.59
656.483	59.56
656.672	60.37
656.86	59.72
657.049	59.69
657.238	59.18
657.427	59.62
657.615	58.41
657.804	58.51
657.993	58.82
658.181	56.99
658.37	56.35
658.559	55.57
658.747	55.4
658.936	56.1
659.125	56.71
659.313	56.96
659.502	56.67
659.69	57.11
659.879	58.2
660.067	57.96
660.256	58.79
660.444	59.64
660.633	60.35
660.821	59.17
661.01	57.98
661.198	57.72
661.387	57.47
661.575	57.22
661.763	57.64
661.952	56.68
662.14	56.03
662.328	56.57
662.517	55.99
662.705	56.59
662.893	57.87
663.082	58.89
663.27	58.26
663.458	58.35
663.646	58.83
663.834	58.95
664.023	58.25
664.211	59.61
664.399	60.33
664.587	61.14
664.775	60.94
664.963	61.95
665.152	62.38
665.34	64.19
665.528	64.07
665.716	63.34
665.904	63.73
666.092	64.15
666.28	64.32
666.468	62.65
666.656	61.54
666.844	61.23
667.032	60.16
667.22	59.7
667.408	58.98
667.596	59.35
667.784	59.29
667.971	59.13
668.159	58.42
668.347	57.87
668.535	58.77
668.723	59.1
668.911	58.92
669.098	58.8
669.286	59.06
669.474	58.61
669.662	59.19
669.849	59.02
670.037	57.42
670.225	57.58
670.413	58.63
670.6	58.05
670.788	58.77
670.976	58.62
671.163	58.43
671.351	57.65
671.538	57.82
671.726	57.72
671.913	57.71
672.101	58.94
672.289	59.44
672.476	59.07
672.664	58.65
672.851	58.27
673.039	58.9
673.226	59.67
673.413	60.52
673.601	61.62
673.788	60.8
673.976	61.36
674.163	61.93
674.35	62.39
674.538	61.64
674.725	62.92
674.912	62.06
675.1	61.73
675.287	60.77
675.474	60.53
675.662	58.52
675.849	57.84
676.036	58.54
676.223	57.88
676.411	57.28
676.598	57.97
676.785	56.8
676.972	57.51
677.159	56.8
677.346	57.1
677.533	57.9
677.721	58.82
677.908	59.9
678.095	60.19
678.282	61.03
678.469	61.33
678.656	60.76
678.843	60.6
679.03	60.47
679.217	62.46
679.404	62.98
679.591	61.3
679.778	62.03
679.964	61.98
680.151	62.8
680.338	62.35
680.525	61.94
680.712	61.47
680.899	63.7
681.086	63.57
681.272	61.63
681.459	62.39
681.646	63.13
681.833	62.18
682.02	62.78
682.206	60.52
682.393	60.78
682.58	61.3
682.766	61.83
682.953	58.25
683.14	59.24
683.326	59.7
683.513	58.97
683.7	59.76
683.886	59.73
684.073	58.32
684.259	58.51
684.446	58.87
684.632	58.82
684.819	58.68
685.005	60.28
685.192	59.71
685.378	60.67
685.565	61.29
685.751	60.79
685.938	61.19
686.124	61.57
686.31	63.4
686.497	63.42
686.683	63.75
686.87	63.68
687.056	63.63
687.242	63.09
687.429	62.17
687.615	59.89
687.801	60.62
687.987	59.39
688.174	60.14
688.36	58.17
688.546	56.88
688.732	56.96
688.918	56.86
689.105	57.55
689.291	58.91
689.477	58.41
689.663	59.04
689.849	59.06
690.035	60.11
690.221	61.03
690.407	61.91
690.593	62.81
690.779	62.04
690.965	62.06
691.151	62.84
691.337	62.9
691.523	63.57
691.709	65.72
691.895	64.82
692.081	64.45
692.267	61.65
692.453	62.78
692.639	64.03
692.825	64.13
693.011	64.16
693.196	62.49
693.382	60.87
693.568	61.38
693.754	59.65
693.94	61.02
694.125	61.8
694.311	63.96
694.497	64.06
694.682	62.79
694.868	63.57
695.054	64.79
695.239	64.78
695.425	64.38
695.611	64.28
695.796	63.86
695.982	63.76
696.168	63.79
696.353	62.49
696.539	61.37
696.724	61.82
696.91	60.72
697.095	59.41
697.281	59.85
697.466	60.08
697.652	59.79
697.837	60.51
698.023	59.12
698.208	59.18
698.393	59.61
698.579	59.38
698.764	58.19
698.949	59.24
699.135	60.28
699.32	58.88
699.505	58.62
699.691	58.53
699.876	58.76
700.061	60.61
700.246	61.35
700.432	61.62
700.617	62.58
700.802	63.2
700.987	62.12
701.172	61.9
701.358	64.43
701.543	65.47
701.728	66.46
701.913	64.38
702.098	63.06
702.283	61.67
702.468	62.84
702.653	63.09
702.838	62.99
703.023	62.15
703.208	62.6
703.393	61.26
703.578	61.01
703.763	60.99
703.948	62.76
704.133	63.5
704.318	63.65
704.503	61.9
704.688	61.66
704.873	62
705.057	63.76
705.242	61.88
705.427	63.58
705.612	62.11
705.797	63.32
705.981	64.5
706.166	64.66
706.351	65.38
706.536	65.67
706.72	64.74
706.905	65.49
707.09	65.72
707.274	66.26
707.459	65.75
707.644	67.04
707.828	63.07
708.013	62.22
708.197	63.08
708.382	60.79
708.567	59.49
708.751	58.15
708.936	58.1
709.12	55.88
709.305	56.42
709.489	55.41
709.673	56.05
709.858	57.92
710.042	57.79
710.227	55.04
710.411	55.56
710.596	56.46
710.78	59.29
710.964	58.48
711.149	60.77
711.333	60.85
711.517	59.36
711.702	57.99
711.886	59.13
712.07	59.36
712.254	61.05
712.438	61.49
712.623	61.49
712.807	61.25
712.991	61.59
713.175	62.34
713.359	63.27
713.544	63.47
713.728	64.29
713.912	64.76
714.096	65.2
714.28	65.63
714.464	65.61
714.648	65.43
714.832	63.65
715.016	64.76
715.2	65.8
715.384	65.16
715.568	67.28
715.752	67.26
715.936	66.31
716.12	65.7
716.304	67.34
716.488	69.05
716.671	69.62
716.855	69.18
717.039	68.53
717.223	64.11
717.407	63.38
717.59	63.84
717.774	62.74
717.958	62.28
718.142	63.38
718.325	61.98
718.509	60.19
718.693	59.06
718.877	59.94
719.06	61.05
719.244	63.08
719.428	66.38
719.611	64.71
719.795	65.17
719.978	65.78
720.162	65.61
720.345	67.6
720.529	70.66
720.713	73.01
720.896	74.06
721.08	71.83
721.263	73.09
721.446	71.3
721.63	71.95
721.813	73.53
721.997	73.22
722.18	72.28
722.364	68.12
722.547	66.92
722.73	66.35
722.914	66.48
723.097	67.97
723.28	66.88
723.464	65.33
723.647	66.02
723.83	67.74
724.013	69.33
724.197	66.22
724.38	67.76
724.563	68.32
724.746	69.91
724.929	69.43
725.112	69.09
725.296	72.1
725.479	72.6
725.662	74.75
725.845	72.84
726.028	69.42
726.211	71.95
726.394	71.33
726.577	71.97
726.76	70.97
726.943	71.9
727.126	73.2
727.309	71.67
727.492	69.23
727.675	66.54
727.858	67.5
728.041	68.79
728.224	69.67
728.407	70.33
728.589	69.8
728.772	69.27
728.955	69.6
729.138	67.1
729.321	67.43
729.503	67.96
729.686	68.29
729.869	65.85
730.052	67.69
730.234	70.09
730.417	70.38
730.6	70.25
730.782	70.39
730.965	69.47
731.148	69.19
731.33	68.51
731.513	69.81
731.695	73.7
731.878	73.81
732.061	72.79
732.243	69.53
732.426	68.26
732.608	68.25
732.791	69.65
732.973	70.55
733.156	72.74
733.338	70.87
733.52	70.88
733.703	65.42
733.885	66.07
734.068	67.02
734.25	67.5
734.432	67.9
734.615	67.44
734.797	65.29
734.979	64.03
735.162	63.58
735.344	65.38
735.526	67.04
735.708	68.49
735.891	67.58
736.073	67.81
736.255	67.3
736.437	67.03
736.619	65.53
736.802	67.49
736.984	67.62
737.166	67.01
737.348	66.67
737.53	64.11
737.712	64.45
737.894	65.75
738.076	63.11
738.258	64.99
738.44	64.57
738.622	64.69
738.804	65.34
738.986	65.74
739.168	66.07
739.35	67.29
739.532	66.39
739.714	68.25
739.896	67.82
740.078	66.6
740.259	65.42
740.441	65.5
740.623	66.72
740.805	67.71
740.987	69.77
741.168	68.72
741.35	70.26
741.532	70.36
741.714	67.76
741.895	69.28
742.077	71.73
742.259	69.99
742.44	71.09
742.622	70.34
742.804	67.61
742.985	62.69
743.167	63.36
743.348	61.17
743.53	63.82
743.711	65.49
743.893	65.42
744.075	67.28
744.256	73.25
744.438	72.82
744.619	73.18
744.8	71.8
744.982	74.53
745.163	74.25
745.345	71.1
745.526	70.5
745.707	69.92
745.889	68.72
746.07	69
746.252	64.86
746.433	68.44
746.614	67
746.795	66.61
746.977	64.55
747.158	66.38
747.339	69.39
747.52	69.68
747.702	66.92
747.883	65.76
748.064	65.88
748.245	68.06
748.426	65.88
748.607	69.14
748.788	70.54
748.97	70.79
749.151	69.86
749.332	69.32
749.513	68.43
749.694	72.23
749.875	75.59
750.056	72.34
750.237	67.05
750.418	67.69
750.599	66.38
750.78	68.09
750.96	70.27
751.141	68.54
751.322	68.12
751.503	65.42
751.684	67.57
751.865	67.7
752.046	70.06
752.226	73.64
752.407	75.32
752.588	77.28
752.769	73.75
752.949	73.32
753.13	73.95
753.311	74.06
753.492	74.72
753.672	68.24
753.853	68.26
754.034	67.19
754.214	64.22
754.395	63.64
754.575	61.15
754.756	63.59
754.937	61.62
755.117	61.46
755.298	63.61
755.478	68.16
755.659	70.93
755.839	68
756.02	69.38
756.2	70.1
756.381	70.35
756.561	69.65
756.741	69.13
756.922	71.57
757.102	73.2
757.283	72.26
757.463	74.52
757.643	75.48
757.823	74.42
758.004	75.06
758.184	76.83
758.364	73.1
758.545	72.39
758.725	68.12
758.905	67.07
759.085	68.2
759.265	67.92
759.446	62.44
759.626	58.78
759.806	59.3
759.986	56.14
760.166	56.92
760.346	57.29
760.526	60.5
760.706	62.66
760.886	62.81
761.066	58.53
761.246	58.9
761.426	62.04
761.606	65.92
761.786	66.96
761.966	71.05
762.146	67.73
762.326	67.71
762.506	66.31
762.686	66.55
762.866	65.83
763.046	66.48
763.225	66.67
763.405	65.39
763.585	63.82
763.765	64.51
763.945	63.27
764.124	65.53
764.304	65.48
764.484	65.13
764.664	64.08
764.843	65.33
765.023	65.07
765.203	66.48
765.382	65.92
765.562	65.56
765.741	67.15
765.921	64.9
766.101	64.03
766.28	62.56
766.46	62.68
766.639	65.14
766.819	65.32
766.998	68.41
767.178	66.75
767.357	72.86
767.537	74.17
767.716	72.53
767.896	74.52
768.075	73.8
768.254	78.85
768.434	77.93
768.613	76.48
768.792	72.2
768.972	72.84
769.151	71.4
769.33	63.83
769.51	65.4
769.689	67.05
769.868	68.17
770.047	67.48
770.226	67.57
770.406	67.61
770.585	71.7
770.764	75.45
770.943	73.57
771.122	72.81
771.301	71.4
771.48	71.16
771.66	67.05
771.839	68.09
772.018	68.92
772.197	67.6
772.376	66.19
772.555	63.18
772.734	60.93
772.913	61.75
773.092	60.88
773.271	67
773.449	68.12
773.628	66.27
773.807	63.74
773.986	66.35
774.165	66.01
774.344	68.97
774.523	67.68
774.701	72.06
774.88	71.73
775.059	73.11
775.238	73.06
775.417	74.07
775.595	73.58
775.774	73
775.953	69.58
776.131	64.75
776.31	62.79
776.489	65.11
776.667	61.25
776.846	59.57
777.025	60.2
777.203	57.8
777.382	50.96
777.56	57.87
777.739	57.31
777.917	60.3
778.096	61.53
778.274	58.83
778.453	61.74
778.631	63.24
778.81	65.99
778.988	71.85
779.166	74.48
779.345	78.68
779.523	77
779.702	79.24
779.88	73.71
780.058	76
780.237	76.12
780.415	74.88
780.593	74.28
780.771	73.45
780.95	68.76
781.128	68.21
781.306	64.37
781.484	63.23
781.662	65.36
781.841	68.66
782.019	73.35
782.197	74.13
782.375	70.94
782.553	75.62
782.731	72.73
782.909	73.02
783.087	66.98
783.265	75.52
783.443	74.05
783.621	67.96
783.799	63.99
783.977	62.67
784.155	65.91
784.333	65.02
784.511	62.75
784.689	64.63
784.867	65.52
785.045	67.79
785.223	62.85
785.4	67.82
785.578	67.49
785.756	66.62
785.934	62.85
786.112	60.26
786.289	59.98
786.467	57.77
786.645	60.5
786.823	66.76
787	68.78
787.178	69.6
787.356	63.25
787.533	66.17
787.711	72.89
787.889	79.88
788.066	80.14
788.244	81.49
788.421	82.49
788.599	81.77
788.776	75.31
788.954	72.21
789.131	73.17
789.309	73.71
789.486	71.31
789.664	68.67
789.841	64.01
790.019	67.7
790.196	69.27
790.373	75.26
790.551	74.91
790.728	78.01
790.906	81.88
791.083	78.88
791.26	82.54
791.437	78.5
791.615	82.29
791.792	82.77
791.969	78.96
792.146	79.49
792.324	79.1
792.501	74.72
792.678	73.09
792.855	69.47
793.032	70.81
793.209	77.02
793.387	80.8
793.564	79.73
793.741	78.68
793.918	79.95
794.095	76.84
794.272	70.93
794.449	76.24
794.626	73.68
794.803	76.09
794.98	73.18
795.157	69.04
795.334	67.8
795.511	63.8
795.688	65.31
795.864	69.4
796.041	74.34
796.218	74.97
796.395	72.3
796.572	74.01
796.749	71.57
796.925	72.85
797.102	71.81
797.279	70.03
797.456	71.09
797.632	70.81
797.809	67.62
797.986	64.75
798.162	65.01
798.339	62.86
798.516	64.37
798.692	64.64
798.869	71.35
799.046	70.33
799.222	71.13
799.399	71.67
799.575	70.34
799.752	64.79
799.928	64.88
800.105	67.12
800.281	73.07
800.458	69.94
800.634	71.18
800.811	63.77
800.987	68.11
801.163	70.32
801.34	72.81
801.516	69.12
801.692	68.26
801.869	62.83
802.045	54.46
802.221	52.24
802.398	56.67
802.574	52.9
802.75	51.14
802.926	47.49
803.103	45.44
803.279	41.6
803.455	52.26
803.631	55.95
803.807	60.28
803.983	69.37
804.16	70.55
804.336	60.45
804.512	65.19
804.688	71.83
804.864	72.54
805.04	72.86
805.216	76.56
805.392	69.58
805.568	69.76
805.744	74.98
805.92	70.35
806.096	57.86
806.272	60.46
806.448	60.43
806.623	49.22
806.799	57.24
806.975	54.78
807.151	56.33
807.327	55.27
807.503	51.97
807.678	52.19
807.854	52.38
808.03	59.27
808.206	63.41
808.381	67.77
808.557	80.11
808.733	69.35
808.908	74.12
809.084	73.89
809.26	72.81
809.435	84.8
809.611	79.09
809.787	75.58
809.962	73.82
810.138	74.46
810.313	65.05
810.489	62.04
810.664	61.12
810.84	61.9
811.015	60.48
811.191	67.44
811.366	67.57
811.542	69.16
811.717	74.43
811.892	69.65
812.068	68.09
812.243	76.19
812.419	71.46
812.594	68.87
812.769	70.27
812.944	67.29
813.12	61.69
813.295	62.02
813.47	69.03
813.645	69.81
813.821	80.46
813.996	76.38
814.171	70.84
814.346	76.54
814.521	83.97
814.697	79.37
814.872	85.89
815.047	97.55
815.222	86.42
815.397	76.08
815.572	70.67
815.747	72.59
815.922	74.55
816.097	70.8
816.272	68.9
816.447	64.79
816.622	68.67
816.797	62.62
816.972	57.19
817.147	57.75
817.322	61.96
817.496	62.38
817.671	58.46
817.846	51.27
818.021	52.64
818.196	56.03
818.371	55.5
818.545	53.84
818.72	53.63
818.895	49.29
819.069	55.55
819.244	56.58
819.419	57.85
819.594	59.76
819.768	62.72
819.943	61.85
820.117	58.26
820.292	56.1
820.467	56.86
820.641	57
820.816	58.34
820.99	57.56
821.165	55.99
821.339	56.55
821.514	55.75
821.688	56.47
821.863	58.03
822.037	58.28
822.212	58.8
822.386	59.03
822.56	60.22
822.735	59.9
822.909	60.54
823.084	62.11
823.258	61.34
823.432	62.79
823.606	62.63
823.781	60.86
823.955	60.37
824.129	61.24
824.303	61.45
824.478	60.03
824.652	58.85
824.826	55.21
825	54.02
825.174	54.88
825.348	52.22
825.523	53.5
825.697	53.36
825.871	55.89
826.045	55.01
826.219	55.5
826.393	56.49
826.567	60.17
826.741	62.71
826.915	63.35
827.089	64.42
827.263	65.25
827.437	64.82
827.611	64.85
827.784	64.71
827.958	64.16
828.132	62.04
828.306	62.2
828.48	54.92
828.654	57.12
828.827	56.23
829.001	51.13
829.175	53.9
829.349	54.75
829.522	54.05
829.696	55.29
829.87	58.43
830.044	60.74
830.217	53.92
830.391	60.99
830.565	61.58
830.738	59.63
830.912	63.51
831.085	60.74
831.259	60.47
831.432	66.39
831.606	60.11
831.779	61.09
831.953	61.48
832.126	71.38
832.3	72.55
832.473	59.71
832.647	56.76
832.82	59.47
832.994	59.94
833.167	58.98
833.34	56.97
833.514	59.77
833.687	63.14
833.86	62.94
834.034	59.17
834.207	57.03
834.38	65.05
834.553	66.98
834.727	65.43
834.9	68.22
835.073	68.29
835.246	69.39
835.419	65.78
835.593	64.32
835.766	68.49
835.939	70.79
836.112	69.2
836.285	67.86
836.458	74.81
836.631	84.71
836.804	84.85
836.977	85.17
837.15	87.5
837.323	101.28
837.496	98.02
837.669	80.72
837.842	76.42
838.015	90.8
838.188	95.43
838.361	83.72
838.533	62.43
838.706	56.61
838.879	68.42
839.052	69.65
839.225	63.22
839.398	69.54
839.57	73.49
839.743	73.87
839.916	67.44
840.088	59.76
840.261	62.02
840.434	65.01
840.607	70.48
840.779	64.42
840.952	60.97
841.124	62.81
841.297	61.45
841.47	60.64
841.642	65.18
841.815	74.25
841.987	78.12
842.16	80.67
842.332	85.23
842.505	77.04
842.677	92.66
842.85	96.47
843.022	100.05
843.194	109.81
843.367	135.47
843.539	98.19
843.712	89.49
843.884	94.57
844.056	76.53
844.229	85.97
844.401	103.85
844.573	81.46
844.745	62.82
844.918	64.67
845.09	73.81
845.262	52.99
845.434	85.91
845.606	62.96
845.779	49.18
845.951	214.23
846.123	197.61
846.295	216.02
846.467	161.9
846.639	221.09
846.811	549.69
846.983	433.32
847.155	699.55
847.327	321.56
847.499	238.63
847.671	281.07
847.843	247.51
848.015	259.22
848.187	262.95
848.359	1154.54
848.531	-1019.3
848.703	716.75
848.875	-1347.45
849.047	962.18
849.218	-296.48
849.39	34.19
849.562	-7.04
849.734	9.87
849.905	-5.26
850.077	-52.23
850.249	494.47
850.421	121.54
850.592	-74.19
850.764	55.41
850.936	61.3
851.107	34.12
851.279	68.14
851.451	38.81
851.622	33.3
851.794	29.3
851.965	-2.11
852.137	4.44
852.308	25.33
852.48	14.53
852.651	10.59
852.823	25.58
852.994	-2.18
853.166	-21.78
853.337	13.53
853.509	-37.77
853.68	2903.75
853.851	80.34
854.023	-4.92
854.194	7.34
854.365	85.52
854.537	78
854.708	75.8
854.879	88.57
855.05	82.64
855.222	70.28
855.393	146.53
855.564	270.26
855.735	-76.29
855.906	-673.35
856.078	-86.92
856.249	-299.72
856.42	-8464.29
856.591	80.96
856.762	-798.68
856.933	176.02
857.104	308.8
857.275	140.05
857.446	94.12
857.617	103.32
857.788	92.36
857.959	82.64
858.13	74.08
858.301	109.83
858.472	129.09
858.643	118.02
858.814	177.09
858.985	154.59
859.155	167.18
859.326	251.19
859.497	644.18
859.668	-157.58
859.839	-112.03
860.009	-69
860.18	-157.72
860.351	-110.64
860.522	-159.16
860.692	-41.12
860.863	28.97
861.034	-65.33
861.204	-23.96
861.375	3.14
861.546	-75.78
861.716	-24.85
861.887	-142.41
862.057	9498
862.228	228.77
862.398	545
862.569	313.45
862.739	443.25
862.91	246.67
863.08	170.09
863.251	141.58
863.421	140.9
863.592	122.73
863.762	132.05
863.932	154.31
864.103	198.13
864.273	272.15
864.443	635.44
864.614	141.2
864.784	210.77
864.954	240.09
865.125	407.64
865.295	249.19
865.465	708.06
865.635	288.79
865.805	205.92
865.976	112.08
866.146	76.39
866.316	88.45
866.486	98.73
866.656	62.44
866.826	30.38
866.996	60.96
867.166	-10.13
867.336	-80.23
867.506	262.32
867.676	94.48
867.846	102.2
868.016	78.42
868.186	87.97
868.356	80.29
868.526	60.81
868.696	59.3
868.866	104.44
869.036	70.88
869.206	88.78
869.376	202.98
869.545	-61.08
869.715	-24.47
869.885	-17.06
870.055	-28.63
870.224	-45.66
870.394	-23.19
870.564	-25.63
870.734	19.66
870.903	7.68
871.073	0.99
871.243	5.34
871.412	-4.89
871.582	34.89
871.751	72.17
871.921	69.34
872.091	118.16
872.26	60.49
872.43	50.36
872.599	73.15
872.769	85.81
872.938	82.85
873.108	86.15
873.277	82.16
873.446	70.89
873.616	67.93
873.785	85.43
873.955	93.34
874.124	85.86
874.293	132.57
874.463	121.4
874.632	66.03
874.801	105.42
874.971	111.47
875.14	117.14
875.309	40.2
875.478	31.22
875.647	-5.43
875.817	32.14
875.986	72.9
876.155	44.47
876.324	45.85
876.493	69.24
876.662	88.21
876.831	86.31
877	104.8
877.17	132.61
877.339	171.4
877.508	174.92
877.677	152.53
877.846	207.58
878.015	263.28
878.184	226.07
878.352	202.14
878.521	94.34
878.69	63.6
878.859	72.31
879.028	56.71
879.197	53.89
879.366	51.23
879.534	55.62
879.703	45.11
879.872	51.55
880.041	54.83
880.21	56.11
880.378	66.17
880.547	62.33
880.716	57.55
880.884	54.71
881.053	52.88
881.222	53.61
881.39	52.82
881.559	54.2
881.727	51.09
881.896	53.64
882.065	50.97
882.233	47.52
882.402	47.94
882.57	44.53
882.739	47.18
882.907	47.27
883.076	46.39
883.244	46.48
883.412	44.13
883.581	41.81
883.749	42.76
883.918	39.41
884.086	43.34
884.254	47.45
884.423	52.24
884.591	47.39
884.759	51.55
884.927	46.1
885.096	46.67
885.264	51.01
885.432	55.9
885.6	52.34
885.769	69.66
885.937	63.63
886.105	59.39
886.273	57.62
886.441	61.34
886.609	40.78
886.777	51.46
886.945	57.59
887.113	53.36
887.281	45.8
887.449	43.84
887.617	54.88
887.785	67.22
887.953	64.67
888.121	70.65
888.289	42.76
888.457	117.13
888.625	114.04
888.793	107.27
888.961	216.65
889.129	127.83
889.296	118.32
889.464	100.4
889.632	98.91
889.8	118.86
889.967	102.36
890.135	117.85
