Data from JASIL_2965_Reflection_2.txt Node
Date: Sat Nov 07 21:29:58 EST 2015
User: Geneva
Spectrometer: USB4E03002
Autoset integration time: false
Trigger mode: 4
Integration Time (sec): 1.000000E-1
Scans to average: 10
Electric dark correction enabled: true
Nonlinearity correction enabled: false
Boxcar width: 5
Stray light correction enabled: false
XAxis mode: Wavelengths
Stop averaging: false
Number of Pixels in Spectrum: 3648
>>>>>Begin Spectral Data<<<<<
177.575	110.52
177.794	130.09
178.014	160.62
178.233	241.07
178.452	64.8
178.672	21.49
178.891	75.9
179.11	89.57
179.33	92.06
179.549	118.71
179.768	109.77
179.987	188.14
180.207	516.29
180.426	-566.58
180.645	-46.81
180.864	-39.87
181.084	-21.5
181.303	-47
181.522	-34.41
181.741	-20.79
181.96	-14.45
182.179	2.24
182.398	-0.45
182.618	-0.13
182.837	-15.91
183.056	-87.28
183.275	-38.56
183.494	-10.75
183.713	1.51
183.932	8.65
184.151	-42.17
184.37	59.85
184.589	43.97
184.808	46.35
185.027	58.77
185.246	39.38
185.465	29.59
185.684	23.05
185.903	15.57
186.122	24.13
186.341	22.36
186.56	22.32
186.779	2.21
186.998	3.16
187.216	7.88
187.435	-0.65
187.654	5.3
187.873	26.7
188.092	10.82
188.311	12.95
188.53	18.28
188.748	30.25
188.967	6.57
189.186	34
189.405	25.49
189.623	-7.31
189.842	14.7
190.061	5.87
190.28	-15.18
190.498	-2.54
190.717	-48.81
190.936	-121.08
191.154	-317.55
191.373	3619.42
191.592	-611.83
191.81	-677.18
192.029	-192.4
192.248	-549.52
192.466	-317.09
192.685	-115.53
192.904	-62.82
193.122	-39.98
193.341	-52.71
193.559	-21.78
193.778	-11.57
193.996	13.52
194.215	23.47
194.433	24.6
194.652	40.52
194.87	10.11
195.089	12.58
195.307	32.6
195.526	44.34
195.744	37.73
195.963	29.98
196.181	27.56
196.399	8.35
196.618	12.58
196.836	31.89
197.055	22.47
197.273	13.22
197.491	16.56
197.71	15.47
197.928	-11.47
198.146	16
198.365	0.79
198.583	-13.48
198.801	-4.74
199.019	-26.06
199.238	-42.76
199.456	-36.05
199.674	-33.39
199.892	-38.2
200.111	-78.87
200.329	-19.99
200.547	-56.82
200.765	-46.17
200.983	-38.59
201.202	-32.52
201.42	-12.65
201.638	-19.15
201.856	-20.72
202.074	-0.98
202.292	4.34
202.51	5.21
202.728	-6.36
202.946	-24.2
203.165	-25.82
203.383	-25.69
203.601	-15.27
203.819	-3.29
204.037	1.04
204.255	10.73
204.473	3.28
204.691	0.73
204.909	-13.44
205.127	4.13
205.345	35.13
205.562	38.88
205.78	31.61
205.998	30.39
206.216	19.13
206.434	33.17
206.652	16.98
206.87	32.63
207.088	17.77
207.306	11.47
207.523	0.75
207.741	-10.03
207.959	-1.8
208.177	4.1
208.395	-22.03
208.612	-47.15
208.83	-46.61
209.048	-46.13
209.266	-87.53
209.483	-102.73
209.701	-103.72
209.919	-125.66
210.136	-95.98
210.354	-56.72
210.572	-30.15
210.79	-9.66
211.007	5
211.225	12.83
211.442	15.69
211.66	20.46
211.878	19.89
212.095	31.19
212.313	33.33
212.53	23.06
212.748	12.2
212.966	14.37
213.183	13.21
213.401	13.59
213.618	11.97
213.836	15.81
214.053	10.19
214.271	8.86
214.488	5.68
214.705	0.86
214.923	1.87
215.14	10.98
215.358	7.7
215.575	7.88
215.793	6.98
216.01	0.37
216.227	-4.6
216.445	-9.6
216.662	-6.11
216.879	-9.57
217.097	-13.25
217.314	-11.1
217.531	-17.18
217.749	-27.27
217.966	-22.14
218.183	-22.77
218.4	-28.91
218.618	-26.27
218.835	-14.71
219.052	-11.82
219.269	-11.24
219.487	-4.11
219.704	-4.35
219.921	-2.18
220.138	7.74
220.355	8.25
220.572	7.6
220.79	6.01
221.007	8.61
221.224	7.33
221.441	6.1
221.658	3.86
221.875	3.46
222.092	2.43
222.309	3.83
222.526	-1.35
222.743	-2.49
222.96	-4.64
223.177	-3.3
223.394	-4.2
223.611	-2.24
223.828	-5.99
224.045	-3.83
224.262	-6.67
224.479	-7.87
224.696	-5.67
224.913	-1.07
225.13	0.52
225.347	3
225.564	4.96
225.781	3.06
225.997	2.88
226.214	4.68
226.431	5.85
226.648	6.5
226.865	8.41
227.082	8.38
227.298	7.58
227.515	7.15
227.732	6.56
227.949	6.7
228.165	6.61
228.382	6.25
228.599	6.47
228.816	6.08
229.032	6.18
229.249	5.8
229.466	4.62
229.682	4.36
229.899	5.45
230.116	6.8
230.332	7.41
230.549	9.36
230.765	10.48
230.982	10.42
231.199	10.83
231.415	11.63
231.632	11.55
231.848	12.65
232.065	12.6
232.281	11.61
232.498	9.5
232.714	8.74
232.931	7.95
233.147	8.37
233.364	8.14
233.58	9.09
233.797	8.22
234.013	8.6
234.23	9.03
234.446	9.77
234.662	9.52
234.879	11.06
235.095	10.4
235.312	10.13
235.528	10.03
235.744	8.96
235.961	8.32
236.177	8.42
236.393	7.11
236.61	7.43
236.826	6.89
237.042	7.47
237.258	6.51
237.475	6.71
237.691	6.34
237.907	5.27
238.123	6.11
238.339	5.9
238.556	6.23
238.772	7.32
238.988	7.03
239.204	7.38
239.42	7.17
239.636	7.35
239.853	7.9
240.069	7.69
240.285	8.28
240.501	8.36
240.717	8.46
240.933	8.62
241.149	8.66
241.365	9.03
241.581	8.81
241.797	8.75
242.013	8.67
242.229	8.56
242.445	8.69
242.661	8.36
242.877	8.6
243.093	8.85
243.309	9.03
243.525	8.76
243.741	8.43
243.957	8.47
244.173	8.45
244.388	8.21
244.604	8.45
244.82	8.77
245.036	8.79
245.252	8.8
245.468	8.64
245.683	8.39
245.899	8.53
246.115	8.52
246.331	8.59
246.547	8.42
246.762	8.6
246.978	8.59
247.194	8.24
247.409	8.35
247.625	8.13
247.841	7.88
248.057	7.85
248.272	7.5
248.488	7.18
248.703	6.83
248.919	7.17
249.135	6.76
249.35	6.36
249.566	6.86
249.782	6.3
249.997	6.56
250.213	6.72
250.428	6.84
250.644	6.95
250.859	7.08
251.075	7.21
251.29	6.77
251.506	6.67
251.721	6.77
251.937	6.46
252.152	6.79
252.368	6.51
252.583	6.52
252.798	6.28
253.014	6.3
253.229	6.19
253.445	5.64
253.66	5.96
253.875	5.75
254.091	4.97
254.306	4.8
254.521	4.23
254.737	4.17
254.952	3.76
255.167	3.23
255.383	3.79
255.598	3.93
255.813	4.13
256.028	3.54
256.244	4.2
256.459	4.47
256.674	4.88
256.889	5.19
257.104	5.26
257.32	5.6
257.535	6.07
257.75	5.85
257.965	5.91
258.18	6.07
258.395	6.12
258.61	6.14
258.826	6.32
259.041	6.11
259.256	5.95
259.471	5.89
259.686	5.94
259.901	5.93
260.116	5.92
260.331	5.92
260.546	5.94
260.761	5.96
260.976	5.74
261.191	5.47
261.406	5.55
261.621	5.62
261.836	5.42
262.05	4.82
262.265	4.41
262.48	4.44
262.695	4.33
262.91	4.31
263.125	4.44
263.34	4.72
263.555	5.04
263.769	4.93
263.984	4.96
264.199	5.34
264.414	5.7
264.629	5.83
264.843	5.67
265.058	5.47
265.273	5.41
265.488	5.4
265.702	5.41
265.917	5.35
266.132	5.58
266.346	5.85
266.561	5.83
266.776	5.98
266.99	6.09
267.205	6.04
267.42	5.88
267.634	5.75
267.849	5.8
268.063	5.55
268.278	5.47
268.492	5.37
268.707	5.41
268.922	5.38
269.136	5.27
269.351	5.37
269.565	5.53
269.78	5.49
269.994	5.57
270.209	5.53
270.423	5.86
270.637	5.85
270.852	5.74
271.066	5.55
271.281	5.61
271.495	5.63
271.709	5.53
271.924	5.43
272.138	5.47
272.353	5.54
272.567	5.23
272.781	4.92
272.996	4.99
273.21	4.88
273.424	4.79
273.638	4.66
273.853	4.8
274.067	4.6
274.281	4.85
274.495	4.82
274.71	4.71
274.924	4.83
275.138	5.08
275.352	5.13
275.566	5.3
275.781	5.34
275.995	5.74
276.209	5.48
276.423	5.5
276.637	5.02
276.851	5.03
277.065	4.77
277.279	4.95
277.493	4.93
277.707	4.67
277.921	4.84
278.135	5.05
278.349	4.67
278.563	4.58
278.777	4.68
278.991	5
279.205	5.43
279.419	5.52
279.633	5.45
279.847	5.17
280.061	5.44
280.275	5.23
280.489	5.16
280.703	5.06
280.917	5
281.131	5.09
281.344	4.9
281.558	4.6
281.772	4.55
281.986	4.5
282.2	4.75
282.414	4.7
282.627	4.99
282.841	5.17
283.055	5.32
283.269	5.54
283.482	5.37
283.696	5.53
283.91	5.84
284.123	5.89
284.337	5.88
284.551	5.71
284.764	5.7
284.978	5.58
285.192	5.45
285.405	5.46
285.619	5.44
285.833	5.29
286.046	5.04
286.26	4.93
286.473	4.88
286.687	4.81
286.9	4.92
287.114	4.69
287.327	4.87
287.541	4.86
287.754	4.83
287.968	4.81
288.181	5.13
288.395	5.49
288.608	5.3
288.822	5.55
289.035	5.72
289.248	5.67
289.462	6.01
289.675	5.92
289.889	5.97
290.102	6.15
290.315	6.24
290.529	6.21
290.742	6.15
290.955	6.2
291.169	6.22
291.382	6.13
291.595	6.17
291.808	6.09
292.022	6.05
292.235	6.08
292.448	6.18
292.661	6.23
292.875	6.56
293.088	6.46
293.301	6.7
293.514	6.71
293.727	6.8
293.94	7.05
294.153	7.1
294.367	7.14
294.58	7.14
294.793	7
295.006	7.08
295.219	7.07
295.432	7.16
295.645	7.27
295.858	7.15
296.071	7.26
296.284	7.17
296.497	7.17
296.71	7.2
296.923	7.27
297.136	7.27
297.349	7.33
297.562	7.17
297.775	7.17
297.988	6.95
298.201	7.21
298.414	7.08
298.626	7.16
298.839	7.17
299.052	7.22
299.265	7.01
299.478	7.13
299.691	6.84
299.903	6.8
300.116	6.81
300.329	6.96
300.542	6.88
300.755	7.03
300.967	7
301.18	7.16
301.393	7.12
301.605	7.2
301.818	7.03
302.031	7.38
302.243	7.55
302.456	8.07
302.669	7.91
302.881	8.04
303.094	7.98
303.307	8.05
303.519	7.96
303.732	8.15
303.944	8.39
304.157	8.48
304.37	8.43
304.582	8.51
304.795	8.15
305.007	8.36
305.22	8.38
305.432	8.54
305.645	8.61
305.857	8.87
306.069	8.93
306.282	8.79
306.494	8.87
306.707	8.65
306.919	8.74
307.132	8.6
307.344	8.58
307.556	8.45
307.769	8.36
307.981	8.26
308.193	8.06
308.406	7.73
308.618	7.91
308.83	7.98
309.043	8.24
309.255	8.17
309.467	8.43
309.679	8.53
309.892	8.57
310.104	8.69
310.316	8.68
310.528	8.75
310.74	9.11
310.953	9.22
311.165	9.26
311.377	9.04
311.589	9.05
311.801	8.95
312.013	8.91
312.225	8.82
312.437	8.93
312.649	9.04
312.862	9.12
313.074	8.89
313.286	8.7
313.498	8.68
313.71	9.12
313.922	9.13
314.134	9.25
314.346	9.34
314.558	9.65
314.77	9.66
314.982	9.16
315.193	9.06
315.405	9.02
315.617	8.93
315.829	8.8
316.041	8.65
316.253	8.46
316.465	8.46
316.677	8.37
316.888	8.14
317.1	8.05
317.312	8.64
317.524	8.71
317.736	8.92
317.947	9.04
318.159	9.53
318.371	9.64
318.583	9.88
318.794	10
319.006	10.4
319.218	10.57
319.43	10.6
319.641	10.72
319.853	10.83
320.064	10.9
320.276	11.17
320.488	10.89
320.699	11.04
320.911	11.43
321.123	11.74
321.334	11.57
321.546	11.55
321.757	11.65
321.969	11.8
322.18	11.77
322.392	11.94
322.603	11.86
322.815	12.24
323.026	12.4
323.238	12.25
323.449	12.33
323.661	12.43
323.872	12.76
324.083	12.74
324.295	12.84
324.506	13.13
324.718	13.41
324.929	13.69
325.14	13.84
325.352	14.09
325.563	14.33
325.774	14.37
325.986	14.65
326.197	14.92
326.408	15.29
326.62	15.61
326.831	15.79
327.042	15.93
327.253	16.26
327.464	16.48
327.676	16.48
327.887	16.83
328.098	17.02
328.309	17.33
328.52	17.47
328.732	18.04
328.943	18.27
329.154	18.87
329.365	19.09
329.576	19.48
329.787	19.68
329.998	20.14
330.209	20.33
330.42	20.66
330.631	20.86
330.842	21.15
331.053	21.17
331.264	21.28
331.475	21.24
331.686	21.34
331.897	21.3
332.108	21.22
332.319	21.22
332.53	21.42
332.741	21.44
332.952	21.49
333.163	21.8
333.374	21.94
333.585	22
333.795	22.15
334.006	22.19
334.217	22.33
334.428	22.57
334.639	22.61
334.849	22.77
335.06	23.09
335.271	23.31
335.482	23.15
335.692	23.32
335.903	23.41
336.114	23.27
336.325	23.48
336.535	23.52
336.746	23.64
336.957	23.81
337.167	23.79
337.378	23.77
337.589	23.8
337.799	23.96
338.01	23.95
338.22	24.14
338.431	24.3
338.642	24.25
338.852	24.18
339.063	24.17
339.273	24.11
339.484	24.26
339.694	24.38
339.905	24.28
340.115	24.15
340.326	24.06
340.536	24.07
340.746	24.16
340.957	24.08
341.167	24.21
341.378	24.07
341.588	24.42
341.799	24.26
342.009	24.18
342.219	24.21
342.43	24.19
342.64	24.16
342.85	24.11
343.061	24.12
343.271	24.36
343.481	24.43
343.691	24.66
343.902	24.32
344.112	24.19
344.322	24.13
344.532	24.11
344.743	24.23
344.953	24.21
345.163	24.19
345.373	24.12
345.583	24.13
345.793	24.06
346.004	23.88
346.214	24.02
346.424	24.08
346.634	24.29
346.844	24.25
347.054	24.28
347.264	24.46
347.474	24.51
347.684	24.52
347.894	24.48
348.104	24.43
348.314	24.48
348.524	24.44
348.734	24.47
348.944	24.2
349.154	24.3
349.364	24.12
349.574	24.14
349.784	24.03
349.994	24.02
350.204	23.75
350.413	23.66
350.623	23.76
350.833	23.72
351.043	23.57
351.253	23.64
351.463	23.58
351.672	23.64
351.882	23.59
352.092	23.54
352.302	23.61
352.511	23.67
352.721	23.7
352.931	23.63
353.141	23.36
353.35	23.36
353.56	23.24
353.77	23.35
353.979	23.45
354.189	23.31
354.399	23.5
354.608	23.34
354.818	23.43
355.027	23.6
355.237	23.6
355.447	23.86
355.656	24.01
355.866	24.09
356.075	24.04
356.285	23.94
356.494	23.93
356.704	23.75
356.913	23.93
357.123	23.8
357.332	23.56
357.542	23.53
357.751	23.45
357.96	23.37
358.17	23.37
358.379	23.35
358.589	23.3
358.798	23.41
359.007	23.57
359.217	23.45
359.426	23.51
359.635	23.64
359.845	23.59
360.054	23.53
360.263	23.5
360.472	23.4
360.682	23.33
360.891	23.39
361.1	23.27
361.309	23.13
361.519	23.13
361.728	23.18
361.937	23.11
362.146	23.09
362.355	23.06
362.564	23.04
362.774	23.08
362.983	22.91
363.192	22.82
363.401	22.73
363.61	22.68
363.819	22.69
364.028	22.6
364.237	22.48
364.446	22.55
364.655	22.6
364.864	22.47
365.073	22.39
365.282	22.51
365.491	22.49
365.7	22.46
365.909	22.42
366.118	22.36
366.327	22.26
366.536	22.19
366.745	21.97
366.954	21.9
367.162	21.89
367.371	21.8
367.58	21.75
367.789	21.63
367.998	21.71
368.207	21.74
368.415	21.66
368.624	21.61
368.833	21.73
369.042	21.82
369.25	21.7
369.459	21.71
369.668	21.63
369.877	21.54
370.085	21.52
370.294	21.37
370.503	21.16
370.711	21.1
370.92	21.01
371.129	20.83
371.337	20.65
371.546	20.51
371.754	20.42
371.963	20.4
372.171	20.31
372.38	20.18
372.589	20.14
372.797	20.11
373.006	20.02
373.214	19.98
373.423	19.92
373.631	19.83
373.84	19.79
374.048	19.71
374.256	19.69
374.465	19.48
374.673	19.39
374.882	19.28
375.09	19.28
375.298	19.19
375.507	19.22
375.715	19.18
375.923	19.13
376.132	19.1
376.34	18.9
376.548	18.79
376.757	18.85
376.965	18.86
377.173	18.89
377.381	18.85
377.59	18.73
377.798	18.65
378.006	18.51
378.214	18.62
378.423	18.53
378.631	18.48
378.839	18.46
379.047	18.27
379.255	18.16
379.463	17.99
379.671	17.74
379.879	17.75
380.088	17.69
380.296	17.77
380.504	17.65
380.712	17.64
380.92	17.73
381.128	17.62
381.336	17.72
381.544	17.69
381.752	17.78
381.96	17.81
382.168	17.77
382.376	17.71
382.584	17.66
382.791	17.59
382.999	17.46
383.207	17.48
383.415	17.49
383.623	17.39
383.831	17.24
384.039	17.08
384.247	17.06
384.454	17.07
384.662	16.98
384.87	16.89
385.078	16.84
385.285	16.92
385.493	16.77
385.701	16.66
385.909	16.67
386.116	16.73
386.324	16.8
386.532	16.8
386.739	16.74
386.947	16.68
387.155	16.57
387.362	16.55
387.57	16.54
387.778	16.56
387.985	16.64
388.193	16.56
388.4	16.63
388.608	16.54
388.816	16.49
389.023	16.36
389.231	16.32
389.438	16.27
389.646	16.12
389.853	15.98
390.061	15.91
390.268	15.91
390.475	16.03
390.683	15.88
390.89	15.78
391.098	15.69
391.305	15.69
391.512	15.57
391.72	15.63
391.927	15.58
392.135	15.52
392.342	15.51
392.549	15.38
392.756	15.25
392.964	15.18
393.171	15.12
393.378	15.1
393.586	15.06
393.793	15.11
394	15.03
394.207	15.07
394.414	15.11
394.622	15.06
394.829	15
395.036	14.88
395.243	14.9
395.45	14.96
395.657	14.94
395.864	14.9
396.072	14.88
396.279	14.83
396.486	14.72
396.693	14.66
396.9	14.64
397.107	14.54
397.314	14.57
397.521	14.48
397.728	14.41
397.935	14.29
398.142	14.26
398.349	14.24
398.556	14.22
398.763	14.24
398.97	14.21
399.177	14.22
399.383	14.31
399.59	14.28
399.797	14.3
400.004	14.22
400.211	14.25
400.418	14.27
400.625	14.13
400.831	14.11
401.038	14.09
401.245	13.94
401.452	13.77
401.658	13.76
401.865	13.75
402.072	13.73
402.279	13.75
402.485	13.69
402.692	13.56
402.899	13.62
403.105	13.66
403.312	13.65
403.519	13.75
403.725	13.88
403.932	13.81
404.138	13.78
404.345	13.69
404.552	13.67
404.758	13.75
404.965	13.81
405.171	13.71
405.378	13.63
405.584	13.62
405.791	13.56
405.997	13.5
406.204	13.42
406.41	13.39
406.617	13.4
406.823	13.38
407.029	13.3
407.236	13.26
407.442	13.34
407.649	13.44
407.855	13.38
408.061	13.43
408.268	13.36
408.474	13.32
408.68	13.31
408.887	13.28
409.093	13.28
409.299	13.31
409.505	13.31
409.712	13.29
409.918	13.21
410.124	13.27
410.33	13.22
410.537	13.17
410.743	13.17
410.949	13.17
411.155	13.23
411.361	13.23
411.567	13.16
411.773	13.08
411.98	12.99
412.186	12.86
412.392	12.76
412.598	12.75
412.804	12.81
413.01	12.84
413.216	12.78
413.422	12.72
413.628	12.74
413.834	12.69
414.04	12.77
414.246	12.8
414.452	12.86
414.658	12.88
414.864	12.82
415.07	12.73
415.275	12.7
415.481	12.65
415.687	12.6
415.893	12.51
416.099	12.48
416.305	12.41
416.511	12.42
416.716	12.41
416.922	12.38
417.128	12.33
417.334	12.37
417.539	12.33
417.745	12.31
417.951	12.35
418.157	12.35
418.362	12.35
418.568	12.34
418.774	12.31
418.979	12.25
419.185	12.19
419.391	12.19
419.596	12.17
419.802	12.17
420.008	12.2
420.213	12.12
420.419	12.1
420.624	12.1
420.83	12.07
421.035	12.03
421.241	12.06
421.446	12.12
421.652	12.13
421.857	12.09
422.063	12.07
422.268	12.01
422.474	11.99
422.679	11.97
422.885	11.98
423.09	11.99
423.295	11.98
423.501	11.96
423.706	11.89
423.911	11.87
424.117	11.82
424.322	11.8
424.527	11.78
424.733	11.8
424.938	11.82
425.143	11.81
425.349	11.79
425.554	11.82
425.759	11.82
425.964	11.87
426.169	11.84
426.375	11.93
426.58	11.94
426.785	12.01
426.99	12.02
427.195	11.95
427.4	11.93
427.605	11.95
427.811	11.9
428.016	11.92
428.221	11.88
428.426	11.88
428.631	11.83
428.836	11.82
429.041	11.73
429.246	11.72
429.451	11.75
429.656	11.67
429.861	11.67
430.066	11.66
430.271	11.6
430.476	11.59
430.681	11.53
430.886	11.56
431.09	11.62
431.295	11.65
431.5	11.66
431.705	11.68
431.91	11.73
432.115	11.72
432.32	11.73
432.524	11.75
432.729	11.69
432.934	11.71
433.139	11.69
433.343	11.66
433.548	11.69
433.753	11.69
433.958	11.7
434.162	11.68
434.367	11.66
434.572	11.63
434.776	11.64
434.981	11.7
435.186	11.7
435.39	11.69
435.595	11.69
435.799	11.62
436.004	11.62
436.209	11.61
436.413	11.61
436.618	11.59
436.822	11.58
437.027	11.56
437.231	11.53
437.436	11.52
437.64	11.48
437.845	11.48
438.049	11.48
438.253	11.42
438.458	11.4
438.662	11.43
438.867	11.39
439.071	11.38
439.275	11.37
439.48	11.43
439.684	11.45
439.888	11.47
440.093	11.46
440.297	11.46
440.501	11.49
440.706	11.49
440.91	11.51
441.114	11.54
441.318	11.56
441.523	11.58
441.727	11.55
441.931	11.58
442.135	11.61
442.339	11.59
442.543	11.62
442.748	11.6
442.952	11.61
443.156	11.55
443.36	11.59
443.564	11.56
443.768	11.55
443.972	11.48
444.176	11.4
444.38	11.35
444.584	11.34
444.788	11.31
444.992	11.28
445.196	11.22
445.4	11.22
445.604	11.17
445.808	11.19
446.012	11.18
446.216	11.19
446.42	11.17
446.624	11.21
446.828	11.22
447.032	11.22
447.235	11.24
447.439	11.27
447.643	11.28
447.847	11.29
448.051	11.24
448.254	11.24
448.458	11.25
448.662	11.31
448.866	11.26
449.069	11.26
449.273	11.3
449.477	11.37
449.681	11.36
449.884	11.37
450.088	11.4
450.292	11.44
450.495	11.41
450.699	11.42
450.902	11.39
451.106	11.38
451.31	11.35
451.513	11.32
451.717	11.23
451.92	11.24
452.124	11.19
452.327	11.19
452.531	11.19
452.734	11.22
452.938	11.19
453.141	11.19
453.345	11.21
453.548	11.19
453.752	11.19
453.955	11.15
454.158	11.12
454.362	11.11
454.565	11.06
454.769	11.01
454.972	10.97
455.175	10.92
455.379	10.9
455.582	10.88
455.785	10.89
455.988	10.91
456.192	10.94
456.395	10.9
456.598	10.93
456.801	10.92
457.005	10.96
457.208	10.98
457.411	10.98
457.614	10.98
457.817	10.96
458.021	10.92
458.224	10.92
458.427	10.94
458.63	10.99
458.833	11.01
459.036	11.03
459.239	11
459.442	10.96
459.645	11.01
459.848	11.04
460.051	11.04
460.254	11.05
460.457	11.01
460.66	11.01
460.863	11
461.066	11.01
461.269	11.02
461.472	11.05
461.675	11.09
461.878	11.12
462.081	11.11
462.284	11.13
462.486	11.17
462.689	11.18
462.892	11.22
463.095	11.2
463.298	11.14
463.5	11.14
463.703	11.12
463.906	11.13
464.109	11.06
464.311	11.08
464.514	11.11
464.717	11.11
464.92	11.16
465.122	11.18
465.325	11.25
465.528	11.27
465.73	11.24
465.933	11.22
466.135	11.25
466.338	11.29
466.541	11.23
466.743	11.23
466.946	11.24
467.148	11.22
467.351	11.16
467.553	11.15
467.756	11.2
467.958	11.27
468.161	11.32
468.363	11.25
468.566	11.21
468.768	11.2
468.971	11.19
469.173	11.19
469.375	11.16
469.578	11.25
469.78	11.19
469.983	11.19
470.185	11.16
470.387	11.17
470.59	11.19
470.792	11.25
470.994	11.31
471.196	11.32
471.399	11.29
471.601	11.3
471.803	11.24
472.005	11.27
472.208	11.25
472.41	11.23
472.612	11.23
472.814	11.27
473.016	11.25
473.218	11.29
473.421	11.28
473.623	11.31
473.825	11.34
474.027	11.35
474.229	11.35
474.431	11.33
474.633	11.31
474.835	11.27
475.037	11.27
475.239	11.25
475.441	11.24
475.643	11.23
475.845	11.24
476.047	11.24
476.249	11.22
476.451	11.21
476.653	11.24
476.855	11.26
477.057	11.28
477.258	11.27
477.46	11.31
477.662	11.29
477.864	11.3
478.066	11.33
478.268	11.37
478.469	11.38
478.671	11.37
478.873	11.32
479.075	11.34
479.276	11.32
479.478	11.34
479.68	11.28
479.882	11.28
480.083	11.3
480.285	11.24
480.487	11.21
480.688	11.17
480.89	11.22
481.091	11.21
481.293	11.18
481.495	11.17
481.696	11.1
481.898	11.08
482.099	11.04
482.301	11.01
482.502	11.01
482.704	10.99
482.905	10.98
483.107	10.95
483.308	10.97
483.51	10.95
483.711	10.96
483.913	10.98
484.114	11
484.315	11.02
484.517	11.04
484.718	11.04
484.92	11.05
485.121	11.07
485.322	11.08
485.524	11.07
485.725	11.08
485.926	11.05
486.127	11.04
486.329	11.02
486.53	11
486.731	10.98
486.932	10.98
487.134	10.96
487.335	10.97
487.536	10.97
487.737	10.99
487.938	10.99
488.139	11
488.341	11.03
488.542	11.04
488.743	11.06
488.944	11.05
489.145	11.08
489.346	11.08
489.547	11.09
489.748	11.09
489.949	11.08
490.15	11.09
490.351	11.12
490.552	11.13
490.753	11.14
490.954	11.13
491.155	11.16
491.356	11.15
491.557	11.17
491.758	11.19
491.959	11.22
492.159	11.21
492.36	11.23
492.561	11.27
492.762	11.27
492.963	11.31
493.164	11.34
493.364	11.36
493.565	11.38
493.766	11.43
493.967	11.43
494.167	11.46
494.368	11.51
494.569	11.52
494.769	11.51
494.97	11.57
495.171	11.57
495.371	11.57
495.572	11.61
495.773	11.67
495.973	11.64
496.174	11.64
496.375	11.67
496.575	11.67
496.776	11.67
496.976	11.7
497.177	11.7
497.377	11.71
497.578	11.78
497.778	11.75
497.979	11.76
498.179	11.87
498.38	11.92
498.58	11.94
498.78	12.01
498.981	12.07
499.181	12.15
499.382	12.18
499.582	12.25
499.782	12.31
499.983	12.36
500.183	12.39
500.383	12.39
500.584	12.41
500.784	12.45
500.984	12.48
501.184	12.54
501.385	12.54
501.585	12.57
501.785	12.59
501.985	12.61
502.185	12.63
502.386	12.66
502.586	12.72
502.786	12.78
502.986	12.82
503.186	12.85
503.386	12.9
503.586	12.98
503.786	13.03
503.987	13.07
504.187	13.13
504.387	13.28
504.587	13.36
504.787	13.42
504.987	13.48
505.187	13.5
505.387	13.62
505.587	13.63
505.786	13.69
505.986	13.73
506.186	13.8
506.386	13.84
506.586	13.86
506.786	13.94
506.986	13.98
507.186	14.01
507.386	14.09
507.585	14.13
507.785	14.2
507.985	14.21
508.185	14.3
508.384	14.39
508.584	14.43
508.784	14.51
508.984	14.58
509.183	14.67
509.383	14.81
509.583	14.9
509.782	15.01
509.982	15.09
510.182	15.17
510.381	15.26
510.581	15.32
510.781	15.4
510.98	15.42
511.18	15.46
511.379	15.53
511.579	15.59
511.778	15.64
511.978	15.66
512.177	15.73
512.377	15.86
512.576	15.9
512.776	15.99
512.975	16.08
513.175	16.26
513.374	16.35
513.573	16.42
513.773	16.5
513.972	16.58
514.172	16.69
514.371	16.79
514.57	16.78
514.77	16.94
514.969	17
515.168	17.1
515.367	17.16
515.567	17.26
515.766	17.33
515.965	17.43
516.164	17.54
516.364	17.62
516.563	17.73
516.762	17.88
516.961	17.96
517.16	18.07
517.359	18.17
517.559	18.23
517.758	18.34
517.957	18.49
518.156	18.57
518.355	18.66
518.554	18.75
518.753	18.82
518.952	18.9
519.151	18.99
519.35	19.08
519.549	19.17
519.748	19.29
519.947	19.36
520.146	19.41
520.345	19.47
520.544	19.58
520.743	19.71
520.942	19.81
521.141	19.91
521.339	19.97
521.538	20.04
521.737	20.11
521.936	20.17
522.135	20.27
522.333	20.37
522.532	20.48
522.731	20.56
522.93	20.66
523.129	20.78
523.327	20.84
523.526	20.93
523.725	21.06
523.923	21.18
524.122	21.27
524.321	21.35
524.519	21.42
524.718	21.48
524.917	21.56
525.115	21.61
525.314	21.67
525.512	21.73
525.711	21.87
525.909	21.93
526.108	22
526.306	22.09
526.505	22.14
526.703	22.22
526.902	22.3
527.1	22.33
527.299	22.41
527.497	22.47
527.696	22.53
527.894	22.56
528.092	22.61
528.291	22.66
528.489	22.7
528.688	22.78
528.886	22.83
529.084	22.9
529.283	23
529.481	23.07
529.679	23.15
529.877	23.26
530.076	23.35
530.274	23.46
530.472	23.58
530.67	23.71
530.869	23.79
531.067	23.85
531.265	23.92
531.463	23.99
531.661	24.05
531.859	24.09
532.057	24.16
532.255	24.2
532.454	24.22
532.652	24.23
532.85	24.26
533.048	24.31
533.246	24.37
533.444	24.44
533.642	24.49
533.84	24.52
534.038	24.58
534.236	24.67
534.434	24.74
534.632	24.82
534.83	24.9
535.027	24.95
535.225	25.02
535.423	25.1
535.621	25.12
535.819	25.14
536.017	25.21
536.215	25.3
536.412	25.3
536.61	25.37
536.808	25.41
537.006	25.48
537.203	25.55
537.401	25.59
537.599	25.63
537.797	25.69
537.994	25.78
538.192	25.9
538.39	25.96
538.587	26.01
538.785	26.05
538.983	26.11
539.18	26.15
539.378	26.19
539.575	26.26
539.773	26.29
539.97	26.33
540.168	26.36
540.366	26.37
540.563	26.36
540.761	26.41
540.958	26.44
541.155	26.49
541.353	26.56
541.55	26.57
541.748	26.61
541.945	26.67
542.143	26.72
542.34	26.79
542.537	26.84
542.735	26.92
542.932	27.02
543.129	27.07
543.327	27.16
543.524	27.21
543.721	27.31
543.919	27.35
544.116	27.4
544.313	27.46
544.51	27.51
544.708	27.57
544.905	27.61
545.102	27.62
545.299	27.66
545.496	27.7
545.693	27.7
545.891	27.74
546.088	27.82
546.285	27.87
546.482	27.85
546.679	27.88
546.876	27.92
547.073	27.96
547.27	28.02
547.467	28.04
547.664	28.07
547.861	28.16
548.058	28.21
548.255	28.25
548.452	28.29
548.649	28.45
548.846	28.51
549.043	28.56
549.24	28.63
549.437	28.64
549.633	28.72
549.83	28.77
550.027	28.76
550.224	28.79
550.421	28.84
550.618	28.9
550.814	28.96
551.011	28.98
551.208	29.1
551.405	29.12
551.601	29.11
551.798	29.18
551.995	29.19
552.191	29.21
552.388	29.2
552.585	29.22
552.781	29.18
552.978	29.13
553.175	29.15
553.371	29.07
553.568	29.12
553.764	29.23
553.961	29.3
554.157	29.38
554.354	29.48
554.55	29.59
554.747	29.6
554.943	29.67
555.14	29.79
555.336	29.87
555.533	29.96
555.729	29.99
555.926	30.01
556.122	29.99
556.318	29.97
556.515	29.99
556.711	29.99
556.907	30.05
557.104	30.04
557.3	30.01
557.496	30.1
557.693	30.12
557.889	30.15
558.085	30.18
558.281	30.24
558.478	30.21
558.674	30.22
558.87	30.24
559.066	30.21
559.262	30.28
559.459	30.26
559.655	30.24
559.851	30.25
560.047	30.29
560.243	30.29
560.439	30.25
560.635	30.32
560.831	30.32
561.027	30.29
561.223	30.37
561.419	30.37
561.615	30.46
561.811	30.44
562.007	30.45
562.203	30.46
562.399	30.5
562.595	30.53
562.791	30.55
562.987	30.61
563.183	30.71
563.379	30.76
563.575	30.85
563.771	30.9
563.966	31
564.162	31.04
564.358	31.07
564.554	31.08
564.75	31.16
564.945	31.23
565.141	31.28
565.337	31.33
565.533	31.37
565.728	31.38
565.924	31.38
566.12	31.42
566.315	31.5
566.511	31.5
566.707	31.57
566.902	31.55
567.098	31.55
567.293	31.56
567.489	31.6
567.684	31.57
567.88	31.58
568.076	31.59
568.271	31.57
568.467	31.53
568.662	31.6
568.858	31.58
569.053	31.67
569.248	31.69
569.444	31.67
569.639	31.66
569.835	31.69
570.03	31.74
570.225	31.74
570.421	31.77
570.616	31.78
570.812	31.76
571.007	31.78
571.202	31.8
571.397	31.82
571.593	31.84
571.788	31.85
571.983	31.86
572.178	31.85
572.374	31.87
572.569	31.88
572.764	31.88
572.959	31.94
573.154	31.93
573.35	31.87
573.545	31.88
573.74	31.89
573.935	31.92
574.13	31.98
574.325	31.96
574.52	31.93
574.715	31.92
574.91	31.92
575.105	31.94
575.3	32.03
575.495	32.07
575.69	32.1
575.885	32.16
576.08	32.13
576.275	32.12
576.47	32.17
576.665	32.2
576.86	32.25
577.055	32.32
577.25	32.34
577.444	32.35
577.639	32.43
577.834	32.47
578.029	32.49
578.224	32.51
578.418	32.51
578.613	32.47
578.808	32.57
579.003	32.57
579.197	32.58
579.392	32.58
579.587	32.54
579.781	32.48
579.976	32.45
580.171	32.45
580.365	32.51
580.56	32.54
580.755	32.61
580.949	32.6
581.144	32.6
581.338	32.57
581.533	32.55
581.727	32.51
581.922	32.55
582.116	32.6
582.311	32.63
582.505	32.58
582.7	32.66
582.894	32.69
583.089	32.69
583.283	32.72
583.478	32.82
583.672	32.88
583.866	32.91
584.061	32.93
584.255	32.98
584.449	33
584.644	33.05
584.838	32.99
585.032	33.01
585.226	33.02
585.421	33.02
585.615	32.99
585.809	33.01
586.003	33.03
586.198	33.05
586.392	33.05
586.586	33.03
586.78	33.1
586.974	33.12
587.168	33.16
587.363	33.16
587.557	33.16
587.751	33.2
587.945	33.21
588.139	33.23
588.333	33.28
588.527	33.29
588.721	33.31
588.915	33.26
589.109	33.26
589.303	33.22
589.497	33.32
589.691	33.33
589.885	33.36
590.079	33.32
590.273	33.38
590.466	33.35
590.66	33.34
590.854	33.32
591.048	33.33
591.242	33.37
591.436	33.43
591.629	33.42
591.823	33.51
592.017	33.53
592.211	33.59
592.404	33.58
592.598	33.61
592.792	33.67
592.986	33.77
593.179	33.81
593.373	33.82
593.567	33.79
593.76	33.79
593.954	33.68
594.147	33.66
594.341	33.63
594.535	33.69
594.728	33.64
594.922	33.61
595.115	33.61
595.309	33.62
595.502	33.64
595.696	33.64
595.889	33.62
596.083	33.64
596.276	33.61
596.47	33.66
596.663	33.61
596.856	33.7
597.05	33.75
597.243	33.7
597.437	33.7
597.63	33.74
597.823	33.75
598.017	33.81
598.21	33.93
598.403	34.01
598.596	34
598.79	34.08
598.983	34.1
599.176	34.02
599.369	34.09
599.563	34.11
599.756	34.08
599.949	34.12
600.142	34.1
600.335	34.13
600.528	34.14
600.722	34.17
600.915	34.08
601.108	34.06
601.301	34.16
601.494	34.25
601.687	34.27
601.88	34.27
602.073	34.24
602.266	34.25
602.459	34.21
602.652	34.18
602.845	34.12
603.038	34.16
603.231	34.16
603.424	34.16
603.617	34.07
603.809	34.03
604.002	34.04
604.195	34.02
604.388	34.03
604.581	33.97
604.774	33.97
604.966	34.07
605.159	34.06
605.352	34.1
605.545	34.07
605.737	34.13
605.93	34.17
606.123	34.1
606.316	34.2
606.508	34.29
606.701	34.37
606.894	34.41
607.086	34.38
607.279	34.38
607.471	34.37
607.664	34.33
607.857	34.35
608.049	34.37
608.242	34.46
608.434	34.47
608.627	34.46
608.819	34.42
609.012	34.55
609.204	34.6
609.397	34.65
609.589	34.7
609.782	34.78
609.974	34.86
610.166	34.9
610.359	34.97
610.551	34.99
610.743	35.02
610.936	35.1
611.128	35
611.32	34.98
611.513	34.96
611.705	35.01
611.897	35.07
612.09	35.04
612.282	35.07
612.474	35
612.666	35.12
612.858	34.99
613.051	35
613.243	34.95
613.435	35.04
613.627	35.11
613.819	35.08
614.011	34.96
614.203	34.82
614.395	34.81
614.588	34.76
614.78	34.69
614.972	34.7
615.164	34.66
615.356	34.66
615.548	34.57
615.74	34.5
615.932	34.4
616.124	34.42
616.315	34.42
616.507	34.41
616.699	34.47
616.891	34.42
617.083	34.5
617.275	34.56
617.467	34.53
617.659	34.52
617.85	34.48
618.042	34.48
618.234	34.53
618.426	34.53
618.618	34.47
618.809	34.46
619.001	34.46
619.193	34.38
619.384	34.35
619.576	34.42
619.768	34.41
619.959	34.44
620.151	34.43
620.343	34.36
620.534	34.43
620.726	34.5
620.917	34.57
621.109	34.55
621.301	34.61
621.492	34.66
621.684	34.56
621.875	34.54
622.067	34.59
622.258	34.63
622.45	34.76
622.641	34.72
622.832	34.72
623.024	34.68
623.215	34.72
623.407	34.81
623.598	34.8
623.789	34.89
623.981	34.87
624.172	34.9
624.363	34.89
624.555	34.82
624.746	34.84
624.937	34.81
625.129	34.77
625.32	34.73
625.511	34.71
625.702	34.62
625.893	34.67
626.085	34.76
626.276	34.79
626.467	34.74
626.658	34.78
626.849	34.81
627.04	34.86
627.231	34.92
627.422	34.97
627.614	34.95
627.805	35.07
627.996	34.96
628.187	34.95
628.378	34.94
628.569	34.97
628.76	34.89
628.951	34.91
629.142	34.82
629.332	34.78
629.523	34.77
629.714	34.77
629.905	34.68
630.096	34.78
630.287	34.75
630.478	34.72
630.669	34.78
630.859	34.74
631.05	34.71
631.241	34.85
631.432	34.85
631.623	34.85
631.813	34.79
632.004	34.87
632.195	34.84
632.385	34.81
632.576	34.79
632.767	34.74
632.957	34.89
633.148	34.86
633.339	34.72
633.529	34.74
633.72	34.76
633.91	34.8
634.101	34.8
634.292	34.8
634.482	34.77
634.673	34.79
634.863	34.77
635.054	34.65
635.244	34.74
635.435	34.83
635.625	34.83
635.815	34.79
636.006	34.81
636.196	34.82
636.387	34.89
636.577	34.92
636.767	34.93
636.958	34.94
637.148	34.92
637.338	34.85
637.529	34.85
637.719	34.83
637.909	34.81
638.099	34.85
638.29	34.74
638.48	34.81
638.67	34.92
638.86	34.93
639.05	35.02
639.241	35.02
639.431	35.08
639.621	35.06
639.811	35.14
640.001	35.07
640.191	35.02
640.381	35.02
640.571	34.83
640.761	34.76
640.951	34.7
641.141	34.62
641.331	34.63
641.521	34.57
641.711	34.54
641.901	34.46
642.091	34.54
642.281	34.52
642.471	34.57
642.661	34.6
642.851	34.58
643.041	34.64
643.231	34.71
643.42	34.85
643.61	34.79
643.8	34.75
643.99	34.77
644.18	34.66
644.369	34.64
644.559	34.62
644.749	34.63
644.939	34.61
645.128	34.56
645.318	34.44
645.508	34.41
645.697	34.44
645.887	34.55
646.076	34.53
646.266	34.62
646.456	34.63
646.645	34.65
646.835	34.57
647.024	34.57
647.214	34.68
647.403	34.77
647.593	34.84
647.782	34.86
647.972	34.73
648.161	34.76
648.351	34.79
648.54	34.8
648.73	34.73
648.919	34.91
649.108	34.91
649.298	34.79
649.487	34.75
649.677	34.72
649.866	34.67
650.055	34.77
650.244	34.84
650.434	34.85
650.623	34.88
650.812	35.02
651.002	34.96
651.191	35.02
651.38	35.01
651.569	35.08
651.758	35.04
651.947	35.11
652.137	35.08
652.326	34.95
652.515	34.91
652.704	34.85
652.893	34.74
653.082	34.73
653.271	34.77
653.46	34.83
653.649	34.84
653.838	34.85
654.027	34.87
654.216	34.88
654.405	34.95
654.594	34.99
654.783	35.01
654.972	35.01
655.161	34.9
655.35	34.96
655.539	34.92
655.728	34.89
655.916	34.88
656.105	34.91
656.294	34.89
656.483	34.75
656.672	34.71
656.86	34.78
657.049	34.8
657.238	34.87
657.427	34.77
657.615	34.83
657.804	34.81
657.993	34.81
658.181	34.77
658.37	34.81
658.559	34.84
658.747	34.89
658.936	34.87
659.125	34.9
659.313	34.95
659.502	34.92
659.69	34.89
659.879	34.83
660.067	34.93
660.256	34.85
660.444	34.87
660.633	35.03
660.821	35
661.01	34.99
661.198	34.99
661.387	35.03
661.575	35.08
661.763	35.02
661.952	35.11
662.14	35.08
662.328	35.17
662.517	35.05
662.705	34.9
662.893	34.93
663.082	34.94
663.27	34.84
663.458	34.71
663.646	34.7
663.834	34.72
664.023	34.71
664.211	34.59
664.399	34.55
664.587	34.72
664.775	34.63
664.963	34.59
665.152	34.56
665.34	34.68
665.528	34.67
665.716	34.79
665.904	34.76
666.092	34.86
666.28	34.94
666.468	35.04
666.656	34.94
666.844	35
667.032	35.01
667.22	35.02
667.408	34.93
667.596	35.06
667.784	35.02
667.971	35.01
668.159	34.93
668.347	34.95
668.535	34.83
668.723	34.84
668.911	35.08
669.098	35
669.286	35.04
669.474	35.16
669.662	35.02
669.849	34.88
670.037	34.95
670.225	34.93
670.413	34.82
670.6	34.99
670.788	34.93
670.976	34.79
671.163	34.79
671.351	34.73
671.538	34.63
671.726	34.73
671.913	34.71
672.101	34.61
672.289	34.67
672.476	34.8
672.664	34.65
672.851	34.65
673.039	34.53
673.226	34.5
673.413	34.61
673.601	34.63
673.788	34.62
673.976	34.73
674.163	34.87
674.35	34.85
674.538	34.75
674.725	34.84
674.912	34.98
675.1	35
675.287	35
675.474	34.9
675.662	35.02
675.849	34.95
676.036	35.03
676.223	35.01
676.411	34.99
676.598	34.93
676.785	34.85
676.972	34.87
677.159	35.01
677.346	35.11
677.533	35.2
677.721	35.12
677.908	35.16
678.095	34.99
678.282	35.04
678.469	35.16
678.656	35.22
678.843	35.23
679.03	35.16
679.217	35.14
679.404	35.07
679.591	35.12
679.778	35.15
679.964	35.14
680.151	35.24
680.338	35.21
680.525	35.12
680.712	35.09
680.899	35.13
681.086	35.1
681.272	35.03
681.459	35.21
681.646	35.21
681.833	35.13
682.02	35.1
682.206	35.02
682.393	34.99
682.58	34.94
682.766	35.01
682.953	35.06
683.14	35.09
683.326	35.15
683.513	35.1
683.7	35.08
683.886	35.15
684.073	35.18
684.259	35.26
684.446	35.21
684.632	35.2
684.819	35.14
685.005	35.15
685.192	35.25
685.378	35.21
685.565	35.12
685.751	34.92
685.938	35.04
686.124	35.04
686.31	34.96
686.497	35.05
686.683	35.21
686.87	35.22
687.056	35.08
687.242	34.93
687.429	35.05
687.615	35.09
687.801	35.28
687.987	35.08
688.174	35.1
688.36	35.2
688.546	35.25
688.732	35.17
688.918	35.08
689.105	35.15
689.291	35.17
689.477	35
689.663	35.01
689.849	34.9
690.035	35.02
690.221	35.07
690.407	34.99
690.593	34.91
690.779	34.95
690.965	35.01
691.151	35.13
691.337	35.24
691.523	35.23
691.709	35.1
691.895	35.09
692.081	34.97
692.267	34.89
692.453	34.9
692.639	34.89
692.825	34.87
693.011	34.81
693.196	34.67
693.382	34.59
693.568	34.62
693.754	34.73
693.94	34.63
694.125	34.77
694.311	34.76
694.497	34.86
694.682	34.84
694.868	34.9
695.054	34.99
695.239	34.97
695.425	34.9
695.611	34.89
695.796	34.94
695.982	35.04
696.168	34.98
696.353	34.93
696.539	34.89
696.724	34.89
696.91	34.91
697.095	34.9
697.281	34.99
697.466	35.05
697.652	35.07
697.837	35.04
698.023	35.03
698.208	35.1
698.393	35.18
698.579	35.18
698.764	35.13
698.949	35.02
699.135	34.96
699.32	34.91
699.505	34.94
699.691	34.89
699.876	34.84
700.061	34.94
700.246	34.83
700.432	34.7
700.617	34.76
700.802	34.98
700.987	34.95
701.172	35.02
701.358	34.95
701.543	35.03
701.728	35.12
701.913	35.2
702.098	35.19
702.283	35.29
702.468	35.47
702.653	35.43
702.838	35.31
703.023	35.48
703.208	35.47
703.393	35.49
703.578	35.38
703.763	35.34
703.948	35.27
704.133	35.18
704.318	34.97
704.503	34.87
704.688	34.89
704.873	34.78
705.057	34.81
705.242	34.71
705.427	34.83
705.612	34.94
705.797	34.93
705.981	34.93
706.166	34.95
706.351	35.1
706.536	35.22
706.72	35.08
706.905	35.13
707.09	35.12
707.274	35.18
707.459	35.02
707.644	34.9
707.828	35
708.013	34.97
708.197	34.9
708.382	34.9
708.567	34.83
708.751	34.91
708.936	34.85
709.12	34.8
709.305	34.78
709.489	34.76
709.673	34.85
709.858	34.81
710.042	34.73
710.227	34.73
710.411	34.58
710.596	34.65
710.78	34.6
710.964	34.6
711.149	34.58
711.333	34.78
711.517	34.82
711.702	34.89
711.886	34.84
712.07	34.95
712.254	35.14
712.438	35.27
712.623	35.2
712.807	35.23
712.991	35.2
713.175	35.17
713.359	35.14
713.544	35.26
713.728	35.05
713.912	35.03
714.096	35
714.28	34.76
714.464	34.75
714.648	34.72
714.832	34.77
715.016	34.7
715.2	34.57
715.384	34.35
715.568	34.36
715.752	34.52
715.936	34.69
716.12	34.66
716.304	34.69
716.488	34.63
716.671	34.58
716.855	34.4
717.039	34.55
717.223	34.66
717.407	34.72
717.59	34.64
717.774	34.32
717.958	34.22
718.142	34.37
718.325	34.53
718.509	34.43
718.693	34.35
718.877	34.45
719.06	34.48
719.244	34.22
719.428	34.35
719.611	34.45
719.795	34.49
719.978	34.36
720.162	34.19
720.345	34.12
720.529	34.18
720.713	34.53
720.896	34.51
721.08	34.48
721.263	34.6
721.446	34.4
721.63	34.33
721.813	34.41
721.997	34.37
722.18	34.34
722.364	34.36
722.547	34.37
722.73	34.18
722.914	34.12
723.097	33.89
723.28	34.07
723.464	34.13
723.647	34.21
723.83	34.29
724.013	34.38
724.197	34.48
724.38	34.44
724.563	34.39
724.746	34.51
724.929	34.58
725.112	34.66
725.296	34.59
725.479	34.65
725.662	34.42
725.845	34.48
726.028	34.4
726.211	34.31
726.394	34.43
726.577	34.26
726.76	34.11
726.943	34.01
727.126	33.85
727.309	33.86
727.492	33.89
727.675	33.95
727.858	33.92
728.041	34.02
728.224	34.09
728.407	34.19
728.589	34.31
728.772	34.59
728.955	34.88
729.138	35.19
729.321	35.21
729.503	35.31
729.686	35.36
729.869	35.4
730.052	35.5
730.234	35.48
730.417	35.4
730.6	35.54
730.782	35.31
730.965	35.15
731.148	35.12
731.33	35.18
731.513	35.03
731.695	35.02
731.878	34.91
732.061	34.83
732.243	34.68
732.426	34.69
732.608	34.55
732.791	34.54
732.973	34.64
733.156	34.59
733.338	34.53
733.52	34.58
733.703	34.45
733.885	34.5
734.068	34.5
734.25	34.65
734.432	34.45
734.615	34.54
734.797	34.58
734.979	34.31
735.162	34.16
735.344	34.17
735.526	34.23
735.708	34.34
735.891	34.28
736.073	34.14
736.255	34.12
736.437	34.11
736.619	33.99
736.802	33.83
736.984	34.03
737.166	34.28
737.348	34.12
737.53	34.1
737.712	33.82
737.894	33.97
738.076	33.96
738.258	33.98
738.44	33.93
738.622	34.06
738.804	34.24
738.986	34.26
739.168	34.23
739.35	34.44
739.532	34.29
739.714	34.53
739.896	34.48
740.078	34.38
740.259	34.57
740.441	34.57
740.623	34.75
740.805	34.74
740.987	34.72
741.168	34.57
741.35	34.26
741.532	34.47
741.714	34.22
741.895	34.17
742.077	34.56
742.259	34.37
742.44	34.36
742.622	34.13
742.804	34.05
742.985	34.07
743.167	34.28
743.348	34.44
743.53	34.33
743.711	34.47
743.893	34.2
744.075	33.92
744.256	33.63
744.438	33.94
744.619	33.68
744.8	33.46
744.982	33.32
745.163	33.27
745.345	33.23
745.526	33.26
745.707	33.2
745.889	33.52
746.07	33.47
746.252	33.69
746.433	33.41
746.614	33.78
746.795	34.13
746.977	34.12
747.158	33.93
747.339	33.93
747.52	33.81
747.702	34.05
747.883	34.01
748.064	34.07
748.245	34.19
748.426	34.15
748.607	34.04
748.788	33.62
748.97	33.51
749.151	33.65
749.332	33.79
749.513	34.01
749.694	33.73
749.875	33.65
750.056	33.81
750.237	33.74
750.418	33.57
750.599	33.52
750.78	33.89
750.96	34.25
751.141	34.16
751.322	34.27
751.503	33.94
751.684	34.06
751.865	33.94
752.046	33.79
752.226	33.58
752.407	33.48
752.588	33.56
752.769	33.53
752.949	33.29
753.13	33.44
753.311	33
753.492	32.83
753.672	32.92
753.853	33
754.034	33.41
754.214	33.49
754.395	33.5
754.575	33.52
754.756	33.28
754.937	32.88
755.117	32.74
755.298	33.07
755.478	33.46
755.659	33.68
755.839	33.67
756.02	33.21
756.2	33.28
756.381	33.31
756.561	33.2
756.741	33.49
756.922	33.82
757.102	34.07
757.283	33.97
757.463	33.91
757.643	33.65
757.823	33.39
758.004	33.29
758.184	33.49
758.364	33.68
758.545	33.7
758.725	33.48
758.905	33.47
759.085	33.23
759.265	33.42
759.446	33.41
759.626	33.6
759.806	33.77
759.986	34.25
760.166	34.05
760.346	34.11
760.526	33.99
760.706	33.95
760.886	33.77
761.066	33.84
761.246	33.69
761.426	33.72
761.606	33.44
761.786	33.54
761.966	33.32
762.146	33.47
762.326	33.31
762.506	33.51
762.686	33.62
762.866	33.87
763.046	33.8
763.225	33.87
763.405	33.98
763.585	34.04
763.765	34.06
763.945	34
764.124	33.84
764.304	34.15
764.484	34.16
764.664	33.92
764.843	33.7
765.023	33.83
765.203	33.71
765.382	33.61
765.562	33.57
765.741	33.71
765.921	33.68
766.101	33.81
766.28	33.85
766.46	33.54
766.639	33.87
766.819	33.74
766.998	33.65
767.178	33.79
767.357	33.68
767.537	33.84
767.716	33.44
767.896	33.45
768.075	33.42
768.254	33.13
768.434	33.64
768.613	33.34
768.792	33.6
768.972	33.74
769.151	33.59
769.33	33.79
769.51	33.8
769.689	34.01
769.868	34.25
770.047	34.27
770.226	34.1
770.406	33.94
770.585	34.02
770.764	33.9
770.943	33.39
771.122	33.4
771.301	33.21
771.48	33.32
771.66	33.24
771.839	32.82
772.018	32.68
772.197	32.92
772.376	32.56
772.555	32.55
772.734	33.01
772.913	33.3
773.092	33.14
773.271	33.09
773.449	32.79
773.628	32.85
773.807	33.08
773.986	33.19
774.165	32.81
774.344	32.96
774.523	32.94
774.701	32.58
774.88	32.63
775.059	33.05
775.238	33.08
775.417	32.99
775.595	32.88
775.774	32.88
775.953	32.66
776.131	32.75
776.31	32.75
776.489	32.88
776.667	32.69
776.846	32.8
777.025	32.56
777.203	32.54
777.382	32.71
777.56	32.32
777.739	32.21
777.917	31.94
778.096	31.78
778.274	31.73
778.453	32.21
778.631	32.13
778.81	31.94
778.988	31.95
779.166	32.09
779.345	32.11
779.523	32.45
779.702	32.47
779.88	32.95
780.058	33.01
780.237	33.03
780.415	32.87
780.593	33.34
780.771	33.22
780.95	33.15
781.128	32.96
781.306	32.98
781.484	33.43
781.662	33.34
781.841	33.31
782.019	33.55
782.197	33.79
782.375	33.64
782.553	33.68
782.731	34.08
782.909	34.53
783.087	34.26
783.265	34.34
783.443	34.46
783.621	34.62
783.799	34.84
783.977	34.92
784.155	34.6
784.333	34.55
784.511	34.13
784.689	33.79
784.867	33.66
785.045	33.48
785.223	33.25
785.4	32.23
785.578	32.3
785.756	32.15
785.934	32.09
786.112	32.15
786.289	32.02
786.467	31.95
786.645	32.08
786.823	31.68
787	31.94
787.178	32.12
787.356	32.54
787.533	33.1
787.711	33.14
787.889	33.82
788.066	33.77
788.244	33.77
788.421	34.14
788.599	34.48
788.776	34.47
788.954	34.52
789.131	34.07
789.309	33.99
789.486	33.37
789.664	33.56
789.841	32.61
790.019	32.37
790.196	32.32
790.373	31.69
790.551	30.85
790.728	30.91
790.906	31.01
791.083	30.79
791.26	31.02
791.437	30.56
791.615	30.16
791.792	30.6
791.969	30.92
792.146	31.52
792.324	32.06
792.501	32.38
792.678	32.49
792.855	32.57
793.032	33.34
793.209	33.11
793.387	34.04
793.564	34.18
793.741	33.89
793.918	33.79
794.095	33.35
794.272	32.84
794.449	32.59
794.626	32.71
794.803	32.57
794.98	32.16
795.157	32.47
795.334	32.12
795.511	31.87
795.688	31.94
795.864	32.13
796.041	32.55
796.218	32.55
796.395	33.07
796.572	32.75
796.749	32.56
796.925	32.89
797.102	32.73
797.279	32.47
797.456	32.95
797.632	32.91
797.809	32.98
797.986	32.59
798.162	33.48
798.339	33.7
798.516	33.65
798.692	34.03
798.869	33.88
799.046	33.36
799.222	33.73
799.399	33.11
799.575	33.36
799.752	33.1
799.928	32.75
800.105	31.83
800.281	31.16
800.458	31.57
800.634	31.53
800.811	31.34
800.987	31.43
801.163	31.04
801.34	30.8
801.516	30.99
801.692	31.28
801.869	31.35
802.045	31.85
802.221	32.16
802.398	31.8
802.574	31.9
802.75	32.04
802.926	32.37
803.103	32.32
803.279	33.19
803.455	32.61
803.631	32.61
803.807	32.15
803.983	32.21
804.16	32.21
804.336	31.69
804.512	31.11
804.688	31.72
804.864	31.94
805.04	32.39
805.216	31.39
805.392	30.84
805.568	30.05
805.744	31.09
805.92	31.09
806.096	30.81
806.272	31.55
806.448	31.69
806.623	30.91
806.799	31.67
806.975	31.34
807.151	32.04
807.327	32.25
807.503	32.81
807.678	32.97
807.854	32.82
808.03	33.28
808.206	33.46
808.381	33.69
808.557	33.52
808.733	32.66
808.908	32.7
809.084	32.15
809.26	32.36
809.435	32.81
809.611	32.74
809.787	32.27
809.962	30.89
810.138	30.48
810.313	30.13
810.489	30.65
810.664	30.52
810.84	29.99
811.015	31.08
811.191	30.73
811.366	29.87
811.542	29.48
811.717	30.03
811.892	31.15
812.068	31.42
812.243	31.75
812.419	31.94
812.594	32.28
812.769	32.99
812.944	32.43
813.12	31.95
813.295	32.18
813.47	32.1
813.645	31.88
813.821	31.94
813.996	31.81
814.171	31.79
814.346	31.75
814.521	31.68
814.697	31.36
814.872	31.04
815.047	31.96
815.222	31.98
815.397	32.14
815.572	32.35
815.747	32.66
815.922	32.33
816.097	32.18
816.272	31.67
816.447	31.41
816.622	32.22
816.797	32.24
816.972	32.15
817.147	32.43
817.322	32.11
817.496	31.76
817.671	31.4
817.846	31.51
818.021	31.22
818.196	31.7
818.371	32.22
818.545	32.22
818.72	32.93
818.895	33.32
819.069	33.32
819.244	33.1
819.419	33.24
819.594	33.8
819.768	33.68
819.943	33.76
820.117	33.54
820.292	33.44
820.467	33.41
820.641	33.47
820.816	33.54
820.99	33.42
821.165	33.53
821.339	33.57
821.514	33.32
821.688	33.45
821.863	33.47
822.037	33.6
822.212	33.46
822.386	33.31
822.56	33.22
822.735	33.11
822.909	33.12
823.084	32.96
823.258	32.99
823.432	33.07
823.606	32.98
823.781	33
823.955	32.71
824.129	32.86
824.303	32.93
824.478	32.85
824.652	32.83
824.826	32.66
825	32.91
825.174	32.64
825.348	32.54
825.523	32.68
825.697	32.44
825.871	32.45
826.045	32.7
826.219	32.65
826.393	32.61
826.567	32.67
826.741	32.9
826.915	32.88
827.089	32.76
827.263	32.86
827.437	32.72
827.611	32.98
827.784	32.98
827.958	32.85
828.132	33.06
828.306	32.83
828.48	32.86
828.654	32.9
828.827	32.46
829.001	32.82
829.175	32.4
829.349	32.38
829.522	32.47
829.696	32.77
829.87	32.23
830.044	31.4
830.217	32.02
830.391	31.63
830.565	31.9
830.738	32.67
830.912	32.41
831.085	32.14
831.259	32.11
831.432	31.4
831.606	31.27
831.779	31.47
831.953	31.8
832.126	31.85
832.3	31.97
832.473	31.42
832.647	31.18
832.82	31.04
832.994	31.51
833.167	31.51
833.34	31.5
833.514	31.61
833.687	31.51
833.86	31.22
834.034	31.2
834.207	31
834.38	30.81
834.553	31.44
834.727	31.62
834.9	31.49
835.073	31.28
835.246	30.99
835.419	30.69
835.593	30.98
835.766	31.35
835.939	31.01
836.112	31.06
836.285	30.98
836.458	30.03
836.631	29.83
836.804	29.11
836.977	29.14
837.15	29.62
837.323	28.47
837.496	27.22
837.669	26.93
837.842	26.68
838.015	26.65
838.188	27.01
838.361	27.01
838.533	26.34
838.706	26.14
838.879	25.83
839.052	25.68
839.225	27.27
839.398	27.69
839.57	27.25
839.743	26.55
839.916	26.95
840.088	26.91
840.261	26.64
840.434	27.55
840.607	27.87
840.779	28.2
840.952	28.65
841.124	28.18
841.297	28.45
841.47	28.33
841.642	28.66
841.815	27.26
841.987	27.25
842.16	26.92
842.332	25.44
842.505	26.22
842.677	26.56
842.85	26.89
843.022	26.81
843.194	26.08
843.367	27.55
843.539	27.84
843.712	28.18
843.884	28.67
844.056	28.23
844.229	27.88
844.401	28.2
844.573	27.95
844.745	27.62
844.918	27.36
845.09	28.05
845.262	25.85
845.434	26.64
845.606	25.45
845.779	24.27
845.951	27.14
846.123	29.65
846.295	27.38
846.467	27.31
846.639	25.96
846.811	25.27
846.983	24.85
847.155	27.14
847.327	26.09
847.499	27.28
847.671	27.19
847.843	24.14
848.015	22.48
848.187	24.72
848.359	23.71
848.531	25.5
848.703	27.29
848.875	29.32
849.047	29.02
849.218	30.09
849.39	30.17
849.562	32.21
849.734	31.39
849.905	30.42
850.077	28.96
850.249	30.08
850.421	28.81
850.592	27.68
850.764	24.89
850.936	25.61
851.107	22.78
851.279	23.25
851.451	20.85
851.622	24.13
851.794	26
851.965	27.17
852.137	26.08
852.308	26.04
852.48	25.85
852.651	28.04
852.823	25.84
852.994	28.12
853.166	27.72
853.337	30.38
853.509	26.89
853.68	26.63
853.851	26.81
854.023	27.11
854.194	27.4
854.365	27.27
854.537	26.8
854.708	26.66
854.879	25.75
855.05	27.32
855.222	26.9
855.393	28.96
855.564	27.51
855.735	26.17
855.906	24.56
856.078	22.99
856.249	25.13
856.42	22.76
856.591	24.25
856.762	24.75
856.933	23.7
857.104	21.64
857.275	20.76
857.446	21.48
857.617	21.48
857.788	23.02
857.959	22.25
858.13	19.63
858.301	19.7
858.472	16.89
858.643	15.29
858.814	17.99
858.985	17.89
859.155	19.14
859.326	22.55
859.497	24.72
859.668	23.27
859.839	25.27
860.009	28.31
860.18	28.22
860.351	30.8
860.522	30.92
860.692	29.36
860.863	28.99
861.034	26.88
861.204	22.14
861.375	19.82
861.546	20.99
861.716	21.01
861.887	17.88
862.057	18.45
862.228	14.52
862.398	15.58
862.569	18.04
862.739	19.84
862.91	23.32
863.08	25.88
863.251	25.96
863.421	23.13
863.592	22.38
863.762	23.34
863.932	23.3
864.103	25.45
864.273	24.99
864.443	23.27
864.614	23.37
864.784	20.62
864.954	20.35
865.125	22.55
865.295	24.54
865.465	24.41
865.635	24.44
865.805	26.54
865.976	25.35
866.146	25.31
866.316	22.96
866.486	22.92
866.656	25.63
866.826	24.66
866.996	22.19
867.166	21.2
867.336	21.4
867.506	20.8
867.676	18.94
867.846	19.53
868.016	19.5
868.186	17.99
868.356	17.8
868.526	15.02
868.696	15.9
868.866	17.76
869.036	16.96
869.206	18.53
869.376	19.27
869.545	20.43
869.715	20.12
869.885	19.16
870.055	22.22
870.224	19.91
870.394	23.08
870.564	24.78
870.734	23.36
870.903	24.36
871.073	26.33
871.243	26.54
871.412	25.78
871.582	28.65
871.751	29.68
871.921	28.54
872.091	27.63
872.26	25.3
872.43	23.69
872.599	24.53
872.769	25.8
872.938	22.89
873.108	23.27
873.277	22.07
873.446	22.48
873.616	20.92
873.785	22.79
873.955	25.85
874.124	26.22
874.293	27.01
874.463	25.95
874.632	25.17
874.801	25.9
874.971	26.66
875.14	28.69
875.309	25.07
875.478	24.98
875.647	24.02
875.817	22.62
875.986	20
876.155	19.41
876.324	20.35
876.493	20.63
876.662	21.4
876.831	20.26
877	17.61
877.17	21.2
877.339	24.98
877.508	24.72
877.677	27.1
877.846	29
878.015	28.8
878.184	28.6
878.352	30.67
878.521	30.27
878.69	29.95
878.859	31.22
879.028	30.46
879.197	29.67
879.366	30.7
879.534	30.19
879.703	29.56
879.872	30.03
880.041	30.41
880.21	30.01
880.378	29.87
880.547	30.3
880.716	30.64
880.884	30.28
881.053	30.17
881.222	30.12
881.39	30.28
881.559	31.02
881.727	31.5
881.896	31.64
882.065	31.19
882.233	31.25
882.402	30.96
882.57	30.5
882.739	30.98
882.907	31.21
883.076	30.9
883.244	30.84
883.412	30.54
883.581	29.74
883.749	29.66
883.918	30.32
884.086	30.51
884.254	30.97
884.423	31.53
884.591	31.46
884.759	30.22
884.927	31.23
885.096	30.37
885.264	30.28
885.432	30.13
885.6	28.49
885.769	26.61
885.937	26.7
886.105	24.7
886.273	23.63
886.441	21.76
886.609	22.53
886.777	19.66
886.945	19.17
887.113	18.47
887.281	17.7
887.449	19.76
887.617	21.41
887.785	20.01
887.953	21.87
888.121	20.53
888.289	21.3
888.457	22.35
888.625	23.95
888.793	25.33
888.961	24.04
889.129	23.95
889.296	22.74
889.464	22.15
889.632	21.93
889.8	20.36
889.967	22.05
890.135	23.34
