Data from JASIL_2968_Reflection_2.txt Node
Date: Sat Nov 07 21:36:51 EST 2015
User: Geneva
Spectrometer: USB4E03002
Autoset integration time: false
Trigger mode: 4
Integration Time (sec): 1.000000E-1
Scans to average: 10
Electric dark correction enabled: true
Nonlinearity correction enabled: false
Boxcar width: 5
Stray light correction enabled: false
XAxis mode: Wavelengths
Stop averaging: false
Number of Pixels in Spectrum: 3648
>>>>>Begin Spectral Data<<<<<
177.575	89.1
177.794	-17.4
178.014	31.95
178.233	36.62
178.452	31.01
178.672	102.33
178.891	47.23
179.11	16.12
179.33	29.64
179.549	23.24
179.768	177.7
179.987	81.71
180.207	55.05
180.426	105.87
180.645	54.56
180.864	50.96
181.084	85.73
181.303	70.2
181.522	86.23
181.741	93.15
181.96	82.94
182.179	79.77
182.398	89.77
182.618	105.07
182.837	101.13
183.056	133.86
183.275	114.35
183.494	117.38
183.713	116.07
183.932	127.79
184.151	136.93
184.37	172.78
184.589	146.88
184.808	137.56
185.027	90.64
185.246	85.04
185.465	82.41
185.684	84.49
185.903	78.73
186.122	78.52
186.341	77.55
186.56	66.03
186.779	54.08
186.998	56.96
187.216	59.47
187.435	72.33
187.654	86.1
187.873	102.7
188.092	81.02
188.311	67.02
188.53	65.03
188.748	63.95
188.967	43
189.186	66.45
189.405	59.4
189.623	27.11
189.842	52.15
190.061	42.48
190.28	24.03
190.498	46.97
190.717	57.42
190.936	57.32
191.154	45.08
191.373	90.42
191.592	45.18
191.81	-197.17
192.029	-249.34
192.248	192.59
192.466	128.25
192.685	85.88
192.904	75.89
193.122	76.76
193.341	26.55
193.559	78.88
193.778	70.92
193.996	63.66
194.215	52.41
194.433	45.89
194.652	51.3
194.87	40.83
195.089	38.11
195.307	44.11
195.526	45.99
195.744	54
195.963	33.62
196.181	34.58
196.399	28.79
196.618	32.58
196.836	56.07
197.055	62.48
197.273	69.62
197.491	88.42
197.71	73.24
197.928	84.54
198.146	90.7
198.365	92.75
198.583	65.89
198.801	55.18
199.019	36.37
199.238	10.74
199.456	1.75
199.674	-13.15
199.892	-28.07
200.111	-54.15
200.329	-31.35
200.547	-45.1
200.765	-34.49
200.983	-47.31
201.202	-17.97
201.42	11.51
201.638	16.2
201.856	36.44
202.074	44.1
202.292	46.76
202.51	64.02
202.728	45.57
202.946	51.52
203.165	61.17
203.383	57.11
203.601	64.04
203.819	53.65
204.037	50.08
204.255	37.31
204.473	37.37
204.691	36.92
204.909	6.64
205.127	29.23
205.345	44.99
205.562	41.71
205.78	46.82
205.998	56.11
206.216	59.65
206.434	76.32
206.652	78.31
206.87	71.92
207.088	54.61
207.306	57.11
207.523	54.37
207.741	41.61
207.959	37.72
208.177	37.29
208.395	32.73
208.612	30.71
208.83	20.94
209.048	11.93
209.266	-6.16
209.483	-0.21
209.701	-28.28
209.919	-19.32
210.136	0.74
210.354	22.91
210.572	31.5
210.79	29.64
211.007	26.69
211.225	15.51
211.442	13.9
211.66	18.6
211.878	21.97
212.095	59.12
212.313	58.68
212.53	59.55
212.748	60.59
212.966	58.11
213.183	59.7
213.401	57.67
213.618	67.02
213.836	68.92
214.053	65.01
214.271	67.07
214.488	33.21
214.705	28.54
214.923	20.97
215.14	30.55
215.358	31.31
215.575	34.76
215.793	58.11
216.01	56.03
216.227	55.62
216.445	57.56
216.662	41.26
216.879	21.82
217.097	20.73
217.314	31.44
217.531	21.04
217.749	23.75
217.966	31.57
218.183	21.75
218.4	7.89
218.618	8.71
218.835	19.98
219.052	28.45
219.269	31.82
219.487	37.98
219.704	37.24
219.921	34.21
220.138	34.04
220.355	25.82
220.572	26.39
220.79	30.2
221.007	35.61
221.224	31.85
221.441	26.58
221.658	27.68
221.875	24.52
222.092	19.32
222.309	22.25
222.526	18.52
222.743	19.25
222.96	14.14
223.177	13.37
223.394	9.47
223.611	9.22
223.828	8.36
224.045	10.01
224.262	8.52
224.479	10.27
224.696	11.33
224.913	10.78
225.13	11.67
225.347	13.13
225.564	12.92
225.781	11.44
225.997	11.19
226.214	10.77
226.431	10.36
226.648	10.58
226.865	10.34
227.082	9.32
227.298	8.91
227.515	8.96
227.732	8.4
227.949	8.21
228.165	8.9
228.382	8.48
228.599	8.87
228.816	8.57
229.032	8.33
229.249	8.53
229.466	8.5
229.682	9.25
229.899	8.97
230.116	9.33
230.332	10.7
230.549	11.27
230.765	12.65
230.982	12.88
231.199	13.77
231.415	13.89
231.632	13.27
231.848	13.71
232.065	15.22
232.281	15.39
232.498	15.7
232.714	14.78
232.931	13.15
233.147	13.47
233.364	13.76
233.58	13.25
233.797	13.19
234.013	13.71
234.23	13.48
234.446	12.74
234.662	12.95
234.879	13.79
235.095	13.51
235.312	15.73
235.528	15.47
235.744	15.26
235.961	15.83
236.177	15.37
236.393	15.72
236.61	15.93
236.826	14.57
237.042	14.17
237.258	13.41
237.475	13.58
237.691	12.53
237.907	11.7
238.123	10.92
238.339	10
238.556	10.53
238.772	10.76
238.988	10.19
239.204	10.75
239.42	10.86
239.636	10.96
239.853	11.29
240.069	10.72
240.285	10.95
240.501	10.63
240.717	10.8
240.933	10.98
241.149	10.46
241.365	11.08
241.581	10.99
241.797	10.79
242.013	10.9
242.229	10.96
242.445	10.97
242.661	10.77
242.877	11.35
243.093	11.35
243.309	11.55
243.525	11.46
243.741	11.01
243.957	11.15
244.173	11.6
244.388	10.9
244.604	10.48
244.82	10.83
245.036	10.7
245.252	10.59
245.468	10.57
245.683	10.37
245.899	10.51
246.115	10.26
246.331	10.11
246.547	9.94
246.762	10.04
246.978	10.1
247.194	9.88
247.409	9.96
247.625	9.7
247.841	9.48
248.057	9.34
248.272	9.17
248.488	9.62
248.703	9.42
248.919	9.43
249.135	9.21
249.35	8.96
249.566	8.92
249.782	8.27
249.997	8.83
250.213	8.88
250.428	9.05
250.644	9.09
250.859	8.74
251.075	8.97
251.29	8.87
251.506	8.85
251.721	8.95
251.937	8.96
252.152	9.36
252.368	9.16
252.583	9.56
252.798	9.19
253.014	9.14
253.229	9.3
253.445	9.25
253.66	9.26
253.875	8.73
254.091	8.29
254.306	8.12
254.521	7.94
254.737	7.83
254.952	7.17
255.167	7.74
255.383	7.56
255.598	7.4
255.813	6.93
256.028	6.84
256.244	7.46
256.459	7.36
256.674	7.82
256.889	7.88
257.104	8.09
257.32	8.06
257.535	7.81
257.75	7.79
257.965	7.7
258.18	7.75
258.395	7.69
258.61	7.83
258.826	7.95
259.041	7.75
259.256	7.61
259.471	7.39
259.686	7.38
259.901	7.43
260.116	7.6
260.331	7.67
260.546	7.82
260.761	7.74
260.976	7.79
261.191	7.55
261.406	7.43
261.621	7.62
261.836	7.46
262.05	7.27
262.265	6.85
262.48	6.39
262.695	6.08
262.91	5.8
263.125	5.76
263.34	5.46
263.555	5.81
263.769	5.49
263.984	5.68
264.199	6.08
264.414	6.39
264.629	6.52
264.843	6.52
265.058	6.54
265.273	6.89
265.488	7.12
265.702	6.81
265.917	6.92
266.132	7.55
266.346	7.3
266.561	7.24
266.776	7.27
266.99	7.58
267.205	7.6
267.42	7.68
267.634	7.57
267.849	7.68
268.063	7.49
268.278	7.25
268.492	7.06
268.707	6.88
268.922	7
269.136	6.74
269.351	6.89
269.565	6.94
269.78	6.7
269.994	6.41
270.209	6.25
270.423	6.89
270.637	6.94
270.852	6.89
271.066	6.95
271.281	7.05
271.495	7.37
271.709	7.2
271.924	7.21
272.138	7.2
272.353	7.2
272.567	7.21
272.781	6.86
272.996	6.83
273.21	6.67
273.424	6.73
273.638	6.61
273.853	6.37
274.067	6.05
274.281	6.05
274.495	6.11
274.71	6.14
274.924	5.99
275.138	6.02
275.352	5.82
275.566	5.88
275.781	6.08
275.995	6.1
276.209	6.21
276.423	6.25
276.637	6.15
276.851	6.26
277.065	6.35
277.279	6.65
277.493	6.99
277.707	6.98
277.921	7.3
278.135	7.31
278.349	7.09
278.563	6.93
278.777	6.99
278.991	7.08
279.205	7.23
279.419	7.34
279.633	7.23
279.847	6.93
280.061	7.12
280.275	7.12
280.489	7.01
280.703	6.85
280.917	6.82
281.131	7.02
281.344	6.89
281.558	6.55
281.772	6.31
281.986	6.4
282.2	6.38
282.414	6.39
282.627	6.33
282.841	6.4
283.055	6.48
283.269	6.38
283.482	6.16
283.696	6.17
283.91	6.5
284.123	6.6
284.337	6.4
284.551	6.32
284.764	6.17
284.978	6.15
285.192	6.1
285.405	6.22
285.619	6.43
285.833	6.28
286.046	6.15
286.26	5.96
286.473	5.8
286.687	5.92
286.9	6.06
287.114	5.98
287.327	6.27
287.541	6.15
287.754	6.01
287.968	5.54
288.181	5.88
288.395	6.19
288.608	6.09
288.822	6.14
289.035	6.32
289.248	6.42
289.462	6.88
289.675	6.64
289.889	6.74
290.102	6.84
290.315	7.23
290.529	7.35
290.742	7.31
290.955	7.6
291.169	7.85
291.382	7.63
291.595	7.42
291.808	7.26
292.022	7.48
292.235	7.49
292.448	7.71
292.661	7.54
292.875	7.27
293.088	7.14
293.301	7.08
293.514	6.9
293.727	6.95
293.94	7.11
294.153	6.88
294.367	6.7
294.58	6.52
294.793	6.26
295.006	6.34
295.219	6.55
295.432	6.63
295.645	6.76
295.858	6.66
296.071	6.71
296.284	6.58
296.497	6.74
296.71	6.7
296.923	6.89
297.136	7
297.349	7.21
297.562	7
297.775	7.06
297.988	6.96
298.201	7.15
298.414	7.17
298.626	7.37
298.839	7.31
299.052	7.4
299.265	7.23
299.478	7.2
299.691	6.92
299.903	7.1
300.116	6.99
300.329	6.95
300.542	6.91
300.755	6.85
300.967	6.89
301.18	6.98
301.393	6.99
301.605	7.02
301.818	7.01
302.031	7.14
302.243	7.05
302.456	7.35
302.669	7.32
302.881	7.54
303.094	7.48
303.307	7.62
303.519	7.59
303.732	7.7
303.944	8.03
304.157	8
304.37	8.11
304.582	8.3
304.795	8.03
305.007	8.15
305.22	8.03
305.432	8.08
305.645	7.8
305.857	7.95
306.069	7.99
306.282	7.65
306.494	7.82
306.707	7.65
306.919	7.52
307.132	7.44
307.344	7.51
307.556	7.63
307.769	7.55
307.981	7.55
308.193	7.36
308.406	7.21
308.618	7.28
308.83	7.18
309.043	7.26
309.255	7.42
309.467	7.58
309.679	7.63
309.892	7.6
310.104	7.59
310.316	7.55
310.528	7.62
310.74	7.85
310.953	8.05
311.165	8.1
311.377	7.98
311.589	7.95
311.801	7.82
312.013	7.68
312.225	7.79
312.437	8.01
312.649	8.11
312.862	8.15
313.074	7.83
313.286	7.53
313.498	7.39
313.71	7.65
313.922	7.54
314.134	7.69
314.346	7.79
314.558	7.44
314.77	7.3
314.982	7.15
315.193	7.14
315.405	6.91
315.617	6.88
315.829	7.17
316.041	7.15
316.253	7.03
316.465	6.99
316.677	6.94
316.888	7.24
317.1	7.41
317.312	7.86
317.524	7.94
317.736	8.37
317.947	8.76
318.159	8.7
318.371	8.72
318.583	8.76
318.794	8.87
319.006	8.99
319.218	8.95
319.43	8.76
319.641	8.44
319.853	8.46
320.064	8.31
320.276	8.34
320.488	8.11
320.699	8.24
320.911	8.55
321.123	8.63
321.334	8.62
321.546	8.64
321.757	8.79
321.969	8.87
322.18	8.78
322.392	8.56
322.603	8.3
322.815	8.41
323.026	8.38
323.238	8.02
323.449	8.06
323.661	7.96
323.872	8.06
324.083	8.05
324.295	8
324.506	7.91
324.718	8.09
324.929	8.36
325.14	8.63
325.352	8.56
325.563	8.88
325.774	8.83
325.986	8.83
326.197	8.76
326.408	8.81
326.62	8.88
326.831	9.18
327.042	9.3
327.253	9.23
327.464	8.94
327.676	8.86
327.887	8.89
328.098	8.86
328.309	9.05
328.52	9.08
328.732	9.44
328.943	9.73
329.154	9.83
329.365	9.8
329.576	9.95
329.787	10.06
329.998	10.3
330.209	10.38
330.42	10.56
330.631	10.58
330.842	10.58
331.053	10.34
331.264	10.21
331.475	10.22
331.686	10.36
331.897	10.29
332.108	10.35
332.319	10.14
332.53	10.13
332.741	10.01
332.952	9.99
333.163	10.19
333.374	10.27
333.585	10.26
333.795	9.99
334.006	10.06
334.217	10.08
334.428	10.13
334.639	10.3
334.849	10.29
335.06	10.42
335.271	10.33
335.482	10.3
335.692	10.3
335.903	10.18
336.114	10.28
336.325	10.18
336.535	10.28
336.746	10.02
336.957	10.08
337.167	10.07
337.378	10.01
337.589	9.99
337.799	9.95
338.01	9.99
338.22	10.22
338.431	10.18
338.642	10.29
338.852	10.02
339.063	10.26
339.273	10.05
339.484	10.09
339.694	9.99
339.905	10.08
340.115	9.95
340.326	9.67
340.536	9.69
340.746	9.75
340.957	9.64
341.167	9.61
341.378	9.5
341.588	9.87
341.799	9.7
342.009	9.68
342.219	9.69
342.43	9.88
342.64	9.77
342.85	9.49
343.061	9.46
343.271	9.41
343.481	9.63
343.691	9.71
343.902	9.34
344.112	9.42
344.322	9.44
344.532	9.49
344.743	9.46
344.953	9.52
345.163	9.64
345.373	9.62
345.583	9.68
345.793	9.52
346.004	9.36
346.214	9.39
346.424	9.48
346.634	9.54
346.844	9.69
347.054	9.58
347.264	9.89
347.474	9.82
347.684	9.73
347.894	9.76
348.104	9.77
348.314	9.83
348.524	9.97
348.734	9.84
348.944	9.72
349.154	9.61
349.364	9.64
349.574	9.52
349.784	9.54
349.994	9.76
350.204	9.63
350.413	9.53
350.623	9.55
350.833	9.55
351.043	9.58
351.253	9.64
351.463	9.45
351.672	9.38
351.882	9.29
352.092	9.24
352.302	9.14
352.511	9.07
352.721	9.06
352.931	9.22
353.141	9.02
353.35	8.91
353.56	8.94
353.77	9.23
353.979	9.45
354.189	9.38
354.399	9.57
354.608	9.57
354.818	9.66
355.027	9.65
355.237	9.5
355.447	9.62
355.656	9.58
355.866	9.55
356.075	9.35
356.285	9.11
356.494	9.15
356.704	8.97
356.913	8.86
357.123	8.73
357.332	8.85
357.542	8.91
357.751	8.86
357.96	8.92
358.17	8.86
358.379	8.78
358.589	8.81
358.798	8.91
359.007	8.87
359.217	8.76
359.426	8.81
359.635	8.71
359.845	8.64
360.054	8.56
360.263	8.5
360.472	8.43
360.682	8.37
360.891	8.49
361.1	8.41
361.309	8.45
361.519	8.6
361.728	8.57
361.937	8.67
362.146	8.6
362.355	8.64
362.564	8.69
362.774	8.72
362.983	8.75
363.192	8.61
363.401	8.54
363.61	8.54
363.819	8.47
364.028	8.46
364.237	8.35
364.446	8.49
364.655	8.48
364.864	8.45
365.073	8.52
365.282	8.58
365.491	8.48
365.7	8.58
365.909	8.48
366.118	8.49
366.327	8.59
366.536	8.55
366.745	8.45
366.954	8.44
367.162	8.37
367.371	8.3
367.58	8.28
367.789	8.23
367.998	8.15
368.207	8.16
368.415	8.22
368.624	8.05
368.833	8.02
369.042	8.16
369.25	8.22
369.459	8.24
369.668	8.19
369.877	8.14
370.085	8.27
370.294	8.26
370.503	8.29
370.711	8.12
370.92	8.13
371.129	8.1
371.337	7.99
371.546	7.81
371.754	7.87
371.963	7.97
372.171	7.9
372.38	7.73
372.589	7.83
372.797	7.77
373.006	7.83
373.214	7.77
373.423	7.79
373.631	7.62
373.84	7.74
374.048	7.65
374.256	7.58
374.465	7.56
374.673	7.54
374.882	7.29
375.09	7.28
375.298	7.25
375.507	7.26
375.715	7.16
375.923	7.1
376.132	7.07
376.34	7
376.548	6.97
376.757	6.99
376.965	7.08
377.173	7.25
377.381	7.2
377.59	7.17
377.798	7.22
378.006	7.27
378.214	7.33
378.423	7.24
378.631	7.26
378.839	7.17
379.047	7.21
379.255	7.17
379.463	7.06
379.671	6.93
379.879	6.83
380.088	6.78
380.296	6.8
380.504	6.9
380.712	7
380.92	7.13
381.128	7.15
381.336	7.16
381.544	7.17
381.752	7.15
381.96	7.26
382.168	7.32
382.376	7.33
382.584	7.33
382.791	7.32
382.999	7.23
383.207	7.1
383.415	7.09
383.623	7.04
383.831	6.93
384.039	6.96
384.247	6.94
384.454	6.93
384.662	6.99
384.87	6.98
385.078	6.9
385.285	6.97
385.493	7
385.701	7.03
385.909	7.04
386.116	7.1
386.324	7.16
386.532	7.13
386.739	7.06
386.947	6.91
387.155	6.87
387.362	6.88
387.57	6.85
387.778	6.79
387.985	6.78
388.193	6.71
388.4	6.77
388.608	6.55
388.816	6.59
389.023	6.69
389.231	6.68
389.438	6.64
389.646	6.57
389.853	6.49
390.061	6.42
390.268	6.47
390.475	6.45
390.683	6.44
390.89	6.42
391.098	6.39
391.305	6.34
391.512	6.35
391.72	6.42
391.927	6.35
392.135	6.35
392.342	6.33
392.549	6.25
392.756	6.26
392.964	6.17
393.171	6.26
393.378	6.26
393.586	6.21
393.793	6.2
394	6.06
394.207	6.16
394.414	6.2
394.622	6.29
394.829	6.28
395.036	6.18
395.243	6.23
395.45	6.22
395.657	6.2
395.864	6.19
396.072	6.27
396.279	6.32
396.486	6.28
396.693	6.24
396.9	6.23
397.107	6.17
397.314	6.2
397.521	6.11
397.728	6.02
397.935	5.96
398.142	5.94
398.349	5.83
398.556	5.87
398.763	5.86
398.97	5.83
399.177	5.78
399.383	5.84
399.59	5.87
399.797	5.94
400.004	5.95
400.211	6
400.418	5.94
400.625	5.94
400.831	5.88
401.038	5.83
401.245	5.79
401.452	5.65
401.658	5.64
401.865	5.72
402.072	5.69
402.279	5.73
402.485	5.75
402.692	5.79
402.899	5.76
403.105	5.85
403.312	5.86
403.519	5.84
403.725	5.93
403.932	5.93
404.138	5.84
404.345	5.76
404.552	5.71
404.758	5.71
404.965	5.67
405.171	5.68
405.378	5.57
405.584	5.59
405.791	5.6
405.997	5.55
406.204	5.54
406.41	5.5
406.617	5.5
406.823	5.52
407.029	5.49
407.236	5.48
407.442	5.5
407.649	5.61
407.855	5.65
408.061	5.64
408.268	5.64
408.474	5.65
408.68	5.63
408.887	5.6
409.093	5.56
409.299	5.62
409.505	5.65
409.712	5.59
409.918	5.48
410.124	5.39
410.33	5.43
410.537	5.45
410.743	5.38
410.949	5.44
411.155	5.54
411.361	5.54
411.567	5.46
411.773	5.43
411.98	5.42
412.186	5.44
412.392	5.42
412.598	5.44
412.804	5.45
413.01	5.45
413.216	5.4
413.422	5.44
413.628	5.44
413.834	5.4
414.04	5.43
414.246	5.42
414.452	5.4
414.658	5.44
414.864	5.42
415.07	5.35
415.275	5.39
415.481	5.35
415.687	5.16
415.893	5.13
416.099	5.16
416.305	5.17
416.511	5.19
416.716	5.16
416.922	5.14
417.128	5.14
417.334	5.17
417.539	5.09
417.745	5.09
417.951	5.11
418.157	5.12
418.362	5.13
418.568	5.14
418.774	5.07
418.979	5.06
419.185	5.03
419.391	5.03
419.596	4.98
419.802	5
420.008	4.96
420.213	5.33
420.419	5.3
420.624	5.28
420.83	5.22
421.035	5.24
421.241	5.22
421.446	5.25
421.652	5.2
421.857	5.2
422.063	5.2
422.268	5.18
422.474	4.87
422.679	4.88
422.885	4.89
423.09	4.91
423.295	4.89
423.501	4.9
423.706	4.83
423.911	4.9
424.117	4.92
424.322	4.91
424.527	4.94
424.733	4.88
424.938	4.87
425.143	4.86
425.349	4.81
425.554	4.84
425.759	4.85
425.964	4.9
426.169	4.83
426.375	4.84
426.58	4.82
426.785	4.82
426.99	4.83
427.195	4.84
427.4	4.82
427.605	4.9
427.811	4.87
428.016	4.86
428.221	4.96
428.426	4.97
428.631	4.95
428.836	4.98
429.041	4.93
429.246	4.99
429.451	5.01
429.656	5
429.861	4.98
430.066	5.05
430.271	5.02
430.476	4.91
430.681	4.83
430.886	4.84
431.09	4.87
431.295	4.88
431.5	4.85
431.705	4.82
431.91	4.82
432.115	4.85
432.32	4.81
432.524	4.8
432.729	4.78
432.934	4.84
433.139	4.83
433.343	4.88
433.548	4.91
433.753	4.88
433.958	4.88
434.162	4.85
434.367	4.84
434.572	4.81
434.776	4.82
434.981	4.87
435.186	4.81
435.39	4.77
435.595	4.73
435.799	4.71
436.004	4.74
436.209	4.72
436.413	4.73
436.618	4.72
436.822	4.7
437.027	4.67
437.231	4.62
437.436	4.62
437.64	4.62
437.845	4.54
438.049	4.54
438.253	4.48
438.458	4.51
438.662	4.5
438.867	4.48
439.071	4.53
439.275	4.57
439.48	4.58
439.684	4.59
439.888	4.59
440.093	4.59
440.297	4.55
440.501	4.58
440.706	4.58
440.91	4.63
441.114	4.63
441.318	4.61
441.523	4.62
441.727	4.64
441.931	4.71
442.135	4.75
442.339	4.77
442.543	4.83
442.748	4.82
442.952	4.83
443.156	4.77
443.36	4.76
443.564	4.72
443.768	4.68
443.972	4.62
444.176	4.56
444.38	4.53
444.584	4.54
444.788	4.53
444.992	4.51
445.196	4.46
445.4	4.5
445.604	4.5
445.808	4.47
446.012	4.43
446.216	4.47
446.42	4.42
446.624	4.42
446.828	4.39
447.032	4.38
447.235	4.41
447.439	4.43
447.643	4.43
447.847	4.46
448.051	4.49
448.254	4.53
448.458	4.51
448.662	4.57
448.866	4.55
449.069	4.62
449.273	4.66
449.477	4.67
449.681	4.66
449.884	4.72
450.088	4.65
450.292	4.66
450.495	4.69
450.699	4.73
450.902	4.71
451.106	4.73
451.31	4.67
451.513	4.67
451.717	4.59
451.92	4.58
452.124	4.46
452.327	4.51
452.531	4.54
452.734	4.49
452.938	4.49
453.141	4.5
453.345	4.5
453.548	4.51
453.752	4.5
453.955	4.54
454.158	4.58
454.362	4.6
454.565	4.59
454.769	4.52
454.972	4.54
455.175	4.48
455.379	4.48
455.582	4.43
455.785	4.44
455.988	4.44
456.192	4.43
456.395	4.37
456.598	4.39
456.801	4.35
457.005	4.42
457.208	4.43
457.411	4.45
457.614	4.46
457.817	4.46
458.021	4.43
458.224	4.41
458.427	4.42
458.63	4.42
458.833	4.41
459.036	4.44
459.239	4.38
459.442	4.37
459.645	4.39
459.848	4.4
460.051	4.39
460.254	4.41
460.457	4.39
460.66	4.38
460.863	4.42
461.066	4.44
461.269	4.42
461.472	4.51
461.675	4.52
461.878	4.54
462.081	4.52
462.284	4.57
462.486	4.63
462.689	4.64
462.892	4.66
463.095	4.66
463.298	4.69
463.5	4.68
463.703	4.64
463.906	4.66
464.109	4.64
464.311	4.66
464.514	4.67
464.717	4.63
464.92	4.67
465.122	4.68
465.325	4.71
465.528	4.66
465.73	4.69
465.933	4.69
466.135	4.67
466.338	4.65
466.541	4.64
466.743	4.63
466.946	4.66
467.148	4.67
467.351	4.62
467.553	4.58
467.756	4.63
467.958	4.65
468.161	4.65
468.363	4.64
468.566	4.63
468.768	4.59
468.971	4.6
469.173	4.59
469.375	4.55
469.578	4.68
469.78	4.62
469.983	4.61
470.185	4.58
470.387	4.59
470.59	4.56
470.792	4.57
470.994	4.61
471.196	4.62
471.399	4.58
471.601	4.57
471.803	4.46
472.005	4.5
472.208	4.52
472.41	4.5
472.612	4.47
472.814	4.55
473.016	4.6
473.218	4.63
473.421	4.6
473.623	4.62
473.825	4.64
474.027	4.66
474.229	4.64
474.431	4.6
474.633	4.64
474.835	4.63
475.037	4.58
475.239	4.53
475.441	4.5
475.643	4.48
475.845	4.47
476.047	4.49
476.249	4.48
476.451	4.51
476.653	4.52
476.855	4.52
477.057	4.52
477.258	4.51
477.46	4.48
477.662	4.44
477.864	4.49
478.066	4.51
478.268	4.54
478.469	4.56
478.671	4.52
478.873	4.45
479.075	4.45
479.276	4.45
479.478	4.47
479.68	4.46
479.882	4.49
480.083	4.48
480.285	4.44
480.487	4.39
480.688	4.34
480.89	4.37
481.091	4.41
481.293	4.41
481.495	4.42
481.696	4.4
481.898	4.4
482.099	4.38
482.301	4.37
482.502	4.36
482.704	4.35
482.905	4.34
483.107	4.32
483.308	4.3
483.51	4.27
483.711	4.27
483.913	4.26
484.114	4.26
484.315	4.26
484.517	4.26
484.718	4.26
484.92	4.26
485.121	4.26
485.322	4.27
485.524	4.28
485.725	4.31
485.926	4.31
486.127	4.32
486.329	4.33
486.53	4.31
486.731	4.3
486.932	4.3
487.134	4.28
487.335	4.26
487.536	4.28
487.737	4.28
487.938	4.26
488.139	4.26
488.341	4.25
488.542	4.25
488.743	4.26
488.944	4.27
489.145	4.3
489.346	4.33
489.547	4.37
489.748	4.35
489.949	4.37
490.15	4.37
490.351	4.38
490.552	4.39
490.753	4.37
490.954	4.38
491.155	4.37
491.356	4.37
491.557	4.36
491.758	4.37
491.959	4.38
492.159	4.35
492.36	4.35
492.561	4.36
492.762	4.35
492.963	4.38
493.164	4.37
493.364	4.39
493.565	4.4
493.766	4.44
493.967	4.42
494.167	4.42
494.368	4.49
494.569	4.48
494.769	4.45
494.97	4.42
495.171	4.45
495.371	4.47
495.572	4.49
495.773	4.54
495.973	4.5
496.174	4.54
496.375	4.56
496.575	4.56
496.776	4.58
496.976	4.63
497.177	4.71
497.377	4.7
497.578	4.73
497.778	4.72
497.979	4.71
498.179	4.76
498.38	4.77
498.58	4.8
498.78	4.76
498.981	4.82
499.181	4.85
499.382	4.83
499.582	4.89
499.782	4.92
499.983	4.91
500.183	4.92
500.383	4.93
500.584	4.94
500.784	4.94
500.984	4.94
501.184	4.91
501.385	4.9
501.585	4.92
501.785	4.9
501.985	4.87
502.185	4.88
502.386	4.86
502.586	4.85
502.786	4.86
502.986	4.84
503.186	4.88
503.386	4.93
503.586	4.96
503.786	4.97
503.987	5
504.187	5.07
504.387	5.15
504.587	5.19
504.787	5.21
504.987	5.22
505.187	5.27
505.387	5.29
505.587	5.27
505.786	5.3
505.986	5.3
506.186	5.26
506.386	5.22
506.586	5.22
506.786	5.23
506.986	5.26
507.186	5.3
507.386	5.32
507.585	5.34
507.785	5.37
507.985	5.35
508.185	5.41
508.384	5.45
508.584	5.47
508.784	5.47
508.984	5.49
509.183	5.5
509.383	5.52
509.583	5.51
509.782	5.54
509.982	5.54
510.182	5.57
510.381	5.58
510.581	5.62
510.781	5.65
510.98	5.7
511.18	5.69
511.379	5.72
511.579	5.72
511.778	5.72
511.978	5.71
512.177	5.8
512.377	5.83
512.576	5.84
512.776	5.9
512.975	5.94
513.175	5.94
513.374	6
513.573	5.98
513.773	6.01
513.972	6.09
514.172	6.16
514.371	6.17
514.57	6.16
514.77	6.2
514.969	6.16
515.168	6.17
515.367	6.2
515.567	6.23
515.766	6.24
515.965	6.27
516.164	6.29
516.364	6.31
516.563	6.34
516.762	6.36
516.961	6.38
517.16	6.42
517.359	6.45
517.559	6.49
517.758	6.51
517.957	6.57
518.156	6.61
518.355	6.63
518.554	6.63
518.753	6.63
518.952	6.69
519.151	6.73
519.35	6.76
519.549	6.75
519.748	6.78
519.947	6.79
520.146	6.81
520.345	6.82
520.544	6.86
520.743	6.93
520.942	6.96
521.141	6.95
521.339	6.94
521.538	6.97
521.737	7.04
521.936	7.05
522.135	7.11
522.333	7.13
522.532	7.18
522.731	7.2
522.93	7.2
523.129	7.25
523.327	7.26
523.526	7.31
523.725	7.33
523.923	7.36
524.122	7.36
524.321	7.37
524.519	7.38
524.718	7.38
524.917	7.36
525.115	7.37
525.314	7.37
525.512	7.37
525.711	7.43
525.909	7.43
526.108	7.45
526.306	7.49
526.505	7.48
526.703	7.49
526.902	7.51
527.1	7.53
527.299	7.55
527.497	7.57
527.696	7.59
527.894	7.58
528.092	7.59
528.291	7.6
528.489	7.64
528.688	7.67
528.886	7.7
529.084	7.74
529.283	7.78
529.481	7.81
529.679	7.86
529.877	7.9
530.076	7.94
530.274	8.02
530.472	8.08
530.67	8.12
530.869	8.18
531.067	8.21
531.265	8.23
531.463	8.25
531.661	8.27
531.859	8.29
532.057	8.34
532.255	8.36
532.454	8.33
532.652	8.33
532.85	8.33
533.048	8.35
533.246	8.37
533.444	8.41
533.642	8.46
533.84	8.48
534.038	8.51
534.236	8.55
534.434	8.58
534.632	8.68
534.83	8.7
535.027	8.75
535.225	8.78
535.423	8.84
535.621	8.86
535.819	8.89
536.017	8.94
536.215	8.96
536.412	8.98
536.61	9.02
536.808	9.03
537.006	9.09
537.203	9.13
537.401	9.16
537.599	9.16
537.797	9.21
537.994	9.25
538.192	9.33
538.39	9.37
538.587	9.41
538.785	9.48
538.983	9.54
539.18	9.61
539.378	9.63
539.575	9.67
539.773	9.73
539.97	9.75
540.168	9.74
540.366	9.74
540.563	9.76
540.761	9.78
540.958	9.79
541.155	9.82
541.353	9.85
541.55	9.9
541.748	9.92
541.945	9.96
542.143	9.97
542.34	10.05
542.537	10.1
542.735	10.16
542.932	10.21
543.129	10.25
543.327	10.32
543.524	10.33
543.721	10.38
543.919	10.42
544.116	10.47
544.313	10.58
544.51	10.6
544.708	10.68
544.905	10.7
545.102	10.73
545.299	10.79
545.496	10.83
545.693	10.88
545.891	10.92
546.088	11
546.285	11.02
546.482	11.05
546.679	11.08
546.876	11.09
547.073	11.16
547.27	11.26
547.467	11.3
547.664	11.34
547.861	11.4
548.058	11.45
548.255	11.49
548.452	11.56
548.649	11.63
548.846	11.69
549.043	11.75
549.24	11.79
549.437	11.79
549.633	11.82
549.83	11.89
550.027	11.94
550.224	12
550.421	12.05
550.618	12.08
550.814	12.17
551.011	12.26
551.208	12.33
551.405	12.31
551.601	12.41
551.798	12.48
551.995	12.5
552.191	12.52
552.388	12.53
552.585	12.56
552.781	12.61
552.978	12.63
553.175	12.61
553.371	12.61
553.568	12.69
553.764	12.72
553.961	12.8
554.157	12.88
554.354	12.93
554.55	13.05
554.747	13.1
554.943	13.14
555.14	13.19
555.336	13.29
555.533	13.39
555.729	13.47
555.926	13.48
556.122	13.48
556.318	13.51
556.515	13.56
556.711	13.59
556.907	13.57
557.104	13.63
557.3	13.65
557.496	13.72
557.693	13.72
557.889	13.82
558.085	13.92
558.281	13.97
558.478	13.96
558.674	13.99
558.87	13.98
559.066	14.05
559.262	14.08
559.459	14.11
559.655	14.13
559.851	14.21
560.047	14.2
560.243	14.2
560.439	14.23
560.635	14.28
560.831	14.31
561.027	14.37
561.223	14.38
561.419	14.4
561.615	14.43
561.811	14.43
562.007	14.43
562.203	14.46
562.399	14.5
562.595	14.49
562.791	14.48
562.987	14.55
563.183	14.56
563.379	14.65
563.575	14.76
563.771	14.81
563.966	14.88
564.162	14.9
564.358	14.94
564.554	14.93
564.75	14.98
564.945	15.05
565.141	15.05
565.337	15.04
565.533	15.05
565.728	15.04
565.924	14.98
566.12	15.02
566.315	15.05
566.511	15.08
566.707	15.12
566.902	15.15
567.098	15.13
567.293	15.17
567.489	15.19
567.684	15.25
567.88	15.25
568.076	15.33
568.271	15.31
568.467	15.3
568.662	15.31
568.858	15.32
569.053	15.36
569.248	15.39
569.444	15.42
569.639	15.5
569.835	15.48
570.03	15.51
570.225	15.47
570.421	15.51
570.616	15.5
570.812	15.46
571.007	15.48
571.202	15.45
571.397	15.43
571.593	15.41
571.788	15.42
571.983	15.45
572.178	15.5
572.374	15.56
572.569	15.6
572.764	15.63
572.959	15.7
573.154	15.76
573.35	15.85
573.545	15.91
573.74	15.91
573.935	15.88
574.13	15.89
574.325	15.87
574.52	15.87
574.715	15.83
574.91	15.88
575.105	15.88
575.3	15.88
575.495	15.88
575.69	15.92
575.885	15.98
576.08	15.99
576.275	16
576.47	16.03
576.665	16.09
576.86	16.16
577.055	16.22
577.25	16.26
577.444	16.28
577.639	16.27
577.834	16.27
578.029	16.28
578.224	16.33
578.418	16.35
578.613	16.39
578.808	16.39
579.003	16.41
579.197	16.36
579.392	16.33
579.587	16.29
579.781	16.25
579.976	16.27
580.171	16.25
580.365	16.24
580.56	16.23
580.755	16.22
580.949	16.23
581.144	16.23
581.338	16.27
581.533	16.26
581.727	16.33
581.922	16.36
582.116	16.3
582.311	16.33
582.505	16.33
582.7	16.35
582.894	16.39
583.089	16.46
583.283	16.48
583.478	16.41
583.672	16.47
583.866	16.44
584.061	16.46
584.255	16.54
584.449	16.57
584.644	16.65
584.838	16.68
585.032	16.65
585.226	16.53
585.421	16.51
585.615	16.54
585.809	16.55
586.003	16.51
586.198	16.46
586.392	16.47
586.586	16.5
586.78	16.47
586.974	16.5
587.168	16.55
587.363	16.56
587.557	16.56
587.751	16.59
587.945	16.57
588.139	16.59
588.333	16.62
588.527	16.61
588.721	16.55
588.915	16.49
589.109	16.45
589.303	16.4
589.497	16.47
589.691	16.49
589.885	16.53
590.079	16.53
590.273	16.53
590.466	16.55
590.66	16.58
590.854	16.65
591.048	16.67
591.242	16.66
591.436	16.64
591.629	16.58
591.823	16.57
592.017	16.52
592.211	16.54
592.404	16.59
592.598	16.59
592.792	16.56
592.986	16.53
593.179	16.51
593.373	16.46
593.567	16.49
593.76	16.49
593.954	16.41
594.147	16.43
594.341	16.44
594.535	16.46
594.728	16.46
594.922	16.49
595.115	16.44
595.309	16.47
595.502	16.56
595.696	16.48
595.889	16.48
596.083	16.51
596.276	16.42
596.47	16.42
596.663	16.39
596.856	16.39
597.05	16.39
597.243	16.38
597.437	16.43
597.63	16.42
597.823	16.55
598.017	16.59
598.21	16.59
598.403	16.63
598.596	16.66
598.79	16.65
598.983	16.72
599.176	16.68
599.369	16.72
599.563	16.61
599.756	16.69
599.949	16.56
600.142	16.57
600.335	16.69
600.528	16.69
600.722	16.67
600.915	16.73
601.108	16.69
601.301	16.72
601.494	16.74
601.687	16.77
601.88	16.76
602.073	16.81
602.266	16.79
602.459	16.72
602.652	16.76
602.845	16.78
603.038	16.73
603.231	16.68
603.424	16.64
603.617	16.65
603.809	16.65
604.002	16.6
604.195	16.56
604.388	16.55
604.581	16.51
604.774	16.48
604.966	16.44
605.159	16.42
605.352	16.48
605.545	16.57
605.737	16.59
605.93	16.56
606.123	16.52
606.316	16.61
606.508	16.58
606.701	16.68
606.894	16.75
607.086	16.75
607.279	16.78
607.471	16.77
607.664	16.66
607.857	16.68
608.049	16.78
608.242	16.8
608.434	16.74
608.627	16.83
608.819	16.83
609.012	16.84
609.204	16.84
609.397	16.94
609.589	16.95
609.782	17
609.974	17.04
610.166	17.06
610.359	17.12
610.551	17.18
610.743	17.19
610.936	17.24
611.128	17.29
611.32	17.34
611.513	17.22
611.705	17.26
611.897	17.29
612.09	17.21
612.282	17.17
612.474	17.14
612.666	17.19
612.858	17.15
613.051	17.07
613.243	16.99
613.435	17.04
613.627	17.15
613.819	17.15
614.011	17.14
614.203	17.12
614.395	17.13
614.588	17.11
614.78	17.09
614.972	17.02
615.164	16.96
615.356	16.93
615.548	16.83
615.74	16.76
615.932	16.73
616.124	16.73
616.315	16.71
616.507	16.62
616.699	16.7
616.891	16.69
617.083	16.84
617.275	17.06
617.467	17.07
617.659	17.03
617.85	17.05
618.042	17.05
618.234	17.06
618.426	17.13
618.618	17.19
618.809	17.14
619.001	17.13
619.193	17.09
619.384	16.91
619.576	16.93
619.768	17.02
619.959	17
620.151	16.98
620.343	16.97
620.534	16.99
620.726	16.97
620.917	16.95
621.109	16.88
621.301	16.78
621.492	16.78
621.684	16.73
621.875	16.72
622.067	16.79
622.258	16.76
622.45	16.71
622.641	16.7
622.832	16.79
623.024	16.87
623.215	16.94
623.407	17.03
623.598	17.09
623.789	17.11
623.981	17.1
624.172	17.1
624.363	17.13
624.555	17.15
624.746	17.16
624.937	17.07
625.129	17.01
625.32	16.95
625.511	16.91
625.702	16.83
625.893	16.83
626.085	16.86
626.276	16.88
626.467	16.82
626.658	16.79
626.849	16.77
627.04	16.77
627.231	16.74
627.422	16.82
627.614	16.87
627.805	16.9
627.996	16.93
628.187	16.91
628.378	16.87
628.569	16.9
628.76	16.95
628.951	16.98
629.142	16.99
629.332	16.97
629.523	16.94
629.714	16.87
629.905	16.91
630.096	16.89
630.287	16.84
630.478	16.78
630.669	16.88
630.859	16.85
631.05	16.85
631.241	16.91
631.432	16.92
631.623	17
631.813	17.03
632.004	16.96
632.195	16.98
632.385	16.98
632.576	17.03
632.767	16.91
632.957	16.91
633.148	16.8
633.339	16.72
633.529	16.8
633.72	16.73
633.91	16.66
634.101	16.76
634.292	16.74
634.482	16.73
634.673	16.7
634.863	16.73
635.054	16.71
635.244	16.81
635.435	16.85
635.625	16.83
635.815	16.78
636.006	16.8
636.196	16.81
636.387	16.76
636.577	16.79
636.767	16.8
636.958	16.9
637.148	16.88
637.338	16.82
637.529	16.86
637.719	16.86
637.909	16.81
638.099	16.86
638.29	16.86
638.48	16.97
638.67	16.97
638.86	16.97
639.05	16.92
639.241	17.06
639.431	17.06
639.621	17.04
639.811	17
640.001	17.07
640.191	17.05
640.381	16.95
640.571	16.82
640.761	16.85
640.951	16.86
641.141	16.84
641.331	16.76
641.521	16.77
641.711	16.75
641.901	16.72
642.091	16.84
642.281	16.89
642.471	16.85
642.661	16.94
642.851	16.92
643.041	17.01
643.231	17.02
643.42	17.06
643.61	17
643.8	17
643.99	17.05
644.18	16.96
644.369	16.93
644.559	17.11
644.749	17.06
644.939	17.01
645.128	16.9
645.318	16.87
645.508	16.9
645.697	16.92
645.887	16.95
646.076	16.97
646.266	17.04
646.456	17.01
646.645	16.9
646.835	16.9
647.024	16.98
647.214	16.99
647.403	16.99
647.593	16.91
647.782	16.93
647.972	16.86
648.161	16.66
648.351	16.6
648.54	16.65
648.73	16.73
648.919	16.79
649.108	16.68
649.298	16.58
649.487	16.61
649.677	16.56
649.866	16.58
650.055	16.65
650.244	16.8
650.434	16.72
650.623	16.74
650.812	16.61
651.002	16.6
651.191	16.66
651.38	16.78
651.569	16.77
651.758	16.89
651.947	16.85
652.137	16.76
652.326	16.78
652.515	16.84
652.704	16.8
652.893	16.92
653.082	16.95
653.271	17.03
653.46	17.03
653.649	17.07
653.838	17.03
654.027	17.11
654.216	17.14
654.405	17.25
654.594	17.22
654.783	17.14
654.972	17.14
655.161	17.19
655.35	17.16
655.539	17.03
655.728	16.93
655.916	16.9
656.105	16.87
656.294	16.88
656.483	16.78
656.672	16.78
656.86	16.72
657.049	16.63
657.238	16.59
657.427	16.55
657.615	16.65
657.804	16.69
657.993	16.73
658.181	16.71
658.37	16.71
658.559	16.67
658.747	16.68
658.936	16.77
659.125	16.83
659.313	16.8
659.502	16.85
659.69	16.83
659.879	16.78
660.067	16.72
660.256	16.81
660.444	16.91
660.633	16.88
660.821	16.83
661.01	16.88
661.198	16.86
661.387	16.84
661.575	16.82
661.763	16.84
661.952	16.9
662.14	16.96
662.328	16.86
662.517	16.74
662.705	16.82
662.893	17.03
663.082	16.97
663.27	16.88
663.458	16.9
663.646	16.85
663.834	16.89
664.023	16.84
664.211	16.95
664.399	16.91
664.587	16.9
664.775	16.86
664.963	16.78
665.152	16.77
665.34	16.78
665.528	16.86
665.716	16.97
665.904	16.93
666.092	16.95
666.28	16.87
666.468	16.91
666.656	16.92
666.844	16.86
667.032	16.75
667.22	16.83
667.408	16.81
667.596	16.7
667.784	16.65
667.971	16.72
668.159	16.73
668.347	16.52
668.535	16.47
668.723	16.48
668.911	16.6
669.098	16.67
669.286	16.54
669.474	16.66
669.662	16.64
669.849	16.68
670.037	16.65
670.225	16.64
670.413	16.81
670.6	16.89
670.788	16.93
670.976	16.89
671.163	16.78
671.351	16.89
671.538	16.81
671.726	16.95
671.913	16.89
672.101	16.84
672.289	16.91
672.476	17.02
672.664	17.08
672.851	17.03
673.039	16.95
673.226	17.04
673.413	17
673.601	17.04
673.788	16.94
673.976	16.86
674.163	16.87
674.35	16.83
674.538	16.69
674.725	16.6
674.912	16.65
675.1	16.79
675.287	16.73
675.474	16.91
675.662	17.04
675.849	17.02
676.036	17.06
676.223	17.14
676.411	17.13
676.598	17.19
676.785	17.15
676.972	17.22
677.159	17.21
677.346	17.26
677.533	17.08
677.721	16.98
677.908	16.98
678.095	17.04
678.282	17
678.469	17
678.656	17.02
678.843	17.12
679.03	17.03
679.217	16.96
679.404	16.87
679.591	16.87
679.778	16.89
679.964	16.87
680.151	16.85
680.338	16.86
680.525	16.96
680.712	16.94
680.899	16.92
681.086	16.94
681.272	16.98
681.459	17.17
681.646	17.25
681.833	17.21
682.02	17.28
682.206	17.35
682.393	17.3
682.58	17.14
682.766	17.17
682.953	17.08
683.14	17.22
683.326	17.36
683.513	17.2
683.7	17.22
683.886	17.33
684.073	17.27
684.259	17.28
684.446	17.42
684.632	17.49
684.819	17.42
685.005	17.53
685.192	17.49
685.378	17.4
685.565	17.41
685.751	17.31
685.938	17.11
686.124	17.12
686.31	17.02
686.497	17
686.683	17.01
686.87	17.14
687.056	16.99
687.242	16.93
687.429	17
687.615	16.97
687.801	17.06
687.987	17.1
688.174	17.12
688.36	17.15
688.546	17.17
688.732	17.22
688.918	17.11
689.105	17.15
689.291	17.14
689.477	17.08
689.663	17.22
689.849	17.17
690.035	17.35
690.221	17.35
690.407	17.37
690.593	17.16
690.779	17.29
690.965	17.3
691.151	17.43
691.337	17.57
691.523	17.54
691.709	17.44
691.895	17.57
692.081	17.45
692.267	17.63
692.453	17.56
692.639	17.71
692.825	17.42
693.011	17.54
693.196	17.55
693.382	17.38
693.568	17.28
693.754	17.24
693.94	17.15
694.125	17.19
694.311	16.99
694.497	17.07
694.682	16.96
694.868	17.13
695.054	16.94
695.239	16.88
695.425	16.8
695.611	16.79
695.796	16.92
695.982	16.94
696.168	16.92
696.353	16.96
696.539	16.89
696.724	16.81
696.91	16.78
697.095	16.71
697.281	16.74
697.466	16.83
697.652	16.86
697.837	16.8
698.023	16.74
698.208	16.79
698.393	16.77
698.579	16.79
698.764	16.9
698.949	16.83
699.135	16.89
699.32	16.82
699.505	16.76
699.691	16.81
699.876	16.82
700.061	16.86
700.246	16.82
700.432	16.77
700.617	16.86
700.802	16.86
700.987	16.99
701.172	17.07
701.358	17.1
701.543	17.29
701.728	17.29
701.913	17.33
702.098	17.44
702.283	17.44
702.468	17.47
702.653	17.25
702.838	17.41
703.023	17.34
703.208	17.35
703.393	17.38
703.578	17.29
703.763	17.3
703.948	17.25
704.133	17.22
704.318	17.13
704.503	17.33
704.688	17.48
704.873	17.38
705.057	17.27
705.242	17.28
705.427	17.33
705.612	17.13
705.797	17.18
705.981	17.22
706.166	17.27
706.351	17.3
706.536	17.25
706.72	17.13
706.905	17.03
707.09	17.18
707.274	17.14
707.459	16.92
707.644	17.1
707.828	17.11
708.013	17.14
708.197	17.07
708.382	17.04
708.567	16.88
708.751	16.93
708.936	16.99
709.12	16.98
709.305	17.05
709.489	17.25
709.673	17.09
709.858	17.04
710.042	17.14
710.227	17.13
710.411	17.15
710.596	17.5
710.78	17.56
710.964	17.54
711.149	17.49
711.333	17.59
711.517	17.57
711.702	17.54
711.886	17.5
712.07	17.27
712.254	17.26
712.438	17.25
712.623	16.96
712.807	16.96
712.991	17.09
713.175	17.03
713.359	17
713.544	17.04
713.728	17.27
713.912	17.18
714.096	17.4
714.28	17.18
714.464	17.29
714.648	17.29
714.832	17.26
715.016	17.12
715.2	17.09
715.384	16.96
715.568	16.98
715.752	16.8
715.936	16.96
716.12	16.84
716.304	16.96
716.488	16.97
716.671	16.97
716.855	16.98
717.039	17.01
717.223	17.06
717.407	17.13
717.59	17
717.774	16.99
717.958	16.93
718.142	16.94
718.325	17.04
718.509	17
718.693	17.08
718.877	16.98
719.06	16.91
719.244	16.71
719.428	16.75
719.611	16.82
719.795	16.95
719.978	16.96
720.162	16.85
720.345	16.81
720.529	16.72
720.713	16.61
720.896	16.62
721.08	16.64
721.263	16.87
721.446	16.77
721.63	16.89
721.813	16.95
721.997	16.89
722.18	16.92
722.364	17.16
722.547	17.17
722.73	17.24
722.914	17.36
723.097	17.23
723.28	17.25
723.464	17.2
723.647	17.14
723.83	17.1
724.013	17.17
724.197	17.19
724.38	17.06
724.563	17.07
724.746	17.11
724.929	17.3
725.112	17.67
725.296	17.59
725.479	17.67
725.662	17.6
725.845	17.63
726.028	17.45
726.211	17.47
726.394	17.4
726.577	17.31
726.76	17.25
726.943	17.09
727.126	16.94
727.309	17.12
727.492	17.27
727.675	17.28
727.858	17.01
728.041	17.12
728.224	17.17
728.407	17.22
728.589	17.24
728.772	17.23
728.955	17.43
729.138	17.45
729.321	17.37
729.503	17.49
729.686	17.38
729.869	17.6
730.052	17.61
730.234	17.43
730.417	17.43
730.6	17.28
730.782	17.2
730.965	16.89
731.148	16.88
731.33	16.8
731.513	16.55
731.695	16.61
731.878	16.52
732.061	16.55
732.243	16.73
732.426	16.64
732.608	16.91
732.791	16.86
732.973	16.87
733.156	16.93
733.338	17.03
733.52	16.96
733.703	17.02
733.885	17.14
734.068	17.11
734.25	17.02
734.432	17.1
734.615	17.12
734.797	17.25
734.979	17.33
735.162	17.13
735.344	17.2
735.526	17.15
735.708	17.2
735.891	17.33
736.073	17.35
736.255	17.44
736.437	17.51
736.619	17.47
736.802	17.5
736.984	17.53
737.166	17.72
737.348	17.59
737.53	17.83
737.712	17.79
737.894	17.84
738.076	18.03
738.258	18.02
738.44	17.94
738.622	17.89
738.804	17.84
738.986	17.88
739.168	18.04
739.35	18.13
739.532	18.09
739.714	17.92
739.896	17.88
740.078	17.89
740.259	17.87
740.441	17.84
740.623	17.9
740.805	17.96
740.987	17.95
741.168	17.44
741.35	17.22
741.532	17.11
741.714	17.21
741.895	17.13
742.077	16.94
742.259	17.09
742.44	17.02
742.622	16.82
742.804	16.79
742.985	16.7
743.167	16.88
743.348	17.04
743.53	17.25
743.711	17.14
743.893	16.91
744.075	16.85
744.256	16.49
744.438	16.59
744.619	16.62
744.8	16.92
744.982	16.97
745.163	17.35
745.345	17.23
745.526	17.41
745.707	17.53
745.889	17.69
746.07	17.83
746.252	18.13
746.433	18.27
746.614	18.18
746.795	18.18
746.977	18.34
747.158	18.01
747.339	17.94
747.52	17.39
747.702	17.38
747.883	17.43
748.064	17.22
748.245	17.3
748.426	16.82
748.607	17.13
748.788	16.94
748.97	16.62
749.151	16.99
749.332	17.14
749.513	17.45
749.694	17.54
749.875	17.48
750.056	17.72
750.237	17.47
750.418	17.8
750.599	17.49
750.78	17.71
750.96	18.1
751.141	18.09
751.322	18.44
751.503	18.23
751.684	18.34
751.865	18.46
752.046	18.68
752.226	18.84
752.407	18.82
752.588	19.01
752.769	18.61
752.949	18.18
753.13	18.18
753.311	18.16
753.492	17.91
753.672	17.7
753.853	17.36
754.034	17.18
754.214	17.24
754.395	17.1
754.575	17.04
754.756	16.79
754.937	16.75
755.117	16.72
755.298	16.46
755.478	16.74
755.659	16.93
755.839	17.28
756.02	17.39
756.2	17.18
756.381	17.24
756.561	17.14
756.741	17.65
756.922	17.72
757.102	17.55
757.283	17.33
757.463	17.35
757.643	17.11
757.823	16.94
758.004	16.7
758.184	17.02
758.364	17.05
758.545	17.28
758.725	17.1
758.905	17.35
759.085	17.49
759.265	17.63
759.446	17.51
759.626	17.83
759.806	17.88
759.986	17.84
760.166	17.41
760.346	17.17
760.526	17.11
760.706	17.34
760.886	17.32
761.066	17.09
761.246	17.25
761.426	17.47
761.606	17.09
761.786	17.12
761.966	17.34
762.146	17.59
762.326	17.8
762.506	17.83
762.686	17.99
762.866	17.87
763.046	17.89
763.225	17.97
763.405	17.93
763.585	18.15
763.765	17.98
763.945	17.86
764.124	17.69
764.304	17.9
764.484	17.98
764.664	17.69
764.843	17.8
765.023	17.86
765.203	17.77
765.382	17.78
765.562	17.95
765.741	18.44
765.921	18.43
766.101	18.57
766.28	18.31
766.46	18.18
766.639	18.12
766.819	17.93
766.998	17.78
767.178	17.77
767.357	17.58
767.537	17.05
767.716	16.77
767.896	16.82
768.075	16.82
768.254	17.01
768.434	17.4
768.613	17.27
768.792	17.43
768.972	17.9
769.151	17.83
769.33	18.07
769.51	18.63
769.689	18.38
769.868	18.35
770.047	18.42
770.226	18.47
770.406	17.98
770.585	18.14
770.764	18.15
770.943	17.87
771.122	17.77
771.301	17.92
771.48	17.89
771.66	18.02
771.839	17.8
772.018	17.82
772.197	17.82
772.376	18.4
772.555	18.27
772.734	18.08
772.913	18.13
773.092	18.07
773.271	17.69
773.449	17.17
773.628	17.53
773.807	17.71
773.986	17.4
774.165	17.36
774.344	16.98
774.523	17.19
774.701	17.24
774.88	17.19
775.059	17.5
775.238	17.96
775.417	17.98
775.595	18.03
775.774	18.33
775.953	18.77
776.131	18.52
776.31	18.48
776.489	18.72
776.667	18.98
776.846	19.15
777.025	18.8
777.203	18.63
777.382	19.09
777.56	18.52
777.739	18.62
777.917	18.45
778.096	18.86
778.274	19.23
778.453	19.06
778.631	19.07
778.81	19.05
778.988	19.3
779.166	19.38
779.345	19.22
779.523	19.35
779.702	19
779.88	19.36
780.058	18.82
780.237	17.99
780.415	18.5
780.593	18.46
780.771	18.48
780.95	18.4
781.128	18.36
781.306	18.33
781.484	18.71
781.662	18.81
781.841	18.39
782.019	18.66
782.197	19.23
782.375	18.89
782.553	18.92
782.731	19.24
782.909	19.06
783.087	18.92
783.265	19.08
783.443	19.06
783.621	18.78
783.799	19.1
783.977	19.09
784.155	19.06
784.333	18.33
784.511	18.64
784.689	18.22
784.867	18.66
785.045	18.37
785.223	18.17
785.4	17.58
785.578	18.03
785.756	17.81
785.934	17.73
786.112	17.73
786.289	18.19
786.467	17.49
786.645	17.58
786.823	17.12
787	17.49
787.178	17.69
787.356	18.27
787.533	18.1
787.711	18.01
787.889	18.48
788.066	18.55
788.244	18.56
788.421	18.89
788.599	18.6
788.776	18.99
788.954	18.97
789.131	19.17
789.309	19.18
789.486	19.34
789.664	19.64
789.841	18.88
790.019	18.74
790.196	18.92
790.373	18.74
790.551	19.06
790.728	19.23
790.906	19.19
791.083	18.3
791.26	17.9
791.437	17.32
791.615	17.04
791.792	17.82
791.969	17.74
792.146	17.64
792.324	18.19
792.501	18.13
792.678	17.98
792.855	17.68
793.032	18.37
793.209	18.8
793.387	19.5
793.564	19.11
793.741	19.14
793.918	19.26
794.095	19.76
794.272	19.51
794.449	18.76
794.626	18.95
794.803	18.88
794.98	18.45
795.157	17.96
795.334	17.73
795.511	18.08
795.688	17.63
795.864	17.68
796.041	17.22
796.218	17.14
796.395	17.81
796.572	17.55
796.749	17.56
796.925	17.98
797.102	17.89
797.279	18
797.456	18.23
797.632	18.05
797.809	18.44
797.986	18.46
798.162	18.93
798.339	18.84
798.516	18.53
798.692	18.98
798.869	18.86
799.046	19.25
799.222	19.24
799.399	18.55
799.575	19.24
799.752	18.4
799.928	18.22
800.105	17.66
800.281	17.9
800.458	18.41
800.634	18.19
800.811	18.55
800.987	18.44
801.163	18.38
801.34	19.02
801.516	19
801.692	19.5
801.869	19.46
802.045	20.12
802.221	20.16
802.398	19.96
802.574	19.9
802.75	19.24
802.926	19.42
803.103	18.33
803.279	18.92
803.455	18.66
803.631	18.98
803.807	19.17
803.983	18.72
804.16	18.34
804.336	17.96
804.512	17.96
804.688	18.63
804.864	18.52
805.04	20.33
805.216	19.87
805.392	19.64
805.568	19.58
805.744	20.56
805.92	20.47
806.096	20.36
806.272	20.7
806.448	20.89
806.623	20.53
806.799	20.73
806.975	20.85
807.151	21
807.327	21.22
807.503	20.88
807.678	19.42
807.854	19.44
808.03	19.62
808.206	19.77
808.381	20.21
808.557	20.24
808.733	19.51
808.908	19.16
809.084	18.55
809.26	17.97
809.435	17.96
809.611	18.77
809.787	18.6
809.962	18.5
810.138	18.7
810.313	18.35
810.489	18.44
810.664	18.8
810.84	18.26
811.015	18.77
811.191	18.83
811.366	18.6
811.542	18.33
811.717	18.28
811.892	18.87
812.068	19.21
812.243	19.12
812.419	18.81
812.594	19.45
812.769	20
812.944	19.88
813.12	19.82
813.295	19.99
813.47	20.13
813.645	20.32
813.821	20.06
813.996	19.78
814.171	20.2
814.346	21.4
814.521	21.05
814.697	20.2
814.872	20.43
815.047	20.68
815.222	20.5
815.397	20.82
815.572	21.15
815.747	21.26
815.922	20.23
816.097	19.9
816.272	19.23
816.447	18.86
816.622	19.61
816.797	18.54
816.972	18.92
817.147	19.01
817.322	18.77
817.496	18.58
817.671	18.05
817.846	18.62
818.021	18.5
818.196	18.59
818.371	18.89
818.545	18.68
818.72	19.57
818.895	19.34
819.069	19.5
819.244	19.81
819.419	19.73
819.594	19.85
819.768	19.6
819.943	19.38
820.117	19.01
820.292	18.93
820.467	18.96
820.641	18.89
820.816	18.86
820.99	18.72
821.165	18.61
821.339	18.71
821.514	18.69
821.688	18.68
821.863	18.67
822.037	18.75
822.212	18.72
822.386	18.63
822.56	18.51
822.735	18.48
822.909	18.61
823.084	18.44
823.258	18.33
823.432	18.34
823.606	18.31
823.781	18.37
823.955	18.37
824.129	18.35
824.303	18.5
824.478	18.63
824.652	18.76
824.826	18.34
825	18.6
825.174	18.59
825.348	18.43
825.523	18.56
825.697	18.35
825.871	18.27
826.045	18.4
826.219	18.33
826.393	18.14
826.567	18.22
826.741	18.48
826.915	18.46
827.089	18.63
827.263	18.87
827.437	19.05
827.611	19.36
827.784	19.27
827.958	19.15
828.132	19.39
828.306	19.72
828.48	19.59
828.654	19.86
828.827	19.68
829.001	19.28
829.175	18.75
829.349	18.39
829.522	18.48
829.696	18.81
829.87	18.94
830.044	18.75
830.217	18.82
830.391	18.66
830.565	18.69
830.738	18.73
830.912	18.86
831.085	19.4
831.259	19.78
831.432	18.83
831.606	18.35
831.779	18.39
831.953	18.15
832.126	18.07
832.3	18.05
832.473	17.77
832.647	17.75
832.82	18.2
832.994	18.28
833.167	17.98
833.34	18.31
833.514	18.45
833.687	18.44
833.86	18.26
834.034	18.38
834.207	18.6
834.38	18.43
834.553	18.58
834.727	18.42
834.9	18.55
835.073	18.62
835.246	18.56
835.419	18.54
835.593	18.89
835.766	19.73
835.939	18.89
836.112	18.51
836.285	19.5
836.458	19.8
836.631	20.34
836.804	20.46
836.977	20.92
837.15	21.35
837.323	22.14
837.496	21.19
837.669	20.54
837.842	21.44
838.015	22.31
838.188	21.2
838.361	21.14
838.533	20.76
838.706	19.68
838.879	19.28
839.052	19.08
839.225	18.22
839.398	19.44
839.57	18.14
839.743	17.63
839.916	17.91
840.088	17.9
840.261	18.67
840.434	18.72
840.607	18.28
840.779	19.05
840.952	19.18
841.124	19.39
841.297	19.14
841.47	20.14
841.642	20.89
841.815	19.74
841.987	19.81
842.16	18.8
842.332	17.89
842.505	19.18
842.677	18.91
842.85	18.86
843.022	19.36
843.194	19.5
843.367	20.67
843.539	20.59
843.712	21.87
843.884	22.88
844.056	23.15
844.229	23.31
844.401	24.02
844.573	24.38
844.745	24.92
844.918	24.72
845.09	25.05
845.262	24.16
845.434	25.09
845.606	24.53
845.779	23.87
845.951	24.23
846.123	23.19
846.295	22.23
846.467	20.89
846.639	20.08
846.811	19.88
846.983	18.75
847.155	18.81
847.327	19.14
847.499	17.41
847.671	16.93
847.843	16.63
848.015	17.71
848.187	18.55
848.359	18.1
848.531	18.41
848.703	19.62
848.875	20.99
849.047	20.36
849.218	18.99
849.39	20.72
849.562	22.14
849.734	20.25
849.905	22.11
850.077	22.27
850.249	22.12
850.421	22.71
850.592	21.25
850.764	20.01
850.936	20.54
851.107	20.12
851.279	19.85
851.451	19.54
851.622	21.29
851.794	19.61
851.965	19.19
852.137	20.3
852.308	19.79
852.48	19.62
852.651	18.83
852.823	18.31
852.994	19.83
853.166	19.86
853.337	20.14
853.509	19.1
853.68	21.05
853.851	22.6
854.023	23.08
854.194	23.75
854.365	25.37
854.537	26
854.708	26.52
854.879	23.94
855.05	25.38
855.222	24.92
855.393	26.73
855.564	22.42
855.735	21.22
855.906	22.12
856.078	21.1
856.249	20.98
856.42	19.99
856.591	21.28
856.762	23.09
856.933	22.13
857.104	21.31
857.275	20.49
857.446	22.55
857.617	21.97
857.788	20.09
857.959	17.98
858.13	16.93
858.301	17.8
858.472	15.4
858.643	14.88
858.814	17.82
858.985	19.21
859.155	20.63
859.326	21.26
859.497	22
859.668	21.41
859.839	24.76
860.009	25.63
860.18	24.71
860.351	26.46
860.522	27.41
860.692	26.38
860.863	26.37
861.034	25.65
861.204	27.03
861.375	27.72
861.546	27.93
861.716	26.86
861.887	24.23
862.057	25.92
862.228	26.01
862.398	23.6
862.569	22.7
862.739	24.72
862.91	25.37
863.08	24.89
863.251	23.06
863.421	22.02
863.592	20.22
863.762	23.48
863.932	23.51
864.103	22.67
864.273	25.45
864.443	24.99
864.614	21.74
864.784	18.77
864.954	16.64
865.125	17.14
865.295	18.59
865.465	20.39
865.635	18.89
865.805	19.19
865.976	17.46
866.146	17.09
866.316	16.84
866.486	16.51
866.656	18.2
866.826	18.92
866.996	19.85
867.166	19.16
867.336	19.28
867.506	19.49
867.676	18.61
867.846	20.42
868.016	20.37
868.186	18.67
868.356	19.16
868.526	17.86
868.696	19.36
868.866	21.17
869.036	19.97
869.206	20.2
869.376	19.67
869.545	19.32
869.715	18.79
869.885	18.68
870.055	20.41
870.224	21.14
870.394	22.38
870.564	22.81
870.734	21.33
870.903	23.89
871.073	23.82
871.243	26.74
871.412	28.71
871.582	29.7
871.751	31.56
871.921	30.92
872.091	28.92
872.26	27.98
872.43	28.37
872.599	28.83
872.769	28.05
872.938	29.17
873.108	26.83
873.277	25.12
873.446	27.64
873.616	24.93
873.785	25.95
873.955	28.88
874.124	30.89
874.293	29.92
874.463	27.79
874.632	26.6
874.801	23.76
874.971	24.08
875.14	26
875.309	22.06
875.478	24.15
875.647	24.42
875.817	22.79
875.986	18.46
876.155	17.76
876.324	16.97
876.493	20.34
876.662	22.53
876.831	23.6
877	22.41
877.17	23.65
877.339	24.81
877.508	24.9
877.677	25.88
877.846	28.82
878.015	28.84
878.184	29.26
878.352	28.21
878.521	28.93
878.69	27.37
878.859	27.21
879.028	27.32
879.197	24.64
879.366	23.25
879.534	22.32
879.703	20.76
879.872	21.26
880.041	21.7
880.21	21.43
880.378	20.18
880.547	20.63
880.716	20.81
880.884	19.9
881.053	20.16
881.222	19.95
881.39	20.42
881.559	20.98
881.727	20.5
881.896	20.21
882.065	20.1
882.233	20.26
882.402	20.1
882.57	19.54
882.739	19.77
882.907	19.77
883.076	20.02
883.244	19.49
883.412	19.18
883.581	19.6
883.749	19.4
883.918	19.44
884.086	19.56
884.254	19.39
884.423	20.03
884.591	20.32
884.759	19.83
884.927	19.94
885.096	20.53
885.264	20.95
885.432	20.45
885.6	20.3
885.769	20.68
885.937	21.53
886.105	22.06
886.273	22.49
886.441	22.32
886.609	23.51
886.777	23.22
886.945	22.63
887.113	22.67
887.281	22.72
887.449	24.53
887.617	24.53
887.785	23.12
887.953	22.96
888.121	22.23
888.289	21.71
888.457	22.18
888.625	22.65
888.793	23.88
888.961	23.5
889.129	22.14
889.296	23.01
889.464	22.51
889.632	23.02
889.8	22.89
889.967	22.36
890.135	24.58
