Data from JASIL_2993_Reflection_02.txt Node
Date: Mon Nov 09 09:48:29 EST 2015
User: Geneva
Spectrometer: USB4E03002
Autoset integration time: false
Trigger mode: 4
Integration Time (sec): 1.000000E-1
Scans to average: 10
Electric dark correction enabled: false
Nonlinearity correction enabled: false
Boxcar width: 5
Stray light correction enabled: false
XAxis mode: Wavelengths
Stop averaging: false
Number of Pixels in Spectrum: 3648
>>>>>Begin Spectral Data<<<<<
177.575	96
177.794	94.26
178.014	91.25
178.233	89.2
178.452	85.38
178.672	79.87
178.891	71.73
179.11	45.59
179.33	12.43
179.549	-37.61
179.768	-89.66
179.987	-79.11
180.207	-38.01
180.426	-40.03
180.645	-51.03
180.864	-69.01
181.084	-56.85
181.303	-49.22
181.522	-39
181.741	-15.9
181.96	23.61
182.179	43.79
182.398	47.61
182.618	66.24
182.837	72.74
183.056	83.01
183.275	102.28
183.494	84.41
183.713	101.99
183.932	101.82
184.151	94.36
184.37	72.87
184.589	44.69
184.808	27.43
185.027	16.14
185.246	-6.87
185.465	-9.04
185.684	4.68
185.903	1.15
186.122	-3.39
186.341	-25.99
186.56	-107.83
186.779	-65.54
186.998	-25.11
187.216	-5.35
187.435	-12.01
187.654	-8.95
187.873	-23.01
188.092	-33.44
188.311	-1.03
188.53	-32.25
188.748	-4.35
188.967	-2.56
189.186	4.68
189.405	-12.45
189.623	35.71
189.842	62.14
190.061	101.47
190.28	114.18
190.498	87.25
190.717	98.91
190.936	91.27
191.154	358.2
191.373	150.67
191.592	130.19
191.81	155.93
192.029	159.31
192.248	45.95
192.466	8.38
192.685	-23.19
192.904	13.38
193.122	-34.48
193.341	-63.29
193.559	-179.23
193.778	-209.93
193.996	-53.61
194.215	-45.64
194.433	-37.87
194.652	-30.29
194.87	-45.1
195.089	-19.02
195.307	-47.62
195.526	14.18
195.744	12.9
195.963	19.3
196.181	-6.98
196.399	-45.97
196.618	-47.63
196.836	-56.52
197.055	-52.66
197.273	-45.38
197.491	-42.94
197.71	-20.7
197.928	-73.67
198.146	-61.88
198.365	-103.46
198.583	-60.19
198.801	-49.29
199.019	-77.22
199.238	-86.57
199.456	-79.73
199.674	-85.99
199.892	-37.24
200.111	-132
200.329	-114.18
200.547	-6.19
200.765	-6.97
200.983	-23.51
201.202	-128.7
201.42	-154.62
201.638	-85.07
201.856	-322.54
202.074	408.11
202.292	929.27
202.51	-101.48
202.728	-70.63
202.946	-286.36
203.165	-169.73
203.383	-176.34
203.601	-151.4
203.819	-236.63
204.037	-144.26
204.255	-87.29
204.473	-47.19
204.691	-1.94
204.909	-66.78
205.127	-63.35
205.345	-26.2
205.562	-91.01
205.78	-13.67
205.998	28.05
206.216	-11.4
206.434	-37.71
206.652	-67
206.87	-91.56
207.088	-137.5
207.306	-92.01
207.523	-122.96
207.741	-78.53
207.959	-34.93
208.177	-49.41
208.395	-42.76
208.612	10.54
208.83	51.02
209.048	62.9
209.266	34.37
209.483	44.05
209.701	91.07
209.919	60.13
210.136	1.33
210.354	5.4
210.572	10.55
210.79	-26.74
211.007	6.65
211.225	-20.74
211.442	0.57
211.66	25.28
211.878	6.26
212.095	71.26
212.313	77.46
212.53	71.94
212.748	72.67
212.966	79.73
213.183	79.46
213.401	74.96
213.618	73.64
213.836	71.47
214.053	70.13
214.271	67.76
214.488	38.42
214.705	27.51
214.923	25.98
215.14	13.79
215.358	-22.42
215.575	-11.34
215.793	-24.55
216.01	-11.54
216.227	-7.33
216.445	-7.69
216.662	22.77
216.879	-6.41
217.097	35.61
217.314	63.98
217.531	38.66
217.749	18.59
217.966	35.02
218.183	42.29
218.4	64.65
218.618	30.67
218.835	10.32
219.052	-137.86
219.269	-235.09
219.487	-83.63
219.704	-452.38
219.921	477.19
220.138	412.82
220.355	368.49
220.572	0
220.79	-1069.7
221.007	-147.73
221.224	-166.18
221.441	-0.84
221.658	29.8
221.875	12.85
222.092	22.61
222.309	41.59
222.526	46.81
222.743	47.56
222.96	41.18
223.177	38.26
223.394	18.4
223.611	17.37
223.828	-35.81
224.045	-30.88
224.262	-11.67
224.479	-23.24
224.696	-24.4
224.913	-40.19
225.13	-61.72
225.347	-69.92
225.564	-50.65
225.781	-41.13
225.997	-48.72
226.214	-29.32
226.431	-24.27
226.648	-31.61
226.865	-17.24
227.082	-24.37
227.298	-29.54
227.515	-23.67
227.732	-15.24
227.949	-19.74
228.165	-15.92
228.382	-4.26
228.599	-5.53
228.816	-10.78
229.032	-14.6
229.249	-24.83
229.466	-25.72
229.682	-20.32
229.899	-15.28
230.116	-32.19
230.332	-33.53
230.549	-32.85
230.765	-72.54
230.982	-76.42
231.199	-53.02
231.415	-38.53
231.632	-30.83
231.848	-24.9
232.065	-21.3
232.281	-37.66
232.498	-14.43
232.714	-4.95
232.931	-11.25
233.147	3.38
233.364	9.96
233.58	-0.21
233.797	-1.73
234.013	-10.34
234.23	-13.72
234.446	-2.32
234.662	7.53
234.879	0
235.095	3.77
235.312	-3.18
235.528	-12.45
235.744	-10.57
235.961	-5.28
236.177	-1.84
236.393	-2.31
236.61	-2.69
236.826	-9.05
237.042	-14.62
237.258	-11.45
237.475	-14.92
237.691	-15.13
237.907	-8.94
238.123	-18.54
238.339	-30.08
238.556	-29.37
238.772	-35.36
238.988	-33.33
239.204	-31.97
239.42	-23.84
239.636	-10.49
239.853	-3.16
240.069	-2.36
240.285	-2.95
240.501	4.96
240.717	6.4
240.933	5.7
241.149	7.77
241.365	13.31
241.581	9.96
241.797	11.78
242.013	8.01
242.229	0.82
242.445	4.28
242.661	6.78
242.877	4.37
243.093	3.78
243.309	3.66
243.525	1.64
243.741	-3.23
243.957	5.4
244.173	2.7
244.388	-0.51
244.604	2.65
244.82	4.01
245.036	1.45
245.252	1.24
245.468	3.03
245.683	0.83
245.899	3.72
246.115	4.65
246.331	2.53
246.547	0.6
246.762	3.71
246.978	1.92
247.194	0.23
247.409	1.18
247.625	1.14
247.841	0.49
248.057	2.57
248.272	3.43
248.488	0.69
248.703	4.81
248.919	5.14
249.135	-1.79
249.35	-3
249.566	-4.85
249.782	-7.78
249.997	-9.99
250.213	-14.32
250.428	-10.61
250.644	-14.44
250.859	-10.25
251.075	-13.23
251.29	-9.61
251.506	-3.35
251.721	0.93
251.937	3.37
252.152	4.69
252.368	0.08
252.583	4.62
252.798	-3.57
253.014	5.15
253.229	1.34
253.445	-1.33
253.66	-7.62
253.875	-19.14
254.091	-7.25
254.306	-11.01
254.521	0
254.737	7.86
254.952	9.92
255.167	13.01
255.383	7.83
255.598	4.55
255.813	2.47
256.028	3.43
256.244	0.82
256.459	-8.68
256.674	-5.63
256.889	-7.83
257.104	-7.22
257.32	-4.89
257.535	-1.24
257.75	-1.5
257.965	0.4
258.18	2.59
258.395	3.89
258.61	5.79
258.826	5.48
259.041	4.95
259.256	2.09
259.471	3.03
259.686	1.55
259.901	0.06
260.116	0.55
260.331	-1.4
260.546	-0.98
260.761	-1.44
260.976	-4.66
261.191	-6.34
261.406	-7.35
261.621	1.81
261.836	2.99
262.05	0.33
262.265	0.78
262.48	-0.54
262.695	-0.03
262.91	-4.53
263.125	-7.36
263.34	-6.33
263.555	-1.84
263.769	1.19
263.984	0.35
264.199	-3.38
264.414	0.89
264.629	2.61
264.843	2.28
265.058	5.37
265.273	6.37
265.488	10.13
265.702	7.89
265.917	7.86
266.132	7
266.346	3.28
266.561	5.23
266.776	5.52
266.99	4.12
267.205	8.05
267.42	8.03
267.634	11.62
267.849	8.2
268.063	12.29
268.278	14.76
268.492	16.39
268.707	18.75
268.922	17.29
269.136	13.48
269.351	13.92
269.565	9.48
269.78	8.76
269.994	9.77
270.209	11.47
270.423	8.99
270.637	7.82
270.852	6.04
271.066	4.15
271.281	5.07
271.495	7.17
271.709	5.43
271.924	5.99
272.138	7.24
272.353	4.59
272.567	1.85
272.781	4.11
272.996	3.81
273.21	1.98
273.424	-0.54
273.638	-4.31
273.853	-2.98
274.067	0.26
274.281	-0.42
274.495	-3.26
274.71	-0.3
274.924	4.31
275.138	4.46
275.352	5.88
275.566	7
275.781	7.11
275.995	9.57
276.209	8.65
276.423	6.67
276.637	8.63
276.851	10.93
277.065	7.59
277.279	3.66
277.493	4.06
277.707	1.88
277.921	-0.9
278.135	0.13
278.349	-4.14
278.563	-7.23
278.777	-6.13
278.991	-7.8
279.205	-10.02
279.419	-7.84
279.633	-8.88
279.847	-11.48
280.061	-10.45
280.275	-3.46
280.489	-1.12
280.703	2.36
280.917	2.72
281.131	4.77
281.344	7.72
281.558	7.58
281.772	4.57
281.986	7.04
282.2	6.65
282.414	5.1
282.627	1.95
282.841	1.44
283.055	-0.81
283.269	2.75
283.482	2.13
283.696	1.46
283.91	1.16
284.123	1.04
284.337	1.74
284.551	3.31
284.764	6.63
284.978	9.17
285.192	8.29
285.405	10.12
285.619	6.41
285.833	4.43
286.046	3.04
286.26	1.16
286.473	3.51
286.687	1.41
286.9	1.03
287.114	-2.36
287.327	-4.95
287.541	-4.96
287.754	-7.75
287.968	-5.71
288.181	-9.55
288.395	-10.11
288.608	-8.54
288.822	-6.2
289.035	-5.94
289.248	-3.74
289.462	-4.94
289.675	-3.69
289.889	-4.09
290.102	0.1
290.315	1.58
290.529	4.03
290.742	3.73
290.955	5.67
291.169	2.37
291.382	0.71
291.595	-2.77
291.808	0.02
292.022	-0.32
292.235	2.47
292.448	1.98
292.661	0.18
292.875	1.6
293.088	2
293.301	0.85
293.514	2.06
293.727	5.53
293.94	6.92
294.153	6.57
294.367	5.2
294.58	2.04
294.793	-0.41
295.006	-0.7
295.219	1.71
295.432	2.52
295.645	3.49
295.858	3.57
296.071	3.44
296.284	3.23
296.497	2.16
296.71	3.48
296.923	6.14
297.136	6.11
297.349	8.11
297.562	7.16
297.775	7.95
297.988	8.86
298.201	9.31
298.414	9.44
298.626	11.38
298.839	11.59
299.052	11.55
299.265	11.74
299.478	12.24
299.691	10.64
299.903	11.61
300.116	8.12
300.329	6.76
300.542	6.55
300.755	6.55
300.967	4.66
301.18	6.65
301.393	4.79
301.605	2.31
301.818	2.09
302.031	2.8
302.243	0.61
302.456	2.14
302.669	5.14
302.881	3.59
303.094	1.52
303.307	0.36
303.519	-2.65
303.732	1.42
303.944	2.24
304.157	2.96
304.37	1.98
304.582	1.02
304.795	6.04
305.007	2.76
305.22	1.16
305.432	0.02
305.645	0.85
305.857	2.14
306.069	-1.31
306.282	-0.67
306.494	1.33
306.707	0.38
306.919	2.29
307.132	-2.68
307.344	-3
307.556	0.74
307.769	2.43
307.981	3.71
308.193	3.43
308.406	5.4
308.618	5.61
308.83	5.34
309.043	7.71
309.255	6.43
309.467	6.02
309.679	6.78
309.892	8.21
310.104	9.9
310.316	8.43
310.528	10.75
310.74	9.21
310.953	9.94
311.165	9.75
311.377	7.32
311.589	8.53
311.801	10.76
312.013	11.23
312.225	11.46
312.437	9.3
312.649	7.82
312.862	5.24
313.074	5.71
313.286	6.01
313.498	5.84
313.71	5.2
313.922	5.14
314.134	6.03
314.346	4.84
314.558	3.21
314.77	4.19
314.982	9.99
315.193	9.96
315.405	9.44
315.617	9.42
315.829	8.2
316.041	10.5
316.253	10.89
316.465	9.42
316.677	11.62
316.888	12.47
317.1	12.68
317.312	9.16
317.524	11.66
317.736	11.57
317.947	9.51
318.159	9.24
318.371	9.8
318.583	7.62
318.794	6.07
319.006	4.08
319.218	0.66
319.43	0.18
319.641	0.93
319.853	-2.09
320.064	-3.29
320.276	-2.14
320.488	-3.69
320.699	-2.81
320.911	0.13
321.123	2.44
321.334	2.71
321.546	2.4
321.757	-1.27
321.969	-1.9
322.18	0.91
322.392	3.76
322.603	0.5
322.815	5.33
323.026	6.21
323.238	5.07
323.449	5.15
323.661	5.92
323.872	4.14
324.083	8
324.295	6.35
324.506	6.72
324.718	5.91
324.929	8.88
325.14	6.98
325.352	7.64
325.563	10.29
325.774	9.21
325.986	8.49
326.197	10.08
326.408	8.18
326.62	9.11
326.831	10.71
327.042	7.67
327.253	8.67
327.464	8.68
327.676	8.13
327.887	3.05
328.098	5.01
328.309	5.11
328.52	5.57
328.732	8.41
328.943	9.28
329.154	5.44
329.365	12.28
329.576	12.26
329.787	14.02
329.998	14.19
330.209	18.71
330.42	17.67
330.631	15.99
330.842	16.36
331.053	17.63
331.264	20.31
331.475	22.33
331.686	20.71
331.897	22.03
332.108	21.49
332.319	20.44
332.53	17.9
332.741	18.7
332.952	22.4
333.163	22.69
333.374	21.63
333.585	17.57
333.795	16.98
334.006	16.57
334.217	14.87
334.428	16.22
334.639	16.21
334.849	17.53
335.06	17.3
335.271	16.51
335.482	15.88
335.692	14.28
335.903	15.23
336.114	14.25
336.325	12.75
336.535	13.17
336.746	11.02
336.957	12.65
337.167	14.33
337.378	14.57
337.589	13.78
337.799	11.75
338.01	12.28
338.22	13.8
338.431	14.39
338.642	15.16
338.852	13.66
339.063	12.91
339.273	15.72
339.484	15.74
339.694	14.71
339.905	14.74
340.115	19.75
340.326	18.79
340.536	17.52
340.746	17.71
340.957	18.14
341.167	21.32
341.378	21.11
341.588	16.7
341.799	16.5
342.009	18.58
342.219	17.6
342.43	15.87
342.64	17.32
342.85	22.39
343.061	22.56
343.271	22.33
343.481	19.99
343.691	21.21
343.902	23.76
344.112	22.26
344.322	19.57
344.532	20.42
344.743	19.26
344.953	18.69
345.163	15.61
345.373	15.44
345.583	15.31
345.793	14.1
346.004	14.15
346.214	13.08
346.424	13.45
346.634	14.27
346.844	14.85
347.054	15.53
347.264	13.1
347.474	13.18
347.684	13.96
347.894	14.74
348.104	16.51
348.314	16.5
348.524	17.08
348.734	20.27
348.944	19.47
349.154	19.51
349.364	20.54
349.574	24.5
349.784	25.04
349.994	26.4
350.204	26.92
350.413	26.53
350.623	26.94
350.833	24.48
351.043	20.24
351.253	23.3
351.463	22.89
351.672	22.7
351.882	22.28
352.092	22.04
352.302	20.59
352.511	19.77
352.721	20.19
352.931	19.41
353.141	18.76
353.35	21.26
353.56	19.89
353.77	17.91
353.979	17.78
354.189	18.55
354.399	18.29
354.608	18.06
354.818	18.95
355.027	18.27
355.237	20.06
355.447	21.6
355.656	18.88
355.866	19.22
356.075	19.09
356.285	18.8
356.494	16.21
356.704	14.32
356.913	11.83
357.123	11.91
357.332	12.25
357.542	12.44
357.751	11.5
357.96	13.24
358.17	13.23
358.379	15.65
358.589	14.64
358.798	15.86
359.007	17.66
359.217	19.83
359.426	18.66
359.635	18.25
359.845	17.15
360.054	16.84
360.263	18.87
360.472	18.53
360.682	17.54
360.891	18.47
361.1	18.63
361.309	18.44
361.519	17.77
361.728	17.98
361.937	18.38
362.146	19.21
362.355	21.81
362.564	18.73
362.774	19.26
362.983	20.81
363.192	20.81
363.401	20.43
363.61	19.73
363.819	20.13
364.028	18.26
364.237	18.59
364.446	16.97
364.655	15.53
364.864	17.11
365.073	16.99
365.282	15.06
365.491	16.2
365.7	16
365.909	16.4
366.118	16.59
366.327	17.77
366.536	16.84
366.745	17.82
366.954	18.23
367.162	18.46
367.371	17.3
367.58	18.4
367.789	17.04
367.998	18.65
368.207	20.13
368.415	18.58
368.624	17.74
368.833	19.69
369.042	18.35
369.25	17.72
369.459	16.34
369.668	17.96
369.877	17.44
370.085	18.69
370.294	18.19
370.503	16.21
370.711	17.83
370.92	19.42
371.129	18.71
371.337	18.96
371.546	18.95
371.754	19.83
371.963	17.38
372.171	16.62
372.38	15.48
372.589	14
372.797	11.85
373.006	11.17
373.214	10.33
373.423	11.26
373.631	10.6
373.84	10.2
374.048	10.67
374.256	11.74
374.465	12.43
374.673	12.1
374.882	12.94
375.09	15.3
375.298	15.51
375.507	16.15
375.715	15.07
375.923	16.57
376.132	17.2
376.34	15.72
376.548	17.2
376.757	17.66
376.965	18.87
377.173	19.66
377.381	18.58
377.59	19.05
377.798	18.92
378.006	18.11
378.214	17.06
378.423	16.6
378.631	17.76
378.839	16.3
379.047	16.96
379.255	16.14
379.463	15.91
379.671	16.45
379.879	15.5
380.088	15.11
380.296	14.44
380.504	16.31
380.712	15.5
380.92	15.7
381.128	17.11
381.336	16.93
381.544	17.79
381.752	17.88
381.96	18.75
382.168	18.44
382.376	19.22
382.584	20.91
382.791	20.94
382.999	20.9
383.207	20.56
383.415	18.68
383.623	17.3
383.831	17.47
384.039	16.37
384.247	16
384.454	16.95
384.662	16.69
384.87	15.84
385.078	14.23
385.285	14.92
385.493	15.54
385.701	16.48
385.909	17.63
386.116	16.12
386.324	17.75
386.532	17.2
386.739	17.65
386.947	18.46
387.155	19.45
387.362	20.07
387.57	18.77
387.778	19
387.985	19.52
388.193	19.1
388.4	19.44
388.608	17.75
388.816	18.76
389.023	18.31
389.231	17.85
389.438	17.29
389.646	17.3
389.853	18.03
390.061	15.52
390.268	13.65
390.475	14.14
390.683	13.85
390.89	14.81
391.098	14.54
391.305	13.74
391.512	14
391.72	13.6
391.927	12.49
392.135	12.31
392.342	13.49
392.549	14.64
392.756	13.67
392.964	13.82
393.171	13.37
393.378	12.55
393.586	13.53
393.793	13.02
394	14.49
394.207	16.21
394.414	17.03
394.622	16.98
394.829	17.67
395.036	18.41
395.243	18.84
395.45	18.82
395.657	19.38
395.864	18.2
396.072	17.61
396.279	17.12
396.486	15.4
396.693	16.41
396.9	16.9
397.107	15.85
397.314	15.18
397.521	15.12
397.728	15.96
397.935	15.72
398.142	16.14
398.349	15.35
398.556	14.92
398.763	15.01
398.97	13.29
399.177	13.28
399.383	13.65
399.59	12.96
399.797	13.1
400.004	12.53
400.211	12.4
400.418	12.73
400.625	14.29
400.831	13.93
401.038	13.46
401.245	13.08
401.452	12.77
401.658	12.98
401.865	13.99
402.072	13.6
402.279	12.09
402.485	12.15
402.692	11.76
402.899	12.05
403.105	12.04
403.312	12.8
403.519	12.55
403.725	12.79
403.932	12.78
404.138	12.7
404.345	13.1
404.552	14.11
404.758	14.93
404.965	16.05
405.171	15.85
405.378	16.31
405.584	15.5
405.791	17.28
405.997	16.9
406.204	16.37
406.41	16.24
406.617	15.78
406.823	15.1
407.029	14.11
407.236	12.84
407.442	12.87
407.649	12.6
407.855	11.94
408.061	11.1
408.268	11.51
408.474	12.33
408.68	13.26
408.887	12.39
409.093	13.15
409.299	13.97
409.505	14.33
409.712	12.68
409.918	12.25
410.124	14.02
410.33	13.8
410.537	14.49
410.743	13.81
410.949	12.81
411.155	14
411.361	14.54
411.567	14.27
411.773	14.24
411.98	15.3
412.186	15.24
412.392	14.36
412.598	14.66
412.804	13.13
413.01	13.07
413.216	12.87
413.422	13.05
413.628	12.51
413.834	11.96
414.04	11.68
414.246	11.97
414.452	11.86
414.658	11.94
414.864	11.15
415.07	11.69
415.275	11.31
415.481	12.29
415.687	11.42
415.893	11.47
416.099	11.29
416.305	11.13
416.511	10.99
416.716	10.73
416.922	11.64
417.128	12.16
417.334	11.68
417.539	12.55
417.745	12.57
417.951	12.56
418.157	12.44
418.362	12.66
418.568	12.82
418.774	12.64
418.979	13.4
419.185	13.21
419.391	13.06
419.596	13.52
419.802	13.55
420.008	13.05
420.213	13.32
420.419	13.43
420.624	13.33
420.83	13.63
421.035	13.93
421.241	13.68
421.446	13.09
421.652	13.29
421.857	13.15
422.063	12.83
422.268	12.91
422.474	12.71
422.679	12.66
422.885	12.79
423.09	12.87
423.295	12.79
423.501	12.47
423.706	12.6
423.911	12.21
424.117	12.01
424.322	12.33
424.527	12.44
424.733	12.56
424.938	12.43
425.143	12.38
425.349	12.3
425.554	13.03
425.759	13.41
425.964	14.4
426.169	14.79
426.375	14.94
426.58	14.76
426.785	14.58
426.99	14.53
427.195	15.12
427.4	15.65
427.605	14.83
427.811	13.96
428.016	13.89
428.221	13.6
428.426	13.22
428.631	13.18
428.836	13.16
429.041	13.75
429.246	13.65
429.451	12.91
429.656	12.49
429.861	12.95
430.066	12.61
430.271	12.68
430.476	12.18
430.681	12.36
430.886	12.59
431.09	12.69
431.295	12.58
431.5	13
431.705	13.36
431.91	13.66
432.115	13.69
432.32	13.67
432.524	13.59
432.729	13.68
432.934	13.23
433.139	13.66
433.343	13.53
433.548	13.52
433.753	13.3
433.958	13.71
434.162	13.87
434.367	13.97
434.572	13.91
434.776	14.19
434.981	13.99
435.186	14.74
435.39	14.82
435.595	14.24
435.799	13.87
436.004	14.42
436.209	13.99
436.413	13.46
436.618	13.46
436.822	13.13
437.027	12.51
437.231	12.74
437.436	12.79
437.64	12.56
437.845	12.55
438.049	12.89
438.253	12.3
438.458	11.74
438.662	11.53
438.867	11.48
439.071	11.76
439.275	12.23
439.48	12.14
439.684	11.9
439.888	11.68
440.093	11.53
440.297	11.84
440.501	12.44
440.706	12.47
440.91	12.56
441.114	12.56
441.318	13.04
441.523	12.73
441.727	12.89
441.931	13.41
442.135	13.21
442.339	13.57
442.543	13.45
442.748	12.8
442.952	12.53
443.156	12.18
443.36	12.07
443.564	11.39
443.768	11.64
443.972	11.25
444.176	10.82
444.38	11.02
444.584	11.27
444.788	10.85
444.992	10.75
445.196	11.04
445.4	11.75
445.604	12.16
445.808	12.33
446.012	12.35
446.216	12.36
446.42	12.48
446.624	12.34
446.828	12.47
447.032	12.44
447.235	12.3
447.439	12.37
447.643	12.64
447.847	12.05
448.051	11.87
448.254	11.85
448.458	12.15
448.662	12.22
448.866	11.76
449.069	11.68
449.273	11.09
449.477	11.55
449.681	12.22
449.884	11.61
450.088	12.07
450.292	12.62
450.495	12.66
450.699	13.14
450.902	13.05
451.106	14.01
451.31	13.36
451.513	14.26
451.717	14.73
451.92	13.86
452.124	13.94
452.327	13.8
452.531	13.41
452.734	13.18
452.938	12.62
453.141	12.84
453.345	12.85
453.548	12.77
453.752	12.71
453.955	12.24
454.158	12.64
454.362	13.09
454.565	13.78
454.769	14.52
454.972	14.73
455.175	14.5
455.379	13.9
455.582	13.35
455.785	14.14
455.988	13.61
456.192	13.16
456.395	13.58
456.598	12.87
456.801	11.5
457.005	11.14
457.208	10.78
457.411	10.95
457.614	10.99
457.817	11.28
458.021	11.08
458.224	11.14
458.427	11.09
458.63	10.79
458.833	10.66
459.036	10.97
459.239	11.06
459.442	11.52
459.645	11.66
459.848	11.41
460.051	11.42
460.254	11.85
460.457	12.3
460.66	13.06
460.863	13.35
461.066	13.44
461.269	13.56
461.472	13.3
461.675	12.68
461.878	12.67
462.081	13.7
462.284	13.32
462.486	13.06
462.689	13.31
462.892	12.95
463.095	12.57
463.298	12.86
463.5	12.99
463.703	12.76
463.906	13.02
464.109	13.2
464.311	12.74
464.514	13.06
464.717	12.96
464.92	12.96
465.122	12.32
465.325	12.35
465.528	12.78
465.73	12.73
465.933	13.71
466.135	13.34
466.338	12.71
466.541	13.36
466.743	13.86
466.946	14.06
467.148	13.59
467.351	14.81
467.553	14.75
467.756	14.68
467.958	15.23
468.161	14.41
468.363	14.59
468.566	14.87
468.768	14.03
468.971	13.27
469.173	12.94
469.375	12.76
469.578	11.53
469.78	11.69
469.983	11.03
470.185	10.5
470.387	10.3
470.59	11.04
470.792	11.16
470.994	11.17
471.196	11.68
471.399	12.02
471.601	12.58
471.803	12.94
472.005	12.94
472.208	13.65
472.41	13.83
472.612	14.24
472.814	13.57
473.016	13.33
473.218	13.9
473.421	13.73
473.623	13.57
473.825	13.69
474.027	13.59
474.229	13.75
474.431	13.34
474.633	13.18
474.835	13.29
475.037	13.11
475.239	13.14
475.441	12.88
475.643	13.09
475.845	13.25
476.047	13.06
476.249	13.51
476.451	13.46
476.653	13.25
476.855	13.78
477.057	13.85
477.258	14.55
477.46	15.21
477.662	15.13
477.864	15.01
478.066	14.6
478.268	14.34
478.469	14.46
478.671	15.11
478.873	15.26
479.075	14.49
479.276	14.51
479.478	14.38
479.68	14.04
479.882	14.32
480.083	14.1
480.285	14.46
480.487	14.7
480.688	14.22
480.89	13.29
481.091	13.2
481.293	13.08
481.495	12.83
481.696	12.5
481.898	12.19
482.099	11.9
482.301	12
482.502	11.82
482.704	11.66
482.905	11.75
483.107	12
483.308	12.09
483.51	12.18
483.711	12.03
483.913	12.09
484.114	12.12
484.315	12.18
484.517	12.16
484.718	12.19
484.92	12.21
485.121	12.03
485.322	11.75
485.524	11.7
485.725	11.7
485.926	11.85
486.127	11.56
486.329	11.55
486.53	11.74
486.731	11.59
486.932	11.67
487.134	11.58
487.335	11.5
487.536	11.66
487.737	11.68
487.938	11.79
488.139	11.95
488.341	12.42
488.542	12.66
488.743	12.44
488.944	12.51
489.145	12.31
489.346	12.52
489.547	12.66
489.748	12.51
489.949	12.27
490.15	12.05
490.351	11.69
490.552	11.67
490.753	11.63
490.954	11.41
491.155	11.5
491.356	11.63
491.557	11.48
491.758	11.7
491.959	11.93
492.159	11.95
492.36	12.15
492.561	12.77
492.762	12.82
492.963	13
493.164	13.65
493.364	14.14
493.565	14.26
493.766	14.45
493.967	14.7
494.167	14.43
494.368	14.81
494.569	14.92
494.769	14.81
494.97	14.88
495.171	14.79
495.371	14.56
495.572	14.12
495.773	14.03
495.973	13.97
496.174	14.31
496.375	14.23
496.575	14.01
496.776	14.55
496.976	14.41
497.177	14.28
497.377	14.33
497.578	14.13
497.778	14.58
497.979	14.69
498.179	15.07
498.38	14.55
498.58	14.83
498.78	15.42
498.981	14.62
499.181	14.57
499.382	14.54
499.582	14.58
499.782	14.95
499.983	14.73
500.183	14.91
500.383	14.5
500.584	13.98
500.784	14.31
500.984	14.06
501.184	14.48
501.385	14.72
501.585	14.66
501.785	14.81
501.985	15.04
502.185	15.1
502.386	14.44
502.586	14.73
502.786	15.34
502.986	15.07
503.186	14.7
503.386	14.95
503.586	15.24
503.786	15.81
503.987	15.55
504.187	15.54
504.387	15.77
504.587	16.1
504.787	16.39
504.987	16.18
505.187	16.6
505.387	16.77
505.587	16.06
505.786	15.7
505.986	15.44
506.186	15.23
506.386	15.07
506.586	14.85
506.786	15.5
506.986	15.52
507.186	15.66
507.386	15.21
507.585	15.68
507.785	16.14
507.985	15.96
508.185	15.81
508.384	15.8
508.584	15.73
508.784	15.66
508.984	15.51
509.183	15.07
509.383	15.17
509.583	15.65
509.782	15.54
509.982	15.27
510.182	15.67
510.381	16.21
510.581	16.88
510.781	17.3
510.98	17.31
511.18	17.38
511.379	17.7
511.579	17.08
511.778	17.1
511.978	17.05
512.177	17.55
512.377	17.55
512.576	17.28
512.776	17.41
512.975	17.08
513.175	17.44
513.374	17.09
513.573	17.21
513.773	18.31
513.972	18.05
514.172	18.41
514.371	18.19
514.57	18.34
514.77	18.85
514.969	18.55
515.168	18.83
515.367	18.62
515.567	19.12
515.766	18.83
515.965	18.49
516.164	18.33
516.364	18.17
516.563	18.33
516.762	17.88
516.961	17.82
517.16	18.23
517.359	18.48
517.559	18.5
517.758	18.54
517.957	19.05
518.156	18.96
518.355	19.24
518.554	19.03
518.753	19.11
518.952	19.55
519.151	19.51
519.35	18.96
519.549	18.82
519.748	18.95
519.947	18.96
520.146	18.61
520.345	19.34
520.544	19.44
520.743	19.05
520.942	18.88
521.141	19.33
521.339	19.59
521.538	19.92
521.737	20.25
521.936	20.32
522.135	20.23
522.333	20.53
522.532	20.26
522.731	20.46
522.93	21.25
523.129	21.84
523.327	21.74
523.526	21.38
523.725	21.23
523.923	21.14
524.122	21.1
524.321	20.98
524.519	20.67
524.718	20.7
524.917	20.83
525.115	20.78
525.314	20.71
525.512	20.59
525.711	20.64
525.909	20.7
526.108	20.88
526.306	20.99
526.505	20.86
526.703	21.3
526.902	21.21
527.1	20.98
527.299	21
527.497	20.85
527.696	20.8
527.894	20.8
528.092	20.97
528.291	20.86
528.489	21.01
528.688	21.46
528.886	21.47
529.084	21.62
529.283	21.81
529.481	22.08
529.679	22.29
529.877	22.43
530.076	22.54
530.274	22.71
530.472	22.93
530.67	22.98
530.869	22.9
531.067	22.57
531.265	22.65
531.463	22.7
531.661	22.57
531.859	22.81
532.057	23
532.255	22.98
532.454	22.98
532.652	23.26
532.85	23.1
533.048	23.16
533.246	23.54
533.444	23.83
533.642	24.09
533.84	24.33
534.038	24.09
534.236	24.1
534.434	24.3
534.632	24.23
534.83	24.11
535.027	24.35
535.225	24.24
535.423	24.26
535.621	23.93
535.819	23.78
536.017	23.84
536.215	24.24
536.412	24.32
536.61	24.9
536.808	25.15
537.006	25.13
537.203	25.28
537.401	25.77
537.599	25.73
537.797	26.15
537.994	26.3
538.192	26.52
538.39	26.38
538.587	26.54
538.785	26.12
538.983	26.37
539.18	26.41
539.378	26.12
539.575	25.71
539.773	25.75
539.97	25.35
540.168	25.47
540.366	25.28
540.563	25.39
540.761	25.22
540.958	25.31
541.155	24.93
541.353	24.87
541.55	25.25
541.748	25.52
541.945	25.6
542.143	26.02
542.34	26
542.537	26.14
542.735	25.93
542.932	26.23
543.129	26.37
543.327	26.68
543.524	27.12
543.721	26.98
543.919	26.97
544.116	27.12
544.313	27.43
544.51	27.48
544.708	27.64
544.905	27.98
545.102	28.24
545.299	28.71
545.496	29.32
545.693	29.05
545.891	29.42
546.088	29.35
546.285	29.84
546.482	29.46
546.679	29.71
546.876	29.74
547.073	30.21
547.27	30.24
547.467	30.37
547.664	29.95
547.861	30.21
548.058	29.97
548.255	30.08
548.452	29.41
548.649	29.85
548.846	29.86
549.043	30.18
549.24	30.07
549.437	30.45
549.633	30.09
549.83	29.92
550.027	30
550.224	30.51
550.421	30.88
550.618	31.27
550.814	30.99
551.011	31.17
551.208	31.45
551.405	31.55
551.601	31.66
551.798	31.63
551.995	31.74
552.191	31.46
552.388	31.39
552.585	31.56
552.781	31.27
552.978	31.9
553.175	32.42
553.371	32.62
553.568	32.4
553.764	32.11
553.961	32.5
554.157	33.42
554.354	33.71
554.55	34.11
554.747	34.03
554.943	34.66
555.14	34.73
555.336	34.42
555.533	33.82
555.729	34.06
555.926	33.87
556.122	33.83
556.318	33.22
556.515	33.26
556.711	33.08
556.907	33.17
557.104	33.35
557.3	32.89
557.496	32.6
557.693	33.33
557.889	33.52
558.085	34.11
558.281	34.36
558.478	34.74
558.674	34.81
558.87	35.06
559.066	34.76
559.262	34.42
559.459	33.85
559.655	34.53
559.851	34.23
560.047	33.79
560.243	33.08
560.439	32.47
560.635	32.5
560.831	32.41
561.027	32.1
561.223	32.94
561.419	33.01
561.615	33.88
561.811	33.75
562.007	33.31
562.203	33.18
562.399	33.47
562.595	33.36
562.791	32.93
562.987	33.31
563.183	33.81
563.379	33.46
563.575	33.09
563.771	33
563.966	32.77
564.162	33.61
564.358	34.16
564.554	34.5
564.75	35.13
564.945	35.12
565.141	35.64
565.337	34.84
565.533	34.98
565.728	35.4
565.924	35.43
566.12	35.46
566.315	35.38
566.511	35.27
566.707	34.82
566.902	34.24
567.098	34.61
567.293	34.35
567.489	34.84
567.684	34.73
567.88	35.12
568.076	34.97
568.271	34.78
568.467	34.28
568.662	33.92
568.858	34.97
569.053	35.45
569.248	35.34
569.444	34.6
569.639	34.7
569.835	34.64
570.03	34.32
570.225	34.7
570.421	34.75
570.616	35.12
570.812	34.91
571.007	34.35
571.202	34.41
571.397	34.62
571.593	35.24
571.788	35.78
571.983	36.62
572.178	36.57
572.374	36.49
572.569	36.5
572.764	35.93
572.959	36.3
573.154	36.28
573.35	36.08
573.545	35.79
573.74	35.91
573.935	35.46
574.13	34.75
574.325	34.87
574.52	34.98
574.715	35.28
574.91	35.6
575.105	36.45
575.3	36.22
575.495	36.24
575.69	36.48
575.885	36.43
576.08	36.68
576.275	36.46
576.47	36.66
576.665	37.75
576.86	38.71
577.055	38.55
577.25	37.62
577.444	37.84
577.639	38.11
577.834	38.46
578.029	38.98
578.224	38.07
578.418	39.05
578.613	39.17
578.808	37.77
579.003	36.6
579.197	37.04
579.392	37.49
579.587	37.89
579.781	38.05
579.976	38
580.171	37.44
580.365	38.99
580.56	39.14
580.755	39.65
580.949	40.21
581.144	40.76
581.338	41.45
581.533	41.25
581.727	40.77
581.922	40.44
582.116	40.44
582.311	39.57
582.505	39.53
582.7	39.28
582.894	39.37
583.089	39.76
583.283	39.68
583.478	39.2
583.672	40.05
583.866	41.01
584.061	41.16
584.255	40.75
584.449	41.3
584.644	40.95
584.838	40.9
585.032	40.99
585.226	40.16
585.421	40.42
585.615	40.56
585.809	39.51
586.003	39.37
586.198	39.62
586.392	39.45
586.586	39.39
586.78	38.74
586.974	37.78
587.168	37.07
587.363	37.45
587.557	37.25
587.751	36.88
587.945	36.96
588.139	36.6
588.333	36.68
588.527	36.72
588.721	37.02
588.915	36.66
589.109	37.37
589.303	36.86
589.497	36.17
589.691	35.39
589.885	35.24
590.079	35.43
590.273	35.62
590.466	35.25
590.66	34.97
590.854	35.15
591.048	35.69
591.242	35.03
591.436	35.54
591.629	35.53
591.823	36.68
592.017	36.93
592.211	36.49
592.404	36.04
592.598	35.74
592.792	35.78
592.986	35.46
593.179	35.23
593.373	35.8
593.567	34.94
593.76	34.93
593.954	34.5
594.147	34.23
594.341	34.85
594.535	34.88
594.728	35.66
594.922	36.19
595.115	35.89
595.309	36.24
595.502	36.02
595.696	36.85
595.889	37.42
596.083	37.37
596.276	37.3
596.47	37.3
596.663	37.53
596.856	37.57
597.05	37.99
597.243	38.3
597.437	38.7
597.63	39.16
597.823	39.26
598.017	38.4
598.21	39.07
598.403	39.05
598.596	39.19
598.79	39.6
598.983	39.94
599.176	39.96
599.369	40.45
599.563	40.06
599.756	40.34
599.949	40.35
600.142	41.27
600.335	40.44
600.528	40.71
600.722	40.52
600.915	40.43
601.108	39.93
601.301	38.61
601.494	38.36
601.687	38.16
601.88	37.02
602.073	36.21
602.266	36.59
602.459	36.93
602.652	36.92
602.845	37.16
603.038	37.04
603.231	36.67
603.424	37.04
603.617	36.78
603.809	36.69
604.002	36.86
604.195	38.26
604.388	37.86
604.581	37.96
604.774	38.76
604.966	38.5
605.159	38.7
605.352	39.43
605.545	39.45
605.737	39.99
605.93	40.35
606.123	41.23
606.316	40.17
606.508	40.34
606.701	39.56
606.894	39.51
607.086	39.19
607.279	39.2
607.471	38.6
607.664	39.22
607.857	38.5
608.049	38.61
608.242	38.03
608.434	38.03
608.627	38.1
608.819	38.59
609.012	37.97
609.204	38.89
609.397	38.4
609.589	38.39
609.782	38.49
609.974	38.75
610.166	38.5
610.359	39.45
610.551	40.13
610.743	40.15
610.936	40.19
611.128	40.25
611.32	39.01
611.513	39.4
611.705	40.25
611.897	39.83
612.09	40.56
612.282	41.18
612.474	40.75
612.666	40.42
612.858	41.32
613.051	41.71
613.243	43.31
613.435	43.65
613.627	43.67
613.819	42.84
614.011	43.84
614.203	44.02
614.395	43.71
614.588	43.54
614.78	43.76
614.972	42.75
615.164	42.32
615.356	40.95
615.548	41.57
615.74	42.07
615.932	42.34
616.124	41.43
616.315	40.74
616.507	40.78
616.699	40.72
616.891	40.64
617.083	42.28
617.275	42.87
617.467	43.22
617.659	43.9
617.85	44.05
618.042	44.23
618.234	44.03
618.426	44.77
618.618	44.4
618.809	45.23
619.001	45.32
619.193	43.39
619.384	43.61
619.576	43.97
619.768	42.53
619.959	42.2
620.151	42.44
620.343	42.97
620.534	43.08
620.726	42.96
620.917	42.15
621.109	42.27
621.301	42.74
621.492	43.12
621.684	43.08
621.875	44.28
622.067	44.37
622.258	43.47
622.45	43.86
622.641	43.27
622.832	43.56
623.024	43.87
623.215	44.01
623.407	43.67
623.598	43.09
623.789	42.85
623.981	41.7
624.172	42.27
624.363	42.92
624.555	42.2
624.746	42.51
624.937	42.35
625.129	42.51
625.32	41.73
625.511	41.52
625.702	41.9
625.893	41.49
626.085	42.21
626.276	41.11
626.467	41.14
626.658	41.23
626.849	40.98
627.04	40.48
627.231	40.08
627.422	40.34
627.614	40.63
627.805	39.65
627.996	40.5
628.187	40.51
628.378	41.15
628.569	41.05
628.76	40.47
628.951	40.8
629.142	42.06
629.332	41.8
629.523	41.89
629.714	42.23
629.905	42.18
630.096	41.42
630.287	41.71
630.478	40.95
630.669	40.02
630.859	41.58
631.05	40.79
631.241	40.6
631.432	40.35
631.623	40.42
631.813	39.77
632.004	40.76
632.195	40.59
632.385	38.83
632.576	38.84
632.767	39.57
632.957	38.92
633.148	39.72
633.339	39.51
633.529	40.61
633.72	40.64
633.91	41.22
634.101	40.9
634.292	41.08
634.482	41.82
634.673	42.23
634.863	42.04
635.054	42.78
635.244	43
635.435	43.09
635.625	42.04
635.815	41.89
636.006	41.4
636.196	41.56
636.387	41.46
636.577	41.93
636.767	42.79
636.958	42.84
637.148	42.38
637.338	42.46
637.529	42.35
637.719	43.1
637.909	42.82
638.099	43.94
638.29	44.46
638.48	44.47
638.67	45.26
638.86	44.98
639.05	46.12
639.241	45.35
639.431	44.19
639.621	43.13
639.811	43.8
640.001	44.3
640.191	43.86
640.381	42.92
640.571	42.11
640.761	41.38
640.951	41.43
641.141	41.17
641.331	41.31
641.521	43.44
641.711	44.22
641.901	43.94
642.091	42.77
642.281	44.03
642.471	44.01
642.661	46.6
642.851	45.88
643.041	45.16
643.231	44.76
643.42	45.62
643.61	43.29
643.8	43.68
643.99	43.64
644.18	45.22
644.369	43.49
644.559	43.25
644.749	41.42
644.939	42.24
645.128	43.48
645.318	42.3
645.508	41.37
645.697	42.78
645.887	42.58
646.076	42.62
646.266	43.04
646.456	42.88
646.645	43.71
646.835	45.02
647.024	44.59
647.214	43.45
647.403	44.78
647.593	45.63
647.782	44.67
647.972	43.85
648.161	43.26
648.351	42.12
648.54	42.97
648.73	41.85
648.919	41.19
649.108	41.19
649.298	41.13
649.487	40.61
649.677	40.23
649.866	40.29
650.055	41.19
650.244	41.94
650.434	42.72
650.623	42.81
650.812	44.22
651.002	44.5
651.191	45.46
651.38	46.11
651.569	47.03
651.758	48.21
651.947	48.57
652.137	48.47
652.326	48.79
652.515	46.49
652.704	46.65
652.893	45.83
653.082	46.25
653.271	45.91
653.46	45.12
653.649	44.37
653.838	43.99
654.027	44.22
654.216	44.4
654.405	43.8
654.594	45.72
654.783	45.45
654.972	44.77
655.161	42.63
655.35	42.65
655.539	43.51
655.728	43.83
655.916	42.82
656.105	42.34
656.294	42.71
656.483	41.43
656.672	41.72
656.86	40.9
657.049	42.11
657.238	44
657.427	45.16
657.615	45.19
657.804	45.44
657.993	45.37
658.181	46.2
658.37	46.31
658.559	47.87
658.747	47.32
658.936	47.48
659.125	46.26
659.313	45.64
659.502	44.52
659.69	43.83
659.879	43.62
660.067	44.84
660.256	44.72
660.444	44.49
660.633	44.01
660.821	44.43
661.01	45.34
661.198	46
661.387	45.64
661.575	45.69
661.763	46.42
661.952	47.54
662.14	47.23
662.328	46.5
662.517	47.46
662.705	46.62
662.893	47.47
663.082	47.08
663.27	48.4
663.458	48.68
663.646	49.07
663.834	49
664.023	48.61
664.211	48
664.399	48.38
664.587	47.2
664.775	48.25
664.963	48.13
665.152	48.67
665.34	46.84
665.528	47.14
665.716	47.2
665.904	46.2
666.092	44.92
666.28	45.32
666.468	45.22
666.656	45.61
666.844	45.45
667.032	45.19
667.22	44.58
667.408	45.97
667.596	45.96
667.784	46.42
667.971	47.09
668.159	47.49
668.347	46.79
668.535	46.97
668.723	47.32
668.911	46.36
669.098	45.87
669.286	45.89
669.474	44.35
669.662	44.31
669.849	43.68
670.037	43.84
670.225	43.87
670.413	44.36
670.6	43.57
670.788	41.93
670.976	42.59
671.163	42.51
671.351	41.48
671.538	41.42
671.726	42.02
671.913	42.89
672.101	42.93
672.289	44.43
672.476	44.81
672.664	45.68
672.851	47.77
673.039	47.61
673.226	47.59
673.413	48.29
673.601	48.14
673.788	47.18
673.976	46.45
674.163	46.78
674.35	44.98
674.538	44.97
674.725	44.08
674.912	44.65
675.1	45.61
675.287	45.02
675.474	46.34
675.662	48.05
675.849	48.94
676.036	47.88
676.223	47.43
676.411	46.9
676.598	45.7
676.785	46.28
676.972	45.2
677.159	44.35
677.346	44.55
677.533	42.51
677.721	42.14
677.908	42.69
678.095	43.82
678.282	43.74
678.469	44.15
678.656	44.5
678.843	44.79
679.03	43.58
679.217	44.04
679.404	43.34
679.591	45.27
679.778	45.03
679.964	44.18
680.151	43.14
680.338	42.04
680.525	41.17
680.712	41.89
680.899	43.01
681.086	44.29
681.272	44.8
681.459	46.72
681.646	45.26
681.833	46.06
682.02	46.24
682.206	46.42
682.393	47.25
682.58	47.07
682.766	45.93
682.953	44.83
683.14	44.82
683.326	43.25
683.513	43.25
683.7	43.08
683.886	42.21
684.073	39.53
684.259	40.13
684.446	39.61
684.632	40.99
684.819	41.21
685.005	41.41
685.192	40.39
685.378	42.16
685.565	41.01
685.751	43.27
685.938	42.71
686.124	44.88
686.31	43.14
686.497	44.79
686.683	43.54
686.87	43.67
687.056	42.69
687.242	42.53
687.429	41.52
687.615	42.49
687.801	41.8
687.987	40.5
688.174	40.04
688.36	41.58
688.546	40.73
688.732	42.86
688.918	41.58
689.105	41.12
689.291	41.79
689.477	41.52
689.663	40.48
689.849	40.25
690.035	42.87
690.221	43.92
690.407	42.43
690.593	43.41
690.779	42.37
690.965	43.23
691.151	44.15
691.337	42.71
691.523	43.18
691.709	43.81
691.895	44.48
692.081	43.93
692.267	42.65
692.453	42.98
692.639	41.8
692.825	41.15
693.011	42.04
693.196	41.97
693.382	43.41
693.568	42.54
693.754	40.76
693.94	39.86
694.125	39.64
694.311	39.17
694.497	42.34
694.682	43.4
694.868	43.29
695.054	43.78
695.239	43.78
695.425	44.99
695.611	46.06
695.796	47.95
695.982	46.97
696.168	46.44
696.353	45.18
696.539	42.49
696.724	42.48
696.91	42.83
697.095	42.1
697.281	41.81
697.466	40.35
697.652	39.11
697.837	38.55
698.023	38.93
698.208	38.69
698.393	40.32
698.579	40.32
698.764	39.77
698.949	39.87
699.135	39.62
699.32	38.8
699.505	39.13
699.691	40.57
699.876	41.91
700.061	43.26
700.246	42.88
700.432	43.05
700.617	44.51
700.802	46.26
700.987	46.23
701.172	48.31
701.358	50.12
701.543	49.27
701.728	48.9
701.913	48.24
702.098	44.93
702.283	47.16
702.468	46
702.653	45.72
702.838	44.44
703.023	43.18
703.208	41.74
703.393	40.8
703.578	41.99
703.763	43.45
703.948	42.68
704.133	44
704.318	41.52
704.503	43.41
704.688	42.58
704.873	41.22
705.057	43.22
705.242	44.77
705.427	45.8
705.612	46.55
705.797	46.76
705.981	46.4
706.166	46.19
706.351	47.13
706.536	47.16
706.72	48.52
706.905	49.72
707.09	49.91
707.274	49.28
707.459	48.54
707.644	48.49
707.828	48.1
708.013	47.9
708.197	49.04
708.382	49.14
708.567	49.93
708.751	51.58
708.936	53.07
709.12	51.1
709.305	51.35
709.489	51.93
709.673	52.49
709.858	51.4
710.042	51.32
710.227	50.54
710.411	51.71
710.596	50.81
710.78	50.22
710.964	47.19
711.149	49.4
711.333	49.37
711.517	49.89
711.702	49.81
711.886	50.14
712.07	50.83
712.254	51.84
712.438	52.98
712.623	51.77
712.807	51.18
712.991	51.84
713.175	50.41
713.359	49.53
713.544	49.39
713.728	47.96
713.912	46.05
714.096	46.33
714.28	47.04
714.464	43.87
714.648	42.37
714.832	41.48
715.016	40.61
715.2	40.5
715.384	39.08
715.568	37.06
715.752	38.28
715.936	39.55
716.12	38.97
716.304	36.15
716.488	36.87
716.671	38.15
716.855	36.69
717.039	36.92
717.223	37.93
717.407	38.24
717.59	39.41
717.774	40.08
717.958	37.87
718.142	36.42
718.325	37.66
718.509	37.03
718.693	37.9
718.877	38.85
719.06	40.74
719.244	40.15
719.428	41.67
719.611	41.85
719.795	38.66
719.978	41.95
720.162	44.57
720.345	44.66
720.529	45.15
720.713	43.24
720.896	40.8
721.08	38.5
721.263	39.22
721.446	37.79
721.63	37.65
721.813	38.64
721.997	38.13
722.18	36.72
722.364	38.36
722.547	38.08
722.73	40.24
722.914	43.51
723.097	45.2
723.28	41.8
723.464	41.39
723.647	43.38
723.83	43.16
724.013	44.71
724.197	43.72
724.38	42.35
724.563	42.93
724.746	44.36
724.929	43.03
725.112	43.76
725.296	47.25
725.479	47.47
725.662	44.7
725.845	43.91
726.028	43.69
726.211	43.2
726.394	43.57
726.577	42.81
726.76	41.36
726.943	41.09
727.126	39.04
727.309	37.01
727.492	35.8
727.675	37.89
727.858	37.8
728.041	36.32
728.224	35.13
728.407	34.15
728.589	34.65
728.772	34.23
728.955	35.58
729.138	36.5
729.321	35.9
729.503	38.59
729.686	36.68
729.869	37.54
730.052	37.89
730.234	40.26
730.417	39.59
730.6	41.47
730.782	39.85
730.965	40.61
731.148	41.59
731.33	41.82
731.513	40.13
731.695	42.79
731.878	45.4
732.061	46.98
732.243	48.24
732.426	49.35
732.608	48.47
732.791	50.58
732.973	49.74
733.156	48.59
733.338	51.39
733.52	55.15
733.703	51.82
733.885	48.37
734.068	50.04
734.25	48.76
734.432	50.84
734.615	49.71
734.797	47.66
734.979	45.89
735.162	48.85
735.344	49.69
735.526	45.83
735.708	48.6
735.891	53.2
736.073	50.72
736.255	52.69
736.437	51.38
736.619	53.19
736.802	56.73
736.984	57.45
737.166	56.64
737.348	53.07
737.53	56.07
737.712	56.04
737.894	54.04
738.076	54.49
738.258	52.84
738.44	53.64
738.622	51.97
738.804	52.14
738.986	54.03
739.168	54.67
739.35	60.01
739.532	58.22
739.714	58.61
739.896	58.79
740.078	59.09
740.259	59.42
740.441	60.69
740.623	62.69
740.805	62.44
740.987	61.71
741.168	58.95
741.35	52.68
741.532	53.49
741.714	56.24
741.895	59.8
742.077	59.41
742.259	61.53
742.44	59.43
742.622	56.28
742.804	56.91
742.985	57.47
743.167	58.64
743.348	60.09
743.53	62.43
743.711	58.7
743.893	54.16
744.075	54.64
744.256	52.55
744.438	51.04
744.619	56.59
744.8	55.22
744.982	52.05
745.163	51.4
745.345	55.96
745.526	51.55
745.707	49.99
745.889	50.96
746.07	46.9
746.252	49.76
746.433	51.06
746.614	50.19
746.795	55.09
746.977	57.24
747.158	59.68
747.339	60.04
747.52	64.81
747.702	65.85
747.883	65.76
748.064	73.6
748.245	72.16
748.426	70.26
748.607	68.78
748.788	66.36
748.97	67.92
749.151	66.66
749.332	64.75
749.513	59.06
749.694	61.83
749.875	60.96
750.056	58.44
750.237	61.62
750.418	65.19
750.599	61.84
750.78	60.55
750.96	61.13
751.141	61.13
751.322	58.05
751.503	56.84
751.684	58.44
751.865	58.69
752.046	56.19
752.226	50.27
752.407	48.88
752.588	54.18
752.769	51.65
752.949	55.13
753.13	52.42
753.311	56.38
753.492	61.53
753.672	59.97
753.853	61.41
754.034	63.97
754.214	66.19
754.395	65.56
754.575	64.32
754.756	66.6
754.937	59.66
755.117	64.4
755.298	65.1
755.478	63.35
755.659	61.37
755.839	60.84
756.02	60.7
756.2	64.78
756.381	64.27
756.561	61.47
756.741	59.24
756.922	62.41
757.102	56.28
757.283	50.87
757.463	47.63
757.643	45.55
757.823	44.42
758.004	41.4
758.184	36.36
758.364	36.01
758.545	33.9
758.725	34.47
758.905	30.72
759.085	32.64
759.265	34.31
759.446	37.23
759.626	37.08
759.806	40.61
759.986	43
760.166	43.38
760.346	41.35
760.526	42.06
760.706	42.47
760.886	44.27
761.066	42.44
761.246	39.66
761.426	38.58
761.606	39.73
761.786	34.77
761.966	33.02
762.146	34.63
762.326	36.2
762.506	39.24
762.686	38.54
762.866	39.66
763.046	41.72
763.225	43.48
763.405	43.45
763.585	43.85
763.765	46.49
763.945	47.3
764.124	46.66
764.304	48.77
764.484	47.27
764.664	48.1
764.843	50.38
765.023	51.11
765.203	51.19
765.382	53.27
765.562	56.41
765.741	58.41
765.921	60.85
766.101	61.59
766.28	64.6
766.46	65.54
766.639	64.18
766.819	63.94
766.998	63.36
767.178	63.96
767.357	63.22
767.537	61.56
767.716	62.06
767.896	64.08
768.075	66.61
768.254	61.74
768.434	58.2
768.613	57.63
768.792	58.15
768.972	56.24
769.151	53.45
769.33	54.62
769.51	51.21
769.689	48.76
769.868	47.09
770.047	41.01
770.226	42.99
770.406	48.62
770.585	53.92
770.764	53.32
770.943	58.9
771.122	62.96
771.301	62.31
771.48	67.33
771.66	68.4
771.839	68.33
772.018	70.66
772.197	71.74
772.376	70.64
772.555	70.51
772.734	65.55
772.913	61.58
773.092	67.46
773.271	66.19
773.449	65.27
773.628	64.35
773.807	66.09
773.986	68.63
774.165	69.57
774.344	71.24
774.523	69.7
774.701	75.14
774.88	82.41
775.059	72.49
775.238	74.69
775.417	77.24
775.595	80.71
775.774	80.04
775.953	79.13
776.131	76.68
776.31	71.95
776.489	72.39
776.667	66.64
776.846	67.68
777.025	70.76
777.203	70.06
777.382	69.5
777.56	66.3
777.739	67.23
777.917	70.38
778.096	75.47
778.274	73.57
778.453	77.18
778.631	83.55
778.81	74.18
778.988	72.47
779.166	75.69
779.345	72.74
779.523	76.46
779.702	75.78
779.88	76.24
780.058	62.31
780.237	66.62
780.415	63.96
780.593	63.05
780.771	66.45
780.95	70.8
781.128	67.95
781.306	70.34
781.484	67.23
781.662	66.53
781.841	64.81
782.019	68.49
782.197	69.6
782.375	69.32
782.553	66.2
782.731	66.3
782.909	67.03
783.087	66.23
783.265	60.95
783.443	63.71
783.621	65.67
783.799	61.21
783.977	61.65
784.155	64.51
784.333	60.94
784.511	65.57
784.689	62.1
784.867	52.39
785.045	58.18
785.223	58.09
785.4	59.69
785.578	61.55
785.756	70.35
785.934	72.24
786.112	66.35
786.289	63.67
786.467	60.25
786.645	57.63
786.823	63.72
787	60.43
787.178	63.13
787.356	52.4
787.533	43.6
787.711	42.72
787.889	39.3
788.066	40.14
788.244	47.38
788.421	48.43
788.599	50.73
788.776	48.62
788.954	46.18
789.131	40.78
789.309	52.23
789.486	54.31
789.664	48.56
789.841	48.66
790.019	49.69
790.196	47.65
790.373	46.65
790.551	50.33
790.728	52.75
790.906	51.33
791.083	59.29
791.26	54.17
791.437	48.99
791.615	50.15
791.792	50.63
791.969	46.05
792.146	49.75
792.324	52.6
792.501	53.79
792.678	43.79
792.855	39.84
793.032	44.37
793.209	43.25
793.387	52.98
793.564	54.24
793.741	53.35
793.918	57.02
794.095	49.05
794.272	51.8
794.449	49.31
794.626	53.55
794.803	56.96
794.98	54.78
795.157	53.75
795.334	56.6
795.511	54.04
795.688	61.38
795.864	57.11
796.041	64.88
796.218	58.08
796.395	63.98
796.572	64.62
796.749	68.33
796.925	69
797.102	74.08
797.279	64.44
797.456	63.24
797.632	52.51
797.809	51.65
797.986	45.57
798.162	45.17
798.339	30.37
798.516	30.19
798.692	30.65
798.869	19.72
799.046	18.82
799.222	24.72
799.399	29.53
799.575	36.51
799.752	51.16
799.928	51.01
800.105	60.44
800.281	69.47
800.458	62.75
800.634	63.1
800.811	69.59
800.987	79.45
801.163	69.35
801.34	68.2
801.516	66.13
801.692	64.36
801.869	62.66
802.045	56.98
802.221	51.36
802.398	57.04
802.574	57.65
802.75	45.64
802.926	34.44
803.103	35.89
803.279	35.49
803.455	36.69
803.631	25.96
803.807	26.17
803.983	21.21
804.16	24.61
804.336	20.14
804.512	22.13
804.688	25.8
804.864	37.1
805.04	34.95
805.216	34.42
805.392	35.55
805.568	40.86
805.744	35.23
805.92	40.88
806.096	43.77
806.272	48.86
806.448	55.97
806.623	68.46
806.799	62.44
806.975	75.34
807.151	79.65
807.327	79.23
807.503	76.15
807.678	85.11
807.854	81.93
808.03	78.8
808.206	80.71
808.381	65.91
808.557	57.79
808.733	62.3
808.908	57.5
809.084	61.12
809.26	60.48
809.435	57.65
809.611	53.91
809.787	55.29
809.962	56.83
810.138	55.05
810.313	54.71
810.489	62.53
810.664	56.03
810.84	56.8
811.015	52.43
811.191	45.6
811.366	41.78
811.542	40.3
811.717	42.51
811.892	50.2
812.068	46.67
812.243	40.68
812.419	35.83
812.594	25.12
812.769	23.98
812.944	28.68
813.12	35.49
813.295	34.18
813.47	33.01
813.645	32.58
813.821	28.4
813.996	23.59
814.171	27.63
814.346	34.77
814.521	38.67
814.697	32.25
814.872	25.64
815.047	27.07
815.222	28.21
815.397	34.67
815.572	30.02
815.747	30.77
815.922	45.73
816.097	42.73
816.272	35.59
816.447	41.96
816.622	47.26
816.797	49.67
816.972	50.38
817.147	49.18
817.322	51.93
817.496	50.7
817.671	46.69
817.846	34.39
818.021	37.28
818.196	38.45
818.371	35.54
818.545	29.55
818.72	28.6
818.895	30.73
819.069	39.3
819.244	34.89
819.419	33.32
819.594	33.28
819.768	36.16
819.943	38.03
820.117	36.2
820.292	36.59
820.467	36.15
820.641	34.38
820.816	32.83
820.99	31.46
821.165	30.82
821.339	30.34
821.514	30.81
821.688	30.16
821.863	29.57
822.037	29.95
822.212	30.33
822.386	31.12
822.56	29.73
822.735	29.03
822.909	25.84
823.084	27.17
823.258	28.53
823.432	26.59
823.606	26.68
823.781	27.54
823.955	29.39
824.129	26.65
824.303	24.24
824.478	27.88
824.652	30.78
824.826	36.07
825	35.98
825.174	35.85
825.348	34.38
825.523	36.03
825.697	33.45
825.871	31.99
826.045	33.29
826.219	36.04
826.393	36.93
826.567	35.81
826.741	36.45
826.915	34.7
827.089	36
827.263	37.35
827.437	37.48
827.611	36.44
827.784	38.29
827.958	38.07
828.132	36.74
828.306	37.93
828.48	41.84
828.654	41.27
828.827	45.88
829.001	40.76
829.175	42.74
829.349	44.79
829.522	49.21
829.696	47.86
829.87	47.72
830.044	52.14
830.217	43.63
830.391	25.25
830.565	28.02
830.738	24.86
830.912	28.16
831.085	25.18
831.259	23.41
831.432	35.95
831.606	29.71
831.779	38.2
831.953	36.91
832.126	43.44
832.3	44.06
832.473	44.54
832.647	40.16
832.82	37.42
832.994	44.97
833.167	45.18
833.34	40.74
833.514	47.9
833.687	43.6
833.86	43
834.034	41.87
834.207	48.72
834.38	47.39
834.553	52.25
834.727	54.79
834.9	50.88
835.073	51.26
835.246	53.39
835.419	54.5
835.593	51.8
835.766	50.06
835.939	40.11
836.112	33.72
836.285	35.93
836.458	38.49
836.631	47.5
836.804	53.86
836.977	55.32
837.15	48.39
837.323	37.4
837.496	50.78
837.669	65.71
837.842	72.24
838.015	77.4
838.188	58.92
838.361	51.27
838.533	54.52
838.706	53.85
838.879	47.6
839.052	56.39
839.225	58.22
839.398	49.32
839.57	61.57
839.743	58.76
839.916	61.8
840.088	74.21
840.261	65.42
840.434	59.92
840.607	60.53
840.779	69.96
840.952	55.39
841.124	54.99
841.297	55.27
841.47	50.51
841.642	62.42
841.815	45
841.987	41.9
842.16	39.65
842.332	44.13
842.505	35.92
842.677	27.59
842.85	35.59
843.022	25.66
843.194	18.13
843.367	0.5
843.539	-1.48
843.712	15.34
843.884	8.63
844.056	13.55
844.229	8.47
844.401	-2.49
844.573	8.02
844.745	20.26
844.918	24.17
845.09	37.44
845.262	37.99
845.434	35.51
845.606	21.96
845.779	19.7
845.951	21.29
846.123	-1.75
846.295	46.57
846.467	30.21
846.639	4.69
846.811	6.25
846.983	3.87
847.155	18.42
847.327	10.12
847.499	47.46
847.671	40.52
847.843	18.32
848.015	17.13
848.187	-46.32
848.359	-158.43
848.531	-146.91
848.703	12.08
848.875	-45.97
849.047	-29.41
849.218	5.93
849.39	-10.89
849.562	-71.15
849.734	2.32
849.905	8.14
850.077	14.71
850.249	8.95
850.421	-3.05
850.592	-17.65
850.764	0.57
850.936	25.65
851.107	27.25
851.279	34.69
851.451	27.45
851.622	32.99
851.794	60.53
851.965	45.3
852.137	61.38
852.308	51.86
852.48	55.4
852.651	71.08
852.823	39.27
852.994	53.57
853.166	50.85
853.337	80.28
853.509	67.49
853.68	38.88
853.851	44.23
854.023	59.05
854.194	74.68
854.365	85.04
854.537	63.42
854.708	66.7
854.879	59.28
855.05	54.81
855.222	62.46
855.393	66.26
855.564	86.73
855.735	81.79
855.906	73.2
856.078	65.29
856.249	30.08
856.42	68.17
856.591	68
856.762	59.9
856.933	75.44
857.104	56.82
857.275	38.76
857.446	19.32
857.617	25.78
857.788	63.41
857.959	72.56
858.13	63.76
858.301	58.22
858.472	41.87
858.643	53.78
858.814	46.49
858.985	47.1
859.155	44.08
859.326	47.81
859.497	70.05
859.668	36.68
859.839	10.26
860.009	5.85
860.18	12.27
860.351	26.52
860.522	19.8
860.692	10.47
860.863	1.59
861.034	20.59
861.204	11.86
861.375	-11.81
861.546	-32.2
861.716	-0.93
861.887	37.12
862.057	42.92
862.228	49.78
862.398	32.16
862.569	48.71
862.739	58.17
862.91	64.49
863.08	79.08
863.251	91.49
863.421	99.89
863.592	99.06
863.762	101.79
863.932	102.23
864.103	88.89
864.273	103.9
864.443	94.05
864.614	88.36
864.784	80.79
864.954	82.39
865.125	62.44
865.295	48.57
865.465	57.89
865.635	45.87
865.805	39.11
865.976	48.95
866.146	46.28
866.316	43.98
866.486	50
866.656	52.82
866.826	57.47
866.996	64.03
867.166	71.62
867.336	60.71
867.506	81.43
867.676	95.66
867.846	66.08
868.016	81.47
868.186	135.6
868.356	98.56
868.526	264.58
868.696	9000
868.866	-128.24
869.036	327.52
869.206	606.45
869.376	936.59
869.545	230.56
869.715	343.54
869.885	409.49
870.055	206.27
870.224	187.66
870.394	148.18
870.564	83.13
870.734	76.28
870.903	53.45
871.073	65.66
871.243	64.12
871.412	93.75
871.582	58.06
871.751	43.02
871.921	67.15
872.091	57.02
872.26	80.26
872.43	113.56
872.599	101.64
872.769	84
872.938	75.97
873.108	74.34
873.277	71.31
873.446	92.54
873.616	80.63
873.785	74.23
873.955	84.17
874.124	64.24
874.293	44.4
874.463	26.47
874.632	25.71
874.801	21.51
874.971	26.68
875.14	19.6
875.309	22.33
875.478	19.97
875.647	17.83
875.817	10.19
875.986	19.69
876.155	48.48
876.324	63.17
876.493	54.59
876.662	61.11
876.831	50.95
877	48.19
877.17	33.29
877.339	26.5
877.508	24.33
877.677	29.94
877.846	28.72
878.015	18.79
878.184	29.47
878.352	28.82
878.521	31.04
878.69	37.42
878.859	37.33
879.028	48
879.197	40.99
879.366	42.86
879.534	32.16
879.703	33.22
879.872	38.01
880.041	31.81
880.21	28.72
880.378	27.64
880.547	26.29
880.716	28.65
880.884	21.82
881.053	27.05
881.222	30.98
881.39	29.81
881.559	32.57
881.727	29.88
881.896	29.72
882.065	35.19
882.233	37.83
882.402	35.91
882.57	34.84
882.739	41.56
882.907	45.79
883.076	39.04
883.244	50.41
883.412	53.93
883.581	52.47
883.749	50.79
883.918	53.32
884.086	61.75
884.254	55.04
884.423	67.8
884.591	68
884.759	56.48
884.927	48.98
885.096	44.36
885.264	20.93
885.432	50.11
885.6	42.58
885.769	43.4
885.937	28.3
886.105	36.84
886.273	37.87
886.441	11.45
886.609	38.75
886.777	39.02
886.945	24.51
887.113	27.94
887.281	4.21
887.449	12.82
887.617	26.69
887.785	38.95
887.953	58.87
888.121	44.6
888.289	44.84
888.457	36.02
888.625	46.23
888.793	55.66
888.961	57.11
889.129	69.84
889.296	71.34
889.464	59.23
889.632	38.72
889.8	16.61
889.967	7.56
890.135	35.83
