Data from JASIL_2961_Reflection_1.txt Node
Date: Sat Nov 07 21:21:20 EST 2015
User: Geneva
Spectrometer: USB4E03002
Autoset integration time: false
Trigger mode: 4
Integration Time (sec): 1.000000E-1
Scans to average: 10
Electric dark correction enabled: true
Nonlinearity correction enabled: false
Boxcar width: 5
Stray light correction enabled: false
XAxis mode: Wavelengths
Stop averaging: false
Number of Pixels in Spectrum: 3648
>>>>>Begin Spectral Data<<<<<
177.575	51.84
177.794	55.11
178.014	63.04
178.233	-156.43
178.452	-49.47
178.672	188.36
178.891	164.78
179.11	51.5
179.33	101.66
179.549	72.49
179.768	60.91
179.987	52.02
180.207	-12.64
180.426	114.26
180.645	126.36
180.864	124.05
181.084	103.17
181.303	124.2
181.522	52.96
181.741	71.11
181.96	79.17
182.179	89.46
182.398	81.31
182.618	73.97
182.837	90.93
183.056	85.77
183.275	103.01
183.494	135.23
183.713	122.47
183.932	240.39
184.151	442.48
184.37	169.56
184.589	97.77
184.808	90.08
185.027	96.63
185.246	93.47
185.465	95.43
185.684	97.53
185.903	83.46
186.122	81.67
186.341	72.74
186.56	66.2
186.779	72.76
186.998	79.27
187.216	86.89
187.435	84.64
187.654	92.41
187.873	91.72
188.092	62.68
188.311	70.83
188.53	66.08
188.748	85.76
188.967	87.4
189.186	90.48
189.405	79.56
189.623	92.76
189.842	75.76
190.061	48.35
190.28	43.13
190.498	73.24
190.717	31.64
190.936	28.27
191.154	-20.99
191.373	-192.81
191.592	-125.53
191.81	-105.75
192.029	-6.47
192.248	60.71
192.466	164.09
192.685	98.52
192.904	79.56
193.122	89.2
193.341	83.78
193.559	90.55
193.778	81.51
193.996	110.51
194.215	115.44
194.433	119.02
194.652	99.41
194.87	120.58
195.089	104.79
195.307	128.5
195.526	123.73
195.744	101.4
195.963	105.95
196.181	87.33
196.399	80.36
196.618	71.64
196.836	75.38
197.055	81.59
197.273	51.15
197.491	62.01
197.71	58.7
197.928	52.62
198.146	53.62
198.365	26.93
198.583	47
198.801	52.57
199.019	56.91
199.238	41.62
199.456	27.29
199.674	38.66
199.892	18.53
200.111	-9.93
200.329	11.15
200.547	16.42
200.765	29.28
200.983	17.91
201.202	6.42
201.42	22.1
201.638	30.52
201.856	43.43
202.074	38.78
202.292	51.46
202.51	49.91
202.728	45.12
202.946	28.65
203.165	28.99
203.383	27.93
203.601	41.06
203.819	22.13
204.037	22.35
204.255	26.56
204.473	34.91
204.691	8.96
204.909	14.65
205.127	33.91
205.345	50.79
205.562	45.37
205.78	58.54
205.998	63.86
206.216	82.59
206.434	92.54
206.652	80.16
206.87	72.35
207.088	72.89
207.306	67.57
207.523	67.17
207.741	64.25
207.959	62.7
208.177	57.64
208.395	42.91
208.612	16.65
208.83	22.86
209.048	35.95
209.266	21.41
209.483	34.96
209.701	18.34
209.919	24.19
210.136	21.04
210.354	59.47
210.572	52.49
210.79	58.33
211.007	59.71
211.225	54.25
211.442	49.63
211.66	52.72
211.878	45.03
212.095	100.71
212.313	95.02
212.53	89.51
212.748	78.31
212.966	93.5
213.183	86.98
213.401	81.15
213.618	92.72
213.836	91.44
214.053	100.43
214.271	97.59
214.488	40.05
214.705	33.38
214.923	33.7
215.14	34.03
215.358	32
215.575	42.34
215.793	50.21
216.01	39.12
216.227	43.95
216.445	39.4
216.662	35.46
216.879	33.72
217.097	37.56
217.314	35.96
217.531	32.51
217.749	21.81
217.966	20.05
218.183	15.71
218.4	7.94
218.618	6.36
218.835	13.46
219.052	22.41
219.269	24.2
219.487	23.14
219.704	27.73
219.921	32.86
220.138	39.98
220.355	32.16
220.572	32.93
220.79	29.4
221.007	29.89
221.224	28.96
221.441	25.76
221.658	20.03
221.875	19.09
222.092	16.54
222.309	14.98
222.526	11.65
222.743	12.81
222.96	10.39
223.177	14.92
223.394	11.29
223.611	12.24
223.828	12.81
224.045	14.42
224.262	16.07
224.479	15.38
224.696	13.06
224.913	14.56
225.13	16.52
225.347	16.98
225.564	16.67
225.781	15.86
225.997	13.07
226.214	13.11
226.431	11.9
226.648	11.59
226.865	11.82
227.082	11.97
227.298	11.65
227.515	10.87
227.732	10.68
227.949	10.38
228.165	10.33
228.382	10.07
228.599	10.04
228.816	10.52
229.032	10.42
229.249	10.48
229.466	10.77
229.682	9.94
229.899	10.56
230.116	10.61
230.332	11.64
230.549	12.82
230.765	13.49
230.982	13.57
231.199	13.89
231.415	14.02
231.632	13.78
231.848	12.94
232.065	15.05
232.281	14.44
232.498	13.88
232.714	13.15
232.931	12.33
233.147	13.19
233.364	13.59
233.58	13.96
233.797	13.49
234.013	13.77
234.23	14.03
234.446	13.86
234.662	14.05
234.879	15.17
235.095	16.27
235.312	17.04
235.528	17.02
235.744	15.76
235.961	15.2
236.177	15.45
236.393	14.86
236.61	15.28
236.826	14.17
237.042	13.97
237.258	13.97
237.475	13.43
237.691	12.01
237.907	11.38
238.123	11.62
238.339	12.34
238.556	12.43
238.772	11.68
238.988	11.38
239.204	11.53
239.42	11.8
239.636	10.93
239.853	11.33
240.069	11.1
240.285	11.19
240.501	11.24
240.717	10.99
240.933	10.81
241.149	11.48
241.365	11.98
241.581	11.58
241.797	11.41
242.013	11.89
242.229	11.7
242.445	11.67
242.661	11.48
242.877	11.7
243.093	11.73
243.309	11.81
243.525	11.32
243.741	10.54
243.957	11.66
244.173	12.13
244.388	11.67
244.604	10.92
244.82	11.28
245.036	11.19
245.252	10.97
245.468	10.99
245.683	10.92
245.899	11.1
246.115	11.11
246.331	10.7
246.547	10.41
246.762	10.21
246.978	10.3
247.194	10.06
247.409	10.12
247.625	10.01
247.841	9.77
248.057	9.67
248.272	9.41
248.488	9.41
248.703	9.4
248.919	9.8
249.135	9.78
249.35	9.64
249.566	9.6
249.782	9.09
249.997	9.49
250.213	9.66
250.428	9.74
250.644	9.62
250.859	9.52
251.075	9.59
251.29	8.9
251.506	8.79
251.721	9.16
251.937	9.02
252.152	9.69
252.368	9.19
252.583	8.84
252.798	8.66
253.014	8.9
253.229	8.92
253.445	8.41
253.66	8.74
253.875	8.52
254.091	7.77
254.306	8.31
254.521	7.09
254.737	7.08
254.952	7.23
255.167	6.94
255.383	7.37
255.598	7.4
255.813	7.43
256.028	6.92
256.244	7.08
256.459	7.41
256.674	7.13
256.889	7.41
257.104	7.7
257.32	7.74
257.535	7.8
257.75	7.48
257.965	7.42
258.18	7.57
258.395	7.64
258.61	7.67
258.826	7.53
259.041	7.42
259.256	7.42
259.471	7.39
259.686	7.45
259.901	7.46
260.116	7.54
260.331	7.52
260.546	7.55
260.761	7.57
260.976	7.56
261.191	7.44
261.406	7.69
261.621	7.99
261.836	7.61
262.05	7.32
262.265	7.1
262.48	7.03
262.695	6.86
262.91	6.97
263.125	6.93
263.34	7.3
263.555	7.38
263.769	7.12
263.984	7.23
264.199	7.52
264.414	7.68
264.629	7.84
264.843	7.87
265.058	8.14
265.273	7.81
265.488	7.75
265.702	7.41
265.917	8.12
266.132	8.35
266.346	8.1
266.561	8.33
266.776	8.3
266.99	8.49
267.205	8.31
267.42	7.92
267.634	7.89
267.849	8.02
268.063	8.12
268.278	7.75
268.492	7.83
268.707	7.89
268.922	7.87
269.136	7.96
269.351	7.85
269.565	7.76
269.78	7.85
269.994	7.76
270.209	7.75
270.423	7.86
270.637	7.55
270.852	7.44
271.066	7.31
271.281	7.23
271.495	7.05
271.709	7.09
271.924	7.13
272.138	7.18
272.353	7.32
272.567	7.15
272.781	7.01
272.996	7.1
273.21	6.63
273.424	6.62
273.638	6.56
273.853	6.88
274.067	6.6
274.281	6.67
274.495	6.58
274.71	6.44
274.924	6.53
275.138	6.63
275.352	6.74
275.566	7.13
275.781	7.27
275.995	7.3
276.209	7.26
276.423	7.34
276.637	7.12
276.851	7.1
277.065	6.92
277.279	6.75
277.493	6.85
277.707	6.76
277.921	6.97
278.135	6.8
278.349	6.67
278.563	6.32
278.777	6.25
278.991	6.57
279.205	7
279.419	7.23
279.633	7.15
279.847	6.92
280.061	6.99
280.275	6.75
280.489	6.67
280.703	6.41
280.917	6.36
281.131	6.5
281.344	6.3
281.558	5.8
281.772	5.77
281.986	5.89
282.2	6.02
282.414	6.16
282.627	6.41
282.841	6.56
283.055	6.65
283.269	6.83
283.482	6.69
283.696	6.76
283.91	7.04
284.123	6.95
284.337	6.83
284.551	6.76
284.764	6.57
284.978	6.55
285.192	6.32
285.405	6.51
285.619	6.48
285.833	6.34
286.046	6.24
286.26	6.33
286.473	6.19
286.687	6.29
286.9	6.23
287.114	6.11
287.327	6.18
287.541	6.39
287.754	6.13
287.968	6.01
288.181	6.12
288.395	6.23
288.608	5.81
288.822	6.06
289.035	6.21
289.248	6.16
289.462	6.41
289.675	6.19
289.889	6.28
290.102	6.67
290.315	6.73
290.529	6.85
290.742	6.66
290.955	6.92
291.169	6.98
291.382	6.72
291.595	6.83
291.808	6.68
292.022	7.01
292.235	6.85
292.448	6.84
292.661	6.84
292.875	6.84
293.088	6.89
293.301	6.96
293.514	6.93
293.727	7.19
293.94	7.34
294.153	7.46
294.367	7.18
294.58	7.05
294.793	6.88
295.006	6.93
295.219	7.12
295.432	7.2
295.645	7.24
295.858	7.03
296.071	6.95
296.284	6.75
296.497	6.64
296.71	6.66
296.923	6.78
297.136	6.69
297.349	6.76
297.562	6.52
297.775	6.58
297.988	6.54
298.201	6.6
298.414	6.5
298.626	6.65
298.839	6.69
299.052	6.77
299.265	6.5
299.478	6.76
299.691	6.42
299.903	6.5
300.116	6.51
300.329	6.52
300.542	6.66
300.755	6.73
300.967	6.7
301.18	6.89
301.393	6.63
301.605	6.86
301.818	6.6
302.031	6.84
302.243	6.77
302.456	6.89
302.669	6.82
302.881	6.78
303.094	6.86
303.307	7.05
303.519	6.87
303.732	7.19
303.944	7.2
304.157	7.24
304.37	7.36
304.582	7.42
304.795	7.28
305.007	7.31
305.22	7.48
305.432	7.23
305.645	6.95
305.857	7.12
306.069	7.02
306.282	6.98
306.494	7.13
306.707	7.05
306.919	7.34
307.132	7.01
307.344	6.95
307.556	6.81
307.769	7.06
307.981	7.17
308.193	7.08
308.406	6.85
308.618	6.83
308.83	6.82
309.043	6.9
309.255	6.66
309.467	6.93
309.679	6.87
309.892	6.86
310.104	6.77
310.316	6.7
310.528	6.6
310.74	6.85
310.953	6.99
311.165	6.96
311.377	6.74
311.589	6.86
311.801	6.82
312.013	6.84
312.225	6.88
312.437	7.02
312.649	7.08
312.862	7.12
313.074	7.13
313.286	6.89
313.498	6.82
313.71	7.12
313.922	6.94
314.134	7.08
314.346	7.28
314.558	7.31
314.77	7.23
314.982	7.03
315.193	7.12
315.405	6.91
315.617	6.82
315.829	6.76
316.041	6.61
316.253	6.4
316.465	6.3
316.677	5.96
316.888	5.91
317.1	6.02
317.312	6.33
317.524	6.37
317.736	6.73
317.947	7.06
318.159	7.26
318.371	7.4
318.583	7.84
318.794	8.07
319.006	8.34
319.218	8.18
319.43	7.9
319.641	7.83
319.853	7.6
320.064	7.3
320.276	7.38
320.488	7.18
320.699	7.13
320.911	7.26
321.123	7.29
321.334	7.39
321.546	7.57
321.757	7.87
321.969	7.97
322.18	8.32
322.392	8.32
322.603	8.18
322.815	8.27
323.026	8.19
323.238	7.85
323.449	7.6
323.661	7.35
323.872	7.56
324.083	7.29
324.295	7.09
324.506	6.77
324.718	6.71
324.929	6.76
325.14	6.85
325.352	6.92
325.563	7.13
325.774	7.12
325.986	7.27
326.197	7.15
326.408	7.36
326.62	7.42
326.831	7.64
327.042	7.79
327.253	7.94
327.464	7.85
327.676	7.65
327.887	7.64
328.098	7.72
328.309	7.76
328.52	7.71
328.732	7.9
328.943	8.05
329.154	8.26
329.365	8.32
329.576	8.26
329.787	8.37
329.998	8.65
330.209	8.64
330.42	8.69
330.631	8.67
330.842	8.62
331.053	8.52
331.264	8.54
331.475	8.51
331.686	8.58
331.897	8.51
332.108	8.43
332.319	8.46
332.53	8.49
332.741	8.36
332.952	8.31
333.163	8.39
333.374	8.44
333.585	8.37
333.795	8.28
334.006	8.17
334.217	8.1
334.428	8.17
334.639	7.98
334.849	7.92
335.06	8.03
335.271	7.92
335.482	8
335.692	7.87
335.903	7.9
336.114	7.75
336.325	7.7
336.535	7.78
336.746	7.63
336.957	7.82
337.167	7.96
337.378	7.93
337.589	8.03
337.799	8.01
338.01	8.17
338.22	8.1
338.431	8.23
338.642	8.33
338.852	8.09
339.063	8.21
339.273	8.04
339.484	7.95
339.694	7.93
339.905	8
340.115	7.88
340.326	7.54
340.536	7.61
340.746	7.56
340.957	7.52
341.167	7.7
341.378	7.69
341.588	7.71
341.799	7.59
342.009	7.59
342.219	7.48
342.43	7.54
342.64	7.6
342.85	7.58
343.061	7.64
343.271	7.65
343.481	7.7
343.691	7.6
343.902	7.41
344.112	7.46
344.322	7.53
344.532	7.37
344.743	7.34
344.953	7.3
345.163	7.19
345.373	7.1
345.583	7.15
345.793	7.01
346.004	7.09
346.214	7.29
346.424	7.29
346.634	7.25
346.844	7.42
347.054	7.43
347.264	7.75
347.474	7.83
347.684	7.72
347.894	7.61
348.104	7.67
348.314	7.62
348.524	7.69
348.734	7.72
348.944	7.62
349.154	7.6
349.364	7.45
349.574	7.15
349.784	7.05
349.994	7.12
350.204	6.97
350.413	6.75
350.623	6.9
350.833	6.65
351.043	6.59
351.253	6.61
351.463	6.63
351.672	6.6
351.882	6.79
352.092	6.74
352.302	6.74
352.511	6.87
352.721	7.04
352.931	6.97
353.141	6.85
353.35	6.65
353.56	6.61
353.77	6.65
353.979	6.82
354.189	6.67
354.399	6.86
354.608	6.91
354.818	6.91
355.027	6.99
355.237	6.86
355.447	7.03
355.656	7.13
355.866	7.07
356.075	6.93
356.285	6.91
356.494	6.92
356.704	6.8
356.913	6.72
357.123	6.63
357.332	6.53
357.542	6.58
357.751	6.61
357.96	6.53
358.17	6.65
358.379	6.79
358.589	6.71
358.798	6.76
359.007	6.64
359.217	6.62
359.426	6.72
359.635	6.61
359.845	6.6
360.054	6.53
360.263	6.51
360.472	6.48
360.682	6.43
360.891	6.52
361.1	6.4
361.309	6.46
361.519	6.51
361.728	6.5
361.937	6.57
362.146	6.53
362.355	6.52
362.564	6.62
362.774	6.58
362.983	6.42
363.192	6.36
363.401	6.41
363.61	6.4
363.819	6.45
364.028	6.44
364.237	6.34
364.446	6.42
364.655	6.34
364.864	6.4
365.073	6.45
365.282	6.54
365.491	6.34
365.7	6.4
365.909	6.45
366.118	6.4
366.327	6.29
366.536	6.29
366.745	6.21
366.954	6.3
367.162	6.1
367.371	6.06
367.58	6.01
367.789	6.01
367.998	5.94
368.207	6.06
368.415	6.01
368.624	6.01
368.833	6.08
369.042	6.22
369.25	6.22
369.459	6.33
369.668	6.25
369.877	6.27
370.085	6.41
370.294	6.37
370.503	6.33
370.711	6.32
370.92	6.28
371.129	6.36
371.337	6.24
371.546	6.15
371.754	6.11
371.963	6.23
372.171	6.24
372.38	6.08
372.589	6.08
372.797	5.92
373.006	5.92
373.214	6.05
373.423	5.98
373.631	5.95
373.84	6.04
374.048	5.91
374.256	5.73
374.465	5.59
374.673	5.61
374.882	5.5
375.09	5.47
375.298	5.41
375.507	5.29
375.715	5.28
375.923	5.25
376.132	5.16
376.34	5.13
376.548	5.14
376.757	5.31
376.965	5.38
377.173	5.47
377.381	5.51
377.59	5.55
377.798	5.59
378.006	5.61
378.214	5.66
378.423	5.72
378.631	5.79
378.839	5.78
379.047	5.69
379.255	5.69
379.463	5.71
379.671	5.6
379.879	5.48
380.088	5.4
380.296	5.33
380.504	5.31
380.712	5.29
380.92	5.42
381.128	5.46
381.336	5.41
381.544	5.32
381.752	5.2
381.96	5.21
382.168	5.28
382.376	5.3
382.584	5.33
382.791	5.27
382.999	5.13
383.207	5.06
383.415	5.01
383.623	5.04
383.831	5.06
384.039	5.08
384.247	5.18
384.454	5.17
384.662	5.21
384.87	5.13
385.078	5.1
385.285	5.2
385.493	5.13
385.701	5.17
385.909	5.17
386.116	5.14
386.324	5.16
386.532	5.09
386.739	4.94
386.947	4.8
387.155	4.78
387.362	4.83
387.57	4.83
387.778	4.87
387.985	4.89
388.193	4.82
388.4	4.89
388.608	4.81
388.816	4.84
389.023	5
389.231	4.98
389.438	4.96
389.646	4.84
389.853	4.86
390.061	4.77
390.268	4.77
390.475	4.87
390.683	4.87
390.89	4.87
391.098	4.87
391.305	4.77
391.512	4.75
391.72	4.84
391.927	4.88
392.135	4.84
392.342	4.83
392.549	4.75
392.756	4.63
392.964	4.58
393.171	4.6
393.378	4.53
393.586	4.51
393.793	4.64
394	4.47
394.207	4.47
394.414	4.45
394.622	4.52
394.829	4.56
395.036	4.55
395.243	4.53
395.45	4.49
395.657	4.46
395.864	4.46
396.072	4.41
396.279	4.58
396.486	4.56
396.693	4.66
396.9	4.66
397.107	4.55
397.314	4.57
397.521	4.52
397.728	4.53
397.935	4.53
398.142	4.56
398.349	4.52
398.556	4.54
398.763	4.51
398.97	4.41
399.177	4.44
399.383	4.54
399.59	4.58
399.797	4.58
400.004	4.64
400.211	4.65
400.418	4.67
400.625	4.64
400.831	4.56
401.038	4.57
401.245	4.58
401.452	4.44
401.658	4.4
401.865	4.41
402.072	4.46
402.279	4.43
402.485	4.48
402.692	4.45
402.899	4.47
403.105	4.49
403.312	4.49
403.519	4.44
403.725	4.51
403.932	4.5
404.138	4.42
404.345	4.29
404.552	4.25
404.758	4.23
404.965	4.19
405.171	4.14
405.378	4.07
405.584	4.12
405.791	4.13
405.997	4.07
406.204	4.04
406.41	4.04
406.617	4.16
406.823	4.12
407.029	4.17
407.236	4.2
407.442	4.28
407.649	4.41
407.855	4.32
408.061	4.26
408.268	4.27
408.474	4.24
408.68	4.32
408.887	4.3
409.093	4.33
409.299	4.31
409.505	4.29
409.712	4.3
409.918	4.14
410.124	4.14
410.33	4.2
410.537	4.21
410.743	4.21
410.949	4.19
411.155	4.21
411.361	4.21
411.567	4.19
411.773	4.16
411.98	4.12
412.186	4.07
412.392	4.06
412.598	4.1
412.804	4.08
413.01	4.13
413.216	4.14
413.422	4.08
413.628	4.13
413.834	4.02
414.04	4.05
414.246	4.01
414.452	4.05
414.658	4.07
414.864	4.05
415.07	4
415.275	3.97
415.481	3.93
415.687	3.86
415.893	3.8
416.099	3.84
416.305	3.86
416.511	3.93
416.716	3.93
416.922	3.92
417.128	3.89
417.334	3.89
417.539	3.89
417.745	3.87
417.951	3.94
418.157	3.97
418.362	3.99
418.568	3.98
418.774	3.89
418.979	3.87
419.185	3.85
419.391	3.86
419.596	3.87
419.802	3.87
420.008	3.87
420.213	3.81
420.419	3.78
420.624	3.8
420.83	3.78
421.035	3.81
421.241	3.84
421.446	3.88
421.652	3.84
421.857	3.84
422.063	3.82
422.268	3.81
422.474	3.86
422.679	3.9
422.885	3.88
423.09	3.88
423.295	3.85
423.501	3.82
423.706	3.8
423.911	3.84
424.117	3.83
424.322	3.82
424.527	3.83
424.733	3.78
424.938	3.77
425.143	3.76
425.349	3.76
425.554	3.77
425.759	3.8
425.964	3.76
426.169	3.73
426.375	3.75
426.58	3.71
426.785	3.68
426.99	3.72
427.195	3.69
427.4	3.7
427.605	3.71
427.811	3.74
428.016	3.73
428.221	3.79
428.426	3.8
428.631	3.74
428.836	3.78
429.041	3.8
429.246	3.86
429.451	3.85
429.656	3.78
429.861	3.75
430.066	3.71
430.271	3.7
430.476	3.67
430.681	3.65
430.886	3.7
431.09	3.75
431.295	3.71
431.5	3.66
431.705	3.66
431.91	3.64
432.115	3.63
432.32	3.68
432.524	3.65
432.729	3.64
432.934	3.64
433.139	3.61
433.343	3.63
433.548	3.65
433.753	3.63
433.958	3.64
434.162	3.65
434.367	3.66
434.572	3.58
434.776	3.6
434.981	3.62
435.186	3.61
435.39	3.65
435.595	3.62
435.799	3.62
436.004	3.65
436.209	3.63
436.413	3.62
436.618	3.59
436.822	3.59
437.027	3.57
437.231	3.57
437.436	3.59
437.64	3.55
437.845	3.52
438.049	3.5
438.253	3.45
438.458	3.43
438.662	3.46
438.867	3.47
439.071	3.5
439.275	3.49
439.48	3.49
439.684	3.48
439.888	3.47
440.093	3.44
440.297	3.47
440.501	3.49
440.706	3.52
440.91	3.52
441.114	3.51
441.318	3.52
441.523	3.52
441.727	3.5
441.931	3.51
442.135	3.51
442.339	3.54
442.543	3.53
442.748	3.55
442.952	3.54
443.156	3.5
443.36	3.49
443.564	3.47
443.768	3.49
443.972	3.46
444.176	3.42
444.38	3.43
444.584	3.39
444.788	3.39
444.992	3.36
445.196	3.34
445.4	3.39
445.604	3.38
445.808	3.37
446.012	3.35
446.216	3.39
446.42	3.39
446.624	3.4
446.828	3.42
447.032	3.4
447.235	3.42
447.439	3.42
447.643	3.4
447.847	3.46
448.051	3.49
448.254	3.49
448.458	3.44
448.662	3.48
448.866	3.44
449.069	3.47
449.273	3.52
449.477	3.53
449.681	3.56
449.884	3.56
450.088	3.51
450.292	3.5
450.495	3.53
450.699	3.59
450.902	3.55
451.106	3.58
451.31	3.57
451.513	3.55
451.717	3.5
451.92	3.48
452.124	3.42
452.327	3.42
452.531	3.37
452.734	3.4
452.938	3.38
453.141	3.4
453.345	3.39
453.548	3.34
453.752	3.36
453.955	3.34
454.158	3.35
454.362	3.37
454.565	3.38
454.769	3.42
454.972	3.37
455.175	3.35
455.379	3.31
455.582	3.3
455.785	3.33
455.988	3.29
456.192	3.31
456.395	3.26
456.598	3.34
456.801	3.34
457.005	3.32
457.208	3.33
457.411	3.34
457.614	3.37
457.817	3.37
458.021	3.35
458.224	3.35
458.427	3.37
458.63	3.42
458.833	3.39
459.036	3.4
459.239	3.38
459.442	3.35
459.645	3.33
459.848	3.34
460.051	3.34
460.254	3.35
460.457	3.36
460.66	3.35
460.863	3.35
461.066	3.38
461.269	3.35
461.472	3.4
461.675	3.41
461.878	3.48
462.081	3.43
462.284	3.44
462.486	3.44
462.689	3.41
462.892	3.42
463.095	3.45
463.298	3.4
463.5	3.39
463.703	3.37
463.906	3.37
464.109	3.33
464.311	3.38
464.514	3.4
464.717	3.4
464.92	3.45
465.122	3.46
465.325	3.44
465.528	3.45
465.73	3.44
465.933	3.4
466.135	3.43
466.338	3.44
466.541	3.37
466.743	3.35
466.946	3.37
467.148	3.36
467.351	3.31
467.553	3.29
467.756	3.33
467.958	3.36
468.161	3.42
468.363	3.35
468.566	3.31
468.768	3.32
468.971	3.36
469.173	3.31
469.375	3.29
469.578	3.35
469.78	3.29
469.983	3.28
470.185	3.27
470.387	3.25
470.59	3.31
470.792	3.33
470.994	3.38
471.196	3.35
471.399	3.34
471.601	3.35
471.803	3.3
472.005	3.34
472.208	3.35
472.41	3.37
472.612	3.32
472.814	3.33
473.016	3.34
473.218	3.32
473.421	3.33
473.623	3.37
473.825	3.38
474.027	3.39
474.229	3.36
474.431	3.33
474.633	3.33
474.835	3.38
475.037	3.3
475.239	3.31
475.441	3.34
475.643	3.31
475.845	3.33
476.047	3.33
476.249	3.32
476.451	3.38
476.653	3.39
476.855	3.38
477.057	3.37
477.258	3.41
477.46	3.42
477.662	3.39
477.864	3.41
478.066	3.37
478.268	3.41
478.469	3.43
478.671	3.39
478.873	3.33
479.075	3.32
479.276	3.35
479.478	3.37
479.68	3.33
479.882	3.33
480.083	3.34
480.285	3.35
480.487	3.31
480.688	3.29
480.89	3.31
481.091	3.34
481.293	3.33
481.495	3.31
481.696	3.29
481.898	3.3
482.099	3.29
482.301	3.27
482.502	3.26
482.704	3.25
482.905	3.24
483.107	3.22
483.308	3.22
483.51	3.21
483.711	3.21
483.913	3.21
484.114	3.21
484.315	3.2
484.517	3.2
484.718	3.2
484.92	3.2
485.121	3.2
485.322	3.23
485.524	3.24
485.725	3.27
485.926	3.27
486.127	3.28
486.329	3.28
486.53	3.29
486.731	3.3
486.932	3.29
487.134	3.27
487.335	3.26
487.536	3.25
487.737	3.23
487.938	3.22
488.139	3.21
488.341	3.2
488.542	3.19
488.743	3.2
488.944	3.19
489.145	3.22
489.346	3.25
489.547	3.27
489.748	3.29
489.949	3.29
490.15	3.27
490.351	3.29
490.552	3.29
490.753	3.27
490.954	3.25
491.155	3.26
491.356	3.24
491.557	3.23
491.758	3.25
491.959	3.26
492.159	3.24
492.36	3.26
492.561	3.25
492.762	3.27
492.963	3.29
493.164	3.3
493.364	3.3
493.565	3.34
493.766	3.35
493.967	3.32
494.167	3.28
494.368	3.3
494.569	3.3
494.769	3.3
494.97	3.29
495.171	3.3
495.371	3.3
495.572	3.31
495.773	3.34
495.973	3.32
496.174	3.37
496.375	3.4
496.575	3.41
496.776	3.42
496.976	3.44
497.177	3.46
497.377	3.44
497.578	3.47
497.778	3.45
497.979	3.47
498.179	3.52
498.38	3.48
498.58	3.47
498.78	3.47
498.981	3.48
499.181	3.47
499.382	3.49
499.582	3.53
499.782	3.54
499.983	3.53
500.183	3.5
500.383	3.49
500.584	3.5
500.784	3.54
500.984	3.53
501.184	3.52
501.385	3.53
501.585	3.52
501.785	3.53
501.985	3.52
502.185	3.54
502.386	3.58
502.586	3.57
502.786	3.62
502.986	3.62
503.186	3.64
503.386	3.65
503.586	3.67
503.786	3.67
503.987	3.67
504.187	3.71
504.387	3.76
504.587	3.72
504.787	3.77
504.987	3.77
505.187	3.77
505.387	3.77
505.587	3.79
505.786	3.83
505.986	3.79
506.186	3.78
506.386	3.79
506.586	3.79
506.786	3.83
506.986	3.81
507.186	3.81
507.386	3.87
507.585	3.89
507.785	3.88
507.985	3.88
508.185	3.94
508.384	3.94
508.584	3.93
508.784	3.92
508.984	3.91
509.183	3.94
509.383	3.98
509.583	3.98
509.782	4
509.982	4
510.182	4
510.381	4.01
510.581	4.08
510.781	4.09
510.98	4.12
511.18	4.09
511.379	4.09
511.579	4.09
511.778	4.05
511.978	4.06
512.177	4.05
512.377	4.09
512.576	4.11
512.776	4.11
512.975	4.11
513.175	4.12
513.374	4.19
513.573	4.2
513.773	4.23
513.972	4.25
514.172	4.3
514.371	4.37
514.57	4.37
514.77	4.39
514.969	4.38
515.168	4.41
515.367	4.46
515.567	4.47
515.766	4.47
515.965	4.48
516.164	4.57
516.364	4.57
516.563	4.59
516.762	4.62
516.961	4.63
517.16	4.66
517.359	4.7
517.559	4.72
517.758	4.74
517.957	4.78
518.156	4.81
518.355	4.78
518.554	4.78
518.753	4.78
518.952	4.8
519.151	4.81
519.35	4.84
519.549	4.84
519.748	4.82
519.947	4.84
520.146	4.86
520.345	4.82
520.544	4.85
520.743	4.9
520.942	4.92
521.141	4.9
521.339	4.92
521.538	4.95
521.737	4.98
521.936	5.02
522.135	5.03
522.333	5.02
522.532	5.06
522.731	5.09
522.93	5.1
523.129	5.13
523.327	5.16
523.526	5.16
523.725	5.13
523.923	5.12
524.122	5.11
524.321	5.13
524.519	5.15
524.718	5.13
524.917	5.14
525.115	5.16
525.314	5.17
525.512	5.19
525.711	5.21
525.909	5.22
526.108	5.23
526.306	5.24
526.505	5.23
526.703	5.27
526.902	5.3
527.1	5.3
527.299	5.31
527.497	5.32
527.696	5.34
527.894	5.35
528.092	5.36
528.291	5.37
528.489	5.41
528.688	5.4
528.886	5.41
529.084	5.42
529.283	5.44
529.481	5.46
529.679	5.46
529.877	5.47
530.076	5.49
530.274	5.53
530.472	5.58
530.67	5.59
530.869	5.64
531.067	5.65
531.265	5.66
531.463	5.69
531.661	5.7
531.859	5.75
532.057	5.8
532.255	5.82
532.454	5.82
532.652	5.84
532.85	5.83
533.048	5.86
533.246	5.88
533.444	5.9
533.642	5.93
533.84	5.96
534.038	5.97
534.236	5.98
534.434	6.01
534.632	6.05
534.83	6.04
535.027	6.1
535.225	6.12
535.423	6.16
535.621	6.17
535.819	6.19
536.017	6.21
536.215	6.22
536.412	6.22
536.61	6.2
536.808	6.2
537.006	6.23
537.203	6.26
537.401	6.25
537.599	6.23
537.797	6.25
537.994	6.25
538.192	6.29
538.39	6.32
538.587	6.31
538.785	6.33
538.983	6.37
539.18	6.41
539.378	6.42
539.575	6.46
539.773	6.52
539.97	6.52
540.168	6.55
540.366	6.54
540.563	6.54
540.761	6.57
540.958	6.6
541.155	6.63
541.353	6.66
541.55	6.67
541.748	6.69
541.945	6.69
542.143	6.73
542.34	6.77
542.537	6.81
542.735	6.86
542.932	6.89
543.129	6.91
543.327	6.96
543.524	6.98
543.721	7.01
543.919	7.04
544.116	7.09
544.313	7.14
544.51	7.14
544.708	7.18
544.905	7.19
545.102	7.19
545.299	7.24
545.496	7.27
545.693	7.3
545.891	7.35
546.088	7.36
546.285	7.37
546.482	7.37
546.679	7.44
546.876	7.47
547.073	7.51
547.27	7.59
547.467	7.59
547.664	7.56
547.861	7.59
548.058	7.57
548.255	7.62
548.452	7.64
548.649	7.69
548.846	7.74
549.043	7.72
549.24	7.73
549.437	7.74
549.633	7.77
549.83	7.84
550.027	7.87
550.224	7.94
550.421	7.96
550.618	8.03
550.814	8.08
551.011	8.07
551.208	8.18
551.405	8.21
551.601	8.27
551.798	8.29
551.995	8.32
552.191	8.33
552.388	8.32
552.585	8.35
552.781	8.38
552.978	8.43
553.175	8.47
553.371	8.44
553.568	8.52
553.764	8.52
553.961	8.6
554.157	8.67
554.354	8.73
554.55	8.83
554.747	8.88
554.943	8.91
555.14	8.97
555.336	8.98
555.533	9.06
555.729	9.09
555.926	9.12
556.122	9.14
556.318	9.13
556.515	9.12
556.711	9.11
556.907	9.16
557.104	9.16
557.3	9.14
557.496	9.22
557.693	9.22
557.889	9.21
558.085	9.26
558.281	9.26
558.478	9.34
558.674	9.42
558.87	9.46
559.066	9.46
559.262	9.47
559.459	9.47
559.655	9.46
559.851	9.49
560.047	9.49
560.243	9.51
560.439	9.53
560.635	9.5
560.831	9.45
561.027	9.51
561.223	9.55
561.419	9.63
561.615	9.67
561.811	9.66
562.007	9.68
562.203	9.73
562.399	9.74
562.595	9.75
562.791	9.77
562.987	9.85
563.183	9.89
563.379	9.93
563.575	9.93
563.771	10
563.966	10.09
564.162	10.15
564.358	10.22
564.554	10.23
564.75	10.31
564.945	10.35
565.141	10.38
565.337	10.37
565.533	10.41
565.728	10.48
565.924	10.47
566.12	10.48
566.315	10.52
566.511	10.52
566.707	10.57
566.902	10.56
567.098	10.59
567.293	10.61
567.489	10.64
567.684	10.66
567.88	10.61
568.076	10.6
568.271	10.6
568.467	10.62
568.662	10.66
568.858	10.64
569.053	10.67
569.248	10.71
569.444	10.73
569.639	10.76
569.835	10.75
570.03	10.83
570.225	10.86
570.421	10.91
570.616	10.91
570.812	10.91
571.007	10.94
571.202	10.94
571.397	10.93
571.593	10.96
571.788	10.98
571.983	11.03
572.178	10.98
572.374	10.99
572.569	11.02
572.764	11.05
572.959	11.1
573.154	11.14
573.35	11.18
573.545	11.2
573.74	11.21
573.935	11.2
574.13	11.2
574.325	11.23
574.52	11.2
574.715	11.18
574.91	11.19
575.105	11.19
575.3	11.2
575.495	11.23
575.69	11.28
575.885	11.27
576.08	11.29
576.275	11.27
576.47	11.32
576.665	11.44
576.86	11.47
577.055	11.47
577.25	11.48
577.444	11.56
577.639	11.58
577.834	11.58
578.029	11.65
578.224	11.7
578.418	11.74
578.613	11.77
578.808	11.75
579.003	11.79
579.197	11.79
579.392	11.78
579.587	11.7
579.781	11.69
579.976	11.69
580.171	11.63
580.365	11.67
580.56	11.64
580.755	11.65
580.949	11.67
581.144	11.65
581.338	11.72
581.533	11.71
581.727	11.74
581.922	11.74
582.116	11.71
582.311	11.7
582.505	11.7
582.7	11.75
582.894	11.77
583.089	11.78
583.283	11.81
583.478	11.81
583.672	11.88
583.866	11.84
584.061	11.88
584.255	11.92
584.449	11.88
584.644	11.88
584.838	11.9
585.032	11.88
585.226	11.88
585.421	11.86
585.615	11.84
585.809	11.86
586.003	11.93
586.198	11.98
586.392	12.01
586.586	12.07
586.78	12.12
586.974	12.2
587.168	12.24
587.363	12.19
587.557	12.24
587.751	12.26
587.945	12.2
588.139	12.16
588.333	12.08
588.527	12.07
588.721	12.14
588.915	12.08
589.109	12.01
589.303	11.93
589.497	11.95
589.691	11.91
589.885	11.91
590.079	12.01
590.273	12.03
590.466	12.08
590.66	12.06
590.854	12.02
591.048	11.99
591.242	11.97
591.436	12.01
591.629	11.97
591.823	12.01
592.017	12.05
592.211	11.99
592.404	12.02
592.598	12.06
592.792	12.16
592.986	12.16
593.179	12.23
593.373	12.22
593.567	12.27
593.76	12.39
593.954	12.33
594.147	12.33
594.341	12.33
594.535	12.3
594.728	12.3
594.922	12.27
595.115	12.28
595.309	12.28
595.502	12.37
595.696	12.3
595.889	12.29
596.083	12.35
596.276	12.29
596.47	12.32
596.663	12.34
596.856	12.33
597.05	12.34
597.243	12.32
597.437	12.3
597.63	12.27
597.823	12.33
598.017	12.34
598.21	12.3
598.403	12.43
598.596	12.41
598.79	12.42
598.983	12.43
599.176	12.38
599.369	12.4
599.563	12.44
599.756	12.45
599.949	12.41
600.142	12.37
600.335	12.38
600.528	12.3
600.722	12.31
600.915	12.31
601.108	12.3
601.301	12.37
601.494	12.36
601.687	12.29
601.88	12.3
602.073	12.36
602.266	12.33
602.459	12.39
602.652	12.39
602.845	12.41
603.038	12.4
603.231	12.37
603.424	12.31
603.617	12.33
603.809	12.32
604.002	12.33
604.195	12.31
604.388	12.35
604.581	12.32
604.774	12.33
604.966	12.35
605.159	12.35
605.352	12.45
605.545	12.51
605.737	12.57
605.93	12.59
606.123	12.58
606.316	12.63
606.508	12.6
606.701	12.68
606.894	12.74
607.086	12.66
607.279	12.61
607.471	12.53
607.664	12.49
607.857	12.5
608.049	12.58
608.242	12.57
608.434	12.53
608.627	12.57
608.819	12.51
609.012	12.45
609.204	12.45
609.397	12.56
609.589	12.62
609.782	12.59
609.974	12.6
610.166	12.6
610.359	12.66
610.551	12.68
610.743	12.68
610.936	12.75
611.128	12.78
611.32	12.86
611.513	12.77
611.705	12.75
611.897	12.74
612.09	12.69
612.282	12.64
612.474	12.54
612.666	12.62
612.858	12.61
613.051	12.55
613.243	12.54
613.435	12.62
613.627	12.68
613.819	12.65
614.011	12.75
614.203	12.7
614.395	12.58
614.588	12.67
614.78	12.64
614.972	12.63
615.164	12.59
615.356	12.54
615.548	12.5
615.74	12.5
615.932	12.51
616.124	12.46
616.315	12.54
616.507	12.65
616.699	12.66
616.891	12.72
617.083	12.71
617.275	12.78
617.467	12.72
617.659	12.65
617.85	12.6
618.042	12.59
618.234	12.64
618.426	12.66
618.618	12.67
618.809	12.64
619.001	12.59
619.193	12.58
619.384	12.59
619.576	12.76
619.768	12.83
619.959	12.81
620.151	12.81
620.343	12.71
620.534	12.64
620.726	12.62
620.917	12.68
621.109	12.65
621.301	12.61
621.492	12.61
621.684	12.49
621.875	12.43
622.067	12.43
622.258	12.47
622.45	12.61
622.641	12.72
622.832	12.75
623.024	12.68
623.215	12.63
623.407	12.68
623.598	12.68
623.789	12.73
623.981	12.76
624.172	12.81
624.363	12.74
624.555	12.72
624.746	12.66
624.937	12.7
625.129	12.66
625.32	12.68
625.511	12.72
625.702	12.67
625.893	12.64
626.085	12.69
626.276	12.77
626.467	12.78
626.658	12.78
626.849	12.74
627.04	12.73
627.231	12.78
627.422	12.85
627.614	12.86
627.805	12.98
627.996	12.99
628.187	12.95
628.378	12.83
628.569	12.89
628.76	12.86
628.951	12.86
629.142	12.81
629.332	12.75
629.523	12.72
629.714	12.68
629.905	12.66
630.096	12.64
630.287	12.65
630.478	12.77
630.669	12.78
630.859	12.75
631.05	12.81
631.241	12.86
631.432	12.92
631.623	12.96
631.813	12.94
632.004	12.82
632.195	12.85
632.385	12.79
632.576	12.79
632.767	12.72
632.957	12.8
633.148	12.83
633.339	12.75
633.529	12.74
633.72	12.7
633.91	12.65
634.101	12.79
634.292	12.75
634.482	12.68
634.673	12.61
634.863	12.58
635.054	12.5
635.244	12.46
635.435	12.53
635.625	12.53
635.815	12.5
636.006	12.48
636.196	12.42
636.387	12.46
636.577	12.58
636.767	12.59
636.958	12.66
637.148	12.6
637.338	12.58
637.529	12.6
637.719	12.59
637.909	12.62
638.099	12.68
638.29	12.79
638.48	12.88
638.67	12.98
638.86	13.04
639.05	13.12
639.241	13.28
639.431	13.32
639.621	13.24
639.811	13.31
640.001	13.19
640.191	13.2
640.381	12.99
640.571	12.91
640.761	12.85
640.951	12.73
641.141	12.68
641.331	12.52
641.521	12.51
641.711	12.58
641.901	12.5
642.091	12.55
642.281	12.61
642.471	12.67
642.661	12.71
642.851	12.75
643.041	12.78
643.231	12.76
643.42	12.93
643.61	12.84
643.8	12.76
643.99	12.79
644.18	12.84
644.369	12.76
644.559	12.94
644.749	12.88
644.939	12.69
645.128	12.7
645.318	12.7
645.508	12.64
645.697	12.77
645.887	12.83
646.076	12.94
646.266	13
646.456	13.08
646.645	12.88
646.835	12.9
647.024	12.99
647.214	13.01
647.403	13.02
647.593	13.06
647.782	13.07
647.972	12.99
648.161	12.82
648.351	12.75
648.54	12.74
648.73	12.78
648.919	12.8
649.108	12.78
649.298	12.72
649.487	12.76
649.677	12.63
649.866	12.57
650.055	12.67
650.244	12.77
650.434	12.8
650.623	12.76
650.812	12.79
651.002	12.71
651.191	12.76
651.38	12.84
651.569	12.8
651.758	12.89
651.947	12.83
652.137	12.83
652.326	12.81
652.515	12.83
652.704	12.9
652.893	12.92
653.082	12.98
653.271	13.04
653.46	13.03
653.649	13.07
653.838	13.07
654.027	13.16
654.216	13.15
654.405	13.18
654.594	13.13
654.783	13.09
654.972	13.1
655.161	13.01
655.35	13
655.539	12.95
655.728	12.93
655.916	12.9
656.105	13.01
656.294	13.04
656.483	12.87
656.672	12.93
656.86	12.88
657.049	12.85
657.238	13
657.427	12.94
657.615	13.01
657.804	12.96
657.993	12.91
658.181	12.83
658.37	12.85
658.559	12.95
658.747	12.92
658.936	12.99
659.125	12.89
659.313	12.83
659.502	12.86
659.69	12.83
659.879	12.88
660.067	12.98
660.256	12.98
660.444	13.02
660.633	13.06
660.821	13.03
661.01	13.06
661.198	13.22
661.387	13.17
661.575	13.2
661.763	13.25
661.952	13.21
662.14	13.22
662.328	13.1
662.517	13.07
662.705	13.02
662.893	13.18
663.082	13.15
663.27	13.08
663.458	13.11
663.646	12.95
663.834	12.95
664.023	12.94
664.211	12.9
664.399	12.99
664.587	12.94
664.775	12.91
664.963	12.75
665.152	12.71
665.34	12.75
665.528	12.73
665.716	12.83
665.904	12.76
666.092	12.85
666.28	12.87
666.468	12.99
666.656	12.98
666.844	13.05
667.032	13.15
667.22	13.06
667.408	13.04
667.596	13.09
667.784	13.1
667.971	13.11
668.159	13.11
668.347	12.96
668.535	12.85
668.723	12.89
668.911	12.88
669.098	12.8
669.286	12.93
669.474	13.03
669.662	12.86
669.849	12.98
670.037	13.03
670.225	13.03
670.413	13.12
670.6	13.16
670.788	13.02
670.976	13
671.163	13.07
671.351	13.04
671.538	12.92
671.726	13.16
671.913	13.07
672.101	13.04
672.289	13.02
672.476	13.15
672.664	13.14
672.851	13.22
673.039	13.21
673.226	13.13
673.413	13.14
673.601	13.2
673.788	13.16
673.976	13.05
674.163	13
674.35	12.91
674.538	12.78
674.725	12.79
674.912	12.86
675.1	12.84
675.287	12.95
675.474	13
675.662	13.11
675.849	13.09
676.036	13.22
676.223	13.42
676.411	13.49
676.598	13.6
676.785	13.62
676.972	13.59
677.159	13.71
677.346	13.65
677.533	13.59
677.721	13.52
677.908	13.54
678.095	13.54
678.282	13.54
678.469	13.62
678.656	13.62
678.843	13.65
679.03	13.57
679.217	13.49
679.404	13.46
679.591	13.46
679.778	13.48
679.964	13.39
680.151	13.41
680.338	13.32
680.525	13.3
680.712	13.25
680.899	13.19
681.086	13.21
681.272	13.25
681.459	13.31
681.646	13.27
681.833	13.29
682.02	13.4
682.206	13.36
682.393	13.31
682.58	13.27
682.766	13.27
682.953	13.28
683.14	13.39
683.326	13.41
683.513	13.44
683.7	13.52
683.886	13.51
684.073	13.53
684.259	13.54
684.446	13.65
684.632	13.63
684.819	13.58
685.005	13.59
685.192	13.6
685.378	13.68
685.565	13.62
685.751	13.53
685.938	13.5
686.124	13.46
686.31	13.52
686.497	13.49
686.683	13.51
686.87	13.61
687.056	13.54
687.242	13.39
687.429	13.27
687.615	13.21
687.801	13.35
687.987	13.26
688.174	13.2
688.36	13.17
688.546	13.19
688.732	13.25
688.918	13.24
689.105	13.3
689.291	13.33
689.477	13.43
689.663	13.6
689.849	13.45
690.035	13.59
690.221	13.63
690.407	13.52
690.593	13.51
690.779	13.58
690.965	13.52
691.151	13.59
691.337	13.66
691.523	13.6
691.709	13.56
691.895	13.69
692.081	13.62
692.267	13.67
692.453	13.7
692.639	13.7
692.825	13.61
693.011	13.53
693.196	13.43
693.382	13.48
693.568	13.54
693.754	13.43
693.94	13.38
694.125	13.4
694.311	13.48
694.497	13.56
694.682	13.55
694.868	13.67
695.054	13.79
695.239	13.84
695.425	13.83
695.611	13.81
695.796	13.93
695.982	13.89
696.168	13.84
696.353	13.64
696.539	13.64
696.724	13.6
696.91	13.52
697.095	13.54
697.281	13.54
697.466	13.56
697.652	13.45
697.837	13.43
698.023	13.46
698.208	13.61
698.393	13.74
698.579	13.67
698.764	13.72
698.949	13.75
699.135	13.66
699.32	13.72
699.505	13.68
699.691	13.67
699.876	13.66
700.061	13.68
700.246	13.53
700.432	13.38
700.617	13.52
700.802	13.52
700.987	13.44
701.172	13.53
701.358	13.42
701.543	13.49
701.728	13.64
701.913	13.64
702.098	13.68
702.283	13.88
702.468	13.95
702.653	13.82
702.838	13.87
703.023	13.82
703.208	14
703.393	13.97
703.578	13.9
703.763	13.93
703.948	13.94
704.133	13.92
704.318	13.57
704.503	13.59
704.688	13.66
704.873	13.64
705.057	13.79
705.242	13.54
705.427	13.79
705.612	13.81
705.797	14.01
705.981	14.15
706.166	14.27
706.351	14.35
706.536	14.49
706.72	14.37
706.905	14.36
707.09	14.3
707.274	14.51
707.459	14.28
707.644	14.42
707.828	14.13
708.013	14.08
708.197	14.07
708.382	14.04
708.567	13.83
708.751	13.98
708.936	13.91
709.12	13.95
709.305	13.75
709.489	13.89
709.673	13.64
709.858	13.69
710.042	13.65
710.227	13.51
710.411	13.51
710.596	13.65
710.78	13.6
710.964	13.66
711.149	13.67
711.333	13.89
711.517	13.84
711.702	14.01
711.886	14.19
712.07	14.06
712.254	14.2
712.438	14.36
712.623	14.36
712.807	14.47
712.991	14.49
713.175	14.57
713.359	14.52
713.544	14.6
713.728	14.59
713.912	14.29
714.096	14.4
714.28	14.28
714.464	14.21
714.648	14.22
714.832	14.1
715.016	14.08
715.2	13.93
715.384	13.89
715.568	13.79
715.752	13.69
715.936	13.75
716.12	13.73
716.304	13.73
716.488	13.77
716.671	13.5
716.855	13.52
717.039	13.46
717.223	13.49
717.407	13.46
717.59	13.32
717.774	13.31
717.958	13.23
718.142	13.22
718.325	13.3
718.509	13.37
718.693	13.64
718.877	13.54
719.06	13.52
719.244	13.6
719.428	13.65
719.611	13.84
719.795	13.86
719.978	14.14
720.162	14.2
720.345	14.21
720.529	14.2
720.713	14.37
720.896	14.49
721.08	14.52
721.263	14.37
721.446	14.17
721.63	14.17
721.813	14.34
721.997	14.33
722.18	14.15
722.364	14.13
722.547	14.04
722.73	13.89
722.914	13.86
723.097	13.81
723.28	14.07
723.464	14.14
723.647	14.05
723.83	13.89
724.013	13.71
724.197	13.77
724.38	13.71
724.563	13.7
724.746	13.83
724.929	14.03
725.112	14.09
725.296	13.91
725.479	13.89
725.662	13.93
725.845	14.05
726.028	13.97
726.211	14.08
726.394	14.26
726.577	14.34
726.76	14.17
726.943	14.03
727.126	13.95
727.309	13.94
727.492	14.08
727.675	14.07
727.858	13.98
728.041	14.08
728.224	13.99
728.407	13.76
728.589	13.63
728.772	13.71
728.955	13.77
729.138	13.97
729.321	13.99
729.503	14.03
729.686	14.16
729.869	14.2
730.052	14.15
730.234	14.16
730.417	14.25
730.6	14.36
730.782	14.23
730.965	14.23
731.148	14.09
731.33	14.26
731.513	14.12
731.695	13.85
731.878	13.91
732.061	14.03
732.243	14
732.426	14.02
732.608	14.07
732.791	14.07
732.973	14.07
733.156	14.1
733.338	14.11
733.52	14.03
733.703	14.26
733.885	14.23
734.068	14.18
734.25	14.11
734.432	14.16
734.615	14.12
734.797	14.25
734.979	14.19
735.162	14.07
735.344	13.97
735.526	14.27
735.708	14.21
735.891	14.23
736.073	14.3
736.255	14.43
736.437	14.27
736.619	14.04
736.802	14
736.984	13.89
737.166	13.96
737.348	13.76
737.53	13.55
737.712	13.69
737.894	13.65
738.076	13.68
738.258	13.73
738.44	13.86
738.622	14.06
738.804	13.96
738.986	14.06
739.168	14.12
739.35	14.29
739.532	14.42
739.714	14.2
739.896	14.17
740.078	14.15
740.259	14.28
740.441	14.2
740.623	14.08
740.805	14.16
740.987	14.31
741.168	14.01
741.35	13.74
741.532	13.71
741.714	13.84
741.895	14.01
742.077	13.91
742.259	14.06
742.44	14.28
742.622	14.22
742.804	14.13
742.985	14.01
743.167	14.51
743.348	14.77
743.53	15.04
743.711	14.87
743.893	14.54
744.075	14.68
744.256	14.2
744.438	14.11
744.619	14.12
744.8	14.15
744.982	14.26
745.163	14.24
745.345	14.17
745.526	13.96
745.707	14.06
745.889	14.24
746.07	14.41
746.252	14.66
746.433	14.76
746.614	14.79
746.795	15.03
746.977	15.06
747.158	14.97
747.339	14.93
747.52	14.81
747.702	14.66
747.883	14.56
748.064	14.41
748.245	14.45
748.426	14.08
748.607	14.49
748.788	14.38
748.97	14.03
749.151	14.31
749.332	14.58
749.513	14.83
749.694	14.77
749.875	14.9
750.056	14.74
750.237	14.45
750.418	14.38
750.599	14
750.78	13.97
750.96	14.09
751.141	13.99
751.322	14.07
751.503	13.91
751.684	14.1
751.865	14.08
752.046	14.14
752.226	14.3
752.407	14.57
752.588	14.8
752.769	14.73
752.949	14.96
753.13	14.79
753.311	14.5
753.492	14.39
753.672	14.47
753.853	14.34
754.034	14.61
754.214	14.82
754.395	14.66
754.575	14.75
754.756	14.83
754.937	14.36
755.117	14.41
755.298	14.47
755.478	14.8
755.659	14.95
755.839	14.93
756.02	14.8
756.2	14.52
756.381	14.32
756.561	13.89
756.741	14.02
756.922	14.32
757.102	14.1
757.283	13.95
757.463	13.75
757.643	13.61
757.823	13.41
758.004	13.61
758.184	13.78
758.364	14.07
758.545	14.42
758.725	14.35
758.905	14.17
759.085	14.54
759.265	14.7
759.446	14.68
759.626	14.68
759.806	15.25
759.986	14.85
760.166	14.65
760.346	14.52
760.526	14.31
760.706	14.12
760.886	14.16
761.066	13.91
761.246	13.93
761.426	13.95
761.606	13.75
761.786	13.64
761.966	13.99
762.146	14.1
762.326	14.09
762.506	13.96
762.686	14.34
762.866	14.32
763.046	14.19
763.225	14.5
763.405	14.46
763.585	14.71
763.765	14.55
763.945	14.22
764.124	14.29
764.304	14.42
764.484	14.68
764.664	14.53
764.843	14.72
765.023	15.03
765.203	14.71
765.382	14.77
765.562	14.66
765.741	14.86
765.921	14.91
766.101	14.74
766.28	14.83
766.46	14.59
766.639	14.49
766.819	14.21
766.998	13.82
767.178	14
767.357	14.13
767.537	14.05
767.716	14.05
767.896	14.52
768.075	14.63
768.254	14.65
768.434	14.98
768.613	14.75
768.792	14.93
768.972	15.5
769.151	15.38
769.33	15.34
769.51	15.46
769.689	15.45
769.868	15.32
770.047	15.38
770.226	15.6
770.406	15.52
770.585	15.72
770.764	15.69
770.943	15.54
771.122	15.37
771.301	15.35
771.48	15.5
771.66	15.56
771.839	15.16
772.018	15.13
772.197	15.1
772.376	15.38
772.555	15.48
772.734	15.57
772.913	15.5
773.092	15.59
773.271	15.58
773.449	15.5
773.628	15.46
773.807	15.77
773.986	15.54
774.165	15.16
774.344	14.71
774.523	14.65
774.701	14.75
774.88	14.78
775.059	14.82
775.238	14.79
775.417	14.42
775.595	14.33
775.774	14.67
775.953	14.91
776.131	14.8
776.31	15.01
776.489	15.01
776.667	15.54
776.846	15.6
777.025	15.55
777.203	15.45
777.382	16.13
777.56	16.26
777.739	15.85
777.917	15.59
778.096	15.9
778.274	15.99
778.453	16.23
778.631	15.68
778.81	15.76
778.988	15.47
779.166	15.66
779.345	15.21
779.523	15.05
779.702	15.23
779.88	15.36
780.058	15.47
780.237	15.22
780.415	15.47
780.593	15.37
780.771	15.06
780.95	15.16
781.128	14.86
781.306	15.14
781.484	15.74
781.662	15.87
781.841	16.04
782.019	15.44
782.197	15.61
782.375	14.83
782.553	15.23
782.731	15.45
782.909	15.6
783.087	15.69
783.265	16.03
783.443	15.71
783.621	15.19
783.799	15.23
783.977	15.86
784.155	15.33
784.333	15.33
784.511	14.73
784.689	14.91
784.867	15.11
785.045	14.81
785.223	14.15
785.4	13.98
785.578	14.03
785.756	14.19
785.934	14.03
786.112	14.68
786.289	15.08
786.467	15.1
786.645	15.03
786.823	14.87
787	15.06
787.178	15.32
787.356	15.43
787.533	15.87
787.711	15.58
787.889	16.2
788.066	16.05
788.244	15.83
788.421	16.03
788.599	16.03
788.776	15.9
788.954	16.08
789.131	15.76
789.309	15.79
789.486	15.64
789.664	16.42
789.841	15.42
790.019	15.37
790.196	15.53
790.373	15.41
790.551	15.01
790.728	15.11
790.906	14.93
791.083	14.64
791.26	14.48
791.437	14.31
791.615	13.64
791.792	14.21
791.969	13.81
792.146	13.95
792.324	14.62
792.501	14.99
792.678	14.91
792.855	14.64
793.032	15.11
793.209	15.39
793.387	15.62
793.564	15.25
793.741	14.87
793.918	15.1
794.095	15.21
794.272	14.85
794.449	14.82
794.626	15.58
794.803	15.73
794.98	15.21
795.157	15.19
795.334	15.22
795.511	15.23
795.688	15.38
795.864	15.94
796.041	15.93
796.218	15.81
796.395	16.32
796.572	16.06
796.749	16.15
796.925	17.2
797.102	17.05
797.279	16.7
797.456	17.28
797.632	16.97
797.809	16.22
797.986	15.97
798.162	16.29
798.339	15.66
798.516	15.44
798.692	15.68
798.869	15.67
799.046	15.46
799.222	15.61
799.399	15.44
799.575	16.43
799.752	16.65
799.928	16.89
800.105	16.52
800.281	16.8
800.458	17.54
800.634	17.76
800.811	17.36
800.987	17.7
801.163	17.37
801.34	17.09
801.516	16.63
801.692	17.1
801.869	17.05
802.045	17.02
802.221	16.76
802.398	15.64
802.574	15.39
802.75	15.05
802.926	14.62
803.103	14.84
803.279	15.03
803.455	15.08
803.631	15.54
803.807	15.11
803.983	15.09
804.16	15.29
804.336	15.06
804.512	15.32
804.688	15.94
804.864	16.07
805.04	16.49
805.216	16.84
805.392	16.03
805.568	15.77
805.744	16.45
805.92	16.26
806.096	16.16
806.272	17.36
806.448	16.77
806.623	16.26
806.799	16.81
806.975	16.45
807.151	16.4
807.327	16.91
807.503	16.86
807.678	16.03
807.854	16.56
808.03	16.66
808.206	16.21
808.381	16.92
808.557	16.86
808.733	16.86
808.908	17.01
809.084	16.75
809.26	16.92
809.435	16.8
809.611	17.68
809.787	17.35
809.962	16.6
810.138	16.19
810.313	15.86
810.489	15.96
810.664	15.74
810.84	16
811.015	16.63
811.191	16.24
811.366	16.15
811.542	15.49
811.717	15.86
811.892	16.67
812.068	16.88
812.243	16.94
812.419	16.88
812.594	17.1
812.769	16.66
812.944	16.38
813.12	16.18
813.295	16.15
813.47	16.01
813.645	15.87
813.821	15.76
813.996	15.55
814.171	15.7
814.346	16.24
814.521	15.72
814.697	15.35
814.872	15.07
815.047	15.92
815.222	15.64
815.397	15.95
815.572	16.02
815.747	16.48
815.922	16.71
816.097	16.38
816.272	15.76
816.447	15.76
816.622	16.58
816.797	16.6
816.972	16.09
817.147	16.53
817.322	16.34
817.496	16.28
817.671	16.23
817.846	15.69
818.021	15.81
818.196	16.42
818.371	16.65
818.545	16.67
818.72	16.84
818.895	16.77
819.069	16.79
819.244	17.06
819.419	17.3
819.594	17.15
819.768	17.1
819.943	17.06
820.117	16.74
820.292	16.72
820.467	16.47
820.641	16.33
820.816	16.31
820.99	16.17
821.165	16.06
821.339	15.84
821.514	15.74
821.688	15.76
821.863	15.54
822.037	15.44
822.212	15.39
822.386	15.31
822.56	15.2
822.735	15.08
822.909	14.94
823.084	14.72
823.258	14.74
823.432	14.69
823.606	14.51
823.781	14.66
823.955	14.74
824.129	14.65
824.303	14.7
824.478	14.9
824.652	14.98
824.826	15.32
825	15.65
825.174	15.57
825.348	15.46
825.523	15.72
825.697	15.52
825.871	15.5
826.045	15.63
826.219	15.75
826.393	15.68
826.567	15.81
826.741	15.64
826.915	15.87
827.089	15.7
827.263	15.92
827.437	15.87
827.611	16.22
827.784	16.15
827.958	16.02
828.132	16.03
828.306	16.02
828.48	15.83
828.654	16.01
828.827	15.41
829.001	16.04
829.175	15.83
829.349	16.32
829.522	16.35
829.696	16.71
829.87	16.49
830.044	16.65
830.217	16.76
830.391	16.82
830.565	16.88
830.738	17.29
830.912	16.98
831.085	17.07
831.259	17.32
831.432	16.51
831.606	16.5
831.779	16.49
831.953	16.33
832.126	16.05
832.3	16.21
832.473	16.2
832.647	16.14
832.82	16.23
832.994	16.1
833.167	15.5
833.34	15.86
833.514	15.51
833.687	15.43
833.86	14.9
834.034	14.97
834.207	15.17
834.38	14.75
834.553	14.52
834.727	14.28
834.9	14.2
835.073	14.27
835.246	14.2
835.419	14.35
835.593	14.96
835.766	15.31
835.939	15.21
836.112	14.72
836.285	14.82
836.458	15.39
836.631	15.27
836.804	15.56
836.977	15.96
837.15	15.9
837.323	16.22
837.496	15.46
837.669	16.13
837.842	16.63
838.015	16.73
838.188	16.21
838.361	16.42
838.533	16.15
838.706	15.3
838.879	14.44
839.052	14.4
839.225	14.44
839.398	15.01
839.57	14.54
839.743	14.09
839.916	14.67
840.088	15.65
840.261	15.51
840.434	16.35
840.607	16.56
840.779	17.25
840.952	17.15
841.124	17.35
841.297	18.07
841.47	18.09
841.642	18.38
841.815	17.64
841.987	16.83
842.16	16.75
842.332	16.19
842.505	16.89
842.677	16.44
842.85	17.21
843.022	16.88
843.194	16.51
843.367	17.72
843.539	17.05
843.712	17.86
843.884	18.23
844.056	18.05
844.229	17.81
844.401	17.76
844.573	19.13
844.745	18.15
844.918	17.88
845.09	17.71
845.262	16.63
845.434	17.61
845.606	16.55
845.779	17.24
845.951	17.46
846.123	18.76
846.295	18.39
846.467	17.09
846.639	16.08
846.811	16.19
846.983	15.48
847.155	15.3
847.327	15.13
847.499	14.3
847.671	14.09
847.843	12.87
848.015	12.26
848.187	13.46
848.359	12.9
848.531	13.39
848.703	12.84
848.875	14.38
849.047	15.58
849.218	15.64
849.39	18.09
849.562	19.05
849.734	17.78
849.905	17.69
850.077	17.58
850.249	18.04
850.421	19.4
850.592	21.86
850.764	20.36
850.936	20.59
851.107	19.46
851.279	19.22
851.451	18.87
851.622	22.78
851.794	24.1
851.965	23.9
852.137	23.48
852.308	23.17
852.48	21.73
852.651	18.78
852.823	18.84
852.994	21.28
853.166	22.05
853.337	22.08
853.509	20.65
853.68	21.32
853.851	21.58
854.023	22.02
854.194	21.43
854.365	22.6
854.537	25.71
854.708	25.25
854.879	22.83
855.05	20.09
855.222	19.46
855.393	19.02
855.564	16.61
855.735	15.09
855.906	17.26
856.078	18.57
856.249	19.98
856.42	18.06
856.591	18.22
856.762	22.34
856.933	24.84
857.104	23.95
857.275	23.52
857.446	23.29
857.617	23.95
857.788	23.66
857.959	22
858.13	19.25
858.301	22.18
858.472	19.72
858.643	15.47
858.814	16.45
858.985	18.84
859.155	19.86
859.326	23.05
859.497	23.48
859.668	19.2
859.839	21.41
860.009	23.43
860.18	20.86
860.351	22.73
860.522	24.03
860.692	22.9
860.863	21.56
861.034	22.02
861.204	18.87
861.375	19.92
861.546	21.74
861.716	19.11
861.887	14.97
862.057	16.1
862.228	16.47
862.398	16.17
862.569	16.34
862.739	17.97
862.91	16.72
863.08	18.35
863.251	14.36
863.421	13.26
863.592	13.47
863.762	15.56
863.932	16.94
864.103	15.01
864.273	14.57
864.443	14.71
864.614	15.18
864.784	15.8
864.954	14.38
865.125	18.27
865.295	21.12
865.465	21.01
865.635	21.21
865.805	22.34
865.976	22.31
866.146	23.23
866.316	22.72
866.486	21.43
866.656	20.78
866.826	20.39
866.996	17.53
867.166	14.48
867.336	15.29
867.506	15.87
867.676	13.44
867.846	13.43
868.016	10.95
868.186	8.32
868.356	9.77
868.526	11.17
868.696	12.76
868.866	15.23
869.036	15.22
869.206	19.31
869.376	19.65
869.545	18.74
869.715	19.82
869.885	21.23
870.055	23.65
870.224	19.42
870.394	20.55
870.564	20.9
870.734	19.03
870.903	21.28
871.073	17.96
871.243	17.44
871.412	18.32
871.582	20.07
871.751	19.87
871.921	20.13
872.091	19.49
872.26	16.65
872.43	14.85
872.599	14.91
872.769	14.22
872.938	13.39
873.108	14.36
873.277	14.77
873.446	15.98
873.616	15.06
873.785	16.27
873.955	20.19
874.124	21.34
874.293	21.95
874.463	23.21
874.632	23.9
874.801	24.95
874.971	26.17
875.14	27.17
875.309	25.58
875.478	26.94
875.647	27.23
875.817	27.83
875.986	24.07
876.155	23.46
876.324	21.41
876.493	23.48
876.662	25.34
876.831	22.34
877	19.45
877.17	18.97
877.339	20.68
877.508	19.63
877.677	19.76
877.846	21.97
878.015	22.33
878.184	24.17
878.352	22.68
878.521	21.73
878.69	21.9
878.859	22.11
879.028	22.95
879.197	21.53
879.366	20.88
879.534	19.7
879.703	19.02
879.872	20.05
880.041	19.96
880.21	19.57
880.378	18.85
880.547	19.17
880.716	19.12
880.884	18.03
881.053	17.76
881.222	17.52
881.39	17.26
881.559	17.61
881.727	17.1
881.896	16.62
882.065	16.31
882.233	16.27
882.402	16.06
882.57	15.68
882.739	15.9
882.907	16
883.076	16.07
883.244	16.04
883.412	15.77
883.581	15.89
883.749	15.98
883.918	16.88
884.086	17.64
884.254	17.52
884.423	18.44
884.591	18.88
884.759	18.11
884.927	18.59
885.096	18.84
885.264	19.24
885.432	19.13
885.6	19.15
885.769	17.64
885.937	17.87
886.105	18.54
886.273	17.77
886.441	17.2
886.609	20.03
886.777	17.89
886.945	18.72
887.113	19.42
887.281	18.76
887.449	22.02
887.617	22.68
887.785	20.04
887.953	18.4
888.121	18.25
888.289	18.16
888.457	17.9
888.625	21.24
888.793	21.19
888.961	20.07
889.129	20.46
889.296	18.73
889.464	18.55
889.632	20.44
889.8	22.14
889.967	22.6
890.135	24.94
