Data from JASIL_2996_Reflection_01.txt Node
Date: Mon Nov 09 09:54:21 EST 2015
User: Geneva
Spectrometer: USB4E03002
Autoset integration time: false
Trigger mode: 4
Integration Time (sec): 1.000000E-1
Scans to average: 10
Electric dark correction enabled: false
Nonlinearity correction enabled: false
Boxcar width: 5
Stray light correction enabled: false
XAxis mode: Wavelengths
Stop averaging: false
Number of Pixels in Spectrum: 3648
>>>>>Begin Spectral Data<<<<<
177.575	27.31
177.794	15.44
178.014	13.37
178.233	-4.96
178.452	7.42
178.672	2.48
178.891	-11.02
179.11	-43.38
179.33	-88.5
179.549	-126.61
179.768	-168.39
179.987	-118.08
180.207	-62.3
180.426	-65.52
180.645	-73.63
180.864	-90.14
181.084	-60.83
181.303	-76.32
181.522	-79.5
181.741	-70.22
181.96	-57.37
182.179	-43.18
182.398	-59.73
182.618	-63.67
182.837	-53.25
183.056	-22.86
183.275	-53.16
183.494	-57.29
183.713	-30.35
183.932	-20.63
184.151	0.14
184.37	5.64
184.589	-4.76
184.808	-11.42
185.027	-12.59
185.246	-66.18
185.465	-42.55
185.684	-17.85
185.903	-32.64
186.122	-28.39
186.341	-75.63
186.56	-184.64
186.779	-149.35
186.998	-126.02
187.216	-91.57
187.435	-100.18
187.654	-70.86
187.873	-104.81
188.092	-166.87
188.311	-148.29
188.53	-168.29
188.748	-63.77
188.967	-77.32
189.186	-82.67
189.405	-91.3
189.623	-54.29
189.842	-87.14
190.061	-107.33
190.28	-91.27
190.498	-134.26
190.717	-161.31
190.936	-188
191.154	-441.8
191.373	-98.67
191.592	-184.91
191.81	-121.28
192.029	-370.34
192.248	-429.73
192.466	-210.4
192.685	-217.1
192.904	-152.19
193.122	-197.7
193.341	-277.64
193.559	-334.3
193.778	-441.72
193.996	-224.71
194.215	-213.94
194.433	-125.33
194.652	-102.88
194.87	-76.8
195.089	-70.82
195.307	-76.19
195.526	-70.36
195.744	-63.52
195.963	-17.86
196.181	-48.42
196.399	-70.39
196.618	-76.32
196.836	-154.49
197.055	-103.72
197.273	-154.05
197.491	-172.32
197.71	-133.13
197.928	-144.8
198.146	-101.93
198.365	-217.82
198.583	-141.52
198.801	-110.64
199.019	-155.74
199.238	-167.13
199.456	-167.48
199.674	-136.73
199.892	-98.88
200.111	-187.69
200.329	-200
200.547	-109.63
200.765	-75.38
200.983	-125.37
201.202	-369.57
201.42	-221.01
201.638	-128.36
201.856	-411.27
202.074	932.43
202.292	853.66
202.51	-117.24
202.728	-76.59
202.946	-202.6
203.165	-125.29
203.383	-134.05
203.601	-181.82
203.819	-309.88
204.037	-253.28
204.255	-190.03
204.473	-92.13
204.691	-90.56
204.909	-156.99
205.127	-175.09
205.345	-229.26
205.562	-656.18
205.78	-208.98
205.998	-122.87
206.216	-158.4
206.434	-171.38
206.652	-191.92
206.87	-227
207.088	-302.23
207.306	-249.84
207.523	-321.01
207.741	-210.12
207.959	-123.2
208.177	-209.49
208.395	-123.32
208.612	-78.63
208.83	-60.71
209.048	-34.72
209.266	-92.45
209.483	-59.03
209.701	-32.3
209.919	-26.51
210.136	-115.95
210.354	-89.77
210.572	-87.34
210.79	-169.19
211.007	-86.7
211.225	-67.03
211.442	-56.98
211.66	-54.83
211.878	-58.12
212.095	-17.38
212.313	-5.67
212.53	-0.17
212.748	-5.68
212.966	-2.14
213.183	-2.6
213.401	-7.87
213.618	-7.33
213.836	-12.79
214.053	-11.83
214.271	-11.76
214.488	-26.31
214.705	-30.04
214.923	-40
215.14	-40.16
215.358	-71.25
215.575	-43.58
215.793	-53.03
216.01	-38.21
216.227	-36.22
216.445	-34.48
216.662	-28.71
216.879	-5.49
217.097	-25.51
217.314	-5.21
217.531	-18.02
217.749	-4.44
217.966	-4.86
218.183	-50.44
218.4	-168.37
218.618	-133.33
218.835	-82.34
219.052	-357.14
219.269	-1073.68
219.487	-353.8
219.704	-1039.68
219.921	1438.6
220.138	1658.97
220.355	1013.7
220.572	0
220.79	-2536.36
221.007	-592.42
221.224	-481.62
221.441	-179.67
221.658	-200.99
221.875	-204.02
222.092	-113.7
222.309	-32.45
222.526	-30.39
222.743	-25.64
222.96	2.46
223.177	13.69
223.394	10.26
223.611	-35.38
223.828	-87.1
224.045	-66.91
224.262	-39.29
224.479	-44.23
224.696	-80.58
224.913	-110.2
225.13	-131.13
225.347	-130.25
225.564	-116.84
225.781	-97.83
225.997	-83.76
226.214	-47.74
226.431	-41.57
226.648	-53.98
226.865	-41.72
227.082	-31.05
227.298	-37
227.515	-39.33
227.732	-39.4
227.949	-39.03
228.165	-31
228.382	-20.86
228.599	-25.83
228.816	-31.65
229.032	-45.54
229.249	-50.88
229.466	-56.13
229.682	-47.65
229.899	-37.63
230.116	-53.49
230.332	-62.29
230.549	-64.6
230.765	-116.69
230.982	-115.14
231.199	-84.48
231.415	-50.55
231.632	-56.66
231.848	-51.76
232.065	-42.96
232.281	-46.22
232.498	-30.61
232.714	-16.49
232.931	-31.99
233.147	-15.59
233.364	-4.69
233.58	-12.43
233.797	-9.33
234.013	-4.55
234.23	-18.3
234.446	-24.88
234.662	-20.34
234.879	-27.76
235.095	-23.16
235.312	-29.72
235.528	-33.29
235.744	-40.64
235.961	-32.48
236.177	-28.83
236.393	-31.54
236.61	-33.43
236.826	-37.55
237.042	-36.84
237.258	-31.1
237.475	-29.9
237.691	-20.3
237.907	-21.35
238.123	-36.1
238.339	-51.9
238.556	-50.03
238.772	-57.43
238.988	-41.81
239.204	-34.07
239.42	-31.67
239.636	-15.26
239.853	-12.77
240.069	-19.67
240.285	-14.39
240.501	-3.57
240.717	-4.22
240.933	-6.39
241.149	1.27
241.365	2.74
241.581	4.2
241.797	4.87
242.013	0.19
242.229	-6.18
242.445	-1.48
242.661	-1.26
242.877	-4.83
243.093	-9.68
243.309	-10.57
243.525	-25.68
243.741	-22.79
243.957	-22.54
244.173	-22.28
244.388	-25.28
244.604	-18.15
244.82	-17.31
245.036	-13.69
245.252	-11.82
245.468	-6.77
245.683	-7.68
245.899	-2.8
246.115	-2.77
246.331	-3.62
246.547	-4.43
246.762	-2.36
246.978	-1.71
247.194	-2.19
247.409	-5.49
247.625	-4.61
247.841	-3.67
248.057	-0.42
248.272	0.31
248.488	-1.73
248.703	0.47
248.919	-4.23
249.135	-6.14
249.35	-9.25
249.566	-10.22
249.782	-11.4
249.997	-11.84
250.213	-22.03
250.428	-13.83
250.644	-18.93
250.859	-16.56
251.075	-18.37
251.29	-13.74
251.506	-8.97
251.721	-9.99
251.937	-8.62
252.152	-5.78
252.368	-7.96
252.583	-1.42
252.798	-9.4
253.014	-2.04
253.229	-7.12
253.445	-11.7
253.66	-16.86
253.875	-30.03
254.091	-28.69
254.306	-24.47
254.521	-19.51
254.737	-13.87
254.952	-8.77
255.167	-10.3
255.383	-10.69
255.598	-11.49
255.813	-4.99
256.028	-8.57
256.244	-5.17
256.459	-3.49
256.674	0.19
256.889	-0.09
257.104	-3.53
257.32	-5.01
257.535	-2.94
257.75	-3.46
257.965	-1.2
258.18	-0.29
258.395	1.32
258.61	2.15
258.826	2.09
259.041	-0.33
259.256	-3.43
259.471	-2
259.686	-0.23
259.901	-2.14
260.116	-5.97
260.331	-10.4
260.546	-12.04
260.761	-10.61
260.976	-13.33
261.191	-15.56
261.406	-16.26
261.621	-10.79
261.836	-12.39
262.05	-13.68
262.265	-11.56
262.48	-4.28
262.695	-0.69
262.91	-4.13
263.125	-8.48
263.34	-5.93
263.555	-3.07
263.769	1.63
263.984	3.2
264.199	-2.39
264.414	-6.46
264.629	-4.33
264.843	-9.06
265.058	-9.09
265.273	-7.17
265.488	-7.02
265.702	-9.94
265.917	-11.26
266.132	-14.26
266.346	-16.07
266.561	-7.12
266.776	-8.47
266.99	-9.33
267.205	-4.08
267.42	-3.48
267.634	-4.82
267.849	-2.98
268.063	0.81
268.278	0.91
268.492	3.31
268.707	5.39
268.922	0.32
269.136	-2.6
269.351	-6.41
269.565	-7.63
269.78	-8.43
269.994	-3.3
270.209	-4
270.423	-5.86
270.637	-4.73
270.852	-6.6
271.066	-6.67
271.281	-4.22
271.495	-1.04
271.709	0.58
271.924	-1.15
272.138	-0.72
272.353	-0.98
272.567	0.86
272.781	1.47
272.996	1.04
273.21	1.68
273.424	-3.42
273.638	-7.43
273.853	-6.44
274.067	-3.66
274.281	-2.95
274.495	-4.4
274.71	-7.7
274.924	-8.18
275.138	-10.56
275.352	-9.42
275.566	-11.16
275.781	-7.32
275.995	-2.63
276.209	-3.44
276.423	-5.56
276.637	-6.83
276.851	-5.71
277.065	-7.75
277.279	-9.84
277.493	-7.24
277.707	-8.98
277.921	-8.62
278.135	-9.91
278.349	-15.52
278.563	-17.84
278.777	-17.19
278.991	-14.55
279.205	-16.72
279.419	-11.74
279.633	-13.13
279.847	-16.19
280.061	-18.05
280.275	-13.52
280.489	-12.1
280.703	-9.56
280.917	-7.68
281.131	-6.36
281.344	-4.51
281.558	-3.58
281.772	-7.06
281.986	-6.39
282.2	-6.81
282.414	-2.87
282.627	-4.16
282.841	-3.12
283.055	-4.94
283.269	-3.45
283.482	-3.51
283.696	-1.78
283.91	-0.91
284.123	-2.5
284.337	0.28
284.551	5.57
284.764	3.73
284.978	5.8
285.192	3.56
285.405	4.25
285.619	1.32
285.833	-0.9
286.046	-6.4
286.26	-8.2
286.473	-2.97
286.687	-4.17
286.9	-7.41
287.114	-8.8
287.327	-11.23
287.541	-10.12
287.754	-14.68
287.968	-10.57
288.181	-13.38
288.395	-12.96
288.608	-12.79
288.822	-14.21
289.035	-15.12
289.248	-14.28
289.462	-14.51
289.675	-15.6
289.889	-15.96
290.102	-8.5
290.315	-10.72
290.529	-6.46
290.742	-3.33
290.955	-1.12
291.169	-0.59
291.382	-1.36
291.595	-4.9
291.808	-3.66
292.022	-1
292.235	0.51
292.448	-1.31
292.661	-0.48
292.875	-2.37
293.088	-3.49
293.301	-1.97
293.514	-2.64
293.727	-2.33
293.94	-1.82
294.153	-0.88
294.367	-3.89
294.58	-5.42
294.793	-7.25
295.006	-8.81
295.219	-7.37
295.432	-6.3
295.645	-7.15
295.858	-8.37
296.071	-7.91
296.284	-7.54
296.497	-10.45
296.71	-9.25
296.923	-8.23
297.136	-7.87
297.349	-3.82
297.562	-4.35
297.775	-6.31
297.988	-6.15
298.201	-3.56
298.414	-4.03
298.626	-0.46
298.839	0.89
299.052	0.53
299.265	-0.63
299.478	-0.33
299.691	-2.84
299.903	-1.86
300.116	-0.59
300.329	-1.35
300.542	-2.58
300.755	-2.23
300.967	-3.34
301.18	-3.38
301.393	-2.96
301.605	-0.18
301.818	-2.74
302.031	0.56
302.243	1.27
302.456	-0.11
302.669	2.88
302.881	3.87
303.094	5.38
303.307	5.02
303.519	5.69
303.732	6.12
303.944	4.55
304.157	7.67
304.37	3.3
304.582	0.5
304.795	1.97
305.007	-1.71
305.22	-4.16
305.432	-6.11
305.645	-7.13
305.857	-4.53
306.069	-5.45
306.282	-4.02
306.494	-5.04
306.707	-7.66
306.919	-5.08
307.132	-5.58
307.344	-6.52
307.556	-6.35
307.769	-3.98
307.981	-6.05
308.193	-8.8
308.406	-8.42
308.618	-6
308.83	-3.56
309.043	1.51
309.255	-0.39
309.467	-1.43
309.679	1.11
309.892	3.26
310.104	3.47
310.316	3.55
310.528	6.43
310.74	5.36
310.953	2.69
311.165	2.3
311.377	-0.42
311.589	1.01
311.801	1.71
312.013	1.53
312.225	0.88
312.437	-0.66
312.649	-1.96
312.862	-5.91
313.074	-6.89
313.286	-3.74
313.498	-5.41
313.71	-4.83
313.922	-5.21
314.134	-4.39
314.346	-6.16
314.558	-8.89
314.77	-6.63
314.982	-0.04
315.193	3.56
315.405	6.8
315.617	6.53
315.829	5.56
316.041	5.44
316.253	3.31
316.465	2.88
316.677	2.14
316.888	4.51
317.1	0.71
317.312	-2.96
317.524	-2.64
317.736	-0.06
317.947	-3.99
318.159	-2.01
318.371	0.38
318.583	-0.19
318.794	-1.6
319.006	-0.62
319.218	-1.35
319.43	-0.46
319.641	2.06
319.853	-2.34
320.064	-8.51
320.276	-7.12
320.488	-9.28
320.699	-11.85
320.911	-7.69
321.123	-3.27
321.334	-2.71
321.546	-2.71
321.757	-4.75
321.969	-8.29
322.18	-3.73
322.392	-2.21
322.603	-3.49
322.815	-1.74
323.026	-2.27
323.238	-3.46
323.449	-5.46
323.661	-7.09
323.872	-9.42
324.083	-8.37
324.295	-8.89
324.506	-9.82
324.718	-9.76
324.929	-7.87
325.14	-9.54
325.352	-8.02
325.563	-4.23
325.774	-5.29
325.986	-5.22
326.197	-2.8
326.408	-1.93
326.62	-3.62
326.831	-2.67
327.042	-2.93
327.253	-2.16
327.464	0.15
327.676	1.8
327.887	0.59
328.098	1.23
328.309	2.9
328.52	1.24
328.732	2.35
328.943	5.41
329.154	2.26
329.365	0.1
329.576	-0.47
329.787	-0.1
329.998	-0.3
330.209	-3.84
330.42	-3.4
330.631	-6.05
330.842	-5.26
331.053	-4.09
331.264	-5.3
331.475	-2.11
331.686	0.43
331.897	2.33
332.108	1.67
332.319	-0.48
332.53	-1.8
332.741	0.87
332.952	4.46
333.163	5.45
333.374	2.73
333.585	3.31
333.795	1.99
334.006	5.51
334.217	5.36
334.428	5.83
334.639	6.02
334.849	7.39
335.06	5.85
335.271	4.14
335.482	3.15
335.692	3.24
335.903	3.54
336.114	2.44
336.325	2.03
336.535	-0.51
336.746	-1.66
336.957	-0.34
337.167	1.95
337.378	2.31
337.589	2.07
337.799	3.41
338.01	3.4
338.22	5.46
338.431	3.49
338.642	1.05
338.852	2.11
339.063	0.07
339.273	1.85
339.484	1.86
339.694	0.25
339.905	-0.25
340.115	0
340.326	0.64
340.536	-1.94
340.746	1.68
340.957	2.17
341.167	5.61
341.378	7.91
341.588	2.97
341.799	-0.07
342.009	2.22
342.219	0.78
342.43	1.34
342.64	1.75
342.85	4.84
343.061	4.47
343.271	4.08
343.481	1.22
343.691	-0.24
343.902	2.73
344.112	3.23
344.322	1.6
344.532	3.91
344.743	3.23
344.953	2.96
345.163	2.11
345.373	3.91
345.583	2.84
345.793	0.01
346.004	2.65
346.214	1.05
346.424	2.12
346.634	2.72
346.844	1.99
347.054	2.99
347.264	-1.71
347.474	-1.92
347.684	-3.4
347.894	-2.26
348.104	0.2
348.314	-2.06
348.524	-0.77
348.734	0.42
348.944	-0.24
349.154	-0.64
349.364	-2.48
349.574	2.14
349.784	3.14
349.994	4.92
350.204	4.31
350.413	5.79
350.623	8.74
350.833	8.98
351.043	6.71
351.253	6.87
351.463	8.59
351.672	6.11
351.882	5.96
352.092	3.04
352.302	1.33
352.511	3.06
352.721	2.8
352.931	0.38
353.141	-0.51
353.35	1.72
353.56	1.01
353.77	-2.46
353.979	1.46
354.189	1.85
354.399	2.95
354.608	3.74
354.818	3.02
355.027	1.61
355.237	2.61
355.447	4.18
355.656	2.95
355.866	4.05
356.075	5.52
356.285	5.2
356.494	3.48
356.704	2.77
356.913	1.61
357.123	0.61
357.332	0.26
357.542	0.66
357.751	0.49
357.96	0.31
358.17	0.1
358.379	1.54
358.589	0.84
358.798	1.05
359.007	1.43
359.217	0.28
359.426	2.03
359.635	2.09
359.845	0.16
360.054	-2.2
360.263	-1.66
360.472	-0.5
360.682	-1.08
360.891	-0.44
361.1	1.03
361.309	0.36
361.519	0.61
361.728	0.24
361.937	0.52
362.146	2.32
362.355	4.81
362.564	4.01
362.774	2.72
362.983	3.57
363.192	3.29
363.401	3.04
363.61	4.74
363.819	5.69
364.028	3.95
364.237	4.07
364.446	3.55
364.655	2.32
364.864	4.73
365.073	4.5
365.282	3.28
365.491	3.76
365.7	3.55
365.909	1.1
366.118	1.15
366.327	1.33
366.536	2.3
366.745	1.75
366.954	1.39
367.162	0.3
367.371	-0.77
367.58	-0.15
367.789	-0.55
367.998	-0.28
368.207	3.44
368.415	2.81
368.624	1.85
368.833	2.17
369.042	2.41
369.25	2.83
369.459	2.83
369.668	4.67
369.877	4.47
370.085	4.58
370.294	5.14
370.503	3.22
370.711	4.39
370.92	5.03
371.129	4.32
371.337	3.44
371.546	3.16
371.754	1.88
371.963	0.1
372.171	-1.53
372.38	-2.46
372.589	-3.49
372.797	-4.82
373.006	-6.71
373.214	-5.86
373.423	-4.92
373.631	-4.28
373.84	-4.54
374.048	-4.52
374.256	-3.02
374.465	-1.75
374.673	-1.38
374.882	-2.41
375.09	-1.17
375.298	-0.28
375.507	0.2
375.715	-0.61
375.923	0.11
376.132	1.01
376.34	1.87
376.548	2.09
376.757	2.11
376.965	1.98
377.173	5.25
377.381	3.97
377.59	4.21
377.798	3.58
378.006	3.14
378.214	3.07
378.423	3.32
378.631	3.35
378.839	2.84
379.047	3.42
379.255	3.71
379.463	2.48
379.671	3.26
379.879	3.92
380.088	3.45
380.296	2.76
380.504	2.47
380.712	2.71
380.92	3.19
381.128	5.26
381.336	4.92
381.544	5.5
381.752	5.14
381.96	5.92
382.168	4.37
382.376	5.25
382.584	6.27
382.791	6.63
382.999	5.29
383.207	5.02
383.415	3.24
383.623	2.95
383.831	3.3
384.039	2.5
384.247	2.37
384.454	3.44
384.662	4.03
384.87	2.76
385.078	2.03
385.285	2.96
385.493	1.98
385.701	1.97
385.909	2.56
386.116	2.84
386.324	3.21
386.532	1.9
386.739	0.54
386.947	-0.92
387.155	-0.15
387.362	-0.44
387.57	-2.08
387.778	-0.6
387.985	-1.05
388.193	-2.25
388.4	-3.12
388.608	-4.62
388.816	-3.26
389.023	-2.73
389.231	-1.98
389.438	-0.98
389.646	-0.27
389.853	0.85
390.061	-0.63
390.268	-0.45
390.475	0.36
390.683	-0.65
390.89	1.01
391.098	1.1
391.305	2.28
391.512	2.72
391.72	1.64
391.927	0.72
392.135	1.26
392.342	2.69
392.549	3.8
392.756	3.91
392.964	4.96
393.171	4.57
393.378	4.64
393.586	4.2
393.793	3.51
394	4.2
394.207	6.01
394.414	6.16
394.622	4.94
394.829	4.28
395.036	3.26
395.243	3.43
395.45	4.3
395.657	2.99
395.864	2.86
396.072	2.63
396.279	3.33
396.486	1.41
396.693	2.1
396.9	3.46
397.107	4.16
397.314	4.87
397.521	4.02
397.728	3.21
397.935	4
398.142	3.98
398.349	3.45
398.556	2.93
398.763	2.54
398.97	1.01
399.177	0.09
399.383	-0.95
399.59	-2.01
399.797	-1.41
400.004	-1.16
400.211	-1.4
400.418	-1.85
400.625	0.68
400.831	-0.29
401.038	1.04
401.245	0.52
401.452	0.63
401.658	0.82
401.865	2.53
402.072	2.96
402.279	1.26
402.485	0.94
402.692	0.63
402.899	-0.34
403.105	-0.62
403.312	-0.77
403.519	0.36
403.725	0.52
403.932	0.72
404.138	0.37
404.345	-0.09
404.552	0.73
404.758	1.05
404.965	2.29
405.171	2.78
405.378	4.1
405.584	3.67
405.791	3.86
405.997	3.57
406.204	2.57
406.41	2.39
406.617	2.11
406.823	1.73
407.029	2.22
407.236	1.57
407.442	2.01
407.649	0.94
407.855	1.52
408.061	1.29
408.268	1.71
408.474	2.83
408.68	3.23
408.887	3.54
409.093	4.3
409.299	4.61
409.505	4.25
409.712	2.65
409.918	3.6
410.124	3.62
410.33	3.23
410.537	3.94
410.743	3.95
410.949	3.42
411.155	3.48
411.361	4.53
411.567	4.06
411.773	4.77
411.98	5.86
412.186	5.99
412.392	6.16
412.598	7.18
412.804	5.62
413.01	5.13
413.216	5.42
413.422	5.21
413.628	4.38
413.834	4.64
414.04	3.33
414.246	3.67
414.452	3.51
414.658	2.98
414.864	2.61
415.07	2.53
415.275	1.87
415.481	2.69
415.687	3.22
415.893	3.21
416.099	2.4
416.305	3.22
416.511	2.63
416.716	2.7
416.922	3.86
417.128	3.36
417.334	3.82
417.539	4.85
417.745	4.87
417.951	4.01
418.157	3.77
418.362	4.53
418.568	4.74
418.774	4.92
418.979	5.39
419.185	5.04
419.391	5.01
419.596	4.44
419.802	4.16
420.008	3.85
420.213	0.17
420.419	0.4
420.624	-0.13
420.83	-0.14
421.035	0.24
421.241	-0.15
421.446	-0.89
421.652	-0.27
421.857	0.05
422.063	0.24
422.268	0.34
422.474	4.14
422.679	4.43
422.885	4.34
423.09	4.07
423.295	3.64
423.501	3.06
423.706	3.44
423.911	3.09
424.117	3.84
424.322	3.9
424.527	3.53
424.733	3.77
424.938	3.1
425.143	3.17
425.349	3.27
425.554	3.38
425.759	3.4
425.964	3.16
426.169	3.47
426.375	2.98
426.58	2.12
426.785	2.18
426.99	1.7
427.195	2.81
427.4	3.33
427.605	3.05
427.811	2.6
428.016	2.96
428.221	3.7
428.426	3.41
428.631	3.02
428.836	3.78
429.041	3.67
429.246	4.04
429.451	3.49
429.656	3.18
429.861	3.44
430.066	3.61
430.271	3.82
430.476	2.91
430.681	2.65
430.886	3.24
431.09	3.08
431.295	2.83
431.5	3.62
431.705	3.42
431.91	3.94
432.115	4.15
432.32	4
432.524	4.02
432.729	4.9
432.934	5.28
433.139	5.22
433.343	5.05
433.548	6.47
433.753	5.79
433.958	5.76
434.162	5.86
434.367	5.74
434.572	5.79
434.776	6.07
434.981	5.62
435.186	4.69
435.39	5.3
435.595	5.26
435.799	3.8
436.004	3.82
436.209	4.17
436.413	3.54
436.618	3.56
436.822	3.86
437.027	3.12
437.231	3.3
437.436	4.07
437.64	2.98
437.845	2.62
438.049	3.34
438.253	3.56
438.458	3.21
438.662	3.36
438.867	3.47
439.071	3.44
439.275	3.7
439.48	3.74
439.684	3.45
439.888	3.96
440.093	4.35
440.297	4.16
440.501	4.28
440.706	4.13
440.91	4.18
441.114	4.36
441.318	4
441.523	4.31
441.727	3.77
441.931	3.92
442.135	3.66
442.339	3.63
442.543	3.94
442.748	3.79
442.952	4.61
443.156	4.11
443.36	3.93
443.564	4.12
443.768	3.67
443.972	3.12
444.176	3.35
444.38	3.09
444.584	3.7
444.788	3.19
444.992	3.13
445.196	2.48
445.4	3.14
445.604	2.86
445.808	2.64
446.012	2.76
446.216	3.54
446.42	3.57
446.624	3.84
446.828	3.77
447.032	3.85
447.235	3.84
447.439	3.96
447.643	3.97
447.847	4.47
448.051	4.69
448.254	4.72
448.458	4.65
448.662	4.32
448.866	3.8
449.069	3.22
449.273	3.16
449.477	3.6
449.681	4.17
449.884	3.82
450.088	3.07
450.292	3.18
450.495	3.28
450.699	3.79
450.902	3.78
451.106	3.85
451.31	3.44
451.513	3.71
451.717	3.87
451.92	3.41
452.124	3.21
452.327	3.76
452.531	3.76
452.734	3.33
452.938	3.24
453.141	3.91
453.345	4.38
453.548	4.94
453.752	4.58
453.955	4.41
454.158	4.26
454.362	5.06
454.565	5.34
454.769	5.66
454.972	6.34
455.175	5.51
455.379	4.48
455.582	4.27
455.785	3.72
455.988	2.77
456.192	2.25
456.395	2.1
456.598	1.01
456.801	0.13
457.005	-0.15
457.208	-0.31
457.411	0.11
457.614	0.87
457.817	1.25
458.021	1.5
458.224	2.48
458.427	2.3
458.63	2.36
458.833	2.21
459.036	2.7
459.239	2.53
459.442	3.04
459.645	3.19
459.848	3.12
460.051	2.91
460.254	3.41
460.457	3.4
460.66	3.47
460.863	3.84
461.066	4.46
461.269	3.99
461.472	4.2
461.675	3.32
461.878	3.41
462.081	2.8
462.284	3.07
462.486	2.37
462.689	2.28
462.892	2.65
463.095	2.86
463.298	2.75
463.5	3.22
463.703	4.07
463.906	4.62
464.109	5.05
464.311	6.39
464.514	5.84
464.717	6.09
464.92	6.09
465.122	5.77
465.325	5.33
465.528	5.47
465.73	5.09
465.933	4.49
466.135	3.62
466.338	2.77
466.541	2.39
466.743	2.79
466.946	3.28
467.148	2.55
467.351	2.92
467.553	2.74
467.756	2.76
467.958	2.8
468.161	2.62
468.363	2.61
468.566	2.81
468.768	1.97
468.971	1.81
469.173	1.39
469.375	1.81
469.578	1.31
469.78	2.35
469.983	1.69
470.185	1.66
470.387	1.56
470.59	2.05
470.792	2.05
470.994	2.13
471.196	2.56
471.399	2.36
471.601	2.77
471.803	2.99
472.005	1.76
472.208	1.94
472.41	2.04
472.612	2.53
472.814	1.77
473.016	1.94
473.218	2.63
473.421	2.25
473.623	2.12
473.825	1.7
474.027	1.43
474.229	1.53
474.431	1.59
474.633	1.57
474.835	1.57
475.037	2.66
475.239	2.79
475.441	1.93
475.643	2.39
475.845	2.55
476.047	2.89
476.249	3.23
476.451	3.04
476.653	3.58
476.855	3.8
477.057	3.67
477.258	3.75
477.46	4.33
477.662	4.81
477.864	4.54
478.066	4.51
478.268	4.36
478.469	4.48
478.671	5.38
478.873	4.75
479.075	4.52
479.276	4.46
479.478	3.83
479.68	3.13
479.882	3.25
480.083	3.06
480.285	3.39
480.487	3.56
480.688	3.11
480.89	2.69
481.091	2.95
481.293	3
481.495	2.96
481.696	3.15
481.898	3.33
482.099	3.26
482.301	3.51
482.502	3.57
482.704	3.59
482.905	3.84
483.107	4.04
483.308	4.26
483.51	4.38
483.711	4.51
483.913	4.65
484.114	4.56
484.315	4.63
484.517	4.48
484.718	4.42
484.92	4.36
485.121	4.28
485.322	4.16
485.524	4.1
485.725	3.94
485.926	3.89
486.127	3.7
486.329	3.82
486.53	4.04
486.731	4.2
486.932	4.41
487.134	4.58
487.335	4.64
487.536	4.65
487.737	4.7
487.938	4.79
488.139	4.92
488.341	5.13
488.542	5.29
488.743	5.01
488.944	4.8
489.145	4.21
489.346	3.92
489.547	3.79
489.748	3.69
489.949	3.37
490.15	3.47
490.351	3.44
490.552	3.49
490.753	3.37
490.954	3.4
491.155	3.41
491.356	3.44
491.557	3.63
491.758	3.53
491.959	3.79
492.159	3.79
492.36	3.6
492.561	3.73
492.762	3.47
492.963	3.58
493.164	3.69
493.364	3.57
493.565	3.96
493.766	3.61
493.967	3.74
494.167	2.93
494.368	2.86
494.569	3.18
494.769	2.48
494.97	2.54
495.171	2.51
495.371	2.36
495.572	2.44
495.773	2.36
495.973	2.37
496.174	2.81
496.375	3.37
496.575	3.16
496.776	3.55
496.976	3.54
497.177	3.81
497.377	3.48
497.578	3.29
497.778	3.65
497.979	3.62
498.179	4.06
498.38	4
498.58	3.92
498.78	4.56
498.981	4
499.181	4.2
499.382	4.1
499.582	4.15
499.782	3.99
499.983	4.18
500.183	4.18
500.383	3.69
500.584	2.84
500.784	2.89
500.984	3.1
501.184	2.76
501.385	3.2
501.585	2.79
501.785	2.68
501.985	3.06
502.185	3
502.386	2.89
502.586	3.36
502.786	3.92
502.986	3.99
503.186	3.75
503.386	4.42
503.586	4.35
503.786	5.02
503.987	5.2
504.187	5.32
504.387	4.94
504.587	4.81
504.787	5.18
504.987	5.08
505.187	4.92
505.387	4.3
505.587	3.47
505.786	3.05
505.986	2.69
506.186	2.86
506.386	2.85
506.586	2.98
506.786	3.61
506.986	3.03
507.186	3.03
507.386	3.17
507.585	3.74
507.785	4.15
507.985	4.5
508.185	4.33
508.384	3.75
508.584	3.31
508.784	3.36
508.984	3.29
509.183	3.24
509.383	2.88
509.583	3.03
509.782	2.86
509.982	2.9
510.182	2.83
510.381	3.23
510.581	3.83
510.781	4.32
510.98	4.25
511.18	4.04
511.379	4.26
511.579	4.38
511.778	4.61
511.978	4.77
512.177	5.1
512.377	5.07
512.576	4.9
512.776	5.42
512.975	5.45
513.175	5.61
513.374	5.52
513.573	5.44
513.773	5.55
513.972	4.92
514.172	4.85
514.371	4.35
514.57	4.22
514.77	4.72
514.969	4.18
515.168	4.12
515.367	4.06
515.567	4.2
515.766	4.05
515.965	4.36
516.164	4.65
516.364	4.63
516.563	5.05
516.762	5.37
516.961	5.13
517.16	5.63
517.359	5.87
517.559	6.15
517.758	6.51
517.957	6.69
518.156	6.31
518.355	6.63
518.554	6.82
518.753	6.72
518.952	6.33
519.151	6.22
519.35	5.87
519.549	5.58
519.748	5.16
519.947	4.81
520.146	4.98
520.345	5.81
520.544	5.49
520.743	4.99
520.942	4.86
521.141	5.71
521.339	6.26
521.538	6.03
521.737	6.22
521.936	6.89
522.135	6.83
522.333	6.6
522.532	6.46
522.731	6.54
522.93	6.85
523.129	7.2
523.327	6.78
523.526	5.83
523.725	5.67
523.923	5.65
524.122	5.17
524.321	5.41
524.519	5.27
524.718	5.28
524.917	5.24
525.115	5.28
525.314	5
525.512	5.31
525.711	5.72
525.909	6.01
526.108	6.27
526.306	6.24
526.505	6.03
526.703	6.34
526.902	6.35
527.1	6.49
527.299	6.57
527.497	6.74
527.696	6.65
527.894	6.75
528.092	6.85
528.291	6.74
528.489	6.95
528.688	7.11
528.886	7.08
529.084	7.19
529.283	7.01
529.481	7.14
529.679	6.89
529.877	6.95
530.076	6.86
530.274	6.83
530.472	6.9
530.67	7.09
530.869	7.22
531.067	6.93
531.265	6.85
531.463	6.89
531.661	6.85
531.859	7.23
532.057	7.24
532.255	7.12
532.454	7.05
532.652	7.1
532.85	6.92
533.048	6.89
533.246	7.2
533.444	7.22
533.642	7.5
533.84	7.32
534.038	7.17
534.236	7.25
534.434	7.31
534.632	7.2
534.83	7.36
535.027	7.23
535.225	7.22
535.423	7.26
535.621	7.25
535.819	6.99
536.017	7.27
536.215	7.56
536.412	7.16
536.61	7.68
536.808	8.09
537.006	7.9
537.203	7.86
537.401	8.03
537.599	7.53
537.797	7.77
537.994	7.82
538.192	7.8
538.39	7.91
538.587	8.19
538.785	7.87
538.983	8.07
539.18	8.02
539.378	8.07
539.575	8.17
539.773	8.53
539.97	8.41
540.168	8.75
540.366	8.72
540.563	8.74
540.761	8.53
540.958	8.59
541.155	8.09
541.353	8.19
541.55	8.63
541.748	8.44
541.945	8.4
542.143	8.35
542.34	8.1
542.537	8.01
542.735	7.69
542.932	8.09
543.129	8.08
543.327	8.58
543.524	8.84
543.721	8.52
543.919	8.65
544.116	8.65
544.313	8.87
544.51	8.73
544.708	8.62
544.905	8.74
545.102	8.89
545.299	8.95
545.496	8.94
545.693	8.93
545.891	8.93
546.088	8.63
546.285	8.72
546.482	8.17
546.679	8.55
546.876	8.95
547.073	8.82
547.27	8.67
547.467	8.86
547.664	9.21
547.861	8.68
548.058	8.35
548.255	8.37
548.452	8.28
548.649	8.89
548.846	8.45
549.043	8.89
549.24	9.26
549.437	9.71
549.633	9.86
549.83	9.18
550.027	9.49
550.224	9.96
550.421	10.19
550.618	10.18
550.814	10.07
551.011	9.83
551.208	9.51
551.405	9.63
551.601	9.53
551.798	9.28
551.995	9.58
552.191	9.4
552.388	8.95
552.585	9.27
552.781	9.11
552.978	9.18
553.175	9.73
553.371	10
553.568	10.33
553.764	10.03
553.961	10.11
554.157	10.06
554.354	10.46
554.55	10.96
554.747	11.37
554.943	11.74
555.14	12.14
555.336	12.85
555.533	11.91
555.729	10.99
555.926	10.95
556.122	11.07
556.318	11.15
556.515	11.12
556.711	10.85
556.907	10.77
557.104	11.14
557.3	11.17
557.496	10.31
557.693	11.33
557.889	11.72
558.085	11.6
558.281	11.77
558.478	11.29
558.674	11.32
558.87	11.93
559.066	11.18
559.262	11.08
559.459	10.97
559.655	11.36
559.851	10.92
560.047	11.48
560.243	11.49
560.439	11.37
560.635	11.82
560.831	12.1
561.027	11.35
561.223	11.75
561.419	11.73
561.615	11.05
561.811	10.93
562.007	11.29
562.203	10.81
562.399	10.98
562.595	10.56
562.791	10.41
562.987	10.05
563.183	10.67
563.379	10.36
563.575	10.07
563.771	10.78
563.966	10.78
564.162	10.73
564.358	10.62
564.554	10.35
564.75	10.45
564.945	10.45
565.141	10.63
565.337	10.37
565.533	10.6
565.728	10.31
565.924	10.43
566.12	9.79
566.315	9.65
566.511	10.2
566.707	10.38
566.902	10.47
567.098	10.64
567.293	10.82
567.489	10.61
567.684	10.73
567.88	11.22
568.076	10.9
568.271	11.41
568.467	11.52
568.662	10.81
568.858	11.49
569.053	12.08
569.248	12.06
569.444	11.36
569.639	12
569.835	11.81
570.03	12.24
570.225	12.29
570.421	12.36
570.616	12.04
570.812	11.3
571.007	10.72
571.202	9.96
571.397	10.32
571.593	11.48
571.788	11.23
571.983	11.91
572.178	11.77
572.374	11.34
572.569	10.87
572.764	11.38
572.959	11.76
573.154	12.03
573.35	12.81
573.545	12.27
573.74	11.73
573.935	11.14
574.13	10.89
574.325	10.8
574.52	11.27
574.715	11.81
574.91	11.55
575.105	12.63
575.3	12.85
575.495	12.45
575.69	12.9
575.885	13.37
576.08	14.26
576.275	13.76
576.47	13.83
576.665	15
576.86	15.09
577.055	15.18
577.25	14.68
577.444	14.66
577.639	14.59
577.834	14.11
578.029	13.55
578.224	13.16
578.418	13.73
578.613	13.68
578.808	12.42
579.003	12.68
579.197	13.12
579.392	13.39
579.587	13.5
579.781	13.54
579.976	14.08
580.171	14.07
580.365	14.52
580.56	14.48
580.755	14.85
580.949	14.89
581.144	15.07
581.338	15.28
581.533	14.94
581.727	14.37
581.922	14.6
582.116	14.49
582.311	14.06
582.505	14.31
582.7	14.52
582.894	14.3
583.089	14.99
583.283	14.54
583.478	14.64
583.672	14.37
583.866	15.08
584.061	15.12
584.255	15.22
584.449	15.27
584.644	14.76
584.838	14.46
585.032	14.78
585.226	13.79
585.421	14.26
585.615	13.1
585.809	13.42
586.003	13.35
586.198	13.49
586.392	12.91
586.586	13.35
586.78	13.62
586.974	13.07
587.168	13.14
587.363	13.58
587.557	13.47
587.751	14.11
587.945	14.24
588.139	13.36
588.333	12.99
588.527	13.5
588.721	13.36
588.915	12.97
589.109	12.65
589.303	11.26
589.497	10.85
589.691	9.9
589.885	10.26
590.079	10.73
590.273	10.21
590.466	10.63
590.66	9.91
590.854	10.15
591.048	10.82
591.242	12.11
591.436	13.03
591.629	12.79
591.823	13.88
592.017	12.54
592.211	11.92
592.404	13.24
592.598	12.51
592.792	12.57
592.986	12.45
593.179	11.39
593.373	10.49
593.567	9.85
593.76	10.32
593.954	9.77
594.147	10.85
594.341	11.07
594.535	10.55
594.728	11.29
594.922	11.78
595.115	11.64
595.309	11.79
595.502	11.96
595.696	11.73
595.889	11.58
596.083	11.88
596.276	11.72
596.47	11.4
596.663	11.54
596.856	11.42
597.05	12
597.243	12.01
597.437	12.72
597.63	12.86
597.823	13.72
598.017	13.78
598.21	14.22
598.403	13.3
598.596	13.31
598.79	13.26
598.983	13.27
599.176	12.02
599.369	12.38
599.563	11.82
599.756	12.25
599.949	12.51
600.142	12.42
600.335	11.29
600.528	12.21
600.722	12.98
600.915	13.21
601.108	12.6
601.301	12.94
601.494	12.91
601.687	13.29
601.88	13.11
602.073	13.19
602.266	13.87
602.459	14.71
602.652	14.63
602.845	14.7
603.038	14.49
603.231	14.66
603.424	14.66
603.617	14.66
603.809	14.39
604.002	14.34
604.195	14.24
604.388	13.64
604.581	12.74
604.774	13.09
604.966	12.89
605.159	12.89
605.352	12.95
605.545	12.97
605.737	12.98
605.93	13
606.123	12.79
606.316	12.29
606.508	12.69
606.701	13.3
606.894	12.94
607.086	12.04
607.279	12.61
607.471	12.55
607.664	13.22
607.857	12.73
608.049	13.05
608.242	13.21
608.434	13.3
608.627	13.15
608.819	12.77
609.012	13.1
609.204	13.35
609.397	12.92
609.589	13
609.782	12.94
609.974	12.08
610.166	12.41
610.359	12.9
610.551	13.32
610.743	13.75
610.936	14.69
611.128	13.84
611.32	14.49
611.513	15.26
611.705	15.9
611.897	15.33
612.09	16.56
612.282	16.08
612.474	16.3
612.666	15.65
612.858	14.03
613.051	14.26
613.243	14.17
613.435	13.68
613.627	12.23
613.819	11.59
614.011	12.04
614.203	11.92
614.395	11.25
614.588	10.55
614.78	11.11
614.972	12.2
615.164	11.89
615.356	13.32
615.548	13.51
615.74	14.46
615.932	14.04
616.124	13.76
616.315	13.75
616.507	13.95
616.699	13.27
616.891	13.18
617.083	14.26
617.275	13.6
617.467	13.19
617.659	13.2
617.85	13.87
618.042	14.75
618.234	13.69
618.426	13.51
618.618	13.98
618.809	15.84
619.001	15.98
619.193	15.03
619.384	16.48
619.576	16.43
619.768	16.86
619.959	15.86
620.151	15.62
620.343	16.82
620.534	17.01
620.726	17.62
620.917	16.12
621.109	16.29
621.301	15.72
621.492	15.16
621.684	15.54
621.875	15.15
622.067	15.7
622.258	14.88
622.45	15.8
622.641	16.04
622.832	14.95
623.024	15.97
623.215	16.33
623.407	16.91
623.598	15.53
623.789	14.3
623.981	14.79
624.172	14.71
624.363	15.37
624.555	14.69
624.746	14.81
624.937	15.3
625.129	15.02
625.32	14.73
625.511	14.51
625.702	16
625.893	17.06
626.085	17.51
626.276	16.73
626.467	17.38
626.658	17.64
626.849	17.34
627.04	16.89
627.231	16.07
627.422	15.25
627.614	14.95
627.805	13.28
627.996	13.01
628.187	12.08
628.378	12.87
628.569	12.37
628.76	11.08
628.951	11.34
629.142	11.24
629.332	11.18
629.523	12.24
629.714	12.34
629.905	13.38
630.096	13.51
630.287	13.46
630.478	12.94
630.669	12.91
630.859	14.52
631.05	14.84
631.241	15.12
631.432	16.09
631.623	15.78
631.813	15.86
632.004	15.85
632.195	16.31
632.385	15.86
632.576	16.41
632.767	16.56
632.957	16.69
633.148	16.34
633.339	17.44
633.529	17.17
633.72	17.49
633.91	18.11
634.101	19.19
634.292	18.53
634.482	17.9
634.673	18.66
634.863	18.39
635.054	18.04
635.244	18.12
635.435	16.83
635.625	17.19
635.815	16.85
636.006	16.77
636.196	16.68
636.387	16.11
636.577	17.45
636.767	16.52
636.958	15.35
637.148	15.43
637.338	16.58
637.529	16.85
637.719	16.6
637.909	16
638.099	16.86
638.29	15.97
638.48	16.85
638.67	16.06
638.86	16.26
639.05	17.39
639.241	16.49
639.431	15.16
639.621	13.91
639.811	13.47
640.001	13.85
640.191	11.9
640.381	9.9
640.571	8.4
640.761	8.66
640.951	9.97
641.141	11.2
641.331	10.74
641.521	11.42
641.711	12.93
641.901	13.75
642.091	12.65
642.281	14.18
642.471	15.19
642.661	16.92
642.851	17.12
643.041	14.66
643.231	14.03
643.42	15.47
643.61	14.83
643.8	14.61
643.99	13.62
644.18	14.02
644.369	13.22
644.559	14.73
644.749	13.18
644.939	13.79
645.128	14.61
645.318	13.95
645.508	12.22
645.697	11.73
645.887	11.32
646.076	12.05
646.266	13.17
646.456	12.76
646.645	11.39
646.835	11.91
647.024	12.5
647.214	11.62
647.403	12.08
647.593	13.53
647.782	14.36
647.972	14.43
648.161	13.76
648.351	13.89
648.54	14.75
648.73	14.39
648.919	15.18
649.108	14.22
649.298	15.42
649.487	15.28
649.677	15.4
649.866	15.15
650.055	15.98
650.244	16.44
650.434	16.78
650.623	16.98
650.812	18.07
651.002	18
651.191	18.55
651.38	18.05
651.569	19.01
651.758	18.43
651.947	18.79
652.137	19.44
652.326	19.19
652.515	17.6
652.704	16.93
652.893	16.38
653.082	17.24
653.271	15.84
653.46	16.59
653.649	15.4
653.838	15.76
654.027	15.67
654.216	14.21
654.405	15.13
654.594	16.32
654.783	16.78
654.972	17.01
655.161	15.41
655.35	16.18
655.539	16.42
655.728	16.84
655.916	15.2
656.105	13.89
656.294	14.41
656.483	13.88
656.672	13.15
656.86	12.58
657.049	12.68
657.238	13.19
657.427	13.68
657.615	12.88
657.804	13.42
657.993	13.82
658.181	14.54
658.37	13.7
658.559	14.42
658.747	14.92
658.936	14.9
659.125	13.41
659.313	13.57
659.502	13.5
659.69	13.07
659.879	13.07
660.067	14.24
660.256	14.45
660.444	14.46
660.633	14.63
660.821	14.5
661.01	14.76
661.198	15.46
661.387	14.95
661.575	15.46
661.763	16.15
661.952	15.88
662.14	15.54
662.328	15.41
662.517	17.83
662.705	16.9
662.893	17.8
663.082	16.83
663.27	18.88
663.458	17.71
663.646	17.61
663.834	17.86
664.023	16.73
664.211	16.19
664.399	14.81
664.587	12.76
664.775	13.32
664.963	12.11
665.152	14.46
665.34	13.52
665.528	14.01
665.716	13.28
665.904	13.86
666.092	14.17
666.28	13.99
666.468	15.89
666.656	16.23
666.844	14.91
667.032	14.82
667.22	15.04
667.408	15.04
667.596	15.77
667.784	16.14
667.971	16.93
668.159	16.19
668.347	16.03
668.535	14.48
668.723	14.71
668.911	15.59
669.098	15.84
669.286	14.52
669.474	14.1
669.662	13.4
669.849	13.15
670.037	12.72
670.225	13.27
670.413	14.76
670.6	15.63
670.788	15.26
670.976	14.87
671.163	15.16
671.351	14.48
671.538	14.8
671.726	15.19
671.913	16.35
672.101	15.44
672.289	17.03
672.476	15.53
672.664	16.19
672.851	16.22
673.039	15.49
673.226	15.22
673.413	15.75
673.601	15.44
673.788	16.13
673.976	14.77
674.163	14.94
674.35	13.62
674.538	15.68
674.725	15.08
674.912	15.46
675.1	16.21
675.287	15.94
675.474	16.62
675.662	17.2
675.849	17.37
676.036	18.14
676.223	18.07
676.411	18.78
676.598	18.31
676.785	20.26
676.972	21.3
677.159	21.6
677.346	21.83
677.533	21.31
677.721	20.51
677.908	21.36
678.095	21.17
678.282	19.91
678.469	19.31
678.656	18.88
678.843	17.99
679.03	17.65
679.217	17.39
679.404	16.6
679.591	16.85
679.778	17.16
679.964	17.25
680.151	15.23
680.338	18.25
680.525	17.53
680.712	17.48
680.899	17.34
681.086	17.05
681.272	16.63
681.459	17.13
681.646	16.7
681.833	18.5
682.02	16.37
682.206	19.25
682.393	16.85
682.58	17.68
682.766	17.36
682.953	17.8
683.14	17.93
683.326	18.84
683.513	18.66
683.7	17.69
683.886	15.48
684.073	15.42
684.259	15.34
684.446	15.72
684.632	16.21
684.819	16.99
685.005	14.88
685.192	13.55
685.378	13.47
685.565	15.04
685.751	15.93
685.938	16.88
686.124	18.74
686.31	17.12
686.497	16.27
686.683	15.97
686.87	17.04
687.056	17.62
687.242	17.49
687.429	17.19
687.615	16.54
687.801	16.66
687.987	16.5
688.174	16.64
688.36	16.55
688.546	17.25
688.732	15.98
688.918	13.64
689.105	13.71
689.291	15.66
689.477	15.31
689.663	15.25
689.849	15.61
690.035	16.34
690.221	15.6
690.407	14.75
690.593	15.27
690.779	15.92
690.965	15.27
691.151	15.88
691.337	15.1
691.523	16.22
691.709	16.8
691.895	18.49
692.081	17.64
692.267	16.77
692.453	17.38
692.639	15.66
692.825	14.31
693.011	14.93
693.196	13.42
693.382	12.73
693.568	10.72
693.754	9.6
693.94	9.69
694.125	9.37
694.311	9.39
694.497	12.81
694.682	13.08
694.868	13.05
695.054	15.25
695.239	16.98
695.425	17.08
695.611	18.75
695.796	20.59
695.982	19.26
696.168	18.84
696.353	17.66
696.539	15.3
696.724	16.92
696.91	18.41
697.095	16.48
697.281	16.05
697.466	16.12
697.652	15.37
697.837	13.79
698.023	13.72
698.208	14.53
698.393	15.35
698.579	15.86
698.764	14.74
698.949	14.75
699.135	15.7
699.32	15.72
699.505	15.86
699.691	17.12
699.876	18.33
700.061	18.86
700.246	18.43
700.432	19.45
700.617	21.41
700.802	23.71
700.987	25.02
701.172	24.91
701.358	25.1
701.543	25.67
701.728	22.62
701.913	21.78
702.098	21.96
702.283	24.13
702.468	21.28
702.653	18.8
702.838	16.98
703.023	14.36
703.208	15.47
703.393	15.82
703.578	15.47
703.763	16.43
703.948	16.93
704.133	16.62
704.318	11.07
704.503	12.37
704.688	13.16
704.873	12
705.057	13.05
705.242	12.57
705.427	13.88
705.612	13.5
705.797	15.56
705.981	15.91
706.166	14.93
706.351	18.32
706.536	18.4
706.72	17.65
706.905	19.76
707.09	20.31
707.274	20.69
707.459	19.11
707.644	19.04
707.828	19.03
708.013	19.27
708.197	19.19
708.382	18.55
708.567	20.21
708.751	22.07
708.936	20.4
709.12	18.74
709.305	18.77
709.489	18.23
709.673	19.91
709.858	20.14
710.042	18.38
710.227	17.37
710.411	17.35
710.596	16.11
710.78	14.6
710.964	14.74
711.149	15.9
711.333	14.27
711.517	14.6
711.702	12.67
711.886	10.93
712.07	14.35
712.254	16.3
712.438	16.64
712.623	16.55
712.807	16.38
712.991	16.98
713.175	17.87
713.359	19.68
713.544	19.36
713.728	19.6
713.912	21.13
714.096	17.9
714.28	17.77
714.464	15.93
714.648	16.48
714.832	16.55
715.016	15.85
715.2	13.78
715.384	12.2
715.568	12.45
715.752	11.79
715.936	9.32
716.12	11.03
716.304	9.67
716.488	10.31
716.671	11.07
716.855	11.62
717.039	13.28
717.223	14.73
717.407	13.17
717.59	14.39
717.774	15.93
717.958	16.67
718.142	15.44
718.325	18.24
718.509	19.36
718.693	17.18
718.877	16.6
719.06	15.05
719.244	16.08
719.428	18.23
719.611	18.81
719.795	16.07
719.978	17.33
720.162	18.46
720.345	17.22
720.529	18.16
720.713	19.7
720.896	15.36
721.08	14.59
721.263	13
721.446	11.21
721.63	7.5
721.813	8.93
721.997	6.49
722.18	5.31
722.364	4.78
722.547	3.98
722.73	3.37
722.914	8.09
723.097	12.78
723.28	10.46
723.464	12.25
723.647	15.43
723.83	16.16
724.013	16.27
724.197	13.56
724.38	13.58
724.563	10.25
724.746	12.42
724.929	10.92
725.112	6.59
725.296	11.28
725.479	9.48
725.662	8.2
725.845	5.59
726.028	10.1
726.211	12.5
726.394	14.03
726.577	15.98
726.76	14.07
726.943	16.39
727.126	17.33
727.309	15.55
727.492	19.27
727.675	19.61
727.858	20.18
728.041	16.64
728.224	15.87
728.407	12.76
728.589	12.28
728.772	15.12
728.955	16.28
729.138	16.37
729.321	18.04
729.503	13.04
729.686	13.66
729.869	13.83
730.052	15.78
730.234	16.06
730.417	18.29
730.6	19.34
730.782	16.25
730.965	13.75
731.148	12.18
731.33	9.64
731.513	11.93
731.695	11.33
731.878	13.93
732.061	12.56
732.243	11.62
732.426	11.72
732.608	10.69
732.791	11.53
732.973	11.15
733.156	10.4
733.338	10.49
733.52	10.33
733.703	8.88
733.885	7.32
734.068	8.89
734.25	13.27
734.432	16.17
734.615	15.65
734.797	16.08
734.979	16.09
735.162	16.78
735.344	19.09
735.526	20.71
735.708	23.78
735.891	26.04
736.073	27.96
736.255	27.77
736.437	22.41
736.619	25.13
736.802	26.02
736.984	25.62
737.166	25.09
737.348	22.59
737.53	21.66
737.712	19.8
737.894	17.28
738.076	15.53
738.258	12.24
738.44	15.33
738.622	12.9
738.804	11.05
738.986	8.93
739.168	10.75
739.35	12.43
739.532	10.81
739.714	9.3
739.896	10.12
740.078	10.52
740.259	14.34
740.441	13.19
740.623	11.24
740.805	10.8
740.987	16.73
741.168	16.63
741.35	15.86
741.532	14.99
741.714	20.24
741.895	15.31
742.077	13.54
742.259	16.51
742.44	14.99
742.622	13.73
742.804	16.62
742.985	14.54
743.167	15.52
743.348	18.01
743.53	21.86
743.711	17.58
743.893	19.8
744.075	22.1
744.256	17.58
744.438	15.58
744.619	23.01
744.8	22.66
744.982	25.77
745.163	23.04
745.345	20.15
745.526	16.87
745.707	17.73
745.889	17.83
746.07	12.15
746.252	9.3
746.433	7.74
746.614	9.96
746.795	8.95
746.977	6.57
747.158	9.09
747.339	11.4
747.52	12.89
747.702	7.39
747.883	6.14
748.064	7.38
748.245	12.11
748.426	14.93
748.607	9.49
748.788	11.88
748.97	8.38
749.151	7.96
749.332	4.79
749.513	5.54
749.694	12.59
749.875	10.71
750.056	13.87
750.237	13.21
750.418	11.87
750.599	13.89
750.78	10.13
750.96	13.88
751.141	12.38
751.322	13.23
751.503	12.12
751.684	11.93
751.865	16.87
752.046	13.98
752.226	13.89
752.407	15.46
752.588	15.42
752.769	17.81
752.949	21.67
753.13	22.98
753.311	24.28
753.492	25.09
753.672	23.01
753.853	20.38
754.034	24.89
754.214	23.75
754.395	26.04
754.575	24.85
754.756	26.77
754.937	22.64
755.117	26.16
755.298	27.97
755.478	27.55
755.659	25.08
755.839	27.1
756.02	25.99
756.2	28.76
756.381	27.72
756.561	24.63
756.741	20.21
756.922	17.58
757.102	15.28
757.283	12.36
757.463	11.47
757.643	12.6
757.823	12.51
758.004	12.55
758.184	9.44
758.364	7.74
758.545	3.44
758.725	2.9
758.905	2.6
759.085	3.31
759.265	1.13
759.446	1.8
759.626	0.27
759.806	3.58
759.986	-1.04
760.166	1.53
760.346	0.95
760.526	5.24
760.706	8.62
760.886	11.31
761.066	7.59
761.246	5.27
761.426	5.49
761.606	6.73
761.786	1.02
761.966	3.06
762.146	2.13
762.326	1.87
762.506	3.4
762.686	2.79
762.866	2.73
763.046	5.81
763.225	9.04
763.405	7.8
763.585	6.97
763.765	6.84
763.945	9.91
764.124	9.03
764.304	10.35
764.484	7.3
764.664	7.53
764.843	7.55
765.023	7.09
765.203	5.56
765.382	8.75
765.562	8.07
765.741	12.47
765.921	11.44
766.101	13.38
766.28	17.65
766.46	23.32
766.639	25.14
766.819	24.67
766.998	22.68
767.178	26.55
767.357	21.31
767.537	23.94
767.716	24.95
767.896	21.77
768.075	22.92
768.254	18.43
768.434	17.87
768.613	15.81
768.792	14.92
768.972	18.41
769.151	12.12
769.33	13.19
769.51	14.47
769.689	12.21
769.868	13.79
770.047	9.41
770.226	11.71
770.406	10.15
770.585	6.75
770.764	11.49
770.943	9.54
771.122	19.44
771.301	25.06
771.48	22.15
771.66	23.07
771.839	25.18
772.018	28.26
772.197	26.93
772.376	25.44
772.555	27.28
772.734	24.21
772.913	28.37
773.092	27.11
773.271	25.4
773.449	33.64
773.628	34.97
773.807	32.21
773.986	36.67
774.165	33
774.344	39.28
774.523	33.75
774.701	32.77
774.88	32.49
775.059	27.66
775.238	22.05
775.417	18.29
775.595	18.72
775.774	23.78
775.953	19.57
776.131	27.95
776.31	22.83
776.489	29.94
776.667	25.92
776.846	24.6
777.025	30.33
777.203	37.65
777.382	36.09
777.56	35.94
777.739	31.74
777.917	33.69
778.096	31.89
778.274	32.77
778.453	32.85
778.631	40.41
778.81	36.2
778.988	25.11
779.166	22.68
779.345	17.12
779.523	17.02
779.702	20.47
779.88	19.74
780.058	20.73
780.237	21.57
780.415	23.27
780.593	27.23
780.771	34.58
780.95	37.6
781.128	37.23
781.306	42.21
781.484	39.95
781.662	36.21
781.841	30.22
782.019	26.75
782.197	28.37
782.375	28.4
782.553	21.36
782.731	14.88
782.909	16.92
783.087	17.59
783.265	14.68
783.443	10.61
783.621	13.04
783.799	16.87
783.977	16.59
784.155	16.21
784.333	10.05
784.511	9.72
784.689	10.04
784.867	4.34
785.045	2.12
785.223	4.52
785.4	12.41
785.578	18.12
785.756	18.55
785.934	13.82
786.112	11.73
786.289	14.82
786.467	16.24
786.645	16.59
786.823	20.96
787	20.68
787.178	21.51
787.356	17.25
787.533	14.44
787.711	14.97
787.889	17.51
788.066	24.63
788.244	27.67
788.421	29.46
788.599	25.99
788.776	27.72
788.954	27.92
789.131	27.66
789.309	28.49
789.486	26.57
789.664	25.24
789.841	27.79
790.019	22.56
790.196	17.79
790.373	11.18
790.551	13.03
790.728	14.82
790.906	15.2
791.083	15.95
791.26	15.55
791.437	12.75
791.615	11.34
791.792	13.36
791.969	12.08
792.146	14.34
792.324	18.24
792.501	13.94
792.678	5.22
792.855	3.68
793.032	9.21
793.209	5.61
793.387	10.19
793.564	16.36
793.741	13.56
793.918	15.54
794.095	12.47
794.272	12.75
794.449	12.61
794.626	18.44
794.803	18.77
794.98	17.87
795.157	17.29
795.334	21.03
795.511	17.3
795.688	17.73
795.864	17.65
796.041	23.63
796.218	18.83
796.395	28.95
796.572	27.59
796.749	27.93
796.925	26.33
797.102	34.63
797.279	30.67
797.456	27.88
797.632	25.58
797.809	22.24
797.986	23.75
798.162	25.47
798.339	13.01
798.516	6.17
798.692	5.01
798.869	-7.16
799.046	-11.83
799.222	-24.46
799.399	-22.26
799.575	-15.26
799.752	-10.42
799.928	-13.84
800.105	-10.66
800.281	1.93
800.458	7.57
800.634	9.44
800.811	17.58
800.987	10.15
801.163	9.92
801.34	17.41
801.516	9.74
801.692	17.14
801.869	11.4
802.045	15.52
802.221	2.18
802.398	0.86
802.574	6.69
802.75	3.06
802.926	14.04
803.103	24.62
803.279	21.3
803.455	29.02
803.631	14.24
803.807	17.29
803.983	11.36
804.16	17.27
804.336	19.98
804.512	14.28
804.688	20.99
804.864	12.5
805.04	3.6
805.216	-1.49
805.392	-8.24
805.568	-10.96
805.744	-9.72
805.92	-4.88
806.096	-0.78
806.272	-0
806.448	1.16
806.623	-1.29
806.799	3.19
806.975	-0
807.151	5.62
807.327	-4.58
807.503	17.83
807.678	15.53
807.854	14.72
808.03	1.92
808.206	-13.45
808.381	-14.2
808.557	-20.91
808.733	-22.15
808.908	-20.77
809.084	-23.32
809.26	-12.13
809.435	-25.09
809.611	-28.68
809.787	-24.93
809.962	-20.18
810.138	-14.87
810.313	-13.64
810.489	-8.8
810.664	-18.42
810.84	-14.42
811.015	-14.1
811.191	-26.5
811.366	-20.43
811.542	-16.2
811.717	-12.76
811.892	-4.49
812.068	4.83
812.243	10.2
812.419	11.93
812.594	13.48
812.769	14.56
812.944	19.37
813.12	22.86
813.295	21.11
813.47	15.44
813.645	7.75
813.821	10.03
813.996	12.39
814.171	10.95
814.346	8.59
814.521	13
814.697	7.72
814.872	-0.14
815.047	6.97
815.222	5.48
815.397	10.45
815.572	4.13
815.747	-5.5
815.922	-13.68
816.097	-10.53
816.272	-10.81
816.447	-2.39
816.622	2.25
816.797	11.04
816.972	15.14
817.147	17.87
817.322	16.62
817.496	20.72
817.671	23.6
817.846	23.3
818.021	13.79
818.196	18.4
818.371	14.49
818.545	21.63
818.72	11.69
818.895	15.35
819.069	19.89
819.244	18.81
819.419	20.23
819.594	17.97
819.768	14.41
819.943	15.92
820.117	14.4
820.292	12.82
820.467	8.97
820.641	11.41
820.816	8.66
820.99	8.31
821.165	7.89
821.339	7.26
821.514	8.7
821.688	9.65
821.863	10.28
822.037	10
822.212	11.25
822.386	11.07
822.56	10.3
822.735	9.75
822.909	5.56
823.084	6.84
823.258	6.75
823.432	2.54
823.606	6.1
823.781	2.82
823.955	1.81
824.129	-2.37
824.303	2.59
824.478	4.21
824.652	5.35
824.826	10.91
825	10.38
825.174	9.87
825.348	11.1
825.523	8.85
825.697	6.92
825.871	10.09
826.045	12.29
826.219	6.72
826.393	4.19
826.567	4.09
826.741	3.24
826.915	0.32
827.089	-0.25
827.263	-0.28
827.437	-0.39
827.611	-1.23
827.784	-2.75
827.958	-6.65
828.132	2.33
828.306	2.93
828.48	2.83
828.654	11.63
828.827	13.66
829.001	19.76
829.175	18.45
829.349	22.49
829.522	30.24
829.696	25.64
829.87	23.02
830.044	13.32
830.217	17.19
830.391	0.78
830.565	-5.24
830.738	-6.45
830.912	-15.51
831.085	-5.6
831.259	-12.88
831.432	-3.29
831.606	-10.92
831.779	2.73
831.953	7.21
832.126	11.69
832.3	15.62
832.473	10.36
832.647	12.18
832.82	12.46
832.994	14.23
833.167	18.03
833.34	14.08
833.514	24.24
833.687	19.41
833.86	20.97
834.034	17.88
834.207	20.85
834.38	24.46
834.553	26.44
834.727	28.24
834.9	23.3
835.073	20.24
835.246	30.9
835.419	25.18
835.593	24.15
835.766	17.61
835.939	6.25
836.112	-1.02
836.285	-3.51
836.458	-15.68
836.631	-11.15
836.804	-10.85
836.977	-20.59
837.15	-32.38
837.323	-32.11
837.496	-32.47
837.669	-22.24
837.842	-14.48
838.015	12.21
838.188	11.33
838.361	36.68
838.533	24.58
838.706	34.97
838.879	34.93
839.052	18.43
839.225	14.77
839.398	21.69
839.57	20.86
839.743	20.99
839.916	21.2
840.088	34.08
840.261	24.57
840.434	20.71
840.607	27.05
840.779	32.37
840.952	40.68
841.124	33.88
841.297	15.68
841.47	19.98
841.642	21.32
841.815	6.39
841.987	2.52
842.16	-3.9
842.332	14.69
842.505	7.76
842.677	3.65
842.85	8.52
843.022	8.58
843.194	11.58
843.367	-2.98
843.539	5.59
843.712	12.68
843.884	4.87
844.056	15.27
844.229	-2.19
844.401	-7.84
844.573	8.34
844.745	4.7
844.918	8.73
845.09	14.74
845.262	10.46
845.434	-16.62
845.606	-5.59
845.779	-33.19
845.951	-27.14
846.123	-47.48
846.295	-32.16
846.467	-66.92
846.639	-191.8
846.811	-340.34
846.983	-390.97
847.155	-322.37
847.327	-117.28
847.499	-183.39
847.671	-77.94
847.843	-158.66
848.015	-147.51
848.187	-211.93
848.359	-789.89
848.531	-670.37
848.703	-217.39
848.875	-426.61
849.047	-421.57
849.218	-411.02
849.39	-174.32
849.562	-561.54
849.734	-220.86
849.905	-175.81
850.077	-244.44
850.249	-120
850.421	-96.03
850.592	-118.79
850.764	-66.67
850.936	-30.11
851.107	-43.38
851.279	-66.67
851.451	-33.17
851.622	-16.24
851.794	1.45
851.965	14.15
852.137	23.24
852.308	-16.84
852.48	-32.93
852.651	-32.53
852.823	-59.52
852.994	-66.6
853.166	-38.05
853.337	-32.18
853.509	-8.81
853.68	-6.99
853.851	-9.46
854.023	3.11
854.194	18.97
854.365	42.39
854.537	31.59
854.708	31.46
854.879	35.77
855.05	36.39
855.222	48.16
855.393	39.47
855.564	32.38
855.735	18.87
855.906	-17.53
856.078	-18.01
856.249	-86.45
856.42	-41.1
856.591	-30.22
856.762	-82.49
856.933	-93.98
857.104	-58.92
857.275	-120.67
857.446	-101.41
857.617	-106.28
857.788	-29.66
857.959	-9.49
858.13	-12.56
858.301	-61.02
858.472	-47.83
858.643	-49.93
858.814	-30.49
858.985	-39.08
859.155	-37.04
859.326	-51.86
859.497	-35.29
859.668	-39.4
859.839	-39.12
860.009	-38.23
860.18	-21.28
860.351	-14.66
860.522	-23.43
860.692	-62.43
860.863	-87.45
861.034	-56.11
861.204	-39.41
861.375	-51.38
861.546	-85.85
861.716	-120.56
861.887	-69.98
862.057	-36.85
862.228	-46.07
862.398	-3.14
862.569	-6.56
862.739	-6.61
862.91	-9.81
863.08	17.7
863.251	21.39
863.421	20.36
863.592	0.71
863.762	-2.15
863.932	-5.8
864.103	0.19
864.273	-17.77
864.443	2.3
864.614	12.62
864.784	11.8
864.954	1.44
865.125	-16.08
865.295	0.39
865.465	24.4
865.635	15.01
865.805	8.86
865.976	10.9
866.146	27.53
866.316	15.91
866.486	9.56
866.656	15.62
866.826	19.16
866.996	32.48
867.166	22.38
867.336	-14.58
867.506	-22.14
867.676	-46.74
867.846	-69.77
868.016	-119.42
868.186	-189.32
868.356	-292.31
868.526	-1572.92
868.696	-89100
868.866	1018.82
869.036	-782.57
869.206	-1219.35
869.376	-1790.24
869.545	-368.33
869.715	-450.34
869.885	-416.79
870.055	-186.72
870.224	-139.29
870.394	-116.67
870.564	-100.48
870.734	-159.3
870.903	-259.91
871.073	-102.53
871.243	-88.82
871.412	-96.87
871.582	-65.98
871.751	-154.26
871.921	-109.39
872.091	-97.08
872.26	-78.46
872.43	-49.39
872.599	1.97
872.769	16.37
872.938	-7.87
873.108	-24.19
873.277	-37.62
873.446	-49.32
873.616	-39.03
873.785	-38.58
873.955	-34.81
874.124	-42.64
874.293	-48.88
874.463	-45.14
874.632	-60.63
874.801	-37.67
874.971	-28.3
875.14	-14.8
875.309	-1.49
875.478	3.47
875.647	-26.75
875.817	2.62
875.986	-13.36
876.155	-2.72
876.324	-3.65
876.493	-8.29
876.662	-28.81
876.831	-33.33
877	-24.65
877.17	-30.55
877.339	-18.26
877.508	-9.63
877.677	-20.11
877.846	7.06
878.015	0.22
878.184	1.18
878.352	-3.34
878.521	-1.36
878.69	5.16
878.859	-12.41
879.028	13.14
879.197	5.45
879.366	1.9
879.534	1.58
879.703	-6.36
879.872	-2.28
880.041	-5.01
880.21	-8.21
880.378	-2.96
880.547	-2.33
880.716	4.41
880.884	-0.99
881.053	0.9
881.222	0.89
881.39	-5.34
881.559	-1.14
881.727	0.35
881.896	1.96
882.065	10.4
882.233	8.75
882.402	10.38
882.57	11.74
882.739	17.19
882.907	8.92
883.076	12.82
883.244	29.34
883.412	31.6
883.581	32.29
883.749	27.62
883.918	14.08
884.086	17.58
884.254	5.7
884.423	-7.45
884.591	-23.54
884.759	-43.52
884.927	-55.27
885.096	-98.66
885.264	-144.82
885.432	-155.3
885.6	-100.53
885.769	-45.87
885.937	-56.39
886.105	-24.14
886.273	-34.26
886.441	-61.07
886.609	-26.85
886.777	-28.11
886.945	-23.86
887.113	-28.57
887.281	-8.58
887.449	-25.83
887.617	-52.83
887.785	-68.88
887.953	-39.75
888.121	-11.67
888.289	-9.45
888.457	11.45
888.625	31.51
888.793	32.45
888.961	44.46
889.129	41.12
889.296	54.83
889.464	62.47
889.632	73.45
889.8	76.04
889.967	60.5
890.135	85.83
