Data from JASIL_3204_Reflection_01.txt Node
Date: Fri Nov 13 14:35:57 EST 2015
User: Geneva
Spectrometer: USB4E03002
Autoset integration time: false
Trigger mode: 4
Integration Time (sec): 1.000000E-1
Scans to average: 10
Electric dark correction enabled: false
Nonlinearity correction enabled: false
Boxcar width: 5
Stray light correction enabled: false
XAxis mode: Wavelengths
Stop averaging: false
Number of Pixels in Spectrum: 3648
>>>>>Begin Spectral Data<<<<<
177.575	100.53
177.794	112.75
178.014	115.26
178.233	111.8
178.452	112.68
178.672	115.73
178.891	120.29
179.11	121.33
179.33	125.49
179.549	120.64
179.768	120
179.987	115.84
180.207	108.18
180.426	109.38
180.645	109.8
180.864	110.67
181.084	104.38
181.303	102.69
181.522	102.2
181.741	96.52
181.96	96.5
182.179	92.61
182.398	98.57
182.618	99.47
182.837	96.66
183.056	98.03
183.275	91.16
183.494	96.28
183.713	94.8
183.932	95.37
184.151	103.14
184.37	106.52
184.589	115.43
184.808	121.45
185.027	125.47
185.246	123.37
185.465	121.82
185.684	131.73
185.903	123.19
186.122	122
186.341	119.19
186.56	111.42
186.779	114.44
186.998	114.34
187.216	111.15
187.435	107.21
187.654	109.83
187.873	115.01
188.092	112.48
188.311	116.33
188.53	120.4
188.748	115.4
188.967	116
189.186	110.43
189.405	106
189.623	107.47
189.842	108.85
190.061	108.55
190.28	105.53
190.498	104.21
190.717	107.32
190.936	104.51
191.154	110.95
191.373	110.94
191.592	112.8
191.81	112.6
192.029	108.29
192.248	110.24
192.466	109.63
192.685	110.12
192.904	111.51
193.122	111.19
193.341	112.19
193.559	114.09
193.778	117.15
193.996	114.99
194.215	117.03
194.433	120.02
194.652	118.76
194.87	115.81
195.089	110.55
195.307	110.06
195.526	107.25
195.744	108.35
195.963	106.94
196.181	104.44
196.399	105.75
196.618	105.45
196.836	103.95
197.055	98.1
197.273	97.45
197.491	96.37
197.71	98.63
197.928	102.38
198.146	98.35
198.365	95.32
198.583	96.72
198.801	95.19
199.019	94.37
199.238	98.19
199.456	105.67
199.674	109.54
199.892	110.57
200.111	109.86
200.329	105.08
200.547	110.18
200.765	106.7
200.983	107.58
201.202	109.15
201.42	116.41
201.638	116.97
201.856	111.81
202.074	107.43
202.292	114.14
202.51	114.75
202.728	113.86
202.946	111.01
203.165	116.02
203.383	112.93
203.601	113.01
203.819	107.67
204.037	98.03
204.255	100.34
204.473	105.18
204.691	100.28
204.909	96.99
205.127	100.21
205.345	100.33
205.562	101.57
205.78	104.29
205.998	112.35
206.216	123.18
206.434	124.06
206.652	120.57
206.87	113.1
207.088	112.84
207.306	114.49
207.523	112.23
207.741	113.91
207.959	107.09
208.177	107.62
208.395	102.56
208.612	99.26
208.83	99.42
209.048	99.75
209.266	107.75
209.483	106.55
209.701	105.34
209.919	102.43
210.136	105.89
210.354	112.04
210.572	112.07
210.79	115.8
211.007	114.94
211.225	121.52
211.442	124.93
211.66	117.31
211.878	118.83
212.095	114.13
212.313	115.75
212.53	111.53
212.748	111.38
212.966	110.82
213.183	111.24
213.401	108.55
213.618	106.85
213.836	109.14
214.053	109.36
214.271	108.95
214.488	114.9
214.705	118.52
214.923	117.28
215.14	119.91
215.358	126.5
215.575	118.53
215.793	128.25
216.01	133.32
216.227	126.29
216.445	125.54
216.662	134.86
216.879	124.66
217.097	120.07
217.314	120.88
217.531	122.9
217.749	109.92
217.966	112.44
218.183	109.36
218.4	107.14
218.618	109.45
218.835	109.54
219.052	108.46
219.269	116.53
219.487	116.6
219.704	122.23
219.921	121.96
220.138	127.51
220.355	123.26
220.572	117.64
220.79	117.1
221.007	110.99
221.224	111.17
221.441	103.69
221.658	100.39
221.875	106.58
222.092	105.5
222.309	102.31
222.526	108.55
222.743	114.37
222.96	113.79
223.177	109.95
223.394	111.41
223.611	115.57
223.828	119.12
224.045	116.1
224.262	107.79
224.479	103.59
224.696	105.08
224.913	95.35
225.13	90.18
225.347	87.63
225.564	86.79
225.781	85.61
225.997	79.72
226.214	76.72
226.431	75.73
226.648	73.07
226.865	71.77
227.082	68.86
227.298	69.53
227.515	70.98
227.732	73.59
227.949	76.55
228.165	74.23
228.382	74.51
228.599	74.05
228.816	74.88
229.032	73.05
229.249	73.24
229.466	73.34
229.682	74.79
229.899	71.88
230.116	73.84
230.332	72.43
230.549	77.74
230.765	79.54
230.982	80.73
231.199	80.48
231.415	82.27
231.632	82.93
231.848	83.13
232.065	88.28
232.281	88.58
232.498	84.55
232.714	84.4
232.931	83.07
233.147	80.19
233.364	80.16
233.58	78.99
233.797	78.82
234.013	79.5
234.23	83.89
234.446	81.23
234.662	82.89
234.879	82.55
235.095	82.41
235.312	82.27
235.528	85.49
235.744	85.02
235.961	84.51
236.177	88.26
236.393	88.01
236.61	80.62
236.826	78.31
237.042	82.1
237.258	83.78
237.475	84.37
237.691	81.88
237.907	82.53
238.123	82.22
238.339	84.34
238.556	83.86
238.772	80.8
238.988	84.49
239.204	84.2
239.42	81.45
239.636	80.98
239.853	81.39
240.069	78.56
240.285	74.63
240.501	72.41
240.717	72.74
240.933	69.52
241.149	69.31
241.365	64.74
241.581	65.16
241.797	63.1
242.013	61.94
242.229	61.43
242.445	64.11
242.661	66.39
242.877	67.17
243.093	65.11
243.309	68.75
243.525	69.69
243.741	69.32
243.957	67.72
244.173	66.82
244.388	63.22
244.604	58.43
244.82	55.02
245.036	50.2
245.252	49.17
245.468	45.24
245.683	40.23
245.899	36.56
246.115	36.79
246.331	34.79
246.547	34.33
246.762	35.64
246.978	36.39
247.194	37.07
247.409	39.46
247.625	39.34
247.841	40.47
248.057	41.72
248.272	43.59
248.488	45.75
248.703	49.07
248.919	51.6
249.135	50.69
249.35	52.56
249.566	52.92
249.782	52.93
249.997	53.56
250.213	56.22
250.428	59.24
250.644	62.56
250.859	60.92
251.075	60.91
251.29	59.36
251.506	61.76
251.721	59.81
251.937	60.57
252.152	63.61
252.368	64.89
252.583	66.09
252.798	66.67
253.014	64.02
253.229	62.47
253.445	62.65
253.66	63.72
253.875	63.84
254.091	67.28
254.306	69.66
254.521	68.86
254.737	68.13
254.952	66.19
255.167	64.98
255.383	64.46
255.598	70.98
255.813	71.9
256.028	71.87
256.244	71.74
256.459	68.22
256.674	65.37
256.889	60.32
257.104	57.44
257.32	55.92
257.535	51.4
257.75	48.45
257.965	44.6
258.18	42.19
258.395	42.37
258.61	39.5
258.826	40.04
259.041	38.54
259.256	37.4
259.471	36.77
259.686	36.56
259.901	39.21
260.116	39.31
260.331	38.43
260.546	39.38
260.761	37.58
260.976	39.7
261.191	40.03
261.406	43.05
261.621	44.83
261.836	46.85
262.05	47.37
262.265	48.94
262.48	51.27
262.695	53.54
262.91	55.38
263.125	60.06
263.34	61.42
263.555	59.73
263.769	58.57
263.984	60.21
264.199	62.58
264.414	63.3
264.629	60.65
264.843	60.43
265.058	59.48
265.273	57.09
265.488	51.33
265.702	49.99
265.917	52.28
266.132	50.91
266.346	50.16
266.561	48.99
266.776	48.11
266.99	48.28
267.205	45.86
267.42	44.65
267.634	43.96
267.849	45.15
268.063	43.56
268.278	42.66
268.492	42.73
268.707	43.97
268.922	42.9
269.136	44.8
269.351	46.18
269.565	49.1
269.78	49.49
269.994	49.17
270.209	49.35
270.423	50.05
270.637	48.6
270.852	47.97
271.066	48.33
271.281	48.09
271.495	45.62
271.709	44.41
271.924	43.05
272.138	44.02
272.353	44.16
272.567	45.4
272.781	45.81
272.996	46.18
273.21	46.44
273.424	44.74
273.638	45.45
273.853	45.89
274.067	45.13
274.281	47.75
274.495	48.26
274.71	49.42
274.924	47.95
275.138	48.54
275.352	48.07
275.566	48.92
275.781	49.32
275.995	48.49
276.209	49.97
276.423	49.14
276.637	45.69
276.851	45.4
277.065	45.29
277.279	44.78
277.493	43.24
277.707	45.01
277.921	44.01
278.135	43.92
278.349	43.63
278.563	42.12
278.777	43.24
278.991	42.55
279.205	43.82
279.419	42.11
279.633	41.82
279.847	42.6
280.061	42.64
280.275	43.58
280.489	44.84
280.703	44.64
280.917	46.13
281.131	45.87
281.344	48.06
281.558	46.7
281.772	46.82
281.986	46.76
282.2	46.99
282.414	44.39
282.627	42.21
282.841	40.88
283.055	41.06
283.269	39.33
283.482	37.83
283.696	35.84
283.91	36.08
284.123	33.96
284.337	33.07
284.551	30.56
284.764	32.81
284.978	32.93
285.192	33.81
285.405	34.25
285.619	33.65
285.833	35.18
286.046	36.02
286.26	34.58
286.473	36.34
286.687	38.35
286.9	40
287.114	39.72
287.327	40.04
287.541	39.02
287.754	37.56
287.968	38.4
288.181	36.04
288.395	34.57
288.608	35.92
288.822	35.95
289.035	35.58
289.248	34.01
289.462	33.89
289.675	35.23
289.889	34.74
290.102	35.34
290.315	34.08
290.529	36.3
290.742	37.45
290.955	36.74
291.169	36.5
291.382	36.12
291.595	38.66
291.808	39.21
292.022	37.92
292.235	38.77
292.448	38.07
292.661	39.5
292.875	38.75
293.088	37.89
293.301	39.31
293.514	39.94
293.727	40.32
293.94	38.44
294.153	36.82
294.367	35.94
294.58	35.06
294.793	34.7
295.006	33.18
295.219	32.64
295.432	33
295.645	31.44
295.858	30.3
296.071	28.73
296.284	28.08
296.497	28.74
296.71	28.9
296.923	29.26
297.136	28.62
297.349	28.92
297.562	29.22
297.775	28.86
297.988	29.46
298.201	30.38
298.414	30
298.626	31.47
298.839	30.43
299.052	30.76
299.265	32.2
299.478	34.88
299.691	35.41
299.903	35.56
300.116	37.26
300.329	38.14
300.542	37.8
300.755	40.38
300.967	38.9
301.18	41.97
301.393	40.64
301.605	37.6
301.818	37.29
302.031	36.97
302.243	36.55
302.456	36.76
302.669	36.33
302.881	38.14
303.094	37.94
303.307	40.15
303.519	39.32
303.732	41.72
303.944	43.4
304.157	44.33
304.37	44.07
304.582	45.07
304.795	44.23
305.007	44.93
305.22	43.85
305.432	42.7
305.645	40.66
305.857	40.3
306.069	39.88
306.282	39.26
306.494	38.12
306.707	39.48
306.919	38.14
307.132	37.4
307.344	37.29
307.556	36.94
307.769	37.54
307.981	38.08
308.193	36.51
308.406	35.2
308.618	35.34
308.83	34.51
309.043	33.63
309.255	34.19
309.467	34.23
309.679	32.12
309.892	31.93
310.104	32.44
310.316	33.46
310.528	33.09
310.74	32.77
310.953	32.8
311.165	32.05
311.377	32.54
311.589	31.91
311.801	31.94
312.013	34.79
312.225	34.43
312.437	33.61
312.649	32.21
312.862	32.33
313.074	33.2
313.286	32.97
313.498	34.61
313.71	35.86
313.922	36.27
314.134	37.38
314.346	34.16
314.558	35.62
314.77	36.58
314.982	37.56
315.193	38.14
315.405	37.27
315.617	37.75
315.829	38.16
316.041	36.52
316.253	36.82
316.465	36.95
316.677	39.51
316.888	40.05
317.1	39.28
317.312	39.06
317.524	39.85
317.736	41.12
317.947	42.55
318.159	42.92
318.371	43.21
318.583	43.23
318.794	40.85
319.006	39.59
319.218	38.47
319.43	39.46
319.641	41.37
319.853	41.54
320.064	42.06
320.276	40.44
320.488	40.78
320.699	40.97
320.911	40.89
321.123	43.71
321.334	45.09
321.546	44.03
321.757	43.98
321.969	42.53
322.18	43.1
322.392	43.72
322.603	44.7
322.815	43.81
323.026	44.89
323.238	45.11
323.449	44.3
323.661	42.18
323.872	42.5
324.083	41.61
324.295	39.64
324.506	38.81
324.718	38.53
324.929	36.83
325.14	36.84
325.352	36.76
325.563	37.31
325.774	38.8
325.986	41.27
326.197	41.49
326.408	42.36
326.62	44
326.831	43.12
327.042	42.98
327.253	44.86
327.464	45.56
327.676	44.72
327.887	43.5
328.098	42.67
328.309	41.89
328.52	43.01
328.732	41.42
328.943	40.81
329.154	41.56
329.365	41.86
329.576	40.57
329.787	41.29
329.998	42.81
330.209	44.41
330.42	43.87
330.631	42.99
330.842	43.31
331.053	45.78
331.264	45.83
331.475	46.36
331.686	46.19
331.897	45.89
332.108	44.29
332.319	41.93
332.53	40.32
332.741	41.22
332.952	42.36
333.163	40.37
333.374	38.87
333.585	39.34
333.795	40.05
334.006	39.49
334.217	38.61
334.428	39.46
334.639	41.48
334.849	42.33
335.06	41.01
335.271	42
335.482	42.9
335.692	44.21
335.903	44.92
336.114	44.01
336.325	44.94
336.535	46.17
336.746	44.62
336.957	43.56
337.167	43.84
337.378	45.18
337.589	44.69
337.799	44.71
338.01	44.68
338.22	43.25
338.431	43.69
338.642	43.14
338.852	42.78
339.063	43.79
339.273	44.28
339.484	43.83
339.694	43.08
339.905	41.93
340.115	43.51
340.326	42.69
340.536	43.27
340.746	42.34
340.957	42.16
341.167	42.44
341.378	42.14
341.588	42.42
341.799	42.91
342.009	42.71
342.219	41.76
342.43	41.98
342.64	42.73
342.85	43.29
343.061	42.53
343.271	42.87
343.481	41.69
343.691	41.56
343.902	40.67
344.112	39.91
344.322	39.17
344.532	39.11
344.743	37.91
344.953	37.32
345.163	37.39
345.373	37.52
345.583	37.33
345.793	37.04
346.004	38.1
346.214	37.11
346.424	37
346.634	37.46
346.844	38.02
347.054	37.28
347.264	38.51
347.474	36.28
347.684	37.09
347.894	35.81
348.104	36.74
348.314	35.32
348.524	36.47
348.734	36.33
348.944	36.7
349.154	37.7
349.364	37.94
349.574	34.84
349.784	36.71
349.994	36.79
350.204	38.06
350.413	38.09
350.623	37.18
350.833	35.72
351.043	35.18
351.253	33.8
351.463	32.97
351.672	32.65
351.882	34.93
352.092	34.22
352.302	34.54
352.511	34.02
352.721	33.67
352.931	34.37
353.141	34.7
353.35	35.01
353.56	35.56
353.77	35.75
353.979	34.93
354.189	34.07
354.399	34.98
354.608	34.49
354.818	34.58
355.027	35.66
355.237	36.98
355.447	37.84
355.656	37.85
355.866	37.92
356.075	36.75
356.285	37.25
356.494	37.72
356.704	37.56
356.913	37.48
357.123	36.86
357.332	34.96
357.542	33.93
357.751	34
357.96	33.83
358.17	33.2
358.379	34.18
358.589	34.73
358.798	33.68
359.007	32.91
359.217	32.05
359.426	31.84
359.635	31.9
359.845	31.48
360.054	31.11
360.263	30.52
360.472	30.77
360.682	30.3
360.891	28.71
361.1	28.73
361.309	29.02
361.519	29.59
361.728	28.93
361.937	29.76
362.146	29.78
362.355	29.23
362.564	29.47
362.774	29.98
362.983	29.58
363.192	30.02
363.401	30.66
363.61	29.84
363.819	30.06
364.028	31.22
364.237	31.53
364.446	32.07
364.655	32.12
364.864	32.82
365.073	32.69
365.282	33.72
365.491	34.54
365.7	33.4
365.909	33.66
366.118	32.85
366.327	33.4
366.536	33.23
366.745	32.45
366.954	32.66
367.162	32.89
367.371	32.66
367.58	32.67
367.789	32.34
367.998	33.35
368.207	34.08
368.415	34.94
368.624	34.53
368.833	33.37
369.042	34.39
369.25	34.7
369.459	33.81
369.668	33.43
369.877	33.34
370.085	33.33
370.294	33.07
370.503	32.07
370.711	31.79
370.92	31.53
371.129	32.98
371.337	32.14
371.546	31.77
371.754	33.28
371.963	33.7
372.171	32.91
372.38	33.5
372.589	33.07
372.797	32.74
373.006	32.9
373.214	31.72
373.423	30.36
373.631	31.46
373.84	30.85
374.048	30.51
374.256	30.45
374.465	31.01
374.673	29.55
374.882	29.96
375.09	29.99
375.298	30.08
375.507	31.11
375.715	31.42
375.923	29.5
376.132	29.54
376.34	29.9
376.548	30.03
376.757	30.34
376.965	30.95
377.173	30.67
377.381	30.9
377.59	31.71
377.798	31.59
378.006	31.3
378.214	33.02
378.423	34.02
378.631	32.7
378.839	32.59
379.047	32.39
379.255	31.53
379.463	32.32
379.671	33.19
379.879	32.03
380.088	31.79
380.296	32.39
380.504	32.29
380.712	31.75
380.92	31.65
381.128	31.83
381.336	32.05
381.544	32.95
381.752	32.54
381.96	32.61
382.168	33.19
382.376	33.17
382.584	33.04
382.791	32.77
382.999	32.6
383.207	32.82
383.415	33.25
383.623	32.99
383.831	33.17
384.039	33.01
384.247	32.42
384.454	31.88
384.662	31.66
384.87	31.13
385.078	31
385.285	30.98
385.493	30.22
385.701	30.5
385.909	28.88
386.116	29.57
386.324	29.69
386.532	29.91
386.739	29.73
386.947	30.18
387.155	31.01
387.362	30.92
387.57	31.03
387.778	31.52
387.985	29.68
388.193	31.05
388.4	30.24
388.608	30.04
388.816	29.51
389.023	28.91
389.231	29
389.438	28.88
389.646	28.81
389.853	28.4
390.061	29.06
390.268	28.87
390.475	28.67
390.683	29.15
390.89	28.75
391.098	29
391.305	29.87
391.512	29.94
391.72	29.61
391.927	28.86
392.135	28.9
392.342	27.49
392.549	28.81
392.756	28.75
392.964	27.98
393.171	28.39
393.378	28.09
393.586	26.83
393.793	26.36
394	26.42
394.207	27.08
394.414	27.4
394.622	27.7
394.829	27.09
395.036	26.81
395.243	28.06
395.45	28.43
395.657	29.35
395.864	30.3
396.072	30.36
396.279	30.87
396.486	30.89
396.693	30.84
396.9	30.82
397.107	29.9
397.314	29.82
397.521	28.63
397.728	27.18
397.935	26.1
398.142	26.33
398.349	27
398.556	26.09
398.763	26.36
398.97	26.07
399.177	27.65
399.383	28.08
399.59	28.19
399.797	29.24
400.004	30.88
400.211	31.86
400.418	31.45
400.625	32.23
400.831	32.12
401.038	32.22
401.245	32.66
401.452	31.53
401.658	31.76
401.865	31.43
402.072	30.53
402.279	29.75
402.485	28.48
402.692	29.18
402.899	28.28
403.105	27.7
403.312	28.25
403.519	27.63
403.725	26.99
403.932	27.26
404.138	27.78
404.345	27.25
404.552	27.39
404.758	27.85
404.965	26.79
405.171	26.72
405.378	27.74
405.584	26.73
405.791	27.29
405.997	28.75
406.204	29.11
406.41	28.52
406.617	28.8
406.823	27.93
407.029	28.44
407.236	28.63
407.442	28.79
407.649	29.32
407.855	29.54
408.061	29.57
408.268	29.14
408.474	29.23
408.68	30.17
408.887	30.01
409.093	30.69
409.299	30.18
409.505	30.47
409.712	30.34
409.918	29.12
410.124	29.7
410.33	29.34
410.537	28.66
410.743	28.56
410.949	28.56
411.155	28.67
411.361	28.71
411.567	28.93
411.773	29.07
411.98	29.14
412.186	30.14
412.392	29.58
412.598	29.95
412.804	30.29
413.01	30.37
413.216	30.29
413.422	30.07
413.628	29.28
413.834	28.71
414.04	28.43
414.246	29.28
414.452	28.91
414.658	28.97
414.864	28.69
415.07	28.86
415.275	28.69
415.481	28.19
415.687	28.71
415.893	28.42
416.099	28.41
416.305	28.18
416.511	27.41
416.716	26.46
416.922	26.19
417.128	25.21
417.334	24.56
417.539	23.92
417.745	23.47
417.951	22.77
418.157	23.32
418.362	23.02
418.568	22.79
418.774	21.78
418.979	22.51
419.185	22.01
419.391	22.22
419.596	22.36
419.802	22.46
420.008	22.49
420.213	17.62
420.419	17.61
420.624	17.53
420.83	17.39
421.035	17.66
421.241	17.69
421.446	17.92
421.652	17.82
421.857	17.56
422.063	17.42
422.268	17.18
422.474	21.5
422.679	21.43
422.885	21.67
423.09	21.8
423.295	21.67
423.501	21.27
423.706	21.21
423.911	21.08
424.117	20.99
424.322	21.19
424.527	21.77
424.733	22.36
424.938	21.82
425.143	21.67
425.349	22.02
425.554	22.27
425.759	22.34
425.964	22.13
426.169	22.69
426.375	23.37
426.58	23.43
426.785	23.53
426.99	23.48
427.195	23.91
427.4	24.61
427.605	24.65
427.811	25.1
428.016	25.01
428.221	25.57
428.426	24.95
428.631	24.69
428.836	24.78
429.041	24.2
429.246	24.16
429.451	24.9
429.656	24.93
429.861	24.7
430.066	24.88
430.271	25.53
430.476	25.29
430.681	26.03
430.886	25.67
431.09	25.17
431.295	25.41
431.5	25.41
431.705	25.43
431.91	24.77
432.115	24.66
432.32	23.93
432.524	23.72
432.729	23.41
432.934	23.72
433.139	23.85
433.343	23.66
433.548	23.43
433.753	23.72
433.958	23.29
434.162	23.09
434.367	23.11
434.572	23.34
434.776	23.35
434.981	23.42
435.186	22.93
435.39	23.29
435.595	23.71
435.799	24.09
436.004	24.19
436.209	24.1
436.413	24.6
436.618	24.14
436.822	24.13
437.027	23.6
437.231	23.66
437.436	23.3
437.64	22.98
437.845	22.47
438.049	22.02
438.253	21.91
438.458	22.1
438.662	21.87
438.867	22.03
439.071	21.77
439.275	21.72
439.48	21.5
439.684	21.42
439.888	21.5
440.093	21.58
440.297	21.52
440.501	21.32
440.706	21.08
440.91	21.09
441.114	21.16
441.318	21.35
441.523	21.77
441.727	21.95
441.931	22.74
442.135	22.73
442.339	23.25
442.543	23.94
442.748	24.35
442.952	24.64
443.156	24.9
443.36	25.39
443.564	25.31
443.768	24.69
443.972	25.15
444.176	24.4
444.38	24.27
444.584	23.8
444.788	23.16
444.992	22.77
445.196	22.08
445.4	21.52
445.604	20.66
445.808	20.96
446.012	21.17
446.216	20.57
446.42	20.3
446.624	20.11
446.828	20.3
447.032	20.3
447.235	20.12
447.439	20.28
447.643	20.47
447.847	21.15
448.051	21.09
448.254	21.41
448.458	22.28
448.662	22.5
448.866	22.83
449.069	22.83
449.273	23.02
449.477	23.16
449.681	23.84
449.884	24.34
450.088	24.57
450.292	24.4
450.495	23.97
450.699	23.25
450.902	23.49
451.106	23.4
451.31	23.35
451.513	23.48
451.717	23.34
451.92	22.7
452.124	22.04
452.327	21.58
452.531	21.22
452.734	21.74
452.938	21.78
453.141	22.06
453.345	22.16
453.548	22.34
453.752	22.5
453.955	23.14
454.158	23.5
454.362	23.71
454.565	24.06
454.769	25.02
454.972	25.06
455.175	25.13
455.379	25.24
455.582	25.87
455.785	25.45
455.988	25.15
456.192	25.2
456.395	24.63
456.598	25.15
456.801	24.8
457.005	23.88
457.208	23.29
457.411	22.94
457.614	21.56
457.817	21.06
458.021	21.09
458.224	20.95
458.427	20.57
458.63	21.18
458.833	20.46
459.036	20.26
459.239	20.53
459.442	20.42
459.645	20.4
459.848	21.13
460.051	21.02
460.254	20.94
460.457	20.92
460.66	21.32
460.863	21.35
461.066	21.67
461.269	21.64
461.472	21.8
461.675	21.9
461.878	22.28
462.081	22.75
462.284	22.97
462.486	23.04
462.689	22.77
462.892	22.82
463.095	23.01
463.298	23.31
463.5	24.19
463.703	24.19
463.906	24.56
464.109	25.09
464.311	24.87
464.514	25.24
464.717	25.64
464.92	25.84
465.122	25.49
465.325	25.21
465.528	25.35
465.73	24.86
465.933	24.8
466.135	24.21
466.338	23.47
466.541	23.74
466.743	23.09
466.946	22.82
467.148	22.85
467.351	22.42
467.553	22.1
467.756	21.89
467.958	21.07
468.161	20.92
468.363	21.74
468.566	22.01
468.768	21.75
468.971	22.97
469.173	23.51
469.375	23.71
469.578	23.75
469.78	23.89
469.983	23.97
470.185	24.97
470.387	24.88
470.59	25.09
470.792	24.99
470.994	25.09
471.196	24.52
471.399	24.25
471.601	24.59
471.803	24.19
472.005	24.04
472.208	23.3
472.41	23.31
472.612	23.41
472.814	22.75
473.016	22.86
473.218	22.62
473.421	21.95
473.623	21.85
473.825	22.21
474.027	22.74
474.229	23
474.431	23.7
474.633	23.84
474.835	23.58
475.037	23.24
475.239	23.53
475.441	23.88
475.643	24.3
475.845	24.49
476.047	23.88
476.249	23.81
476.451	23.58
476.653	23.64
476.855	23.72
477.057	24.14
477.258	24.68
477.46	24.34
477.662	24.23
477.864	24.08
478.066	23.84
478.268	23.6
478.469	23.75
478.671	23.5
478.873	23.2
479.075	22.69
479.276	22.18
479.478	21.76
479.68	21.15
479.882	20.43
480.083	19.78
480.285	19.73
480.487	19.87
480.688	19.43
480.89	19.54
481.091	19.26
481.293	18.94
481.495	18.73
481.696	18.31
481.898	18.3
482.099	18.07
482.301	17.95
482.502	17.58
482.704	17.14
482.905	16.88
483.107	16.64
483.308	16.37
483.51	16.15
483.711	16.03
483.913	15.93
484.114	15.92
484.315	16.05
484.517	16.04
484.718	16.15
484.92	16.28
485.121	16.47
485.322	16.71
485.524	16.96
485.725	17.23
485.926	17.37
486.127	17.52
486.329	17.5
486.53	17.43
486.731	17.62
486.932	17.55
487.134	17.38
487.335	17.44
487.536	17.41
487.737	17.38
487.938	17.56
488.139	17.63
488.341	17.72
488.542	17.61
488.743	17.8
488.944	17.8
489.145	17.92
489.346	18.14
489.547	18.25
489.748	18.18
489.949	18.29
490.15	18.05
490.351	17.77
490.552	17.68
490.753	17.74
490.954	17.58
491.155	17.42
491.356	17.24
491.557	17.32
491.758	17.26
491.959	17.3
492.159	17.33
492.36	17.64
492.561	18.01
492.762	18.58
492.963	19.01
493.164	19.28
493.364	19.68
493.565	20
493.766	20.39
493.967	20.58
494.167	20.81
494.368	21.04
494.569	20.67
494.769	21.05
494.97	20.83
495.171	20.82
495.371	20.59
495.572	20.53
495.773	20.44
495.973	20.33
496.174	20.4
496.375	20.29
496.575	20.61
496.776	21.04
496.976	20.46
497.177	20.3
497.377	20.22
497.578	20.6
497.778	20.5
497.979	21.11
498.179	20.93
498.38	20.87
498.58	20.86
498.78	20.63
498.981	20.75
499.181	21.71
499.382	22.01
499.582	22.13
499.782	22.39
499.983	22.62
500.183	22.64
500.383	23.23
500.584	23.32
500.784	23.4
500.984	23.56
501.184	23.23
501.385	22.7
501.585	22.81
501.785	23.11
501.985	22.95
502.185	22.51
502.386	22.28
502.586	21.78
502.786	21.94
502.986	22.08
503.186	21.58
503.386	21.8
503.586	21.73
503.786	21.38
503.987	21.45
504.187	20.98
504.387	21.68
504.587	21.59
504.787	22.15
504.987	22.19
505.187	22.51
505.387	22.8
505.587	22.75
505.786	22.82
505.986	22.94
506.186	22.64
506.386	23.38
506.586	23.13
506.786	22.98
506.986	22.8
507.186	22.53
507.386	22.44
507.585	22.11
507.785	22.32
507.985	22.24
508.185	22.34
508.384	22.4
508.584	21.8
508.784	22.19
508.984	22.4
509.183	22.04
509.383	22.59
509.583	22.5
509.782	22.93
509.982	22.65
510.182	22.78
510.381	22.78
510.581	22.6
510.781	23
510.98	22.73
511.18	22.75
511.379	23.05
511.579	22.35
511.778	22.52
511.978	22.72
512.177	22.46
512.377	22.53
512.576	22.55
512.776	22.76
512.975	22.71
513.175	22.73
513.374	22.82
513.573	22.83
513.773	23.29
513.972	22.99
514.172	22.87
514.371	23.39
514.57	23.51
514.77	24.2
514.969	23.97
515.168	24.52
515.367	24.63
515.567	24.27
515.766	24.2
515.965	24.26
516.164	24.47
516.364	23.97
516.563	23.88
516.762	23.66
516.961	23.06
517.16	23.02
517.359	22.4
517.559	22.53
517.758	22.96
517.957	22.79
518.156	22.72
518.355	22.34
518.554	22.9
518.753	22.69
518.952	22.75
519.151	23.08
519.35	23.47
519.549	24.05
519.748	23.95
519.947	23.83
520.146	24.35
520.345	24.36
520.544	24.71
520.743	24.59
520.942	24.99
521.141	25.25
521.339	25.07
521.538	24.72
521.737	24.4
521.936	24.2
522.135	24.28
522.333	24.45
522.532	24.75
522.731	24.74
522.93	24.45
523.129	24.25
523.327	24.2
523.526	24.32
523.725	24.62
523.923	24.4
524.122	24.59
524.321	24.41
524.519	24.2
524.718	23.89
524.917	24.11
525.115	24.22
525.314	24.36
525.512	24.25
525.711	23.71
525.909	23.56
526.108	23.36
526.306	23.19
526.505	22.95
526.703	22.67
526.902	22.35
527.1	22.05
527.299	21.91
527.497	21.67
527.696	21.33
527.894	21.43
528.092	21.21
528.291	21.31
528.489	21.3
528.688	21.48
528.886	21.54
529.084	21.86
529.283	21.73
529.481	21.93
529.679	22.19
529.877	22.88
530.076	22.94
530.274	23.23
530.472	23.37
530.67	23.46
530.869	23.52
531.067	23.67
531.265	23.8
531.463	24.18
531.661	24.25
531.859	23.88
532.057	23.64
532.255	24.02
532.454	24.36
532.652	24.47
532.85	24.4
533.048	24.34
533.246	24.39
533.444	24.49
533.642	24.6
533.84	24.56
534.038	24.9
534.236	24.87
534.434	25.03
534.632	25.08
534.83	25.19
535.027	25.45
535.225	25.59
535.423	25.52
535.621	25.36
535.819	25.21
536.017	25.35
536.215	25.47
536.412	25.77
536.61	25.76
536.808	25.81
537.006	25.86
537.203	26.42
537.401	26.85
537.599	27.15
537.797	27.33
537.994	27.82
538.192	28.18
538.39	28.27
538.587	28.04
538.785	28.01
538.983	28.05
539.18	27.97
539.378	27.59
539.575	27.64
539.773	27.33
539.97	27.41
540.168	27.16
540.366	27.03
540.563	26.84
540.761	26.99
540.958	26.94
541.155	26.66
541.353	26.68
541.55	26.76
541.748	26.73
541.945	26.98
542.143	27
542.34	27.2
542.537	27.17
542.735	27.45
542.932	27.8
543.129	27.94
543.327	28.44
543.524	28.72
543.721	28.94
543.919	28.83
544.116	29.1
544.313	29.01
544.51	29.11
544.708	29.63
544.905	29.79
545.102	29.65
545.299	29.89
545.496	29.93
545.693	29.48
545.891	29.66
546.088	30.05
546.285	30.1
546.482	30.59
546.679	30.76
546.876	30.93
547.073	31.58
547.27	31.8
547.467	31.72
547.664	31.79
547.861	32.92
548.058	33.23
548.255	33.26
548.452	33.66
548.649	33.62
548.846	34.16
549.043	34.16
549.24	33.53
549.437	33.57
549.633	34.06
549.83	34.56
550.027	34.82
550.224	34.85
550.421	35.42
550.618	35.33
550.814	35.38
551.011	34.91
551.208	34.77
551.405	34.97
551.601	34.8
551.798	34.66
551.995	34.33
552.191	34.2
552.388	34
552.585	34.01
552.781	34.42
552.978	34.88
553.175	35.19
553.371	35.32
553.568	35.63
553.764	36.08
553.961	36.52
554.157	36.65
554.354	36.81
554.55	36.83
554.747	36.89
554.943	36.95
555.14	37.07
555.336	37.3
555.533	37.1
555.729	37.86
555.926	38.16
556.122	38.43
556.318	38.57
556.515	38.64
556.711	38.85
556.907	39.05
557.104	39.56
557.3	39.54
557.496	39.63
557.693	40.3
557.889	39.95
558.085	39.92
558.281	40.18
558.478	40.83
558.674	40.75
558.87	41.06
559.066	41.05
559.262	40.58
559.459	40.18
559.655	40.36
559.851	40.08
560.047	40.17
560.243	40.48
560.439	40.41
560.635	40.25
560.831	40.31
561.027	40.12
561.223	40.28
561.419	40.38
561.615	40.98
561.811	41.32
562.007	41.74
562.203	42.04
562.399	41.9
562.595	42.03
562.791	41.99
562.987	41.69
563.183	42.38
563.379	42.16
563.575	42.07
563.771	42.17
563.966	41.69
564.162	42.34
564.358	42.19
564.554	42.16
564.75	41.48
564.945	41.49
565.141	41.96
565.337	41.52
565.533	41.5
565.728	41.28
565.924	40.99
566.12	41.32
566.315	40.87
566.511	40.59
566.707	40.56
566.902	40.81
567.098	40.93
567.293	40.77
567.489	41.34
567.684	41.93
567.88	42.15
568.076	42.26
568.271	42.16
568.467	42.38
568.662	42.12
568.858	42.81
569.053	43.26
569.248	43.26
569.444	43.33
569.639	42.47
569.835	42.4
570.03	42.56
570.225	42.88
570.421	42.86
570.616	42.62
570.812	43.12
571.007	42.68
571.202	42.29
571.397	42.56
571.593	42.65
571.788	42.9
571.983	43.07
572.178	43.24
572.374	43.79
572.569	44.06
572.764	44.18
572.959	44.37
573.154	44.09
573.35	44.46
573.545	44.71
573.74	44.94
573.935	45.22
574.13	44.79
574.325	44.79
574.52	44.26
574.715	44.47
574.91	44.39
575.105	44.22
575.3	44.43
575.495	44.22
575.69	43.93
575.885	43.87
576.08	43.76
576.275	43.93
576.47	44.15
576.665	44.77
576.86	44.5
577.055	43.96
577.25	44.25
577.444	45.18
577.639	46.15
577.834	46.33
578.029	46.32
578.224	46.54
578.418	46.93
578.613	46.84
578.808	46.75
579.003	47.19
579.197	48.18
579.392	48.43
579.587	48.09
579.781	47.65
579.976	47.48
580.171	47.9
580.365	48.18
580.56	48.28
580.755	48.35
580.949	48.02
581.144	47.89
581.338	47.82
581.533	47.67
581.727	47.93
581.922	48.51
582.116	49.55
582.311	49.57
582.505	49.74
582.7	49.74
582.894	49.63
583.089	49.63
583.283	50.36
583.478	50.8
583.672	50.68
583.866	50.56
584.061	49.98
584.255	49.61
584.449	50.01
584.644	50.54
584.838	50.37
585.032	50.67
585.226	50.91
585.421	50.63
585.615	50.04
585.809	50.74
586.003	51.1
586.198	51.24
586.392	50.85
586.586	51.12
586.78	49.9
586.974	50.47
587.168	50.38
587.363	50.24
587.557	50.74
587.751	51.13
587.945	51.11
588.139	50.58
588.333	50.66
588.527	51.22
588.721	50.48
588.915	50.83
589.109	50.46
589.303	50.92
589.497	51.03
589.691	50.53
589.885	50.62
590.079	50.46
590.273	50.97
590.466	51.05
590.66	50.59
590.854	51.4
591.048	51.83
591.242	51.8
591.436	51.79
591.629	52.2
591.823	52.49
592.017	52.31
592.211	52.68
592.404	52.15
592.598	52.07
592.792	52.21
592.986	51.67
593.179	51.4
593.373	51.63
593.567	51.48
593.76	51.29
593.954	51.09
594.147	51.12
594.341	50.98
594.535	51.3
594.728	51.26
594.922	51.13
595.115	51.22
595.309	51.32
595.502	51.45
595.696	51.13
595.889	51.27
596.083	51.14
596.276	51.23
596.47	50.72
596.663	50.69
596.856	50.4
597.05	50.86
597.243	51.15
597.437	51.18
597.63	51.24
597.823	51.7
598.017	51.59
598.21	51.86
598.403	52.22
598.596	53.16
598.79	53.47
598.983	53.88
599.176	53.63
599.369	53.66
599.563	53.99
599.756	54.01
599.949	53.98
600.142	53.6
600.335	54.26
600.528	53.95
600.722	53.76
600.915	53.35
601.108	53.91
601.301	54.32
601.494	54.07
601.687	53.75
601.88	53.42
602.073	53.78
602.266	53.76
602.459	52.89
602.652	53.15
602.845	52.69
603.038	52.53
603.231	52.61
603.424	52.24
603.617	52.06
603.809	52.77
604.002	52.24
604.195	52.41
604.388	52.87
604.581	53.15
604.774	53.24
604.966	53.1
605.159	53.42
605.352	52.91
605.545	53.62
605.737	54.03
605.93	54.09
606.123	55.11
606.316	54.82
606.508	54.86
606.701	55.31
606.894	54.94
607.086	55.85
607.279	56.31
607.471	57.01
607.664	56.07
607.857	55.95
608.049	55.29
608.242	55.59
608.434	55.35
608.627	55.21
608.819	54.85
609.012	55.39
609.204	55.22
609.397	55.24
609.589	54.7
609.782	55.04
609.974	55.1
610.166	55.63
610.359	55.16
610.551	55.77
610.743	55.95
610.936	56.91
611.128	57.02
611.32	57.44
611.513	57.64
611.705	58.39
611.897	58.41
612.09	59.25
612.282	59.33
612.474	59.51
612.666	59.72
612.858	58.94
613.051	59.34
613.243	59.61
613.435	59.7
613.627	58.89
613.819	59.22
614.011	59.96
614.203	59.4
614.395	59.27
614.588	59.45
614.78	59.24
614.972	60.84
615.164	60.06
615.356	60.34
615.548	60.18
615.74	61.09
615.932	61.15
616.124	61.21
616.315	61.99
616.507	62.14
616.699	62.86
616.891	63.19
617.083	62.67
617.275	62.62
617.467	62.5
617.659	62.1
617.85	62.07
618.042	61.64
618.234	61.8
618.426	61.5
618.618	61.37
618.809	60.37
619.001	58.99
619.193	58.6
619.384	59.31
619.576	59.28
619.768	59.16
619.959	58.8
620.151	58.98
620.343	58.66
620.534	58.43
620.726	57.89
620.917	59.11
621.109	59.76
621.301	60.1
621.492	60.12
621.684	59.17
621.875	59.83
622.067	60.65
622.258	60.35
622.45	60.99
622.641	60.97
622.832	61.7
623.024	61.18
623.215	61.67
623.407	62.01
623.598	61.59
623.789	61.88
623.981	62.02
624.172	61.87
624.363	61.51
624.555	61.53
624.746	61.41
624.937	61.16
625.129	61.64
625.32	61.62
625.511	61.96
625.702	61.63
625.893	61.58
626.085	61.33
626.276	61.47
626.467	61.62
626.658	60.74
626.849	60.44
627.04	60.81
627.231	60.02
627.422	60.46
627.614	59.76
627.805	60.26
627.996	61.08
628.187	60.97
628.378	60.87
628.569	62.13
628.76	62.39
628.951	63.08
629.142	62.81
629.332	63.08
629.523	62.68
629.714	63.04
629.905	63.02
630.096	62.85
630.287	63.07
630.478	63.06
630.669	61.8
630.859	62
631.05	62.48
631.241	62.37
631.432	62.94
631.623	64.12
631.813	63.94
632.004	63.56
632.195	62.73
632.385	63.67
632.576	63.21
632.767	63.24
632.957	63.46
633.148	61.89
633.339	62.27
633.529	62.45
633.72	61.56
633.91	62.21
634.101	62.59
634.292	63.64
634.482	63.29
634.673	64
634.863	65.31
635.054	65.67
635.244	66.99
635.435	67.13
635.625	66.96
635.815	66.95
636.006	66.51
636.196	66.67
636.387	66.78
636.577	66.52
636.767	66.41
636.958	66.28
637.148	66.16
637.338	66.08
637.529	66.6
637.719	66.45
637.909	66.17
638.099	66.27
638.29	66.03
638.48	65.74
638.67	66.06
638.86	65.57
639.05	64.87
639.241	64.98
639.431	65.07
639.621	64.71
639.811	64.62
640.001	66.13
640.191	66.61
640.381	67.82
640.571	68.17
640.761	67.96
640.951	69.58
641.141	70.09
641.331	70.35
641.521	70.79
641.711	71.14
641.901	70.98
642.091	70.78
642.281	71
642.471	70
642.661	70.56
642.851	70.03
643.041	69.1
643.231	69.05
643.42	69.35
643.61	69.38
643.8	69.29
643.99	69.46
644.18	69.95
644.369	69.18
644.559	68.99
644.749	68.8
644.939	69.03
645.128	69.71
645.318	69.97
645.508	69.56
645.697	69.88
645.887	70.06
646.076	70.78
646.266	69.6
646.456	69.84
646.645	70.72
646.835	70.33
647.024	71.08
647.214	70.41
647.403	69.79
647.593	69.88
647.782	69.21
647.972	68.41
648.161	68.21
648.351	68
648.54	68.46
648.73	66.9
648.919	67.2
649.108	66.37
649.298	65.07
649.487	65.11
649.677	64.9
649.866	65.83
650.055	66.08
650.244	65.95
650.434	66.4
650.623	67.74
650.812	69.33
651.002	68.79
651.191	68.72
651.38	70.3
651.569	70.87
651.758	71.06
651.947	70.21
652.137	70.53
652.326	70.84
652.515	71.08
652.704	69.14
652.893	68.92
653.082	69.87
653.271	70.19
653.46	70.43
653.649	70.31
653.838	70.33
654.027	70.37
654.216	70.16
654.405	70.78
654.594	69.4
654.783	69.89
654.972	69.73
655.161	70
655.35	70.39
655.539	70.52
655.728	70.37
655.916	70.28
656.105	70.2
656.294	70.7
656.483	69.62
656.672	70.27
656.86	69.6
657.049	68.44
657.238	67.59
657.427	68.02
657.615	67.82
657.804	66.82
657.993	66.32
658.181	66.62
658.37	66.55
658.559	66.29
658.747	66.45
658.936	66.74
659.125	69.1
659.313	69.54
659.502	68.07
659.69	67.28
659.879	68.57
660.067	68.9
660.256	68.35
660.444	68.1
660.633	68.68
660.821	69.83
661.01	70.32
661.198	69.46
661.387	69.41
661.575	71.17
661.763	71.37
661.952	72.15
662.14	73.48
662.328	74.53
662.517	75.44
662.705	75.82
662.893	75.25
663.082	75.25
663.27	75.73
663.458	75.02
663.646	74.64
663.834	75.48
664.023	74.75
664.211	74.9
664.399	74.91
664.587	75.35
664.775	75.18
664.963	74.98
665.152	75.39
665.34	74.79
665.528	76.86
665.716	77.66
665.904	78.45
666.092	78.34
666.28	77.58
666.468	77.29
666.656	76.09
666.844	75.6
667.032	76.16
667.22	76.83
667.408	76.13
667.596	74.39
667.784	73.22
667.971	72.85
668.159	73.71
668.347	73.96
668.535	74.04
668.723	74.46
668.911	75.48
669.098	74.92
669.286	73.79
669.474	74.52
669.662	74.83
669.849	75.27
670.037	75.29
670.225	75.02
670.413	75.72
670.6	76.63
670.788	75.98
670.976	76.11
671.163	77.38
671.351	78.72
671.538	79.27
671.726	79.64
671.913	79.59
672.101	79.4
672.289	78.93
672.476	78.04
672.664	77.23
672.851	79.16
673.039	78.91
673.226	78.76
673.413	78.26
673.601	76.81
673.788	77.06
673.976	77.99
674.163	78.27
674.35	78.71
674.538	79.32
674.725	79.73
674.912	78.35
675.1	77.98
675.287	77.49
675.474	77.25
675.662	77.43
675.849	77.02
676.036	76.07
676.223	77.11
676.411	76.73
676.598	76.4
676.785	76.83
676.972	77.16
677.159	78.35
677.346	78.93
677.533	77.47
677.721	77.28
677.908	76.64
678.095	76.53
678.282	74.56
678.469	73.17
678.656	72.47
678.843	71.06
679.03	70.04
679.217	69.89
679.404	69.52
679.591	70.83
679.778	71.25
679.964	72.15
680.151	72.79
680.338	74.01
680.525	75.19
680.712	76.1
680.899	77.03
681.086	77.33
681.272	76.16
681.459	75.99
681.646	75.53
681.833	75.34
682.02	75.71
682.206	75.97
682.393	75.92
682.58	76.68
682.766	77.04
682.953	77.59
683.14	78.48
683.326	79.36
683.513	79.2
683.7	79.53
683.886	78.62
684.073	78.05
684.259	78.25
684.446	78.48
684.632	77.34
684.819	76.9
685.005	75.74
685.192	75.96
685.378	75.67
685.565	75.92
685.751	76.69
685.938	78.36
686.124	78.3
686.31	77.75
686.497	77.04
686.683	78.49
686.87	78.33
687.056	78.4
687.242	77.64
687.429	79.31
687.615	79.96
687.801	79.05
687.987	78.09
688.174	78.13
688.36	78.53
688.546	78.84
688.732	77.05
688.918	77.12
689.105	77.81
689.291	78.96
689.477	78.82
689.663	77.57
689.849	77.72
690.035	79.15
690.221	79.7
690.407	79.55
690.593	79.66
690.779	79.58
690.965	79.57
691.151	79.69
691.337	79.49
691.523	78.59
691.709	80.01
691.895	80.25
692.081	79.6
692.267	79.63
692.453	80.51
692.639	81.03
692.825	82.84
693.011	82.2
693.196	82.36
693.382	82.84
693.568	82.97
693.754	82.54
693.94	82.15
694.125	82.93
694.311	82.85
694.497	82.5
694.682	83
694.868	83.62
695.054	84.3
695.239	83.24
695.425	82.81
695.611	82.78
695.796	82.66
695.982	83.21
696.168	82.14
696.353	80.64
696.539	79.77
696.724	78.54
696.91	77.42
697.095	77.6
697.281	76.96
697.466	76.23
697.652	76.08
697.837	75.36
698.023	74.64
698.208	74.7
698.393	75.01
698.579	74.54
698.764	73.99
698.949	73.56
699.135	73.13
699.32	74.44
699.505	74.12
699.691	73.81
699.876	73.31
700.061	74.07
700.246	73.09
700.432	74.49
700.617	75.76
700.802	77.08
700.987	78.02
701.172	78.54
701.358	78.38
701.543	79.19
701.728	81.37
701.913	82.83
702.098	83.27
702.283	85.86
702.468	84.93
702.653	85.73
702.838	84.68
703.023	85.95
703.208	86.05
703.393	86.98
703.578	88.53
703.763	87.86
703.948	88.33
704.133	88.24
704.318	87.36
704.503	87.48
704.688	87.81
704.873	89.73
705.057	88.98
705.242	89.43
705.427	88.54
705.612	86.62
705.797	86.02
705.981	86.24
706.166	85.82
706.351	83.55
706.536	83.88
706.72	84.08
706.905	82.16
707.09	81.81
707.274	81.59
707.459	81.96
707.644	82.42
707.828	83.26
708.013	83.01
708.197	83.26
708.382	85.29
708.567	86.77
708.751	85.29
708.936	86.36
709.12	86.75
709.305	86.19
709.489	85.68
709.673	86.32
709.858	84.41
710.042	84.39
710.227	84.51
710.411	85.15
710.596	83.26
710.78	82.99
710.964	84.02
711.149	84.86
711.333	86.07
711.517	87.9
711.702	88.4
711.886	89.35
712.07	88.18
712.254	88.82
712.438	87.66
712.623	87.29
712.807	86.55
712.991	85.23
713.175	83.98
713.359	83.12
713.544	81.61
713.728	82.04
713.912	82.57
714.096	83.53
714.28	81.7
714.464	81.99
714.648	81.88
714.832	82.11
715.016	81.93
715.2	80.84
715.384	80.41
715.568	80.23
715.752	79.01
715.936	78.73
716.12	79.6
716.304	79.94
716.488	79.47
716.671	79.58
716.855	80.53
717.039	80.49
717.223	82.43
717.407	82.09
717.59	82.14
717.774	82.07
717.958	81.68
718.142	81.12
718.325	81.59
718.509	81.02
718.693	81.9
718.877	81.59
719.06	81.67
719.244	81.35
719.428	80.98
719.611	82.79
719.795	83.9
719.978	83.05
720.162	84.5
720.345	85.26
720.529	88.53
720.713	88.67
720.896	89.33
721.08	90.09
721.263	89.9
721.446	90.48
721.63	87.7
721.813	86.86
721.997	87.1
722.18	84.66
722.364	84.34
722.547	83.36
722.73	80.89
722.914	82.62
723.097	81.72
723.28	82.57
723.464	84.03
723.647	86.62
723.83	87.94
724.013	90.16
724.197	90.24
724.38	88.79
724.563	89.69
724.746	91.96
724.929	90.18
725.112	90.84
725.296	90.97
725.479	90.28
725.662	87.63
725.845	86.02
726.028	85.33
726.211	85.99
726.394	87.2
726.577	86.96
726.76	84.51
726.943	84.44
727.126	83.71
727.309	82.59
727.492	82.19
727.675	84.22
727.858	85.09
728.041	84.45
728.224	83.28
728.407	83.58
728.589	83.93
728.772	86.74
728.955	88.07
729.138	88.35
729.321	87.9
729.503	87.59
729.686	87.04
729.869	86.31
730.052	85.55
730.234	86.32
730.417	86.99
730.6	84.99
730.782	83.7
730.965	83.76
731.148	83.82
731.33	86.38
731.513	88.51
731.695	89.04
731.878	89.08
732.061	90.94
732.243	91.22
732.426	91.69
732.608	92.47
732.791	92.49
732.973	91.38
733.156	91.87
733.338	89.72
733.52	87.76
733.703	86.29
733.885	86.7
734.068	86.86
734.25	87.12
734.432	86.31
734.615	87.79
734.797	88.47
734.979	89.42
735.162	89.23
735.344	90.48
735.526	91.5
735.708	92.29
735.891	92.57
736.073	92.85
736.255	93.28
736.437	91.9
736.619	91.96
736.802	94.28
736.984	95.7
737.166	96.09
737.348	96.09
737.53	94.5
737.712	96.36
737.894	96.14
738.076	94.74
738.258	93.31
738.44	93.73
738.622	92.99
738.804	91.41
738.986	89.89
739.168	88.32
739.35	89.11
739.532	90.05
739.714	88.63
739.896	88.37
740.078	89.4
740.259	91.43
740.441	91.33
740.623	91.02
740.805	91.7
740.987	91.45
741.168	94.11
741.35	94.62
741.532	95.83
741.714	96.63
741.895	98.72
742.077	98.42
742.259	98.23
742.44	100.76
742.622	100.5
742.804	99.32
742.985	99.67
743.167	100.97
743.348	102.64
743.53	102.05
743.711	104.76
743.893	105.47
744.075	105.82
744.256	106.71
744.438	108.86
744.619	106.64
744.8	107.22
744.982	106.48
745.163	104.2
745.345	101.31
745.526	100.47
745.707	97.97
745.889	97.71
746.07	96.9
746.252	97.85
746.433	95.8
746.614	98.68
746.795	97.83
746.977	99.17
747.158	102.01
747.339	103.28
747.52	104.08
747.702	106.06
747.883	103.71
748.064	106.34
748.245	104.74
748.426	103.1
748.607	103.18
748.788	101.39
748.97	103.23
749.151	100.45
749.332	99.94
749.513	98.97
749.694	97.33
749.875	97.66
750.056	95.56
750.237	96.17
750.418	97.39
750.599	94.49
750.78	95.78
750.96	93.58
751.141	93.82
751.322	95.26
751.503	95.06
751.684	95.26
751.865	95.66
752.046	95.31
752.226	94.28
752.407	92.75
752.588	94.21
752.769	94.82
752.949	94.57
753.13	94.73
753.311	93.16
753.492	95.12
753.672	94.31
753.853	95.47
754.034	94.42
754.214	94.77
754.395	95.87
754.575	97.61
754.756	97.51
754.937	100.04
755.117	98.55
755.298	99.31
755.478	98.84
755.659	97.71
755.839	95.6
756.02	95.19
756.2	95.3
756.381	93.86
756.561	93.26
756.741	94.09
756.922	89.46
757.102	87.46
757.283	86.65
757.463	85.22
757.643	84.33
757.823	86.38
758.004	87.3
758.184	86.27
758.364	87.55
758.545	84.82
758.725	84.74
758.905	85.4
759.085	89.18
759.265	87.28
759.446	87.77
759.626	88.72
759.806	86.46
759.986	84.92
760.166	84.99
760.346	84.55
760.526	85.37
760.706	84.49
760.886	85.28
761.066	85.14
761.246	85.87
761.426	84.61
761.606	83.54
761.786	81.71
761.966	81.26
762.146	80.81
762.326	81.22
762.506	82.11
762.686	81.59
762.866	79.95
763.046	78.67
763.225	78.48
763.405	78.68
763.585	78.79
763.765	80.81
763.945	80.99
764.124	81.97
764.304	82.07
764.484	81.65
764.664	82.14
764.843	84.16
765.023	85.11
765.203	86.46
765.382	88.79
765.562	92.15
765.741	91.97
765.921	93.05
766.101	92.32
766.28	93.12
766.46	93.33
766.639	94.33
766.819	93.39
766.998	94.3
767.178	93.41
767.357	93.91
767.537	90.81
767.716	93.02
767.896	93.27
768.075	96.92
768.254	97.53
768.434	98.36
768.613	97.87
768.792	100.16
768.972	98.9
769.151	100.49
769.33	101.37
769.51	104.66
769.689	104.08
769.868	104.79
770.047	103.01
770.226	98.16
770.406	99.3
770.585	97.19
770.764	95.96
770.943	96.54
771.122	97.3
771.301	96.15
771.48	95.19
771.66	95.91
771.839	96.34
772.018	94.32
772.197	98.27
772.376	100.57
772.555	101.87
772.734	102.95
772.913	104.11
773.092	102.32
773.271	104.21
773.449	103.9
773.628	104.45
773.807	103.48
773.986	105.09
774.165	101.54
774.344	100.08
774.523	102.06
774.701	102.84
774.88	101.43
775.059	103.37
775.238	101.03
775.417	102.25
775.595	99.06
775.774	98.72
775.953	100
776.131	102.45
776.31	103.77
776.489	103.61
776.667	104.44
776.846	106.73
777.025	105.7
777.203	106.47
777.382	109.18
777.56	111.34
777.739	110.79
777.917	108.16
778.096	111.17
778.274	109.34
778.453	109.66
778.631	108.69
778.81	106.47
778.988	106.36
779.166	105.47
779.345	102.1
779.523	99.7
779.702	101.85
779.88	103.12
780.058	102.93
780.237	102.38
780.415	103.8
780.593	105.37
780.771	105.43
780.95	105.56
781.128	104.85
781.306	105.87
781.484	110.7
781.662	110.34
781.841	109.1
782.019	108.9
782.197	111.72
782.375	109
782.553	105.15
782.731	105.81
782.909	107.98
783.087	110.37
783.265	107.8
783.443	103.41
783.621	102.26
783.799	103.64
783.977	105.65
784.155	100.51
784.333	98.72
784.511	99.73
784.689	102.83
784.867	101.58
785.045	100.71
785.223	103.03
785.4	105.33
785.578	106.66
785.756	107.7
785.934	102.92
786.112	106.48
786.289	110.38
786.467	110.15
786.645	105.64
786.823	106.46
787	106.68
787.178	104.45
787.356	103.03
787.533	103.64
787.711	103.72
787.889	105.57
788.066	103.13
788.244	102.35
788.421	104.26
788.599	104.41
788.776	102.32
788.954	101.41
789.131	100.97
789.309	98.77
789.486	97.04
789.664	95.17
789.841	94.81
790.019	95.19
790.196	95.24
790.373	93.49
790.551	94.01
790.728	93.37
790.906	92.65
791.083	92.43
791.26	93.59
791.437	94.79
791.615	95.1
791.792	97.34
791.969	94.62
792.146	97.29
792.324	99.09
792.501	100.85
792.678	101.01
792.855	103.9
793.032	104.63
793.209	106.34
793.387	108.37
793.564	111.67
793.741	111.56
793.918	113.92
794.095	111.95
794.272	112.32
794.449	114.59
794.626	117.86
794.803	115.35
794.98	115.52
795.157	111.02
795.334	108.68
795.511	105.83
795.688	103.74
795.864	106.11
796.041	105.16
796.218	104.92
796.395	102.48
796.572	104.21
796.749	105.71
796.925	108.06
797.102	108.97
797.279	107.52
797.456	105.79
797.632	104.92
797.809	104.62
797.986	105.61
798.162	104.67
798.339	103.7
798.516	101.03
798.692	96.07
798.869	94.43
799.046	95.62
799.222	96.3
799.399	97.99
799.575	99.25
799.752	98.22
799.928	98.51
800.105	96.61
800.281	95.06
800.458	95.45
800.634	98.98
800.811	100.03
800.987	102.12
801.163	104.35
801.34	104.48
801.516	103.67
801.692	103.53
801.869	102.3
802.045	105.5
802.221	108.32
802.398	105.83
802.574	109.49
802.75	111.13
802.926	109.29
803.103	107.16
803.279	106.59
803.455	105.11
803.631	104.09
803.807	104.94
803.983	102.37
804.16	102.42
804.336	102.19
804.512	99.51
804.688	95.02
804.864	93.38
805.04	92.5
805.216	93.71
805.392	97.06
805.568	96.2
805.744	97.02
805.92	97.59
806.096	102.37
806.272	108.71
806.448	110.55
806.623	115.75
806.799	119.01
806.975	117.16
807.151	115.14
807.327	109.89
807.503	113.96
807.678	111.55
807.854	111.36
808.03	105.17
808.206	98.72
808.381	93.46
808.557	90.54
808.733	91.97
808.908	91.54
809.084	92.76
809.26	93.27
809.435	90.56
809.611	91.46
809.787	93.12
809.962	92.09
810.138	94.65
810.313	96.14
810.489	97.31
810.664	96.65
810.84	98.28
811.015	96.12
811.191	96.76
811.366	98.92
811.542	100.74
811.717	100.88
811.892	107.08
812.068	104.16
812.243	104.26
812.419	104.95
812.594	109.66
812.769	107.81
812.944	110.28
813.12	110.13
813.295	111.2
813.47	108.48
813.645	105.01
813.821	100.93
813.996	98.9
814.171	101.1
814.346	101.05
814.521	97.1
814.697	99.55
814.872	97.42
815.047	98.36
815.222	96
815.397	96.65
815.572	99.43
815.747	98.77
815.922	105.03
816.097	103.28
816.272	100.61
816.447	100.9
816.622	99.12
816.797	99.36
816.972	99.92
817.147	98.08
817.322	99.48
817.496	97.32
817.671	97.52
817.846	97.96
818.021	99.06
818.196	98.34
818.371	96.78
818.545	97.95
818.72	96.05
818.895	93.13
819.069	94.26
819.244	91.22
819.419	90.33
819.594	87.76
819.768	83.61
819.943	81.38
820.117	81.16
820.292	78.99
820.467	77.77
820.641	75.58
820.816	75.1
820.99	73.78
821.165	71.74
821.339	69.99
821.514	69.61
821.688	68.72
821.863	68.01
822.037	68.27
822.212	68.1
822.386	66.77
822.56	66.87
822.735	66.56
822.909	66.68
823.084	67.12
823.258	67.79
823.432	67.2
823.606	68
823.781	68.77
823.955	68.78
824.129	69.74
824.303	71.95
824.478	71.1
824.652	71.35
824.826	72.46
825	73.75
825.174	73.74
825.348	75
825.523	73.74
825.697	74.28
825.871	73.82
826.045	74.85
826.219	73.68
826.393	75.02
826.567	75.02
826.741	74.27
826.915	74.72
827.089	75.89
827.263	76.36
827.437	79.12
827.611	79.61
827.784	81.54
827.958	80.4
828.132	81.32
828.306	84.22
828.48	85.28
828.654	86.7
828.827	86.56
829.001	86.53
829.175	87.37
829.349	87.04
829.522	87.27
829.696	89.11
829.87	90.32
830.044	90.14
830.217	88.24
830.391	88.08
830.565	90.02
830.738	89.48
830.912	92.36
831.085	93.09
831.259	94.15
831.432	93.3
831.606	89.44
831.779	89.82
831.953	91.05
832.126	91.86
832.3	92.48
832.473	89.28
832.647	90.12
832.82	86.94
832.994	85.78
833.167	84.43
833.34	86.02
833.514	84.92
833.687	85.25
833.86	84.53
834.034	85.95
834.207	85.88
834.38	87.85
834.553	88.8
834.727	92.3
834.9	93.9
835.073	93.43
835.246	92.03
835.419	94.47
835.593	94.5
835.766	94.01
835.939	93.95
836.112	95.37
836.285	94.41
836.458	90.81
836.631	89.43
836.804	87.58
836.977	91.18
837.15	97.11
837.323	97.7
837.496	98.95
837.669	100.1
837.842	104.07
838.015	99.89
838.188	99.93
838.361	100.64
838.533	103.73
838.706	107.57
838.879	110.52
839.052	103.77
839.225	103.68
839.398	102.59
839.57	103.05
839.743	98.6
839.916	102.33
840.088	99.92
840.261	103.51
840.434	99.76
840.607	98.4
840.779	95.48
840.952	99.6
841.124	100.58
841.297	97.8
841.47	98.12
841.642	97.34
841.815	98.64
841.987	101.45
842.16	102.06
842.332	105.46
842.505	106.41
842.677	108.58
842.85	105.22
843.022	105.58
843.194	111.73
843.367	115.9
843.539	115.62
843.712	113.43
843.884	110.92
844.056	113.08
844.229	112.81
844.401	111.67
844.573	107.9
844.745	108.33
844.918	108.19
845.09	107.7
845.262	102.28
845.434	104.81
845.606	108.09
845.779	108.91
845.951	106.25
846.123	105.33
846.295	108.98
846.467	107.88
846.639	102.34
846.811	100.47
846.983	100.14
847.155	100.67
847.327	101.12
847.499	98.29
847.671	98.95
847.843	98.37
848.015	93.72
848.187	93.4
848.359	98.39
848.531	102.72
848.703	100.8
848.875	104.03
849.047	107.26
849.218	105.19
849.39	101.76
849.562	103.46
849.734	108.62
849.905	111.9
850.077	108.56
850.249	104.18
850.421	102.58
850.592	105.43
850.764	100.57
850.936	100.56
851.107	97.28
851.279	103.05
851.451	103.45
851.622	99.26
851.794	101.78
851.965	105.1
852.137	102.99
852.308	107.64
852.48	110.54
852.651	112.89
852.823	112.29
852.994	115.26
853.166	116.76
853.337	123.76
853.509	121.44
853.68	115.53
853.851	115.21
854.023	119.67
854.194	117.18
854.365	114.48
854.537	113.72
854.708	109.14
854.879	107.73
855.05	107.51
855.222	104.73
855.393	105.92
855.564	113.09
855.735	111.49
855.906	108.84
856.078	108.91
856.249	108.68
856.42	107.21
856.591	115.87
856.762	118.29
856.933	119.38
857.104	118.12
857.275	122.09
857.446	117.44
857.617	116.89
857.788	123.2
857.959	125.66
858.13	127.52
858.301	128.28
858.472	119.75
858.643	113.26
858.814	111.67
858.985	109.32
859.155	106.91
859.326	108.38
859.497	111.65
859.668	109.37
859.839	108.85
860.009	103.81
860.18	104.37
860.351	105.01
860.522	114.65
860.692	114.81
860.863	118.41
861.034	117.16
861.204	114.39
861.375	106.86
861.546	105
861.716	102.55
861.887	106.98
862.057	105.92
862.228	102.71
862.398	101.82
862.569	102.93
862.739	98.46
862.91	97.32
863.08	98.52
863.251	104.21
863.421	103.21
863.592	104.04
863.762	105.58
863.932	100.51
864.103	100.53
864.273	98.95
864.443	99.55
864.614	101.2
864.784	101.14
864.954	100.05
865.125	98.72
865.295	100.86
865.465	103.12
865.635	98.87
865.805	104.82
865.976	106.7
866.146	105.79
866.316	102.08
866.486	101.3
866.656	100.67
866.826	99.04
866.996	97.85
867.166	99.15
867.336	99.76
867.506	103.14
867.676	101.05
867.846	101.75
868.016	107.72
868.186	106.54
868.356	108.54
868.526	111.69
868.696	114.42
868.866	112.66
869.036	113.96
869.206	109.59
869.376	107.14
869.545	105.34
869.715	102.6
869.885	98.49
870.055	96.84
870.224	97.73
870.394	97.69
870.564	101.12
870.734	103.91
870.903	103.18
871.073	106.09
871.243	106.95
871.412	110.5
871.582	112.98
871.751	109.82
871.921	112.34
872.091	107.6
872.26	106.61
872.43	102.92
872.599	103.22
872.769	101.88
872.938	100.31
873.108	98.41
873.277	99.19
873.446	100.85
873.616	104.42
873.785	104.49
873.955	107.44
874.124	105.52
874.293	106.04
874.463	108.57
874.632	110.25
874.801	107.59
874.971	112.6
875.14	116.2
875.309	116.32
875.478	111.19
875.647	109.66
875.817	112.77
875.986	118.01
876.155	119.74
876.324	112.56
876.493	109.46
876.662	113.18
876.831	112.49
877	108.92
877.17	108.81
877.339	109.01
877.508	111.38
877.677	106.96
877.846	106.63
878.015	103.93
878.184	106.32
878.352	109.88
878.521	108.17
878.69	104.36
878.859	94.5
879.028	95.34
879.197	98.8
879.366	97.99
879.534	96.33
879.703	92.64
879.872	87.1
880.041	87.6
880.21	85.91
880.378	84.41
880.547	83.1
880.716	86.22
880.884	84.19
881.053	79.25
881.222	77.62
881.39	78.82
881.559	78.11
881.727	82.04
881.896	78.62
882.065	76.05
882.233	73.61
882.402	73.04
882.57	74.61
882.739	75.09
882.907	76.93
883.076	79.9
883.244	79.07
883.412	80.23
883.581	78.63
883.749	80.44
883.918	83.11
884.086	88.22
884.254	89.32
884.423	88.61
884.591	88.61
884.759	93.04
884.927	93.46
885.096	92.26
885.264	95.34
885.432	99.82
885.6	102.37
885.769	101.15
885.937	96.11
886.105	96.19
886.273	102.35
886.441	101.27
886.609	97.32
886.777	95.56
886.945	97.76
887.113	97.45
887.281	93.66
887.449	93.39
887.617	96.21
887.785	101.3
887.953	104.41
888.121	100.7
888.289	103.2
888.457	104.34
888.625	104.61
888.793	109.89
888.961	105.56
889.129	106.48
889.296	105.13
889.464	105.26
889.632	104.49
889.8	104.3
889.967	105.23
890.135	102.9
