Data from JASIL_2930_Reflection_1.txt Node
Date: Sat Nov 07 20:48:44 EST 2015
User: Geneva
Spectrometer: USB4E03002
Autoset integration time: false
Trigger mode: 4
Integration Time (sec): 1.000000E-1
Scans to average: 10
Electric dark correction enabled: true
Nonlinearity correction enabled: false
Boxcar width: 5
Stray light correction enabled: false
XAxis mode: Wavelengths
Stop averaging: false
Number of Pixels in Spectrum: 3648
>>>>>Begin Spectral Data<<<<<
177.575	-901.92
177.794	-101.38
178.014	-323.99
178.233	23.87
178.452	88.92
178.672	153.56
178.891	146.95
179.11	0
179.33	1071.08
179.549	-1398.46
179.768	481.67
179.987	-82.69
180.207	122.95
180.426	67.28
180.645	69.75
180.864	73.69
181.084	86.32
181.303	68.26
181.522	57.91
181.741	64.56
181.96	62.7
182.179	50.73
182.398	40.37
182.618	22.75
182.837	13.67
183.056	0.9
183.275	2.32
183.494	-8.87
183.713	13.57
183.932	8.81
184.151	-10.03
184.37	10.19
184.589	13.41
184.808	15.25
185.027	17.46
185.246	13.29
185.465	29.29
185.684	33.35
185.903	31.96
186.122	33.66
186.341	37.43
186.56	42.57
186.779	24.83
186.998	31.04
187.216	37.58
187.435	33.75
187.654	41.86
187.873	18.34
188.092	8.23
188.311	24.2
188.53	17.4
188.748	20.74
188.967	6.33
189.186	30.03
189.405	31.59
189.623	20.42
189.842	44.74
190.061	33.32
190.28	23.25
190.498	15.09
190.717	-1.86
190.936	-18.45
191.154	-62.21
191.373	-54.35
191.592	-81.12
191.81	-89.81
192.029	-65.89
192.248	-107
192.466	-53.84
192.685	-35.41
192.904	-20.71
193.122	-14.86
193.341	-13.85
193.559	13.01
193.778	11.08
193.996	22.46
194.215	23.23
194.433	20.62
194.652	18.34
194.87	18.5
195.089	23.58
195.307	29.74
195.526	34.12
195.744	41.2
195.963	38.17
196.181	40.32
196.399	21.25
196.618	34.99
196.836	25.63
197.055	29.31
197.273	31.88
197.491	49
197.71	44.43
197.928	32.36
198.146	32.14
198.365	34.28
198.583	23.79
198.801	48.94
199.019	30.03
199.238	41.83
199.456	30.38
199.674	19.74
199.892	10.11
200.111	0.9
200.329	25.94
200.547	32.9
200.765	20.63
200.983	13.7
201.202	12.96
201.42	30.64
201.638	17.14
201.856	27.82
202.074	40.27
202.292	42.57
202.51	38.15
202.728	25.57
202.946	6.83
203.165	16.99
203.383	17.55
203.601	10.35
203.819	9.98
204.037	18.13
204.255	21.86
204.473	21.44
204.691	12.07
204.909	5.82
205.127	21.78
205.345	30.78
205.562	26.34
205.78	30.6
205.998	36.91
206.216	33.45
206.434	33.94
206.652	33.16
206.87	26.81
207.088	26.43
207.306	29.52
207.523	28.84
207.741	25.19
207.959	25.26
208.177	15.04
208.395	-20.22
208.612	-43.48
208.83	-31.83
209.048	-22.13
209.266	-52.56
209.483	-61.63
209.701	-58.5
209.919	-64.23
210.136	-59.57
210.354	-22.27
210.572	-2.05
210.79	9.3
211.007	15.97
211.225	22.82
211.442	20.65
211.66	27.63
211.878	31.15
212.095	37.22
212.313	34.92
212.53	34.21
212.748	28.79
212.966	31.88
213.183	31.94
213.401	31
213.618	29.18
213.836	25.06
214.053	17.59
214.271	18.81
214.488	14.57
214.705	6.2
214.923	3.85
215.14	3.64
215.358	4.44
215.575	10.31
215.793	20.21
216.01	22.31
216.227	20.67
216.445	21.68
216.662	14.98
216.879	20.26
217.097	28.12
217.314	29.12
217.531	32.87
217.749	20.47
217.966	13.6
218.183	8.29
218.4	4.33
218.618	7.9
218.835	10.83
219.052	16.59
219.269	11.4
219.487	9.97
219.704	9.72
219.921	7.6
220.138	11.7
220.355	9.13
220.572	7.33
220.79	4.58
221.007	7.64
221.224	7.75
221.441	3.19
221.658	-0.91
221.875	-3.03
222.092	-6.41
222.309	-6.3
222.526	-9.58
222.743	-6.02
222.96	-5.86
223.177	-2.67
223.394	-4.27
223.611	-4.14
223.828	-2.69
224.045	3.93
224.262	7.39
224.479	7.58
224.696	9.37
224.913	12.1
225.13	13.18
225.347	12.2
225.564	9.33
225.781	8.12
225.997	10.12
226.214	9.72
226.431	9.5
226.648	8.82
226.865	9.03
227.082	8.22
227.298	8.74
227.515	8.3
227.732	7.95
227.949	8.43
228.165	8.62
228.382	7.44
228.599	7.63
228.816	7.15
229.032	6.54
229.249	6.69
229.466	6.7
229.682	6.09
229.899	6.03
230.116	6.86
230.332	7.6
230.549	9.26
230.765	10.68
230.982	10.93
231.199	10.67
231.415	11.39
231.632	11.34
231.848	11.54
232.065	11.62
232.281	11.85
232.498	10.94
232.714	10.34
232.931	8.31
233.147	8.56
233.364	7.83
233.58	8.74
233.797	8.98
234.013	9.44
234.23	8.95
234.446	9.17
234.662	9.44
234.879	9.92
235.095	9.58
235.312	10.72
235.528	10.42
235.744	10.1
235.961	10.22
236.177	10.33
236.393	10.01
236.61	10.14
236.826	9.36
237.042	8.7
237.258	8.15
237.475	8.76
237.691	7.42
237.907	7.11
238.123	8.09
238.339	7.43
238.556	7.88
238.772	7.45
238.988	7.71
239.204	8.16
239.42	8.12
239.636	8.73
239.853	8.42
240.069	8.68
240.285	8.78
240.501	8.74
240.717	8.96
240.933	8.57
241.149	8.68
241.365	9.11
241.581	9.01
241.797	8.81
242.013	8.54
242.229	8.93
242.445	8.89
242.661	8.53
242.877	8.67
243.093	8.75
243.309	8.79
243.525	8.56
243.741	8.14
243.957	8.46
244.173	8.93
244.388	9.1
244.604	8.74
244.82	8.77
245.036	8.8
245.252	8.6
245.468	8.49
245.683	8.72
245.899	8.82
246.115	8.58
246.331	8.48
246.547	8.26
246.762	8.16
246.978	8.08
247.194	7.89
247.409	8.01
247.625	7.87
247.841	7.55
248.057	7.22
248.272	7.11
248.488	7.2
248.703	7.05
248.919	6.87
249.135	6.85
249.35	6.84
249.566	6.63
249.782	6.27
249.997	6.68
250.213	6.94
250.428	7.31
250.644	7.17
250.859	7.02
251.075	7.05
251.29	7.13
251.506	6.91
251.721	6.81
251.937	6.97
252.152	7.07
252.368	6.91
252.583	6.84
252.798	6.17
253.014	5.88
253.229	6.34
253.445	6.18
253.66	6.49
253.875	6.39
254.091	5.64
254.306	5.62
254.521	5.44
254.737	5.75
254.952	5.34
255.167	5.93
255.383	6.73
255.598	6.58
255.813	6.08
256.028	5.97
256.244	6.31
256.459	6.31
256.674	6.74
256.889	6.71
257.104	6.48
257.32	6.76
257.535	6.7
257.75	6.33
257.965	6.21
258.18	6.38
258.395	6.35
258.61	6.07
258.826	6.31
259.041	6
259.256	6.01
259.471	5.97
259.686	5.98
259.901	6.02
260.116	6.18
260.331	6.05
260.546	6.02
260.761	6.06
260.976	6.15
261.191	6.09
261.406	6.1
261.621	6.03
261.836	5.8
262.05	5.71
262.265	5.25
262.48	4.9
262.695	5.07
262.91	5.18
263.125	4.94
263.34	5.34
263.555	5.44
263.769	5.62
263.984	5.51
264.199	5.73
264.414	5.86
264.629	5.91
264.843	5.82
265.058	5.66
265.273	5.73
265.488	5.92
265.702	5.78
265.917	5.79
266.132	5.95
266.346	6.11
266.561	5.9
266.776	5.63
266.99	5.78
267.205	5.84
267.42	5.69
267.634	5.61
267.849	5.57
268.063	5.3
268.278	4.96
268.492	4.93
268.707	4.82
268.922	4.75
269.136	4.93
269.351	4.66
269.565	4.97
269.78	4.97
269.994	4.66
270.209	4.5
270.423	4.89
270.637	5.07
270.852	4.95
271.066	4.91
271.281	5.1
271.495	5.16
271.709	5.3
271.924	4.87
272.138	4.83
272.353	5.13
272.567	4.98
272.781	4.75
272.996	4.72
273.21	4.83
273.424	4.77
273.638	4.73
273.853	4.59
274.067	4.45
274.281	4.82
274.495	4.88
274.71	4.62
274.924	4.75
275.138	4.73
275.352	4.6
275.566	4.58
275.781	4.86
275.995	4.94
276.209	4.84
276.423	4.87
276.637	4.45
276.851	4.42
277.065	4.53
277.279	4.71
277.493	4.79
277.707	4.68
277.921	4.54
278.135	4.63
278.349	4.56
278.563	4.42
278.777	4.46
278.991	4.99
279.205	5.41
279.419	5.51
279.633	5.35
279.847	5.3
280.061	5.48
280.275	5.55
280.489	5.46
280.703	5.43
280.917	5.59
281.131	5.71
281.344	5.47
281.558	5.1
281.772	4.99
281.986	4.94
282.2	4.86
282.414	4.87
282.627	4.84
282.841	4.69
283.055	4.7
283.269	4.69
283.482	4.59
283.696	4.38
283.91	4.56
284.123	4.44
284.337	4.39
284.551	4.47
284.764	4.43
284.978	4.53
285.192	4.54
285.405	4.59
285.619	4.68
285.833	4.46
286.046	4.68
286.26	4.69
286.473	4.69
286.687	4.81
286.9	4.78
287.114	4.8
287.327	4.92
287.541	4.94
287.754	4.87
287.968	4.62
288.181	4.78
288.395	4.87
288.608	4.77
288.822	4.76
289.035	4.92
289.248	4.93
289.462	5.19
289.675	5.06
289.889	5.07
290.102	5.23
290.315	5.37
290.529	5.43
290.742	5.31
290.955	5.3
291.169	5.48
291.382	5.27
291.595	5.29
291.808	5.08
292.022	4.97
292.235	4.8
292.448	4.9
292.661	4.88
292.875	5.08
293.088	5.1
293.301	5.14
293.514	5.09
293.727	5.26
293.94	5.4
294.153	5.41
294.367	5.46
294.58	5.54
294.793	5.3
295.006	5.24
295.219	5.36
295.432	5.33
295.645	5.51
295.858	5.43
296.071	5.48
296.284	5.31
296.497	5.26
296.71	5.32
296.923	5.34
297.136	5.51
297.349	5.73
297.562	5.62
297.775	5.72
297.988	5.66
298.201	5.82
298.414	5.63
298.626	5.82
298.839	5.79
299.052	5.75
299.265	5.63
299.478	5.49
299.691	5.18
299.903	5.14
300.116	5.05
300.329	4.9
300.542	4.92
300.755	5.06
300.967	5.18
301.18	5.25
301.393	5.18
301.605	5.31
301.818	5.21
302.031	5.43
302.243	5.43
302.456	5.71
302.669	5.7
302.881	5.68
303.094	5.74
303.307	5.7
303.519	5.85
303.732	6.11
303.944	6.33
304.157	6.36
304.37	6.55
304.582	6.68
304.795	6.38
305.007	6.54
305.22	6.69
305.432	6.57
305.645	6.64
305.857	6.7
306.069	6.56
306.282	6.38
306.494	6.6
306.707	6.43
306.919	6.37
307.132	6.33
307.344	6.22
307.556	6.21
307.769	6.39
307.981	6.36
308.193	6.49
308.406	6.35
308.618	6.46
308.83	6.19
309.043	6.3
309.255	6.34
309.467	6.46
309.679	6.6
309.892	6.63
310.104	6.61
310.316	6.57
310.528	6.4
310.74	6.68
310.953	6.83
311.165	7.17
311.377	7.01
311.589	7
311.801	7.01
312.013	7.12
312.225	7.01
312.437	7.14
312.649	7.2
312.862	7.28
313.074	7.15
313.286	7.01
313.498	6.93
313.71	7.31
313.922	7.26
314.134	7.5
314.346	7.41
314.558	7.49
314.77	7.36
314.982	7.16
315.193	7.18
315.405	7.15
315.617	7.11
315.829	7.1
316.041	7.06
316.253	7.07
316.465	6.91
316.677	6.81
316.888	6.95
317.1	7.06
317.312	7.54
317.524	7.61
317.736	7.79
317.947	7.95
318.159	8.1
318.371	8
318.583	8.15
318.794	8.24
319.006	8.54
319.218	8.43
319.43	8.24
319.641	8.04
319.853	8.16
320.064	8.33
320.276	8.53
320.488	8.51
320.699	8.69
320.911	8.69
321.123	9.17
321.334	9.25
321.546	9.55
321.757	9.69
321.969	9.91
322.18	10.03
322.392	9.81
322.603	9.67
322.815	9.96
323.026	9.96
323.238	9.98
323.449	9.88
323.661	9.92
323.872	9.92
324.083	10.1
324.295	10.18
324.506	10.18
324.718	10.45
324.929	10.85
325.14	10.82
325.352	11
325.563	11.4
325.774	11.47
325.986	11.61
326.197	11.85
326.408	12.19
326.62	12.31
326.831	12.8
327.042	13.02
327.253	13.11
327.464	13.41
327.676	13.43
327.887	13.62
328.098	13.73
328.309	13.9
328.52	14.02
328.732	14.34
328.943	14.66
329.154	14.76
329.365	14.7
329.576	14.91
329.787	14.99
329.998	15.37
330.209	15.43
330.42	15.75
330.631	15.78
330.842	16.01
331.053	15.9
331.264	15.86
331.475	15.79
331.686	16.19
331.897	16.31
332.108	16.36
332.319	16.39
332.53	16.45
332.741	16.45
332.952	16.68
333.163	16.9
333.374	17.17
333.585	17.21
333.795	17.35
334.006	17.36
334.217	17.26
334.428	17.45
334.639	17.52
334.849	17.59
335.06	17.7
335.271	17.78
335.482	17.69
335.692	17.6
335.903	17.64
336.114	17.51
336.325	17.72
336.535	17.8
336.746	17.63
336.957	17.61
337.167	17.57
337.378	17.59
337.589	17.58
337.799	17.66
338.01	17.72
338.22	17.81
338.431	17.89
338.642	17.7
338.852	17.5
339.063	17.6
339.273	17.75
339.484	17.82
339.694	17.7
339.905	17.6
340.115	17.24
340.326	17.02
340.536	17.08
340.746	17.16
340.957	17.07
341.167	17.28
341.378	17.31
341.588	17.23
341.799	17.16
342.009	17.16
342.219	17.37
342.43	17.52
342.64	17.61
342.85	17.38
343.061	17.34
343.271	17.47
343.481	17.46
343.691	17.36
343.902	17.26
344.112	17.42
344.322	17.6
344.532	17.47
344.743	17.53
344.953	17.47
345.163	17.51
345.373	17.52
345.583	17.5
345.793	17.44
346.004	17.4
346.214	17.57
346.424	17.53
346.634	17.37
346.844	17.42
347.054	17.43
347.264	17.66
347.474	17.66
347.684	17.56
347.894	17.57
348.104	17.49
348.314	17.6
348.524	17.53
348.734	17.44
348.944	17.54
349.154	17.41
349.364	17.31
349.574	16.99
349.784	16.97
349.994	17.12
350.204	16.93
350.413	16.86
350.623	16.9
350.833	16.79
351.043	16.74
351.253	16.74
351.463	16.84
351.672	16.83
351.882	17
352.092	17
352.302	16.94
352.511	16.99
352.721	17.01
352.931	16.95
353.141	16.88
353.35	16.9
353.56	16.79
353.77	16.79
353.979	16.94
354.189	16.88
354.399	16.97
354.608	16.82
354.818	16.85
355.027	16.97
355.237	16.92
355.447	17.06
355.656	17.05
355.866	17.13
356.075	16.9
356.285	16.8
356.494	16.79
356.704	16.75
356.913	16.83
357.123	16.7
357.332	16.65
357.542	16.69
357.751	16.54
357.96	16.43
358.17	16.35
358.379	16.47
358.589	16.35
358.798	16.38
359.007	16.39
359.217	16.27
359.426	16.34
359.635	16.27
359.845	16.24
360.054	16.23
360.263	16.17
360.472	16.08
360.682	16.06
360.891	16.11
361.1	16.05
361.309	15.95
361.519	15.93
361.728	16.03
361.937	16.03
362.146	15.94
362.355	15.88
362.564	15.89
362.774	15.93
362.983	15.87
363.192	15.82
363.401	15.77
363.61	15.76
363.819	15.82
364.028	15.66
364.237	15.55
364.446	15.58
364.655	15.61
364.864	15.61
365.073	15.57
365.282	15.58
365.491	15.56
365.7	15.52
365.909	15.56
366.118	15.63
366.327	15.68
366.536	15.75
366.745	15.63
366.954	15.54
367.162	15.6
367.371	15.55
367.58	15.5
367.789	15.43
367.998	15.35
368.207	15.38
368.415	15.24
368.624	15.08
368.833	15.06
369.042	15.11
369.25	15.18
369.459	15.18
369.668	15.16
369.877	15.11
370.085	15.18
370.294	15.11
370.503	15.06
370.711	14.98
370.92	14.89
371.129	14.82
371.337	14.83
371.546	14.69
371.754	14.56
371.963	14.64
372.171	14.61
372.38	14.55
372.589	14.66
372.797	14.56
373.006	14.64
373.214	14.54
373.423	14.56
373.631	14.54
373.84	14.67
374.048	14.64
374.256	14.43
374.465	14.39
374.673	14.22
374.882	14.1
375.09	14.11
375.298	14.04
375.507	14.16
375.715	14.06
375.923	13.95
376.132	13.81
376.34	13.64
376.548	13.64
376.757	13.68
376.965	13.81
377.173	13.92
377.381	13.82
377.59	13.76
377.798	13.71
378.006	13.68
378.214	13.69
378.423	13.75
378.631	13.87
378.839	13.83
379.047	13.76
379.255	13.55
379.463	13.47
379.671	13.34
379.879	13.21
380.088	13.21
380.296	13.22
380.504	13.21
380.712	13.2
380.92	13.29
381.128	13.25
381.336	13.26
381.544	13.41
381.752	13.26
381.96	13.38
382.168	13.42
382.376	13.39
382.584	13.34
382.791	13.31
382.999	13.14
383.207	13
383.415	13
383.623	12.97
383.831	12.89
384.039	12.98
384.247	12.98
384.454	13.04
384.662	13.02
384.87	12.93
385.078	12.96
385.285	13.16
385.493	13.14
385.701	13.13
385.909	13.02
386.116	12.96
386.324	13
386.532	12.9
386.739	12.78
386.947	12.72
387.155	12.69
387.362	12.66
387.57	12.51
387.778	12.51
387.985	12.58
388.193	12.56
388.4	12.64
388.608	12.41
388.816	12.33
389.023	12.37
389.231	12.26
389.438	12.27
389.646	12.1
389.853	12.04
390.061	11.99
390.268	11.9
390.475	11.91
390.683	11.75
390.89	11.84
391.098	11.91
391.305	11.83
391.512	11.82
391.72	11.88
391.927	11.9
392.135	11.83
392.342	11.89
392.549	11.81
392.756	11.8
392.964	11.81
393.171	11.75
393.378	11.71
393.586	11.75
393.793	11.76
394	11.67
394.207	11.68
394.414	11.73
394.622	11.64
394.829	11.66
395.036	11.56
395.243	11.56
395.45	11.58
395.657	11.5
395.864	11.39
396.072	11.47
396.279	11.49
396.486	11.43
396.693	11.37
396.9	11.44
397.107	11.29
397.314	11.31
397.521	11.24
397.728	11.25
397.935	11.27
398.142	11.26
398.349	11.16
398.556	11.11
398.763	11.14
398.97	11.1
399.177	11.05
399.383	11.12
399.59	11.06
399.797	11.03
400.004	10.91
400.211	10.88
400.418	10.85
400.625	10.86
400.831	10.82
401.038	10.79
401.245	10.75
401.452	10.62
401.658	10.65
401.865	10.69
402.072	10.74
402.279	10.78
402.485	10.76
402.692	10.71
402.899	10.65
403.105	10.72
403.312	10.64
403.519	10.64
403.725	10.74
403.932	10.76
404.138	10.75
404.345	10.68
404.552	10.63
404.758	10.67
404.965	10.7
405.171	10.73
405.378	10.6
405.584	10.68
405.791	10.68
405.997	10.63
406.204	10.51
406.41	10.48
406.617	10.51
406.823	10.52
407.029	10.51
407.236	10.52
407.442	10.43
407.649	10.61
407.855	10.66
408.061	10.64
408.268	10.58
408.474	10.64
408.68	10.66
408.887	10.58
409.093	10.58
409.299	10.5
409.505	10.48
409.712	10.57
409.918	10.43
410.124	10.34
410.33	10.34
410.537	10.35
410.743	10.36
410.949	10.38
411.155	10.44
411.361	10.42
411.567	10.43
411.773	10.35
411.98	10.29
412.186	10.3
412.392	10.26
412.598	10.25
412.804	10.25
413.01	10.13
413.216	10.05
413.422	10.08
413.628	10.12
413.834	10.12
414.04	10.14
414.246	10.09
414.452	9.99
414.658	10
414.864	9.98
415.07	9.96
415.275	10.01
415.481	10
415.687	9.83
415.893	9.74
416.099	9.71
416.305	9.75
416.511	9.74
416.716	9.74
416.922	9.72
417.128	9.7
417.334	9.71
417.539	9.69
417.745	9.69
417.951	9.74
418.157	9.78
418.362	9.79
418.568	9.77
418.774	9.77
418.979	9.79
419.185	9.82
419.391	9.87
419.596	9.81
419.802	9.82
420.008	9.78
420.213	9.76
420.419	9.73
420.624	9.72
420.83	9.71
421.035	9.72
421.241	9.72
421.446	9.74
421.652	9.71
421.857	9.71
422.063	9.66
422.268	9.69
422.474	9.72
422.679	9.73
422.885	9.75
423.09	9.74
423.295	9.69
423.501	9.67
423.706	9.61
423.911	9.59
424.117	9.57
424.322	9.59
424.527	9.59
424.733	9.57
424.938	9.59
425.143	9.53
425.349	9.5
425.554	9.52
425.759	9.52
425.964	9.5
426.169	9.5
426.375	9.52
426.58	9.51
426.785	9.5
426.99	9.46
427.195	9.37
427.4	9.37
427.605	9.39
427.811	9.44
428.016	9.43
428.221	9.49
428.426	9.45
428.631	9.4
428.836	9.39
429.041	9.39
429.246	9.47
429.451	9.55
429.656	9.57
429.861	9.56
430.066	9.53
430.271	9.49
430.476	9.46
430.681	9.46
430.886	9.48
431.09	9.57
431.295	9.54
431.5	9.51
431.705	9.51
431.91	9.5
432.115	9.52
432.32	9.5
432.524	9.56
432.729	9.51
432.934	9.53
433.139	9.55
433.343	9.52
433.548	9.57
433.753	9.6
433.958	9.6
434.162	9.59
434.367	9.56
434.572	9.58
434.776	9.59
434.981	9.66
435.186	9.6
435.39	9.6
435.595	9.6
435.799	9.51
436.004	9.44
436.209	9.38
436.413	9.38
436.618	9.4
436.822	9.39
437.027	9.37
437.231	9.33
437.436	9.32
437.64	9.3
437.845	9.26
438.049	9.25
438.253	9.25
438.458	9.27
438.662	9.29
438.867	9.28
439.071	9.31
439.275	9.32
439.48	9.35
439.684	9.36
439.888	9.37
440.093	9.37
440.297	9.4
440.501	9.42
440.706	9.43
440.91	9.46
441.114	9.45
441.318	9.45
441.523	9.44
441.727	9.39
441.931	9.47
442.135	9.43
442.339	9.45
442.543	9.44
442.748	9.4
442.952	9.35
443.156	9.3
443.36	9.31
443.564	9.29
443.768	9.24
443.972	9.26
444.176	9.2
444.38	9.21
444.584	9.18
444.788	9.15
444.992	9.18
445.196	9.18
445.4	9.21
445.604	9.17
445.808	9.15
446.012	9.16
446.216	9.11
446.42	9.07
446.624	9.09
446.828	9.07
447.032	9.05
447.235	9.05
447.439	9.09
447.643	9.06
447.847	9.11
448.051	9.11
448.254	9.13
448.458	9.15
448.662	9.19
448.866	9.14
449.069	9.15
449.273	9.21
449.477	9.18
449.681	9.14
449.884	9.13
450.088	9.08
450.292	9.06
450.495	9.08
450.699	9.14
450.902	9.14
451.106	9.18
451.31	9.19
451.513	9.18
451.717	9.15
451.92	9.16
452.124	9.09
452.327	9.13
452.531	9.16
452.734	9.15
452.938	9.11
453.141	9.1
453.345	9.16
453.548	9.16
453.752	9.16
453.955	9.21
454.158	9.16
454.362	9.19
454.565	9.13
454.769	9.08
454.972	9.06
455.175	9.07
455.379	9.08
455.582	9
455.785	8.96
455.988	8.96
456.192	8.91
456.395	8.93
456.598	8.97
456.801	9.01
457.005	9
457.208	8.97
457.411	8.97
457.614	8.97
457.817	8.97
458.021	8.95
458.224	8.95
458.427	8.94
458.63	8.97
458.833	8.96
459.036	8.95
459.239	8.97
459.442	9
459.645	9.01
459.848	8.99
460.051	8.96
460.254	8.99
460.457	8.99
460.66	9.02
460.863	9.02
461.066	9.03
461.269	9.04
461.472	9.05
461.675	9.06
461.878	9.1
462.081	9.1
462.284	9.18
462.486	9.18
462.689	9.18
462.892	9.22
463.095	9.21
463.298	9.21
463.5	9.22
463.703	9.18
463.906	9.14
464.109	9.13
464.311	9.21
464.514	9.21
464.717	9.2
464.92	9.2
465.122	9.19
465.325	9.21
465.528	9.22
465.73	9.21
465.933	9.26
466.135	9.28
466.338	9.26
466.541	9.24
466.743	9.18
466.946	9.21
467.148	9.2
467.351	9.19
467.553	9.19
467.756	9.18
467.958	9.23
468.161	9.22
468.363	9.12
468.566	9.1
468.768	9.04
468.971	9.07
469.173	9.04
469.375	9.03
469.578	9.08
469.78	9.02
469.983	9.05
470.185	9
470.387	9.01
470.59	9.11
470.792	9.12
470.994	9.14
471.196	9.15
471.399	9.14
471.601	9.17
471.803	9.11
472.005	9.16
472.208	9.15
472.41	9.12
472.612	9.09
472.814	9.09
473.016	9.09
473.218	9.09
473.421	9.07
473.623	9.11
473.825	9.11
474.027	9.17
474.229	9.15
474.431	9.15
474.633	9.19
474.835	9.19
475.037	9.17
475.239	9.2
475.441	9.22
475.643	9.21
475.845	9.17
476.047	9.19
476.249	9.14
476.451	9.15
476.653	9.13
476.855	9.16
477.057	9.16
477.258	9.15
477.46	9.14
477.662	9.14
477.864	9.15
478.066	9.17
478.268	9.2
478.469	9.22
478.671	9.18
478.873	9.11
479.075	9.04
479.276	9.04
479.478	9.03
479.68	8.98
479.882	8.99
480.083	9.01
480.285	9.04
480.487	8.98
480.688	8.94
480.89	8.96
481.091	8.97
481.293	9
481.495	9
481.696	9.01
481.898	9.01
482.099	8.99
482.301	8.95
482.502	8.95
482.704	8.96
482.905	8.96
483.107	8.95
483.308	8.97
483.51	8.97
483.711	8.98
483.913	8.98
484.114	8.98
484.315	8.99
484.517	9.01
484.718	9.01
484.92	9.02
485.121	9.01
485.322	9.02
485.524	9.01
485.725	9.02
485.926	9.01
486.127	9.03
486.329	9.03
486.53	9.02
486.731	9.01
486.932	8.98
487.134	8.97
487.335	8.99
487.536	8.99
487.737	9
487.938	8.99
488.139	8.98
488.341	8.96
488.542	8.94
488.743	8.94
488.944	8.96
489.145	8.97
489.346	8.99
489.547	9
489.748	8.99
489.949	9.01
490.15	9.03
490.351	9.05
490.552	9.04
490.753	9.05
490.954	9.05
491.155	9.01
491.356	9.01
491.557	9
491.758	9.01
491.959	9.03
492.159	9.01
492.36	9.03
492.561	9.04
492.762	9.08
492.963	9.08
493.164	9.1
493.364	9.15
493.565	9.17
493.766	9.22
493.967	9.23
494.167	9.2
494.368	9.24
494.569	9.21
494.769	9.21
494.97	9.19
495.171	9.21
495.371	9.25
495.572	9.28
495.773	9.3
495.973	9.29
496.174	9.28
496.375	9.29
496.575	9.32
496.776	9.34
496.976	9.34
497.177	9.38
497.377	9.37
497.578	9.4
497.778	9.41
497.979	9.44
498.179	9.47
498.38	9.45
498.58	9.48
498.78	9.48
498.981	9.51
499.181	9.56
499.382	9.55
499.582	9.6
499.782	9.6
499.983	9.59
500.183	9.58
500.383	9.6
500.584	9.62
500.784	9.65
500.984	9.67
501.184	9.65
501.385	9.65
501.585	9.66
501.785	9.67
501.985	9.65
502.185	9.69
502.386	9.72
502.586	9.76
502.786	9.82
502.986	9.83
503.186	9.8
503.386	9.83
503.586	9.83
503.786	9.82
503.987	9.86
504.187	9.91
504.387	9.95
504.587	9.98
504.787	9.98
504.987	9.97
505.187	9.98
505.387	10
505.587	10.03
505.786	10.11
505.986	10.15
506.186	10.15
506.386	10.14
506.586	10.16
506.786	10.19
506.986	10.19
507.186	10.2
507.386	10.24
507.585	10.29
507.785	10.29
507.985	10.29
508.185	10.33
508.384	10.39
508.584	10.44
508.784	10.47
508.984	10.5
509.183	10.54
509.383	10.64
509.583	10.67
509.782	10.73
509.982	10.77
510.182	10.77
510.381	10.81
510.581	10.85
510.781	10.87
510.98	10.89
511.18	10.86
511.379	10.88
511.579	10.92
511.778	10.97
511.978	11
512.177	11.05
512.377	11.1
512.576	11.15
512.776	11.17
512.975	11.2
513.175	11.25
513.374	11.35
513.573	11.38
513.773	11.39
513.972	11.4
514.172	11.42
514.371	11.46
514.57	11.51
514.77	11.58
514.969	11.63
515.168	11.69
515.367	11.73
515.567	11.73
515.766	11.81
515.965	11.87
516.164	11.95
516.364	12.04
516.563	12.11
516.762	12.16
516.961	12.18
517.16	12.22
517.359	12.26
517.559	12.31
517.758	12.41
517.957	12.45
518.156	12.49
518.355	12.51
518.554	12.51
518.753	12.52
518.952	12.59
519.151	12.63
519.35	12.71
519.549	12.75
519.748	12.78
519.947	12.8
520.146	12.86
520.345	12.88
520.544	12.96
520.743	13.05
520.942	13.12
521.141	13.14
521.339	13.15
521.538	13.19
521.737	13.23
521.936	13.28
522.135	13.32
522.333	13.35
522.532	13.39
522.731	13.45
522.93	13.42
523.129	13.49
523.327	13.5
523.526	13.57
523.725	13.62
523.923	13.69
524.122	13.73
524.321	13.78
524.519	13.82
524.718	13.85
524.917	13.86
525.115	13.93
525.314	14
525.512	14.08
525.711	14.14
525.909	14.16
526.108	14.19
526.306	14.2
526.505	14.24
526.703	14.29
526.902	14.34
527.1	14.36
527.299	14.38
527.497	14.37
527.696	14.41
527.894	14.41
528.092	14.42
528.291	14.44
528.489	14.5
528.688	14.53
528.886	14.56
529.084	14.6
529.283	14.63
529.481	14.7
529.679	14.73
529.877	14.76
530.076	14.82
530.274	14.9
530.472	14.96
530.67	15
530.869	15.04
531.067	15.08
531.265	15.09
531.463	15.14
531.661	15.14
531.859	15.19
532.057	15.23
532.255	15.26
532.454	15.25
532.652	15.26
532.85	15.25
533.048	15.27
533.246	15.27
533.444	15.32
533.642	15.35
533.84	15.42
534.038	15.46
534.236	15.5
534.434	15.55
534.632	15.62
534.83	15.65
535.027	15.74
535.225	15.77
535.423	15.84
535.621	15.86
535.819	15.88
536.017	15.89
536.215	15.92
536.412	15.93
536.61	15.92
536.808	15.9
537.006	15.93
537.203	15.97
537.401	16.03
537.599	16.06
537.797	16.1
537.994	16.13
538.192	16.17
538.39	16.21
538.587	16.24
538.785	16.32
538.983	16.38
539.18	16.43
539.378	16.44
539.575	16.44
539.773	16.47
539.97	16.49
540.168	16.51
540.366	16.52
540.563	16.54
540.761	16.54
540.958	16.57
541.155	16.59
541.353	16.61
541.55	16.63
541.748	16.68
541.945	16.7
542.143	16.72
542.34	16.75
542.537	16.77
542.735	16.8
542.932	16.84
543.129	16.85
543.327	16.88
543.524	16.9
543.721	16.93
543.919	16.94
544.116	16.97
544.313	17.03
544.51	17.04
544.708	17.08
544.905	17.07
545.102	17.08
545.299	17.08
545.496	17.08
545.693	17.11
545.891	17.12
546.088	17.13
546.285	17.13
546.482	17.12
546.679	17.15
546.876	17.18
547.073	17.24
547.27	17.32
547.467	17.37
547.664	17.42
547.861	17.45
548.058	17.49
548.255	17.52
548.452	17.58
548.649	17.62
548.846	17.63
549.043	17.58
549.24	17.59
549.437	17.56
549.633	17.57
549.83	17.57
550.027	17.54
550.224	17.54
550.421	17.55
550.618	17.53
550.814	17.55
551.011	17.56
551.208	17.7
551.405	17.72
551.601	17.78
551.798	17.79
551.995	17.79
552.191	17.83
552.388	17.83
552.585	17.91
552.781	17.95
552.978	17.98
553.175	17.99
553.371	17.95
553.568	17.98
553.764	17.96
553.961	17.98
554.157	18.05
554.354	18.13
554.55	18.22
554.747	18.17
554.943	18.17
555.14	18.22
555.336	18.3
555.533	18.3
555.729	18.34
555.926	18.37
556.122	18.34
556.318	18.37
556.515	18.31
556.711	18.32
556.907	18.39
557.104	18.44
557.3	18.41
557.496	18.4
557.693	18.42
557.889	18.41
558.085	18.45
558.281	18.53
558.478	18.52
558.674	18.57
558.87	18.54
559.066	18.55
559.262	18.56
559.459	18.6
559.655	18.59
559.851	18.63
560.047	18.62
560.243	18.65
560.439	18.67
560.635	18.67
560.831	18.62
561.027	18.69
561.223	18.7
561.419	18.76
561.615	18.79
561.811	18.78
562.007	18.76
562.203	18.83
562.399	18.82
562.595	18.82
562.791	18.79
562.987	18.88
563.183	18.85
563.379	18.87
563.575	18.87
563.771	18.88
563.966	18.93
564.162	18.94
564.358	18.97
564.554	19
564.75	19.11
564.945	19.16
565.141	19.19
565.337	19.19
565.533	19.18
565.728	19.19
565.924	19.17
566.12	19.23
566.315	19.32
566.511	19.27
566.707	19.27
566.902	19.21
567.098	19.17
567.293	19.18
567.489	19.22
567.684	19.22
567.88	19.17
568.076	19.21
568.271	19.15
568.467	19.07
568.662	19.13
568.858	19.12
569.053	19.14
569.248	19.21
569.444	19.17
569.639	19.17
569.835	19.2
570.03	19.28
570.225	19.27
570.421	19.32
570.616	19.38
570.812	19.4
571.007	19.42
571.202	19.44
571.397	19.4
571.593	19.46
571.788	19.52
571.983	19.55
572.178	19.56
572.374	19.57
572.569	19.61
572.764	19.63
572.959	19.61
573.154	19.65
573.35	19.68
573.545	19.68
573.74	19.67
573.935	19.62
574.13	19.64
574.325	19.63
574.52	19.6
574.715	19.57
574.91	19.56
575.105	19.62
575.3	19.62
575.495	19.58
575.69	19.67
575.885	19.7
576.08	19.7
576.275	19.68
576.47	19.73
576.665	19.81
576.86	19.85
577.055	19.89
577.25	19.9
577.444	19.95
577.639	20.01
577.834	20.01
578.029	20.07
578.224	20.1
578.418	20.17
578.613	20.12
578.808	20.16
579.003	20.21
579.197	20.18
579.392	20.16
579.587	20.15
579.781	20.15
579.976	20.12
580.171	20.11
580.365	20.09
580.56	20.04
580.755	20.1
580.949	20.08
581.144	20.01
581.338	20.07
581.533	20.03
581.727	19.99
581.922	19.97
582.116	20.03
582.311	19.97
582.505	20.01
582.7	20.07
582.894	20.03
583.089	20.02
583.283	20.04
583.478	20.02
583.672	20.08
583.866	20.16
584.061	20.17
584.255	20.15
584.449	20.19
584.644	20.22
584.838	20.21
585.032	20.25
585.226	20.26
585.421	20.25
585.615	20.29
585.809	20.27
586.003	20.22
586.198	20.32
586.392	20.33
586.586	20.39
586.78	20.37
586.974	20.32
587.168	20.35
587.363	20.41
587.557	20.46
587.751	20.4
587.945	20.39
588.139	20.35
588.333	20.25
588.527	20.28
588.721	20.26
588.915	20.31
589.109	20.32
589.303	20.23
589.497	20.18
589.691	20.15
589.885	20.18
590.079	20.21
590.273	20.27
590.466	20.27
590.66	20.23
590.854	20.26
591.048	20.22
591.242	20.29
591.436	20.37
591.629	20.44
591.823	20.49
592.017	20.53
592.211	20.55
592.404	20.55
592.598	20.54
592.792	20.59
592.986	20.57
593.179	20.57
593.373	20.54
593.567	20.52
593.76	20.48
593.954	20.38
594.147	20.36
594.341	20.35
594.535	20.34
594.728	20.42
594.922	20.41
595.115	20.38
595.309	20.4
595.502	20.42
595.696	20.37
595.889	20.36
596.083	20.42
596.276	20.37
596.47	20.34
596.663	20.35
596.856	20.28
597.05	20.29
597.243	20.25
597.437	20.3
597.63	20.32
597.823	20.41
598.017	20.41
598.21	20.34
598.403	20.43
598.596	20.46
598.79	20.48
598.983	20.54
599.176	20.53
599.369	20.64
599.563	20.57
599.756	20.51
599.949	20.46
600.142	20.43
600.335	20.48
600.528	20.44
600.722	20.44
600.915	20.42
601.108	20.46
601.301	20.55
601.494	20.53
601.687	20.58
601.88	20.59
602.073	20.56
602.266	20.65
602.459	20.67
602.652	20.67
602.845	20.75
603.038	20.8
603.231	20.71
603.424	20.65
603.617	20.6
603.809	20.56
604.002	20.62
604.195	20.66
604.388	20.67
604.581	20.64
604.774	20.65
604.966	20.62
605.159	20.56
605.352	20.65
605.545	20.73
605.737	20.78
605.93	20.77
606.123	20.73
606.316	20.73
606.508	20.74
606.701	20.82
606.894	20.9
607.086	20.88
607.279	20.89
607.471	20.9
607.664	20.83
607.857	20.86
608.049	20.95
608.242	21.02
608.434	20.99
608.627	21.03
608.819	20.99
609.012	20.93
609.204	20.92
609.397	21.02
609.589	21.06
609.782	21.1
609.974	21.15
610.166	21.22
610.359	21.24
610.551	21.28
610.743	21.26
610.936	21.34
611.128	21.43
611.32	21.51
611.513	21.48
611.705	21.46
611.897	21.44
612.09	21.36
612.282	21.29
612.474	21.25
612.666	21.3
612.858	21.27
613.051	21.25
613.243	21.1
613.435	21.1
613.627	21.07
613.819	21.05
614.011	21.04
614.203	21.04
614.395	20.96
614.588	20.98
614.78	20.94
614.972	20.99
615.164	20.93
615.356	20.99
615.548	21.01
615.74	21.03
615.932	21
616.124	21.04
616.315	21.05
616.507	21.07
616.699	21.04
616.891	21.03
617.083	21.07
617.275	21.18
617.467	21.13
617.659	21.04
617.85	20.99
618.042	21.01
618.234	20.97
618.426	20.99
618.618	21.04
618.809	21.08
619.001	21.12
619.193	21.08
619.384	20.97
619.576	21.07
619.768	21.12
619.959	21.17
620.151	21.15
620.343	21.2
620.534	21.16
620.726	21.06
620.917	21.07
621.109	21.04
621.301	21.07
621.492	21.07
621.684	21.03
621.875	20.97
622.067	20.96
622.258	21.02
622.45	21.02
622.641	21.12
622.832	21.18
623.024	21.24
623.215	21.19
623.407	21.18
623.598	21.24
623.789	21.25
623.981	21.32
624.172	21.3
624.363	21.25
624.555	21.24
624.746	21.18
624.937	21.26
625.129	21.16
625.32	21.19
625.511	21.18
625.702	21.16
625.893	21.2
626.085	21.23
626.276	21.22
626.467	21.22
626.658	21.26
626.849	21.29
627.04	21.26
627.231	21.27
627.422	21.34
627.614	21.35
627.805	21.38
627.996	21.34
628.187	21.3
628.378	21.31
628.569	21.37
628.76	21.35
628.951	21.33
629.142	21.28
629.332	21.28
629.523	21.33
629.714	21.35
629.905	21.35
630.096	21.34
630.287	21.32
630.478	21.37
630.669	21.34
630.859	21.37
631.05	21.44
631.241	21.47
631.432	21.46
631.623	21.4
631.813	21.36
632.004	21.31
632.195	21.37
632.385	21.29
632.576	21.29
632.767	21.29
632.957	21.34
633.148	21.28
633.339	21.25
633.529	21.29
633.72	21.27
633.91	21.2
634.101	21.3
634.292	21.23
634.482	21.3
634.673	21.3
634.863	21.29
635.054	21.18
635.244	21.13
635.435	21.19
635.625	21.15
635.815	21.12
636.006	21.14
636.196	21.12
636.387	21.15
636.577	21.11
636.767	21.13
636.958	21.15
637.148	21.1
637.338	21.12
637.529	21.18
637.719	21.16
637.909	21.16
638.099	21.27
638.29	21.27
638.48	21.39
638.67	21.42
638.86	21.41
639.05	21.38
639.241	21.54
639.431	21.58
639.621	21.43
639.811	21.52
640.001	21.47
640.191	21.47
640.381	21.41
640.571	21.26
640.761	21.35
640.951	21.33
641.141	21.36
641.331	21.32
641.521	21.26
641.711	21.35
641.901	21.27
642.091	21.35
642.281	21.37
642.471	21.33
642.661	21.39
642.851	21.36
643.041	21.36
643.231	21.33
643.42	21.33
643.61	21.28
643.8	21.23
643.99	21.27
644.18	21.31
644.369	21.3
644.559	21.41
644.749	21.39
644.939	21.29
645.128	21.3
645.318	21.22
645.508	21.23
645.697	21.25
645.887	21.28
646.076	21.41
646.266	21.41
646.456	21.41
646.645	21.33
646.835	21.37
647.024	21.49
647.214	21.52
647.403	21.55
647.593	21.54
647.782	21.69
647.972	21.64
648.161	21.47
648.351	21.42
648.54	21.33
648.73	21.33
648.919	21.34
649.108	21.28
649.298	21.23
649.487	21.27
649.677	21.29
649.866	21.26
650.055	21.37
650.244	21.43
650.434	21.4
650.623	21.53
650.812	21.51
651.002	21.42
651.191	21.43
651.38	21.45
651.569	21.49
651.758	21.51
651.947	21.47
652.137	21.42
652.326	21.33
652.515	21.38
652.704	21.36
652.893	21.46
653.082	21.56
653.271	21.63
653.46	21.7
653.649	21.67
653.838	21.63
654.027	21.65
654.216	21.59
654.405	21.71
654.594	21.68
654.783	21.58
654.972	21.55
655.161	21.51
655.35	21.46
655.539	21.37
655.728	21.37
655.916	21.29
656.105	21.29
656.294	21.28
656.483	21.17
656.672	21.3
656.86	21.3
657.049	21.34
657.238	21.31
657.427	21.39
657.615	21.45
657.804	21.46
657.993	21.51
658.181	21.52
658.37	21.56
658.559	21.65
658.747	21.56
658.936	21.64
659.125	21.5
659.313	21.57
659.502	21.41
659.69	21.4
659.879	21.42
660.067	21.45
660.256	21.43
660.444	21.54
660.633	21.55
660.821	21.51
661.01	21.52
661.198	21.71
661.387	21.75
661.575	21.92
661.763	21.97
661.952	21.97
662.14	21.98
662.328	22.01
662.517	21.88
662.705	21.82
662.893	21.94
663.082	21.83
663.27	21.75
663.458	21.67
663.646	21.66
663.834	21.67
664.023	21.56
664.211	21.56
664.399	21.54
664.587	21.56
664.775	21.55
664.963	21.51
665.152	21.49
665.34	21.49
665.528	21.46
665.716	21.39
665.904	21.32
666.092	21.38
666.28	21.53
666.468	21.65
666.656	21.65
666.844	21.74
667.032	21.83
667.22	21.88
667.408	21.89
667.596	21.93
667.784	22
667.971	21.98
668.159	22.04
668.347	21.9
668.535	21.79
668.723	21.74
668.911	21.67
669.098	21.61
669.286	21.6
669.474	21.72
669.662	21.63
669.849	21.64
670.037	21.7
670.225	21.67
670.413	21.67
670.6	21.72
670.788	21.75
670.976	21.83
671.163	21.73
671.351	21.71
671.538	21.58
671.726	21.78
671.913	21.7
672.101	21.66
672.289	21.79
672.476	21.88
672.664	21.88
672.851	21.89
673.039	21.76
673.226	21.77
673.413	21.82
673.601	21.91
673.788	21.85
673.976	21.89
674.163	21.85
674.35	21.76
674.538	21.67
674.725	21.65
674.912	21.62
675.1	21.71
675.287	21.83
675.474	21.94
675.662	21.9
675.849	21.88
676.036	21.95
676.223	22.04
676.411	21.95
676.598	22
676.785	22.04
676.972	22.11
677.159	22.18
677.346	22.25
677.533	22.16
677.721	22.17
677.908	22.17
678.095	22.13
678.282	22.07
678.469	22.23
678.656	22.17
678.843	22.16
679.03	22.16
679.217	22.19
679.404	22.02
679.591	22.05
679.778	22.02
679.964	21.98
680.151	21.99
680.338	22.04
680.525	22.01
680.712	21.98
680.899	21.92
681.086	21.95
681.272	21.84
681.459	21.97
681.646	21.95
681.833	22
682.02	22.01
682.206	21.94
682.393	21.9
682.58	21.81
682.766	21.93
682.953	21.83
683.14	21.74
683.326	21.81
683.513	21.84
683.7	21.86
683.886	21.79
684.073	21.73
684.259	21.74
684.446	21.65
684.632	21.73
684.819	21.64
685.005	21.83
685.192	21.92
685.378	21.88
685.565	21.69
685.751	21.64
685.938	21.67
686.124	21.75
686.31	21.78
686.497	21.88
686.683	21.86
686.87	21.94
687.056	21.85
687.242	21.77
687.429	21.71
687.615	21.68
687.801	21.8
687.987	21.74
688.174	21.74
688.36	21.71
688.546	21.71
688.732	21.65
688.918	21.61
689.105	21.57
689.291	21.58
689.477	21.64
689.663	21.79
689.849	21.68
690.035	21.77
690.221	21.75
690.407	21.64
690.593	21.74
690.779	21.89
690.965	21.95
691.151	22.09
691.337	22.32
691.523	22.35
691.709	22.38
691.895	22.33
692.081	22.22
692.267	22.39
692.453	22.45
692.639	22.34
692.825	22.2
693.011	22.19
693.196	22.01
693.382	21.83
693.568	21.7
693.754	21.61
693.94	21.65
694.125	21.68
694.311	21.56
694.497	21.83
694.682	21.84
694.868	21.97
695.054	21.94
695.239	22.02
695.425	21.98
695.611	22.15
695.796	22.22
695.982	22.24
696.168	22.29
696.353	22.31
696.539	22.25
696.724	22.18
696.91	22.13
697.095	22.13
697.281	22.13
697.466	22.2
697.652	22.03
697.837	22.06
698.023	22.08
698.208	22.18
698.393	22.21
698.579	22.13
698.764	22.18
698.949	22.15
699.135	22.09
699.32	22.18
699.505	22.17
699.691	22.28
699.876	22.26
700.061	22.19
700.246	22.15
700.432	22.03
700.617	22.05
700.802	22.16
700.987	22.19
701.172	22.24
701.358	22.08
701.543	22.04
701.728	22.11
701.913	22.04
702.098	22.22
702.283	22.17
702.468	22.24
702.653	22.11
702.838	22.2
703.023	22.3
703.208	22.36
703.393	22.54
703.578	22.45
703.763	22.43
703.948	22.5
704.133	22.25
704.318	22.18
704.503	22.44
704.688	22.62
704.873	22.35
705.057	22.46
705.242	22.35
705.427	22.22
705.612	22.33
705.797	22.32
705.981	22.26
706.166	22.51
706.351	22.45
706.536	22.27
706.72	22.2
706.905	22.11
707.09	21.93
707.274	22.03
707.459	21.94
707.644	21.88
707.828	21.93
708.013	22.02
708.197	22.03
708.382	22.08
708.567	21.91
708.751	21.76
708.936	21.9
709.12	21.98
709.305	21.87
709.489	22.14
709.673	22.12
709.858	21.97
710.042	21.99
710.227	21.79
710.411	21.65
710.596	21.8
710.78	21.93
710.964	21.99
711.149	21.94
711.333	22.14
711.517	22.06
711.702	22.18
711.886	22.29
712.07	22.15
712.254	22.3
712.438	22.48
712.623	22.46
712.807	22.61
712.991	22.48
713.175	22.5
713.359	22.37
713.544	22.34
713.728	22.4
713.912	22.35
714.096	22.44
714.28	22.26
714.464	22.22
714.648	22.28
714.832	22.17
715.016	22.2
715.2	22.06
715.384	21.99
715.568	21.97
715.752	21.91
715.936	21.97
716.12	21.91
716.304	21.94
716.488	21.97
716.671	21.92
716.855	21.88
717.039	21.98
717.223	22.21
717.407	22.17
717.59	22.04
717.774	22.16
717.958	22.24
718.142	22.35
718.325	22.46
718.509	22.39
718.693	22.36
718.877	22.37
719.06	22.3
719.244	21.96
719.428	21.96
719.611	22.26
719.795	21.95
719.978	21.92
720.162	21.9
720.345	21.82
720.529	21.84
720.713	21.72
720.896	21.74
721.08	21.74
721.263	21.83
721.446	21.8
721.63	21.61
721.813	21.69
721.997	21.68
722.18	21.8
722.364	22
722.547	21.97
722.73	21.96
722.914	21.95
723.097	21.9
723.28	22.18
723.464	22.29
723.647	22.44
723.83	22.49
724.013	22.39
724.197	22.22
724.38	22.25
724.563	22.07
724.746	22.38
724.929	22.55
725.112	22.55
725.296	22.52
725.479	22.44
725.662	22.33
725.845	22.17
726.028	22.23
726.211	22.36
726.394	22.19
726.577	22.63
726.76	22.34
726.943	22.26
727.126	22.2
727.309	22.1
727.492	22.3
727.675	22.34
727.858	22.24
728.041	22.22
728.224	22.04
728.407	21.96
728.589	21.68
728.772	21.81
728.955	21.85
729.138	21.93
729.321	22.08
729.503	22.18
729.686	22.07
729.869	22.24
730.052	22.26
730.234	22.27
730.417	22.4
730.6	22.51
730.782	22.39
730.965	22.28
731.148	22.33
731.33	22.21
731.513	22.04
731.695	22.07
731.878	22.2
732.061	22.32
732.243	22.34
732.426	22.45
732.608	22.57
732.791	22.51
732.973	22.51
733.156	22.52
733.338	22.54
733.52	22.56
733.703	22.53
733.885	22.5
734.068	22.27
734.25	22.32
734.432	22.33
734.615	22.24
734.797	22.39
734.979	22.45
735.162	22.26
735.344	22.22
735.526	22.14
735.708	22.26
735.891	22.37
736.073	22.56
736.255	22.49
736.437	22.47
736.619	22.46
736.802	22.36
736.984	22.4
737.166	22.74
737.348	22.51
737.53	22.48
737.712	22.42
737.894	22.31
738.076	22.04
738.258	21.92
738.44	21.75
738.622	21.64
738.804	21.6
738.986	21.38
739.168	21.32
739.35	21.62
739.532	21.61
739.714	21.43
739.896	21.49
740.078	21.65
740.259	22
740.441	21.92
740.623	21.99
740.805	22.22
740.987	22.51
741.168	22.22
741.35	21.99
741.532	22.13
741.714	22.22
741.895	22.02
742.077	22.06
742.259	21.77
742.44	21.77
742.622	21.63
742.804	21.5
742.985	21.03
743.167	21.51
743.348	21.79
743.53	21.83
743.711	21.78
743.893	21.75
744.075	21.53
744.256	21.65
744.438	21.72
744.619	21.68
744.8	21.6
744.982	21.93
745.163	21.62
745.345	21.37
745.526	21.46
745.707	21.53
745.889	21.67
746.07	21.86
746.252	21.92
746.433	22.03
746.614	22.26
746.795	22.48
746.977	22.46
747.158	22.58
747.339	22.58
747.52	22.53
747.702	22.55
747.883	22.54
748.064	22.31
748.245	21.97
748.426	21.85
748.607	21.71
748.788	21.49
748.97	21.38
749.151	21.59
749.332	21.7
749.513	21.71
749.694	22.15
749.875	22.13
750.056	22.33
750.237	22.58
750.418	22.4
750.599	22.26
750.78	22.42
750.96	22.56
751.141	22.41
751.322	22.63
751.503	22.43
751.684	22.12
751.865	22.26
752.046	22.4
752.226	22.57
752.407	22.78
752.588	22.93
752.769	23.1
752.949	22.93
753.13	22.66
753.311	22.56
753.492	22.25
753.672	21.93
753.853	21.48
754.034	21.53
754.214	21.5
754.395	21.33
754.575	21.5
754.756	21.01
754.937	20.9
755.117	21.1
755.298	20.86
755.478	21.19
755.659	21.76
755.839	21.95
756.02	21.76
756.2	21.53
756.381	21.45
756.561	21.25
756.741	21.83
756.922	22.02
757.102	21.96
757.283	22
757.463	21.76
757.643	21.4
757.823	21.27
758.004	21.26
758.184	21.47
758.364	21.79
758.545	21.79
758.725	21.52
758.905	21.57
759.085	21.55
759.265	21.41
759.446	21.52
759.626	21.8
759.806	22.08
759.986	21.96
760.166	21.65
760.346	21.67
760.526	21.97
760.706	22.08
760.886	22.12
761.066	22.06
761.246	22.2
761.426	22.32
761.606	21.83
761.786	21.7
761.966	22.04
762.146	22.21
762.326	22.09
762.506	21.91
762.686	21.94
762.866	21.9
763.046	21.97
763.225	22.03
763.405	21.85
763.585	22.14
763.765	22.09
763.945	22.04
764.124	21.96
764.304	21.98
764.484	22
764.664	21.72
764.843	21.73
765.023	21.88
765.203	21.8
765.382	21.99
765.562	21.95
765.741	22.35
765.921	22.14
766.101	22.16
766.28	21.99
766.46	22.12
766.639	22.3
766.819	22.03
766.998	21.9
767.178	21.86
767.357	21.96
767.537	21.59
767.716	21.12
767.896	21.01
768.075	21.04
768.254	21.22
768.434	21.15
768.613	20.93
768.792	21.19
768.972	21.01
769.151	21.05
769.33	21.3
769.51	21.65
769.689	21.56
769.868	21.81
770.047	22.16
770.226	22.54
770.406	22.21
770.585	22.69
770.764	22.48
770.943	22.94
771.122	23.11
771.301	22.92
771.48	23.13
771.66	23.3
771.839	23.29
772.018	22.81
772.197	22.74
772.376	22.98
772.555	23.09
772.734	23.58
772.913	23.21
773.092	22.9
773.271	22.78
773.449	22.89
773.628	22.98
773.807	22.88
773.986	22.79
774.165	22.63
774.344	22.64
774.523	22.48
774.701	22.12
774.88	22.06
775.059	22.04
775.238	22.51
775.417	21.94
775.595	22.03
775.774	22.46
775.953	23.04
776.131	22.62
776.31	22.91
776.489	22.97
776.667	23.11
776.846	23.1
777.025	23.16
777.203	22.64
777.382	23.07
777.56	22.73
777.739	22.51
777.917	22.02
778.096	22.17
778.274	21.87
778.453	21.6
778.631	21.11
778.81	20.79
778.988	20.96
779.166	20.94
779.345	20.94
779.523	21.11
779.702	21.07
779.88	21.44
780.058	21.5
780.237	21.81
780.415	22.25
780.593	23.2
780.771	23.29
780.95	23.03
781.128	23.05
781.306	23.01
781.484	23.3
781.662	23.01
781.841	22.96
782.019	23.05
782.197	22.99
782.375	22.5
782.553	22.19
782.731	22.42
782.909	22.65
783.087	22.76
783.265	22.56
783.443	22.35
783.621	22.11
783.799	22.07
783.977	22.42
784.155	22.11
784.333	22.21
784.511	22.22
784.689	22.29
784.867	22.74
785.045	22.16
785.223	22.08
785.4	21.78
785.578	22.18
785.756	22.15
785.934	21.78
786.112	21.76
786.289	21.72
786.467	21.53
786.645	21.91
786.823	21.62
787	22.23
787.178	22.68
787.356	22.96
787.533	23.18
787.711	23.24
787.889	23.5
788.066	23.65
788.244	23.82
788.421	23.72
788.599	23.36
788.776	23.17
788.954	23.19
789.131	22.58
789.309	22.33
789.486	21.91
789.664	21.91
789.841	21.79
790.019	21.35
790.196	21.33
790.373	21.14
790.551	20.59
790.728	20.88
790.906	20.63
791.083	20.59
791.26	20.57
791.437	20.39
791.615	20.28
791.792	20.3
791.969	20.45
792.146	20.11
792.324	20.52
792.501	21.08
792.678	20.8
792.855	20.69
793.032	20.8
793.209	20.73
793.387	21.38
793.564	21.17
793.741	21.1
793.918	21.28
794.095	21.61
794.272	21.83
794.449	21.72
794.626	21.98
794.803	21.73
794.98	21.63
795.157	21.79
795.334	21.64
795.511	21.87
795.688	21.69
795.864	22.09
796.041	22.44
796.218	22
796.395	21.83
796.572	21.85
796.749	22.64
796.925	22.97
797.102	23.21
797.279	23.33
797.456	23.53
797.632	23.85
797.809	23.64
797.986	23
798.162	23.32
798.339	23.63
798.516	23.65
798.692	23.57
798.869	23.92
799.046	24
799.222	23.68
799.399	23.5
799.575	23.42
799.752	22.64
799.928	22.87
800.105	22.21
800.281	22.08
800.458	22.01
800.634	21.62
800.811	21.26
800.987	20.69
801.163	20.35
801.34	19.77
801.516	19.33
801.692	19.94
801.869	20.03
802.045	20.55
802.221	20.47
802.398	20.06
802.574	20.12
802.75	20.13
802.926	20.54
803.103	20.83
803.279	21.53
803.455	21.99
803.631	22.27
803.807	21.57
803.983	21.73
804.16	21.54
804.336	21.33
804.512	21.43
804.688	22.68
804.864	23
805.04	23.21
805.216	23.09
805.392	22.47
805.568	22.31
805.744	23.48
805.92	23.1
806.096	23.17
806.272	23.46
806.448	23.01
806.623	21.04
806.799	21.05
806.975	20.9
807.151	21.29
807.327	21.61
807.503	21.67
807.678	20.95
807.854	21.39
808.03	21.91
808.206	21.57
808.381	21.94
808.557	22.54
808.733	22.09
808.908	22.3
809.084	21.6
809.26	21.1
809.435	20.85
809.611	20.51
809.787	20.25
809.962	19.49
810.138	20.02
810.313	19.91
810.489	19.93
810.664	19.92
810.84	19.29
811.015	19.69
811.191	19.59
811.366	19.67
811.542	19.82
811.717	19.93
811.892	20.95
812.068	20.91
812.243	20.71
812.419	20.49
812.594	20.86
812.769	21.74
812.944	21.57
813.12	21.71
813.295	22.22
813.47	22.27
813.645	22.05
813.821	21.58
813.996	21.4
814.171	21.23
814.346	21.31
814.521	21.12
814.697	20.33
814.872	19.98
815.047	20.59
815.222	19.81
815.397	20.07
815.572	20.37
815.747	20.95
815.922	20.51
816.097	21.16
816.272	21.29
816.447	20.93
816.622	21.43
816.797	21.15
816.972	21.28
817.147	22.25
817.322	22.09
817.496	22.23
817.671	22.14
817.846	22.06
818.021	21.26
818.196	21.34
818.371	21.81
818.545	21.83
818.72	22.41
818.895	22.12
819.069	21.98
819.244	22.45
819.419	22.44
819.594	22.44
819.768	22.78
819.943	23.16
820.117	22.99
820.292	22.81
820.467	22.57
820.641	22.7
820.816	22.62
820.99	22.55
821.165	22.35
821.339	22.34
821.514	22.26
821.688	22.19
821.863	22.2
822.037	22.21
822.212	22.25
822.386	22.28
822.56	22.08
822.735	22.08
822.909	22.04
823.084	21.96
823.258	21.97
823.432	21.91
823.606	21.97
823.781	21.84
823.955	21.72
824.129	21.54
824.303	21.57
824.478	21.71
824.652	21.67
824.826	21.59
825	21.92
825.174	21.83
825.348	21.76
825.523	21.94
825.697	21.62
825.871	21.97
826.045	22.11
826.219	22.2
826.393	22.31
826.567	22.45
826.741	22.56
826.915	22.49
827.089	22.6
827.263	22.83
827.437	22.56
827.611	22.97
827.784	22.71
827.958	22.77
828.132	22.77
828.306	22.66
828.48	22.46
828.654	22.32
828.827	22.03
829.001	21.74
829.175	21.48
829.349	21.65
829.522	21.6
829.696	21.57
829.87	21.08
830.044	21.27
830.217	21.15
830.391	21.19
830.565	21.65
830.738	22.08
830.912	21.99
831.085	22.19
831.259	22.72
831.432	22.53
831.606	22.28
831.779	22.96
831.953	22.48
832.126	22.41
832.3	22.6
832.473	22.38
832.647	22.18
832.82	22.21
832.994	22.2
833.167	21.65
833.34	21.61
833.514	21.81
833.687	21.69
833.86	21.71
834.034	21.56
834.207	21.44
834.38	21.17
834.553	21.11
834.727	21.1
834.9	21.15
835.073	20.89
835.246	21.04
835.419	21.16
835.593	21.1
835.766	21.02
835.939	21.01
836.112	21.05
836.285	21.04
836.458	21.3
836.631	20.87
836.804	20.17
836.977	20.68
837.15	20.3
837.323	19.86
837.496	18.84
837.669	19.01
837.842	19.47
838.015	19.39
838.188	19.07
838.361	18.92
838.533	19.36
838.706	19.33
838.879	19.08
839.052	19.02
839.225	19.27
839.398	20.15
839.57	19.26
839.743	18.94
839.916	19.62
840.088	19.98
840.261	20.44
840.434	20.97
840.607	20.42
840.779	20.74
840.952	21.01
841.124	20.84
841.297	21.09
841.47	21.57
841.642	21.03
841.815	20.47
841.987	20.09
842.16	19.35
842.332	18.77
842.505	19.18
842.677	20.15
842.85	19.91
843.022	19.94
843.194	20.1
843.367	22.52
843.539	24.69
843.712	24.7
843.884	25.1
844.056	24.87
844.229	25.14
844.401	26.94
844.573	25.86
844.745	25.45
844.918	25.63
845.09	24.8
845.262	22
845.434	22.65
845.606	21.72
845.779	21.92
845.951	23.7
846.123	23.87
846.295	23.63
846.467	24.82
846.639	25.35
846.811	24.37
846.983	23.73
847.155	23.5
847.327	22.89
847.499	22.71
847.671	22.34
847.843	20.42
848.015	19.31
848.187	18.78
848.359	15.18
848.531	15.11
848.703	16.8
848.875	20.22
849.047	20.4
849.218	19.29
849.39	19.58
849.562	20.59
849.734	19.7
849.905	21.43
850.077	20.63
850.249	22.21
850.421	23.43
850.592	21.02
850.764	19.24
850.936	19.62
851.107	19.47
851.279	19.39
851.451	19.3
851.622	20.02
851.794	18.98
851.965	19.2
852.137	19.66
852.308	16.01
852.48	17.41
852.651	15.27
852.823	14.6
852.994	14.29
853.166	15.59
853.337	16.77
853.509	17.07
853.68	17.79
853.851	20.01
854.023	19.89
854.194	22.08
854.365	21.12
854.537	22.16
854.708	23.68
854.879	24.26
855.05	22.99
855.222	22.41
855.393	22.43
855.564	20.61
855.735	16.94
855.906	17.49
856.078	16.47
856.249	20.23
856.42	20.1
856.591	19.44
856.762	19.52
856.933	18.64
857.104	15.39
857.275	16.92
857.446	18.38
857.617	19.85
857.788	20.66
857.959	20.7
858.13	19.52
858.301	17.62
858.472	17.1
858.643	15.36
858.814	17.9
858.985	19.72
859.155	19.01
859.326	18.55
859.497	20.09
859.668	16.72
859.839	17.02
860.009	17.72
860.18	17.93
860.351	19.58
860.522	21.77
860.692	23.08
860.863	22.2
861.034	21.26
861.204	19.27
861.375	15.53
861.546	18.96
861.716	17.57
861.887	13.15
862.057	14.76
862.228	13.19
862.398	10.54
862.569	10.09
862.739	11.99
862.91	13.61
863.08	18.52
863.251	19.05
863.421	17.07
863.592	18.16
863.762	18.79
863.932	18.61
864.103	17.18
864.273	16.99
864.443	16.47
864.614	14.78
864.784	14.36
864.954	12.93
865.125	15.14
865.295	17.52
865.465	16.68
865.635	19.09
865.805	20.11
865.976	19.55
866.146	22.07
866.316	19.83
866.486	20.36
866.656	20.22
866.826	16.78
866.996	16.17
867.166	15.68
867.336	18.5
867.506	19.13
867.676	18.64
867.846	19.11
868.016	18.28
868.186	15.23
868.356	16.39
868.526	16.91
868.696	18.66
868.866	18.67
869.036	17.19
869.206	16.91
869.376	16.65
869.545	16.3
869.715	17.54
869.885	16.18
870.055	21.24
870.224	20.67
870.394	21.57
870.564	23.01
870.734	22.11
870.903	21.72
871.073	21.83
871.243	21.94
871.412	22.59
871.582	24.43
871.751	24.91
871.921	21.01
872.091	19.22
872.26	18.68
872.43	16.09
872.599	18.35
872.769	18.5
872.938	16.83
873.108	15.89
873.277	14.01
873.446	14.8
873.616	14.47
873.785	17.62
873.955	20.5
874.124	19.03
874.293	21.12
874.463	18.29
874.632	18.5
874.801	18.09
874.971	18.69
875.14	21.46
875.309	16.88
875.478	17.61
875.647	17.18
875.817	15.64
875.986	13.21
876.155	11.32
876.324	13.38
876.493	15.61
876.662	17.55
876.831	17.01
877	15.77
877.17	19.39
877.339	21.92
877.508	25.15
877.677	25.69
877.846	27.94
878.015	28.3
878.184	27.94
878.352	26.7
878.521	25
878.69	24.55
878.859	26.7
879.028	26.6
879.197	26.23
879.366	24.64
879.534	24.43
879.703	23.02
879.872	23
880.041	23.85
880.21	23.25
880.378	23.79
880.547	23.89
880.716	23.17
880.884	22.8
881.053	22.42
881.222	22.06
881.39	22.06
881.559	22.53
881.727	22.48
881.896	21.99
882.065	22.01
882.233	22.06
882.402	22.05
882.57	21.71
882.739	21.67
882.907	21.67
883.076	21.84
883.244	21.65
883.412	21.64
883.581	21.64
883.749	21.97
883.918	22.17
884.086	22.24
884.254	21.77
884.423	21.92
884.591	22.3
884.759	22.07
884.927	22.33
885.096	22.19
885.264	22.46
885.432	22.46
885.6	20.86
885.769	20.11
885.937	17.99
886.105	17.38
886.273	17.25
886.441	17.22
886.609	16.31
886.777	14.09
886.945	14.17
887.113	14.65
887.281	13.62
887.449	15.74
887.617	14.82
887.785	17.45
887.953	18.6
888.121	18.45
888.289	17.57
888.457	18.2
888.625	20.12
888.793	20.67
888.961	17.08
889.129	17.6
889.296	16.91
889.464	18.48
889.632	16.83
889.8	16.56
889.967	15.96
890.135	16.19
