Data from JASIL_3203_Reflection_01.txt Node
Date: Fri Nov 13 14:32:51 EST 2015
User: Geneva
Spectrometer: USB4E03002
Autoset integration time: false
Trigger mode: 4
Integration Time (sec): 1.000000E-1
Scans to average: 10
Electric dark correction enabled: false
Nonlinearity correction enabled: false
Boxcar width: 5
Stray light correction enabled: false
XAxis mode: Wavelengths
Stop averaging: false
Number of Pixels in Spectrum: 3648
>>>>>Begin Spectral Data<<<<<
177.575	75.94
177.794	89.7
178.014	97.7
178.233	94.36
178.452	94.59
178.672	97.98
178.891	108.49
179.11	119.74
179.33	127.28
179.549	123.18
179.768	126.84
179.987	119.05
180.207	111.12
180.426	108.38
180.645	110.24
180.864	118.26
181.084	116.57
181.303	107.73
181.522	104.85
181.741	102.5
181.96	105.38
182.179	99.91
182.398	103.35
182.618	104.3
182.837	102.21
183.056	103.7
183.275	94.13
183.494	94.55
183.713	102.75
183.932	104.18
184.151	110.3
184.37	117.47
184.589	123.97
184.808	130.16
185.027	133.19
185.246	131.64
185.465	131.94
185.684	142.79
185.903	138.06
186.122	132.17
186.341	126.53
186.56	119.35
186.779	109.82
186.998	109.35
187.216	109.8
187.435	105.05
187.654	106.64
187.873	109.63
188.092	106.06
188.311	107.05
188.53	108.02
188.748	105.5
188.967	107.6
189.186	107.82
189.405	109.49
189.623	104.39
189.842	109.6
190.061	109.55
190.28	107.65
190.498	107.56
190.717	110.93
190.936	107.9
191.154	111.01
191.373	108.84
191.592	111.88
191.81	107.84
192.029	106.92
192.248	104.82
192.466	101.43
192.685	102.28
192.904	101.21
193.122	100.7
193.341	103.84
193.559	103.22
193.778	105.29
193.996	103.82
194.215	108.77
194.433	111.66
194.652	109.89
194.87	112.93
195.089	107.53
195.307	108.24
195.526	108.79
195.744	108.5
195.963	109.76
196.181	110.15
196.399	110.65
196.618	110.07
196.836	108.92
197.055	105.68
197.273	101.28
197.491	102.17
197.71	102.76
197.928	99.58
198.146	96.04
198.365	93.89
198.583	94.36
198.801	91.89
199.019	88.68
199.238	91.81
199.456	92.41
199.674	99.27
199.892	101.4
200.111	102.61
200.329	105.18
200.547	108.25
200.765	107.62
200.983	105.39
201.202	102.33
201.42	107.48
201.638	109.9
201.856	116.35
202.074	108.23
202.292	103.78
202.51	104.79
202.728	98.84
202.946	98.88
203.165	99.54
203.383	100.18
203.601	102.34
203.819	94.9
204.037	85.55
204.255	83.15
204.473	88.79
204.691	94.64
204.909	93.26
205.127	99.45
205.345	105.54
205.562	109.51
205.78	110.51
205.998	121.59
206.216	131.29
206.434	128.34
206.652	127.8
206.87	129.84
207.088	125.84
207.306	121.93
207.523	117.5
207.741	109.95
207.959	106.37
208.177	100.06
208.395	94.49
208.612	91.69
208.83	91.57
209.048	95.4
209.266	95.72
209.483	94.98
209.701	94.02
209.919	92.52
210.136	101.02
210.354	105.9
210.572	108.17
210.79	115.24
211.007	119.31
211.225	123.94
211.442	123.95
211.66	127.19
211.878	124.87
212.095	117.52
212.313	119.73
212.53	113.85
212.748	112.95
212.966	113.03
213.183	111.92
213.401	110.16
213.618	113.39
213.836	112.79
214.053	110.97
214.271	110.25
214.488	117.62
214.705	117.78
214.923	116.06
215.14	116.86
215.358	120.53
215.575	114.71
215.793	118.96
216.01	119.62
216.227	118.73
216.445	114.95
216.662	118.63
216.879	112.28
217.097	119.53
217.314	126.19
217.531	128.4
217.749	123.18
217.966	123.66
218.183	121.05
218.4	116.36
218.618	113.26
218.835	112.76
219.052	114.39
219.269	123.05
219.487	113.51
219.704	111.27
219.921	106.91
220.138	109.39
220.355	105.81
220.572	106.29
220.79	106.5
221.007	106.48
221.224	108.39
221.441	105.21
221.658	99.07
221.875	103.96
222.092	103.43
222.309	104.59
222.526	105.55
222.743	114.11
222.96	114.37
223.177	111.42
223.394	110.24
223.611	114.77
223.828	115.14
224.045	117.48
224.262	111.5
224.479	107.7
224.696	108.73
224.913	106.02
225.13	100.19
225.347	96.57
225.564	96.58
225.781	98.68
225.997	92
226.214	91.25
226.431	89.95
226.648	86.66
226.865	87.27
227.082	83.88
227.298	79.72
227.515	76.39
227.732	75.03
227.949	76
228.165	73.15
228.382	74.39
228.599	74.17
228.816	73.89
229.032	73.58
229.249	73.69
229.466	72.29
229.682	73.26
229.899	73.78
230.116	75.64
230.332	75.24
230.549	76.45
230.765	72.31
230.982	73.4
231.199	72.07
231.415	73.2
231.632	71.26
231.848	73.65
232.065	79.36
232.281	83.43
232.498	79.48
232.714	77.54
232.931	74.45
233.147	78.55
233.364	79.07
233.58	78.48
233.797	80.99
234.013	82.23
234.23	86.51
234.446	85.21
234.662	86.76
234.879	93.03
235.095	92.59
235.312	96.31
235.528	93.72
235.744	93.97
235.961	94.91
236.177	98.54
236.393	98.49
236.61	95.07
236.826	92.03
237.042	93.66
237.258	92.32
237.475	96.52
237.691	98.34
237.907	101.51
238.123	99.81
238.339	104.03
238.556	100.46
238.772	97.52
238.988	99.64
239.204	102.29
239.42	99.48
239.636	98.02
239.853	94.06
240.069	89.54
240.285	85.83
240.501	80.94
240.717	78.26
240.933	74.52
241.149	75.01
241.365	68.67
241.581	66.22
241.797	64.47
242.013	64.3
242.229	64.09
242.445	67.21
242.661	68.69
242.877	69.21
243.093	69.06
243.309	71.14
243.525	69.34
243.741	68.81
243.957	67.72
244.173	63.26
244.388	59.43
244.604	54.8
244.82	50.28
245.036	46.13
245.252	44.45
245.468	40.8
245.683	38.65
245.899	37.29
246.115	37.14
246.331	34.42
246.547	35.1
246.762	35.23
246.978	36.42
247.194	36.24
247.409	36.59
247.625	37.78
247.841	36.7
248.057	38.09
248.272	38.32
248.488	41.25
248.703	44.52
248.919	47.72
249.135	48.44
249.35	52.29
249.566	54.38
249.782	55.81
249.997	56.71
250.213	59.98
250.428	59.84
250.644	62.64
250.859	61.25
251.075	59.86
251.29	57.19
251.506	58.8
251.721	56.96
251.937	56.57
252.152	58.8
252.368	59.07
252.583	60.95
252.798	63.23
253.014	60.03
253.229	58.47
253.445	61.71
253.66	63.6
253.875	65.22
254.091	67.2
254.306	69.01
254.521	68.61
254.737	69.27
254.952	67.41
255.167	66.67
255.383	71.09
255.598	75.43
255.813	74.08
256.028	75.57
256.244	73.11
256.459	70.16
256.674	69.12
256.889	65.65
257.104	61.34
257.32	59.49
257.535	54.8
257.75	50.45
257.965	45.44
258.18	42.81
258.395	42.15
258.61	40.37
258.826	39.03
259.041	38.12
259.256	36.21
259.471	36.63
259.686	36.63
259.901	37.91
260.116	38.19
260.331	40.83
260.546	43.46
260.761	43.85
260.976	44.6
261.191	46.43
261.406	48.11
261.621	52.72
261.836	54.69
262.05	55.31
262.265	56.96
262.48	58.35
262.695	57.43
262.91	56.81
263.125	56.79
263.34	58.96
263.555	57.07
263.769	55.45
263.984	53.04
264.199	52.18
264.414	53.61
264.629	51.25
264.843	51.78
265.058	49.9
265.273	47.55
265.488	46.44
265.702	46.31
265.917	48.28
266.132	49.98
266.346	49.11
266.561	48.67
266.776	46.5
266.99	48.52
267.205	46.67
267.42	46.71
267.634	49.4
267.849	48.86
268.063	47.62
268.278	48.22
268.492	45.13
268.707	45.61
268.922	46.25
269.136	46.71
269.351	46.91
269.565	47.7
269.78	46.43
269.994	44.6
270.209	45.36
270.423	44.67
270.637	42.5
270.852	42.07
271.066	43.02
271.281	42.95
271.495	42.3
271.709	40.48
271.924	39.26
272.138	41.13
272.353	40.39
272.567	39.55
272.781	40.54
272.996	41.84
273.21	41.49
273.424	39.49
273.638	38.8
273.853	40.05
274.067	39.51
274.281	41.07
274.495	42.34
274.71	43.81
274.924	44.02
275.138	45.23
275.352	46.86
275.566	48.41
275.781	49.29
275.995	49.01
276.209	48.66
276.423	49.9
276.637	49.07
276.851	47.04
277.065	47.13
277.279	48.35
277.493	45.29
277.707	43.44
277.921	43.82
278.135	43.15
278.349	42.72
278.563	41.92
278.777	41.86
278.991	41.77
279.205	42.29
279.419	41.62
279.633	39.11
279.847	40.49
280.061	40.76
280.275	39.14
280.489	40.38
280.703	40.01
280.917	41.43
281.131	40.6
281.344	41.72
281.558	40.53
281.772	41.42
281.986	42.42
282.2	42.44
282.414	41.87
282.627	41.56
282.841	40.45
283.055	41.51
283.269	40.16
283.482	40.27
283.696	38.32
283.91	39.24
284.123	36.03
284.337	36.46
284.551	34.98
284.764	35.92
284.978	34.99
285.192	35.26
285.405	34.97
285.619	34.38
285.833	34.45
286.046	33.7
286.26	34.18
286.473	34.29
286.687	34.38
286.9	34.67
287.114	32.3
287.327	34.25
287.541	34.64
287.754	34.66
287.968	36.79
288.181	35.88
288.395	36.66
288.608	35.04
288.822	36.44
289.035	35.71
289.248	35
289.462	36.7
289.675	36.79
289.889	36.37
290.102	35.61
290.315	34.42
290.529	36.16
290.742	36.95
290.955	38.64
291.169	39.43
291.382	37.97
291.595	39.83
291.808	39.11
292.022	38.82
292.235	38.09
292.448	37.2
292.661	36.65
292.875	37.04
293.088	37.69
293.301	38.04
293.514	36.86
293.727	37.67
293.94	37.16
294.153	37.58
294.367	37.27
294.58	36.97
294.793	38.05
295.006	38.69
295.219	36.93
295.432	35.85
295.645	33.43
295.858	32.25
296.071	31.07
296.284	28.74
296.497	28.84
296.71	28.05
296.923	29.09
297.136	28.69
297.349	27.8
297.562	27.7
297.775	26.9
297.988	27.7
298.201	28.34
298.414	29.05
298.626	31.29
298.839	29.55
299.052	29.86
299.265	30.88
299.478	31.49
299.691	31.39
299.903	31.64
300.116	33.33
300.329	33.93
300.542	34.96
300.755	36.45
300.967	35.92
301.18	38.4
301.393	38.17
301.605	36.77
301.818	36.46
302.031	37.98
302.243	38.63
302.456	38.96
302.669	38.76
302.881	40.49
303.094	40.81
303.307	43.26
303.519	43.22
303.732	44.25
303.944	44.68
304.157	44.63
304.37	43.28
304.582	43.79
304.795	44.29
305.007	45.26
305.22	42.42
305.432	42.52
305.645	39.36
305.857	39.36
306.069	39.24
306.282	38.31
306.494	38.67
306.707	39.38
306.919	39.16
307.132	38
307.344	37.07
307.556	38.51
307.769	38.03
307.981	38.46
308.193	37.24
308.406	36.45
308.618	36.87
308.83	36.46
309.043	38.29
309.255	37.37
309.467	35.64
309.679	34.55
309.892	34.04
310.104	33.2
310.316	33.94
310.528	34.17
310.74	34.18
310.953	34.75
311.165	34.39
311.377	32.26
311.589	33.01
311.801	34.49
312.013	36.77
312.225	35.48
312.437	36.44
312.649	36.7
312.862	35.21
313.074	36.5
313.286	34.97
313.498	35.02
313.71	36.16
313.922	35.75
314.134	37
314.346	35.09
314.558	38.51
314.77	38.63
314.982	39.55
315.193	41.46
315.405	40.97
315.617	42.2
315.829	42.84
316.041	42.08
316.253	41.65
316.465	41.46
316.677	40.96
316.888	40.14
317.1	39.5
317.312	40.13
317.524	39.85
317.736	40.83
317.947	42.52
318.159	43.58
318.371	43.62
318.583	45.22
318.794	43.99
319.006	44.92
319.218	45.85
319.43	45.71
319.641	44.63
319.853	44.98
320.064	45.01
320.276	44.41
320.488	44.84
320.699	44.67
320.911	43.71
321.123	46.57
321.334	46.8
321.546	45.62
321.757	46.3
321.969	45.43
322.18	45.53
322.392	44.82
322.603	45.1
322.815	44.53
323.026	45.43
323.238	45.5
323.449	44.11
323.661	43.17
323.872	42.25
324.083	42.4
324.295	43.2
324.506	42.27
324.718	42.62
324.929	40.11
325.14	39.3
325.352	37.58
325.563	37.36
325.774	36.87
325.986	37.88
326.197	39.8
326.408	39.53
326.62	40.12
326.831	40.24
327.042	39.11
327.253	39.88
327.464	40.86
327.676	43.19
327.887	43.48
328.098	43.96
328.309	43.37
328.52	42.75
328.732	42.9
328.943	43.11
329.154	44.81
329.365	45.53
329.576	46.25
329.787	46.95
329.998	46.7
330.209	47.42
330.42	48.46
330.631	48.61
330.842	47.93
331.053	48.62
331.264	46.27
331.475	45.04
331.686	44.34
331.897	42.79
332.108	41.14
332.319	40.84
332.53	39.53
332.741	38.34
332.952	39.2
333.163	38.17
333.374	37.04
333.585	37.15
333.795	38.42
334.006	37.98
334.217	38.5
334.428	39.24
334.639	39.37
334.849	40.38
335.06	39.63
335.271	39.68
335.482	41.57
335.692	42.64
335.903	44.52
336.114	43.26
336.325	45.03
336.535	44.73
336.746	44.22
336.957	45.16
337.167	44.4
337.378	44.81
337.589	45
337.799	44.28
338.01	44.16
338.22	43.97
338.431	45.32
338.642	45.21
338.852	45.85
339.063	47.95
339.273	47.41
339.484	47.65
339.694	47.85
339.905	46.94
340.115	47.38
340.326	47.47
340.536	47.07
340.746	44.3
340.957	44.19
341.167	44.16
341.378	41.45
341.588	40.33
341.799	41.66
342.009	40.07
342.219	39.09
342.43	39.39
342.64	38.78
342.85	38.41
343.061	39
343.271	38.08
343.481	37.59
343.691	38.03
343.902	37.77
344.112	35.91
344.322	35.71
344.532	37.27
344.743	37.03
344.953	38.15
345.163	38.52
345.373	37.89
345.583	37.83
345.793	37.49
346.004	38.4
346.214	37.76
346.424	38.44
346.634	39.41
346.844	40.1
347.054	39.43
347.264	38.82
347.474	37.1
347.684	38.61
347.894	39.28
348.104	40.13
348.314	37.74
348.524	37.8
348.734	36.99
348.944	36.98
349.154	35.94
349.364	34.64
349.574	33
349.784	34.23
349.994	34.33
350.204	34.38
350.413	34.21
350.623	36.51
350.833	36.13
351.043	35.91
351.253	36.38
351.463	37.05
351.672	37.21
351.882	39.3
352.092	38.89
352.302	38.75
352.511	38.92
352.721	38.42
352.931	37.95
353.141	38.75
353.35	38.82
353.56	38.15
353.77	37.44
353.979	37.94
354.189	36.24
354.399	36.98
354.608	36.93
354.818	36.68
355.027	37.18
355.237	37.32
355.447	37.2
355.656	36.73
355.866	36.82
356.075	36.77
356.285	37.95
356.494	38.87
356.704	38.81
356.913	37.77
357.123	36.62
357.332	34.93
357.542	33.87
357.751	33.34
357.96	33.83
358.17	32.77
358.379	32.77
358.589	31.63
358.798	29.98
359.007	28.81
359.217	29.5
359.426	29.07
359.635	30.1
359.845	29.86
360.054	29.2
360.263	28.41
360.472	28.62
360.682	27.95
360.891	27.42
361.1	27.63
361.309	28.38
361.519	28.02
361.728	28.07
361.937	28.61
362.146	29.34
362.355	29.97
362.564	30.93
362.774	30.69
362.983	31.04
363.192	31.6
363.401	33.73
363.61	32.45
363.819	32.81
364.028	32.73
364.237	31.89
364.446	31.43
364.655	31.18
364.864	31.49
365.073	32.36
365.282	32.18
365.491	31.89
365.7	29.89
365.909	31.18
366.118	31.29
366.327	31.33
366.536	32.7
366.745	33.02
366.954	33.03
367.162	32.84
367.371	32.79
367.58	33.01
367.789	33.14
367.998	34.16
368.207	33.54
368.415	32.59
368.624	32.81
368.833	31.82
369.042	31.63
369.25	32.68
369.459	32.11
369.668	31.56
369.877	32.88
370.085	33.19
370.294	31.57
370.503	32.31
370.711	33.45
370.92	33.8
371.129	34.59
371.337	34.54
371.546	33.76
371.754	34.22
371.963	34.7
372.171	33.13
372.38	32.3
372.589	33.31
372.797	32.14
373.006	31.94
373.214	31.71
373.423	31.42
373.631	31.9
373.84	31.71
374.048	30.84
374.256	30.49
374.465	31.36
374.673	31.85
374.882	32.71
375.09	32.23
375.298	32.09
375.507	32.04
375.715	31.22
375.923	30.35
376.132	29.34
376.34	29.79
376.548	30.16
376.757	28.95
376.965	28.94
377.173	27.97
377.381	28.94
377.59	29.37
377.798	29.63
378.006	28.95
378.214	30.12
378.423	31.35
378.631	30.5
378.839	30.89
379.047	32.31
379.255	32.19
379.463	31.92
379.671	32.12
379.879	30.94
380.088	29.96
380.296	30.24
380.504	30.3
380.712	30.11
380.92	30.92
381.128	30.7
381.336	29.68
381.544	29.18
381.752	29.12
381.96	28.61
382.168	30.11
382.376	30.98
382.584	31.14
382.791	30.42
382.999	30.67
383.207	29.73
383.415	29.86
383.623	29.78
383.831	30.28
384.039	31.03
384.247	31.17
384.454	29.79
384.662	29.55
384.87	29.51
385.078	29.41
385.285	29.34
385.493	29.01
385.701	29
385.909	28.98
386.116	29.45
386.324	29.11
386.532	29.32
386.739	30.15
386.947	30.91
387.155	31.09
387.362	31.86
387.57	31.96
387.778	32.9
387.985	32.32
388.193	32
388.4	31.35
388.608	31.45
388.816	30.66
389.023	30.08
389.231	28.97
389.438	28.53
389.646	27.46
389.853	26.67
390.061	26.34
390.268	25.62
390.475	24.89
390.683	25.32
390.89	24.42
391.098	24.48
391.305	25
391.512	25.28
391.72	25.34
391.927	25.33
392.135	25.53
392.342	25.56
392.549	27.3
392.756	28.28
392.964	27.82
393.171	28.44
393.378	28.5
393.586	27.5
393.793	27.03
394	26.59
394.207	26.61
394.414	26.41
394.622	26.55
394.829	26.04
395.036	25.71
395.243	25.69
395.45	25.91
395.657	25.53
395.864	27.01
396.072	28.26
396.279	28.31
396.486	28.19
396.693	29.25
396.9	28.94
397.107	27.87
397.314	28.72
397.521	29.43
397.728	28.52
397.935	28.42
398.142	27.49
398.349	26.5
398.556	26.84
398.763	27.02
398.97	26.85
399.177	27.78
399.383	28
399.59	27.69
399.797	27.61
400.004	28.56
400.211	28.23
400.418	28.29
400.625	28.47
400.831	28.71
401.038	28.44
401.245	27.9
401.452	27.29
401.658	27.55
401.865	27.01
402.072	26.61
402.279	25.99
402.485	26.78
402.692	26.67
402.899	27.45
403.105	27.17
403.312	27.99
403.519	28.59
403.725	28.22
403.932	27.53
404.138	27.81
404.345	27.31
404.552	27.58
404.758	27.71
404.965	27.57
405.171	26.56
405.378	26.86
405.584	25.96
405.791	25.03
405.997	25.9
406.204	26.42
406.41	26.36
406.617	26.92
406.823	27.18
407.029	27.45
407.236	27.57
407.442	28.19
407.649	27.72
407.855	27.99
408.061	27.84
408.268	27.44
408.474	28.84
408.68	29.41
408.887	29.55
409.093	29.28
409.299	28.75
409.505	28.83
409.712	28.48
409.918	28.7
410.124	28.76
410.33	29.59
410.537	29.64
410.743	29.39
410.949	28.48
411.155	27.91
411.361	27.8
411.567	27.94
411.773	27.62
411.98	26.97
412.186	27.35
412.392	27.54
412.598	27.06
412.804	27.13
413.01	25.96
413.216	26.59
413.422	26.8
413.628	26.54
413.834	26.44
414.04	26.76
414.246	27.28
414.452	27.13
414.658	26.93
414.864	26.43
415.07	26.5
415.275	26.19
415.481	26.4
415.687	26.3
415.893	26.03
416.099	25.98
416.305	25.86
416.511	25.05
416.716	24
416.922	23.77
417.128	23.62
417.334	23.43
417.539	23.87
417.745	23.29
417.951	22.55
418.157	22.59
418.362	22.48
418.568	21.92
418.774	21.73
418.979	22.09
419.185	21.57
419.391	21.52
419.596	21.13
419.802	20.38
420.008	19.82
420.213	15.42
420.419	15.37
420.624	15.33
420.83	15.47
421.035	16.01
421.241	16.11
421.446	16.28
421.652	16.15
421.857	15.97
422.063	16.16
422.268	16.48
422.474	20.79
422.679	21.01
422.885	20.87
423.09	20.8
423.295	20.57
423.501	20.47
423.706	20.56
423.911	20.25
424.117	20.3
424.322	20.34
424.527	20.59
424.733	20.71
424.938	20.39
425.143	20.68
425.349	20.58
425.554	20.37
425.759	20.48
425.964	20.02
426.169	20.74
426.375	21.18
426.58	21.99
426.785	22.09
426.99	22.5
427.195	22.62
427.4	22.5
427.605	22.74
427.811	23.57
428.016	23.67
428.221	24.61
428.426	24.66
428.631	24.53
428.836	23.87
429.041	23.58
429.246	23.83
429.451	24.87
429.656	25.08
429.861	25.57
430.066	25.86
430.271	25.8
430.476	25.58
430.681	25.54
430.886	25.44
431.09	25.37
431.295	25.48
431.5	25.11
431.705	24.07
431.91	23.92
432.115	23.55
432.32	22.81
432.524	22
432.729	22.01
432.934	22.16
433.139	21.58
433.343	21.12
433.548	21.13
433.753	21.11
433.958	21.57
434.162	21.23
434.367	21.4
434.572	22.06
434.776	22.99
434.981	22.61
435.186	21.85
435.39	22.68
435.595	23.52
435.799	23.05
436.004	23.49
436.209	23.26
436.413	23.22
436.618	22.71
436.822	22.1
437.027	21.95
437.231	22.36
437.436	22.46
437.64	21.95
437.845	21.65
438.049	21.9
438.253	21.45
438.458	21.42
438.662	21.49
438.867	21.73
439.071	21.64
439.275	21.39
439.48	20.97
439.684	21.08
439.888	21.64
440.093	21.35
440.297	20.97
440.501	21.4
440.706	21.52
440.91	21.12
441.114	20.73
441.318	20.72
441.523	21.05
441.727	21.13
441.931	21.71
442.135	21.43
442.339	21.49
442.543	22.13
442.748	21.97
442.952	21.59
443.156	22.2
443.36	23.06
443.564	23.25
443.768	22.82
443.972	23.3
444.176	22.36
444.38	21.96
444.584	21.82
444.788	21.09
444.992	20.89
445.196	20.83
445.4	20.45
445.604	19.42
445.808	19.33
446.012	19.5
446.216	19.04
446.42	19.61
446.624	19.6
446.828	20.05
447.032	20.41
447.235	20.53
447.439	20.36
447.643	20.39
447.847	21
448.051	21.25
448.254	21.72
448.458	22.29
448.662	22.28
448.866	22.04
449.069	22.06
449.273	22.34
449.477	21.92
449.681	22.64
449.884	22.94
450.088	22.81
450.292	22.58
450.495	22.42
450.699	22.42
450.902	22.45
451.106	22.7
451.31	22.59
451.513	22.59
451.717	22.75
451.92	22
452.124	21.91
452.327	22.44
452.531	22.01
452.734	22.27
452.938	22.05
453.141	22.48
453.345	22.63
453.548	22.63
453.752	23.05
453.955	23
454.158	23.73
454.362	23.8
454.565	23.54
454.769	24.2
454.972	23.91
455.175	23.87
455.379	23.4
455.582	23.9
455.785	23.81
455.988	23.19
456.192	23.47
456.395	22.67
456.598	22.9
456.801	22.5
457.005	22.2
457.208	22.08
457.411	21.44
457.614	20.76
457.817	20.52
458.021	20.4
458.224	20.18
458.427	19.9
458.63	20.53
458.833	20.09
459.036	20.03
459.239	20.2
459.442	19.99
459.645	20.35
459.848	20.7
460.051	20.51
460.254	20.62
460.457	20.79
460.66	21.13
460.863	20.78
461.066	21.13
461.269	21.29
461.472	21.26
461.675	21.18
461.878	21.38
462.081	21.54
462.284	21.72
462.486	21.67
462.689	21.61
462.892	22.01
463.095	22.89
463.298	23.06
463.5	23.56
463.703	23.84
463.906	24.03
464.109	23.87
464.311	23.76
464.514	24.3
464.717	24.47
464.92	24.28
465.122	23.72
465.325	23.28
465.528	23.25
465.73	23.22
465.933	22.91
466.135	22.74
466.338	22.55
466.541	23.05
466.743	22.76
466.946	22.25
467.148	22.23
467.351	22.14
467.553	21.92
467.756	21.82
467.958	21.22
468.161	21.56
468.363	21.89
468.566	22.15
468.768	21.92
468.971	21.69
469.173	22.45
469.375	23.03
469.578	23.39
469.78	23.55
469.983	23.92
470.185	24.39
470.387	23.85
470.59	24.06
470.792	23.82
470.994	23.78
471.196	24.12
471.399	24.02
471.601	23.95
471.803	22.94
472.005	22.8
472.208	21.87
472.41	22.1
472.612	22.35
472.814	21.86
473.016	22.29
473.218	21.92
473.421	21.37
473.623	21
473.825	21.15
474.027	22.09
474.229	22.17
474.431	22.9
474.633	22.49
474.835	22.83
475.037	22.59
475.239	22.61
475.441	22.99
475.643	23.13
475.845	22.93
476.047	22.41
476.249	22.07
476.451	22.67
476.653	22.44
476.855	22.39
477.057	22.37
477.258	22.48
477.46	22.37
477.662	22.29
477.864	22.25
478.066	22.24
478.268	22.15
478.469	22.29
478.671	21.53
478.873	21.23
479.075	21.43
479.276	21.18
479.478	21.44
479.68	21.07
479.882	20.92
480.083	20.72
480.285	20.45
480.487	20.7
480.688	20.35
480.89	20.05
481.091	19.81
481.293	19.19
481.495	18.61
481.696	18.16
481.898	17.92
482.099	17.44
482.301	17.43
482.502	17.27
482.704	16.79
482.905	16.54
483.107	16.4
483.308	16.24
483.51	15.94
483.711	15.82
483.913	15.63
484.114	15.64
484.315	15.58
484.517	15.49
484.718	15.56
484.92	15.48
485.121	15.58
485.322	15.77
485.524	15.94
485.725	16.36
485.926	16.51
486.127	16.53
486.329	16.63
486.53	16.66
486.731	16.62
486.932	16.42
487.134	16.45
487.335	16.44
487.536	16.34
487.737	16.28
487.938	16.34
488.139	16.39
488.341	16.56
488.542	16.51
488.743	16.86
488.944	16.92
489.145	16.92
489.346	17.38
489.547	17.37
489.748	17.46
489.949	17.61
490.15	17.73
490.351	17.62
490.552	17.61
490.753	17.24
490.954	17.14
491.155	17.13
491.356	17.3
491.557	17.23
491.758	17.31
491.959	17.38
492.159	17.36
492.36	17.54
492.561	17.8
492.762	18.05
492.963	18.83
493.164	19
493.364	19.28
493.565	19.65
493.766	19.99
493.967	20.48
494.167	20.41
494.368	20.61
494.569	20.21
494.769	20.2
494.97	20.5
495.171	20.45
495.371	20.43
495.572	20.55
495.773	20.44
495.973	20.05
496.174	19.72
496.375	19.66
496.575	19.56
496.776	19.8
496.976	19.93
497.177	19.72
497.377	19.74
497.578	19.81
497.778	19.46
497.979	19.67
498.179	19.83
498.38	20.04
498.58	20.54
498.78	20.92
498.981	20.81
499.181	21.02
499.382	21.15
499.582	21.26
499.782	21.73
499.983	22.45
500.183	22.58
500.383	22.98
500.584	22.89
500.784	22.46
500.984	22.03
501.184	22.39
501.385	22.33
501.585	22.36
501.785	22.11
501.985	21.89
502.185	21.32
502.386	21.19
502.586	20.64
502.786	20.75
502.986	20.64
503.186	21.04
503.386	21.25
503.586	21.17
503.786	20.88
503.987	20.69
504.187	20.53
504.387	20.94
504.587	21.09
504.787	21.72
504.987	22
505.187	22.16
505.387	21.92
505.587	21.48
505.786	21.64
505.986	22.01
506.186	22.01
506.386	22.21
506.586	22.06
506.786	21.65
506.986	21.21
507.186	21.11
507.386	21.3
507.585	20.91
507.785	21.16
507.985	21.02
508.185	21.07
508.384	21.7
508.584	21.56
508.784	21.5
508.984	21.67
509.183	21.6
509.383	21.69
509.583	22.14
509.782	22.41
509.982	22.1
510.182	22.23
510.381	21.91
510.581	21.61
510.781	21.69
510.98	21.73
511.18	22.14
511.379	22.15
511.579	21.78
511.778	21.39
511.978	21.86
512.177	22
512.377	21.83
512.576	22.33
512.776	22.79
512.975	22.71
513.175	22.74
513.374	22.44
513.573	23.09
513.773	23.4
513.972	23.33
514.172	23.6
514.371	24.02
514.57	24.56
514.77	25.49
514.969	25
515.168	25.29
515.367	25.49
515.567	25.09
515.766	24.47
515.965	24.36
516.164	24.36
516.364	23.67
516.563	23.43
516.762	23.07
516.961	22.11
517.16	21.95
517.359	21.75
517.559	21.85
517.758	22.33
517.957	22.36
518.156	22.67
518.355	22.82
518.554	23.07
518.753	22.88
518.952	23.01
519.151	23.19
519.35	23.65
519.549	24.01
519.748	24.2
519.947	24.31
520.146	24.72
520.345	24.79
520.544	25.02
520.743	25.66
520.942	26.03
521.141	26.05
521.339	25.59
521.538	25.44
521.737	25.07
521.936	24.79
522.135	25.05
522.333	24.88
522.532	24.86
522.731	24.64
522.93	24.22
523.129	24.46
523.327	24.27
523.526	24.72
523.725	24.83
523.923	24.55
524.122	24.51
524.321	24.1
524.519	24.21
524.718	23.89
524.917	23.91
525.115	23.74
525.314	23.59
525.512	23.6
525.711	23.4
525.909	23.14
526.108	23.18
526.306	23.21
526.505	23.06
526.703	22.84
526.902	22.74
527.1	22.49
527.299	22.47
527.497	22.16
527.696	21.94
527.894	21.85
528.092	21.73
528.291	21.87
528.489	21.85
528.688	21.93
528.886	22.06
529.084	22.33
529.283	22.5
529.481	22.6
529.679	22.94
529.877	23.39
530.076	23.69
530.274	24.12
530.472	24.02
530.67	24.15
530.869	24.25
531.067	24.39
531.265	24.62
531.463	24.81
531.661	24.66
531.859	24.47
532.057	24.58
532.255	24.77
532.454	24.85
532.652	24.98
532.85	25
533.048	25.17
533.246	25.28
533.444	25.06
533.642	25.12
533.84	25.62
534.038	25.9
534.236	25.82
534.434	25.89
534.632	26
534.83	26.26
535.027	26.11
535.225	26.11
535.423	26.13
535.621	26.2
535.819	26
536.017	25.8
536.215	25.97
536.412	26.27
536.61	26.3
536.808	26.62
537.006	26.99
537.203	27.52
537.401	27.86
537.599	28.05
537.797	28.14
537.994	28.86
538.192	29.04
538.39	28.94
538.587	28.7
538.785	28.78
538.983	28.54
539.18	28.39
539.378	28.16
539.575	28.22
539.773	28.06
539.97	28.17
540.168	27.87
540.366	27.79
540.563	27.8
540.761	27.84
540.958	27.91
541.155	27.86
541.353	27.87
541.55	27.96
541.748	28.14
541.945	28.19
542.143	28.25
542.34	28.21
542.537	28.11
542.735	28.32
542.932	28.49
543.129	28.81
543.327	29.18
543.524	29.34
543.721	29.71
543.919	29.51
544.116	29.56
544.313	29.68
544.51	30.24
544.708	31.18
544.905	31.43
545.102	31.64
545.299	31.27
545.496	31.17
545.693	30.95
545.891	30.95
546.088	31.27
546.285	31.85
546.482	32.04
546.679	32.06
546.876	31.92
547.073	32.05
547.27	32.21
547.467	32.72
547.664	32.94
547.861	33.4
548.058	34.13
548.255	34.14
548.452	34.19
548.649	34.74
548.846	35.34
549.043	35.53
549.24	35.9
549.437	36.32
549.633	35.97
549.83	36.36
550.027	37.24
550.224	36.82
550.421	36.76
550.618	37.42
550.814	37.35
551.011	36.74
551.208	36.59
551.405	36.55
551.601	36.55
551.798	36.84
551.995	36.82
552.191	36.29
552.388	36.6
552.585	36.93
552.781	36.51
552.978	36.85
553.175	37.29
553.371	37.76
553.568	38.26
553.764	38.53
553.961	38.99
554.157	39.04
554.354	39.31
554.55	39.2
554.747	39.65
554.943	40.01
555.14	39.75
555.336	40.08
555.533	40.19
555.729	40.33
555.926	40.12
556.122	40.21
556.318	40.55
556.515	40.94
556.711	40.99
556.907	40.98
557.104	41.48
557.3	41.46
557.496	41.28
557.693	41.51
557.889	41.55
558.085	42.07
558.281	42.84
558.478	42.99
558.674	42.4
558.87	42.4
559.066	41.8
559.262	41.97
559.459	42.33
559.655	42.53
559.851	42.62
560.047	42.17
560.243	42.26
560.439	42.19
560.635	42.44
560.831	42.91
561.027	43.27
561.223	43.9
561.419	43.2
561.615	43.42
561.811	44.14
562.007	43.91
562.203	44.04
562.399	43.93
562.595	43.67
562.791	43.88
562.987	44.34
563.183	44.31
563.379	44.82
563.575	45.05
563.771	45.39
563.966	44.22
564.162	44.27
564.358	44.29
564.554	44.51
564.75	43.87
564.945	43.76
565.141	43.39
565.337	43.34
565.533	42.93
565.728	43.03
565.924	42.25
566.12	42.96
566.315	43.22
566.511	43.4
566.707	43.42
566.902	43.81
567.098	44.15
567.293	44.34
567.489	44.9
567.684	45.41
567.88	45.55
568.076	46.41
568.271	46.6
568.467	46.74
568.662	46.38
568.858	46.57
569.053	46.77
569.248	45.96
569.444	45.45
569.639	45.08
569.835	44.94
570.03	44.95
570.225	44.56
570.421	44.46
570.616	44.4
570.812	44.93
571.007	44.65
571.202	44.04
571.397	44.41
571.593	45.07
571.788	45.5
571.983	45.43
572.178	45.59
572.374	46.27
572.569	46.26
572.764	46.54
572.959	46.86
573.154	47.03
573.35	47.79
573.545	48.13
573.74	48
573.935	47.92
574.13	48.38
574.325	48.17
574.52	47.81
574.715	48.31
574.91	48.15
575.105	48.24
575.3	48.19
575.495	48.01
575.69	48.46
575.885	48.68
576.08	48.48
576.275	48.25
576.47	48.94
576.665	49.07
576.86	49.37
577.055	49.12
577.25	48.81
577.444	49.54
577.639	50.44
577.834	49.99
578.029	50.67
578.224	50.83
578.418	51.21
578.613	50.87
578.808	51.33
579.003	51.03
579.197	52
579.392	52.27
579.587	52.27
579.781	52.4
579.976	52.72
580.171	52.42
580.365	53.17
580.56	53.3
580.755	53.63
580.949	53.15
581.144	53.29
581.338	52.55
581.533	52.65
581.727	52.52
581.922	52.27
582.116	53.08
582.311	53.05
582.505	52.82
582.7	52.78
582.894	52.53
583.089	52.62
583.283	52.38
583.478	52.91
583.672	52.75
583.866	52.68
584.061	52.81
584.255	51.86
584.449	52.41
584.644	52.82
584.838	53.4
585.032	54.1
585.226	54.52
585.421	55.43
585.615	55.65
585.809	56.36
586.003	57.38
586.198	57.17
586.392	57.5
586.586	56.97
586.78	56.09
586.974	56.28
587.168	56.06
587.363	55.73
587.557	55.04
587.751	54.77
587.945	54.54
588.139	53.8
588.333	54.37
588.527	54.46
588.721	54.35
588.915	54.8
589.109	54.49
589.303	54.4
589.497	54.72
589.691	55.02
589.885	55.3
590.079	55.16
590.273	55.21
590.466	55.09
590.66	55.03
590.854	55.46
591.048	55.95
591.242	55.39
591.436	55.75
591.629	56.21
591.823	56.63
592.017	56.47
592.211	56.63
592.404	56.13
592.598	55.48
592.792	55.51
592.986	55.36
593.179	55.11
593.373	54.94
593.567	55.13
593.76	54.75
593.954	54.29
594.147	54.77
594.341	54.81
594.535	55.68
594.728	55.82
594.922	55.52
595.115	55.34
595.309	54.93
595.502	55.6
595.696	54.67
595.889	54.59
596.083	54.53
596.276	53.83
596.47	53.39
596.663	52.94
596.856	52.9
597.05	53.31
597.243	53.94
597.437	54.22
597.63	54.15
597.823	55.23
598.017	55.35
598.21	56.01
598.403	57.26
598.596	58.09
598.79	58.73
598.983	59.5
599.176	60.09
599.369	60.01
599.563	60.34
599.756	60.32
599.949	60.14
600.142	60.36
600.335	60.22
600.528	59.61
600.722	59.62
600.915	59.59
601.108	59.51
601.301	59.31
601.494	58.97
601.687	58.34
601.88	57.96
602.073	58.11
602.266	58.18
602.459	57.97
602.652	57.5
602.845	57.03
603.038	56.38
603.231	55.85
603.424	55.15
603.617	55.53
603.809	56.18
604.002	56.36
604.195	56.32
604.388	56.19
604.581	55.82
604.774	56.3
604.966	56.52
605.159	56.63
605.352	57.1
605.545	57.62
605.737	57.4
605.93	57.49
606.123	57.41
606.316	57.73
606.508	57.83
606.701	58.43
606.894	57.94
607.086	58.32
607.279	59.4
607.471	59.96
607.664	60.29
607.857	60.42
608.049	59.62
608.242	60.36
608.434	60.02
608.627	60.07
608.819	59.77
609.012	60.43
609.204	60.41
609.397	59.52
609.589	59.24
609.782	59.13
609.974	59.47
610.166	60.35
610.359	59.86
610.551	60.13
610.743	60.39
610.936	61.45
611.128	61.45
611.32	62.12
611.513	62.88
611.705	62.75
611.897	63.16
612.09	62.89
612.282	62.49
612.474	62.89
612.666	62.96
612.858	62.41
613.051	62.19
613.243	62.41
613.435	62.21
613.627	61.42
613.819	62.21
614.011	62.15
614.203	62.38
614.395	63.4
614.588	63.67
614.78	63.36
614.972	64.39
615.164	64.13
615.356	64.3
615.548	64.13
615.74	65.51
615.932	64.65
616.124	64.02
616.315	64.37
616.507	63.79
616.699	63.75
616.891	63.64
617.083	63
617.275	63.43
617.467	63.4
617.659	63.11
617.85	62.83
618.042	62.7
618.234	63.21
618.426	62.8
618.618	63.3
618.809	63.69
619.001	63.72
619.193	64.12
619.384	64.16
619.576	64.55
619.768	65.03
619.959	65.35
620.151	66.53
620.343	67.17
620.534	67.17
620.726	66.27
620.917	66.42
621.109	66.29
621.301	66.92
621.492	66.95
621.684	66.82
621.875	66.47
622.067	66.16
622.258	66.14
622.45	65.81
622.641	66.12
622.832	66.14
623.024	64.52
623.215	64.88
623.407	64.8
623.598	64.73
623.789	64.63
623.981	65.27
624.172	64.91
624.363	63.59
624.555	63.25
624.746	62.13
624.937	62.18
625.129	62.72
625.32	63.38
625.511	62.69
625.702	62.66
625.893	61.93
626.085	61.78
626.276	62.2
626.467	62.66
626.658	62.97
626.849	63.71
627.04	63.94
627.231	64.44
627.422	64.06
627.614	64.38
627.805	64.5
627.996	65.55
628.187	65.57
628.378	65.78
628.569	67.3
628.76	67.43
628.951	68.08
629.142	67.64
629.332	67.92
629.523	68.16
629.714	67.53
629.905	67.36
630.096	67
630.287	67
630.478	66.71
630.669	65.65
630.859	65.43
631.05	65.13
631.241	65.61
631.432	65.52
631.623	66.1
631.813	66.94
632.004	66.69
632.195	66.78
632.385	66.93
632.576	67.48
632.767	67.17
632.957	66.57
633.148	65.89
633.339	66.83
633.529	66.88
633.72	66.53
633.91	66.64
634.101	66.7
634.292	67.11
634.482	67.25
634.673	67.98
634.863	68.34
635.054	69.1
635.244	70.02
635.435	69.53
635.625	69.31
635.815	69.5
636.006	69.61
636.196	70.19
636.387	69.59
636.577	69.24
636.767	67.94
636.958	68.39
637.148	68.13
637.338	68.17
637.529	68.93
637.719	69.37
637.909	69.14
638.099	69.45
638.29	69.96
638.48	70.2
638.67	70.85
638.86	71.46
639.05	70.56
639.241	71.54
639.431	72.04
639.621	71.77
639.811	71.18
640.001	71.88
640.191	70.72
640.381	70.14
640.571	70.49
640.761	70.13
640.951	70.36
641.141	71.73
641.331	70.74
641.521	70.37
641.711	70.45
641.901	71.32
642.091	70.81
642.281	71.97
642.471	71.97
642.661	72.06
642.851	72.33
643.041	71.99
643.231	71.88
643.42	73.03
643.61	74.07
643.8	73.4
643.99	72.9
644.18	73.26
644.369	72.47
644.559	71.89
644.749	72.75
644.939	72.49
645.128	72.18
645.318	71.96
645.508	71.68
645.697	70.55
645.887	70.75
646.076	71.58
646.266	70.77
646.456	70.88
646.645	72.33
646.835	71.75
647.024	71.64
647.214	72.4
647.403	71.71
647.593	71.96
647.782	72.08
647.972	72.58
648.161	72.53
648.351	72.57
648.54	73.04
648.73	72.13
648.919	72.29
649.108	72.75
649.298	71.77
649.487	71.95
649.677	71.72
649.866	72.07
650.055	71.3
650.244	70.47
650.434	71.25
650.623	71.78
650.812	72.52
651.002	71.67
651.191	71.61
651.38	72.67
651.569	73.47
651.758	72.58
651.947	72.28
652.137	72.94
652.326	74.05
652.515	74.39
652.704	74.18
652.893	73.61
653.082	74.89
653.271	75.29
653.46	75.46
653.649	75.05
653.838	75.22
654.027	76.15
654.216	76.12
654.405	75.99
654.594	74.39
654.783	73.45
654.972	73.18
655.161	72.64
655.35	72.79
655.539	72.43
655.728	72.9
655.916	74.13
656.105	73.11
656.294	73.21
656.483	72.76
656.672	73.28
656.86	73.11
657.049	72.48
657.238	71.55
657.427	71.27
657.615	70.7
657.804	69.43
657.993	68.85
658.181	68.79
658.37	68.28
658.559	68.58
658.747	69.24
658.936	69.97
659.125	70.92
659.313	72.17
659.502	72.1
659.69	72.3
659.879	73.64
660.067	74.23
660.256	74.8
660.444	75.13
660.633	74.97
660.821	75.03
661.01	75.07
661.198	75.12
661.387	74.52
661.575	74.94
661.763	74.79
661.952	75.11
662.14	75.86
662.328	76.37
662.517	76.94
662.705	77.51
662.893	77.45
663.082	77.86
663.27	78.76
663.458	79.09
663.646	78.62
663.834	79.21
664.023	80.07
664.211	79.21
664.399	79.41
664.587	80.44
664.775	79.71
664.963	79.44
665.152	79.72
665.34	79.19
665.528	81.03
665.716	81.55
665.904	81.36
666.092	80
666.28	80.49
666.468	79.83
666.656	78.92
666.844	79.13
667.032	79.05
667.22	79.02
667.408	78.62
667.596	76.5
667.784	75.4
667.971	76.24
668.159	76.92
668.347	76.33
668.535	77.12
668.723	76.9
668.911	77.56
669.098	78.34
669.286	78.46
669.474	78.88
669.662	80.16
669.849	81.5
670.037	80.63
670.225	80.45
670.413	80.41
670.6	80.11
670.788	80.15
670.976	79.73
671.163	80.23
671.351	79.86
671.538	79.47
671.726	78.22
671.913	78.17
672.101	78.96
672.289	78.45
672.476	79.85
672.664	79.18
672.851	80.36
673.039	81.26
673.226	81.25
673.413	81.07
673.601	80.13
673.788	79.87
673.976	78.88
674.163	79.25
674.35	78.73
674.538	77.91
674.725	77.79
674.912	75.57
675.1	74.93
675.287	74.38
675.474	74.83
675.662	76.49
675.849	77.54
676.036	78.03
676.223	78.03
676.411	78.65
676.598	78.09
676.785	78.68
676.972	80.61
677.159	81.11
677.346	81.88
677.533	81.8
677.721	81.02
677.908	80.64
678.095	81.14
678.282	79.65
678.469	79.47
678.656	79.97
678.843	80.12
679.03	78.83
679.217	77.78
679.404	76.47
679.591	76.95
679.778	76.69
679.964	77.68
680.151	77.63
680.338	78.87
680.525	78.37
680.712	78.44
680.899	78.32
681.086	78.7
681.272	78.98
681.459	78.96
681.646	78.32
681.833	78.69
682.02	79.15
682.206	79.65
682.393	79.9
682.58	80.56
682.766	80.3
682.953	80.84
683.14	81.33
683.326	82.78
683.513	84.06
683.7	83.77
683.886	83.91
684.073	83.03
684.259	82.54
684.446	82.08
684.632	81.84
684.819	82.47
685.005	81.08
685.192	81.83
685.378	81.42
685.565	80.5
685.751	81.49
685.938	82.46
686.124	81.95
686.31	81.28
686.497	81.08
686.683	82.14
686.87	81.86
687.056	81.42
687.242	80.04
687.429	80.43
687.615	80.94
687.801	80.01
687.987	78.62
688.174	78.81
688.36	79.41
688.546	79.53
688.732	78.9
688.918	78.19
689.105	79.18
689.291	79.62
689.477	79.04
689.663	78.51
689.849	78.14
690.035	78.23
690.221	77.91
690.407	78.48
690.593	77.82
690.779	76.82
690.965	78.01
691.151	78.53
691.337	77.88
691.523	77.95
691.709	79.44
691.895	81.54
692.081	82.16
692.267	82.73
692.453	82.88
692.639	83.45
692.825	85.62
693.011	83.92
693.196	84.77
693.382	85.19
693.568	84.47
693.754	83.15
693.94	81.73
694.125	80.94
694.311	80.61
694.497	79.11
694.682	80.09
694.868	80.12
695.054	82.15
695.239	80.86
695.425	81.74
695.611	82.78
695.796	82.48
695.982	81.87
696.168	81.4
696.353	80.28
696.539	81.08
696.724	79.51
696.91	78.42
697.095	77.35
697.281	76.3
697.466	75.35
697.652	73.13
697.837	73.41
698.023	73.44
698.208	73.64
698.393	74.03
698.579	72.65
698.764	73.86
698.949	73.06
699.135	72.55
699.32	73.75
699.505	73.95
699.691	76.39
699.876	76.75
700.061	76.88
700.246	76.9
700.432	77.38
700.617	78.97
700.802	77.24
700.987	79.18
701.172	83.38
701.358	84.5
701.543	85.05
701.728	84.61
701.913	83.58
702.098	84.1
702.283	85.45
702.468	84.08
702.653	85.86
702.838	86.71
703.023	87.54
703.208	83.28
703.393	82.34
703.578	82.6
703.763	83.23
703.948	84.37
704.133	85.57
704.318	85.6
704.503	86.94
704.688	85.36
704.873	86.48
705.057	86.16
705.242	87.68
705.427	86.72
705.612	86.06
705.797	87.19
705.981	88.19
706.166	87.05
706.351	86.62
706.536	87.81
706.72	89.64
706.905	88.6
707.09	87.26
707.274	86.76
707.459	87.71
707.644	89.77
707.828	88.26
708.013	86.86
708.197	86.03
708.382	86.73
708.567	87.47
708.751	85.65
708.936	86.82
709.12	87.83
709.305	87.96
709.489	87.87
709.673	86.14
709.858	86.55
710.042	87.61
710.227	89.47
710.411	88.5
710.596	87.65
710.78	88.41
710.964	89.78
711.149	89.83
711.333	89.45
711.517	91.35
711.702	92.46
711.886	91.4
712.07	90.98
712.254	90.24
712.438	89.77
712.623	87.34
712.807	85.8
712.991	83.7
713.175	82.06
713.359	82.59
713.544	81.52
713.728	82.29
713.912	82.86
714.096	82.3
714.28	81.28
714.464	81.75
714.648	83.08
714.832	84.44
715.016	85.15
715.2	85.73
715.384	86
715.568	84.73
715.752	82.89
715.936	82.22
716.12	83.17
716.304	84.27
716.488	84.72
716.671	84.56
716.855	84.06
717.039	82.17
717.223	83.88
717.407	83.77
717.59	85.74
717.774	85.05
717.958	85.29
718.142	85.16
718.325	85.38
718.509	85.09
718.693	85.91
718.877	85.08
719.06	86.15
719.244	85.97
719.428	84.59
719.611	83.95
719.795	85.86
719.978	85.7
720.162	87.37
720.345	87.49
720.529	88.4
720.713	88.94
720.896	89.68
721.08	90.89
721.263	89.4
721.446	87.69
721.63	86.14
721.813	85.84
721.997	85.28
722.18	82.6
722.364	81.97
722.547	83.38
722.73	81.96
722.914	82.66
723.097	82.27
723.28	82.38
723.464	83.41
723.647	84.57
723.83	83.62
724.013	85.02
724.197	85.73
724.38	84.55
724.563	84.16
724.746	85.74
724.929	86.74
725.112	85.91
725.296	86.79
725.479	87.69
725.662	85.76
725.845	87.13
726.028	87.54
726.211	86.69
726.394	89.29
726.577	88.37
726.76	85.73
726.943	83.51
727.126	85.21
727.309	84.54
727.492	85.64
727.675	87.49
727.858	87.12
728.041	87.37
728.224	88.39
728.407	87.31
728.589	85.66
728.772	87.7
728.955	89.16
729.138	87.46
729.321	86.9
729.503	86.41
729.686	86.54
729.869	84.73
730.052	83.16
730.234	82.65
730.417	82.1
730.6	83.96
730.782	82.03
730.965	82.46
731.148	82.59
731.33	84.98
731.513	83.79
731.695	82.47
731.878	85.37
732.061	85.89
732.243	86.89
732.426	87.7
732.608	86.34
732.791	87.05
732.973	86.96
733.156	88.76
733.338	86.06
733.52	86.04
733.703	86.78
733.885	83.94
734.068	86.22
734.25	85.58
734.432	85.87
734.615	86.7
734.797	86.6
734.979	85.18
735.162	83.2
735.344	84.7
735.526	85.78
735.708	87.1
735.891	88.61
736.073	87.44
736.255	87.11
736.437	87.14
736.619	88.21
736.802	89.95
736.984	91.24
737.166	92.3
737.348	91.47
737.53	91.65
737.712	91.88
737.894	92.7
738.076	93.16
738.258	92.69
738.44	91.76
738.622	92.08
738.804	90.61
738.986	88.84
739.168	88.98
739.35	90.99
739.532	92.88
739.714	92.3
739.896	91.55
740.078	91.27
740.259	92.81
740.441	93.54
740.623	91.17
740.805	92.45
740.987	94.22
741.168	94.96
741.35	94.33
741.532	94.14
741.714	94.22
741.895	94.61
742.077	94.22
742.259	94.63
742.44	95.84
742.622	97.36
742.804	98.02
742.985	97.04
743.167	98.73
743.348	99.84
743.53	97.51
743.711	99.48
743.893	100.18
744.075	98.22
744.256	97.63
744.438	99.82
744.619	98.87
744.8	98.32
744.982	100.17
745.163	98.43
745.345	99.3
745.526	99.13
745.707	97.61
745.889	97.46
746.07	98.91
746.252	99.11
746.433	96.86
746.614	98.44
746.795	99.79
746.977	98.91
747.158	99.94
747.339	98.08
747.52	97.97
747.702	97.55
747.883	95.9
748.064	97.31
748.245	97.87
748.426	99.11
748.607	99.12
748.788	97.59
748.97	99.97
749.151	99.03
749.332	98.89
749.513	97.88
749.694	98.39
749.875	101.4
750.056	98.23
750.237	96.69
750.418	94.93
750.599	93.24
750.78	91.67
750.96	90.03
751.141	90.36
751.322	90.25
751.503	92.58
751.684	93.46
751.865	93.09
752.046	96.27
752.226	97.77
752.407	96.98
752.588	95.65
752.769	98.36
752.949	97.1
753.13	97.45
753.311	98.82
753.492	99.93
753.672	100
753.853	98.02
754.034	96.61
754.214	96.39
754.395	98.98
754.575	102.13
754.756	101.48
754.937	103.04
755.117	102.17
755.298	100.3
755.478	99.57
755.659	97.38
755.839	96.45
756.02	95.06
756.2	94.52
756.381	93.3
756.561	92.35
756.741	92
756.922	89.37
757.102	88.28
757.283	87.74
757.463	86.61
757.643	88.01
757.823	88.48
758.004	88.99
758.184	87.24
758.364	86.56
758.545	85.3
758.725	84.63
758.905	84.53
759.085	84.89
759.265	84.45
759.446	84.26
759.626	82.01
759.806	81.83
759.986	82.57
760.166	82.85
760.346	80.59
760.526	81.49
760.706	81.89
760.886	82.87
761.066	82.77
761.246	81.15
761.426	80.11
761.606	80.12
761.786	78.06
761.966	75.42
762.146	75.45
762.326	77.16
762.506	76.96
762.686	76.75
762.866	76.29
763.046	74.17
763.225	76.12
763.405	75.84
763.585	76.22
763.765	78.38
763.945	80.79
764.124	82.07
764.304	81.94
764.484	82.57
764.664	82.16
764.843	83.45
765.023	86.97
765.203	88.07
765.382	90.05
765.562	91.76
765.741	92.31
765.921	92.7
766.101	91.06
766.28	91.74
766.46	90.54
766.639	92.26
766.819	92.25
766.998	92.66
767.178	92.7
767.357	94.88
767.537	93.21
767.716	95.53
767.896	95.85
768.075	100.87
768.254	102.51
768.434	102.77
768.613	100.2
768.792	101.04
768.972	100.17
769.151	101.44
769.33	100.14
769.51	102.37
769.689	100.22
769.868	101.34
770.047	101.34
770.226	97.11
770.406	102.11
770.585	101.32
770.764	100.94
770.943	101.05
771.122	100.16
771.301	99.84
771.48	99.71
771.66	101.52
771.839	98.92
772.018	95.26
772.197	97.96
772.376	97.29
772.555	100
772.734	101.53
772.913	101.93
773.092	102.51
773.271	105.24
773.449	104.17
773.628	102.61
773.807	103.17
773.986	105.82
774.165	105.56
774.344	105.65
774.523	108.19
774.701	107.18
774.88	109.54
775.059	108.91
775.238	108.44
775.417	108.95
775.595	107.65
775.774	109.93
775.953	110.59
776.131	110.12
776.31	110.47
776.489	106.6
776.667	106.46
776.846	105.94
777.025	106.86
777.203	104.89
777.382	107.72
777.56	108.83
777.739	105.07
777.917	101.28
778.096	104.03
778.274	102.87
778.453	106.59
778.631	106.85
778.81	104.44
778.988	103.61
779.166	104.47
779.345	101.75
779.523	99.85
779.702	102.89
779.88	107.06
780.058	108.01
780.237	107.18
780.415	106.1
780.593	105.85
780.771	104.6
780.95	104.7
781.128	103.3
781.306	103.28
781.484	108.31
781.662	106.76
781.841	104.95
782.019	103.25
782.197	103.96
782.375	103.36
782.553	103.49
782.731	104.6
782.909	104.38
783.087	105.1
783.265	106.84
783.443	102.74
783.621	104.06
783.799	104.69
783.977	104.93
784.155	101.98
784.333	102.38
784.511	100.18
784.689	104.66
784.867	105.6
785.045	105.65
785.223	106.42
785.4	106
785.578	104.74
785.756	105.81
785.934	101.69
786.112	104.18
786.289	104.83
786.467	106.03
786.645	100.89
786.823	102.62
787	102.23
787.178	97.8
787.356	98.6
787.533	98.1
787.711	96.66
787.889	101.08
788.066	96.6
788.244	94.48
788.421	94.53
788.599	95.12
788.776	92.95
788.954	92.42
789.131	92.35
789.309	92.41
789.486	94.51
789.664	93.11
789.841	92.04
790.019	93.67
790.196	94.62
790.373	96.01
790.551	95.61
790.728	94.35
790.906	93.43
791.083	95.76
791.26	95.96
791.437	94.48
791.615	96.84
791.792	96.19
791.969	95.83
792.146	96.93
792.324	97.39
792.501	99.3
792.678	99.01
792.855	102.88
793.032	102.92
793.209	105.05
793.387	108.83
793.564	110.49
793.741	113.19
793.918	116.19
794.095	116.59
794.272	114.34
794.449	116.49
794.626	121.13
794.803	119.27
794.98	117.61
795.157	113.19
795.334	108.7
795.511	107
795.688	105.6
795.864	106.5
796.041	102.95
796.218	104.71
796.395	103.41
796.572	102.9
796.749	101.4
796.925	104.49
797.102	103.94
797.279	103.66
797.456	101.04
797.632	102.1
797.809	99.2
797.986	100.83
798.162	99.01
798.339	96.76
798.516	95.55
798.692	96.14
798.869	93.78
799.046	96.74
799.222	98.37
799.399	99.16
799.575	97.44
799.752	98.37
799.928	97.67
800.105	96.49
800.281	96.96
800.458	98.72
800.634	100.18
800.811	100.8
800.987	101.14
801.163	102.32
801.34	101.13
801.516	100.56
801.692	97.86
801.869	99.28
802.045	100.69
802.221	100.8
802.398	94.96
802.574	96.55
802.75	96.19
802.926	95.91
803.103	92.89
803.279	93.97
803.455	93.98
803.631	98.07
803.807	96.68
803.983	95.9
804.16	94.39
804.336	98.55
804.512	96.71
804.688	93.77
804.864	95.61
805.04	96.41
805.216	97.15
805.392	99.4
805.568	98.1
805.744	100.31
805.92	103.08
806.096	109.11
806.272	110.33
806.448	111.33
806.623	117.29
806.799	113.91
806.975	112.22
807.151	110.36
807.327	106.83
807.503	106.95
807.678	107.72
807.854	104.52
808.03	99.16
808.206	97.85
808.381	94.37
808.557	91.42
808.733	92.55
808.908	90.45
809.084	91.82
809.26	91.84
809.435	88.47
809.611	86.7
809.787	87.42
809.962	87.19
810.138	87.15
810.313	88.76
810.489	87.57
810.664	85.94
810.84	88.05
811.015	85.99
811.191	87.02
811.366	90.76
811.542	92.35
811.717	95.64
811.892	100.59
812.068	101.21
812.243	99.52
812.419	100.33
812.594	104.12
812.769	104.04
812.944	107.69
813.12	109.54
813.295	107.83
813.47	105.97
813.645	103.24
813.821	95.69
813.996	91.16
814.171	93.37
814.346	95.55
814.521	97.17
814.697	95.34
814.872	97.02
815.047	92.94
815.222	91.26
815.397	89.8
815.572	91.75
815.747	93.63
815.922	97.51
816.097	95.89
816.272	94.44
816.447	91.2
816.622	91.26
816.797	87.59
816.972	88.62
817.147	90.36
817.322	93.98
817.496	90.75
817.671	88.91
817.846	87.85
818.021	88.48
818.196	86.33
818.371	85.66
818.545	89.96
818.72	89.57
818.895	88.06
819.069	88.62
819.244	86.29
819.419	86.36
819.594	85.77
819.768	83.27
819.943	80.87
820.117	81.7
820.292	79.75
820.467	77.14
820.641	75.47
820.816	75.05
820.99	72.97
821.165	70.27
821.339	67.33
821.514	66.53
821.688	66.53
821.863	65.81
822.037	64.28
822.212	63.81
822.386	63.63
822.56	63.96
822.735	63.4
822.909	63.18
823.084	63.86
823.258	64.37
823.432	65.06
823.606	65.48
823.781	66.28
823.955	67.25
824.129	68.89
824.303	68.46
824.478	66.84
824.652	68.43
824.826	67.85
825	69.16
825.174	71.16
825.348	71.9
825.523	71.02
825.697	73.33
825.871	73.5
826.045	74.46
826.219	74.5
826.393	75.83
826.567	73.43
826.741	74.52
826.915	74.6
827.089	75.1
827.263	74.93
827.437	77.39
827.611	75.96
827.784	76.69
827.958	74.76
828.132	75.8
828.306	77.31
828.48	79.3
828.654	80.73
828.827	80.33
829.001	79.64
829.175	81.53
829.349	82.21
829.522	83.51
829.696	86.08
829.87	88.32
830.044	89.57
830.217	89.38
830.391	92.64
830.565	95.8
830.738	95.88
830.912	97.77
831.085	97.77
831.259	92.94
831.432	92.41
831.606	89
831.779	88.01
831.953	88.25
832.126	87.43
832.3	87.19
832.473	84.91
832.647	83.99
832.82	82.66
832.994	81.56
833.167	81.65
833.34	82.19
833.514	81.29
833.687	79.66
833.86	78.06
834.034	79.71
834.207	77.43
834.38	79.11
834.553	80.62
834.727	83.04
834.9	84.95
835.073	85.7
835.246	83.87
835.419	85.82
835.593	87.36
835.766	87.93
835.939	86.27
836.112	90.77
836.285	89.84
836.458	91.19
836.631	89.16
836.804	89
836.977	90.91
837.15	95.99
837.323	98.56
837.496	99.92
837.669	100.29
837.842	103.39
838.015	95.5
838.188	95.03
838.361	92.12
838.533	93.44
838.706	93.86
838.879	96.23
839.052	94.75
839.225	90.45
839.398	90.74
839.57	88.84
839.743	90.22
839.916	93.14
840.088	93.67
840.261	96.39
840.434	97.13
840.607	95.22
840.779	94.55
840.952	94.36
841.124	95.85
841.297	94.38
841.47	96.12
841.642	93.13
841.815	97.21
841.987	95.78
842.16	94.89
842.332	95.92
842.505	98.23
842.677	99.24
842.85	96.42
843.022	100.64
843.194	104.55
843.367	106.12
843.539	107.28
843.712	102.98
843.884	103.78
844.056	105.86
844.229	102.47
844.401	100.33
844.573	99.41
844.745	103.26
844.918	102.23
845.09	98.7
845.262	95.96
845.434	95.9
845.606	100.2
845.779	100.02
845.951	99.09
846.123	100.73
846.295	104.66
846.467	102.26
846.639	98.9
846.811	94.19
846.983	98.55
847.155	97.84
847.327	101.47
847.499	97.53
847.671	96.9
847.843	100.31
848.015	98.16
848.187	98.52
848.359	102.49
848.531	102.09
848.703	107.85
848.875	106.09
849.047	112.47
849.218	110.27
849.39	113.46
849.562	114.57
849.734	113.47
849.905	116.91
850.077	114.35
850.249	114.91
850.421	113.72
850.592	113.64
850.764	112.15
850.936	111.89
851.107	111.37
851.279	111.64
851.451	116.01
851.622	112.34
851.794	113.25
851.965	116.71
852.137	112.18
852.308	119.92
852.48	119.23
852.651	121.72
852.823	118.87
852.994	121.44
853.166	118.08
853.337	120.09
853.509	118.84
853.68	117.08
853.851	117.91
854.023	119.24
854.194	115.54
854.365	115.52
854.537	113.22
854.708	113.39
854.879	107.39
855.05	107.21
855.222	101.34
855.393	105.36
855.564	106.31
855.735	100.48
855.906	102.45
856.078	101.94
856.249	102.24
856.42	103.34
856.591	109.07
856.762	113.13
856.933	119.07
857.104	119.82
857.275	113.8
857.446	115.79
857.617	117.91
857.788	121.53
857.959	125.19
858.13	126.75
858.301	125.83
858.472	116.06
858.643	109.9
858.814	107.99
858.985	110.49
859.155	112.86
859.326	111.31
859.497	110.16
859.668	106.07
859.839	104.13
860.009	101.82
860.18	103.22
860.351	105.44
860.522	111.8
860.692	111.45
860.863	110.79
861.034	112.72
861.204	114.05
861.375	117.87
861.546	121.22
861.716	121.16
861.887	122.76
862.057	124.23
862.228	122.73
862.398	119.67
862.569	121.06
862.739	119.53
862.91	115.72
863.08	113.46
863.251	114.11
863.421	110.66
863.592	111.08
863.762	111.54
863.932	107.85
864.103	106.02
864.273	109.72
864.443	108.73
864.614	110.8
864.784	112.19
864.954	113.67
865.125	113.9
865.295	116.21
865.465	116.72
865.635	115.84
865.805	121.25
865.976	120.8
866.146	117.53
866.316	114.28
866.486	113.78
866.656	115.24
866.826	110.72
866.996	109.47
867.166	106.36
867.336	105.88
867.506	105.84
867.676	98.79
867.846	103.73
868.016	104.73
868.186	101.75
868.356	99.33
868.526	101.62
868.696	104.84
868.866	101.66
869.036	101.73
869.206	97.51
869.376	94.71
869.545	95.18
869.715	89.77
869.885	92.47
870.055	94.34
870.224	98.45
870.394	97.88
870.564	99.84
870.734	99.69
870.903	100.3
871.073	106.97
871.243	106.62
871.412	110.07
871.582	110.5
871.751	108.01
871.921	111.15
872.091	106.43
872.26	104.01
872.43	103.25
872.599	104.02
872.769	106.83
872.938	105.77
873.108	106.62
873.277	105.97
873.446	106.78
873.616	103.27
873.785	100.02
873.955	101.38
874.124	101.97
874.293	101.9
874.463	103.8
874.632	103.34
874.801	100.55
874.971	101.38
875.14	103.74
875.309	106.53
875.478	110.68
875.647	109.83
875.817	111.17
875.986	108.01
876.155	106.63
876.324	100.65
876.493	98.62
876.662	97.99
876.831	97.27
877	95.63
877.17	95.42
877.339	94.29
877.508	93.49
877.677	92.67
877.846	99.4
878.015	96.38
878.184	100.46
878.352	102.83
878.521	101.02
878.69	102.45
878.859	94.37
879.028	93.56
879.197	96.97
879.366	98.28
879.534	96.4
879.703	86.5
879.872	83.61
880.041	81.78
880.21	80.35
880.378	78.22
880.547	76.67
880.716	78.54
880.884	78.17
881.053	71.96
881.222	70.9
881.39	70.66
881.559	72.86
881.727	75.17
881.896	72.46
882.065	70.92
882.233	69.69
882.402	69.29
882.57	70.3
882.739	70.2
882.907	73.81
883.076	76.65
883.244	77.51
883.412	78.93
883.581	78.72
883.749	79.79
883.918	80.23
884.086	85.82
884.254	86.45
884.423	87.45
884.591	89.65
884.759	88.24
884.927	87.11
885.096	88.54
885.264	92.19
885.432	92.97
885.6	99.37
885.769	103.1
885.937	96.99
886.105	99.05
886.273	103.91
886.441	103.8
886.609	106.02
886.777	104.34
886.945	101.96
887.113	100.43
887.281	99.28
887.449	101.16
887.617	101.05
887.785	105.31
887.953	107.55
888.121	104.82
888.289	107.25
888.457	107.14
888.625	107.63
888.793	114.51
888.961	111.67
889.129	114.37
889.296	108.69
889.464	109.85
889.632	112.43
889.8	110.48
889.967	111.55
890.135	104.55
