Data from JASIL_3243_Reflection_1.txt Node
Date: Mon Nov 16 20:32:29 EST 2015
User: Geneva
Spectrometer: USB4E03002
Autoset integration time: false
Trigger mode: 4
Integration Time (sec): 1.000000E-1
Scans to average: 10
Electric dark correction enabled: false
Nonlinearity correction enabled: false
Boxcar width: 5
Stray light correction enabled: false
XAxis mode: Wavelengths
Stop averaging: false
Number of Pixels in Spectrum: 3648
>>>>>Begin Spectral Data<<<<<
177.575	-647.01
177.794	-593.57
178.014	-622.29
178.233	-1028.04
178.452	-1425.3
178.672	-937.88
178.891	-1119.81
179.11	3467.57
179.33	1066.07
179.549	-5131.82
179.768	894.92
179.987	923.66
180.207	690.32
180.426	384.67
180.645	390.31
180.864	637.66
181.084	295.89
181.303	284.95
181.522	526.82
181.741	1645.07
181.96	401.14
182.179	554.65
182.398	712.44
182.618	629.66
182.837	567.23
183.056	512.7
183.275	347.8
183.494	327.91
183.713	386.67
183.932	320.53
184.151	315.97
184.37	311.55
184.589	264.21
184.808	215.49
185.027	216.3
185.246	282.63
185.465	409.78
185.684	441.67
185.903	1745.98
186.122	624.22
186.341	804.49
186.56	445
186.779	761.14
186.998	960.77
187.216	914.96
187.435	605.99
187.654	576.76
187.873	299.75
188.092	247.17
188.311	253.33
188.53	392.1
188.748	347.52
188.967	716.8
189.186	438.31
189.405	533.33
189.623	588.89
189.842	581.07
190.061	565.55
190.28	1457.69
190.498	-1358.75
190.717	980.16
190.936	-2162.71
191.154	-1005.36
191.373	-24800
191.592	-12118.18
191.81	-728.74
192.029	-961.07
192.248	-329.14
192.466	-326.33
192.685	-390.84
192.904	-555.68
193.122	-381.6
193.341	-718.38
193.559	-666.5
193.778	-729.7
193.996	-953.44
194.215	34500
194.433	-3304.76
194.652	701.97
194.87	554.98
195.089	435.37
195.307	580
195.526	1694.92
195.744	962.28
195.963	676.92
196.181	13375
196.399	-886.32
196.618	5235
196.836	15200
197.055	-706.56
197.273	-1605.17
197.491	-1071.11
197.71	-2017.65
197.928	1441.25
198.146	2776.19
198.365	-12920
198.583	635.93
198.801	836.84
199.019	1907.79
199.238	-3642.86
199.456	1548.11
199.674	687.71
199.892	528.74
200.111	635.38
200.329	632.08
200.547	481.97
200.765	402.36
200.983	454.52
201.202	385.24
201.42	574.41
201.638	384.91
201.856	456.82
202.074	1312.4
202.292	1539.39
202.51	1036.05
202.728	1495.88
202.946	-3385
203.165	4739.39
203.383	-1511.34
203.601	-1730.23
203.819	3086
204.037	14540
204.255	1545.36
204.473	721.96
204.691	1043.33
204.909	702.86
205.127	782.79
205.345	963.64
205.562	745.54
205.78	519.8
205.998	553.06
206.216	494.29
206.434	449.66
206.652	388.48
206.87	269.61
207.088	241.14
207.306	272.62
207.523	258.17
207.741	194.72
207.959	224.23
208.177	252
208.395	218.18
208.612	229.82
208.83	227.43
209.048	238.98
209.266	328.26
209.483	310.35
209.701	272.63
209.919	330.06
210.136	378.92
210.354	814
210.572	733.94
210.79	1195.56
211.007	704.8
211.225	1204.65
211.442	-6680.95
211.66	-1818.06
211.878	-896.53
212.095	189.57
212.313	168
212.53	206.41
212.748	159.79
212.966	153.66
213.183	146.4
213.401	154.53
213.618	144.18
213.836	170.69
214.053	174.26
214.271	142.67
214.488	1142.02
214.705	614.68
214.923	407.1
215.14	422.42
215.358	370.77
215.575	515.09
215.793	518.26
216.01	668.71
216.227	260
216.445	210.19
216.662	284.87
216.879	293.27
217.097	248.29
217.314	255.72
217.531	289.44
217.749	333.5
217.966	392
218.183	311.29
218.4	374.59
218.618	474.8
218.835	486.78
219.052	333.78
219.269	287.58
219.487	466.67
219.704	373.78
219.921	277.63
220.138	194.65
220.355	198.47
220.572	213.14
220.79	210.35
221.007	242.6
221.224	345.59
221.441	274.2
221.658	301.01
221.875	220.51
222.092	210.84
222.309	311.23
222.526	362.1
222.743	328.23
222.96	431.13
223.177	238.22
223.394	229.88
223.611	161.7
223.828	219.47
224.045	247.63
224.262	271.22
224.479	201.86
224.696	155.03
224.913	185.03
225.13	140.59
225.347	128.9
225.564	116.1
225.781	93.08
225.997	91.73
226.214	71.68
226.431	57.67
226.648	42.93
226.865	37.91
227.082	35.97
227.298	25.54
227.515	24.96
227.732	22.18
227.949	21.76
228.165	23.81
228.382	16.77
228.599	17.53
228.816	16.73
229.032	19.4
229.249	16.92
229.466	18.39
229.682	20.62
229.899	20.23
230.116	19.31
230.332	20.49
230.549	22.37
230.765	30.16
230.982	30.36
231.199	34.18
231.415	40.43
231.632	45.21
231.848	51.92
232.065	55.23
232.281	54.26
232.498	65.31
232.714	65.16
232.931	62.32
233.147	58.81
233.364	60.08
233.58	58.57
233.797	59.28
234.013	54.9
234.23	52.35
234.446	51.8
234.662	48.41
234.879	44.55
235.095	50.43
235.312	53.99
235.528	48.99
235.744	55.03
235.961	57.6
236.177	58.76
236.393	67.13
236.61	64.82
236.826	73.55
237.042	83.09
237.258	83.02
237.475	79.44
237.691	79.65
237.907	82.56
238.123	77.34
238.339	69.68
238.556	63.61
238.772	57.13
238.988	55.4
239.204	50.59
239.42	51.45
239.636	48.23
239.853	45.23
240.069	44.47
240.285	42.75
240.501	41.45
240.717	40.44
240.933	35.26
241.149	29.8
241.365	26.1
241.581	24.25
241.797	20.42
242.013	20.12
242.229	18.2
242.445	15.93
242.661	16.87
242.877	14.38
243.093	12.33
243.309	15.73
243.525	21.21
243.741	23.2
243.957	23.7
244.173	23.85
244.388	22.38
244.604	23.84
244.82	23.29
245.036	20.21
245.252	20.08
245.468	17.93
245.683	14.76
245.899	12.3
246.115	12.36
246.331	11.35
246.547	11.61
246.762	11.69
246.978	11.56
247.194	12.1
247.409	12.73
247.625	12.83
247.841	14.57
248.057	16.04
248.272	16.32
248.488	17.49
248.703	18.56
248.919	19.77
249.135	21.78
249.35	22.48
249.566	24.6
249.782	25.26
249.997	26.2
250.213	25.35
250.428	23.36
250.644	24.81
250.859	24.31
251.075	24.04
251.29	25.19
251.506	23.7
251.721	23.06
251.937	22.4
252.152	22.52
252.368	21.67
252.583	21.92
252.798	22.38
253.014	22.44
253.229	23.09
253.445	24.48
253.66	24.9
253.875	29.06
254.091	34.82
254.306	34.03
254.521	34.11
254.737	38.73
254.952	40.65
255.167	42.33
255.383	39.59
255.598	34.81
255.813	34.31
256.028	32.36
256.244	33.19
256.459	26.09
256.674	25.33
256.889	24.13
257.104	20.24
257.32	19.7
257.535	17.78
257.75	17.77
257.965	17.93
258.18	16.4
258.395	14.06
258.61	11.3
258.826	11.79
259.041	11.77
259.256	11.55
259.471	11.3
259.686	10.24
259.901	9.43
260.116	9.27
260.331	9.62
260.546	9.36
260.761	10.7
260.976	10.73
261.191	10.91
261.406	10.8
261.621	11.19
261.836	12.44
262.05	14.08
262.265	17.28
262.48	18.49
262.695	16.39
262.91	15.94
263.125	15.13
263.34	15.37
263.555	17.29
263.769	18.36
263.984	18.73
264.199	21.24
264.414	19.95
264.629	18.31
264.843	16.56
265.058	20.3
265.273	20.88
265.488	19.7
265.702	22.03
265.917	22.03
266.132	20.54
266.346	21.25
266.561	18.11
266.776	19.33
266.99	19.12
267.205	20.7
267.42	19.83
267.634	20.9
267.849	20.54
268.063	20.68
268.278	21.26
268.492	21.74
268.707	20.51
268.922	20.73
269.136	18.84
269.351	17.76
269.565	16.61
269.78	15.29
269.994	15.67
270.209	16.8
270.423	15.77
270.637	13.67
270.852	12.72
271.066	13.36
271.281	14.76
271.495	14.42
271.709	15.08
271.924	15.14
272.138	16.21
272.353	15.79
272.567	15.29
272.781	14.55
272.996	13.65
273.21	14.55
273.424	13.24
273.638	13.22
273.853	15.37
274.067	13.91
274.281	14.23
274.495	13.64
274.71	12.84
274.924	12.72
275.138	12.18
275.352	13.08
275.566	13.7
275.781	14.07
275.995	12.32
276.209	9.85
276.423	13.22
276.637	11.6
276.851	11.73
277.065	11.75
277.279	13.18
277.493	14.32
277.707	15.33
277.921	15.31
278.135	15.35
278.349	16.68
278.563	18.28
278.777	18.39
278.991	19.72
279.205	19.71
279.419	19.38
279.633	18.07
279.847	17.45
280.061	17.24
280.275	15.69
280.489	17.1
280.703	13.48
280.917	12.58
281.131	11.4
281.344	11.81
281.558	12.75
281.772	12.77
281.986	13.84
282.2	13.33
282.414	12.61
282.627	13.68
282.841	12.61
283.055	14.49
283.269	14.89
283.482	15.06
283.696	14.18
283.91	12.38
284.123	12.05
284.337	11.03
284.551	11.61
284.764	11.58
284.978	10.48
285.192	10.4
285.405	10.87
285.619	9.86
285.833	10.83
286.046	11.67
286.26	11.9
286.473	12.07
286.687	12.84
286.9	14.11
287.114	15.11
287.327	17.31
287.541	16.78
287.754	16.61
287.968	17.66
288.181	17.06
288.395	15.86
288.608	17.25
288.822	18.19
289.035	18.37
289.248	17.09
289.462	16.08
289.675	15.7
289.889	15.86
290.102	15.31
290.315	15.37
290.529	15.38
290.742	16.32
290.955	15.65
291.169	15.97
291.382	15.53
291.595	16.52
291.808	17.17
292.022	17.28
292.235	17.9
292.448	19.2
292.661	18.66
292.875	20.19
293.088	19.58
293.301	19.55
293.514	17.45
293.727	15.44
293.94	13.09
294.153	13.19
294.367	13.06
294.58	12.12
294.793	11.07
295.006	11.36
295.219	9.99
295.432	10.62
295.645	10.03
295.858	10.27
296.071	11.31
296.284	12.12
296.497	10.99
296.71	10.84
296.923	11.83
297.136	10.55
297.349	9.47
297.562	9.83
297.775	9.64
297.988	9.25
298.201	10.52
298.414	10.12
298.626	9.83
298.839	10.69
299.052	9.32
299.265	8.82
299.478	11.18
299.691	12.74
299.903	11.63
300.116	11.83
300.329	12.39
300.542	11.35
300.755	12.41
300.967	13.1
301.18	12
301.393	13.23
301.605	13.29
301.818	12.74
302.031	14
302.243	14.64
302.456	14.94
302.669	16.22
302.881	16.43
303.094	17.06
303.307	16.15
303.519	17.07
303.732	17.74
303.944	18.25
304.157	18.2
304.37	17.75
304.582	16.18
304.795	15.31
305.007	14.58
305.22	14.14
305.432	13.23
305.645	13.91
305.857	14.9
306.069	14.42
306.282	14.34
306.494	13.74
306.707	13.29
306.919	15.18
307.132	15.24
307.344	16.18
307.556	16.09
307.769	15.14
307.981	15.75
308.193	14.27
308.406	14.7
308.618	14.57
308.83	15.58
309.043	15.6
309.255	15.19
309.467	15.05
309.679	13.95
309.892	13.59
310.104	13.56
310.316	12.59
310.528	12.93
310.74	12.03
310.953	11.65
311.165	12.16
311.377	11.27
311.589	11.18
311.801	11.66
312.013	12.02
312.225	13.97
312.437	14.56
312.649	14.98
312.862	15.49
313.074	14.57
313.286	16.3
313.498	16.53
313.71	16.69
313.922	18.13
314.134	17.64
314.346	17.55
314.558	16.12
314.77	15.86
314.982	16.23
315.193	16.14
315.405	16.82
315.617	14.17
315.829	14.6
316.041	15.63
316.253	14.09
316.465	15.26
316.677	14.83
316.888	15.63
317.1	15.17
317.312	15.41
317.524	15.27
317.736	16.36
317.947	18.23
318.159	17.34
318.371	16.99
318.583	17.11
318.794	16.95
319.006	17.43
319.218	15.65
319.43	16.6
319.641	16.9
319.853	17.92
320.064	18.24
320.276	18.23
320.488	17.72
320.699	18.24
320.911	18.84
321.123	19.04
321.334	20.5
321.546	21.87
321.757	22.32
321.969	22.88
322.18	22.31
322.392	21.48
322.603	21.98
322.815	21.09
323.026	20.73
323.238	21.03
323.449	19.14
323.661	17.97
323.872	17.78
324.083	17.68
324.295	17.2
324.506	17.1
324.718	16.47
324.929	15.18
325.14	16.28
325.352	15.98
325.563	16.22
325.774	16.19
325.986	15.54
326.197	15.33
326.408	15.34
326.62	14.7
326.831	14.15
327.042	15.61
327.253	16.94
327.464	17.38
327.676	17.16
327.887	16.85
328.098	18.82
328.309	20.38
328.52	21.65
328.732	22.11
328.943	23.37
329.154	23.12
329.365	22.82
329.576	21.34
329.787	19.92
329.998	20.81
330.209	18.83
330.42	18.35
330.631	18.96
330.842	17.23
331.053	15.8
331.264	15.87
331.475	16.22
331.686	16.45
331.897	17.72
332.108	18.39
332.319	18.11
332.53	19.15
332.741	18.72
332.952	16.81
333.163	18.28
333.374	19.29
333.585	18.51
333.795	17.98
334.006	16.17
334.217	15.3
334.428	14.24
334.639	13.92
334.849	13.38
335.06	12.85
335.271	13.92
335.482	13.8
335.692	12.4
335.903	12.05
336.114	12.41
336.325	13.87
336.535	14
336.746	16.08
336.957	17.69
337.167	17.53
337.378	18.74
337.589	16.99
337.799	16.07
338.01	17.33
338.22	17.99
338.431	18.39
338.642	17.84
338.852	17.6
339.063	16.86
339.273	15.3
339.484	16.78
339.694	15.12
339.905	16.05
340.115	16.3
340.326	15.88
340.536	16.11
340.746	16.25
340.957	16.46
341.167	16.79
341.378	15.76
341.588	15.68
341.799	14.63
342.009	15.91
342.219	16.19
342.43	15.82
342.64	16.32
342.85	15.78
343.061	15.01
343.271	15.28
343.481	14.5
343.691	15.05
343.902	15.3
344.112	15.04
344.322	13.75
344.532	13.45
344.743	13.41
344.953	11.6
345.163	11.51
345.373	12.21
345.583	11.94
345.793	12.27
346.004	11.89
346.214	11.38
346.424	12.14
346.634	12.22
346.844	12.53
347.054	13.48
347.264	14.96
347.474	15.39
347.684	15.5
347.894	15.14
348.104	16.3
348.314	16.13
348.524	15.93
348.734	14.97
348.944	15.3
349.154	15.59
349.364	14.58
349.574	13.86
349.784	14.28
349.994	14.17
350.204	13.96
350.413	12.59
350.623	12.68
350.833	13.12
351.043	13.54
351.253	14.45
351.463	13.86
351.672	13.57
351.882	14.35
352.092	14.05
352.302	13.83
352.511	14.64
352.721	16.06
352.931	16.04
353.141	16.21
353.35	16.23
353.56	16.19
353.77	15.5
353.979	16.36
354.189	15.84
354.399	14.82
354.608	14.73
354.818	14.09
355.027	12.69
355.237	12.7
355.447	12.13
355.656	11.73
355.866	10.7
356.075	10.76
356.285	11.03
356.494	10.92
356.704	11.9
356.913	12.08
357.123	12.36
357.332	12.03
357.542	12
357.751	12.29
357.96	13.64
358.17	13.67
358.379	13.83
358.589	12.72
358.798	12.58
359.007	11.97
359.217	10.28
359.426	9.51
359.635	10.54
359.845	9.9
360.054	9.96
360.263	9.13
360.472	9.03
360.682	9.54
360.891	9.86
361.1	10.25
361.309	9.75
361.519	10.71
361.728	11.55
361.937	11.05
362.146	11.79
362.355	11.59
362.564	11.89
362.774	12.1
362.983	12.3
363.192	12.33
363.401	12.37
363.61	12.6
363.819	12.83
364.028	11.86
364.237	11.9
364.446	11.6
364.655	11.8
364.864	11.98
365.073	12.19
365.282	11.91
365.491	11.81
365.7	11.35
365.909	11.64
366.118	10.81
366.327	11.42
366.536	11.59
366.745	11.58
366.954	11.43
367.162	11.51
367.371	11.57
367.58	12.17
367.789	12.39
367.998	12.01
368.207	12
368.415	13.04
368.624	12.72
368.833	12.57
369.042	12.22
369.25	12.87
369.459	12.02
369.668	11.89
369.877	11.33
370.085	11.35
370.294	12.25
370.503	12.66
370.711	12.19
370.92	12.69
371.129	13.68
371.337	14.23
371.546	13.45
371.754	13.79
371.963	13.72
372.171	13.63
372.38	13.18
372.589	12.91
372.797	12.24
373.006	12.54
373.214	12.35
373.423	11.66
373.631	11.91
373.84	11.53
374.048	10.49
374.256	10.27
374.465	10.29
374.673	10.25
374.882	9.62
375.09	9.58
375.298	9.33
375.507	9.7
375.715	9.33
375.923	8.26
376.132	7.68
376.34	8.43
376.548	9.18
376.757	9.21
376.965	10.04
377.173	10.2
377.381	10.83
377.59	11.5
377.798	10.38
378.006	10.53
378.214	10.86
378.423	11.95
378.631	12.13
378.839	10.9
379.047	11.16
379.255	10.4
379.463	11.25
379.671	10.99
379.879	10.15
380.088	10.81
380.296	11.57
380.504	12.04
380.712	11.77
380.92	11.53
381.128	11.76
381.336	11.71
381.544	11.89
381.752	10.48
381.96	10.5
382.168	10.5
382.376	10.84
382.584	9.68
382.791	9.84
382.999	9.69
383.207	9.29
383.415	10.36
383.623	9.28
383.831	9
384.039	9.82
384.247	10.47
384.454	11.54
384.662	10.81
384.87	10.61
385.078	10.52
385.285	10.52
385.493	11.13
385.701	10.58
385.909	11.15
386.116	11.23
386.324	10.78
386.532	10.16
386.739	8.96
386.947	9.6
387.155	9.87
387.362	9.16
387.57	9.18
387.778	9.17
387.985	9.68
388.193	9.57
388.4	9.85
388.608	10.39
388.816	10.59
389.023	10.71
389.231	10.53
389.438	10.3
389.646	11.07
389.853	11.34
390.061	10.78
390.268	9.64
390.475	9.35
390.683	8.67
390.89	9.02
391.098	8.9
391.305	9.76
391.512	9.3
391.72	9.07
391.927	8.89
392.135	9.26
392.342	9.26
392.549	10.26
392.756	10.84
392.964	10.97
393.171	10.68
393.378	10.4
393.586	9.87
393.793	9.63
394	10.44
394.207	10.25
394.414	9.27
394.622	9.66
394.829	8.87
395.036	8.85
395.243	8.9
395.45	9.39
395.657	10.09
395.864	9.59
396.072	10.24
396.279	10.04
396.486	10.21
396.693	11.08
396.9	11.17
397.107	11.52
397.314	11.14
397.521	11.61
397.728	10.96
397.935	10.43
398.142	10.81
398.349	10.37
398.556	10.13
398.763	10.3
398.97	10.39
399.177	9.94
399.383	10.12
399.59	10.63
399.797	10.8
400.004	11.15
400.211	11.23
400.418	11.65
400.625	12
400.831	12.15
401.038	11.57
401.245	10.93
401.452	11.15
401.658	11.29
401.865	11.14
402.072	10.59
402.279	9.86
402.485	9.77
402.692	9.21
402.899	8.78
403.105	8.63
403.312	9
403.519	9.31
403.725	9.35
403.932	9.03
404.138	8.61
404.345	9.05
404.552	8.92
404.758	8.81
404.965	8.56
405.171	9.14
405.378	9.26
405.584	9.04
405.791	8.86
405.997	8.69
406.204	8.47
406.41	8.47
406.617	8.19
406.823	8.41
407.029	8.21
407.236	8.63
407.442	8.09
407.649	8.35
407.855	8.72
408.061	8.94
408.268	9.43
408.474	9.94
408.68	9.38
408.887	9.18
409.093	9.45
409.299	9.59
409.505	9.51
409.712	9.81
409.918	9.51
410.124	8.99
410.33	8.61
410.537	8.34
410.743	8
410.949	8.95
411.155	9.14
411.361	9.5
411.567	9.52
411.773	9.6
411.98	9.65
412.186	9.85
412.392	10.28
412.598	10.32
412.804	10.28
413.01	10.26
413.216	10.36
413.422	10.15
413.628	9.2
413.834	9.19
414.04	9.65
414.246	9.9
414.452	10.08
414.658	10.35
414.864	10.44
415.07	10.8
415.275	10.94
415.481	11.19
415.687	11.43
415.893	11.63
416.099	12.09
416.305	11.77
416.511	11.28
416.716	10.61
416.922	10.09
417.128	10.03
417.334	9.55
417.539	9.12
417.745	8.57
417.951	8.03
418.157	7.88
418.362	7.35
418.568	6.82
418.774	6.44
418.979	6.66
419.185	6.34
419.391	6.59
419.596	6.61
419.802	6.76
420.008	6.51
420.213	8.75
420.419	8.69
420.624	8.72
420.83	8.93
421.035	9.24
421.241	9.17
421.446	9.52
421.652	9.11
421.857	9.08
422.063	9.21
422.268	9.35
422.474	7.55
422.679	7.53
422.885	7.63
423.09	7.39
423.295	7.28
423.501	7.31
423.706	7.11
423.911	7.13
424.117	7.12
424.322	6.98
424.527	6.91
424.733	6.8
424.938	7.2
425.143	7.11
425.349	7.16
425.554	7.43
425.759	7.34
425.964	7.29
426.169	7.34
426.375	7.34
426.58	7.27
426.785	7.37
426.99	7.12
427.195	7.09
427.4	6.82
427.605	7.22
427.811	6.96
428.016	7.12
428.221	7.33
428.426	7.67
428.631	7.83
428.836	7.85
429.041	7.99
429.246	8.84
429.451	8.85
429.656	9.36
429.861	9.11
430.066	8.72
430.271	8.78
430.476	8.88
430.681	8.55
430.886	8.11
431.09	8.37
431.295	8.5
431.5	7.81
431.705	7.66
431.91	7.08
432.115	7.15
432.32	7.63
432.524	7.58
432.729	7.14
432.934	6.9
433.139	7.07
433.343	6.87
433.548	6.7
433.753	7.01
433.958	7.08
434.162	7.04
434.367	7.18
434.572	7.32
434.776	7.23
434.981	7.43
435.186	8.05
435.39	8.21
435.595	8.44
435.799	8.36
436.004	8.05
436.209	7.77
436.413	7.91
436.618	8.1
436.822	7.89
437.027	7.75
437.231	7.44
437.436	7.21
437.64	7.04
437.845	6.66
438.049	6.63
438.253	6.62
438.458	6.65
438.662	6.71
438.867	6.3
439.071	6.19
439.275	6.37
439.48	6.67
439.684	6.55
439.888	6.45
440.093	6.75
440.297	6.59
440.501	6.71
440.706	6.71
440.91	6.91
441.114	6.91
441.318	7.28
441.523	7.27
441.727	7.36
441.931	7.24
442.135	7.26
442.339	7.07
442.543	7.49
442.748	7.6
442.952	7.69
443.156	7.41
443.36	7.25
443.564	7.23
443.768	6.8
443.972	6.88
444.176	6.9
444.38	7.06
444.584	7.14
444.788	6.73
444.992	6.64
445.196	6.63
445.4	6.97
445.604	7.05
445.808	6.87
446.012	7.13
446.216	6.86
446.42	6.93
446.624	7.14
446.828	7.06
447.032	7.29
447.235	7.32
447.439	7.18
447.643	7.2
447.847	7.48
448.051	7.61
448.254	7.73
448.458	7.99
448.662	7.96
448.866	7.77
449.069	7.9
449.273	8.13
449.477	7.97
449.681	8.01
449.884	7.63
450.088	7.57
450.292	7.29
450.495	7.29
450.699	7.27
450.902	7.57
451.106	7.66
451.31	7.82
451.513	7.79
451.717	8.02
451.92	8.32
452.124	8.39
452.327	8.1
452.531	8.31
452.734	8.05
452.938	7.89
453.141	7.83
453.345	7.9
453.548	7.74
453.752	7.42
453.955	7.6
454.158	7.22
454.362	7.4
454.565	7.82
454.769	7.64
454.972	8.09
455.175	8.36
455.379	8.43
455.582	8.11
455.785	8.17
455.988	8.32
456.192	7.98
456.395	8.27
456.598	8.14
456.801	7.78
457.005	8
457.208	7.62
457.411	7.55
457.614	7.52
457.817	7.85
458.021	7.73
458.224	7.61
458.427	7.68
458.63	7.79
458.833	7.49
459.036	7.47
459.239	7.21
459.442	7.13
459.645	7.09
459.848	6.93
460.051	6.72
460.254	6.75
460.457	6.65
460.66	6.63
460.863	6.5
461.066	6.74
461.269	6.93
461.472	7.05
461.675	7
461.878	7.01
462.081	7.11
462.284	7.14
462.486	7.19
462.689	7.48
462.892	7.52
463.095	7.35
463.298	7.58
463.5	7.61
463.703	7.94
463.906	8.38
464.109	8.71
464.311	9.08
464.514	9.33
464.717	9.39
464.92	9.29
465.122	9.13
465.325	9.26
465.528	8.75
465.73	8.5
465.933	8.4
466.135	8.68
466.338	8.04
466.541	7.63
466.743	7.28
466.946	7.15
467.148	7.24
467.351	7.26
467.553	7.08
467.756	7.54
467.958	7.72
468.161	7.37
468.363	7.1
468.566	7.37
468.768	7.44
468.971	7.69
469.173	7.52
469.375	7.42
469.578	7.48
469.78	7.47
469.983	7.31
470.185	7.45
470.387	7.97
470.59	7.87
470.792	8.07
470.994	7.76
471.196	7.46
471.399	7.73
471.601	7.42
471.803	7.27
472.005	7.32
472.208	7.22
472.41	6.73
472.612	6.53
472.814	6.08
473.016	5.91
473.218	6.3
473.421	6.49
473.623	6.44
473.825	6.82
474.027	6.97
474.229	7.11
474.431	7.16
474.633	7.72
474.835	7.63
475.037	8
475.239	8.02
475.441	8.18
475.643	8.4
475.845	8.19
476.047	8.03
476.249	7.83
476.451	7.73
476.653	7.62
476.855	7.11
477.057	7.06
477.258	7.01
477.46	7.08
477.662	6.82
477.864	6.52
478.066	6.5
478.268	6.4
478.469	6.39
478.671	6.52
478.873	6.59
479.075	6.75
479.276	6.95
479.478	6.81
479.68	6.57
479.882	6.45
480.083	6.45
480.285	6.62
480.487	6.88
480.688	7.29
480.89	7.16
481.091	7.12
481.293	7.21
481.495	6.79
481.696	6.85
481.898	6.84
482.099	6.76
482.301	6.63
482.502	6.37
482.704	6.19
482.905	5.91
483.107	5.84
483.308	5.8
483.51	5.59
483.711	5.58
483.913	5.43
484.114	5.42
484.315	5.48
484.517	5.43
484.718	5.49
484.92	5.42
485.121	5.46
485.322	5.47
485.524	5.45
485.725	5.53
485.926	5.48
486.127	5.6
486.329	5.61
486.53	5.53
486.731	5.6
486.932	5.55
487.134	5.58
487.335	5.49
487.536	5.43
487.737	5.41
487.938	5.54
488.139	5.69
488.341	5.62
488.542	5.56
488.743	5.62
488.944	5.74
489.145	5.83
489.346	5.91
489.547	6.07
489.748	6.2
489.949	6.2
490.15	6.07
490.351	5.94
490.552	6.1
490.753	6.05
490.954	5.95
491.155	5.89
491.356	5.92
491.557	6.04
491.758	5.93
491.959	5.8
492.159	5.92
492.36	6.04
492.561	6.18
492.762	6.2
492.963	6.48
493.164	6.64
493.364	6.59
493.565	6.61
493.766	6.49
493.967	6.74
494.167	7.13
494.368	7.05
494.569	6.99
494.769	6.9
494.97	7.07
495.171	6.95
495.371	7.12
495.572	7.25
495.773	7.27
495.973	7.37
496.174	7.22
496.375	7.19
496.575	7.13
496.776	7.03
496.976	7.09
497.177	6.82
497.377	6.79
497.578	6.52
497.778	6.43
497.979	6.69
498.179	6.53
498.38	6.64
498.58	6.55
498.78	6.44
498.981	6.65
499.181	6.92
499.382	7.02
499.582	6.88
499.782	7.03
499.983	7.31
500.183	6.89
500.383	7.01
500.584	6.86
500.784	6.91
500.984	7.12
501.184	6.79
501.385	6.68
501.585	6.89
501.785	7.32
501.985	7.53
502.185	7.66
502.386	7.72
502.586	7.64
502.786	7.66
502.986	7.63
503.186	7.81
503.386	7.93
503.586	7.85
503.786	7.69
503.987	7.33
504.187	7.2
504.387	7.11
504.587	6.95
504.787	7.01
504.987	7.18
505.187	7.18
505.387	7
505.587	7.06
505.786	7.24
505.986	7.47
506.186	7.77
506.386	7.77
506.586	7.71
506.786	8.18
506.986	8.33
507.186	8.44
507.386	8.2
507.585	8.27
507.785	8.46
507.985	8.47
508.185	8.03
508.384	7.83
508.584	7.72
508.784	7.55
508.984	7.26
509.183	7.2
509.383	7.01
509.583	7.16
509.782	7.26
509.982	7.04
510.182	6.85
510.381	6.98
510.581	7.05
510.781	7.09
510.98	7.05
511.18	7.12
511.379	7.25
511.579	7.12
511.778	7.2
511.978	7.32
512.177	7.43
512.377	7.21
512.576	7.33
512.776	7.54
512.975	7.49
513.175	7.53
513.374	7.68
513.573	7.25
513.773	7.4
513.972	7.44
514.172	7.22
514.371	7.18
514.57	7.53
514.77	7.59
514.969	7.44
515.168	7.84
515.367	8.14
515.567	8.21
515.766	8.51
515.965	8.67
516.164	8.7
516.364	8.85
516.563	8.81
516.762	8.95
516.961	8.93
517.16	9.06
517.359	8.82
517.559	8.77
517.758	8.79
517.957	8.81
518.156	8.93
518.355	8.86
518.554	8.75
518.753	8.7
518.952	8.6
519.151	8.61
519.35	8.49
519.549	8.55
519.748	8.62
519.947	8.5
520.146	8.58
520.345	8.51
520.544	8.56
520.743	8.66
520.942	8.82
521.141	8.95
521.339	8.99
521.538	9.16
521.737	9.12
521.936	8.88
522.135	8.94
522.333	9.14
522.532	9.37
522.731	9.41
522.93	9.44
523.129	9.29
523.327	9.52
523.526	9.59
523.725	9.58
523.923	9.57
524.122	9.67
524.321	9.76
524.519	9.51
524.718	9.14
524.917	9.11
525.115	9.17
525.314	9.29
525.512	9.02
525.711	8.89
525.909	8.76
526.108	8.81
526.306	8.85
526.505	8.75
526.703	8.75
526.902	8.82
527.1	8.8
527.299	8.78
527.497	8.72
527.696	8.72
527.894	8.68
528.092	8.67
528.291	8.76
528.489	8.65
528.688	8.67
528.886	8.65
529.084	8.66
529.283	8.73
529.481	8.65
529.679	8.82
529.877	8.81
530.076	8.97
530.274	9.18
530.472	9.16
530.67	9.31
530.869	9.44
531.067	9.63
531.265	9.77
531.463	9.85
531.661	10.01
531.859	9.95
532.057	10.12
532.255	10.09
532.454	9.86
532.652	9.81
532.85	9.74
533.048	9.79
533.246	9.73
533.444	9.63
533.642	9.68
533.84	9.73
534.038	9.72
534.236	9.75
534.434	9.74
534.632	9.88
534.83	10.06
535.027	10.18
535.225	10.15
535.423	10.4
535.621	10.62
535.819	10.59
536.017	10.48
536.215	10.49
536.412	10.44
536.61	10.63
536.808	10.72
537.006	10.69
537.203	10.99
537.401	11.11
537.599	10.94
537.797	11.09
537.994	11.13
538.192	11.39
538.39	11.47
538.587	11.68
538.785	11.62
538.983	11.62
539.18	11.83
539.378	11.68
539.575	11.58
539.773	11.67
539.97	11.63
540.168	11.68
540.366	11.65
540.563	11.74
540.761	11.67
540.958	11.68
541.155	11.77
541.353	11.65
541.55	11.57
541.748	11.64
541.945	11.72
542.143	11.59
542.34	11.7
542.537	11.7
542.735	11.74
542.932	11.71
543.129	11.83
543.327	11.99
543.524	12.08
543.721	12.21
543.919	12.45
544.116	12.68
544.313	12.9
544.51	12.78
544.708	12.98
544.905	12.95
545.102	13.22
545.299	13.44
545.496	13.15
545.693	13.23
545.891	13.5
546.088	13.62
546.285	13.73
546.482	13.75
546.679	13.86
546.876	13.88
547.073	13.96
547.27	13.89
547.467	13.64
547.664	14.02
547.861	14.11
548.058	14.18
548.255	14.1
548.452	13.89
548.649	14.2
548.846	14.54
549.043	14.73
549.24	15.03
549.437	14.99
549.633	15.3
549.83	14.95
550.027	15.15
550.224	14.88
550.421	14.99
550.618	14.84
550.814	14.53
551.011	14.52
551.208	14
551.405	13.92
551.601	14.36
551.798	14.33
551.995	14.46
552.191	14.68
552.388	14.85
552.585	14.91
552.781	15.07
552.978	15.43
553.175	15.4
553.371	15.98
553.568	15.97
553.764	15.88
553.961	16.05
554.157	16.3
554.354	16.42
554.55	16.41
554.747	16.4
554.943	16.15
555.14	16.01
555.336	16.05
555.533	16.16
555.729	16.4
555.926	16.52
556.122	16.44
556.318	16.74
556.515	16.69
556.711	16.57
556.907	16.74
557.104	17.15
557.3	17.5
557.496	17.45
557.693	17.42
557.889	17.88
558.085	17.95
558.281	18.44
558.478	18.39
558.674	18.38
558.87	18.93
559.066	18.81
559.262	18.63
559.459	18.46
559.655	18.67
559.851	18.87
560.047	18.5
560.243	18.55
560.439	18.48
560.635	18.34
560.831	18.13
561.027	18.37
561.223	18.44
561.419	18.94
561.615	19.19
561.811	19.3
562.007	19.34
562.203	19.33
562.399	19.04
562.595	19.09
562.791	19.11
562.987	19.47
563.183	19.47
563.379	19.91
563.575	20.01
563.771	19.95
563.966	19.73
564.162	19.39
564.358	19.47
564.554	19.78
564.75	19.85
564.945	19.95
565.141	19.8
565.337	19.5
565.533	19.11
565.728	19.08
565.924	19.41
566.12	19.53
566.315	19.42
566.511	19.4
566.707	19.23
566.902	18.75
567.098	18.85
567.293	19.07
567.489	19.14
567.684	19.12
567.88	19.41
568.076	19.01
568.271	18.99
568.467	19.32
568.662	19.63
568.858	20.19
569.053	20.53
569.248	20.67
569.444	20.58
569.639	20.83
569.835	21.06
570.03	20.91
570.225	20.81
570.421	20.87
570.616	20.82
570.812	20.76
571.007	20.38
571.202	20.43
571.397	20.38
571.593	20.68
571.788	20.79
571.983	20.7
572.178	20.62
572.374	20.92
572.569	21.08
572.764	21.3
572.959	21.54
573.154	21.75
573.35	22.21
573.545	22.16
573.74	21.95
573.935	22.06
574.13	22.23
574.325	22.52
574.52	22.44
574.715	22.56
574.91	22.41
575.105	22.31
575.3	22.49
575.495	22.39
575.69	22.55
575.885	22.78
576.08	22.79
576.275	22.98
576.47	22.87
576.665	23.18
576.86	23.34
577.055	23.62
577.25	23.67
577.444	23.71
577.639	23.76
577.834	23.48
578.029	23.66
578.224	23.46
578.418	23.37
578.613	23.42
578.808	23.13
579.003	22.75
579.197	22.89
579.392	23.1
579.587	23.15
579.781	23.15
579.976	23.92
580.171	23.58
580.365	24.04
580.56	24.21
580.755	24.42
580.949	24.48
581.144	25.3
581.338	25.31
581.533	24.96
581.727	25.09
581.922	24.95
582.116	24.87
582.311	24.74
582.505	24.49
582.7	24.16
582.894	24.17
583.089	24.27
583.283	24.18
583.478	24.43
583.672	24.84
583.866	25.04
584.061	24.93
584.255	24.66
584.449	24.98
584.644	24.87
584.838	25.31
585.032	25.76
585.226	25.43
585.421	25
585.615	24.56
585.809	24.92
586.003	24.38
586.198	25.02
586.392	24.99
586.586	24.96
586.78	25.23
586.974	25.09
587.168	24.51
587.363	25.23
587.557	25.41
587.751	25.89
587.945	25.22
588.139	25.21
588.333	24.87
588.527	24.78
588.721	24.91
588.915	24.64
589.109	24.51
589.303	24.62
589.497	24.65
589.691	24.86
589.885	24.03
590.079	24.57
590.273	24.72
590.466	24.66
590.66	25.29
590.854	25
591.048	25.36
591.242	25.51
591.436	25.36
591.629	24.95
591.823	24.53
592.017	25.2
592.211	24.9
592.404	25.18
592.598	25.01
592.792	24.34
592.986	24.87
593.179	24.86
593.373	24.7
593.567	25.04
593.76	24.87
593.954	24.93
594.147	25
594.341	25.13
594.535	25.26
594.728	25.47
594.922	25.62
595.115	25.43
595.309	25.35
595.502	25.72
595.696	25.38
595.889	25.77
596.083	25.83
596.276	25.74
596.47	25.79
596.663	25.41
596.856	25.46
597.05	25.44
597.243	25.03
597.437	25.36
597.63	25.33
597.823	25.6
598.017	25.59
598.21	25.62
598.403	25.93
598.596	26.19
598.79	26.64
598.983	26.61
599.176	26.74
599.369	27.23
599.563	27.04
599.756	27.1
599.949	26.88
600.142	26.98
600.335	26.71
600.528	26.87
600.722	26.06
600.915	25.95
601.108	26.04
601.301	26.06
601.494	26.04
601.687	25.91
601.88	25.68
602.073	26.01
602.266	25.71
602.459	25.96
602.652	25.58
602.845	25.94
603.038	25.74
603.231	25.75
603.424	25.72
603.617	25.67
603.809	25.72
604.002	25.59
604.195	25.59
604.388	25.79
604.581	25.72
604.774	26.04
604.966	25.83
605.159	25.91
605.352	25.7
605.545	25.7
605.737	25.62
605.93	25.93
606.123	26.22
606.316	25.79
606.508	25.91
606.701	26.55
606.894	26.43
607.086	26.56
607.279	26.88
607.471	26.91
607.664	27.05
607.857	27.15
608.049	26.77
608.242	26.71
608.434	27.02
608.627	26.71
608.819	26.25
609.012	26.27
609.204	26.45
609.397	26.26
609.589	26.67
609.782	26.72
609.974	26.91
610.166	26.61
610.359	26.09
610.551	25.97
610.743	26.48
610.936	27
611.128	26.78
611.32	26.99
611.513	27.32
611.705	27.31
611.897	27.76
612.09	28.01
612.282	28.58
612.474	29.38
612.666	29.94
612.858	29.68
613.051	29.27
613.243	29.24
613.435	28.91
613.627	28.54
613.819	28.3
614.011	28.31
614.203	28.31
614.395	28.3
614.588	28.27
614.78	28.06
614.972	28.3
615.164	28.51
615.356	28.69
615.548	28.7
615.74	29.57
615.932	29.83
616.124	29.48
616.315	29.2
616.507	29.12
616.699	29.64
616.891	29.74
617.083	29.65
617.275	29.22
617.467	29.51
617.659	29.35
617.85	28.42
618.042	28.65
618.234	28.58
618.426	28.54
618.618	28.56
618.809	28.2
619.001	28.17
619.193	28.15
619.384	28.4
619.576	28.88
619.768	29.37
619.959	29.73
620.151	29.03
620.343	28.69
620.534	28.6
620.726	28.23
620.917	27.95
621.109	27.73
621.301	27.82
621.492	28.22
621.684	27.91
621.875	28.01
622.067	28.35
622.258	28.52
622.45	29.22
622.641	28.77
622.832	29.04
623.024	29
623.215	29.05
623.407	28.47
623.598	27.9
623.789	27.51
623.981	27.39
624.172	26.37
624.363	26.51
624.555	26.53
624.746	27.05
624.937	27.03
625.129	26.86
625.32	27.13
625.511	27.82
625.702	27.93
625.893	28.26
626.085	28.17
626.276	29.01
626.467	28.7
626.658	28.62
626.849	28.94
627.04	29.32
627.231	29.83
627.422	29.73
627.614	29.74
627.805	29.47
627.996	29.38
628.187	29.24
628.378	29.47
628.569	30.23
628.76	30.33
628.951	30.25
629.142	30.27
629.332	30.1
629.523	30.15
629.714	30.03
629.905	30.33
630.096	29.57
630.287	30.24
630.478	29.84
630.669	29.88
630.859	29.78
631.05	29.51
631.241	28.87
631.432	28.98
631.623	29.33
631.813	29.18
632.004	29.12
632.195	29.55
632.385	29.11
632.576	29.05
632.767	28.76
632.957	28.75
633.148	29.17
633.339	29.4
633.529	29.48
633.72	28.97
633.91	29.41
634.101	29.3
634.292	29.58
634.482	29.4
634.673	29.9
634.863	29.94
635.054	29.61
635.244	29.47
635.435	29.88
635.625	30.18
635.815	29.99
636.006	29.85
636.196	30.19
636.387	30.33
636.577	30.71
636.767	30.04
636.958	30.18
637.148	30.43
637.338	30.6
637.529	30.57
637.719	29.99
637.909	30.28
638.099	30.62
638.29	30.64
638.48	30.62
638.67	30.33
638.86	30.83
639.05	30.52
639.241	30.82
639.431	30.98
639.621	31.4
639.811	31.61
640.001	31.9
640.191	31.09
640.381	30.87
640.571	31
640.761	30.82
640.951	30.74
641.141	30.85
641.331	30.79
641.521	30.44
641.711	30.34
641.901	30.65
642.091	30.51
642.281	30.77
642.471	30.82
642.661	31.2
642.851	31.75
643.041	31.77
643.231	32.71
643.42	33.35
643.61	34.34
643.8	34.23
643.99	33.45
644.18	33.4
644.369	33.55
644.559	33.49
644.749	33.23
644.939	33.81
645.128	33.36
645.318	32.84
645.508	32.16
645.697	31.66
645.887	31.28
646.076	31.58
646.266	32.01
646.456	31.99
646.645	32.15
646.835	31.37
647.024	30.33
647.214	30.84
647.403	30.04
647.593	30.08
647.782	30.24
647.972	29.97
648.161	29.78
648.351	29.78
648.54	29.68
648.73	30.15
648.919	30.62
649.108	31.07
649.298	31.41
649.487	32.29
649.677	32.75
649.866	32.38
650.055	33.1
650.244	33.13
650.434	31.73
650.623	31.69
650.812	31.32
651.002	31.51
651.191	31.43
651.38	30.94
651.569	30.69
651.758	30.33
651.947	30.24
652.137	29.57
652.326	29.9
652.515	30.38
652.704	31.26
652.893	30.95
653.082	31.09
653.271	31.67
653.46	31.61
653.649	31.64
653.838	31.37
654.027	31.6
654.216	32.19
654.405	32.27
654.594	32.85
654.783	32.56
654.972	32.95
655.161	32.61
655.35	31.81
655.539	31.67
655.728	31.4
655.916	31.1
656.105	30.93
656.294	30.43
656.483	30.92
656.672	30.57
656.86	29.71
657.049	30.36
657.238	30.13
657.427	30.32
657.615	30.33
657.804	30.47
657.993	30.01
658.181	29.41
658.37	30.07
658.559	29.78
658.747	29.92
658.936	30.68
659.125	29.97
659.313	30.44
659.502	30.43
659.69	30.51
659.879	30.45
660.067	31.33
660.256	31.73
660.444	31.64
660.633	31.5
660.821	31.18
661.01	30.69
661.198	30.53
661.387	30.56
661.575	30.5
661.763	30.27
661.952	30.94
662.14	30.9
662.328	31.06
662.517	30.67
662.705	29.94
662.893	30.51
663.082	30.77
663.27	31.12
663.458	30.49
663.646	30.46
663.834	30.97
664.023	30.44
664.211	30.88
664.399	31.08
664.587	31.21
664.775	32.11
664.963	32.18
665.152	32.01
665.34	31.36
665.528	31.76
665.716	31.99
665.904	32.13
666.092	31.75
666.28	31.62
666.468	31.04
666.656	30.92
666.844	31.33
667.032	30.5
667.22	30.77
667.408	31.55
667.596	31.08
667.784	31.54
667.971	32.3
668.159	32.57
668.347	31.85
668.535	32.45
668.723	32.43
668.911	32.38
669.098	33.29
669.286	32.53
669.474	32.57
669.662	33.3
669.849	33.57
670.037	33.31
670.225	33.88
670.413	33.71
670.6	33.52
670.788	33.72
670.976	33.48
671.163	34.28
671.351	35.06
671.538	34.8
671.726	34.65
671.913	33.53
672.101	32.16
672.289	32.21
672.476	32.1
672.664	32.05
672.851	32.27
673.039	32.31
673.226	31.61
673.413	31.81
673.601	31.85
673.788	32.34
673.976	32.81
674.163	33.62
674.35	32.88
674.538	34.05
674.725	35.22
674.912	35.65
675.1	35.66
675.287	35.66
675.474	36.22
675.662	36.85
675.849	36.87
676.036	36.29
676.223	36.25
676.411	36.54
676.598	35.81
676.785	35.48
676.972	34.68
677.159	34.99
677.346	35.17
677.533	34.55
677.721	34.29
677.908	34.23
678.095	35.06
678.282	34.6
678.469	34.07
678.656	34.19
678.843	34.23
679.03	33.92
679.217	33.21
679.404	33.1
679.591	33.22
679.778	33.33
679.964	32.49
680.151	32.25
680.338	32.68
680.525	33.17
680.712	33.34
680.899	32.86
681.086	33.38
681.272	33.91
681.459	33.94
681.646	34.31
681.833	33.44
682.02	33.92
682.206	34.57
682.393	35.38
682.58	35.14
682.766	35.42
682.953	36.1
683.14	36.29
683.326	37
683.513	36.91
683.7	35.46
683.886	36.31
684.073	36.18
684.259	35.42
684.446	34.44
684.632	34.76
684.819	35.63
685.005	35.03
685.192	34.87
685.378	34.63
685.565	34.2
685.751	35.01
685.938	35.33
686.124	35.48
686.31	35.84
686.497	36.43
686.683	36.29
686.87	35.91
687.056	35.87
687.242	36.29
687.429	35.25
687.615	34.83
687.801	34.63
687.987	34.87
688.174	34.88
688.36	34.87
688.546	34.29
688.732	34.74
688.918	34.1
689.105	34.05
689.291	33.54
689.477	34.29
689.663	36.37
689.849	37.55
690.035	37.99
690.221	38.45
690.407	38.59
690.593	38.98
690.779	38.76
690.965	37.98
691.151	37.84
691.337	38.58
691.523	38.76
691.709	37.51
691.895	36.32
692.081	35.61
692.267	35.85
692.453	36.07
692.639	35.85
692.825	35.99
693.011	37.34
693.196	38.15
693.382	37.85
693.568	38.61
693.754	39.35
693.94	40.46
694.125	40.19
694.311	39.25
694.497	38.67
694.682	38.16
694.868	38.68
695.054	38.83
695.239	38.13
695.425	37.22
695.611	36.3
695.796	35.89
695.982	35.77
696.168	35.71
696.353	36.15
696.539	35.72
696.724	36.1
696.91	35.18
697.095	35.24
697.281	35.08
697.466	35.73
697.652	35.77
697.837	35.57
698.023	35.06
698.208	34.28
698.393	34.24
698.579	33.97
698.764	33.8
698.949	33.95
699.135	33.78
699.32	33.93
699.505	33.82
699.691	33.19
699.876	32.95
700.061	32.83
700.246	33.66
700.432	32.85
700.617	34.95
700.802	35.18
700.987	35.57
701.172	35.28
701.358	36.2
701.543	35.59
701.728	35.96
701.913	36.87
702.098	37.17
702.283	37.52
702.468	38.34
702.653	36.16
702.838	35.92
703.023	36.42
703.208	36.52
703.393	36.12
703.578	36.96
703.763	38.2
703.948	37.79
704.133	39.21
704.318	39.82
704.503	39.56
704.688	40.84
704.873	40.3
705.057	40.69
705.242	39.9
705.427	39.64
705.612	39.9
705.797	38.96
705.981	38.6
706.166	36.79
706.351	34.81
706.536	35.97
706.72	35.57
706.905	37.01
707.09	37.05
707.274	38.44
707.459	38.47
707.644	38.77
707.828	39.68
708.013	40.16
708.197	40.91
708.382	42.03
708.567	41.19
708.751	40.74
708.936	40.8
709.12	39.27
709.305	37.76
709.489	38.22
709.673	37.32
709.858	36.92
710.042	37
710.227	36.21
710.411	36.75
710.596	37.84
710.78	38.07
710.964	37.73
711.149	37.9
711.333	39.3
711.517	38.67
711.702	39.08
711.886	37.79
712.07	37.62
712.254	38.62
712.438	37.83
712.623	37.4
712.807	37.78
712.991	37.55
713.175	38.61
713.359	38.31
713.544	38.14
713.728	38.32
713.912	40.72
714.096	41.26
714.28	40.29
714.464	40.58
714.648	40.27
714.832	41.26
715.016	41.25
715.2	41.08
715.384	40.24
715.568	40.48
715.752	40.05
715.936	39.06
716.12	37.68
716.304	38.05
716.488	37.49
716.671	36.84
716.855	36.04
717.039	36.89
717.223	36.91
717.407	38.89
717.59	39.28
717.774	39.55
717.958	39
718.142	40.61
718.325	40.77
718.509	41.37
718.693	42.87
718.877	42.75
719.06	42.31
719.244	41.7
719.428	41.45
719.611	42.41
719.795	42.22
719.978	41.62
720.162	41.1
720.345	41.31
720.529	41
720.713	39.65
720.896	38.11
721.08	38.33
721.263	39.53
721.446	39.77
721.63	39.42
721.813	39.1
721.997	41.19
722.18	41.14
722.364	41.14
722.547	41.78
722.73	42.48
722.914	44.11
723.097	43.57
723.28	44.25
723.464	42.26
723.647	41.54
723.83	42.26
724.013	44.09
724.197	44.83
724.38	44.43
724.563	45.61
724.746	45.8
724.929	45.41
725.112	45.51
725.296	44.8
725.479	45.62
725.662	44.51
725.845	44.26
726.028	42.26
726.211	42.48
726.394	43.91
726.577	42.84
726.76	43.42
726.943	43.62
727.126	44.03
727.309	42.35
727.492	43.14
727.675	44.69
727.858	44.33
728.041	44.81
728.224	43.99
728.407	43.05
728.589	43.94
728.772	41.9
728.955	42.4
729.138	42.32
729.321	42.89
729.503	41.35
729.686	40.99
729.869	41.07
730.052	40.19
730.234	40.8
730.417	40.44
730.6	40.05
730.782	41.09
730.965	41.48
731.148	41.37
731.33	41.11
731.513	41.94
731.695	41.89
731.878	42.35
732.061	42.03
732.243	41.63
732.426	41.44
732.608	41.08
732.791	41.97
732.973	40.76
733.156	40.48
733.338	42.95
733.52	43.53
733.703	43.04
733.885	42.57
734.068	43.32
734.25	42.45
734.432	43.14
734.615	42.38
734.797	40.71
734.979	40.93
735.162	42.04
735.344	40.65
735.526	39.77
735.708	41.44
735.891	40.92
736.073	41.49
736.255	43.81
736.437	43.72
736.619	44.11
736.802	44.79
736.984	45.35
737.166	43.9
737.348	44.26
737.53	45.48
737.712	45.76
737.894	46.46
738.076	46.02
738.258	44.28
738.44	46.75
738.622	47.78
738.804	48.89
738.986	47.23
739.168	48.12
739.35	46.87
739.532	46.35
739.714	46.06
739.896	45.55
740.078	46.06
740.259	47.49
740.441	46.25
740.623	45.81
740.805	44.97
740.987	46.21
741.168	45.75
741.35	45.46
741.532	45.11
741.714	43.81
741.895	44.18
742.077	42.09
742.259	42.17
742.44	39.99
742.622	39.87
742.804	40.16
742.985	40.19
743.167	40.28
743.348	42.35
743.53	42.72
743.711	43.6
743.893	43.58
744.075	45.62
744.256	45.75
744.438	46.66
744.619	48.27
744.8	47.9
744.982	49.15
745.163	50.85
745.345	49.28
745.526	50.24
745.707	50.85
745.889	52.75
746.07	53
746.252	49.33
746.433	48.84
746.614	47.73
746.795	46.86
746.977	47.83
747.158	48.02
747.339	46.32
747.52	44.59
747.702	43.63
747.883	43.56
748.064	41.9
748.245	44.28
748.426	45.17
748.607	45.91
748.788	48.83
748.97	47.04
749.151	47.34
749.332	49.71
749.513	50.81
749.694	50.3
749.875	52.33
750.056	52.91
750.237	53.99
750.418	54.75
750.599	54.69
750.78	52.01
750.96	50.69
751.141	50.43
751.322	49.93
751.503	49.83
751.684	52.91
751.865	50.33
752.046	50.71
752.226	48.99
752.407	47.94
752.588	48.49
752.769	49.74
752.949	52.46
753.13	51.69
753.311	52.79
753.492	52.19
753.672	50.28
753.853	49.32
754.034	50.5
754.214	48.94
754.395	51.31
754.575	50
754.756	50.67
754.937	50.69
755.117	50.82
755.298	50.5
755.478	51.44
755.659	51.88
755.839	50.96
756.02	50.07
756.2	54.99
756.381	52.16
756.561	52.43
756.741	52.35
756.922	51.03
757.102	50.51
757.283	50.67
757.463	48.54
757.643	48.84
757.823	50.32
758.004	50.34
758.184	48.42
758.364	48.35
758.545	50.1
758.725	49.38
758.905	52.53
759.085	49.87
759.265	48.45
759.446	51.09
759.626	51.92
759.806	48.7
759.986	47.81
760.166	47.79
760.346	48.54
760.526	47.01
760.706	46.01
760.886	43.3
761.066	46.8
761.246	47.61
761.426	45.62
761.606	43.4
761.786	43.99
761.966	43.09
762.146	43.47
762.326	42.02
762.506	40.93
762.686	41.17
762.866	42.44
763.046	40.35
763.225	39.88
763.405	39.47
763.585	39.24
763.765	40.6
763.945	41.77
764.124	41.01
764.304	41.4
764.484	41.81
764.664	41.04
764.843	39.57
765.023	41.01
765.203	40.56
765.382	40.22
765.562	40.46
765.741	40.88
765.921	41.87
766.101	42.38
766.28	43.54
766.46	43.31
766.639	44.15
766.819	44.27
766.998	43.6
767.178	43.49
767.357	45.9
767.537	48.6
767.716	47.31
767.896	47.14
768.075	47.77
768.254	47.8
768.434	47.56
768.613	49.15
768.792	50.75
768.972	50.09
769.151	52.52
769.33	53.32
769.51	50.44
769.689	53.98
769.868	53.42
770.047	51.85
770.226	50.73
770.406	52.77
770.585	53.42
770.764	52.15
770.943	53.48
771.122	50.62
771.301	50.74
771.48	52.04
771.66	50.9
771.839	52.98
772.018	54.77
772.197	58.23
772.376	59.84
772.555	60.14
772.734	60.82
772.913	62.05
773.092	62.58
773.271	62.49
773.449	63.42
773.628	62.77
773.807	63.41
773.986	64.72
774.165	63.28
774.344	62.21
774.523	60.1
774.701	60.01
774.88	61.64
775.059	61.83
775.238	61.59
775.417	62.02
775.595	61.73
775.774	58.76
775.953	55.69
776.131	53.52
776.31	54.09
776.489	55.04
776.667	52.29
776.846	49.58
777.025	51.32
777.203	49.72
777.382	49.26
777.56	49.3
777.739	49.29
777.917	51.98
778.096	54.15
778.274	53.24
778.453	52.16
778.631	53.68
778.81	56.45
778.988	53.98
779.166	54.31
779.345	56.49
779.523	60.23
779.702	62.77
779.88	64.96
780.058	65.02
780.237	65.1
780.415	70.2
780.593	69.53
780.771	68.51
780.95	72.03
781.128	73
781.306	68.7
781.484	64.27
781.662	63.47
781.841	62.29
782.019	61.02
782.197	61.43
782.375	55.88
782.553	58.71
782.731	62.27
782.909	63.73
783.087	62.09
783.265	67.56
783.443	69.58
783.621	66.7
783.799	65.13
783.977	69.57
784.155	69.75
784.333	68.93
784.511	63.7
784.689	61.35
784.867	59.2
785.045	62.47
785.223	59.62
785.4	59.84
785.578	61.24
785.756	61.31
785.934	59.74
786.112	60.9
786.289	63.66
786.467	68.35
786.645	68.64
786.823	69.16
787	69.77
787.178	71.72
787.356	71.49
787.533	71.28
787.711	69.26
787.889	68.65
788.066	65.06
788.244	69.24
788.421	70.08
788.599	67.53
788.776	69.33
788.954	66.49
789.131	62.83
789.309	61.23
789.486	62.1
789.664	65.52
789.841	66.47
790.019	69.92
790.196	66.16
790.373	65.92
790.551	67.88
790.728	68.97
790.906	72.45
791.083	75.15
791.26	75.64
791.437	71.74
791.615	70.37
791.792	69.35
791.969	69.62
792.146	68.09
792.324	63.68
792.501	63.42
792.678	60.2
792.855	53.78
793.032	56.3
793.209	56.53
793.387	62.56
793.564	66.29
793.741	67.26
793.918	67.8
794.095	66.99
794.272	71.15
794.449	69.77
794.626	76.48
794.803	76.13
794.98	70.86
795.157	70.32
795.334	66.65
795.511	62.42
795.688	61.35
795.864	60.98
796.041	59.58
796.218	60.33
796.395	59.08
796.572	55.39
796.749	58.87
796.925	59.98
797.102	61.8
797.279	60.39
797.456	62.19
797.632	63.85
797.809	66.44
797.986	71.56
798.162	73.21
798.339	79
798.516	80.41
798.692	80.88
798.869	84.55
799.046	84.58
799.222	83.04
799.399	85.14
799.575	80.97
799.752	78.33
799.928	75.79
800.105	66.83
800.281	66.13
800.458	60.61
800.634	56.98
800.811	55.43
800.987	57.03
801.163	58.08
801.34	54.34
801.516	56.13
801.692	54.73
801.869	56.03
802.045	56.57
802.221	53.91
802.398	62.5
802.574	60.37
802.75	63.2
802.926	64.88
803.103	67.8
803.279	63.67
803.455	64.51
803.631	69.14
803.807	67.94
803.983	77.38
804.16	78.93
804.336	77.63
804.512	82.43
804.688	83.01
804.864	80.79
805.04	77.99
805.216	84.27
805.392	88.36
805.568	82.5
805.744	80.17
805.92	76.09
806.096	75.89
806.272	81.95
806.448	81.73
806.623	80.01
806.799	79.55
806.975	79.97
807.151	81.59
807.327	78.46
807.503	79.43
807.678	84.06
807.854	86.73
808.03	84.28
808.206	81.04
808.381	79.78
808.557	72.28
808.733	72.55
808.908	69.95
809.084	69.02
809.26	70.06
809.435	72.18
809.611	68.3
809.787	67.71
809.962	75.34
810.138	70.41
810.313	77.93
810.489	83.35
810.664	83.24
810.84	83.15
811.015	77.75
811.191	77.49
811.366	75.57
811.542	82.44
811.717	83.11
811.892	74.53
812.068	79.19
812.243	78.84
812.419	82.34
812.594	83.08
812.769	82.59
812.944	91.26
813.12	87.14
813.295	90.03
813.47	80.51
813.645	77.78
813.821	86.27
813.996	88.04
814.171	87.5
814.346	86.72
814.521	88.58
814.697	89.27
814.872	84.51
815.047	89.31
815.222	83.93
815.397	87.58
815.572	90.44
815.747	90.06
815.922	80.22
816.097	76.7
816.272	73.9
816.447	69.78
816.622	69.59
816.797	69.73
816.972	67.4
817.147	68.39
817.322	68.33
817.496	63.58
817.671	59.92
817.846	65.04
818.021	65.16
818.196	63.68
818.371	68.48
818.545	70.56
818.72	68.03
818.895	69.38
819.069	67.5
819.244	69.84
819.419	71.37
819.594	65.98
819.768	60.49
819.943	57.46
820.117	53.25
820.292	50.72
820.467	47.89
820.641	47.75
820.816	43.41
820.99	42.5
821.165	39.44
821.339	38.76
821.514	38.71
821.688	37.75
821.863	36.62
822.037	37.89
822.212	37.23
822.386	37.08
822.56	36.67
822.735	37.44
822.909	37.05
823.084	37.71
823.258	36.56
823.432	36.89
823.606	37.71
823.781	37.74
823.955	38.7
824.129	38.48
824.303	38.82
824.478	39.33
824.652	40.21
824.826	40.61
825	41.81
825.174	43.1
825.348	42.76
825.523	42.04
825.697	43.03
825.871	41.64
826.045	41.74
826.219	43.27
826.393	43.58
826.567	42.99
826.741	45.73
826.915	45.34
827.089	47.49
827.263	49.06
827.437	50.98
827.611	54.13
827.784	54.58
827.958	56.36
828.132	56.03
828.306	55.43
828.48	56.43
828.654	54.36
828.827	54.37
829.001	53.97
829.175	53.27
829.349	52.73
829.522	52.21
829.696	51.43
829.87	51
830.044	55.31
830.217	57.63
830.391	60.98
830.565	61.4
830.738	66.3
830.912	65.6
831.085	65.25
831.259	62.38
831.432	63.95
831.606	70.09
831.779	69.28
831.953	64.67
832.126	64.79
832.3	62.42
832.473	63.73
832.647	62.23
832.82	65.18
832.994	65.27
833.167	63.56
833.34	61.29
833.514	59.47
833.687	58.71
833.86	57.58
834.034	56.19
834.207	54.08
834.38	55.28
834.553	54.23
834.727	52.36
834.9	54.24
835.073	60.08
835.246	59.58
835.419	60.62
835.593	64.49
835.766	67.14
835.939	66.38
836.112	71.51
836.285	68.21
836.458	74.34
836.631	72.36
836.804	73.04
836.977	68.5
837.15	72.56
837.323	68.26
837.496	68.72
837.669	67.57
837.842	74.14
838.015	75.7
838.188	84.36
838.361	78.48
838.533	87.42
838.706	84.39
838.879	87.59
839.052	87.7
839.225	100
839.398	100.37
839.57	109.35
839.743	107.11
839.916	108.56
840.088	102.07
840.261	109.1
840.434	118.73
840.607	113.96
840.779	120.82
840.952	115.49
841.124	102.52
841.297	109.97
841.47	101.74
841.642	107.73
841.815	111.14
841.987	121.23
842.16	113.93
842.332	109.46
842.505	124.7
842.677	108.41
842.85	141.06
843.022	145.92
843.194	154.61
843.367	164.59
843.539	155.16
843.712	132.52
843.884	130.2
844.056	134.95
844.229	132.51
844.401	136.02
844.573	140.45
844.745	127.55
844.918	135.63
845.09	126.5
845.262	121.22
845.434	120.85
845.606	123.95
845.779	119.56
845.951	111.58
846.123	99.84
846.295	99.04
846.467	109.14
846.639	102.13
846.811	96.07
846.983	101.01
847.155	118.48
847.327	120.85
847.499	136.75
847.671	165.81
847.843	172.66
848.015	254.92
848.187	240.11
848.359	221.66
848.531	237.6
848.703	230.68
848.875	281.24
849.047	260.24
849.218	321.79
849.39	285.18
849.562	229.89
849.734	211.5
849.905	179.23
850.077	188.14
850.249	268.16
850.421	298
850.592	289.81
850.764	248.48
850.936	218.89
851.107	262.87
851.279	310.57
851.451	250.87
851.622	249.78
851.794	209.52
851.965	196.59
852.137	175.86
852.308	177.39
852.48	182.6
852.651	189.12
852.823	184.4
852.994	171.85
853.166	171.46
853.337	181.91
853.509	197.82
853.68	253.53
853.851	239.55
854.023	287.35
854.194	264.7
854.365	300
854.537	270.62
854.708	422.73
854.879	680.51
855.05	574.19
855.222	475.49
855.393	291.77
855.564	320.79
855.735	328.18
855.906	259.9
856.078	277.14
856.249	309.6
856.42	295.05
856.591	260.15
856.762	248.13
856.933	291.99
857.104	341.67
857.275	374.94
857.446	226.91
857.617	210.06
857.788	210.34
857.959	177.85
858.13	153.15
858.301	177.45
858.472	180.74
858.643	189.24
858.814	240.78
858.985	223.14
859.155	235.44
859.326	339.05
859.497	353.26
859.668	323.25
859.839	565.19
860.009	394.51
860.18	282.87
860.351	221.85
860.522	216.52
860.692	168.92
860.863	173.52
861.034	163.76
861.204	134.95
861.375	135.65
861.546	143.65
861.716	131.57
861.887	124.71
862.057	150.07
862.228	144.55
862.398	172.37
862.569	157.91
862.739	150.73
862.91	154.38
863.08	197.13
863.251	184.5
863.421	180.63
863.592	191.07
863.762	220.37
863.932	168.65
864.103	221.77
864.273	158.36
864.443	195.13
864.614	183.25
864.784	193.03
864.954	196.56
865.125	224.35
865.295	226.84
865.465	220.6
865.635	252.52
865.805	257.21
865.976	238.99
866.146	261.11
866.316	277.95
866.486	407.21
866.656	266.67
866.826	256.76
866.996	228.79
867.166	229.87
867.336	220.15
867.506	175.67
867.676	179.88
867.846	173.49
868.016	198.86
868.186	179.98
868.356	152.29
868.526	176.41
868.696	191.39
868.866	184.55
869.036	179
869.206	171.83
869.376	187.37
869.545	181.02
869.715	202.15
869.885	216.61
870.055	227.73
870.224	289.4
870.394	419.12
870.564	319.58
870.734	369.42
870.903	338.85
871.073	411.17
871.243	318.99
871.412	341.14
871.582	287.07
871.751	268.17
871.921	254.97
872.091	204.89
872.26	182.19
872.43	139.78
872.599	132.46
872.769	144.63
872.938	129.09
873.108	173.73
873.277	168.65
873.446	192.42
873.616	162.03
873.785	194.54
873.955	282.41
874.124	223.3
874.293	586.67
874.463	650.9
874.632	669.7
874.801	879.83
874.971	273.21
875.14	293.19
875.309	205.21
875.478	207.89
875.647	193.51
875.817	154.23
875.986	171.66
876.155	172.53
876.324	186.72
876.493	194.74
876.662	165.14
876.831	193.8
877	189.08
877.17	224.58
877.339	275.98
877.508	213.08
877.677	228.59
877.846	260.15
878.015	214.22
878.184	176.62
878.352	174.19
878.521	172.7
878.69	179.32
878.859	154.52
879.028	152.95
879.197	130.18
879.366	149.05
879.534	147
879.703	127.05
879.872	122.32
880.041	124.59
880.21	105.02
880.378	99.5
880.547	87.14
880.716	97.24
880.884	86.53
881.053	81.52
881.222	75.64
881.39	70.81
881.559	66.19
881.727	63.61
881.896	59.99
882.065	60.47
882.233	61.01
882.402	59.8
882.57	54.15
882.739	55.5
882.907	55.98
883.076	57.47
883.244	60.19
883.412	59.35
883.581	57.8
883.749	59.4
883.918	61.16
884.086	63.74
884.254	65.92
884.423	68.73
884.591	70.85
884.759	69.1
884.927	60.31
885.096	57.3
885.264	64.43
885.432	75.08
885.6	76.3
885.769	79.87
885.937	83.57
886.105	88.98
886.273	87.39
886.441	91.67
886.609	107.34
886.777	136.67
886.945	155.18
887.113	153.26
887.281	171.7
887.449	184.58
887.617	180.33
887.785	198.29
887.953	181.81
888.121	195.22
888.289	209.18
888.457	246.59
888.625	284.36
888.793	218.02
888.961	225.7
889.129	158.06
889.296	160.96
889.464	174.2
889.632	148.34
889.8	178.85
889.967	186.66
890.135	182.12
