Data from JASIL_3283_Reflection_1.txt Node
Date: Tue Nov 17 19:17:12 EST 2015
User: Geneva
Spectrometer: USB4E03002
Autoset integration time: false
Trigger mode: 4
Integration Time (sec): 1.000000E-1
Scans to average: 10
Electric dark correction enabled: false
Nonlinearity correction enabled: false
Boxcar width: 5
Stray light correction enabled: false
XAxis mode: Wavelengths
Stop averaging: false
Number of Pixels in Spectrum: 3648
>>>>>Begin Spectral Data<<<<<
177.575	426.47
177.794	295.96
178.014	438.16
178.233	3325
178.452	-1054.17
178.672	-68.72
178.891	-117.5
179.11	46.87
179.33	109.77
179.549	155.97
179.768	123.91
179.987	31.2
180.207	-225
180.426	-217.39
180.645	375.96
180.864	174.82
181.084	109.24
181.303	96.7
181.522	118.95
181.741	107.72
181.96	131.53
182.179	158.09
182.398	197
182.618	264.52
182.837	285.26
183.056	-3091.67
183.275	-67.02
183.494	-28.89
183.713	-5.89
183.932	-18.75
184.151	-40.71
184.37	-38.69
184.589	-7.54
184.808	-11.97
185.027	-3.67
185.246	-9.67
185.465	-46.36
185.684	-1875
185.903	245.13
186.122	227.49
186.341	180.27
186.56	186.97
186.779	155.68
186.998	125.93
187.216	136.31
187.435	154.31
187.654	238.11
187.873	358.04
188.092	312.74
188.311	244.86
188.53	185.27
188.748	208.06
188.967	236.11
189.186	284.51
189.405	218.04
189.623	174.11
189.842	199.34
190.061	164.14
190.28	116.67
190.498	133.78
190.717	-2700
190.936	-133.98
191.154	47.54
191.373	74.68
191.592	-172.73
191.81	189.21
192.029	19.23
192.248	920
192.466	64.53
192.685	49.25
192.904	32.22
193.122	25.47
193.341	38.32
193.559	48.59
193.778	76.36
193.996	100.48
194.215	107.69
194.433	142.63
194.652	92.59
194.87	324.71
195.089	133.56
195.307	309.09
195.526	1272.41
195.744	-276.32
195.963	190.86
196.181	127.91
196.399	92.34
196.618	93.43
196.836	126.7
197.055	169.13
197.273	214.29
197.491	290.55
197.71	451.3
197.928	563.01
198.146	117.9
198.365	179.66
198.583	150.71
198.801	181.94
199.019	187.21
199.238	126.27
199.456	79.58
199.674	57.87
199.892	75.57
200.111	62.55
200.329	69.74
200.547	91.61
200.765	75.5
200.983	56.97
201.202	105.23
201.42	121.04
201.638	149.63
201.856	1004.08
202.074	-3446.15
202.292	2188.24
202.51	-1107.41
202.728	273.1
202.946	274.3
203.165	279.4
203.383	341.45
203.601	660
203.819	260.32
204.037	368.53
204.255	283.64
204.473	198.25
204.691	194.69
204.909	172.98
205.127	180.1
205.345	221.71
205.562	357.45
205.78	621.74
205.998	223.58
206.216	193.06
206.434	167.66
206.652	186.68
206.87	190.82
207.088	211.31
207.306	273.77
207.523	169.31
207.741	192.53
207.959	109.17
208.177	84.25
208.395	88.93
208.612	85.79
208.83	81.77
209.048	56.16
209.266	57.82
209.483	39.9
209.701	47.45
209.919	48.4
210.136	50.44
210.354	47.48
210.572	78.3
210.79	113.35
211.007	139.53
211.225	133.88
211.442	132.58
211.66	128.27
211.878	116.22
212.095	83.05
212.313	94.2
212.53	91.64
212.748	103.72
212.966	88.38
213.183	64.51
213.401	62.67
213.618	64.82
213.836	120.96
214.053	155.11
214.271	148.58
214.488	328.57
214.705	207.14
214.923	216.54
215.14	155.48
215.358	119.7
215.575	152.78
215.793	151.47
216.01	145.59
216.227	101.85
216.445	80.87
216.662	99.25
216.879	99.28
217.097	81.03
217.314	66.99
217.531	80.31
217.749	107.72
217.966	93.79
218.183	104.38
218.4	103.78
218.618	114.43
218.835	122.99
219.052	93.59
219.269	94.86
219.487	104.48
219.704	84.54
219.921	90.32
220.138	40.21
220.355	34.1
220.572	31.73
220.79	-2.64
221.007	37.65
221.224	1.6
221.441	17.06
221.658	25.44
221.875	20.92
222.092	4.32
222.309	14.37
222.526	27.32
222.743	-8.91
222.96	26.01
223.177	41
223.394	8.08
223.611	31.38
223.828	31.74
224.045	14.32
224.262	21.67
224.479	40.54
224.696	31.32
224.913	48.95
225.13	43.35
225.347	38.17
225.564	34.68
225.781	35.88
225.997	46.75
226.214	38.76
226.431	37.15
226.648	32.51
226.865	26.21
227.082	27.13
227.298	20.38
227.515	20.24
227.732	16.77
227.949	17.22
228.165	17.35
228.382	10.22
228.599	4.22
228.816	5.24
229.032	3.04
229.249	4.24
229.466	10.93
229.682	13.46
229.899	15.34
230.116	16.01
230.332	21.26
230.549	19.25
230.765	16.62
230.982	33.02
231.199	22.43
231.415	26.3
231.632	24.59
231.848	1.09
232.065	-1.07
232.281	0.46
232.498	-6.54
232.714	-10.51
232.931	-5.27
233.147	0.35
233.364	-8.45
233.58	1.94
233.797	5.8
234.013	3.77
234.23	8.38
234.446	4.35
234.662	7.86
234.879	13.8
235.095	13.84
235.312	16.18
235.528	24.83
235.744	30.89
235.961	38.28
236.177	30.69
236.393	40.27
236.61	31.51
236.826	30.58
237.042	30.65
237.258	31.35
237.475	37.05
237.691	41.52
237.907	29.98
238.123	26.45
238.339	23.05
238.556	19.47
238.772	18.02
238.988	24.06
239.204	28.82
239.42	22.8
239.636	17.65
239.853	14.11
240.069	8.88
240.285	12.65
240.501	14
240.717	11.13
240.933	13.97
241.149	11.48
241.365	8.81
241.581	9.56
241.797	8.35
242.013	11.07
242.229	12.04
242.445	13.58
242.661	15.93
242.877	12.6
243.093	10.29
243.309	6.04
243.525	3.52
243.741	7.01
243.957	-1.01
244.173	5.02
244.388	2.33
244.604	1.83
244.82	0.78
245.036	-0.18
245.252	2.99
245.468	5.39
245.683	5.83
245.899	7.76
246.115	6.34
246.331	9.66
246.547	10.22
246.762	10.63
246.978	9.47
247.194	11.1
247.409	12.49
247.625	13.05
247.841	15.99
248.057	16.89
248.272	16.29
248.488	18.6
248.703	17.13
248.919	17.14
249.135	16.84
249.35	19.33
249.566	19.37
249.782	20.93
249.997	20.24
250.213	15.89
250.428	16.65
250.644	13.59
250.859	14.06
251.075	12.83
251.29	10.53
251.506	10.54
251.721	9.67
251.937	6.95
252.152	-1.42
252.368	-1.83
252.583	2.14
252.798	1.87
253.014	6.72
253.229	5.94
253.445	8.01
253.66	10.27
253.875	9.59
254.091	12.65
254.306	17.44
254.521	24.8
254.737	22.57
254.952	17.53
255.167	18.22
255.383	19.96
255.598	18.32
255.813	16.32
256.028	16
256.244	15.56
256.459	14.18
256.674	10.25
256.889	7.55
257.104	6.57
257.32	8.47
257.535	7
257.75	5.36
257.965	6.47
258.18	5.74
258.395	6.01
258.61	6.71
258.826	6.34
259.041	7.14
259.256	8.8
259.471	10.18
259.686	8.32
259.901	9.39
260.116	10.79
260.331	10.24
260.546	10.62
260.761	10.3
260.976	10.81
261.191	9.61
261.406	10.65
261.621	9.38
261.836	8.03
262.05	10.06
262.265	7.08
262.48	7.6
262.695	5.02
262.91	4.73
263.125	6.11
263.34	6.8
263.555	7.19
263.769	4.24
263.984	5.77
264.199	6.46
264.414	6.27
264.629	8.48
264.843	6.19
265.058	9
265.273	11.63
265.488	8.22
265.702	7.93
265.917	9.69
266.132	8.38
266.346	8.46
266.561	11.54
266.776	13.86
266.99	13.12
267.205	13.13
267.42	14.16
267.634	14.2
267.849	15.64
268.063	16.51
268.278	16.12
268.492	18.54
268.707	14.72
268.922	9.6
269.136	9.81
269.351	11.35
269.565	9.88
269.78	8.22
269.994	6.12
270.209	7.11
270.423	7.65
270.637	7.38
270.852	4.88
271.066	6.49
271.281	8.21
271.495	8.18
271.709	7.25
271.924	8.09
272.138	10.29
272.353	9.27
272.567	10.57
272.781	9.84
272.996	10.62
273.21	12.47
273.424	11.96
273.638	11.17
273.853	9.94
274.067	9.27
274.281	10.98
274.495	7.23
274.71	9.35
274.924	7.43
275.138	6.66
275.352	7.24
275.566	6.37
275.781	6.05
275.995	6.78
276.209	7.96
276.423	9.62
276.637	8.85
276.851	8.67
277.065	8.6
277.279	9.31
277.493	9.99
277.707	9.75
277.921	11
278.135	10.75
278.349	11.61
278.563	9.67
278.777	8.71
278.991	8.28
279.205	10.43
279.419	10.11
279.633	7.45
279.847	8.42
280.061	8.25
280.275	9.39
280.489	12.67
280.703	11.89
280.917	11.81
281.131	10.83
281.344	10.74
281.558	7.96
281.772	7.63
281.986	7.84
282.2	6.56
282.414	6.06
282.627	4.58
282.841	3.14
283.055	2.92
283.269	2.22
283.482	3.55
283.696	4.06
283.91	5.04
284.123	4.88
284.337	5.7
284.551	6.59
284.764	5.9
284.978	6.73
285.192	6.82
285.405	5.23
285.619	6.85
285.833	8.28
286.046	8.19
286.26	8.24
286.473	7.88
286.687	8.12
286.9	7.94
287.114	7.58
287.327	7.22
287.541	4.68
287.754	7.18
287.968	5.79
288.181	3.44
288.395	4.13
288.608	4.42
288.822	6.29
289.035	7.46
289.248	6.88
289.462	8.33
289.675	5.7
289.889	7.83
290.102	6.56
290.315	5.6
290.529	5.95
290.742	5.05
290.955	4.33
291.169	3.77
291.382	3.46
291.595	4
291.808	3.82
292.022	6.71
292.235	5.72
292.448	6.57
292.661	7.5
292.875	7.75
293.088	6.99
293.301	8.38
293.514	7.93
293.727	8.44
293.94	8.17
294.153	6.92
294.367	7.06
294.58	5.57
294.793	6.01
295.006	5.58
295.219	3.37
295.432	5.32
295.645	5.73
295.858	5.26
296.071	4.93
296.284	4.93
296.497	5.84
296.71	4.82
296.923	5.84
297.136	4.9
297.349	7.3
297.562	8.52
297.775	7.58
297.988	7.1
298.201	6.84
298.414	6.21
298.626	6.68
298.839	5.53
299.052	4.58
299.265	5.06
299.478	6.37
299.691	3.65
299.903	3.95
300.116	2.05
300.329	1.73
300.542	4.22
300.755	4.22
300.967	4.89
301.18	6.74
301.393	7.18
301.605	7.46
301.818	6.53
302.031	6.91
302.243	7.79
302.456	9.39
302.669	10.25
302.881	10.66
303.094	10.84
303.307	8.63
303.519	7.76
303.732	9.57
303.944	9.82
304.157	10.67
304.37	11.62
304.582	10.18
304.795	11.56
305.007	11.11
305.22	10.01
305.432	8.94
305.645	8.81
305.857	9.72
306.069	8.92
306.282	9.25
306.494	7.72
306.707	6.76
306.919	6.73
307.132	6.53
307.344	7.43
307.556	7.59
307.769	6.72
307.981	8.15
308.193	7.22
308.406	7.06
308.618	7.08
308.83	8.08
309.043	7.45
309.255	9.32
309.467	7.68
309.679	6.61
309.892	4.81
310.104	6.3
310.316	5.63
310.528	6.29
310.74	6.93
310.953	6.99
311.165	5.86
311.377	6.95
311.589	6.09
311.801	7.43
312.013	8.5
312.225	9.91
312.437	10.48
312.649	10.62
312.862	8.78
313.074	8.46
313.286	6.85
313.498	9.15
313.71	8.09
313.922	9.21
314.134	8.47
314.346	8.08
314.558	8.8
314.77	8.58
314.982	9.05
315.193	10.81
315.405	10.39
315.617	12.44
315.829	11.71
316.041	10.92
316.253	10.26
316.465	9.49
316.677	10.55
316.888	9.28
317.1	7.8
317.312	6.74
317.524	7.55
317.736	10.25
317.947	10.55
318.159	9.88
318.371	9.65
318.583	10.01
318.794	11.96
319.006	11.16
319.218	10.59
319.43	11.17
319.641	13.03
319.853	12.54
320.064	9.53
320.276	7
320.488	8.11
320.699	9.73
320.911	8.03
321.123	6.4
321.334	5.02
321.546	4.86
321.757	4.74
321.969	3.4
322.18	2.25
322.392	4.27
322.603	5.84
322.815	4.75
323.026	5.51
323.238	6.44
323.449	7.82
323.661	8.85
323.872	11.12
324.083	11.23
324.295	11.63
324.506	12.59
324.718	12.71
324.929	10.74
325.14	11.31
325.352	11.09
325.563	10.83
325.774	10.31
325.986	11.95
326.197	12.71
326.408	13.22
326.62	14.37
326.831	14.43
327.042	13.54
327.253	15.88
327.464	16.04
327.676	16.7
327.887	16.72
328.098	17.12
328.309	16.02
328.52	16.14
328.732	16.3
328.943	15.34
329.154	14.07
329.365	13.61
329.576	14.11
329.787	14.2
329.998	13.52
330.209	13.89
330.42	12.87
330.631	12.78
330.842	11.05
331.053	11.47
331.264	12.58
331.475	15.18
331.686	15.72
331.897	15.41
332.108	14.52
332.319	15.04
332.53	14.19
332.741	15.14
332.952	12.44
333.163	12.84
333.374	12.9
333.585	12.49
333.795	11.65
334.006	11.69
334.217	10.82
334.428	11.48
334.639	11.63
334.849	11.72
335.06	10.22
335.271	12.98
335.482	12.68
335.692	12.8
335.903	12.11
336.114	12.18
336.325	12.09
336.535	12.58
336.746	13.53
336.957	11.79
337.167	12.16
337.378	12.94
337.589	11.58
337.799	10.03
338.01	9.88
338.22	10.17
338.431	9.24
338.642	6.86
338.852	6.86
339.063	4.82
339.273	6.1
339.484	5.83
339.694	5.82
339.905	6.79
340.115	8.13
340.326	7.84
340.536	8.14
340.746	8.26
340.957	11.69
341.167	11.32
341.378	12.01
341.588	11.65
341.799	13.06
342.009	12.21
342.219	12.42
342.43	13.05
342.64	13.27
342.85	12.57
343.061	12.59
343.271	11.9
343.481	12.49
343.691	13.38
343.902	13.48
344.112	12.52
344.322	13.05
344.532	12.54
344.743	11.89
344.953	11.3
345.163	12.23
345.373	11.94
345.583	12.39
345.793	12.54
346.004	11.59
346.214	10.82
346.424	10.95
346.634	10.79
346.844	11.31
347.054	10.92
347.264	10.97
347.474	10.02
347.684	10.33
347.894	9.81
348.104	9.49
348.314	9.64
348.524	10.26
348.734	10.36
348.944	10.14
349.154	9.87
349.364	10.13
349.574	9.91
349.784	9.82
349.994	9.88
350.204	10.29
350.413	10.58
350.623	10.36
350.833	10.96
351.043	11.09
351.253	11.84
351.463	11.84
351.672	11.9
351.882	12.95
352.092	13.82
352.302	14.27
352.511	13.63
352.721	12.9
352.931	12.3
353.141	11.01
353.35	11.06
353.56	11.72
353.77	11.35
353.979	11.42
354.189	12.13
354.399	11.35
354.608	11.91
354.818	11.98
355.027	12.46
355.237	13.58
355.447	14.22
355.656	13.47
355.866	13.7
356.075	14.16
356.285	14.31
356.494	13.08
356.704	13.59
356.913	12.68
357.123	13.4
357.332	12.93
357.542	11.81
357.751	11.62
357.96	12.19
358.17	11.5
358.379	11.21
358.589	10.11
358.798	10.17
359.007	9.9
359.217	9.49
359.426	9.05
359.635	9.39
359.845	10.34
360.054	10.09
360.263	9.83
360.472	9.58
360.682	9.65
360.891	10.31
361.1	9.68
361.309	9.55
361.519	9.94
361.728	10.08
361.937	9.76
362.146	9.2
362.355	10.42
362.564	10.14
362.774	9.48
362.983	8.76
363.192	8.83
363.401	8.88
363.61	8.92
363.819	8.31
364.028	8.15
364.237	7.51
364.446	7.65
364.655	6.45
364.864	6.18
365.073	7.1
365.282	7.83
365.491	8.03
365.7	9.01
365.909	9.33
366.118	9.59
366.327	10.14
366.536	10.28
366.745	9.54
366.954	9.73
367.162	10.06
367.371	9.95
367.58	10.37
367.789	10.15
367.998	10.61
368.207	10.25
368.415	10.47
368.624	9.06
368.833	9.42
369.042	10.28
369.25	10.49
369.459	10.64
369.668	9.84
369.877	8.57
370.085	8.76
370.294	7.69
370.503	8.01
370.711	7.08
370.92	7.47
371.129	7.14
371.337	5.9
371.546	5.35
371.754	5.78
371.963	6.19
372.171	6.73
372.38	6.79
372.589	7.09
372.797	6.43
373.006	6.81
373.214	7.67
373.423	7.6
373.631	7.38
373.84	7.86
374.048	7.88
374.256	7.62
374.465	8
374.673	8.37
374.882	8.34
375.09	8.73
375.298	9.25
375.507	8.59
375.715	8.34
375.923	9.76
376.132	9.6
376.34	8.7
376.548	8.35
376.757	8.95
376.965	8.92
377.173	8.46
377.381	8.41
377.59	8.86
377.798	9.42
378.006	10.42
378.214	10.18
378.423	9.62
378.631	11.07
378.839	11.89
379.047	10.68
379.255	9.9
379.463	10.07
379.671	10.1
379.879	10.1
380.088	9.31
380.296	8.25
380.504	8.38
380.712	8.8
380.92	8.16
381.128	7.83
381.336	8.25
381.544	9.23
381.752	9.23
381.96	9.57
382.168	8.7
382.376	9.15
382.584	9.15
382.791	8.68
382.999	8.77
383.207	8.02
383.415	8.43
383.623	7.88
383.831	6.98
384.039	7
384.247	5.83
384.454	5.54
384.662	5.45
384.87	6.6
385.078	6.63
385.285	6.23
385.493	6.97
385.701	6.6
385.909	7.8
386.116	7.92
386.324	8.24
386.532	8.65
386.739	9.07
386.947	9.35
387.155	8.53
387.362	9.17
387.57	9.53
387.778	9.54
387.985	9.44
388.193	9.51
388.4	9.73
388.608	9.26
388.816	9.51
389.023	9.67
389.231	9.03
389.438	9.53
389.646	8.52
389.853	8.57
390.061	7.83
390.268	7.99
390.475	6.95
390.683	6.93
390.89	7.19
391.098	7.6
391.305	7.67
391.512	8.2
391.72	8.95
391.927	9.29
392.135	8.82
392.342	9.42
392.549	9.9
392.756	9.93
392.964	9.88
393.171	9.36
393.378	9.68
393.586	9.95
393.793	9.88
394	8.86
394.207	8.9
394.414	9.37
394.622	9.4
394.829	8.99
395.036	9.88
395.243	9.71
395.45	10.16
395.657	10.11
395.864	9.56
396.072	8.14
396.279	7.78
396.486	8.1
396.693	8.16
396.9	7.68
397.107	7.63
397.314	7.73
397.521	7.45
397.728	7.6
397.935	7.01
398.142	7.26
398.349	8.79
398.556	9.37
398.763	9.43
398.97	9.37
399.177	10.25
399.383	10.61
399.59	9.83
399.797	10.41
400.004	10.48
400.211	10.6
400.418	10.7
400.625	10.48
400.831	10.08
401.038	10.09
401.245	9.58
401.452	9.48
401.658	9.59
401.865	9.16
402.072	9.47
402.279	9.05
402.485	8.6
402.692	8.6
402.899	8.74
403.105	8.73
403.312	8.29
403.519	8.1
403.725	7.51
403.932	7.25
404.138	7.8
404.345	6.68
404.552	6.49
404.758	6.73
404.965	6.5
405.171	6.81
405.378	7.57
405.584	7.59
405.791	8.42
405.997	8.43
406.204	8.28
406.41	7.65
406.617	8.27
406.823	8.82
407.029	8.58
407.236	8.31
407.442	7.92
407.649	7.31
407.855	7.51
408.061	7.48
408.268	7.6
408.474	7.94
408.68	7.88
408.887	8.04
409.093	8.09
409.299	8.39
409.505	8.14
409.712	8.08
409.918	8.64
410.124	8.88
410.33	8.7
410.537	8.94
410.743	8.28
410.949	9.22
411.155	9.11
411.361	8.87
411.567	8.34
411.773	9.24
411.98	8.8
412.186	8.71
412.392	9.04
412.598	9.68
412.804	9.39
413.01	10.25
413.216	9.45
413.422	8.8
413.628	9.15
413.834	9.52
414.04	9.68
414.246	9.83
414.452	9.22
414.658	8.53
414.864	7.96
415.07	7.86
415.275	6.95
415.481	7.48
415.687	8.02
415.893	7.68
416.099	7.63
416.305	6.98
416.511	7.12
416.716	7.96
416.922	8.18
417.128	8.27
417.334	8.43
417.539	8.92
417.745	8.92
417.951	8.87
418.157	8.76
418.362	8.97
418.568	8.83
418.774	8.73
418.979	8.2
419.185	7.88
419.391	7.82
419.596	7.81
419.802	7.88
420.008	8.02
420.213	8.08
420.419	8.17
420.624	8.11
420.83	8.21
421.035	8.2
421.241	8.38
421.446	8.78
421.652	8.87
421.857	8.63
422.063	8.64
422.268	8.28
422.474	8.21
422.679	8.22
422.885	8.17
423.09	8.18
423.295	8.54
423.501	8.3
423.706	8.01
423.911	7.73
424.117	7.89
424.322	7.55
424.527	7.72
424.733	7.56
424.938	7.41
425.143	7.36
425.349	7.32
425.554	7.17
425.759	7.58
425.964	7.62
426.169	8.06
426.375	7.92
426.58	8.12
426.785	8.06
426.99	8.46
427.195	9.08
427.4	9.42
427.605	9.86
427.811	9.63
428.016	8.93
428.221	9.03
428.426	8.79
428.631	8.73
428.836	8.78
429.041	9.01
429.246	8.44
429.451	8.1
429.656	7.88
429.861	7.76
430.066	7.96
430.271	8.27
430.476	7.96
430.681	7.88
430.886	8.47
431.09	8.66
431.295	8.21
431.5	8.55
431.705	8.32
431.91	8.81
432.115	9.05
432.32	9.04
432.524	9.01
432.729	9.12
432.934	9.03
433.139	8.69
433.343	8.51
433.548	8.42
433.753	8.48
433.958	8.62
434.162	8.28
434.367	8.17
434.572	7.88
434.776	7.53
434.981	7.49
435.186	8.11
435.39	8.29
435.595	8.15
435.799	8.51
436.004	8.37
436.209	8.16
436.413	7.84
436.618	7.67
436.822	7.7
437.027	8.05
437.231	8.33
437.436	7.56
437.64	7.47
437.845	7.81
438.049	7.9
438.253	7.57
438.458	7.92
438.662	7.54
438.867	7.33
439.071	7.4
439.275	7.52
439.48	7.42
439.684	7.57
439.888	7.58
440.093	7.76
440.297	7.69
440.501	7.99
440.706	7.87
440.91	8.31
441.114	8.54
441.318	8.61
441.523	8.45
441.727	8.08
441.931	8.17
442.135	7.91
442.339	7.59
442.543	7.63
442.748	7.73
442.952	7.84
443.156	7.92
443.36	8.06
443.564	7.56
443.768	7.49
443.972	7.65
444.176	7.56
444.38	7.83
444.584	7.81
444.788	7.88
444.992	7.73
445.196	7.65
445.4	7.42
445.604	7.52
445.808	7.73
446.012	7.58
446.216	7.75
446.42	7.86
446.624	8.19
446.828	8.02
447.032	7.97
447.235	7.92
447.439	8
447.643	8.32
447.847	8.35
448.051	8.49
448.254	8.65
448.458	8.72
448.662	8.59
448.866	8.25
449.069	8.64
449.273	8.32
449.477	8.69
449.681	8.26
449.884	8.02
450.088	7.73
450.292	7.7
450.495	7.86
450.699	7.68
450.902	7.99
451.106	7.76
451.31	7.58
451.513	7.78
451.717	7.6
451.92	8.01
452.124	8.02
452.327	7.93
452.531	7.63
452.734	7.58
452.938	7.88
453.141	7.51
453.345	7.76
453.548	7.54
453.752	7.31
453.955	7.24
454.158	7.05
454.362	7.32
454.565	7.49
454.769	7.96
454.972	7.96
455.175	7.96
455.379	8.3
455.582	8.42
455.785	8.95
455.988	9.22
456.192	9.24
456.395	9.21
456.598	9.19
456.801	9.05
457.005	9.14
457.208	9.17
457.411	9.19
457.614	9
457.817	8.41
458.021	8
458.224	7.93
458.427	7.64
458.63	7.8
458.833	7.9
459.036	7.74
459.239	7.58
459.442	7.35
459.645	7.13
459.848	7.29
460.051	7.56
460.254	7.78
460.457	7.73
460.66	8.14
460.863	7.97
461.066	7.62
461.269	7.87
461.472	7.96
461.675	8.05
461.878	8.33
462.081	8.37
462.284	8.72
462.486	8.46
462.689	8.53
462.892	8.7
463.095	8.82
463.298	8.99
463.5	8.9
463.703	8.66
463.906	9.11
464.109	8.63
464.311	8.35
464.514	7.84
464.717	8.05
464.92	8.1
465.122	8.22
465.325	8.13
465.528	8.07
465.73	7.8
465.933	7.89
466.135	7.9
466.338	8.25
466.541	8.32
466.743	8.63
466.946	8.64
467.148	8.74
467.351	8.04
467.553	8.14
467.756	8.4
467.958	8.95
468.161	8.8
468.363	8.59
468.566	8.44
468.768	8.09
468.971	7.94
469.173	8.03
469.375	7.75
469.578	7.78
469.78	8.05
469.983	7.84
470.185	7.6
470.387	7.89
470.59	8.1
470.792	8.29
470.994	8.3
471.196	8.21
471.399	8.4
471.601	8.61
471.803	9.13
472.005	8.96
472.208	9.02
472.41	8.76
472.612	8.89
472.814	9.03
473.016	8.97
473.218	9.42
473.421	9.52
473.623	9.37
473.825	9.4
474.027	9.52
474.229	9.69
474.431	9.64
474.633	9.55
474.835	9.29
475.037	8.97
475.239	8.84
475.441	8.39
475.643	8.43
475.845	8.18
476.047	8.15
476.249	7.65
476.451	7.39
476.653	7.47
476.855	7.87
477.057	8.12
477.258	7.78
477.46	7.96
477.662	8.11
477.864	8.07
478.066	8.27
478.268	8.1
478.469	8.4
478.671	8.59
478.873	8.57
479.075	8.48
479.276	8.12
479.478	8.14
479.68	8.1
479.882	8.13
480.083	8.26
480.285	8.17
480.487	8.22
480.688	8.08
480.89	7.85
481.091	7.65
481.293	7.23
481.495	7.43
481.696	7.53
481.898	7.36
482.099	7.39
482.301	7.38
482.502	7.28
482.704	7.12
482.905	7.11
483.107	7.07
483.308	7.05
483.51	7.1
483.711	6.99
483.913	7
484.114	7.06
484.315	7.02
484.517	6.87
484.718	6.87
484.92	6.98
485.121	6.96
485.322	7.04
485.524	7.05
485.725	7.33
485.926	7.28
486.127	7.31
486.329	7.29
486.53	7.36
486.731	7.37
486.932	7.44
487.134	7.51
487.335	7.51
487.536	7.59
487.737	7.59
487.938	7.57
488.139	7.56
488.341	7.54
488.542	7.44
488.743	7.42
488.944	7.44
489.145	7.64
489.346	7.69
489.547	7.68
489.748	7.58
489.949	7.57
490.15	7.42
490.351	7.66
490.552	7.62
490.753	7.76
490.954	7.69
491.155	7.82
491.356	7.68
491.557	7.54
491.758	7.63
491.959	7.5
492.159	7.63
492.36	7.72
492.561	7.49
492.762	7.77
492.963	7.85
493.164	8.19
493.364	8.14
493.565	8.1
493.766	8.58
493.967	8.61
494.167	8.85
494.368	8.8
494.569	8.84
494.769	9.19
494.97	8.85
495.171	8.68
495.371	8.71
495.572	8.72
495.773	8.61
495.973	8.48
496.174	8.47
496.375	8.49
496.575	8.45
496.776	8.41
496.976	8.38
497.177	8.46
497.377	8.58
497.578	8.37
497.778	8.27
497.979	8.59
498.179	8.52
498.38	8.5
498.58	8.62
498.78	8.97
498.981	8.88
499.181	8.7
499.382	8.79
499.582	8.56
499.782	8.45
499.983	8.7
500.183	8.74
500.383	8.9
500.584	9.18
500.784	9.32
500.984	9.14
501.184	9.44
501.385	9.74
501.585	9.74
501.785	10.19
501.985	10.41
502.185	10.44
502.386	10.25
502.586	10.26
502.786	9.9
502.986	9.96
503.186	10.21
503.386	10.33
503.586	10
503.786	9.98
503.987	9.84
504.187	9.62
504.387	9.74
504.587	9.76
504.787	9.71
504.987	9.76
505.187	9.63
505.387	9.74
505.587	9.39
505.786	9.37
505.986	9.24
506.186	9.28
506.386	9.3
506.586	9.06
506.786	8.95
506.986	9.27
507.186	9.46
507.386	9.52
507.585	9.19
507.785	9.4
507.985	9.54
508.185	9.59
508.384	9.5
508.584	9.78
508.784	10.06
508.984	10.17
509.183	9.68
509.383	9.74
509.583	9.65
509.782	9.65
509.982	9.57
510.182	9.51
510.381	9.5
510.581	9.57
510.781	9.13
510.98	8.57
511.18	8.52
511.379	8.64
511.579	8.36
511.778	8.31
511.978	8.38
512.177	8.32
512.377	8.32
512.576	8.17
512.776	8.19
512.975	8.52
513.175	8.64
513.374	8.76
513.573	8.71
513.773	9.05
513.972	9.28
514.172	9.4
514.371	9.53
514.57	9.36
514.77	9.81
514.969	9.88
515.168	10.13
515.367	10.39
515.567	10.25
515.766	10.58
515.965	10.47
516.164	10.51
516.364	10.41
516.563	10.4
516.762	10.36
516.961	10.49
517.16	10.28
517.359	10.21
517.559	10.16
517.758	10.34
517.957	10.24
518.156	10.24
518.355	10.31
518.554	10.38
518.753	10.47
518.952	10.58
519.151	10.34
519.35	10.56
519.549	10.64
519.748	10.61
519.947	10.67
520.146	10.75
520.345	10.99
520.544	10.9
520.743	11.03
520.942	11.33
521.141	11.66
521.339	11.75
521.538	11.7
521.737	11.79
521.936	11.76
522.135	11.5
522.333	11.56
522.532	11.35
522.731	11.22
522.93	10.91
523.129	10.4
523.327	10.21
523.526	10.41
523.725	10.7
523.923	10.76
524.122	11.03
524.321	11.18
524.519	11.02
524.718	10.97
524.917	10.89
525.115	10.87
525.314	11.01
525.512	11.15
525.711	10.98
525.909	10.88
526.108	10.73
526.306	10.61
526.505	10.65
526.703	10.72
526.902	10.79
527.1	10.71
527.299	10.68
527.497	10.72
527.696	10.76
527.894	10.82
528.092	10.76
528.291	10.62
528.489	10.48
528.688	10.44
528.886	10.55
529.084	10.57
529.283	10.68
529.481	10.75
529.679	10.68
529.877	10.5
530.076	10.48
530.274	10.56
530.472	10.69
530.67	10.98
530.869	10.93
531.067	10.69
531.265	10.66
531.463	10.61
531.661	10.93
531.859	11.05
532.057	11.21
532.255	11.23
532.454	11.04
532.652	11.01
532.85	10.96
533.048	11.04
533.246	11.16
533.444	11.22
533.642	11.54
533.84	11.31
534.038	11.13
534.236	11.13
534.434	11.32
534.632	11.86
534.83	11.94
535.027	12.1
535.225	12.27
535.423	12.17
535.621	12.16
535.819	12.19
536.017	12.14
536.215	12.46
536.412	12.52
536.61	12.4
536.808	12.16
537.006	12.24
537.203	12.53
537.401	12.38
537.599	12.68
537.797	12.45
537.994	12.06
538.192	12.25
538.39	12.42
538.587	12.53
538.785	12.56
538.983	12.53
539.18	12.81
539.378	12.51
539.575	12.57
539.773	12.41
539.97	12.85
540.168	12.89
540.366	12.86
540.563	12.76
540.761	12.79
540.958	12.81
541.155	12.93
541.353	12.83
541.55	12.86
541.748	13.07
541.945	13.12
542.143	13.22
542.34	13.4
542.537	13.51
542.735	13.55
542.932	13.65
543.129	13.76
543.327	13.78
543.524	13.94
543.721	14.06
543.919	13.82
544.116	13.9
544.313	13.65
544.51	13.66
544.708	13.48
544.905	13.63
545.102	13.48
545.299	13.39
545.496	13.52
545.693	13.56
545.891	13.59
546.088	13.7
546.285	13.66
546.482	13.87
546.679	14.07
546.876	14.47
547.073	14.47
547.27	14.62
547.467	14.9
547.664	14.71
547.861	14.69
548.058	14.53
548.255	14.94
548.452	14.99
548.649	15.05
548.846	15.29
549.043	15.28
549.24	15.45
549.437	15.73
549.633	15.53
549.83	15.99
550.027	16.33
550.224	16.91
550.421	16.91
550.618	17.21
550.814	16.97
551.011	16.78
551.208	16.66
551.405	16.55
551.601	16.37
551.798	16.56
551.995	16.57
552.191	16.68
552.388	16.5
552.585	16.26
552.781	16.49
552.978	16.7
553.175	16.63
553.371	16.71
553.568	16.79
553.764	16.51
553.961	16.53
554.157	16.22
554.354	16.05
554.55	16.24
554.747	15.96
554.943	15.58
555.14	15.73
555.336	15.97
555.533	16.4
555.729	16.83
555.926	17.64
556.122	18.28
556.318	18.91
556.515	19.1
556.711	18.86
556.907	19.46
557.104	20.05
557.3	20.19
557.496	20.54
557.693	20.5
557.889	20.38
558.085	19.89
558.281	19.66
558.478	19.57
558.674	19.66
558.87	20.21
559.066	20.31
559.262	20.36
559.459	19.76
559.655	19.92
559.851	19.97
560.047	19.95
560.243	20.58
560.439	20.89
560.635	20.9
560.831	21
561.027	21.2
561.223	21.02
561.419	20.48
561.615	21.13
561.811	20.88
562.007	21.19
562.203	21.35
562.399	20.71
562.595	20.29
562.791	20.34
562.987	20.04
563.183	19.93
563.379	20.59
563.575	21.2
563.771	21.16
563.966	21.3
564.162	20.87
564.358	20.97
564.554	21.79
564.75	21.83
564.945	21.9
565.141	22.26
565.337	22.73
565.533	22.49
565.728	22.68
565.924	22.59
566.12	22.84
566.315	23.12
566.511	22.84
566.707	22.47
566.902	22.83
567.098	22.83
567.293	23.22
567.489	22.87
567.684	22.93
567.88	22.82
568.076	23.06
568.271	22.83
568.467	23.1
568.662	23.25
568.858	23.42
569.053	23.24
569.248	23.42
569.444	23.41
569.639	23.81
569.835	24.13
570.03	24.55
570.225	24.64
570.421	24.92
570.616	24.93
570.812	25.22
571.007	25.57
571.202	25.77
571.397	25.71
571.593	25.51
571.788	25.33
571.983	25.34
572.178	24.96
572.374	24.98
572.569	24.92
572.764	24.86
572.959	25.01
573.154	24.73
573.35	24.94
573.545	24.98
573.74	25.18
573.935	25.42
574.13	25.41
574.325	26.12
574.52	26.46
574.715	26.43
574.91	26.66
575.105	26.44
575.3	27.14
575.495	26.95
575.69	27.14
575.885	26.68
576.08	26.71
576.275	26.62
576.47	26.49
576.665	26.37
576.86	26.46
577.055	26.47
577.25	27.16
577.444	26.86
577.639	27.21
577.834	27.4
578.029	28.78
578.224	28.77
578.418	29.33
578.613	29.17
578.808	29.47
579.003	29.64
579.197	29.77
579.392	30.04
579.587	29.76
579.781	29.39
579.976	29.18
580.171	28.88
580.365	28.94
580.56	29.18
580.755	29.38
580.949	29.04
581.144	29.46
581.338	29.64
581.533	29.24
581.727	30.03
581.922	30.26
582.116	31.01
582.311	30.18
582.505	30.4
582.7	29.94
582.894	29.97
583.089	30.48
583.283	30.62
583.478	30.67
583.672	30.36
583.866	30.25
584.061	30.41
584.255	30.06
584.449	30.81
584.644	30.46
584.838	30.56
585.032	29.9
585.226	30.31
585.421	30.28
585.615	30.22
585.809	30.84
586.003	30.8
586.198	30.99
586.392	31.18
586.586	31.46
586.78	31.63
586.974	31.56
587.168	32.46
587.363	31.94
587.557	32.28
587.751	32.47
587.945	32.32
588.139	32.07
588.333	32.07
588.527	32.59
588.721	32.22
588.915	32.32
589.109	32.76
589.303	32.58
589.497	32.55
589.691	32.03
589.885	31.76
590.079	31.55
590.273	32.09
590.466	31.89
590.66	31.21
590.854	31.53
591.048	31.76
591.242	31.67
591.436	31.43
591.629	31.77
591.823	31.76
592.017	31.96
592.211	32.26
592.404	32.11
592.598	32.43
592.792	32.74
592.986	32.5
593.179	32.22
593.373	32.2
593.567	32.2
593.76	32.1
593.954	32.03
594.147	32.24
594.341	32.12
594.535	32.09
594.728	32.07
594.922	31.98
595.115	32.09
595.309	32.12
595.502	32.14
595.696	32.23
595.889	32.35
596.083	32.69
596.276	32.93
596.47	32.98
596.663	33.24
596.856	33.48
597.05	33.22
597.243	33.41
597.437	33.55
597.63	33.89
597.823	34.26
598.017	34.35
598.21	34.52
598.403	33.76
598.596	34.14
598.79	33.67
598.983	33.72
599.176	33.97
599.369	33.76
599.563	33.76
599.756	33.62
599.949	33.36
600.142	32.95
600.335	32.95
600.528	33.57
600.722	33.3
600.915	33.77
601.108	33.59
601.301	33.64
601.494	33.64
601.687	33.71
601.88	33.77
602.073	33.77
602.266	34.11
602.459	33.5
602.652	33.65
602.845	33.87
603.038	33.9
603.231	33.84
603.424	34.06
603.617	34.49
603.809	34.84
604.002	34.73
604.195	34.71
604.388	34.69
604.581	35.28
604.774	35.35
604.966	35.37
605.159	34.95
605.352	35.43
605.545	35.61
605.737	35.37
605.93	35.66
606.123	35.69
606.316	35.68
606.508	35.88
606.701	35.99
606.894	35.42
607.086	35.72
607.279	36.36
607.471	36.39
607.664	36.04
607.857	35.86
608.049	35.39
608.242	35.28
608.434	35.96
608.627	35.69
608.819	35.88
609.012	36.47
609.204	36.69
609.397	36.12
609.589	35.85
609.782	35.9
609.974	36.08
610.166	35.97
610.359	36.5
610.551	36.39
610.743	36.47
610.936	36.1
611.128	35.97
611.32	35.02
611.513	35.81
611.705	36.5
611.897	37.22
612.09	37.52
612.282	37.91
612.474	37.89
612.666	38
612.858	38.3
613.051	37.97
613.243	38.11
613.435	38.54
613.627	37.82
613.819	36.96
614.011	36.51
614.203	36.64
614.395	36.3
614.588	36.71
614.78	36.56
614.972	36.79
615.164	38.06
615.356	37.74
615.548	38.12
615.74	38.96
615.932	39.51
616.124	39.12
616.315	38.85
616.507	38.72
616.699	38.59
616.891	38.35
617.083	38.3
617.275	37.2
617.467	37.06
617.659	37.08
617.85	36.46
618.042	36.42
618.234	36.4
618.426	36.38
618.618	37.38
618.809	37.54
619.001	37.32
619.193	37.67
619.384	38.51
619.576	39.92
619.768	40.02
619.959	40.27
620.151	40.02
620.343	40.52
620.534	40.06
620.726	39.55
620.917	39.27
621.109	40.05
621.301	39.56
621.492	39.45
621.684	38.45
621.875	38.02
622.067	37.91
622.258	37.97
622.45	37.77
622.641	38.13
622.832	37.88
623.024	37.27
623.215	37.37
623.407	38.02
623.598	37.87
623.789	37.6
623.981	37.27
624.172	37.77
624.363	37.85
624.555	38.02
624.746	37.98
624.937	38.21
625.129	38.22
625.32	38.06
625.511	37.99
625.702	38.09
625.893	38.61
626.085	38.97
626.276	38.73
626.467	38.53
626.658	38.57
626.849	39.13
627.04	39.54
627.231	40.58
627.422	41.23
627.614	41.04
627.805	41.4
627.996	41.42
628.187	41.49
628.378	41.9
628.569	42.21
628.76	41.77
628.951	41.49
629.142	41.12
629.332	40.55
629.523	39.93
629.714	39.61
629.905	39.62
630.096	39.12
630.287	40.26
630.478	39.8
630.669	39.9
630.859	40.65
631.05	40.45
631.241	40.73
631.432	41.03
631.623	41.05
631.813	40.72
632.004	40.1
632.195	40.12
632.385	38.46
632.576	38.56
632.767	38.05
632.957	38.7
633.148	39.05
633.339	38.36
633.529	38.43
633.72	38.15
633.91	39.04
634.101	38.86
634.292	39.3
634.482	40.08
634.673	40.58
634.863	41.28
635.054	40.76
635.244	40.31
635.435	41.04
635.625	39.86
635.815	39.89
636.006	40
636.196	40.34
636.387	40.08
636.577	40.18
636.767	40.02
636.958	40.37
637.148	40.36
637.338	40.72
637.529	40.43
637.719	41.52
637.909	41.77
638.099	41.42
638.29	41.94
638.48	42.35
638.67	42.87
638.86	43.58
639.05	43.33
639.241	43.97
639.431	44.85
639.621	45.54
639.811	45.8
640.001	46.54
640.191	46.52
640.381	46.76
640.571	47.11
640.761	46.28
640.951	45.19
641.141	44.85
641.331	44.65
641.521	43.14
641.711	42.85
641.901	42.96
642.091	42.7
642.281	43.23
642.471	42.98
642.661	42.46
642.851	43.22
643.041	43.67
643.231	43.55
643.42	43.05
643.61	43.6
643.8	43.58
643.99	43.36
644.18	42.99
644.369	42.21
644.559	42.36
644.749	42.69
644.939	42.21
645.128	41.92
645.318	42.1
645.508	42.4
645.697	42.72
645.887	42.71
646.076	41.91
646.266	41.69
646.456	42.45
646.645	42.57
646.835	43.16
647.024	42.66
647.214	43.23
647.403	43.1
647.593	43.44
647.782	43.24
647.972	43.77
648.161	45.3
648.351	45.37
648.54	45.02
648.73	44.86
648.919	44.26
649.108	45.07
649.298	44.4
649.487	45.07
649.677	44.74
649.866	45.35
650.055	45.07
650.244	44.15
650.434	43.84
650.623	43.39
650.812	43.35
651.002	43.12
651.191	42.7
651.38	42.72
651.569	42.5
651.758	42.59
651.947	42.68
652.137	42.22
652.326	42.74
652.515	43.65
652.704	44.73
652.893	45.25
653.082	45.57
653.271	45.62
653.46	46.39
653.649	45.86
653.838	46.42
654.027	45.39
654.216	45.58
654.405	45.43
654.594	45.05
654.783	44.91
654.972	43.97
655.161	43.68
655.35	44.53
655.539	44.36
655.728	44.97
655.916	43.82
656.105	44.38
656.294	44.87
656.483	44.17
656.672	44.5
656.86	44.44
657.049	44.66
657.238	44.38
657.427	43.77
657.615	42.59
657.804	42.24
657.993	42.5
658.181	42.28
658.37	42.51
658.559	42.91
658.747	42.67
658.936	42.59
659.125	41.19
659.313	41.7
659.502	42.4
659.69	44.22
659.879	44.11
660.067	44.33
660.256	45.19
660.444	44.71
660.633	44.74
660.821	44.33
661.01	44.09
661.198	45.78
661.387	46.23
661.575	45.6
661.763	44.82
661.952	45.75
662.14	46.57
662.328	46.49
662.517	46.95
662.705	47.09
662.893	47.83
663.082	48.19
663.27	48.07
663.458	48.13
663.646	48.75
663.834	49.09
664.023	49.01
664.211	47.87
664.399	46.6
664.587	45.38
664.775	45.62
664.963	45.7
665.152	45.53
665.34	46.84
665.528	46.32
665.716	45.84
665.904	44.71
666.092	43.87
666.28	44.09
666.468	44.59
666.656	45.79
666.844	44.82
667.032	45.18
667.22	45.64
667.408	44.35
667.596	45.15
667.784	44.82
667.971	45.75
668.159	46.91
668.347	47.27
668.535	47.52
668.723	46.79
668.911	47.15
669.098	47.27
669.286	46.37
669.474	45.99
669.662	45.16
669.849	45.74
670.037	45.15
670.225	44.65
670.413	44.74
670.6	45.26
670.788	46.02
670.976	46.39
671.163	45.91
671.351	46.05
671.538	47.73
671.726	48.51
671.913	48.48
672.101	48.35
672.289	48.31
672.476	48.96
672.664	48.56
672.851	47.61
673.039	48.46
673.226	48.1
673.413	49.29
673.601	49.03
673.788	48.15
673.976	47.73
674.163	49.17
674.35	49.37
674.538	48.36
674.725	48.9
674.912	48.81
675.1	48.14
675.287	47.68
675.474	46.73
675.662	45.56
675.849	46.43
676.036	47.27
676.223	46.13
676.411	46.06
676.598	45.57
676.785	44.64
676.972	46.17
677.159	45.92
677.346	46.44
677.533	46.83
677.721	46.91
677.908	46.96
678.095	46
678.282	46.69
678.469	46.8
678.656	47.72
678.843	46.97
679.03	45.89
679.217	46.36
679.404	46.48
679.591	46.46
679.778	47.29
679.964	46.76
680.151	46.92
680.338	46.31
680.525	46.37
680.712	46.12
680.899	47.29
681.086	47.54
681.272	47.52
681.459	47.67
681.646	47.37
681.833	46.22
682.02	46.43
682.206	46.5
682.393	46.73
682.58	47.36
682.766	47.6
682.953	46.9
683.14	47.57
683.326	47.8
683.513	47.79
683.7	47.25
683.886	48.31
684.073	47.76
684.259	48.63
684.446	48.89
684.632	47.21
684.819	46.81
685.005	46.92
685.192	45.66
685.378	45.38
685.565	45.35
685.751	46.33
685.938	46.66
686.124	46.43
686.31	46.21
686.497	46.28
686.683	48.17
686.87	47.99
687.056	48.36
687.242	49.02
687.429	48.95
687.615	49.11
687.801	49.39
687.987	49.38
688.174	50.34
688.36	50.44
688.546	49.74
688.732	48.34
688.918	48.94
689.105	49.38
689.291	49.67
689.477	49.47
689.663	49.89
689.849	49.34
690.035	49.79
690.221	49.91
690.407	49.21
690.593	50.34
690.779	50.06
690.965	49.32
691.151	48.66
691.337	48.29
691.523	47.59
691.709	47.52
691.895	48.08
692.081	46.68
692.267	46.04
692.453	46.43
692.639	46.36
692.825	47.89
693.011	48.61
693.196	49.53
693.382	49.56
693.568	50.2
693.754	50.05
693.94	49.32
694.125	49.71
694.311	50.45
694.497	50.25
694.682	50.04
694.868	49.65
695.054	49.59
695.239	48.69
695.425	49
695.611	48.73
695.796	47.86
695.982	46.66
696.168	45.86
696.353	45.72
696.539	45.86
696.724	45.39
696.91	45.69
697.095	45.44
697.281	45.43
697.466	44.4
697.652	43.68
697.837	43.88
698.023	44.94
698.208	45.46
698.393	45.5
698.579	44.7
698.764	44.52
698.949	44.16
699.135	43.89
699.32	44.02
699.505	44.91
699.691	46.25
699.876	46.24
700.061	46.63
700.246	47.3
700.432	47.7
700.617	48.82
700.802	49.91
700.987	50.13
701.172	49.5
701.358	49.33
701.543	50.09
701.728	49.94
701.913	49.56
702.098	50.38
702.283	50.71
702.468	49.23
702.653	48.65
702.838	47.08
703.023	46.49
703.208	48.52
703.393	50.43
703.578	51.72
703.763	52.37
703.948	52.78
704.133	50.87
704.318	49.68
704.503	50.35
704.688	51.19
704.873	53
705.057	52.91
705.242	52.57
705.427	50.4
705.612	48.73
705.797	49.26
705.981	49.39
706.166	49.71
706.351	51
706.536	50.71
706.72	50.85
706.905	49.91
707.09	49.8
707.274	49.65
707.459	50.49
707.644	50.03
707.828	49.38
708.013	49.52
708.197	51.08
708.382	50.23
708.567	49.97
708.751	49.9
708.936	50.71
709.12	50.23
709.305	50.22
709.489	49.98
709.673	51.37
709.858	50.75
710.042	50
710.227	48.6
710.411	48.58
710.596	49.08
710.78	48.9
710.964	48.43
711.149	49.4
711.333	49.12
711.517	48.65
711.702	48.21
711.886	48.75
712.07	49.06
712.254	49.98
712.438	49.94
712.623	50.02
712.807	49.83
712.991	50.74
713.175	50.78
713.359	51.41
713.544	51.81
713.728	51.39
713.912	52.2
714.096	53.09
714.28	52.55
714.464	52.83
714.648	52.91
714.832	53.81
715.016	52.94
715.2	51.99
715.384	52.59
715.568	53.35
715.752	52.87
715.936	51.93
716.12	51.46
716.304	50.74
716.488	51.07
716.671	51.91
716.855	51.37
717.039	51.49
717.223	52.84
717.407	51.68
717.59	52.74
717.774	53.45
717.958	54.56
718.142	54.57
718.325	57.02
718.509	57.77
718.693	57.32
718.877	55.81
719.06	56.73
719.244	57.05
719.428	58.07
719.611	56.27
719.795	55.34
719.978	54.75
720.162	55.16
720.345	53.68
720.529	53.85
720.713	53.08
720.896	55
721.08	55.35
721.263	54.37
721.446	53.63
721.63	54.43
721.813	55.27
721.997	56.25
722.18	56.91
722.364	57.22
722.547	55.31
722.73	55.51
722.914	55.63
723.097	54.13
723.28	54.98
723.464	53.62
723.647	53.06
723.83	54
724.013	52.62
724.197	51.93
724.38	51.87
724.563	51.57
724.746	53.14
724.929	51.57
725.112	52.09
725.296	50.33
725.479	51.79
725.662	51.05
725.845	50.1
726.028	52.03
726.211	52.15
726.394	53.67
726.577	54.18
726.76	53.98
726.943	53.42
727.126	53.81
727.309	54.79
727.492	53.31
727.675	53.72
727.858	53.31
728.041	52.19
728.224	52.01
728.407	50.37
728.589	50.52
728.772	51.26
728.955	52.8
729.138	50.6
729.321	50.25
729.503	52.96
729.686	52.61
729.869	53.84
730.052	54.19
730.234	55.26
730.417	56.21
730.6	56.02
730.782	55.21
730.965	55.21
731.148	57.65
731.33	57.82
731.513	57.02
731.695	58.5
731.878	58.01
732.061	58.09
732.243	59.11
732.426	59.53
732.608	60.81
732.791	59.8
732.973	58.89
733.156	58.35
733.338	58.42
733.52	57.81
733.703	56.81
733.885	56.79
734.068	55.89
734.25	54.03
734.432	52.8
734.615	50.49
734.797	51.6
734.979	52.41
735.162	51.54
735.344	51.75
735.526	51.61
735.708	52.03
735.891	51.82
736.073	49.99
736.255	50.01
736.437	49.18
736.619	50.78
736.802	51.11
736.984	51.32
737.166	51.1
737.348	51.54
737.53	51.21
737.712	52.14
737.894	53.44
738.076	57.06
738.258	56.02
738.44	56.06
738.622	55.44
738.804	53.96
738.986	53.71
739.168	54.19
739.35	54.97
739.532	56.33
739.714	56.44
739.896	55.32
740.078	55.09
740.259	56.21
740.441	57.04
740.623	57.92
740.805	58.8
740.987	58.89
741.168	57.94
741.35	57.36
741.532	57.52
741.714	56.72
741.895	57.43
742.077	55.65
742.259	55.58
742.44	57.58
742.622	56.27
742.804	55.19
742.985	53.27
743.167	55.32
743.348	55.54
743.53	54.03
743.711	55.26
743.893	54.49
744.075	55.96
744.256	57.33
744.438	56.23
744.619	59.31
744.8	60.39
744.982	62.88
745.163	62.27
745.345	62.67
745.526	63.68
745.707	63.1
745.889	65.21
746.07	64.58
746.252	66.98
746.433	66.97
746.614	65.44
746.795	67.17
746.977	65.92
747.158	65.37
747.339	63.32
747.52	64.27
747.702	63.35
747.883	61.42
748.064	60.9
748.245	57.5
748.426	56.86
748.607	56.4
748.788	53.57
748.97	54.48
749.151	55.42
749.332	56.46
749.513	57.46
749.694	56.68
749.875	58.03
750.056	58.76
750.237	59.08
750.418	59.06
750.599	58.55
750.78	59.26
750.96	57.54
751.141	57.57
751.322	58.04
751.503	55.64
751.684	57.19
751.865	56.52
752.046	55.23
752.226	55.69
752.407	56.16
752.588	58.97
752.769	58.68
752.949	60.26
753.13	60.2
753.311	59.06
753.492	60.5
753.672	60.37
753.853	60.74
754.034	60.53
754.214	60.68
754.395	59.98
754.575	57.64
754.756	57.43
754.937	58.43
755.117	57.85
755.298	59.47
755.478	58.71
755.659	58.53
755.839	57.17
756.02	59.75
756.2	60.42
756.381	61.36
756.561	62.16
756.741	63.12
756.922	60.55
757.102	61.21
757.283	61.95
757.463	60.63
757.643	60.68
757.823	62.33
758.004	61.41
758.184	59.79
758.364	60.58
758.545	60.35
758.725	59.5
758.905	59.47
759.085	57.77
759.265	56.06
759.446	56.96
759.626	55.3
759.806	53.41
759.986	51.01
760.166	50.71
760.346	48.39
760.526	47.98
760.706	48.75
760.886	50.51
761.066	52.95
761.246	54.33
761.426	53.8
761.606	54.52
761.786	53.64
761.966	54.51
762.146	54.56
762.326	53.95
762.506	53.28
762.686	53.38
762.866	53.08
763.046	52.26
763.225	50.46
763.405	50.94
763.585	51.21
763.765	52.24
763.945	52.41
764.124	53.09
764.304	54.33
764.484	55.52
764.664	56.11
764.843	55.11
765.023	55.49
765.203	57.03
765.382	58.53
765.562	57.63
765.741	59.22
765.921	60.62
766.101	62.79
766.28	62.33
766.46	61.76
766.639	62.52
766.819	63.62
766.998	62.32
767.178	61.91
767.357	60.45
767.537	62.13
767.716	60.19
767.896	59.3
768.075	55.97
768.254	54.47
768.434	54.38
768.613	54.06
768.792	54.68
768.972	55.87
769.151	57.79
769.33	58.35
769.51	58.18
769.689	58.97
769.868	57.65
770.047	57.69
770.226	59.8
770.406	60.49
770.585	59.95
770.764	61
770.943	61.26
771.122	61.73
771.301	62.16
771.48	61.81
771.66	61.11
771.839	63.62
772.018	65.61
772.197	63.72
772.376	65.7
772.555	67.03
772.734	66.39
772.913	67.56
773.092	64.47
773.271	64.65
773.449	67.54
773.628	67.28
773.807	66.35
773.986	65.99
774.165	69.03
774.344	67.52
774.523	66.3
774.701	68.99
774.88	67.13
775.059	70.97
775.238	68.67
775.417	68.7
775.595	71.46
775.774	71.81
775.953	74.32
776.131	71.29
776.31	72.56
776.489	72.6
776.667	72.5
776.846	75.31
777.025	71.76
777.203	74.19
777.382	71.44
777.56	69.32
777.739	67.46
777.917	64.86
778.096	66.8
778.274	65.51
778.453	63.56
778.631	61.06
778.81	59.34
778.988	61.49
779.166	61.06
779.345	61.68
779.523	66.41
779.702	65.98
779.88	67.38
780.058	67.08
780.237	64.9
780.415	65.67
780.593	64.66
780.771	64.72
780.95	66.52
781.128	66.46
781.306	66.25
781.484	64.48
781.662	66.44
781.841	65.61
782.019	65.48
782.197	66.07
782.375	65.44
782.553	70.31
782.731	68.64
782.909	65.89
783.087	62.95
783.265	63.89
783.443	61.95
783.621	60.68
783.799	60.23
783.977	60.84
784.155	62.31
784.333	64.69
784.511	59
784.689	58.09
784.867	59.04
785.045	61.27
785.223	62.84
785.4	63.66
785.578	66.54
785.756	67.43
785.934	66.53
786.112	66.64
786.289	65.36
786.467	65.72
786.645	66.7
786.823	63.71
787	60.32
787.178	59
787.356	56.55
787.533	51.81
787.711	51.6
787.889	53.4
788.066	53.19
788.244	53.06
788.421	55.82
788.599	57.9
788.776	58.62
788.954	59.37
789.131	58.81
789.309	58.3
789.486	62.78
789.664	65.13
789.841	65.57
790.019	64.78
790.196	61.72
790.373	60.42
790.551	56.29
790.728	56.44
790.906	58.22
791.083	62.4
791.26	65.81
791.437	66.42
791.615	63.42
791.792	59.72
791.969	61.8
792.146	63.64
792.324	65.14
792.501	67.14
792.678	67.31
792.855	71.91
793.032	67.58
793.209	68.65
793.387	67.34
793.564	72.03
793.741	75.58
793.918	77.55
794.095	80.15
794.272	80.71
794.449	78.5
794.626	80.18
794.803	72.86
794.98	72.19
795.157	69.55
795.334	69.13
795.511	64.5
795.688	61.79
795.864	60.27
796.041	62.45
796.218	61.97
796.395	62.41
796.572	61.1
796.749	68.23
796.925	67.94
797.102	67.75
797.279	67.13
797.456	65.41
797.632	67.58
797.809	68.05
797.986	64.55
798.162	61.21
798.339	60
798.516	58.55
798.692	56.82
798.869	56.73
799.046	55.68
799.222	54.45
799.399	54.69
799.575	54.7
799.752	49.41
799.928	54.94
800.105	57.95
800.281	57.32
800.458	59.84
800.634	58.08
800.811	56.76
800.987	62.61
801.163	64.68
801.34	66.24
801.516	61.54
801.692	66.09
801.869	61.23
802.045	59.91
802.221	62.11
802.398	61.01
802.574	64
802.75	66.38
802.926	62.35
803.103	66.21
803.279	63.53
803.455	66.22
803.631	61.47
803.807	58.2
803.983	59.81
804.16	58.19
804.336	53.79
804.512	48.34
804.688	51.74
804.864	47.69
805.04	43.35
805.216	47.99
805.392	46.65
805.568	49.56
805.744	54.64
805.92	54.55
806.096	57.96
806.272	62.6
806.448	60.64
806.623	53.76
806.799	55.71
806.975	57.68
807.151	54.19
807.327	57.25
807.503	56.41
807.678	57.39
807.854	58.86
808.03	58.45
808.206	59.13
808.381	61.64
808.557	65.56
808.733	64.34
808.908	63.2
809.084	62.91
809.26	62.43
809.435	67.99
809.611	65.38
809.787	63.41
809.962	66.31
810.138	65.8
810.313	70.71
810.489	69.43
810.664	70.17
810.84	69.02
811.015	69.27
811.191	66.65
811.366	64.03
811.542	65.28
811.717	66.27
811.892	65.94
812.068	64.57
812.243	60.84
812.419	59.66
812.594	63.99
812.769	65.59
812.944	67.74
813.12	68.33
813.295	64.74
813.47	62.51
813.645	63.09
813.821	60.83
813.996	62.98
814.171	60.43
814.346	62.64
814.521	60.08
814.697	57.1
814.872	56.46
815.047	58.36
815.222	63.78
815.397	64.28
815.572	62.83
815.747	64.93
815.922	64.08
816.097	68.9
816.272	71.39
816.447	73.99
816.622	75.79
816.797	70.95
816.972	68.16
817.147	62.79
817.322	60.66
817.496	60.26
817.671	57.69
817.846	57.05
818.021	55.47
818.196	49.54
818.371	46.29
818.545	48.07
818.72	48.67
818.895	48.55
819.069	51.4
819.244	52.77
819.419	54.6
819.594	54.71
819.768	54.9
819.943	52.96
820.117	51.17
820.292	49.86
820.467	47.98
820.641	46.99
820.816	45.62
820.99	44.09
821.165	42.99
821.339	40.8
821.514	40.2
821.688	39.24
821.863	38.44
822.037	38.69
822.212	38.59
822.386	38.35
822.56	38.33
822.735	38.18
822.909	38.08
823.084	38.02
823.258	38.98
823.432	39.22
823.606	39.37
823.781	40.45
823.955	40.76
824.129	41.6
824.303	41.02
824.478	41.49
824.652	42.13
824.826	41.8
825	41.95
825.174	42
825.348	42.53
825.523	43.17
825.697	43.33
825.871	42.69
826.045	41.99
826.219	43.15
826.393	43.54
826.567	43.42
826.741	44.83
826.915	45.89
827.089	46.27
827.263	45.26
827.437	45.31
827.611	45.44
827.784	46.11
827.958	47.1
828.132	45.84
828.306	45.83
828.48	47.84
828.654	49.27
828.827	49.09
829.001	46.8
829.175	48.81
829.349	50.15
829.522	49.63
829.696	50.75
829.87	51.17
830.044	55.87
830.217	57.21
830.391	56.64
830.565	54.3
830.738	57.25
830.912	61.99
831.085	59.58
831.259	58.12
831.432	57.09
831.606	54.54
831.779	50.17
831.953	48.27
832.126	49.19
832.3	47.37
832.473	48.23
832.647	46.9
832.82	45.57
832.994	45.13
833.167	45.62
833.34	45.18
833.514	46.4
833.687	50.28
833.86	50.58
834.034	49.94
834.207	51.66
834.38	52.61
834.553	53.9
834.727	57.42
834.9	58.41
835.073	58.85
835.246	58.58
835.419	57.56
835.593	56.66
835.766	58.81
835.939	57.06
836.112	57.58
836.285	53.85
836.458	47.36
836.631	39.33
836.804	39.38
836.977	37.58
837.15	36.22
837.323	40.23
837.496	43.86
837.669	34.78
837.842	38.24
838.015	37.57
838.188	42.06
838.361	49.26
838.533	53.1
838.706	49.98
838.879	52.26
839.052	56.74
839.225	57.26
839.398	53.67
839.57	57.91
839.743	57.59
839.916	59.33
840.088	61.67
840.261	61.99
840.434	66.12
840.607	66.86
840.779	65.05
840.952	67.55
841.124	66.37
841.297	72.2
841.47	73.74
841.642	78.71
841.815	80.86
841.987	73.02
842.16	73.9
842.332	70.21
842.505	68.6
842.677	71.28
842.85	68.37
843.022	68.06
843.194	65.13
843.367	71.69
843.539	71.35
843.712	74.74
843.884	76.89
844.056	74.76
844.229	75.33
844.401	77.55
844.573	77.12
844.745	71.51
844.918	68.69
845.09	60.19
845.262	56.43
845.434	52.38
845.606	51.18
845.779	53.44
845.951	63.89
846.123	56.56
846.295	64.82
846.467	65.97
846.639	62.53
846.811	63.6
846.983	69.07
847.155	75.48
847.327	79.75
847.499	68.88
847.671	72.4
847.843	61.85
848.015	67.67
848.187	59.53
848.359	68.4
848.531	77.58
848.703	76.29
848.875	79.06
849.047	73.14
849.218	66.22
849.39	81.89
849.562	83.09
849.734	85.33
849.905	83.45
850.077	89.83
850.249	84.43
850.421	77.62
850.592	81.16
850.764	83.69
850.936	84.37
851.107	93.11
851.279	80.85
851.451	77.91
851.622	84.06
851.794	93.75
851.965	96.23
852.137	90.64
852.308	104.65
852.48	97.72
852.651	93.46
852.823	102.48
852.994	91.61
853.166	96.4
853.337	95.67
853.509	78.25
853.68	79.56
853.851	76.31
854.023	78.14
854.194	60.65
854.365	62.9
854.537	52.66
854.708	47.13
854.879	48.3
855.05	49.32
855.222	59.28
855.393	65.02
855.564	51.38
855.735	55.02
855.906	57.04
856.078	66.36
856.249	73.64
856.42	81.79
856.591	81.31
856.762	76.68
856.933	87.28
857.104	85.67
857.275	88.82
857.446	95.41
857.617	82.96
857.788	82.81
857.959	76.63
858.13	78.34
858.301	77.54
858.472	75.49
858.643	78.65
858.814	63.9
858.985	59.85
859.155	63.4
859.326	58.08
859.497	55.91
859.668	58.22
859.839	53.19
860.009	58.42
860.18	64.6
860.351	57.55
860.522	64.88
860.692	76.88
860.863	79.44
861.034	86.28
861.204	93.48
861.375	107.47
861.546	110.92
861.716	118.68
861.887	124.7
862.057	124.48
862.228	145.86
862.398	120.54
862.569	106.72
862.739	111.4
862.91	107.16
863.08	94.53
863.251	83.75
863.421	73.65
863.592	76.25
863.762	69.5
863.932	62.29
864.103	47.28
864.273	40.62
864.443	42.5
864.614	46.04
864.784	39.51
864.954	36.12
865.125	23.48
865.295	32.43
865.465	23.61
865.635	39.8
865.805	50.94
865.976	58.63
866.146	72.18
866.316	73.13
866.486	73.17
866.656	75.84
866.826	85.12
866.996	94.25
867.166	103.15
867.336	104.31
867.506	98.75
867.676	95.96
867.846	90.31
868.016	88.68
868.186	91.77
868.356	77.91
868.526	79.95
868.696	79.7
868.866	71.97
869.036	68.63
869.206	53.28
869.376	41.94
869.545	50.29
869.715	74.1
869.885	73.4
870.055	79.45
870.224	80.9
870.394	67.97
870.564	75
870.734	74.67
870.903	69.01
871.073	84.06
871.243	91.32
871.412	93.81
871.582	86.92
871.751	73.38
871.921	70.06
872.091	80.68
872.26	85.09
872.43	88.62
872.599	98.36
872.769	108.19
872.938	93.17
873.108	93.88
873.277	91.28
873.446	82.24
873.616	91.99
873.785	88.93
873.955	73.05
874.124	76.93
874.293	57.59
874.463	46.68
874.632	47.87
874.801	38.85
874.971	42.22
875.14	41.63
875.309	32.17
875.478	32.55
875.647	39.17
875.817	46.11
875.986	48.02
876.155	54.12
876.324	54.1
876.493	50.45
876.662	54.19
876.831	42.9
877	52.08
877.17	65.8
877.339	66.13
877.508	61.72
877.677	54.09
877.846	54.9
878.015	48.81
878.184	50.25
878.352	51.4
878.521	54.14
878.69	60.02
878.859	51.72
879.028	50.59
879.197	62.26
879.366	57.57
879.534	56.44
879.703	52.32
879.872	54.38
880.041	48.85
880.21	49.1
880.378	47.98
880.547	47.17
880.716	47.06
880.884	47.01
881.053	42.91
881.222	44.73
881.39	45.51
881.559	44.48
881.727	42.98
881.896	43.35
882.065	42.91
882.233	41.06
882.402	41.88
882.57	40.5
882.739	38.44
882.907	38.14
883.076	37.49
883.244	35.27
883.412	36.3
883.581	34.99
883.749	37.1
883.918	37.32
884.086	38.29
884.254	37.09
884.423	38.11
884.591	41.29
884.759	42.07
884.927	41.57
885.096	43.21
885.264	39.46
885.432	42.85
885.6	40.62
885.769	43.09
885.937	44.53
886.105	42.63
886.273	41.26
886.441	37.17
886.609	37.81
886.777	38.23
886.945	34.41
887.113	32.76
887.281	31.84
887.449	36.42
887.617	28.54
887.785	28.98
887.953	31.45
888.121	30.18
888.289	37.35
888.457	34.22
888.625	32.11
888.793	36.4
888.961	51.11
889.129	54.87
889.296	53.43
889.464	54.67
889.632	54.18
889.8	63.59
889.967	70.59
890.135	63.15
