Data from JASIL_3903_Reflection_2.txt Node
Date: Sat Nov 07 20:14:36 EST 2015
User: Geneva
Spectrometer: USB4E03002
Autoset integration time: false
Trigger mode: 4
Integration Time (sec): 1.000000E-1
Scans to average: 10
Electric dark correction enabled: true
Nonlinearity correction enabled: false
Boxcar width: 5
Stray light correction enabled: false
XAxis mode: Wavelengths
Stop averaging: false
Number of Pixels in Spectrum: 3648
>>>>>Begin Spectral Data<<<<<
177.575	133.69
177.794	179.75
178.014	128.81
178.233	94.81
178.452	117.11
178.672	71.73
178.891	-1359.3
179.11	245.85
179.33	172.78
179.549	136.9
179.768	109.84
179.987	102.68
180.207	116.66
180.426	80.75
180.645	84.94
180.864	91.54
181.084	83.85
181.303	79.9
181.522	76.74
181.741	80.92
181.96	77.61
182.179	77.4
182.398	84.78
182.618	72.12
182.837	87.51
183.056	64.42
183.275	73.57
183.494	73.05
183.713	69.16
183.932	67.62
184.151	68.69
184.37	76.53
184.589	81.56
184.808	69.79
185.027	68.23
185.246	71.5
185.465	74.94
185.684	63.87
185.903	73.66
186.122	83.67
186.341	78.35
186.56	78.77
186.779	93.54
186.998	95.99
187.216	103.9
187.435	103.22
187.654	93.37
187.873	95.37
188.092	104.88
188.311	82.17
188.53	81.48
188.748	86.01
188.967	89.23
189.186	82.01
189.405	76.08
189.623	73.89
189.842	84.45
190.061	89.58
190.28	84.11
190.498	77.44
190.717	82.06
190.936	78.51
191.154	74.81
191.373	68.89
191.592	62.85
191.81	69.22
192.029	62.27
192.248	57.03
192.466	59.96
192.685	59.76
192.904	62.92
193.122	55.14
193.341	50.04
193.559	39.35
193.778	42.69
193.996	40.58
194.215	39.58
194.433	42.29
194.652	39.36
194.87	37.86
195.089	46.42
195.307	44.31
195.526	51.46
195.744	53.86
195.963	62.06
196.181	57.03
196.399	59.67
196.618	59.86
196.836	63.89
197.055	63.87
197.273	63.91
197.491	64.63
197.71	68.6
197.928	66.73
198.146	70.88
198.365	70.04
198.583	65.8
198.801	62.77
199.019	62.75
199.238	54.22
199.456	49.41
199.674	42.31
199.892	43.47
200.111	36.57
200.329	40.62
200.547	40.21
200.765	42.1
200.983	52.42
201.202	55.9
201.42	55.85
201.638	63.27
201.856	70.08
202.074	70.36
202.292	57.38
202.51	63.45
202.728	71.34
202.946	71.38
203.165	72.38
203.383	71.56
203.601	67.4
203.819	64.2
204.037	58.95
204.255	63.11
204.473	54.54
204.691	55.93
204.909	45.32
205.127	38.71
205.345	42.1
205.562	48.4
205.78	42.11
205.998	44.5
206.216	36.37
206.434	41.22
206.652	39.54
206.87	43.5
207.088	46.64
207.306	47.16
207.523	49.84
207.741	52.47
207.959	48.21
208.177	46.35
208.395	45.19
208.612	51.66
208.83	49.64
209.048	42.6
209.266	42.33
209.483	43.02
209.701	49.73
209.919	49.09
210.136	40.22
210.354	48.93
210.572	49.52
210.79	49.11
211.007	52.7
211.225	51.23
211.442	47.23
211.66	50.29
211.878	52
212.095	26.34
212.313	22.75
212.53	23.91
212.748	21.62
212.966	29.54
213.183	30.34
213.401	29.21
213.618	36.58
213.836	47.18
214.053	47.53
214.271	50.84
214.488	62.08
214.705	61.22
214.923	63.06
215.14	54.95
215.358	48.94
215.575	47.83
215.793	46.69
216.01	43.21
216.227	40.71
216.445	41.7
216.662	38.46
216.879	40.45
217.097	34.99
217.314	34.38
217.531	41.43
217.749	45.29
217.966	48
218.183	45.93
218.4	39.69
218.618	40.7
218.835	33.56
219.052	31.82
219.269	32.03
219.487	37.89
219.704	35.56
219.921	31.67
220.138	27.94
220.355	21.53
220.572	23.07
220.79	27.82
221.007	28.93
221.224	29.84
221.441	32.36
221.658	33.59
221.875	27.81
222.092	25.73
222.309	24.47
222.526	22.34
222.743	27.14
222.96	27.43
223.177	26.11
223.394	25.51
223.611	27.51
223.828	23.81
224.045	25.47
224.262	25.51
224.479	24.31
224.696	25.54
224.913	26.04
225.13	23.35
225.347	22.09
225.564	21.65
225.781	19.62
225.997	19.38
226.214	18.98
226.431	16.15
226.648	16.57
226.865	16.43
227.082	15.28
227.298	14.97
227.515	15.39
227.732	15.42
227.949	15.28
228.165	15.52
228.382	14.96
228.599	15.3
228.816	15.98
229.032	16.07
229.249	16.41
229.466	17.29
229.682	17.88
229.899	17.84
230.116	17.59
230.332	16.88
230.549	17.05
230.765	17.92
230.982	16.99
231.199	16.83
231.415	16.44
231.632	15.8
231.848	15.07
232.065	14.66
232.281	15.34
232.498	16.38
232.714	17.54
232.931	16.91
233.147	16.4
233.364	16.4
233.58	15.56
233.797	16.56
234.013	17.91
234.23	17.55
234.446	17.62
234.662	17.41
234.879	17.14
235.095	16.84
235.312	17.2
235.528	17.37
235.744	17.81
235.961	19.04
236.177	17.39
236.393	16.54
236.61	16.43
236.826	15.9
237.042	14.95
237.258	14.08
237.475	14.16
237.691	15.12
237.907	14.21
238.123	14.28
238.339	12.68
238.556	13.74
238.772	14.15
238.988	14.12
239.204	13.85
239.42	14.69
239.636	14.44
239.853	13.93
240.069	13.16
240.285	13.55
240.501	12.99
240.717	13.34
240.933	13.12
241.149	12.61
241.365	12.58
241.581	12.64
241.797	12.09
242.013	12.18
242.229	12.57
242.445	12.44
242.661	12.23
242.877	12.44
243.093	12.4
243.309	11.83
243.525	12.21
243.741	12.03
243.957	11.52
244.173	11.49
244.388	11.08
244.604	10.86
244.82	10.58
245.036	10.24
245.252	10.29
245.468	10.28
245.683	10.67
245.899	10.43
246.115	10.56
246.331	10.69
246.547	10.51
246.762	10.57
246.978	10.48
247.194	10.59
247.409	10.63
247.625	10.63
247.841	10.55
248.057	10.53
248.272	10.34
248.488	9.96
248.703	9.69
248.919	9.97
249.135	9.66
249.35	9.63
249.566	10.04
249.782	10.32
249.997	10.14
250.213	10.13
250.428	9.61
250.644	10.51
250.859	10.66
251.075	10.92
251.29	10.58
251.506	11.1
251.721	10.69
251.937	10.24
252.152	9.78
252.368	9.71
252.583	9.8
252.798	10.25
253.014	9.9
253.229	9.77
253.445	9.59
253.66	10.29
253.875	9.75
254.091	10.45
254.306	10.26
254.521	10.77
254.737	10.85
254.952	10.41
255.167	9.38
255.383	8.94
255.598	9.11
255.813	8.73
256.028	8.26
256.244	8.13
256.459	8.13
256.674	7.9
256.889	7.18
257.104	7.13
257.32	7.55
257.535	7.81
257.75	7.7
257.965	7.77
258.18	7.74
258.395	7.72
258.61	7.68
258.826	7.49
259.041	7.6
259.256	7.77
259.471	7.75
259.686	7.51
259.901	7.56
260.116	7.73
260.331	7.47
260.546	7.8
260.761	7.85
260.976	7.98
261.191	8.12
261.406	8.02
261.621	7.97
261.836	8
262.05	8.13
262.265	8.12
262.48	7.74
262.695	8.3
262.91	7.87
263.125	7.87
263.34	7.99
263.555	8.25
263.769	8.78
263.984	9.1
264.199	9.23
264.414	9.3
264.629	9.09
264.843	9.33
265.058	8.94
265.273	8.65
265.488	8.33
265.702	8.28
265.917	7.97
266.132	8.04
266.346	7.71
266.561	7.56
266.776	7.67
266.99	7.47
267.205	7.61
267.42	7.78
267.634	7.87
267.849	7.87
268.063	7.74
268.278	7.82
268.492	7.49
268.707	7.51
268.922	7.44
269.136	7.1
269.351	7.11
269.565	7.01
269.78	6.94
269.994	6.75
270.209	7.06
270.423	7.09
270.637	7.1
270.852	7
271.066	7.16
271.281	7.24
271.495	7.33
271.709	7.58
271.924	7.38
272.138	7.53
272.353	7.71
272.567	7.48
272.781	7.34
272.996	7.29
273.21	7.5
273.424	7.47
273.638	7.37
273.853	7.6
274.067	7.42
274.281	7.53
274.495	7.38
274.71	7.51
274.924	7.53
275.138	7.61
275.352	7.69
275.566	7.65
275.781	7.35
275.995	7.56
276.209	7.29
276.423	7.21
276.637	7.12
276.851	6.74
277.065	6.34
277.279	6.07
277.493	6.05
277.707	6.19
277.921	6.01
278.135	5.95
278.349	5.6
278.563	5.74
278.777	5.84
278.991	5.82
279.205	6.15
279.419	6.52
279.633	7.02
279.847	7.12
280.061	7.07
280.275	7.05
280.489	7.4
280.703	7.39
280.917	7.4
281.131	7.33
281.344	7.35
281.558	7.1
281.772	7.02
281.986	6.65
282.2	6.56
282.414	6.33
282.627	6.34
282.841	6.3
283.055	6.67
283.269	6.49
283.482	6.52
283.696	6.48
283.91	6.49
284.123	6.33
284.337	6.49
284.551	6.42
284.764	6.49
284.978	6.47
285.192	6.37
285.405	5.99
285.619	6.07
285.833	6.05
286.046	6.09
286.26	6.2
286.473	6.34
286.687	6.12
286.9	6.4
287.114	6.31
287.327	6.34
287.541	6.31
287.754	6.56
287.968	6.48
288.181	6.5
288.395	6.42
288.608	6.47
288.822	6.43
289.035	6.49
289.248	6.21
289.462	6.36
289.675	6.32
289.889	6.36
290.102	6.16
290.315	6.24
290.529	6.17
290.742	6.36
290.955	6.33
291.169	6.31
291.382	6.25
291.595	6.42
291.808	6.27
292.022	6.25
292.235	6.41
292.448	6.47
292.661	6.27
292.875	6.3
293.088	6.09
293.301	5.98
293.514	6.06
293.727	6.21
293.94	6.18
294.153	5.89
294.367	6
294.58	5.75
294.793	5.86
295.006	5.96
295.219	6.01
295.432	5.88
295.645	5.92
295.858	5.86
296.071	5.7
296.284	5.66
296.497	5.82
296.71	5.64
296.923	5.84
297.136	5.74
297.349	5.91
297.562	5.86
297.775	6.03
297.988	6.01
298.201	5.94
298.414	6.06
298.626	5.92
298.839	5.96
299.052	6.01
299.265	5.97
299.478	5.94
299.691	5.91
299.903	5.93
300.116	5.84
300.329	5.78
300.542	5.8
300.755	6.05
300.967	6.03
301.18	5.95
301.393	6
301.605	5.9
301.818	6.07
302.031	6.01
302.243	5.85
302.456	5.99
302.669	5.97
302.881	6.21
303.094	5.89
303.307	5.84
303.519	6.07
303.732	6.27
303.944	6.32
304.157	6.18
304.37	6.14
304.582	6.32
304.795	6.09
305.007	6.27
305.22	6.38
305.432	6.52
305.645	6.92
305.857	6.78
306.069	6.44
306.282	6.48
306.494	6.66
306.707	6.61
306.919	6.71
307.132	6.7
307.344	6.54
307.556	6.2
307.769	6.34
307.981	6.39
308.193	6.43
308.406	6.47
308.618	6.38
308.83	6.19
309.043	6.25
309.255	6.2
309.467	6.15
309.679	6.26
309.892	6.33
310.104	6.14
310.316	5.83
310.528	5.82
310.74	5.79
310.953	5.77
311.165	5.84
311.377	5.75
311.589	5.73
311.801	5.96
312.013	6.08
312.225	6.15
312.437	6.41
312.649	6.63
312.862	6.51
313.074	6.43
313.286	6.45
313.498	6.46
313.71	6.51
313.922	6.55
314.134	6.52
314.346	6.46
314.558	6.34
314.77	6.43
314.982	6.61
315.193	6.54
315.405	6.69
315.617	6.69
315.829	6.52
316.041	6.9
316.253	6.89
316.465	6.82
316.677	6.66
316.888	6.75
317.1	6.42
317.312	6.2
317.524	6.41
317.736	6.68
317.947	6.79
318.159	7.07
318.371	6.55
318.583	6.55
318.794	6.42
319.006	6.51
319.218	6.55
319.43	6.64
319.641	6.61
319.853	6.91
320.064	6.72
320.276	6.8
320.488	6.68
320.699	6.66
320.911	6.63
321.123	6.99
321.334	7.2
321.546	7.02
321.757	7.16
321.969	7.29
322.18	6.95
322.392	7.01
322.603	6.84
322.815	6.83
323.026	7.02
323.238	6.87
323.449	6.76
323.661	6.49
323.872	6.61
324.083	6.6
324.295	6.53
324.506	6.53
324.718	6.47
324.929	6.5
325.14	6.68
325.352	6.61
325.563	6.81
325.774	6.62
325.986	6.62
326.197	6.77
326.408	6.8
326.62	6.86
326.831	6.86
327.042	6.91
327.253	6.88
327.464	6.94
327.676	7.22
327.887	7.1
328.098	7.28
328.309	7.24
328.52	7.19
328.732	7
328.943	6.92
329.154	7
329.365	7.3
329.576	7.39
329.787	7.23
329.998	7.01
330.209	7.22
330.42	7.17
330.631	7.42
330.842	7.32
331.053	7.49
331.264	7.56
331.475	7.67
331.686	7.39
331.897	7.47
332.108	7.54
332.319	7.38
332.53	7.47
332.741	7.49
332.952	7.46
333.163	7.5
333.374	7.54
333.585	7.62
333.795	7.67
334.006	7.86
334.217	7.81
334.428	7.84
334.639	7.97
334.849	7.69
335.06	7.81
335.271	7.77
335.482	7.7
335.692	7.68
335.903	7.57
336.114	7.46
336.325	7.37
336.535	7.38
336.746	7.42
336.957	7.38
337.167	7.37
337.378	7.25
337.589	7.23
337.799	7.18
338.01	6.95
338.22	6.95
338.431	6.92
338.642	7.03
338.852	6.93
339.063	6.66
339.273	6.64
339.484	6.65
339.694	6.67
339.905	6.63
340.115	6.76
340.326	6.82
340.536	6.57
340.746	6.64
340.957	6.43
341.167	6.5
341.378	6.75
341.588	6.7
341.799	6.75
342.009	6.73
342.219	6.68
342.43	6.65
342.64	6.63
342.85	6.64
343.061	6.54
343.271	6.67
343.481	6.54
343.691	6.36
343.902	6.33
344.112	6.29
344.322	6.24
344.532	6.36
344.743	6.21
344.953	6.27
345.163	6.42
345.373	6.59
345.583	6.47
345.793	6.51
346.004	6.64
346.214	6.79
346.424	6.81
346.634	6.95
346.844	7.02
347.054	7.19
347.264	7.27
347.474	7.19
347.684	6.91
347.894	6.94
348.104	7
348.314	7.02
348.524	6.87
348.734	6.64
348.944	6.54
349.154	6.42
349.364	6.23
349.574	6.18
349.784	6.2
349.994	6.23
350.204	6.09
350.413	5.98
350.623	5.91
350.833	5.87
351.043	5.79
351.253	5.7
351.463	5.68
351.672	5.98
351.882	5.88
352.092	5.81
352.302	5.98
352.511	6.19
352.721	6.3
352.931	6.22
353.141	6.36
353.35	6.64
353.56	6.7
353.77	6.71
353.979	6.56
354.189	6.49
354.399	6.4
354.608	6.1
354.818	5.93
355.027	5.85
355.237	5.92
355.447	5.77
355.656	5.72
355.866	5.57
356.075	5.59
356.285	5.56
356.494	5.62
356.704	5.73
356.913	5.94
357.123	5.97
357.332	5.95
357.542	5.93
357.751	6.02
357.96	6.08
358.17	6.17
358.379	6.14
358.589	6.14
358.798	6
359.007	6.06
359.217	5.96
359.426	5.83
359.635	5.78
359.845	5.84
360.054	5.66
360.263	5.6
360.472	5.61
360.682	5.58
360.891	5.44
361.1	5.46
361.309	5.48
361.519	5.41
361.728	5.5
361.937	5.51
362.146	5.39
362.355	5.5
362.564	5.44
362.774	5.46
362.983	5.42
363.192	5.6
363.401	5.73
363.61	5.7
363.819	5.83
364.028	5.81
364.237	5.75
364.446	5.79
364.655	5.78
364.864	5.78
365.073	5.79
365.282	5.75
365.491	5.67
365.7	5.75
365.909	5.78
366.118	5.77
366.327	5.69
366.536	5.77
366.745	5.73
366.954	5.72
367.162	5.74
367.371	5.69
367.58	5.79
367.789	5.84
367.998	5.8
368.207	5.7
368.415	5.73
368.624	5.81
368.833	5.67
369.042	5.78
369.25	5.83
369.459	5.86
369.668	5.88
369.877	5.9
370.085	5.69
370.294	5.5
370.503	5.44
370.711	5.38
370.92	5.29
371.129	5.28
371.337	5.08
371.546	4.9
371.754	4.85
371.963	4.8
372.171	4.66
372.38	4.72
372.589	4.8
372.797	4.82
373.006	4.67
373.214	4.69
373.423	4.8
373.631	4.91
373.84	5.03
374.048	5.08
374.256	5
374.465	5.07
374.673	5.06
374.882	5.01
375.09	5
375.298	5.11
375.507	4.97
375.715	5.03
375.923	4.83
376.132	4.78
376.34	4.77
376.548	4.76
376.757	4.74
376.965	4.82
377.173	4.84
377.381	4.96
377.59	4.99
377.798	5.11
378.006	4.87
378.214	4.96
378.423	4.9
378.631	4.84
378.839	4.94
379.047	4.85
379.255	4.67
379.463	4.65
379.671	4.44
379.879	4.34
380.088	4.31
380.296	4.44
380.504	4.54
380.712	4.6
380.92	4.67
381.128	4.65
381.336	4.55
381.544	4.59
381.752	4.52
381.96	4.66
382.168	4.67
382.376	4.61
382.584	4.61
382.791	4.53
382.999	4.53
383.207	4.42
383.415	4.39
383.623	4.51
383.831	4.57
384.039	4.59
384.247	4.47
384.454	4.42
384.662	4.38
384.87	4.43
385.078	4.48
385.285	4.35
385.493	4.38
385.701	4.33
385.909	4.22
386.116	4.18
386.324	4.12
386.532	4.09
386.739	4.11
386.947	4.12
387.155	4.12
387.362	4.05
387.57	4.13
387.778	4.06
387.985	4.07
388.193	4.21
388.4	4.34
388.608	4.38
388.816	4.36
389.023	4.29
389.231	4.24
389.438	4.18
389.646	4.14
389.853	4.16
390.061	4.08
390.268	4.02
390.475	3.86
390.683	3.73
390.89	3.69
391.098	3.73
391.305	3.74
391.512	3.74
391.72	3.64
391.927	3.61
392.135	3.6
392.342	3.65
392.549	3.69
392.756	3.76
392.964	3.7
393.171	3.74
393.378	3.77
393.586	3.75
393.793	3.76
394	3.78
394.207	3.8
394.414	3.83
394.622	3.85
394.829	3.87
395.036	3.9
395.243	3.9
395.45	3.83
395.657	3.8
395.864	3.81
396.072	3.82
396.279	3.88
396.486	3.81
396.693	3.7
396.9	3.67
397.107	3.56
397.314	3.6
397.521	3.61
397.728	3.61
397.935	3.7
398.142	3.67
398.349	3.7
398.556	3.63
398.763	3.66
398.97	3.68
399.177	3.71
399.383	3.79
399.59	3.65
399.797	3.64
400.004	3.56
400.211	3.5
400.418	3.46
400.625	3.45
400.831	3.51
401.038	3.54
401.245	3.64
401.452	3.58
401.658	3.5
401.865	3.51
402.072	3.52
402.279	3.55
402.485	3.48
402.692	3.55
402.899	3.57
403.105	3.56
403.312	3.63
403.519	3.53
403.725	3.48
403.932	3.49
404.138	3.47
404.345	3.42
404.552	3.43
404.758	3.47
404.965	3.43
405.171	3.36
405.378	3.28
405.584	3.28
405.791	3.16
405.997	3.21
406.204	3.27
406.41	3.35
406.617	3.42
406.823	3.43
407.029	3.46
407.236	3.5
407.442	3.58
407.649	3.65
407.855	3.51
408.061	3.64
408.268	3.68
408.474	3.61
408.68	3.57
408.887	3.61
409.093	3.61
409.299	3.55
409.505	3.48
409.712	3.36
409.918	3.28
410.124	3.3
410.33	3.27
410.537	3.22
410.743	3.19
410.949	3.14
411.155	3.11
411.361	3.07
411.567	3.08
411.773	3.08
411.98	3.11
412.186	3.24
412.392	3.33
412.598	3.26
412.804	3.27
413.01	3.31
413.216	3.31
413.422	3.25
413.628	3.29
413.834	3.22
414.04	3.3
414.246	3.33
414.452	3.18
414.658	3.1
414.864	3.17
415.07	3.13
415.275	3.07
415.481	3.01
415.687	2.99
415.893	2.97
416.099	2.99
416.305	2.9
416.511	2.91
416.716	2.94
416.922	2.91
417.128	2.88
417.334	2.92
417.539	2.93
417.745	2.94
417.951	2.94
418.157	2.96
418.362	2.95
418.568	2.94
418.774	2.9
418.979	2.92
419.185	2.93
419.391	2.9
419.596	2.85
419.802	2.85
420.008	2.83
420.213	2.56
420.419	2.54
420.624	2.51
420.83	2.54
421.035	2.53
421.241	2.53
421.446	2.5
421.652	2.51
421.857	2.51
422.063	2.48
422.268	2.48
422.474	2.73
422.679	2.71
422.885	2.73
423.09	2.71
423.295	2.69
423.501	2.66
423.706	2.66
423.911	2.64
424.117	2.67
424.322	2.69
424.527	2.73
424.733	2.73
424.938	2.74
425.143	2.72
425.349	2.73
425.554	2.78
425.759	2.77
425.964	2.78
426.169	2.83
426.375	2.83
426.58	2.83
426.785	2.81
426.99	2.87
427.195	2.88
427.4	2.89
427.605	2.9
427.811	2.87
428.016	2.95
428.221	2.98
428.426	2.94
428.631	2.87
428.836	2.88
429.041	2.85
429.246	2.77
429.451	2.77
429.656	2.85
429.861	2.83
430.066	2.88
430.271	2.82
430.476	2.79
430.681	2.78
430.886	2.82
431.09	2.84
431.295	2.85
431.5	2.86
431.705	2.8
431.91	2.74
432.115	2.71
432.32	2.64
432.524	2.63
432.729	2.62
432.934	2.6
433.139	2.62
433.343	2.61
433.548	2.63
433.753	2.65
433.958	2.74
434.162	2.72
434.367	2.76
434.572	2.78
434.776	2.79
434.981	2.8
435.186	2.82
435.39	2.82
435.595	2.82
435.799	2.77
436.004	2.77
436.209	2.7
436.413	2.7
436.618	2.69
436.822	2.68
437.027	2.64
437.231	2.67
437.436	2.66
437.64	2.61
437.845	2.56
438.049	2.6
438.253	2.53
438.458	2.52
438.662	2.55
438.867	2.53
439.071	2.57
439.275	2.58
439.48	2.59
439.684	2.59
439.888	2.59
440.093	2.62
440.297	2.6
440.501	2.67
440.706	2.66
440.91	2.67
441.114	2.68
441.318	2.62
441.523	2.64
441.727	2.6
441.931	2.62
442.135	2.63
442.339	2.62
442.543	2.64
442.748	2.6
442.952	2.57
443.156	2.59
443.36	2.6
443.564	2.6
443.768	2.54
443.972	2.53
444.176	2.51
444.38	2.5
444.584	2.46
444.788	2.45
444.992	2.43
445.196	2.42
445.4	2.4
445.604	2.37
445.808	2.39
446.012	2.42
446.216	2.42
446.42	2.45
446.624	2.46
446.828	2.46
447.032	2.44
447.235	2.48
447.439	2.51
447.643	2.52
447.847	2.54
448.051	2.54
448.254	2.55
448.458	2.57
448.662	2.59
448.866	2.58
449.069	2.6
449.273	2.65
449.477	2.62
449.681	2.63
449.884	2.6
450.088	2.61
450.292	2.56
450.495	2.56
450.699	2.6
450.902	2.58
451.106	2.59
451.31	2.61
451.513	2.56
451.717	2.57
451.92	2.56
452.124	2.59
452.327	2.59
452.531	2.6
452.734	2.58
452.938	2.52
453.141	2.5
453.345	2.5
453.548	2.52
453.752	2.55
453.955	2.58
454.158	2.61
454.362	2.64
454.565	2.64
454.769	2.65
454.972	2.71
455.175	2.73
455.379	2.72
455.582	2.66
455.785	2.62
455.988	2.61
456.192	2.6
456.395	2.53
456.598	2.51
456.801	2.5
457.005	2.45
457.208	2.4
457.411	2.38
457.614	2.35
457.817	2.37
458.021	2.36
458.224	2.37
458.427	2.34
458.63	2.35
458.833	2.33
459.036	2.3
459.239	2.35
459.442	2.38
459.645	2.36
459.848	2.37
460.051	2.37
460.254	2.4
460.457	2.39
460.66	2.43
460.863	2.47
461.066	2.48
461.269	2.51
461.472	2.52
461.675	2.49
461.878	2.53
462.081	2.54
462.284	2.6
462.486	2.56
462.689	2.58
462.892	2.53
463.095	2.57
463.298	2.57
463.5	2.54
463.703	2.56
463.906	2.58
464.109	2.57
464.311	2.57
464.514	2.55
464.717	2.57
464.92	2.55
465.122	2.54
465.325	2.53
465.528	2.52
465.73	2.53
465.933	2.51
466.135	2.41
466.338	2.38
466.541	2.32
466.743	2.27
466.946	2.29
467.148	2.32
467.351	2.33
467.553	2.31
467.756	2.32
467.958	2.29
468.161	2.29
468.363	2.36
468.566	2.39
468.768	2.44
468.971	2.49
469.173	2.48
469.375	2.47
469.578	2.37
469.78	2.37
469.983	2.37
470.185	2.41
470.387	2.39
470.59	2.41
470.792	2.42
470.994	2.4
471.196	2.4
471.399	2.4
471.601	2.38
471.803	2.51
472.005	2.5
472.208	2.51
472.41	2.52
472.612	2.49
472.814	2.54
473.016	2.59
473.218	2.62
473.421	2.58
473.623	2.58
473.825	2.62
474.027	2.59
474.229	2.58
474.431	2.55
474.633	2.54
474.835	2.59
475.037	2.51
475.239	2.43
475.441	2.42
475.643	2.48
475.845	2.48
476.047	2.44
476.249	2.44
476.451	2.43
476.653	2.39
476.855	2.39
477.057	2.36
477.258	2.39
477.46	2.4
477.662	2.42
477.864	2.39
478.066	2.36
478.268	2.37
478.469	2.35
478.671	2.36
478.873	2.39
479.075	2.39
479.276	2.36
479.478	2.39
479.68	2.37
479.882	2.35
480.083	2.34
480.285	2.36
480.487	2.36
480.688	2.33
480.89	2.32
481.091	2.3
481.293	2.31
481.495	2.32
481.696	2.3
481.898	2.28
482.099	2.24
482.301	2.21
482.502	2.19
482.704	2.17
482.905	2.16
483.107	2.14
483.308	2.13
483.51	2.13
483.711	2.12
483.913	2.13
484.114	2.13
484.315	2.16
484.517	2.18
484.718	2.19
484.92	2.2
485.121	2.22
485.322	2.23
485.524	2.24
485.725	2.22
485.926	2.22
486.127	2.2
486.329	2.19
486.53	2.18
486.731	2.16
486.932	2.14
487.134	2.14
487.335	2.14
487.536	2.16
487.737	2.16
487.938	2.17
488.139	2.19
488.341	2.19
488.542	2.21
488.743	2.21
488.944	2.22
489.145	2.21
489.346	2.24
489.547	2.25
489.748	2.22
489.949	2.23
490.15	2.23
490.351	2.2
490.552	2.19
490.753	2.19
490.954	2.17
491.155	2.18
491.356	2.2
491.557	2.19
491.758	2.18
491.959	2.2
492.159	2.21
492.36	2.22
492.561	2.23
492.762	2.26
492.963	2.27
493.164	2.32
493.364	2.33
493.565	2.36
493.766	2.39
493.967	2.39
494.167	2.42
494.368	2.41
494.569	2.38
494.769	2.38
494.97	2.4
495.171	2.42
495.371	2.36
495.572	2.33
495.773	2.33
495.973	2.3
496.174	2.32
496.375	2.32
496.575	2.31
496.776	2.34
496.976	2.39
497.177	2.38
497.377	2.4
497.578	2.44
497.778	2.48
497.979	2.48
498.179	2.52
498.38	2.52
498.58	2.51
498.78	2.55
498.981	2.57
499.181	2.56
499.382	2.59
499.582	2.57
499.782	2.58
499.983	2.61
500.183	2.62
500.383	2.61
500.584	2.63
500.784	2.66
500.984	2.65
501.184	2.64
501.385	2.66
501.585	2.66
501.785	2.65
501.985	2.67
502.185	2.68
502.386	2.7
502.586	2.71
502.786	2.72
502.986	2.74
503.186	2.78
503.386	2.79
503.586	2.8
503.786	2.77
503.987	2.8
504.187	2.79
504.387	2.78
504.587	2.77
504.787	2.77
504.987	2.76
505.187	2.73
505.387	2.71
505.587	2.72
505.786	2.71
505.986	2.74
506.186	2.74
506.386	2.73
506.586	2.73
506.786	2.71
506.986	2.7
507.186	2.69
507.386	2.7
507.585	2.69
507.785	2.69
507.985	2.68
508.185	2.7
508.384	2.68
508.584	2.68
508.784	2.68
508.984	2.73
509.183	2.75
509.383	2.75
509.583	2.74
509.782	2.76
509.982	2.77
510.182	2.79
510.381	2.81
510.581	2.85
510.781	2.9
510.98	2.94
511.18	2.94
511.379	2.93
511.579	2.95
511.778	2.97
511.978	3
512.177	3.01
512.377	3.04
512.576	3.05
512.776	3.07
512.975	3.1
513.175	3.1
513.374	3.14
513.573	3.22
513.773	3.28
513.972	3.32
514.172	3.36
514.371	3.43
514.57	3.5
514.77	3.52
514.969	3.51
515.168	3.51
515.367	3.53
515.567	3.52
515.766	3.5
515.965	3.52
516.164	3.51
516.364	3.5
516.563	3.48
516.762	3.43
516.961	3.43
517.16	3.47
517.359	3.45
517.559	3.44
517.758	3.46
517.957	3.5
518.156	3.5
518.355	3.52
518.554	3.54
518.753	3.58
518.952	3.58
519.151	3.65
519.35	3.67
519.549	3.72
519.748	3.78
519.947	3.8
520.146	3.82
520.345	3.82
520.544	3.88
520.743	3.89
520.942	3.89
521.141	3.93
521.339	3.91
521.538	3.94
521.737	3.94
521.936	3.95
522.135	3.98
522.333	3.99
522.532	4.06
522.731	4.03
522.93	4.04
523.129	4.1
523.327	4.16
523.526	4.19
523.725	4.21
523.923	4.27
524.122	4.31
524.321	4.3
524.519	4.33
524.718	4.34
524.917	4.39
525.115	4.47
525.314	4.48
525.512	4.49
525.711	4.52
525.909	4.55
526.108	4.55
526.306	4.56
526.505	4.63
526.703	4.64
526.902	4.66
527.1	4.67
527.299	4.68
527.497	4.7
527.696	4.72
527.894	4.73
528.092	4.75
528.291	4.79
528.489	4.82
528.688	4.84
528.886	4.88
529.084	4.92
529.283	4.97
529.481	5.01
529.679	5.04
529.877	5.1
530.076	5.18
530.274	5.23
530.472	5.27
530.67	5.31
530.869	5.33
531.067	5.38
531.265	5.4
531.463	5.45
531.661	5.46
531.859	5.5
532.057	5.51
532.255	5.52
532.454	5.54
532.652	5.58
532.85	5.62
533.048	5.67
533.246	5.71
533.444	5.76
533.642	5.78
533.84	5.84
534.038	5.89
534.236	5.94
534.434	5.99
534.632	6.05
534.83	6.07
535.027	6.13
535.225	6.15
535.423	6.17
535.621	6.19
535.819	6.23
536.017	6.25
536.215	6.26
536.412	6.27
536.61	6.31
536.808	6.33
537.006	6.36
537.203	6.36
537.401	6.4
537.599	6.45
537.797	6.52
537.994	6.55
538.192	6.61
538.39	6.69
538.587	6.72
538.785	6.75
538.983	6.79
539.18	6.84
539.378	6.86
539.575	6.9
539.773	6.9
539.97	6.91
540.168	6.96
540.366	6.98
540.563	7.01
540.761	7.07
540.958	7.11
541.155	7.12
541.353	7.18
541.55	7.23
541.748	7.27
541.945	7.31
542.143	7.36
542.34	7.4
542.537	7.43
542.735	7.47
542.932	7.49
543.129	7.52
543.327	7.57
543.524	7.62
543.721	7.68
543.919	7.73
544.116	7.81
544.313	7.88
544.51	7.93
544.708	7.99
544.905	8.03
545.102	8.13
545.299	8.2
545.496	8.25
545.693	8.24
545.891	8.25
546.088	8.3
546.285	8.31
546.482	8.35
546.679	8.41
546.876	8.46
547.073	8.52
547.27	8.51
547.467	8.5
547.664	8.55
547.861	8.63
548.058	8.72
548.255	8.8
548.452	8.88
548.649	8.96
548.846	9.02
549.043	9.08
549.24	9.05
549.437	9.14
549.633	9.25
549.83	9.35
550.027	9.44
550.224	9.44
550.421	9.43
550.618	9.45
550.814	9.45
551.011	9.44
551.208	9.48
551.405	9.53
551.601	9.61
551.798	9.6
551.995	9.61
552.191	9.62
552.388	9.65
552.585	9.68
552.781	9.67
552.978	9.73
553.175	9.87
553.371	9.91
553.568	9.99
553.764	10
553.961	10.08
554.157	10.15
554.354	10.18
554.55	10.23
554.747	10.28
554.943	10.41
555.14	10.42
555.336	10.38
555.533	10.45
555.729	10.51
555.926	10.57
556.122	10.6
556.318	10.61
556.515	10.65
556.711	10.64
556.907	10.7
557.104	10.76
557.3	10.79
557.496	10.87
557.693	10.86
557.889	10.88
558.085	10.9
558.281	10.99
558.478	11.06
558.674	11.09
558.87	11.18
559.066	11.21
559.262	11.2
559.459	11.29
559.655	11.31
559.851	11.41
560.047	11.51
560.243	11.54
560.439	11.53
560.635	11.56
560.831	11.65
561.027	11.7
561.223	11.79
561.419	11.84
561.615	11.83
561.811	11.89
562.007	11.91
562.203	11.94
562.399	12
562.595	12.01
562.791	12.03
562.987	12.04
563.183	12.1
563.379	12.2
563.575	12.24
563.771	12.28
563.966	12.29
564.162	12.36
564.358	12.35
564.554	12.38
564.75	12.43
564.945	12.5
565.141	12.56
565.337	12.56
565.533	12.51
565.728	12.56
565.924	12.62
566.12	12.62
566.315	12.62
566.511	12.68
566.707	12.71
566.902	12.79
567.098	12.82
567.293	12.83
567.489	12.91
567.684	12.99
567.88	13
568.076	13.05
568.271	13.17
568.467	13.17
568.662	13.21
568.858	13.27
569.053	13.29
569.248	13.3
569.444	13.34
569.639	13.34
569.835	13.33
570.03	13.35
570.225	13.33
570.421	13.32
570.616	13.4
570.812	13.39
571.007	13.36
571.202	13.35
571.397	13.36
571.593	13.34
571.788	13.36
571.983	13.38
572.178	13.45
572.374	13.53
572.569	13.56
572.764	13.54
572.959	13.53
573.154	13.54
573.35	13.53
573.545	13.65
573.74	13.72
573.935	13.77
574.13	13.83
574.325	13.82
574.52	13.86
574.715	13.87
574.91	13.93
575.105	14.02
575.3	14.13
575.495	14.23
575.69	14.19
575.885	14.25
576.08	14.3
576.275	14.3
576.47	14.35
576.665	14.34
576.86	14.39
577.055	14.42
577.25	14.38
577.444	14.43
577.639	14.48
577.834	14.47
578.029	14.5
578.224	14.46
578.418	14.53
578.613	14.55
578.808	14.52
579.003	14.53
579.197	14.58
579.392	14.64
579.587	14.63
579.781	14.59
579.976	14.7
580.171	14.67
580.365	14.71
580.56	14.71
580.755	14.72
580.949	14.8
581.144	14.77
581.338	14.81
581.533	14.88
581.727	14.94
581.922	14.95
582.116	14.92
582.311	14.93
582.505	14.98
582.7	14.97
582.894	15
583.089	15.02
583.283	15.1
583.478	15.12
583.672	15.1
583.866	15.04
584.061	15.08
584.255	15.16
584.449	15.17
584.644	15.14
584.838	15.19
585.032	15.25
585.226	15.31
585.421	15.36
585.615	15.33
585.809	15.36
586.003	15.44
586.198	15.51
586.392	15.51
586.586	15.57
586.78	15.64
586.974	15.68
587.168	15.63
587.363	15.62
587.557	15.59
587.751	15.62
587.945	15.65
588.139	15.69
588.333	15.71
588.527	15.72
588.721	15.69
588.915	15.78
589.109	15.69
589.303	15.75
589.497	15.74
589.691	15.76
589.885	15.78
590.079	15.76
590.273	15.71
590.466	15.72
590.66	15.72
590.854	15.75
591.048	15.7
591.242	15.76
591.436	15.69
591.629	15.74
591.823	15.8
592.017	15.86
592.211	15.87
592.404	15.88
592.598	15.83
592.792	15.82
592.986	15.86
593.179	15.9
593.373	15.98
593.567	16.06
593.76	16.07
593.954	16.11
594.147	16.11
594.341	16.12
594.535	16.12
594.728	16.13
594.922	16.14
595.115	16.13
595.309	16.08
595.502	16.09
595.696	16.03
595.889	15.99
596.083	15.95
596.276	15.95
596.47	15.95
596.663	15.98
596.856	16.03
597.05	16.04
597.243	16.05
597.437	16.11
597.63	16.05
597.823	16.15
598.017	16.19
598.21	16.24
598.403	16.2
598.596	16.27
598.79	16.32
598.983	16.36
599.176	16.38
599.369	16.39
599.563	16.36
599.756	16.44
599.949	16.47
600.142	16.47
600.335	16.39
600.528	16.49
600.722	16.48
600.915	16.46
601.108	16.46
601.301	16.52
601.494	16.53
601.687	16.51
601.88	16.53
602.073	16.43
602.266	16.45
602.459	16.49
602.652	16.5
602.845	16.56
603.038	16.55
603.231	16.58
603.424	16.54
603.617	16.55
603.809	16.54
604.002	16.56
604.195	16.63
604.388	16.66
604.581	16.69
604.774	16.68
604.966	16.59
605.159	16.64
605.352	16.55
605.545	16.62
605.737	16.67
605.93	16.76
606.123	16.77
606.316	16.77
606.508	16.79
606.701	16.85
606.894	16.8
607.086	16.91
607.279	16.9
607.471	16.95
607.664	16.9
607.857	16.86
608.049	16.9
608.242	16.9
608.434	16.89
608.627	16.91
608.819	16.9
609.012	16.99
609.204	17.05
609.397	17.07
609.589	17.1
609.782	17.24
609.974	17.31
610.166	17.35
610.359	17.4
610.551	17.47
610.743	17.48
610.936	17.49
611.128	17.44
611.32	17.41
611.513	17.44
611.705	17.42
611.897	17.38
612.09	17.41
612.282	17.35
612.474	17.34
612.666	17.35
612.858	17.41
613.051	17.39
613.243	17.46
613.435	17.51
613.627	17.47
613.819	17.55
614.011	17.7
614.203	17.64
614.395	17.73
614.588	17.75
614.78	17.77
614.972	17.7
615.164	17.74
615.356	17.76
615.548	17.67
615.74	17.7
615.932	17.65
616.124	17.48
616.315	17.49
616.507	17.42
616.699	17.39
616.891	17.32
617.083	17.37
617.275	17.44
617.467	17.42
617.659	17.47
617.85	17.48
618.042	17.53
618.234	17.55
618.426	17.6
618.618	17.61
618.809	17.68
619.001	17.69
619.193	17.67
619.384	17.64
619.576	17.69
619.768	17.67
619.959	17.62
620.151	17.65
620.343	17.71
620.534	17.73
620.726	17.72
620.917	17.74
621.109	17.77
621.301	17.83
621.492	17.8
621.684	17.81
621.875	17.87
622.067	17.89
622.258	17.83
622.45	17.81
622.641	17.77
622.832	17.79
623.024	17.71
623.215	17.74
623.407	17.7
623.598	17.76
623.789	17.77
623.981	17.68
624.172	17.71
624.363	17.75
624.555	17.81
624.746	17.81
624.937	17.83
625.129	17.82
625.32	17.82
625.511	17.84
625.702	17.78
625.893	17.78
626.085	17.83
626.276	17.85
626.467	17.81
626.658	17.79
626.849	17.8
627.04	17.82
627.231	17.87
627.422	17.84
627.614	17.79
627.805	17.82
627.996	17.8
628.187	17.78
628.378	17.72
628.569	17.76
628.76	17.77
628.951	17.76
629.142	17.72
629.332	17.7
629.523	17.73
629.714	17.8
629.905	17.94
630.096	17.91
630.287	17.98
630.478	18.01
630.669	18.01
630.859	17.95
631.05	17.96
631.241	18.05
631.432	18.09
631.623	18.17
631.813	18.21
632.004	18.06
632.195	18.09
632.385	18.03
632.576	18.12
632.767	18.1
632.957	18.11
633.148	18.12
633.339	18.02
633.529	18.06
633.72	18
633.91	17.95
634.101	17.94
634.292	18.01
634.482	17.99
634.673	18.01
634.863	18.05
635.054	18.06
635.244	18.01
635.435	18.16
635.625	18.06
635.815	17.99
636.006	17.97
636.196	18.08
636.387	18.01
636.577	18.03
636.767	18.01
636.958	18.05
637.148	18.06
637.338	18.15
637.529	18.07
637.719	18.21
637.909	18.36
638.099	18.46
638.29	18.4
638.48	18.44
638.67	18.46
638.86	18.51
639.05	18.47
639.241	18.45
639.431	18.52
639.621	18.53
639.811	18.46
640.001	18.41
640.191	18.29
640.381	18.28
640.571	18.33
640.761	18.39
640.951	18.28
641.141	18.32
641.331	18.33
641.521	18.29
641.711	18.27
641.901	18.3
642.091	18.26
642.281	18.31
642.471	18.39
642.661	18.4
642.851	18.48
643.041	18.57
643.231	18.48
643.42	18.51
643.61	18.49
643.8	18.47
643.99	18.55
644.18	18.62
644.369	18.77
644.559	18.67
644.749	18.66
644.939	18.53
645.128	18.44
645.318	18.57
645.508	18.53
645.697	18.54
645.887	18.59
646.076	18.55
646.266	18.5
646.456	18.42
646.645	18.52
646.835	18.54
647.024	18.54
647.214	18.61
647.403	18.58
647.593	18.6
647.782	18.61
647.972	18.64
648.161	18.57
648.351	18.64
648.54	18.61
648.73	18.62
648.919	18.61
649.108	18.51
649.298	18.45
649.487	18.52
649.677	18.45
649.866	18.47
650.055	18.43
650.244	18.5
650.434	18.55
650.623	18.57
650.812	18.53
651.002	18.56
651.191	18.68
651.38	18.75
651.569	18.63
651.758	18.65
651.947	18.66
652.137	18.75
652.326	18.74
652.515	18.72
652.704	18.77
652.893	18.77
653.082	18.76
653.271	18.7
653.46	18.71
653.649	18.86
653.838	19.03
654.027	19.07
654.216	19.03
654.405	19.01
654.594	18.99
654.783	18.97
654.972	18.97
655.161	18.98
655.35	19.09
655.539	19.04
655.728	19.04
655.916	18.98
656.105	19.01
656.294	18.94
656.483	18.95
656.672	18.96
656.86	18.91
657.049	18.91
657.238	18.85
657.427	18.83
657.615	18.81
657.804	18.82
657.993	18.86
658.181	18.79
658.37	18.86
658.559	18.94
658.747	18.92
658.936	18.92
659.125	19.06
659.313	19.08
659.502	19.07
659.69	19.14
659.879	19.08
660.067	19.08
660.256	18.98
660.444	18.95
660.633	18.86
660.821	18.9
661.01	19.03
661.198	18.95
661.387	19.06
661.575	19.09
661.763	19.11
661.952	19.15
662.14	19.16
662.328	19.25
662.517	19.15
662.705	19.12
662.893	19.15
663.082	19.17
663.27	19.14
663.458	19.14
663.646	19.17
663.834	19.13
664.023	19.18
664.211	19.2
664.399	19.15
664.587	19.36
664.775	19.41
664.963	19.29
665.152	19.31
665.34	19.31
665.528	19.21
665.716	19.25
665.904	19.31
666.092	19.3
666.28	19.19
666.468	19.38
666.656	19.35
666.844	19.47
667.032	19.46
667.22	19.4
667.408	19.44
667.596	19.55
667.784	19.52
667.971	19.57
668.159	19.53
668.347	19.55
668.535	19.4
668.723	19.33
668.911	19.19
669.098	19.36
669.286	19.31
669.474	19.21
669.662	19.07
669.849	19.17
670.037	19.05
670.225	19.04
670.413	19.11
670.6	19.19
670.788	19.2
670.976	19.27
671.163	19.15
671.351	19.26
671.538	19.28
671.726	19.39
671.913	19.26
672.101	19.27
672.289	19.3
672.476	19.24
672.664	19.26
672.851	19.29
673.039	19.26
673.226	19.34
673.413	19.36
673.601	19.45
673.788	19.38
673.976	19.28
674.163	19.32
674.35	19.38
674.538	19.41
674.725	19.38
674.912	19.47
675.1	19.57
675.287	19.59
675.474	19.57
675.662	19.58
675.849	19.65
676.036	19.7
676.223	19.68
676.411	19.63
676.598	19.66
676.785	19.71
676.972	19.67
677.159	19.57
677.346	19.44
677.533	19.47
677.721	19.48
677.908	19.53
678.095	19.68
678.282	19.74
678.469	19.7
678.656	19.82
678.843	19.78
679.03	19.84
679.217	19.98
679.404	20.11
679.591	20
679.778	20.11
679.964	20.11
680.151	20.1
680.338	20.15
680.525	20.15
680.712	20.13
680.899	20.14
681.086	20.1
681.272	20.05
681.459	20.03
681.646	20.13
681.833	19.99
682.02	19.95
682.206	20.02
682.393	19.95
682.58	20.14
682.766	20.13
682.953	20.17
683.14	20.18
683.326	20.18
683.513	20.18
683.7	20.31
683.886	20.33
684.073	20.34
684.259	20.38
684.446	20.54
684.632	20.41
684.819	20.39
685.005	20.34
685.192	20.35
685.378	20.33
685.565	20.45
685.751	20.23
685.938	20.19
686.124	20.32
686.31	20.22
686.497	20.03
686.683	20.01
686.87	19.97
687.056	20.04
687.242	20.09
687.429	20.19
687.615	20.08
687.801	20.2
687.987	20.3
688.174	20.18
688.36	20.08
688.546	20.21
688.732	20.22
688.918	20.13
689.105	20.2
689.291	20.13
689.477	20.13
689.663	20.12
689.849	20.07
690.035	20.1
690.221	20.1
690.407	20.36
690.593	20.46
690.779	20.47
690.965	20.71
691.151	20.67
691.337	20.62
691.523	20.68
691.709	20.82
691.895	20.86
692.081	20.83
692.267	20.86
692.453	20.62
692.639	20.61
692.825	20.52
693.011	20.43
693.196	20.39
693.382	20.43
693.568	20.35
693.754	20.36
693.94	20.31
694.125	20.34
694.311	20.44
694.497	20.45
694.682	20.4
694.868	20.59
695.054	20.61
695.239	20.59
695.425	20.61
695.611	20.55
695.796	20.38
695.982	20.25
696.168	20.11
696.353	20.04
696.539	20.07
696.724	19.96
696.91	20.01
697.095	20
697.281	20.07
697.466	20.16
697.652	20.18
697.837	20.17
698.023	20.29
698.208	20.37
698.393	20.41
698.579	20.4
698.764	20.4
698.949	20.33
699.135	20.28
699.32	20.21
699.505	20.15
699.691	20.14
699.876	20.1
700.061	20.15
700.246	20.15
700.432	20.08
700.617	20.02
700.802	19.97
700.987	20.06
701.172	20.17
701.358	20.16
701.543	20.39
701.728	20.32
701.913	20.47
702.098	20.47
702.283	20.46
702.468	20.52
702.653	20.77
702.838	21.02
703.023	20.99
703.208	20.99
703.393	21.09
703.578	20.88
703.763	20.91
703.948	20.91
704.133	20.82
704.318	21.06
704.503	21.13
704.688	21.03
704.873	20.86
705.057	20.75
705.242	20.74
705.427	20.68
705.612	20.65
705.797	20.93
705.981	20.97
706.166	21.03
706.351	20.73
706.536	20.69
706.72	20.84
706.905	20.9
707.09	20.93
707.274	20.91
707.459	21.06
707.644	21.16
707.828	21.1
708.013	21.02
708.197	21.14
708.382	21.35
708.567	21.32
708.751	21.14
708.936	21.09
709.12	21.15
709.305	21.16
709.489	20.95
709.673	20.99
709.858	20.87
710.042	20.97
710.227	20.88
710.411	20.89
710.596	20.9
710.78	20.98
710.964	21.04
711.149	21.02
711.333	21.05
711.517	21.06
711.702	21
711.886	21.06
712.07	21.13
712.254	21.19
712.438	21.03
712.623	21.02
712.807	21.04
712.991	21.12
713.175	21.22
713.359	21.26
713.544	21.31
713.728	21.35
713.912	21.34
714.096	21.19
714.28	21.18
714.464	21.26
714.648	21.3
714.832	21.07
715.016	21.18
715.2	21.09
715.384	21.13
715.568	21.23
715.752	21.05
715.936	21.14
716.12	21.3
716.304	21.25
716.488	21.15
716.671	21.28
716.855	21.57
717.039	21.26
717.223	21.18
717.407	21.19
717.59	21.22
717.774	21.38
717.958	21.41
718.142	21.27
718.325	21.25
718.509	21.36
718.693	21.28
718.877	21.18
719.06	21.11
719.244	21.12
719.428	21.11
719.611	21.07
719.795	20.92
719.978	20.97
720.162	20.92
720.345	21.12
720.529	21.07
720.713	21.05
720.896	21.02
721.08	21.19
721.263	21.29
721.446	21.3
721.63	21.45
721.813	21.47
721.997	21.53
722.18	21.71
722.364	21.49
722.547	21.53
722.73	21.5
722.914	21.62
723.097	21.76
723.28	21.79
723.464	21.68
723.647	21.54
723.83	21.93
724.013	21.74
724.197	21.91
724.38	22.08
724.563	22.22
724.746	22.18
724.929	22.38
725.112	22.21
725.296	22.27
725.479	22.1
725.662	22.03
725.845	21.74
726.028	21.67
726.211	21.47
726.394	21.51
726.577	21.31
726.76	21.27
726.943	21.08
727.126	21.16
727.309	21.25
727.492	21.51
727.675	21.62
727.858	21.69
728.041	21.84
728.224	21.87
728.407	21.66
728.589	21.79
728.772	21.9
728.955	21.91
729.138	22.06
729.321	21.9
729.503	22.01
729.686	21.99
729.869	22.05
730.052	22.06
730.234	21.96
730.417	22.02
730.6	22.01
730.782	21.99
730.965	22.03
731.148	21.96
731.33	21.89
731.513	21.88
731.695	21.79
731.878	21.73
732.061	21.49
732.243	21.65
732.426	21.59
732.608	21.63
732.791	21.64
732.973	21.76
733.156	21.75
733.338	21.86
733.52	21.75
733.703	21.76
733.885	21.85
734.068	22.1
734.25	22.07
734.432	22.16
734.615	22.03
734.797	21.97
734.979	21.76
735.162	21.69
735.344	21.85
735.526	21.82
735.708	21.78
735.891	21.6
736.073	21.46
736.255	21.4
736.437	21.47
736.619	21.55
736.802	21.65
736.984	21.63
737.166	21.86
737.348	21.75
737.53	21.84
737.712	21.91
737.894	21.9
738.076	22.02
738.258	22.09
738.44	22.21
738.622	22.32
738.804	22.21
738.986	22.2
739.168	22.19
739.35	22.18
739.532	22.38
739.714	22.5
739.896	22.96
740.078	23
740.259	22.96
740.441	22.99
740.623	22.75
740.805	22.86
740.987	22.76
741.168	22.48
741.35	22.59
741.532	22.32
741.714	22.3
741.895	21.87
742.077	21.76
742.259	21.71
742.44	21.48
742.622	21.81
742.804	21.65
742.985	21.88
743.167	21.92
743.348	22.05
743.53	21.98
743.711	21.94
743.893	22.09
744.075	22.2
744.256	22.45
744.438	22.44
744.619	22.21
744.8	22.43
744.982	22.54
745.163	22.21
745.345	21.88
745.526	22.2
745.707	22.36
745.889	21.96
746.07	21.9
746.252	21.91
746.433	22.02
746.614	21.93
746.795	21.44
746.977	21.39
747.158	22.07
747.339	22.06
747.52	21.81
747.702	21.71
747.883	21.92
748.064	21.99
748.245	21.8
748.426	21.69
748.607	22.04
748.788	22.42
748.97	22.44
749.151	22.25
749.332	22.27
749.513	22.15
749.694	22.41
749.875	22.58
750.056	22.61
750.237	22.55
750.418	22.68
750.599	22.62
750.78	22.83
750.96	22.71
751.141	22.75
751.322	22.76
751.503	23.46
751.684	23.34
751.865	23.22
752.046	22.91
752.226	23.02
752.407	23.23
752.588	23.35
752.769	23.17
752.949	23
753.13	22.91
753.311	22.96
753.492	22.47
753.672	22.62
753.853	22.97
754.034	23.32
754.214	23.42
754.395	23.15
754.575	22.92
754.756	22.93
754.937	23.13
755.117	23.21
755.298	23.35
755.478	23.22
755.659	23.17
755.839	22.71
756.02	22.6
756.2	22.6
756.381	22.52
756.561	22.87
756.741	23.21
756.922	23.26
757.102	23.29
757.283	23.18
757.463	23.25
757.643	23.08
757.823	23.34
758.004	23.21
758.184	22.99
758.364	23.39
758.545	23.29
758.725	22.93
758.905	22.74
759.085	22.68
759.265	22.8
759.446	22.9
759.626	22.93
759.806	22.91
759.986	23.02
760.166	23.08
760.346	22.77
760.526	22.6
760.706	22.66
760.886	22.79
761.066	22.73
761.246	22.44
761.426	22.55
761.606	22.53
761.786	22.35
761.966	22.38
762.146	22.33
762.326	22.37
762.506	22.43
762.686	22.4
762.866	22.5
763.046	22.75
763.225	22.94
763.405	22.7
763.585	22.6
763.765	22.79
763.945	22.77
764.124	22.89
764.304	23.12
764.484	22.94
764.664	22.96
764.843	22.99
765.023	22.78
765.203	22.69
765.382	22.94
765.562	23.01
765.741	22.89
765.921	22.92
766.101	22.93
766.28	22.89
766.46	23.11
766.639	23.36
766.819	23.31
766.998	23.44
767.178	23.43
767.357	23.35
767.537	23.25
767.716	23.45
767.896	23.4
768.075	23.49
768.254	23.01
768.434	22.98
768.613	22.95
768.792	22.77
768.972	22.53
769.151	22.45
769.33	22.25
769.51	22.83
769.689	22.99
769.868	23.25
770.047	23.57
770.226	23.89
770.406	23.97
770.585	23.85
770.764	24.1
770.943	24.48
771.122	24.53
771.301	25.16
771.48	24.99
771.66	24.54
771.839	24.48
772.018	24.14
772.197	24.03
772.376	24.26
772.555	24.34
772.734	24.24
772.913	24.08
773.092	24.26
773.271	23.31
773.449	23.34
773.628	23.95
773.807	23.61
773.986	23.41
774.165	23.24
774.344	23.09
774.523	22.65
774.701	22.57
774.88	22.5
775.059	22.17
775.238	22.84
775.417	22.62
775.595	22.04
775.774	22.15
775.953	22.4
776.131	22.53
776.31	22.3
776.489	22.5
776.667	22.54
776.846	22.28
777.025	22.56
777.203	22.42
777.382	22.7
777.56	22.58
777.739	22.78
777.917	22.39
778.096	22.48
778.274	22.89
778.453	23.2
778.631	23.07
778.81	23.54
778.988	23.52
779.166	23.27
779.345	22.99
779.523	23.3
779.702	23.57
779.88	23.97
780.058	24.17
780.237	23.99
780.415	23.73
780.593	23.47
780.771	23.51
780.95	23.86
781.128	23.88
781.306	23.93
781.484	24.31
781.662	23.58
781.841	23.57
782.019	23.35
782.197	23.42
782.375	23.46
782.553	24.27
782.731	23.97
782.909	23.87
783.087	24.44
783.265	24.95
783.443	24.78
783.621	25.38
783.799	25.22
783.977	25.59
784.155	25.54
784.333	26.24
784.511	25.4
784.689	25.74
784.867	25.58
785.045	25.4
785.223	24.58
785.4	24.15
785.578	23.87
785.756	23.92
785.934	23.5
786.112	23.4
786.289	23.01
786.467	23.5
786.645	22.95
786.823	22.84
787	23.06
787.178	23.24
787.356	23.62
787.533	23.55
787.711	23.54
787.889	23.69
788.066	23.66
788.244	23.65
788.421	23.98
788.599	24.08
788.776	24.42
788.954	24.33
789.131	24.38
789.309	24.41
789.486	24.7
789.664	25.28
789.841	25.29
790.019	25.52
790.196	25.82
790.373	25.35
790.551	25.85
790.728	25.3
790.906	25.73
791.083	25.93
791.26	25.78
791.437	25.93
791.615	25.58
791.792	25.26
791.969	25.36
792.146	24.97
792.324	24.93
792.501	24.92
792.678	25.26
792.855	24.42
793.032	24.21
793.209	24.07
793.387	23.56
793.564	23.76
793.741	24.63
793.918	24.29
794.095	24.15
794.272	24.41
794.449	23.87
794.626	24.37
794.803	25.15
794.98	25.14
795.157	25.63
795.334	26
795.511	25.2
795.688	24.54
795.864	24.39
796.041	24.63
796.218	25.1
796.395	25.56
796.572	25.02
796.749	24.67
796.925	24.88
797.102	24.95
797.279	24.86
797.456	24.97
797.632	25.23
797.809	26.04
797.986	25.82
798.162	25.3
798.339	24.86
798.516	25.35
798.692	25.31
798.869	24.9
799.046	24.82
799.222	25.5
799.399	25.72
799.575	25.67
799.752	25.18
799.928	25.52
800.105	25.78
800.281	25.94
800.458	26.03
800.634	25.92
800.811	26.3
800.987	25.8
801.163	24.85
801.34	24.9
801.516	24.76
801.692	25.01
801.869	25.07
802.045	24.85
802.221	24.52
802.398	23.77
802.574	23.99
802.75	24.24
802.926	24.96
803.103	25.39
803.279	25.35
803.455	25.56
803.631	25.21
803.807	25.06
803.983	26.05
804.16	26.88
804.336	27.65
804.512	27.41
804.688	26.97
804.864	26.55
805.04	26.39
805.216	27.32
805.392	28.07
805.568	28.25
805.744	28.21
805.92	27.77
806.096	27.47
806.272	28.13
806.448	27.99
806.623	28.13
806.799	27.81
806.975	28.15
807.151	27.95
807.327	26.8
807.503	26.6
807.678	26.23
807.854	26.14
808.03	26.19
808.206	25.33
808.381	25.88
808.557	25.81
808.733	25.92
808.908	25.62
809.084	25.59
809.26	26.07
809.435	26.82
809.611	27.33
809.787	26.4
809.962	26.35
810.138	26.3
810.313	26.13
810.489	26.19
810.664	26.58
810.84	26.08
811.015	25.8
811.191	25.7
811.366	25.76
811.542	25.9
811.717	26.2
811.892	26.57
812.068	26.99
812.243	27.05
812.419	27.45
812.594	27.29
812.769	27.43
812.944	27.71
813.12	28.25
813.295	27.79
813.47	27.54
813.645	28.31
813.821	28.4
813.996	28.69
814.171	28.51
814.346	28.11
814.521	28.4
814.697	29.41
814.872	29.24
815.047	29.08
815.222	29.37
815.397	28.63
815.572	28.17
815.747	27.96
815.922	27.4
816.097	27.81
816.272	28.66
816.447	28.32
816.622	28.11
816.797	28.06
816.972	27.85
817.147	27.46
817.322	27.64
817.496	27.96
817.671	28.09
817.846	27.51
818.021	26.99
818.196	26.39
818.371	26.35
818.545	25.75
818.72	26.05
818.895	25.96
819.069	25.44
819.244	25.88
819.419	25.58
819.594	25.23
819.768	25.25
819.943	25.18
820.117	25.01
820.292	24.82
820.467	24.75
820.641	24.4
820.816	24.35
820.99	24.38
821.165	24.32
821.339	24.28
821.514	24.51
821.688	24.61
821.863	24.62
822.037	24.54
822.212	24.57
822.386	24.65
822.56	24.79
822.735	24.86
822.909	25.02
823.084	25.14
823.258	25.28
823.432	25.01
823.606	25.07
823.781	25.16
823.955	25.35
824.129	25.27
824.303	25.17
824.478	24.91
824.652	24.83
824.826	24.53
825	24.46
825.174	24.14
825.348	24.15
825.523	23.98
825.697	24.08
825.871	23.96
826.045	24.43
826.219	24.64
826.393	24.92
826.567	24.81
826.741	24.96
826.915	24.9
827.089	24.96
827.263	25.17
827.437	25.34
827.611	25.17
827.784	25.07
827.958	24.95
828.132	24.95
828.306	25.16
828.48	25.58
828.654	25.47
828.827	25.65
829.001	26.03
829.175	26.06
829.349	26.11
829.522	26.06
829.696	27.14
829.87	26.99
830.044	27.28
830.217	27.3
830.391	27.32
830.565	27.63
830.738	27.88
830.912	27.82
831.085	27.64
831.259	27.86
831.432	28.09
831.606	27.81
831.779	27.7
831.953	27.08
832.126	26.89
832.3	26.57
832.473	26.78
832.647	26.18
832.82	26.26
832.994	26.58
833.167	26.23
833.34	26.02
833.514	25.71
833.687	25.75
833.86	26.17
834.034	25.89
834.207	25.93
834.38	25.79
834.553	26.06
834.727	26.38
834.9	26.1
835.073	26.01
835.246	26.4
835.419	26.79
835.593	26.78
835.766	26.81
835.939	27.49
836.112	27.49
836.285	27.78
836.458	28.42
836.631	27.99
836.804	28.63
836.977	28.62
837.15	28.29
837.323	28.39
837.496	27.97
837.669	26.92
837.842	26.96
838.015	27.41
838.188	27.11
838.361	25.53
838.533	25.28
838.706	24.89
838.879	25.44
839.052	25.52
839.225	25.65
839.398	26.35
839.57	27.27
839.743	27.13
839.916	26.68
840.088	27.24
840.261	28.48
840.434	28.97
840.607	29.57
840.779	30.19
840.952	30.74
841.124	30.46
841.297	31.81
841.47	32.55
841.642	33.06
841.815	32.99
841.987	32.24
842.16	31.72
842.332	31.3
842.505	31.74
842.677	31.16
842.85	30.07
843.022	29.9
843.194	28.91
843.367	29.62
843.539	29.47
843.712	30.06
843.884	30.68
844.056	31.98
844.229	33.38
844.401	32.74
844.573	33.33
844.745	35.44
844.918	36.04
845.09	35.85
845.262	33.22
845.434	32.6
845.606	33.33
845.779	34.4
845.951	33.19
846.123	31.25
846.295	30.16
846.467	30.66
846.639	31.18
846.811	30.72
846.983	30.39
847.155	31.44
847.327	30.93
847.499	30.63
847.671	29.64
847.843	30.03
848.015	30.64
848.187	31.16
848.359	27.91
848.531	25.37
848.703	25.77
848.875	25.66
849.047	24.51
849.218	25.55
849.39	24.87
849.562	24.52
849.734	24.87
849.905	25.39
850.077	25.14
850.249	28.79
850.421	30.03
850.592	28.67
850.764	30.05
850.936	30.16
851.107	30.12
851.279	30.93
851.451	31.11
851.622	32.04
851.794	32.26
851.965	33.3
852.137	32.94
852.308	33.95
852.48	35.84
852.651	33.8
852.823	36.65
852.994	36.79
853.166	38.96
853.337	40.61
853.509	38.3
853.68	39.61
853.851	38.9
854.023	36.66
854.194	34.92
854.365	34.58
854.537	34.36
854.708	31.19
854.879	31.58
855.05	29.71
855.222	29.65
855.393	31.39
855.564	29.8
855.735	28.03
855.906	27.16
856.078	27.78
856.249	27.99
856.42	28.81
856.591	30.81
856.762	29.73
856.933	29.38
857.104	28.21
857.275	28.06
857.446	28.97
857.617	32.27
857.788	35.33
857.959	37.2
858.13	38.02
858.301	38.16
858.472	36.27
858.643	37.46
858.814	38.46
858.985	39.25
859.155	38.68
859.326	37.56
859.497	36.62
859.668	35.77
859.839	36.13
860.009	35.05
860.18	33.63
860.351	34.87
860.522	34.64
860.692	33.4
860.863	33.18
861.034	33.86
861.204	34.35
861.375	34.61
861.546	33.54
861.716	30.72
861.887	32.01
862.057	32.84
862.228	31.36
862.398	31.5
862.569	31.77
862.739	32.31
862.91	32.68
863.08	32.97
863.251	33.32
863.421	35.41
863.592	36.88
863.762	36.45
863.932	35.28
864.103	36.65
864.273	37.28
864.443	37.21
864.614	36.68
864.784	38.33
864.954	38.39
865.125	39.24
865.295	39.16
865.465	38.73
865.635	38.44
865.805	42.89
865.976	42.28
866.146	41.28
866.316	40.83
866.486	40.96
866.656	38.53
866.826	37
866.996	35.49
867.166	37
867.336	36.54
867.506	36.04
867.676	32.14
867.846	33.36
868.016	31.83
868.186	32.09
868.356	32.56
868.526	30.83
868.696	31.72
868.866	31.1
869.036	29.12
869.206	28.34
869.376	29.31
869.545	31.04
869.715	31.59
869.885	32.33
870.055	32.05
870.224	32.06
870.394	35.85
870.564	36.43
870.734	36.47
870.903	35.2
871.073	35.19
871.243	34.85
871.412	34.52
871.582	34.77
871.751	35.76
871.921	37.36
872.091	35.52
872.26	35.38
872.43	33.68
872.599	32.99
872.769	34.37
872.938	36.25
873.108	35.56
873.277	35.65
873.446	34.21
873.616	32.96
873.785	34.16
873.955	34.7
874.124	33.22
874.293	32.86
874.463	35.52
874.632	34.81
874.801	33.2
874.971	34.75
875.14	34.33
875.309	34.16
875.478	35.69
875.647	33.38
875.817	32.14
875.986	32.41
876.155	35.06
876.324	32.64
876.493	33.92
876.662	33.76
876.831	31.55
877	32.12
877.17	32.41
877.339	32.83
877.508	32.92
877.677	35.2
877.846	34.44
878.015	33.02
878.184	32.97
878.352	31.57
878.521	32.34
878.69	34.32
878.859	33.78
879.028	31.88
879.197	30.78
879.366	30.43
879.534	30.52
879.703	30.11
879.872	29.04
880.041	29.56
880.21	29.21
880.378	28.23
880.547	27.17
880.716	26.83
880.884	27.51
881.053	27.32
881.222	27.31
881.39	26.84
881.559	26.67
881.727	26.95
881.896	26.6
882.065	26.73
882.233	27.02
882.402	27.46
882.57	27.65
882.739	27.37
882.907	27.12
883.076	27.02
883.244	27.02
883.412	27.27
883.581	27.37
883.749	27.16
883.918	26.95
884.086	27.43
884.254	27.56
884.423	28.31
884.591	29.32
884.759	30.09
884.927	31.05
885.096	31.5
885.264	32.4
885.432	33.87
885.6	34.97
885.769	34.14
885.937	33.91
886.105	34.65
886.273	33.68
886.441	32.81
886.609	32.56
886.777	31.16
886.945	31.97
887.113	31.73
887.281	29.11
887.449	28.22
887.617	31.14
887.785	29.49
887.953	28.5
888.121	28.13
888.289	28.54
888.457	30.24
888.625	30.23
888.793	29.93
888.961	29.36
889.129	30.11
889.296	32.33
889.464	31.84
889.632	33.74
889.8	32.7
889.967	33.26
890.135	32.56
