Data from JASIL_3266_Reflection_2.txt Node
Date: Mon Nov 16 21:01:23 EST 2015
User: Geneva
Spectrometer: USB4E03002
Autoset integration time: false
Trigger mode: 4
Integration Time (sec): 1.000000E-1
Scans to average: 10
Electric dark correction enabled: false
Nonlinearity correction enabled: false
Boxcar width: 5
Stray light correction enabled: false
XAxis mode: Wavelengths
Stop averaging: false
Number of Pixels in Spectrum: 3648
>>>>>Begin Spectral Data<<<<<
177.575	-830.77
177.794	-802.14
178.014	-782.53
178.233	-1330.84
178.452	-1977.11
178.672	-1418.94
178.891	-1773.58
179.11	5421.62
179.33	1808.93
179.549	-9081.82
179.768	1644.92
179.987	1994.62
180.207	1266.45
180.426	725.44
180.645	797.92
180.864	1354.55
181.084	543.7
181.303	507.41
181.522	941.82
181.741	2794.37
181.96	660.97
182.179	878.44
182.398	964.44
182.618	911.44
182.837	902.52
183.056	783.33
183.275	523.43
183.494	543.95
183.713	591.85
183.932	466.12
184.151	495.4
184.37	513.86
184.589	415.92
184.808	367.96
185.027	353.42
185.246	432.21
185.465	627.63
185.684	676.3
185.903	2770.11
186.122	1033.63
186.341	1355.62
186.56	675
186.779	1173.06
186.998	1664.62
187.216	1693.7
187.435	1404.79
187.654	1234.59
187.873	581.68
188.092	529.02
188.311	468.12
188.53	762.2
188.748	754.04
188.967	1770.4
189.186	875.1
189.405	943.29
189.623	969.91
189.842	855.14
190.061	937.8
190.28	2530.77
190.498	-2115
190.717	1529.37
190.936	-3049.15
191.154	-1379.46
191.373	-29883.33
191.592	-16200
191.81	-1039.08
192.029	-1445.04
192.248	-470.86
192.466	-455.31
192.685	-506.28
192.904	-762.27
193.122	-537.6
193.341	-1116.76
193.559	-1064.97
193.778	-1210.91
193.996	-1622.9
194.215	54900
194.433	-5050
194.652	1034.48
194.87	857.58
195.089	822.27
195.307	944.74
195.526	2893.22
195.744	1563.16
195.963	1021.98
196.181	22075
196.399	-1480.34
196.618	9015
196.836	30133.33
197.055	-1563.11
197.273	-3462.07
197.491	-2313.33
197.71	-4070.59
197.928	2625
198.146	5083.33
198.365	-21470
198.583	1018.18
198.801	1376.61
199.019	2987.01
199.238	-5504.76
199.456	2354.72
199.674	1042.37
199.892	767.07
200.111	1015.77
200.329	1024.53
200.547	782.25
200.765	675.92
200.983	736.45
201.202	560.24
201.42	862.6
201.638	522.17
201.856	580.97
202.074	1680.99
202.292	1837.37
202.51	1140.82
202.728	1609.28
202.946	-3775
203.165	5624.24
203.383	-2001.03
203.601	-2431.4
203.819	4660
204.037	24870
204.255	2556.7
204.473	1154.67
204.691	1766.67
204.909	1213.47
205.127	1380.93
205.345	1685.23
205.562	1394.06
205.78	920.47
205.998	1036.33
206.216	911.07
206.434	869.26
206.652	812.12
206.87	580.39
207.088	464.72
207.306	577.26
207.523	526.1
207.741	403.57
207.959	443.58
208.177	490.36
208.395	385.03
208.612	433.77
208.83	379.2
209.048	414.75
209.266	552.32
209.483	593.65
209.701	454.04
209.919	489.77
210.136	509.24
210.354	1158
210.572	1052.94
210.79	1682.96
211.007	984.72
211.225	1651.16
211.442	-9028.57
211.66	-2409.72
211.878	-1000
212.095	257.04
212.313	311.64
212.53	423.96
212.748	233.13
212.966	233.24
213.183	219.78
213.401	218.26
213.618	207.29
213.836	250.25
214.053	264.02
214.271	256.27
214.488	1877.31
214.705	989.91
214.923	711.61
215.14	789.68
215.358	640.62
215.575	931.13
215.793	968.04
216.01	1423.93
216.227	530.85
216.445	406.17
216.662	469.57
216.879	478.65
217.097	395.77
217.314	442.78
217.531	517.37
217.749	580.4
217.966	738
218.183	600.28
218.4	644.95
218.618	732.28
218.835	778.1
219.052	499.73
219.269	453.66
219.487	702.08
219.704	493.04
219.921	376.96
220.138	280.7
220.355	268.16
220.572	280
220.79	299.83
221.007	368.2
221.224	503.65
221.441	489.28
221.658	567.11
221.875	393.8
222.092	404.74
222.309	634.06
222.526	747.58
222.743	708.84
222.96	995.75
223.177	477.07
223.394	498.02
223.611	325.2
223.828	393.7
224.045	414.85
224.262	500.24
224.479	325.84
224.696	260.7
224.913	305.4
225.13	245.29
225.347	210.91
225.564	202.63
225.781	170.11
225.997	176.17
226.214	148.73
226.431	124.39
226.648	106.55
226.865	105.2
227.082	96.73
227.298	83.12
227.515	75.79
227.732	70.72
227.949	63.02
228.165	61.05
228.382	55.22
228.599	53.8
228.816	54.71
229.032	51.69
229.249	47.98
229.466	48.75
229.682	51.91
229.899	54.77
230.116	52.69
230.332	62.43
230.549	66.49
230.765	70.22
230.982	71.64
231.199	79.17
231.415	89.9
231.632	96.46
231.848	102.07
232.065	110
232.281	106.53
232.498	118.38
232.714	113.29
232.931	110.5
233.147	104.44
233.364	105.31
233.58	101
233.797	102.25
234.013	105.3
234.23	104.36
234.446	97.45
234.662	96.05
234.879	95.8
235.095	96.04
235.312	95.32
235.528	104.12
235.744	109.12
235.961	108.71
236.177	103.4
236.393	110.54
236.61	113.61
236.826	124.75
237.042	133.07
237.258	125.93
237.475	121.33
237.691	119.71
237.907	116.12
238.123	114.7
238.339	103.48
238.556	99.79
238.772	89.44
238.988	76.56
239.204	71.13
239.42	64.47
239.636	66.78
239.853	62.99
240.069	59.42
240.285	56.62
240.501	53.31
240.717	50.11
240.933	44.78
241.149	39.51
241.365	40.63
241.581	37.61
241.797	35.65
242.013	33.68
242.229	34.74
242.445	35.35
242.661	34.64
242.877	34.35
243.093	36.2
243.309	37.96
243.525	41.56
243.741	43.36
243.957	44.39
244.173	46.03
244.388	44.57
244.604	42.98
244.82	41.86
245.036	40.18
245.252	38.04
245.468	34.59
245.683	32.34
245.899	29.13
246.115	26.74
246.331	26.24
246.547	24.55
246.762	23.91
246.978	24.39
247.194	23.32
247.409	23.54
247.625	23.28
247.841	23.78
248.057	24.27
248.272	25.76
248.488	29.04
248.703	29.78
248.919	31.91
249.135	35.59
249.35	34.01
249.566	36.63
249.782	36.99
249.997	38.9
250.213	38.59
250.428	39.08
250.644	39.63
250.859	37.07
251.075	34.1
251.29	35.59
251.506	34.57
251.721	36.08
251.937	35.23
252.152	34.44
252.368	34.97
252.583	36.56
252.798	40.45
253.014	41.18
253.229	42.76
253.445	46.56
253.66	47.45
253.875	48.11
254.091	54.54
254.306	57.64
254.521	61.71
254.737	60.72
254.952	63.05
255.167	62.01
255.383	60.8
255.598	58.08
255.813	54.75
256.028	54.48
256.244	56.26
256.459	51
256.674	49.53
256.889	46.5
257.104	43.3
257.32	39.79
257.535	35.29
257.75	32.97
257.965	30.57
258.18	30.13
258.395	28.04
258.61	25.14
258.826	24.77
259.041	22.89
259.256	22.12
259.471	21.05
259.686	19.81
259.901	18.8
260.116	19.59
260.331	20.66
260.546	21.03
260.761	21.56
260.976	22.1
261.191	23.1
261.406	24.34
261.621	25.76
261.836	29.23
262.05	30.9
262.265	34.42
262.48	32.87
262.695	31.81
262.91	31.35
263.125	30.42
263.34	31.84
263.555	30.63
263.769	31.42
263.984	33.11
264.199	33.52
264.414	36.16
264.629	33.92
264.843	34.13
265.058	34.9
265.273	33.65
265.488	33.32
265.702	33.62
265.917	34.26
266.132	32.12
266.346	30.37
266.561	29.2
266.776	27.41
266.99	27.68
267.205	27.34
267.42	26.02
267.634	27.64
267.849	27.89
268.063	26.54
268.278	27.7
268.492	29.99
268.707	29.56
268.922	28.92
269.136	28.53
269.351	28.57
269.565	29.23
269.78	30.2
269.994	29.12
270.209	28.43
270.423	28.33
270.637	26.54
270.852	23.07
271.066	23.57
271.281	24.93
271.495	24.97
271.709	24.91
271.924	25.66
272.138	25.25
272.353	25.84
272.567	26.13
272.781	26.01
272.996	25.76
273.21	27.3
273.424	27.53
273.638	27.67
273.853	28.3
274.067	28.65
274.281	28.35
274.495	27.96
274.71	26.64
274.924	27.78
275.138	27.38
275.352	26.4
275.566	27.84
275.781	26.59
275.995	26.19
276.209	26.34
276.423	27.85
276.637	26.72
276.851	28.05
277.065	28.27
277.279	27.39
277.493	27.87
277.707	28.9
277.921	28.99
278.135	29.87
278.349	30.33
278.563	29.86
278.777	28.67
278.991	28.18
279.205	28.06
279.419	28.62
279.633	27.75
279.847	26.89
280.061	27.47
280.275	26.98
280.489	26.77
280.703	23.9
280.917	24.12
281.131	23.58
281.344	25.01
281.558	24.06
281.772	23.38
281.986	23.63
282.2	24.29
282.414	22.66
282.627	22.07
282.841	20.19
283.055	21.5
283.269	20.9
283.482	20.43
283.696	19.79
283.91	20.14
284.123	20.42
284.337	19.53
284.551	19.12
284.764	19.69
284.978	19.64
285.192	19.75
285.405	19.52
285.619	19.62
285.833	19.75
286.046	19.44
286.26	18.48
286.473	17.32
286.687	18.24
286.9	18.1
287.114	18.8
287.327	19.4
287.541	19.49
287.754	19.03
287.968	19.04
288.181	19.41
288.395	18.76
288.608	21.09
288.822	21.83
289.035	22.56
289.248	22.3
289.462	21.13
289.675	20.44
289.889	21.83
290.102	21.26
290.315	22.04
290.529	21.58
290.742	21.87
290.955	20.75
291.169	20.84
291.382	20.03
291.595	21.49
291.808	22.35
292.022	22.93
292.235	22.86
292.448	24.13
292.661	22.99
292.875	25.13
293.088	26.31
293.301	24.58
293.514	23.72
293.727	22.64
293.94	20.24
294.153	22.06
294.367	21.53
294.58	20.81
294.793	20.61
295.006	21.43
295.219	19.7
295.432	19.29
295.645	19.4
295.858	19.71
296.071	20.62
296.284	20.95
296.497	18.61
296.71	18.58
296.923	18.93
297.136	18.82
297.349	17.88
297.562	17.85
297.775	17.52
297.988	17.29
298.201	17.84
298.414	16.49
298.626	16.71
298.839	16.99
299.052	16.89
299.265	16.94
299.478	17.59
299.691	17.96
299.903	19.29
300.116	19.99
300.329	21.22
300.542	21.26
300.755	22.77
300.967	22.59
301.18	22.74
301.393	23.66
301.605	24.45
301.818	22.51
302.031	22.53
302.243	21.73
302.456	22.97
302.669	23.85
302.881	24.54
303.094	24.02
303.307	23.57
303.519	25.05
303.732	25.07
303.944	23.89
304.157	25.35
304.37	25.5
304.582	25.47
304.795	24.46
305.007	23.78
305.22	22.86
305.432	22.39
305.645	23.33
305.857	23.53
306.069	22.44
306.282	22.56
306.494	21.79
306.707	21.94
306.919	21.68
307.132	20.56
307.344	20.42
307.556	20.03
307.769	21.79
307.981	22.14
308.193	18.86
308.406	19.7
308.618	20.49
308.83	20.47
309.043	19.45
309.255	19.77
309.467	19.8
309.679	19.98
309.892	20.07
310.104	19.25
310.316	18.94
310.528	20.28
310.74	19.64
310.953	18.66
311.165	19.88
311.377	19.71
311.589	19.64
311.801	19.78
312.013	19.79
312.225	21.38
312.437	20.83
312.649	21.21
312.862	22.82
313.074	22.13
313.286	23.35
313.498	23.26
313.71	23.66
313.922	24.29
314.134	25.26
314.346	25.3
314.558	24.2
314.77	25.75
314.982	26.23
315.193	25.15
315.405	26.29
315.617	24.17
315.829	23.84
316.041	24.26
316.253	24.35
316.465	24.94
316.677	25.18
316.888	24.75
317.1	24.13
317.312	23.54
317.524	23.29
317.736	24.35
317.947	27.97
318.159	28.8
318.371	28.81
318.583	28.05
318.794	27.37
319.006	26.9
319.218	26.16
319.43	27.12
319.641	28.34
319.853	28.34
320.064	27.33
320.276	25.01
320.488	23.87
320.699	24.77
320.911	26.61
321.123	28.59
321.334	30.82
321.546	32.54
321.757	32.64
321.969	32.77
322.18	32.89
322.392	32.57
322.603	32.28
322.815	31.85
323.026	31.05
323.238	30.08
323.449	27.89
323.661	25.45
323.872	25.69
324.083	25.37
324.295	24.52
324.506	24.83
324.718	24.02
324.929	24.53
325.14	25.32
325.352	25.63
325.563	25.5
325.774	25.61
325.986	25.61
326.197	25.5
326.408	24.97
326.62	24.96
326.831	24.37
327.042	24.9
327.253	24.25
327.464	25.28
327.676	24.95
327.887	25.12
328.098	25.74
328.309	26.93
328.52	27.68
328.732	27.26
328.943	27.08
329.154	27.63
329.365	28.87
329.576	30.86
329.787	28.67
329.998	29.82
330.209	28.16
330.42	27.73
330.631	28.5
330.842	26.2
331.053	26.97
331.264	26.92
331.475	26.76
331.686	26.84
331.897	25.65
332.108	27.38
332.319	25.96
332.53	26.18
332.741	25.72
332.952	24.49
333.163	24.85
333.374	24.28
333.585	24.51
333.795	24.63
334.006	23.34
334.217	23.25
334.428	21.67
334.639	22.47
334.849	22.77
335.06	23.04
335.271	23.61
335.482	24.95
335.692	23.9
335.903	23.01
336.114	23.57
336.325	23.94
336.535	24.64
336.746	26.71
336.957	26.42
337.167	26.75
337.378	27.17
337.589	25.89
337.799	24.03
338.01	25.98
338.22	26.93
338.431	26.17
338.642	26.32
338.852	25.37
339.063	23.73
339.273	23.82
339.484	24.62
339.694	23.84
339.905	24.32
340.115	25.27
340.326	24.65
340.536	24.71
340.746	25.29
340.957	23.99
341.167	24.39
341.378	23.54
341.588	22.72
341.799	21.93
342.009	22.49
342.219	22.9
342.43	23.11
342.64	23.51
342.85	22.75
343.061	22.18
343.271	22.68
343.481	21.45
343.691	22.2
343.902	23.55
344.112	23.1
344.322	22.23
344.532	23.17
344.743	23.69
344.953	22.9
345.163	22.95
345.373	23.12
345.583	24.97
345.793	26.06
346.004	26.46
346.214	25.06
346.424	24.8
346.634	24.92
346.844	23.76
347.054	22.85
347.264	23.08
347.474	23.72
347.684	23.49
347.894	21.84
348.104	21.47
348.314	20.48
348.524	21.83
348.734	21.7
348.944	22.05
349.154	22.38
349.364	22.05
349.574	21.47
349.784	21.16
349.994	20.65
350.204	20.42
350.413	20.37
350.623	21.14
350.833	19.18
351.043	18.64
351.253	19.16
351.463	18.67
351.672	19.19
351.882	19.94
352.092	19.71
352.302	21
352.511	21.24
352.721	21.94
352.931	21.14
353.141	22.68
353.35	23.57
353.56	23.18
353.77	23.2
353.979	23.34
354.189	22.54
354.399	22.63
354.608	22.26
354.818	22.64
355.027	22.33
355.237	22.27
355.447	21.35
355.656	21.51
355.866	21.09
356.075	20.93
356.285	20.91
356.494	20.81
356.704	20.57
356.913	19.77
357.123	20.22
357.332	19.44
357.542	19.47
357.751	19.73
357.96	20.21
358.17	20.53
358.379	20.53
358.589	19.7
358.798	19.68
359.007	19.79
359.217	18.86
359.426	17.59
359.635	17.98
359.845	17.27
360.054	17.7
360.263	17.23
360.472	16.58
360.682	16.37
360.891	17.02
361.1	16.82
361.309	16.03
361.519	16.52
361.728	16.81
361.937	16.01
362.146	16.22
362.355	16.24
362.564	16.24
362.774	16.52
362.983	16.9
363.192	16.69
363.401	17.48
363.61	18.09
363.819	18.49
364.028	17.57
364.237	17.9
364.446	18.88
364.655	18.14
364.864	18.02
365.073	18.66
365.282	18.34
365.491	17.69
365.7	17.23
365.909	17.19
366.118	17.69
366.327	19.51
366.536	19.42
366.745	18.52
366.954	19.58
367.162	19.96
367.371	19.5
367.58	19.69
367.789	19.77
367.998	20.11
368.207	20.62
368.415	20.98
368.624	19.98
368.833	21.08
369.042	21.57
369.25	21.61
369.459	21.14
369.668	21.27
369.877	21.44
370.085	21.45
370.294	20.97
370.503	20.51
370.711	19.75
370.92	20.46
371.129	20.44
371.337	20.21
371.546	18.78
371.754	19.41
371.963	19.5
372.171	19.56
372.38	19.77
372.589	20.54
372.797	20.13
373.006	20.6
373.214	19.89
373.423	18.79
373.631	18.36
373.84	18.2
374.048	16.83
374.256	16.51
374.465	16.36
374.673	16.01
374.882	14.47
375.09	14.28
375.298	14.31
375.507	14
375.715	14.44
375.923	13.83
376.132	13.86
376.34	14.53
376.548	15
376.757	14.48
376.965	15.1
377.173	15.94
377.381	16.74
377.59	16.25
377.798	16.31
378.006	15.54
378.214	16.52
378.423	17.29
378.631	17.34
378.839	15.74
379.047	16.04
379.255	15.53
379.463	15.61
379.671	15.19
379.879	14.88
380.088	15.21
380.296	15.99
380.504	16.35
380.712	16.06
380.92	15.56
381.128	16.52
381.336	16.34
381.544	16.46
381.752	15.54
381.96	15.77
382.168	16.09
382.376	15.78
382.584	15.7
382.791	15.13
382.999	15.43
383.207	15.3
383.415	15.5
383.623	15.09
383.831	14.91
384.039	15.9
384.247	16.05
384.454	16.07
384.662	15.96
384.87	15.46
385.078	15.4
385.285	14.96
385.493	15.82
385.701	15.75
385.909	15.9
386.116	16.22
386.324	16.02
386.532	16.25
386.739	15.82
386.947	15.67
387.155	16.47
387.362	16.23
387.57	16.84
387.778	16.7
387.985	16.37
388.193	16.84
388.4	16.56
388.608	16.44
388.816	15.56
389.023	15.12
389.231	15.12
389.438	14.64
389.646	14.86
389.853	14.09
390.061	13.73
390.268	13.69
390.475	12.96
390.683	12.23
390.89	12.4
391.098	12.11
391.305	12.97
391.512	12.74
391.72	11.76
391.927	11.98
392.135	12.15
392.342	12.06
392.549	12.78
392.756	13.52
392.964	14.06
393.171	13.94
393.378	14.39
393.586	13.79
393.793	13.57
394	14.57
394.207	14.28
394.414	14.07
394.622	13.9
394.829	13.09
395.036	12.58
395.243	12.74
395.45	12.97
395.657	13.01
395.864	13.3
396.072	14.54
396.279	14.28
396.486	14.41
396.693	15
396.9	15.94
397.107	16.28
397.314	16.66
397.521	16.88
397.728	16.03
397.935	15.51
398.142	15.41
398.349	14.31
398.556	14.04
398.763	14.2
398.97	14
399.177	13.49
399.383	13.86
399.59	14.05
399.797	13.75
400.004	14.28
400.211	14.8
400.418	15.4
400.625	15.91
400.831	15.86
401.038	15.82
401.245	15.64
401.452	15.18
401.658	14.71
401.865	14.2
402.072	14.36
402.279	14.05
402.485	13.74
402.692	12.96
402.899	12.7
403.105	13.01
403.312	12.94
403.519	13.22
403.725	12.99
403.932	13.01
404.138	12.47
404.345	12.32
404.552	12.42
404.758	12.55
404.965	12.44
405.171	12.78
405.378	12.64
405.584	12.36
405.791	12.18
405.997	12.74
406.204	12.67
406.41	13.3
406.617	13.51
406.823	13.89
407.029	13.74
407.236	14.1
407.442	14.33
407.649	14.73
407.855	14.72
408.061	14.77
408.268	14.57
408.474	14.65
408.68	14.36
408.887	13.82
409.093	13.09
409.299	12.66
409.505	12.38
409.712	12.1
409.918	11.86
410.124	11.66
410.33	10.97
410.537	10.76
410.743	10.58
410.949	10.91
411.155	10.79
411.361	11.81
411.567	12.47
411.773	12.65
411.98	11.98
412.186	11.95
412.392	12.25
412.598	12.33
412.804	12.48
413.01	12.79
413.216	13.41
413.422	14.02
413.628	13.35
413.834	13.02
414.04	13.26
414.246	14.12
414.452	14.14
414.658	13.9
414.864	14.26
415.07	14.32
415.275	14.07
415.481	13.36
415.687	12.72
415.893	12.38
416.099	12.38
416.305	12.26
416.511	11.75
416.716	11.11
416.922	11.05
417.128	10.95
417.334	10.83
417.539	10.63
417.745	10.59
417.951	10.49
418.157	10.25
418.362	10.18
418.568	9.8
418.774	9.4
418.979	9.43
419.185	9.3
419.391	9.4
419.596	9.1
419.802	8.87
420.008	8.34
420.213	8.21
420.419	8.32
420.624	8.22
420.83	8.27
421.035	8.44
421.241	8.51
421.446	8.66
421.652	8.28
421.857	8.42
422.063	8.57
422.268	8.89
422.474	9.15
422.679	8.98
422.885	9.13
423.09	9.12
423.295	8.95
423.501	9.13
423.706	8.97
423.911	8.93
424.117	9.02
424.322	9.08
424.527	8.95
424.733	8.83
424.938	9.31
425.143	9
425.349	8.83
425.554	9.37
425.759	9.33
425.964	9.24
426.169	9.53
426.375	9.5
426.58	9.49
426.785	9.62
426.99	9.94
427.195	9.86
427.4	9.98
427.605	10.64
427.811	10.22
428.016	10.51
428.221	10.94
428.426	11.02
428.631	10.99
428.836	10.6
429.041	10.9
429.246	10.98
429.451	11.05
429.656	11.18
429.861	10.63
430.066	10.9
430.271	10.73
430.476	10.55
430.681	10.76
430.886	10.77
431.09	10.86
431.295	10.72
431.5	10.42
431.705	9.97
431.91	9.78
432.115	9.8
432.32	9.82
432.524	9.55
432.729	9.47
432.934	8.98
433.139	8.87
433.343	9.34
433.548	9.25
433.753	9.15
433.958	9.51
434.162	9.75
434.367	10.17
434.572	10.19
434.776	10.51
434.981	10.82
435.186	11.33
435.39	11.56
435.595	11.49
435.799	11.3
436.004	11.27
436.209	11.05
436.413	10.81
436.618	10.9
436.822	10.99
437.027	10.61
437.231	10.22
437.436	10.13
437.64	9.63
437.845	9.67
438.049	9.67
438.253	9.79
438.458	9.52
438.662	9.65
438.867	8.81
439.071	8.55
439.275	8.66
439.48	8.83
439.684	8.67
439.888	8.76
440.093	8.88
440.297	8.9
440.501	8.92
440.706	9.02
440.91	9.07
441.114	9.55
441.318	9.72
441.523	9.72
441.727	9.69
441.931	9.7
442.135	9.82
442.339	9.73
442.543	9.75
442.748	9.91
442.952	9.72
443.156	9.53
443.36	9.26
443.564	9.1
443.768	8.91
443.972	9.17
444.176	8.71
444.38	8.58
444.584	8.25
444.788	8.33
444.992	8.04
445.196	8.21
445.4	8.28
445.604	8.54
445.808	8.44
446.012	8.65
446.216	8.47
446.42	8.77
446.624	8.91
446.828	8.96
447.032	8.9
447.235	9.03
447.439	8.95
447.643	8.93
447.847	9
448.051	9.11
448.254	9.04
448.458	9.02
448.662	8.89
448.866	8.99
449.069	9.04
449.273	9.07
449.477	8.93
449.681	9.26
449.884	9.14
450.088	9.03
450.292	9.55
450.495	9.69
450.699	9.86
450.902	10.19
451.106	10
451.31	10.21
451.513	10.43
451.717	10.44
451.92	10.46
452.124	10.59
452.327	10.39
452.531	9.85
452.734	9.99
452.938	9.86
453.141	9.84
453.345	10.23
453.548	10.15
453.752	10.06
453.955	10.53
454.158	10.11
454.362	10.03
454.565	10.42
454.769	10.72
454.972	11.01
455.175	11.08
455.379	10.89
455.582	10.54
455.785	10.82
455.988	10.81
456.192	10.55
456.395	10.94
456.598	11.46
456.801	11.56
457.005	11.24
457.208	10.57
457.411	10.55
457.614	10.64
457.817	10.87
458.021	10.43
458.224	10.38
458.427	10.07
458.63	10.1
458.833	9.53
459.036	8.89
459.239	8.68
459.442	8.68
459.645	8.7
459.848	8.96
460.051	8.71
460.254	8.77
460.457	8.72
460.66	8.75
460.863	8.4
461.066	8.55
461.269	9.02
461.472	9.27
461.675	9.47
461.878	9.57
462.081	9.6
462.284	9.7
462.486	9.8
462.689	9.86
462.892	10.12
463.095	10.54
463.298	10.97
463.5	10.99
463.703	11.12
463.906	10.94
464.109	10.93
464.311	10.64
464.514	11.16
464.717	11.06
464.92	11.08
465.122	11.34
465.325	11.27
465.528	11
465.73	10.56
465.933	10.66
466.135	10.61
466.338	10.28
466.541	10.01
466.743	9.62
466.946	9.76
467.148	9.93
467.351	9.49
467.553	9.47
467.756	9.61
467.958	9.94
468.161	9.6
468.363	9.64
468.566	9.71
468.768	9.61
468.971	9.81
469.173	9.49
469.375	9.4
469.578	9.65
469.78	9.52
469.983	9.54
470.185	9.82
470.387	10.23
470.59	10.35
470.792	10.65
470.994	10.57
471.196	10.32
471.399	10.87
471.601	10.69
471.803	10.56
472.005	10.72
472.208	10.37
472.41	9.85
472.612	9.85
472.814	9.83
473.016	9.33
473.218	9.55
473.421	9.66
473.623	9.28
473.825	9.45
474.027	9.53
474.229	9.57
474.431	9.67
474.633	10.03
474.835	10.14
475.037	10.03
475.239	10.09
475.441	10.31
475.643	10.31
475.845	10.18
476.047	10.03
476.249	9.97
476.451	9.6
476.653	9.53
476.855	9.38
477.057	9.18
477.258	9.06
477.46	9.27
477.662	9.02
477.864	8.63
478.066	8.59
478.268	8.52
478.469	8.33
478.671	8.73
478.873	8.75
479.075	8.74
479.276	8.56
479.478	8.57
479.68	8.37
479.882	8.51
480.083	8.45
480.285	8.46
480.487	8.62
480.688	8.96
480.89	8.81
481.091	8.56
481.293	8.44
481.495	8.25
481.696	8.08
481.898	8.03
482.099	7.78
482.301	7.79
482.502	7.53
482.704	7.23
482.905	6.91
483.107	6.72
483.308	6.74
483.51	6.58
483.711	6.53
483.913	6.44
484.114	6.43
484.315	6.4
484.517	6.31
484.718	6.42
484.92	6.5
485.121	6.48
485.322	6.55
485.524	6.54
485.725	6.68
485.926	6.72
486.127	6.81
486.329	6.77
486.53	6.76
486.731	6.77
486.932	6.68
487.134	6.59
487.335	6.67
487.536	6.61
487.737	6.58
487.938	6.56
488.139	6.5
488.341	6.49
488.542	6.53
488.743	6.68
488.944	6.79
489.145	6.78
489.346	7.01
489.547	7.03
489.748	7.15
489.949	7.19
490.15	7.25
490.351	7.24
490.552	7.26
490.753	7.3
490.954	7.28
491.155	7.31
491.356	7.42
491.557	7.28
491.758	7.24
491.959	7.18
492.159	7.32
492.36	7.18
492.561	7.33
492.762	7.44
492.963	7.35
493.164	7.36
493.364	7.16
493.565	7.12
493.766	7.21
493.967	7.34
494.167	7.56
494.368	7.41
494.569	7.51
494.769	7.79
494.97	7.94
495.171	8.02
495.371	8.22
495.572	8.51
495.773	8.47
495.973	8.59
496.174	8.59
496.375	8.72
496.575	8.89
496.776	9.03
496.976	8.86
497.177	8.71
497.377	9.02
497.578	8.77
497.778	8.77
497.979	9.1
498.179	9.11
498.38	9.23
498.58	9.3
498.78	9.26
498.981	9.63
499.181	9.89
499.382	10.01
499.582	9.68
499.782	10
499.983	10.06
500.183	9.84
500.383	9.79
500.584	9.63
500.784	9.54
500.984	9.79
501.184	9.52
501.385	9.36
501.585	9.37
501.785	9.85
501.985	9.71
502.185	9.69
502.386	9.85
502.586	9.84
502.786	10.05
502.986	9.93
503.186	9.68
503.386	9.88
503.586	9.88
503.786	9.84
503.987	9.44
504.187	9.4
504.387	9.64
504.587	9.35
504.787	9.41
504.987	9.53
505.187	9.7
505.387	9.8
505.587	9.61
505.786	9.74
505.986	9.97
506.186	10.17
506.386	10.29
506.586	10.35
506.786	10.48
506.986	10.7
507.186	10.85
507.386	10.99
507.585	11.08
507.785	10.93
507.985	10.87
508.185	10.81
508.384	10.72
508.584	10.69
508.784	10.49
508.984	10.62
509.183	10.42
509.383	10.34
509.583	10.2
509.782	10.32
509.982	10.7
510.182	10.61
510.381	10.52
510.581	10.61
510.781	10.33
510.98	10.4
511.18	10.34
511.379	10.35
511.579	10.19
511.778	10.33
511.978	10.36
512.177	10.09
512.377	10.14
512.576	10.29
512.776	10.31
512.975	10.76
513.175	10.84
513.374	11.1
513.573	11.14
513.773	11.39
513.972	11.06
514.172	11.02
514.371	11.37
514.57	11.59
514.77	11.49
514.969	11.72
515.168	11.6
515.367	11.64
515.567	11.49
515.766	11.58
515.965	11.6
516.164	11.69
516.364	11.82
516.563	11.68
516.762	11.61
516.961	11.63
517.16	11.71
517.359	11.69
517.559	11.65
517.758	11.72
517.957	11.78
518.156	11.76
518.355	11.92
518.554	11.97
518.753	11.9
518.952	11.81
519.151	11.9
519.35	11.72
519.549	11.66
519.748	11.89
519.947	12
520.146	12.19
520.345	12.25
520.544	12.22
520.743	12.18
520.942	12.3
521.141	12.65
521.339	12.99
521.538	13.19
521.737	13.43
521.936	13.25
522.135	13.16
522.333	13.5
522.532	13.25
522.731	13.36
522.93	13.38
523.129	13.41
523.327	13.57
523.526	13.42
523.725	13.73
523.923	13.75
524.122	13.65
524.321	13.71
524.519	13.17
524.718	13.39
524.917	13.39
525.115	13.49
525.314	13.68
525.512	13.47
525.711	13.32
525.909	13.08
526.108	13
526.306	12.99
526.505	13.06
526.703	13.08
526.902	12.92
527.1	12.88
527.299	12.78
527.497	12.64
527.696	12.61
527.894	12.69
528.092	12.66
528.291	12.76
528.489	12.76
528.688	12.63
528.886	12.59
529.084	12.58
529.283	12.59
529.481	12.55
529.679	12.56
529.877	12.54
530.076	12.6
530.274	12.81
530.472	12.98
530.67	13.14
530.869	13.51
531.067	13.82
531.265	14.07
531.463	14.12
531.661	14.26
531.859	14.36
532.057	14.52
532.255	14.43
532.454	14.27
532.652	14.12
532.85	14.12
533.048	14.01
533.246	13.91
533.444	14.07
533.642	14.22
533.84	14.28
534.038	14.26
534.236	14.38
534.434	14.4
534.632	14.64
534.83	14.91
535.027	15.06
535.225	15.16
535.423	15.52
535.621	15.42
535.819	15.44
536.017	15.24
536.215	15.34
536.412	15.2
536.61	15.5
536.808	15.43
537.006	15.36
537.203	15.75
537.401	16.03
537.599	15.83
537.797	15.99
537.994	16.12
538.192	16.44
538.39	16.54
538.587	16.81
538.785	16.77
538.983	16.82
539.18	16.9
539.378	16.51
539.575	16.36
539.773	16.24
539.97	16.22
540.168	16.25
540.366	16.29
540.563	16.3
540.761	16.18
540.958	16.27
541.155	16.31
541.353	16.27
541.55	16.22
541.748	16.34
541.945	16.52
542.143	16.53
542.34	16.58
542.537	16.49
542.735	16.56
542.932	16.82
543.129	16.83
543.327	16.93
543.524	17.07
543.721	17.41
543.919	17.57
544.116	17.93
544.313	18.21
544.51	18.27
544.708	18.58
544.905	18.65
545.102	18.81
545.299	18.87
545.496	18.92
545.693	18.96
545.891	18.91
546.088	19.04
546.285	18.84
546.482	18.77
546.679	18.95
546.876	19.01
547.073	19.12
547.27	18.98
547.467	19.17
547.664	19.33
547.861	19.59
548.058	19.62
548.255	19.5
548.452	19.77
548.649	20.38
548.846	20.43
549.043	20.49
549.24	20.79
549.437	21.04
549.633	21.22
549.83	21.39
550.027	21.45
550.224	21.5
550.421	21.66
550.618	21.71
550.814	21.25
551.011	21.48
551.208	21.83
551.405	21.88
551.601	21.83
551.798	21.69
551.995	21.42
552.191	21.25
552.388	21.67
552.585	21.36
552.781	21.59
552.978	21.75
553.175	21.56
553.371	21.43
553.568	21.22
553.764	21.47
553.961	21.52
554.157	21.91
554.354	21.88
554.55	21.79
554.747	22.26
554.943	21.97
555.14	22.06
555.336	22.37
555.533	22.87
555.729	23.13
555.926	23.44
556.122	23.45
556.318	23.56
556.515	24.09
556.711	24.04
556.907	24.11
557.104	24.22
557.3	24.31
557.496	24.01
557.693	23.96
557.889	24.59
558.085	24.34
558.281	24.91
558.478	24.92
558.674	24.86
558.87	24.96
559.066	24.73
559.262	24.77
559.459	24.75
559.655	25.23
559.851	24.97
560.047	24.71
560.243	24.77
560.439	24.64
560.635	24.64
560.831	24.82
561.027	24.97
561.223	24.98
561.419	25.1
561.615	25.26
561.811	25.15
562.007	25.54
562.203	25.48
562.399	25.62
562.595	25.63
562.791	25.71
562.987	25.98
563.183	26.08
563.379	26.51
563.575	26.85
563.771	26.46
563.966	26.52
564.162	25.99
564.358	25.94
564.554	26.03
564.75	25.86
564.945	25.62
565.141	25.05
565.337	25.21
565.533	25.11
565.728	24.7
565.924	25.02
566.12	24.8
566.315	24.98
566.511	24.65
566.707	24.75
566.902	24.79
567.098	24.86
567.293	24.82
567.489	24.18
567.684	24.07
567.88	24.13
568.076	23.9
568.271	23.89
568.467	23.94
568.662	24.43
568.858	24.36
569.053	24.44
569.248	24.6
569.444	25.13
569.639	25.69
569.835	26
570.03	26.1
570.225	26.26
570.421	26.53
570.616	26.48
570.812	26.59
571.007	26.29
571.202	26.04
571.397	26.11
571.593	25.96
571.788	25.78
571.983	25.76
572.178	26.26
572.374	26.29
572.569	26.14
572.764	26.29
572.959	26.26
573.154	26.57
573.35	26.95
573.545	27.18
573.74	27.05
573.935	27.23
574.13	27.16
574.325	27
574.52	27.11
574.715	27.58
574.91	27.35
575.105	27.31
575.3	27.56
575.495	27.44
575.69	27.27
575.885	27.59
576.08	27.66
576.275	27.89
576.47	27.87
576.665	28.09
576.86	27.91
577.055	28.22
577.25	28.48
577.444	28.09
577.639	28.36
577.834	28.51
578.029	28.5
578.224	28.85
578.418	29.09
578.613	29.21
578.808	29.28
579.003	29.52
579.197	30.06
579.392	30.05
579.587	30.26
579.781	30.35
579.976	30.83
580.171	31.14
580.365	30.6
580.56	30.01
580.755	30.06
580.949	29.92
581.144	29.98
581.338	29.83
581.533	29.77
581.727	30.14
581.922	29.51
582.116	29.62
582.311	29.09
582.505	29.7
582.7	29.97
582.894	30.09
583.089	30
583.283	30.2
583.478	30.31
583.672	30.66
583.866	30.6
584.061	31.2
584.255	30.9
584.449	31.79
584.644	31.8
584.838	32.15
585.032	32.76
585.226	33.29
585.421	32.97
585.615	32.71
585.809	32.67
586.003	32.84
586.198	33.13
586.392	32.96
586.586	32.55
586.78	32.57
586.974	32.11
587.168	31.32
587.363	31
587.557	30.97
587.751	30.89
587.945	30.49
588.139	30.44
588.333	30.1
588.527	30.29
588.721	30.28
588.915	30.11
589.109	30.17
589.303	30.5
589.497	30.7
589.691	31.1
589.885	31.19
590.079	31.19
590.273	31.08
590.466	31.56
590.66	31.39
590.854	31.32
591.048	31.44
591.242	31.7
591.436	31.3
591.629	31.11
591.823	30.63
592.017	30.88
592.211	31.44
592.404	31.19
592.598	30.47
592.792	30.32
592.986	30.75
593.179	30.57
593.373	30.51
593.567	31.15
593.76	31.24
593.954	31.41
594.147	31.64
594.341	31.39
594.535	31.66
594.728	31.92
594.922	31.99
595.115	31.51
595.309	31.77
595.502	32.07
595.696	31.74
595.889	31.85
596.083	31.71
596.276	31.45
596.47	31.29
596.663	31.17
596.856	31.43
597.05	31.4
597.243	31.54
597.437	31.47
597.63	31.3
597.823	31.22
598.017	31.46
598.21	31.65
598.403	31.72
598.596	32.12
598.79	32.15
598.983	32
599.176	32.31
599.369	32.27
599.563	32.41
599.756	32.68
599.949	32.94
600.142	32.66
600.335	32.87
600.528	33.07
600.722	33.02
600.915	33.16
601.108	33.41
601.301	33.31
601.494	33.65
601.687	33.55
601.88	33.21
602.073	33.07
602.266	32.59
602.459	32.44
602.652	32.33
602.845	32.04
603.038	32.16
603.231	32.08
603.424	32.01
603.617	31.98
603.809	31.61
604.002	31.37
604.195	31.51
604.388	32.14
604.581	32.08
604.774	32.21
604.966	32.31
605.159	32.25
605.352	31.89
605.545	32.16
605.737	32.16
605.93	32.87
606.123	33.55
606.316	33.54
606.508	33.12
606.701	33.2
606.894	33.03
607.086	33.04
607.279	33.31
607.471	33.92
607.664	33.96
607.857	34.17
608.049	33.87
608.242	33.52
608.434	33.6
608.627	33.51
608.819	33.46
609.012	33.6
609.204	33.59
609.397	33.49
609.589	33.38
609.782	33.16
609.974	32.67
610.166	32.78
610.359	32.73
610.551	32.61
610.743	32.99
610.936	33.15
611.128	33.32
611.32	33.77
611.513	33.87
611.705	33.61
611.897	34.37
612.09	35.15
612.282	35.74
612.474	36.4
612.666	36.63
612.858	36.13
613.051	36.49
613.243	36.81
613.435	37.08
613.627	37.57
613.819	37.92
614.011	37.92
614.203	37.88
614.395	37.65
614.588	37.16
614.78	37.42
614.972	38.64
615.164	38.91
615.356	38.43
615.548	38.09
615.74	37.8
615.932	37.83
616.124	37.39
616.315	37.38
616.507	37.6
616.699	37.94
616.891	37.86
617.083	37.09
617.275	36.27
617.467	36.08
617.659	36.23
617.85	36.09
618.042	36.67
618.234	36.51
618.426	35.76
618.618	35.29
618.809	35.09
619.001	35.25
619.193	35.71
619.384	36.46
619.576	37.03
619.768	37.27
619.959	36.91
620.151	36.45
620.343	36.78
620.534	37.21
620.726	36.56
620.917	36.6
621.109	36.32
621.301	35.79
621.492	36.07
621.684	36.32
621.875	36.21
622.067	36.78
622.258	37
622.45	37.13
622.641	37.64
622.832	38.11
623.024	38.26
623.215	37.94
623.407	38.14
623.598	37.94
623.789	37.18
623.981	36.95
624.172	36.57
624.363	35.83
624.555	35.6
624.746	35.15
624.937	35.42
625.129	35.92
625.32	36.38
625.511	36.94
625.702	36.19
625.893	36.58
626.085	36.48
626.276	36.72
626.467	36.89
626.658	36.81
626.849	37.09
627.04	37.12
627.231	36.52
627.422	36.34
627.614	36.07
627.805	36.6
627.996	36.23
628.187	36.28
628.378	36.4
628.569	37.06
628.76	37.12
628.951	36.78
629.142	36.7
629.332	36.95
629.523	37.08
629.714	37.17
629.905	37.27
630.096	37.74
630.287	38.31
630.478	38.22
630.669	38.22
630.859	38.53
631.05	38.58
631.241	38.56
631.432	38.75
631.623	39.04
631.813	39
632.004	38.54
632.195	37.73
632.385	37.4
632.576	37.35
632.767	37.24
632.957	37.58
633.148	37.8
633.339	37.48
633.529	37.18
633.72	36.33
633.91	36.48
634.101	36.88
634.292	37.63
634.482	37.3
634.673	36.98
634.863	36.84
635.054	36.66
635.244	36.74
635.435	37.08
635.625	36.99
635.815	37.28
636.006	37.64
636.196	38.29
636.387	37.93
636.577	38.31
636.767	38.2
636.958	37.82
637.148	37.41
637.338	37.34
637.529	38.02
637.719	38.57
637.909	39.34
638.099	39.01
638.29	38.33
638.48	39.06
638.67	38.92
638.86	39.61
639.05	40.19
639.241	40.44
639.431	40.26
639.621	39.37
639.811	39.18
640.001	39.2
640.191	38.73
640.381	38.18
640.571	37.34
640.761	36.98
640.951	37.61
641.141	37.54
641.331	38.35
641.521	38.69
641.711	39.29
641.901	39.21
642.091	39.24
642.281	39.19
642.471	40.28
642.661	40.75
642.851	41.68
643.041	40.8
643.231	40.82
643.42	40.17
643.61	40.85
643.8	41.22
643.99	41.43
644.18	40.96
644.369	40.97
644.559	40.4
644.749	40.65
644.939	40.42
645.128	40.59
645.318	40.93
645.508	40.85
645.697	40.7
645.887	40
646.076	39.52
646.266	40
646.456	40.25
646.645	41.03
646.835	40.45
647.024	39.9
647.214	40.09
647.403	39.39
647.593	40.01
647.782	39.67
647.972	39.69
648.161	39.77
648.351	39.69
648.54	40.21
648.73	39.81
648.919	39.65
649.108	40.21
649.298	40.01
649.487	40.25
649.677	40.19
649.866	39.95
650.055	39.87
650.244	40.28
650.434	39.54
650.623	39.42
650.812	39.14
651.002	40.24
651.191	40.15
651.38	39.94
651.569	39.81
651.758	39.39
651.947	39.36
652.137	39.86
652.326	39.18
652.515	39.2
652.704	39.35
652.893	40.02
653.082	39.71
653.271	39.69
653.46	40.13
653.649	40.6
653.838	40.45
654.027	40.33
654.216	40.22
654.405	41.45
654.594	41.79
654.783	41.23
654.972	40.25
655.161	40.54
655.35	40.64
655.539	40.47
655.728	40.44
655.916	39.99
656.105	40.41
656.294	39.88
656.483	39.54
656.672	39.71
656.86	39.34
657.049	39.88
657.238	38.81
657.427	38.6
657.615	38.32
657.804	37.89
657.993	37.59
658.181	36.72
658.37	37.52
658.559	37.24
658.747	36.89
658.936	37.46
659.125	39.02
659.313	39.31
659.502	39.41
659.69	39.01
659.879	38.92
660.067	39.99
660.256	40.96
660.444	40.65
660.633	40.81
660.821	41.6
661.01	41.58
661.198	39.73
661.387	39.97
661.575	39.78
661.763	41.06
661.952	41.98
662.14	42.17
662.328	42.22
662.517	42.32
662.705	42.03
662.893	42.02
663.082	41.84
663.27	41.47
663.458	41.26
663.646	41.77
663.834	41.81
664.023	41.76
664.211	41.62
664.399	41.45
664.587	41.28
664.775	41.38
664.963	42.13
665.152	42.78
665.34	43.47
665.528	43.56
665.716	43.82
665.904	43.39
666.092	43.38
666.28	43.7
666.468	43.15
666.656	43.69
666.844	44.75
667.032	43.75
667.22	42.88
667.408	42.97
667.596	43.17
667.784	43.19
667.971	43.46
668.159	43.39
668.347	42.21
668.535	43.07
668.723	42.37
668.911	41.82
669.098	41.6
669.286	42.12
669.474	42.05
669.662	42.32
669.849	42.41
670.037	42.28
670.225	42.24
670.413	42.05
670.6	41.65
670.788	42.78
670.976	43.23
671.163	43.93
671.351	44.23
671.538	44.32
671.726	44.01
671.913	43.74
672.101	43.6
672.289	44.17
672.476	44.61
672.664	45.19
672.851	44.63
673.039	44.39
673.226	43.64
673.413	44.28
673.601	44.13
673.788	44.92
673.976	44.92
674.163	45.81
674.35	45.07
674.538	45.65
674.725	45.52
674.912	45.51
675.1	45.17
675.287	45.4
675.474	45.24
675.662	45.3
675.849	44.71
676.036	44.41
676.223	44.46
676.411	44.38
676.598	44.39
676.785	44.61
676.972	44.56
677.159	45.03
677.346	45.23
677.533	44.34
677.721	43.94
677.908	44.69
678.095	45.17
678.282	44.35
678.469	43.95
678.656	43.65
678.843	43.65
679.03	43.54
679.217	43.03
679.404	43.27
679.591	43.36
679.778	43.99
679.964	42.86
680.151	42.37
680.338	42.33
680.525	42.55
680.712	42.6
680.899	41.49
681.086	42.38
681.272	42.92
681.459	43.41
681.646	43.33
681.833	42.8
682.02	43.58
682.206	44.52
682.393	45.52
682.58	45.96
682.766	45.75
682.953	47.52
683.14	46.23
683.326	46.85
683.513	45.87
683.7	45.87
683.886	46.16
684.073	45.98
684.259	45.77
684.446	45.49
684.632	45.71
684.819	46.59
685.005	45.79
685.192	46.8
685.378	46.62
685.565	47
685.751	46.93
685.938	47.66
686.124	47.79
686.31	48.03
686.497	47.52
686.683	47.32
686.87	47.21
687.056	47.83
687.242	47.61
687.429	46.4
687.615	45.87
687.801	46.52
687.987	46.81
688.174	47.29
688.36	47.35
688.546	46.92
688.732	47.63
688.918	47.76
689.105	47.78
689.291	48.26
689.477	48.69
689.663	49.7
689.849	49.86
690.035	48.84
690.221	48.74
690.407	49.18
690.593	50.41
690.779	50.87
690.965	51.17
691.151	50.9
691.337	50.72
691.523	51.04
691.709	50.66
691.895	50.84
692.081	51.15
692.267	51.25
692.453	50.93
692.639	50.82
692.825	50.46
693.011	50.77
693.196	51.7
693.382	51.63
693.568	52.18
693.754	53.3
693.94	52.91
694.125	54.07
694.311	53.99
694.497	53.18
694.682	53.06
694.868	52.45
695.054	52.08
695.239	51.79
695.425	51.09
695.611	50.06
695.796	49.28
695.982	48.91
696.168	48.52
696.353	48.45
696.539	48.32
696.724	47.59
696.91	47.66
697.095	46.76
697.281	45.36
697.466	45.31
697.652	45.4
697.837	44.81
698.023	44.87
698.208	43.77
698.393	43.29
698.579	43.04
698.764	43.32
698.949	42.81
699.135	43.01
699.32	43.51
699.505	43.66
699.691	43.36
699.876	42.7
700.061	42.15
700.246	42.76
700.432	43.08
700.617	44.09
700.802	43.44
700.987	44.42
701.172	44.75
701.358	45.72
701.543	45.03
701.728	46.67
701.913	48.82
702.098	49.76
702.283	50.45
702.468	50.22
702.653	49.56
702.838	50.96
703.023	51.01
703.208	50.82
703.393	50.66
703.578	52.36
703.763	51.23
703.948	50.25
704.133	51.61
704.318	51.87
704.503	52.28
704.688	52.94
704.873	52.01
705.057	52.51
705.242	52.71
705.427	52.46
705.612	52.4
705.797	53.21
705.981	53.26
706.166	51.8
706.351	50.54
706.536	51.7
706.72	51.14
706.905	52.36
707.09	52.55
707.274	52.63
707.459	53.41
707.644	53.18
707.828	52.66
708.013	53.39
708.197	54.72
708.382	55.74
708.567	54.86
708.751	54.47
708.936	53.67
709.12	52.43
709.305	52.34
709.489	51.26
709.673	51.3
709.858	52.64
710.042	53.19
710.227	51.9
710.411	51.82
710.596	51.72
710.78	52.24
710.964	51.73
711.149	52.19
711.333	52.27
711.517	53.1
711.702	52.57
711.886	51.69
712.07	51.11
712.254	51.46
712.438	51.39
712.623	52.59
712.807	52.96
712.991	52.75
713.175	51.8
713.359	53.13
713.544	51.22
713.728	51.69
713.912	50.78
714.096	51.33
714.28	51.55
714.464	51.92
714.648	49.86
714.832	49.79
715.016	50.43
715.2	50.73
715.384	49.57
715.568	49.89
715.752	50.32
715.936	51.27
716.12	50.62
716.304	49.74
716.488	49.06
716.671	50.03
716.855	50.01
717.039	50.37
717.223	50.81
717.407	51.69
717.59	54.14
717.774	54.07
717.958	54.6
718.142	55.01
718.325	55.08
718.509	55.08
718.693	56.18
718.877	57.91
719.06	59.79
719.244	60.37
719.428	60.27
719.611	60.62
719.795	60.67
719.978	59.7
720.162	59.6
720.345	60.68
720.529	61.76
720.713	61.8
720.896	59.35
721.08	58.5
721.263	59.02
721.446	59.71
721.63	59.47
721.813	59.32
721.997	59.89
722.18	59.74
722.364	61.68
722.547	62.13
722.73	61.44
722.914	62
723.097	63.46
723.28	63.64
723.464	64.35
723.647	63.46
723.83	63.24
724.013	63.48
724.197	64.39
724.38	62
724.563	60.54
724.746	61.44
724.929	61.78
725.112	61.21
725.296	60.53
725.479	57.96
725.662	57.71
725.845	57.64
726.028	58.9
726.211	58.29
726.394	58.58
726.577	58.24
726.76	56.09
726.943	55.44
727.126	55.21
727.309	53.97
727.492	55.42
727.675	55.33
727.858	55.63
728.041	54.54
728.224	53.37
728.407	53.9
728.589	54.1
728.772	55.24
728.955	56.32
729.138	55.8
729.321	56.83
729.503	57.54
729.686	56.71
729.869	56.59
730.052	55.87
730.234	57.12
730.417	56.71
730.6	56.48
730.782	57.36
730.965	56.18
731.148	54.65
731.33	53.42
731.513	52.57
731.695	52.89
731.878	52.47
732.061	52.47
732.243	51.72
732.426	51.18
732.608	50.6
732.791	50.04
732.973	50.31
733.156	52.67
733.338	53.75
733.52	53.89
733.703	53.44
733.885	54.78
734.068	56.54
734.25	57.91
734.432	60.14
734.615	62.2
734.797	60.97
734.979	61.79
735.162	60.67
735.344	61.99
735.526	61.76
735.708	63.64
735.891	61.67
736.073	61.5
736.255	61.33
736.437	60.23
736.619	60.3
736.802	61.82
736.984	62.12
737.166	62.75
737.348	63.4
737.53	65.36
737.712	65.48
737.894	65.1
738.076	63
738.258	62.18
738.44	62.56
738.622	62.53
738.804	63.9
738.986	63.82
739.168	65.56
739.35	64.19
739.532	60.89
739.714	60.47
739.896	60.69
740.078	61.42
740.259	60.81
740.441	61.61
740.623	61.49
740.805	60.16
740.987	60.1
741.168	57.81
741.35	56.27
741.532	56.86
741.714	56.6
741.895	58.23
742.077	57.24
742.259	59.33
742.44	58.13
742.622	60.43
742.804	60.98
742.985	60.55
743.167	60.24
743.348	62.61
743.53	64.29
743.711	65.85
743.893	66.17
744.075	69.59
744.256	70.75
744.438	70.65
744.619	70.32
744.8	70.21
744.982	73.93
745.163	77.36
745.345	77.11
745.526	77.83
745.707	76.76
745.889	77.27
746.07	77.83
746.252	75.75
746.433	76.92
746.614	76.33
746.795	75.54
746.977	73.87
747.158	72.96
747.339	73.78
747.52	72.54
747.702	71.97
747.883	69.99
748.064	69.77
748.245	70.14
748.426	70.19
748.607	68.45
748.788	72.79
748.97	71.89
749.151	71.02
749.332	69.87
749.513	70.71
749.694	72.8
749.875	75.3
750.056	75.08
750.237	76.64
750.418	76.68
750.599	76.86
750.78	73.06
750.96	75.51
751.141	74.31
751.322	76
751.503	73.01
751.684	71.37
751.865	69.33
752.046	67.7
752.226	64.58
752.407	65.38
752.588	64.36
752.769	62.83
752.949	59.87
753.13	60.15
753.311	58.19
753.492	61.71
753.672	62.74
753.853	64.54
754.034	64.82
754.214	64.36
754.395	64.8
754.575	67.38
754.756	70.05
754.937	71.85
755.117	73.7
755.298	75.41
755.478	76.06
755.659	75.23
755.839	75.46
756.02	77.42
756.2	81.25
756.381	79.53
756.561	81.63
756.741	80.69
756.922	80.23
757.102	79.71
757.283	78.94
757.463	77.49
757.643	77.35
757.823	75.09
758.004	73.66
758.184	73.13
758.364	72.12
758.545	70.03
758.725	68.85
758.905	69.04
759.085	68.24
759.265	68.89
759.446	68.78
759.626	69.14
759.806	68.32
759.986	67.16
760.166	68.7
760.346	69.62
760.526	68.96
760.706	71.34
760.886	69.58
761.066	70.52
761.246	68.93
761.426	66.84
761.606	64.82
761.786	66.51
761.966	65.42
762.146	65.06
762.326	64.07
762.506	62.98
762.686	60.66
762.866	60.38
763.046	57.38
763.225	56.74
763.405	56.87
763.585	56.33
763.765	55.24
763.945	56.3
764.124	55.05
764.304	56.57
764.484	57.65
764.664	57.2
764.843	57.33
765.023	61.69
765.203	61.03
765.382	62.71
765.562	64.06
765.741	64.66
765.921	66.69
766.101	66.56
766.28	64.75
766.46	65.68
766.639	67.21
766.819	69.03
766.998	67.31
767.178	69.67
767.357	69.81
767.537	73.11
767.716	75.89
767.896	74.55
768.075	73.06
768.254	74.58
768.434	74.1
768.613	73.08
768.792	74.29
768.972	73.43
769.151	76.32
769.33	76.07
769.51	72.07
769.689	72.59
769.868	72.12
770.047	73.7
770.226	74.12
770.406	73.56
770.585	77.44
770.764	76.22
770.943	78.25
771.122	77.05
771.301	79.69
771.48	81.5
771.66	81.36
771.839	84.55
772.018	87.58
772.197	90.69
772.376	93.15
772.555	93.13
772.734	92.7
772.913	91.33
773.092	90.17
773.271	87.88
773.449	90.78
773.628	90.82
773.807	91.15
773.986	89.04
774.165	84.86
774.344	85.6
774.523	84.25
774.701	85.53
774.88	90.68
775.059	91.76
775.238	94.84
775.417	94.47
775.595	94.09
775.774	91.01
775.953	91.91
776.131	92.01
776.31	89.66
776.489	87.99
776.667	84.75
776.846	80.92
777.025	80.5
777.203	80.12
777.382	81.03
777.56	79.08
777.739	77.68
777.917	78.96
778.096	80.63
778.274	82.71
778.453	79.26
778.631	82.6
778.81	84.24
778.988	80.32
779.166	81.83
779.345	82.68
779.523	85.67
779.702	91.8
779.88	94.13
780.058	92.82
780.237	93.87
780.415	98.88
780.593	95.51
780.771	94.78
780.95	103.24
781.128	98.99
781.306	97.21
781.484	95.27
781.662	94.3
781.841	90.9
782.019	89.4
782.197	86.41
782.375	83.92
782.553	85.63
782.731	87.26
782.909	82.95
783.087	88.17
783.265	90.08
783.443	92.74
783.621	91.07
783.799	91.68
783.977	97.06
784.155	98.15
784.333	100.61
784.511	100.43
784.689	102.79
784.867	100.59
785.045	99.04
785.223	96
785.4	98.64
785.578	96.55
785.756	93.97
785.934	90.79
786.112	91.62
786.289	88.53
786.467	89.73
786.645	87.34
786.823	89.15
787	90.4
787.178	91.5
787.356	87.18
787.533	87.82
787.711	88.3
787.889	91.34
788.066	88.79
788.244	93.82
788.421	93.6
788.599	94.6
788.776	92.72
788.954	88.24
789.131	84.44
789.309	85.48
789.486	89.77
789.664	92.24
789.841	91.34
790.019	91.35
790.196	92.8
790.373	88.75
790.551	86.86
790.728	94.52
790.906	94.23
791.083	104.39
791.26	107.01
791.437	99.2
791.615	102.37
791.792	101.76
791.969	100.66
792.146	99.66
792.324	105.8
792.501	110.99
792.678	102.5
792.855	109.02
793.032	104.9
793.209	102.67
793.387	105.48
793.564	101.85
793.741	105.32
793.918	108.35
794.095	102.65
794.272	104.22
794.449	103.07
794.626	112.13
794.803	107.46
794.98	101.24
795.157	101.09
795.334	99.67
795.511	101.07
795.688	93.67
795.864	95.72
796.041	98.76
796.218	95.89
796.395	93.32
796.572	89.86
796.749	88.75
796.925	91.04
797.102	89.05
797.279	92.66
797.456	92.74
797.632	96.23
797.809	99.15
797.986	98.58
798.162	106.12
798.339	109.89
798.516	111.38
798.692	115.27
798.869	124.59
799.046	135.41
799.222	129.77
799.399	130.86
799.575	128.76
799.752	123.16
799.928	119.68
800.105	108.96
800.281	105.37
800.458	104.09
800.634	100.78
800.811	96.19
800.987	97.65
801.163	97.44
801.34	97.59
801.516	100.25
801.692	101.02
801.869	104.19
802.045	107.36
802.221	106.53
802.398	105.46
802.574	107.61
802.75	104.65
802.926	100.06
803.103	104.08
803.279	99.24
803.455	98.47
803.631	104.62
803.807	106.68
803.983	112.57
804.16	119.6
804.336	124.77
804.512	127.04
804.688	140.23
804.864	148.78
805.04	141.78
805.216	142.85
805.392	138.7
805.568	135.59
805.744	124.97
805.92	118.66
806.096	121.7
806.272	117.88
806.448	117.45
806.623	114.48
806.799	112.7
806.975	112.81
807.151	116.29
807.327	125.14
807.503	122.3
807.678	131.27
807.854	134.12
808.03	122.12
808.206	129.38
808.381	123.19
808.557	116.09
808.733	113.83
808.908	117.91
809.084	117.33
809.26	114.3
809.435	117.48
809.611	118.65
809.787	112.81
809.962	122.15
810.138	124.85
810.313	133.8
810.489	135.04
810.664	135.29
810.84	122.89
811.015	123.06
811.191	128.62
811.366	128.94
811.542	134.36
811.717	144.13
811.892	137.62
812.068	133.42
812.243	133.7
812.419	134.32
812.594	128
812.769	136.3
812.944	141.09
813.12	128.36
813.295	128.34
813.47	121.52
813.645	119.57
813.821	126.63
813.996	129.36
814.171	131.98
814.346	133.28
814.521	140.25
814.697	138.07
814.872	128.08
815.047	135
815.222	131.06
815.397	132.99
815.572	132.42
815.747	128.88
815.922	118.23
816.097	115
816.272	117.6
816.447	107.41
816.622	109.09
816.797	113.81
816.972	110.15
817.147	106.8
817.322	104.27
817.496	103.12
817.671	97.88
817.846	102.24
818.021	103.02
818.196	97.74
818.371	101.27
818.545	101.21
818.72	97.47
818.895	94.69
819.069	91.87
819.244	91.58
819.419	90.57
819.594	86.11
819.768	78.43
819.943	70.59
820.117	66.31
820.292	64.72
820.467	62.31
820.641	60.17
820.816	58.14
820.99	56.09
821.165	52.81
821.339	50.61
821.514	49.45
821.688	49.61
821.863	49.17
822.037	49.53
822.212	48.55
822.386	48.29
822.56	47.25
822.735	46.81
822.909	47.14
823.084	47.18
823.258	47.15
823.432	48.95
823.606	49.39
823.781	50.05
823.955	51.15
824.129	51.38
824.303	51.61
824.478	52.8
824.652	53.61
824.826	55.97
825	56.99
825.174	58.45
825.348	58.14
825.523	57.61
825.697	58.75
825.871	57.84
826.045	58.44
826.219	60.65
826.393	61.17
826.567	61.91
826.741	63.42
826.915	63.3
827.089	64.29
827.263	64.5
827.437	67.28
827.611	67.74
827.784	68.34
827.958	72.74
828.132	72.51
828.306	72.89
828.48	74.53
828.654	72.74
828.827	75.23
829.001	76.04
829.175	81.46
829.349	81.74
829.522	87.74
829.696	92.91
829.87	90.36
830.044	94.18
830.217	98.64
830.391	105.89
830.565	108.64
830.738	113.37
830.912	113.35
831.085	108.94
831.259	110.1
831.432	105.02
831.606	108.8
831.779	105.93
831.953	98.78
832.126	96.29
832.3	91.55
832.473	89.29
832.647	89.5
832.82	87.81
832.994	86.75
833.167	79.57
833.34	79.1
833.514	74.29
833.687	74.59
833.86	76.1
834.034	76.71
834.207	75.11
834.38	76.19
834.553	73.92
834.727	75.83
834.9	78.86
835.073	88.53
835.246	90.47
835.419	94.88
835.593	98.12
835.766	98.93
835.939	97.44
836.112	101.63
836.285	103.29
836.458	109.98
836.631	109.69
836.804	111.23
836.977	108.76
837.15	113.48
837.323	115.58
837.496	120.43
837.669	131.78
837.842	143.52
838.015	143.3
838.188	147.96
838.361	149.34
838.533	145.32
838.706	150
838.879	154.99
839.052	158.8
839.225	165.37
839.398	160.38
839.57	159.93
839.743	157.36
839.916	158.12
840.088	137.3
840.261	142.98
840.434	160.6
840.607	151.13
840.779	147.5
840.952	143.32
841.124	131.61
841.297	144.64
841.47	138.1
841.642	142.09
841.815	151.23
841.987	191.39
842.16	184.01
842.332	188.32
842.505	202.73
842.677	196.26
842.85	217.24
843.022	231.81
843.194	232.19
843.367	239.56
843.539	227.26
843.712	204.42
843.884	183.42
844.056	198.19
844.229	181.79
844.401	182.34
844.573	189.05
844.745	187.37
844.918	197.25
845.09	193.31
845.262	215.2
845.434	222.34
845.606	244.39
845.779	221.92
845.951	235.03
846.123	213.45
846.295	229.16
846.467	225
846.639	217.25
846.811	216.87
846.983	207.72
847.155	191.67
847.327	175.04
847.499	183.25
847.671	230.17
847.843	218.07
848.015	332.05
848.187	295.29
848.359	301.72
848.531	314.19
848.703	315.03
848.875	393.8
849.047	383.68
849.218	528.51
849.39	486.49
849.562	424.96
849.734	380.64
849.905	303.09
850.077	365.86
850.249	506.2
850.421	573.57
850.592	516.59
850.764	464.24
850.936	463.33
851.107	502.79
851.279	579.31
851.451	470.91
851.622	412.41
851.794	353.88
851.965	316.42
852.137	281.71
852.308	281.74
852.48	286.07
852.651	266.28
852.823	237.17
852.994	216.83
853.166	200.96
853.337	198.67
853.509	240.37
853.68	314.99
853.851	293.66
854.023	345.06
854.194	332.28
854.365	366.03
854.537	388.32
854.708	654.55
854.879	1134.36
855.05	1046.54
855.222	933.99
855.393	570.82
855.564	633.16
855.735	581.52
855.906	448.21
856.078	479.11
856.249	516.8
856.42	472.89
856.591	395.69
856.762	382.81
856.933	470.76
857.104	536.32
857.275	589.43
857.446	351.62
857.617	347.45
857.788	345.49
857.959	294.93
858.13	265.98
858.301	309.41
858.472	349.71
858.643	365.91
858.814	408.69
858.985	385.42
859.155	412.48
859.326	543.34
859.497	564.19
859.668	519.96
859.839	888.15
860.009	599.54
860.18	428.06
860.351	344.37
860.522	310.34
860.692	245.52
860.863	259.11
861.034	249.22
861.204	220.18
861.375	225.32
861.546	228.27
861.716	216.21
861.887	229.09
862.057	279.69
862.228	259.78
862.398	277.51
862.569	275.74
862.739	281.55
862.91	264.99
863.08	329.14
863.251	327
863.421	344.32
863.592	326.33
863.762	338.4
863.932	270.16
864.103	313.75
864.273	293.67
864.443	345.6
864.614	281.74
864.784	287.31
864.954	265.85
865.125	290.97
865.295	315.06
865.465	318.68
865.635	369.03
865.805	375.5
865.976	372.65
866.146	396.57
866.316	458.27
866.486	628.53
866.656	453.25
866.826	483.81
866.996	400.37
867.166	363.15
867.336	345.65
867.506	294.5
867.676	300
867.846	286.39
868.016	302.66
868.186	279.75
868.356	266.25
868.526	305.28
868.696	342.42
868.866	381.17
869.036	377.68
869.206	350.18
869.376	387.97
869.545	374.16
869.715	419.38
869.885	436.13
870.055	455.46
870.224	527.23
870.394	775.29
870.564	554.32
870.734	592.63
870.903	532.31
871.073	668.24
871.243	520.67
871.412	564.56
871.582	462.52
871.751	439.13
871.921	430.12
872.091	388.99
872.26	352.47
872.43	282.61
872.599	280.39
872.769	320.65
872.938	292.95
873.108	407.52
873.277	419.72
873.446	526.33
873.616	477.46
873.785	522.03
873.955	680.15
874.124	478.14
874.293	1323.08
874.463	1507.19
874.632	1772.73
874.801	1958.82
874.971	591.33
875.14	564.72
875.309	356.68
875.478	345.24
875.647	346.26
875.817	281.07
875.986	339.87
876.155	327.47
876.324	325.78
876.493	308.61
876.662	283.58
876.831	307.87
877	307.05
877.17	372.35
877.339	434.7
877.508	308.3
877.677	359.19
877.846	385.93
878.015	320.78
878.184	270.85
878.352	262.76
878.521	271.78
878.69	278.9
878.859	255.67
879.028	272.99
879.197	235.37
879.366	271.19
879.534	248.18
879.703	223
879.872	202.04
880.041	209.96
880.21	189.72
880.378	180.78
880.547	172.37
880.716	159.85
880.884	138.74
881.053	133.78
881.222	119.47
881.39	111
881.559	99.06
881.727	94.7
881.896	90.33
882.065	86.07
882.233	82.66
882.402	81.65
882.57	81.18
882.739	80.4
882.907	81.07
883.076	82.59
883.244	83.96
883.412	85.91
883.581	87.53
883.749	92.33
883.918	96.99
884.086	100.82
884.254	100.87
884.423	106.8
884.591	113.08
884.759	118.87
884.927	120.16
885.096	116.12
885.264	131.32
885.432	140.94
885.6	136.98
885.769	146.75
885.937	157.25
886.105	159.39
886.273	152.57
886.441	154.85
886.609	165.97
886.777	171.84
886.945	204.18
887.113	185.33
887.281	200.92
887.449	218.03
887.617	213.09
887.785	244.06
887.953	248.51
888.121	247.19
888.289	253.38
888.457	306.3
888.625	416.7
888.793	315.22
888.961	360.35
889.129	273
889.296	282.21
889.464	305.45
889.632	239.63
889.8	262.75
889.967	293.07
890.135	327.37
