Data from JASIL_3056_Reflection_01.txt Node
Date: Mon Nov 09 11:25:45 EST 2015
User: Geneva
Spectrometer: USB4E03002
Autoset integration time: false
Trigger mode: 4
Integration Time (sec): 1.000000E-1
Scans to average: 10
Electric dark correction enabled: false
Nonlinearity correction enabled: false
Boxcar width: 5
Stray light correction enabled: false
XAxis mode: Wavelengths
Stop averaging: false
Number of Pixels in Spectrum: 3648
>>>>>Begin Spectral Data<<<<<
177.575	224.64
177.794	176.42
178.014	147.26
178.233	67.72
178.452	85.37
178.672	121.02
178.891	109.57
179.11	81.03
179.33	72.9
179.549	89.96
179.768	84.81
179.987	125.12
180.207	161.17
180.426	259.68
180.645	-513.51
180.864	-401.72
181.084	216.67
181.303	184.24
181.522	975
181.741	-283.82
181.96	528.38
182.179	-965.62
182.398	-17.73
182.618	-159.46
182.837	-1045
183.056	-122.96
183.275	-147.06
183.494	-15.04
183.713	2.81
183.932	-30.91
184.151	-40.25
184.37	-19.57
184.589	-638.71
184.808	245.32
185.027	-223.46
185.246	-270.59
185.465	235.24
185.684	248.86
185.903	136.19
186.122	141.51
186.341	88.5
186.56	84.75
186.779	47.92
186.998	286.11
187.216	156.1
187.435	10.74
187.654	83.44
187.873	337.84
188.092	111.38
188.311	210.48
188.53	167.4
188.748	245.6
188.967	143.95
189.186	309.89
189.405	-3425
189.623	447.37
189.842	51.41
190.061	-157.63
190.28	-17.45
190.498	-53.85
190.717	-516.22
190.936	189.32
191.154	135.21
191.373	54.76
191.592	43.72
191.81	18.08
192.029	9.5
192.248	-43.6
192.466	-243.69
192.685	-56.56
192.904	-28.46
193.122	-116.67
193.341	-29.27
193.559	-713.33
193.778	1033.33
193.996	-57.66
194.215	4.17
194.433	-17.43
194.652	-202.41
194.87	45.45
195.089	-5.6
195.307	168.98
195.526	-309.09
195.744	1173.08
195.963	230.53
196.181	184.41
196.399	176.97
196.618	294.78
196.836	438.1
197.055	15.28
197.273	-129.75
197.491	-124.44
197.71	-35.86
197.928	-120.57
198.146	-301.92
198.365	-154
198.583	-141.3
198.801	-105.15
199.019	-220.93
199.238	-236.49
199.456	-306.38
199.674	-144.68
199.892	-58.09
200.111	15.85
200.329	92.8
200.547	131.34
200.765	134.22
200.983	219.44
201.202	387.22
201.42	244.65
201.638	354.26
201.856	-588.57
202.074	-189.19
202.292	-95.04
202.51	3075
202.728	-90.91
202.946	120.91
203.165	2077.78
203.383	-490
203.601	221.8
203.819	217.89
204.037	888.24
204.255	-164.44
204.473	-125.4
204.691	-58.22
204.909	-64.37
205.127	-325
205.345	-82.17
205.562	67.33
205.78	150
205.998	74.68
206.216	-75.76
206.434	196.77
206.652	-114.89
206.87	249.43
207.088	99.23
207.306	60.79
207.523	321.25
207.741	206.87
207.959	2750
208.177	276.47
208.395	112.5
208.612	108.46
208.83	48.94
209.048	45.06
209.266	15.31
209.483	7.12
209.701	79.3
209.919	72.79
210.136	101.94
210.354	100.31
210.572	165.92
210.79	-532.14
211.007	11533.33
211.225	1631.03
211.442	-19350
211.66	-154.4
211.878	-41.83
212.095	23.84
212.313	17.5
212.53	3.31
212.748	25.91
212.966	68.73
213.183	-195.45
213.401	166.67
213.618	24.72
213.836	-112.16
214.053	-189.08
214.271	-13333.33
214.488	543.43
214.705	-319.82
214.923	-84.08
215.14	-105.66
215.358	-95.03
215.575	-24.67
215.793	-21.07
216.01	-15.58
216.227	-5.58
216.445	-21.98
216.662	-42.78
216.879	-105.19
217.097	-423.46
217.314	-709.09
217.531	600
217.749	247.58
217.966	146.96
218.183	124.31
218.4	175.65
218.618	257.06
218.835	123.51
219.052	80.06
219.269	50
219.487	970.83
219.704	690.74
219.921	151.67
220.138	158.53
220.355	118.88
220.572	194.42
220.79	152.43
221.007	114.29
221.224	-334.38
221.441	-1227.27
221.658	241.24
221.875	44.1
222.092	30.39
222.309	55.71
222.526	-242.86
222.743	84.13
222.96	-4.37
223.177	43.59
223.394	68.9
223.611	40.38
223.828	65.28
224.045	54.59
224.262	65.16
224.479	44.68
224.696	28.09
224.913	29.39
225.13	30.64
225.347	38.77
225.564	22.32
225.781	23.66
225.997	26.67
226.214	16.31
226.431	1.45
226.648	-1.69
226.865	-3.94
227.082	-2.08
227.298	-9.58
227.515	-10.75
227.732	-3.94
227.949	6.99
228.165	2.6
228.382	-2.09
228.599	5.27
228.816	12
229.032	12.44
229.249	23.2
229.466	23.72
229.682	29.53
229.899	33.99
230.116	31.01
230.332	26.8
230.549	35.47
230.765	44.95
230.982	43.02
231.199	52.24
231.415	54.96
231.632	60.26
231.848	75.25
232.065	71.24
232.281	73.03
232.498	78.89
232.714	68
232.931	63.11
233.147	60.61
233.364	59.45
233.58	54.76
233.797	54.5
234.013	51.52
234.23	39.68
234.446	41.34
234.662	42.64
234.879	39.67
235.095	49.47
235.312	48.43
235.528	52.67
235.744	53.94
235.961	49.9
236.177	47.4
236.393	42.59
236.61	43.14
236.826	57.07
237.042	51.95
237.258	59.49
237.475	74.56
237.691	75.63
237.907	66.39
238.123	72.01
238.339	68.83
238.556	67.75
238.772	48.66
238.988	40.89
239.204	32.71
239.42	29.08
239.636	28.37
239.853	18.66
240.069	15.54
240.285	18.9
240.501	13.17
240.717	15.31
240.933	21.88
241.149	23.52
241.365	26.8
241.581	27.66
241.797	28.28
242.013	25.41
242.229	24.84
242.445	26.98
242.661	29.51
242.877	34.64
243.093	28.52
243.309	19.5
243.525	21.41
243.741	14.89
243.957	17.88
244.173	19.28
244.388	18.95
244.604	20.48
244.82	18.53
245.036	16.37
245.252	14.79
245.468	17.85
245.683	14.55
245.899	13.19
246.115	12.75
246.331	7.94
246.547	7.12
246.762	6.64
246.978	5.21
247.194	3.87
247.409	0.07
247.625	0.33
247.841	0.93
248.057	9.09
248.272	14.89
248.488	16.88
248.703	21.67
248.919	19.23
249.135	20.25
249.35	19.76
249.566	23.23
249.782	25.55
249.997	23.6
250.213	20.01
250.428	20.93
250.644	15.61
250.859	18.07
251.075	18.71
251.29	19.45
251.506	20.82
251.721	17.97
251.937	16.23
252.152	16.34
252.368	19.06
252.583	16.31
252.798	12.55
253.014	16.1
253.229	13.28
253.445	12.91
253.66	22.46
253.875	22.89
254.091	30.78
254.306	27.05
254.521	20.18
254.737	14.64
254.952	17.41
255.167	16.28
255.383	12.91
255.598	10.59
255.813	8.21
256.028	0.86
256.244	-1.25
256.459	-3.12
256.674	-2.6
256.889	5.46
257.104	7.68
257.32	7.42
257.535	5.92
257.75	7.07
257.965	6.82
258.18	7.67
258.395	7.93
258.61	6.27
258.826	5.55
259.041	6.56
259.256	5.72
259.471	5.03
259.686	4.2
259.901	3.95
260.116	2.94
260.331	4.69
260.546	3.22
260.761	4.45
260.976	3.93
261.191	2.45
261.406	1.25
261.621	4.93
261.836	9.37
262.05	8.99
262.265	8.68
262.48	14.57
262.695	10.25
262.91	16.82
263.125	15.66
263.34	19.16
263.555	22.7
263.769	19.45
263.984	12.39
264.199	10.68
264.414	14.88
264.629	17.08
264.843	12.04
265.058	15.54
265.273	11.53
265.488	12.16
265.702	13.44
265.917	14.88
266.132	19.3
266.346	22.53
266.561	20.65
266.776	19.12
266.99	18.5
267.205	18.24
267.42	17.09
267.634	16.44
267.849	13.53
268.063	10.62
268.278	8.49
268.492	6.09
268.707	6.78
268.922	7.71
269.136	3.57
269.351	2.07
269.565	1.43
269.78	1.12
269.994	3.51
270.209	6.28
270.423	6.48
270.637	5.44
270.852	4.33
271.066	4.91
271.281	4.33
271.495	5.31
271.709	3.85
271.924	4.27
272.138	1.02
272.353	-1.55
272.567	-4.01
272.781	-2.71
272.996	-2.31
273.21	0.07
273.424	-0.59
273.638	-2.81
273.853	-2.08
274.067	-0.44
274.281	-0.02
274.495	3.23
274.71	4.11
274.924	4.71
275.138	4.81
275.352	3.94
275.566	4.08
275.781	6.86
275.995	7.96
276.209	10.66
276.423	11.97
276.637	10.73
276.851	8.43
277.065	6.38
277.279	9.81
277.493	12.87
277.707	13.37
277.921	13
278.135	9.94
278.349	9.65
278.563	7.57
278.777	5.53
278.991	9.63
279.205	11.81
279.419	15.33
279.633	13.05
279.847	13.85
280.061	11.61
280.275	11.89
280.489	8.6
280.703	10.57
280.917	12.35
281.131	12.32
281.344	12.77
281.558	14.94
281.772	12.35
281.986	12.85
282.2	7.24
282.414	10.78
282.627	9.9
282.841	12.01
283.055	9.45
283.269	9.57
283.482	8.61
283.696	5.73
283.91	3.24
284.123	3.44
284.337	3.27
284.551	3.72
284.764	4.04
284.978	0.37
285.192	-1.47
285.405	-0.96
285.619	-1.03
285.833	1.36
286.046	3.17
286.26	4.02
286.473	5.8
286.687	5.14
286.9	8.53
287.114	5.83
287.327	6.6
287.541	7.76
287.754	9.46
287.968	7.4
288.181	7.92
288.395	7.34
288.608	5.88
288.822	4.44
289.035	4.84
289.248	1.48
289.462	1.33
289.675	4.93
289.889	7.76
290.102	3.67
290.315	3.24
290.529	1.11
290.742	-1.74
290.955	-1.6
291.169	-0.67
291.382	-0.51
291.595	4.18
291.808	8.03
292.022	10.41
292.235	10.17
292.448	13.3
292.661	13.66
292.875	15.32
293.088	16.94
293.301	19.48
293.514	17.63
293.727	15.29
293.94	14.14
294.153	11.15
294.367	8.19
294.58	3.65
294.793	2.06
295.006	2.83
295.219	3.46
295.432	3.28
295.645	2.08
295.858	1.66
296.071	4.03
296.284	4.3
296.497	6.59
296.71	6.29
296.923	9.17
297.136	10.84
297.349	8.52
297.562	7.36
297.775	8.93
297.988	9.86
298.201	11.42
298.414	7.78
298.626	7.02
298.839	2.01
299.052	3.76
299.265	2.6
299.478	4.44
299.691	6.02
299.903	8.16
300.116	5.79
300.329	0.57
300.542	0.7
300.755	1.18
300.967	3.37
301.18	9.98
301.393	9.87
301.605	10.39
301.818	8.04
302.031	5.96
302.243	4.84
302.456	6.38
302.669	11.76
302.881	10.34
303.094	14.33
303.307	11.58
303.519	5.49
303.732	4.11
303.944	1.32
304.157	3.66
304.37	5.99
304.582	6.19
304.795	5.3
305.007	2.68
305.22	1.75
305.432	-1.59
305.645	-1.33
305.857	4.6
306.069	3.85
306.282	5.14
306.494	1.13
306.707	0.97
306.919	-2.26
307.132	-0.06
307.344	1.78
307.556	2.98
307.769	9.09
307.981	12.93
308.193	10.49
308.406	10.36
308.618	10.89
308.83	12.46
309.043	10.02
309.255	12.9
309.467	11.48
309.679	10.77
309.892	13.48
310.104	8.38
310.316	7.09
310.528	5.92
310.74	5.85
310.953	4.97
311.165	4.93
311.377	6.4
311.589	1.7
311.801	4.04
312.013	4.27
312.225	1.85
312.437	5.88
312.649	7.36
312.862	8.78
313.074	9.31
313.286	8.53
313.498	8.15
313.71	12.91
313.922	13.88
314.134	11.65
314.346	10.58
314.558	9.48
314.77	6.31
314.982	3.49
315.193	1.24
315.405	1.84
315.617	2.89
315.829	3.66
316.041	-1.36
316.253	0.91
316.465	1.14
316.677	4.37
316.888	5.01
317.1	6.67
317.312	3.46
317.524	5.69
317.736	2.33
317.947	2.94
318.159	3.04
318.371	4.48
318.583	3.26
318.794	3.64
319.006	2.66
319.218	0.99
319.43	2.09
319.641	5.27
319.853	4.65
320.064	7.18
320.276	6.69
320.488	8.62
320.699	5.67
320.911	9.68
321.123	10.5
321.334	7.77
321.546	10.67
321.757	10.42
321.969	10.66
322.18	10.56
322.392	10.33
322.603	8.04
322.815	6.91
323.026	8.26
323.238	8.9
323.449	6.08
323.661	8.37
323.872	8.65
324.083	6.43
324.295	5.95
324.506	8.11
324.718	9.13
324.929	12.27
325.14	9.71
325.352	10.45
325.563	5.93
325.774	9.11
325.986	7.06
326.197	5.07
326.408	5.51
326.62	5.58
326.831	4.7
327.042	3.58
327.253	2.16
327.464	5.34
327.676	6.37
327.887	11.89
328.098	9.68
328.309	9.73
328.52	12.71
328.732	13.63
328.943	12.14
329.154	13
329.365	14.49
329.576	16.9
329.787	17.4
329.998	19.33
330.209	14.32
330.42	15.72
330.631	16.42
330.842	14.37
331.053	14.63
331.264	15.41
331.475	15.4
331.686	14.41
331.897	11.53
332.108	10.39
332.319	8.95
332.53	11.79
332.741	13.78
332.952	12.4
333.163	13.05
333.374	13.13
333.585	15.68
333.795	16.08
334.006	16.69
334.217	17.91
334.428	19.63
334.639	17.25
334.849	15.56
335.06	13.55
335.271	15.78
335.482	18.13
335.692	17.45
335.903	15.01
336.114	10.71
336.325	11.36
336.535	11.89
336.746	9.07
336.957	10.2
337.167	12.58
337.378	11.62
337.589	12.74
337.799	9.99
338.01	7.72
338.22	8.22
338.431	10.54
338.642	9.14
338.852	10.08
339.063	13.02
339.273	14.37
339.484	11.8
339.694	13.57
339.905	10.93
340.115	11.44
340.326	13.68
340.536	14.55
340.746	15.03
340.957	14.99
341.167	13.78
341.378	11.25
341.588	9.5
341.799	10.34
342.009	9.15
342.219	13.02
342.43	12.08
342.64	12.59
342.85	12.63
343.061	14.41
343.271	13.74
343.481	13.64
343.691	14.37
343.902	15.05
344.112	16.19
344.322	17.34
344.532	14.2
344.743	16.89
344.953	18.08
345.163	16.7
345.373	13.83
345.583	15.14
345.793	15.05
346.004	15.31
346.214	14.27
346.424	13.85
346.634	11.52
346.844	12.3
347.054	9.68
347.264	6.99
347.474	7.17
347.684	8.84
347.894	7.3
348.104	6.52
348.314	6.54
348.524	5.76
348.734	3.6
348.944	6.62
349.154	5.27
349.364	6.9
349.574	8.06
349.784	8.65
349.994	7.52
350.204	9.31
350.413	11.1
350.623	11.06
350.833	11.08
351.043	10.95
351.253	10.75
351.463	12.18
351.672	12.3
351.882	12.42
352.092	12.9
352.302	11.63
352.511	13.72
352.721	11.89
352.931	10.5
353.141	12.31
353.35	12.85
353.56	11.5
353.77	9.39
353.979	8.88
354.189	8.5
354.399	6.52
354.608	9.93
354.818	6.59
355.027	8.32
355.237	9.07
355.447	8.93
355.656	8.18
355.866	9.84
356.075	10.58
356.285	12.21
356.494	12.49
356.704	12.76
356.913	12.46
357.123	13.05
357.332	12.35
357.542	10.34
357.751	10.13
357.96	9.37
358.17	5.65
358.379	6.29
358.589	5.55
358.798	6.37
359.007	6.29
359.217	4.71
359.426	5.33
359.635	5.92
359.845	7.95
360.054	8.15
360.263	8.72
360.472	10.14
360.682	10.57
360.891	8.42
361.1	9.58
361.309	9.16
361.519	9.59
361.728	7.91
361.937	9.18
362.146	8.66
362.355	8.06
362.564	9.67
362.774	10.14
362.983	9.25
363.192	11.96
363.401	10.72
363.61	12.01
363.819	11.9
364.028	14.23
364.237	13.12
364.446	14.9
364.655	13.89
364.864	13.77
365.073	13.39
365.282	13.53
365.491	10.83
365.7	10.33
365.909	8.64
366.118	9.88
366.327	8.16
366.536	7.32
366.745	5.45
366.954	6.42
367.162	7.66
367.371	8.46
367.58	7.75
367.789	8.97
367.998	7.88
368.207	9.16
368.415	9.45
368.624	10.06
368.833	9.95
369.042	10
369.25	10.74
369.459	9.53
369.668	8.74
369.877	9.18
370.085	10.36
370.294	11.34
370.503	11.02
370.711	10.31
370.92	11.72
371.129	13.07
371.337	14.49
371.546	14.33
371.754	14.15
371.963	14.77
372.171	15.12
372.38	14.6
372.589	14.87
372.797	16.18
373.006	15.86
373.214	14.57
373.423	14.04
373.631	12.52
373.84	12.82
374.048	11.54
374.256	10.76
374.465	11.8
374.673	10.78
374.882	9.41
375.09	8.09
375.298	9.69
375.507	10.12
375.715	10.5
375.923	9.68
376.132	10.24
376.34	11.24
376.548	10.84
376.757	10.18
376.965	11.42
377.173	13.29
377.381	13.78
377.59	12.51
377.798	12.28
378.006	11.5
378.214	12.11
378.423	11.19
378.631	10.02
378.839	10.93
379.047	9.9
379.255	9.06
379.463	6.79
379.671	6.48
379.879	5.77
380.088	6.71
380.296	6.38
380.504	7.22
380.712	6.56
380.92	6.89
381.128	7.52
381.336	8.45
381.544	8.01
381.752	11.12
381.96	11.71
382.168	10.65
382.376	7.68
382.584	7.48
382.791	7.91
382.999	7.88
383.207	9.01
383.415	7.87
383.623	7.2
383.831	7.24
384.039	3.03
384.247	3.51
384.454	3.93
384.662	5.08
384.87	5.66
385.078	4.78
385.285	5.43
385.493	5.58
385.701	6.88
385.909	6.99
386.116	8.18
386.324	11.42
386.532	11.23
386.739	12.24
386.947	12.4
387.155	13
387.362	13.12
387.57	13.05
387.778	12.67
387.985	11.57
388.193	12.32
388.4	10.52
388.608	9.99
388.816	9.98
389.023	10.68
389.231	12
389.438	11.73
389.646	10.91
389.853	10.32
390.061	9.35
390.268	8.33
390.475	9.03
390.683	9.24
390.89	8.69
391.098	9.2
391.305	7.11
391.512	5.36
391.72	4.36
391.927	4.81
392.135	5.68
392.342	6.44
392.549	7.97
392.756	7.55
392.964	7.22
393.171	7.93
393.378	6.81
393.586	6.86
393.793	7
394	7.38
394.207	7.21
394.414	7.04
394.622	6.19
394.829	4.03
395.036	3.03
395.243	3.91
395.45	3.42
395.657	3.23
395.864	4.72
396.072	5.66
396.279	6.84
396.486	6.39
396.693	5.58
396.9	5.67
397.107	7.03
397.314	8
397.521	7.64
397.728	7.1
397.935	6.35
398.142	6.58
398.349	5.73
398.556	4.25
398.763	4.65
398.97	5.63
399.177	6.36
399.383	6.28
399.59	4.48
399.797	4.47
400.004	5.26
400.211	5.22
400.418	4.91
400.625	3.87
400.831	4.56
401.038	5
401.245	3.79
401.452	3.19
401.658	3.85
401.865	5.65
402.072	5.16
402.279	3.95
402.485	4.6
402.692	5.32
402.899	6.65
403.105	5.66
403.312	5.29
403.519	6.01
403.725	6.35
403.932	5.92
404.138	5.12
404.345	5.31
404.552	6.23
404.758	6.94
404.965	6.26
405.171	6.83
405.378	7.53
405.584	7.55
405.791	6.73
405.997	6.09
406.204	6.64
406.41	6.67
406.617	6.47
406.823	6.06
407.029	4.96
407.236	5.28
407.442	4.99
407.649	5.67
407.855	6
408.061	7.06
408.268	8.08
408.474	7.24
408.68	7.41
408.887	7.53
409.093	7.95
409.299	7.93
409.505	7.92
409.712	7.87
409.918	6.37
410.124	6.88
410.33	5.74
410.537	5.27
410.743	6.03
410.949	6.32
411.155	6.25
411.361	5.99
411.567	6.48
411.773	6.33
411.98	5.88
412.186	5.86
412.392	5.24
412.598	6.46
412.804	6.65
413.01	6.52
413.216	6.26
413.422	6.51
413.628	7.47
413.834	7.47
414.04	7.96
414.246	7.38
414.452	8.11
414.658	7.09
414.864	6.65
415.07	6.04
415.275	5.61
415.481	5.43
415.687	5.35
415.893	4.44
416.099	4.41
416.305	4.62
416.511	5.21
416.716	6.13
416.922	6.37
417.128	7.18
417.334	7.58
417.539	7.85
417.745	8.54
417.951	8.34
418.157	8.98
418.362	8.25
418.568	8.33
418.774	8.01
418.979	7.56
419.185	7.84
419.391	7.08
419.596	6.86
419.802	6.52
420.008	5.92
420.213	2.16
420.419	1.3
420.624	1.88
420.83	1.17
421.035	1.15
421.241	1.47
421.446	1.27
421.652	1.3
421.857	1.39
422.063	1.89
422.268	1.73
422.474	5.24
422.679	5.35
422.885	5.33
423.09	5.17
423.295	5.68
423.501	4.77
423.706	4.88
423.911	5.15
424.117	4.88
424.322	4.37
424.527	4.79
424.733	5.43
424.938	5.79
425.143	5.57
425.349	5.6
425.554	5.33
425.759	5.89
425.964	5.75
426.169	5.67
426.375	5.69
426.58	5.81
426.785	5.48
426.99	5.45
427.195	5.21
427.4	5.18
427.605	5.35
427.811	5.22
428.016	5.15
428.221	5.7
428.426	5.42
428.631	6.19
428.836	6.4
429.041	6.52
429.246	6.46
429.451	6.42
429.656	7.38
429.861	8.24
430.066	7.68
430.271	7.28
430.476	6.4
430.681	5.93
430.886	5.02
431.09	5.38
431.295	5.04
431.5	5.4
431.705	5
431.91	4.14
432.115	3.19
432.32	3.9
432.524	4.16
432.729	4.86
432.934	5.51
433.139	5.51
433.343	5.01
433.548	5.5
433.753	5
433.958	5.52
434.162	5.55
434.367	6.66
434.572	6.6
434.776	6.55
434.981	6.61
435.186	6.5
435.39	7.47
435.595	7
435.799	6.5
436.004	6.29
436.209	5.85
436.413	5.92
436.618	4.9
436.822	4.88
437.027	4.73
437.231	4.82
437.436	5.07
437.64	4.73
437.845	5.14
438.049	5.73
438.253	6.05
438.458	6.27
438.662	6.11
438.867	6.22
439.071	6.4
439.275	6.38
439.48	6.67
439.684	6.16
439.888	6.1
440.093	6.64
440.297	6.52
440.501	6.14
440.706	6.12
440.91	6.33
441.114	6.43
441.318	5.95
441.523	6.56
441.727	5.91
441.931	6.52
442.135	6.54
442.339	6.82
442.543	6.79
442.748	6.88
442.952	7.1
443.156	7.09
443.36	7.41
443.564	7.67
443.768	6.79
443.972	6.31
444.176	5.55
444.38	5.7
444.584	4.81
444.788	4.69
444.992	5.21
445.196	5.23
445.4	5.48
445.604	5.28
445.808	5.67
446.012	5.89
446.216	6.61
446.42	6.99
446.624	6.71
446.828	6.99
447.032	6.93
447.235	6.76
447.439	6.13
447.643	5.38
447.847	4.99
448.051	4.27
448.254	4.06
448.458	3.98
448.662	4.17
448.866	4.92
449.069	4.78
449.273	4.53
449.477	4.84
449.681	5.57
449.884	6.2
450.088	6.34
450.292	5.7
450.495	6.18
450.699	5.67
450.902	4.65
451.106	4.09
451.31	4.21
451.513	4.24
451.717	3.8
451.92	3.98
452.124	4.02
452.327	3.73
452.531	4.52
452.734	4.77
452.938	5.17
453.141	5.53
453.345	5.28
453.548	4.5
453.752	4.72
453.955	5.07
454.158	4.69
454.362	5
454.565	5.12
454.769	5.23
454.972	4.8
455.175	4.27
455.379	4.06
455.582	4.11
455.785	5.5
455.988	5.27
456.192	5.17
456.395	5.58
456.598	5.19
456.801	4.9
457.005	4.97
457.208	4.41
457.411	4.75
457.614	5.25
457.817	5.81
458.021	5.67
458.224	5.46
458.427	5.56
458.63	5.12
458.833	4.68
459.036	4.97
459.239	4.67
459.442	5.27
459.645	5.04
459.848	4.97
460.051	4.51
460.254	4.03
460.457	4.64
460.66	3.74
460.863	3.94
461.066	4.58
461.269	4.79
461.472	4.85
461.675	4.74
461.878	5.36
462.081	5.74
462.284	6.02
462.486	5.59
462.689	5.39
462.892	6.27
463.095	5.63
463.298	5.92
463.5	6.03
463.703	6.95
463.906	7.05
464.109	6.77
464.311	6.66
464.514	6.49
464.717	7.41
464.92	6.75
465.122	6.46
465.325	6.94
465.528	7.03
465.73	7.14
465.933	6.45
466.135	5.74
466.338	5.37
466.541	4.75
466.743	4.53
466.946	4.15
467.148	4.73
467.351	4.67
467.553	4.61
467.756	4.65
467.958	4.35
468.161	4.18
468.363	4.55
468.566	4.43
468.768	4.95
468.971	5.5
469.173	5.98
469.375	5.36
469.578	5.19
469.78	5.38
469.983	4.95
470.185	5.05
470.387	5.08
470.59	5.17
470.792	5.86
470.994	6.19
471.196	5.71
471.399	4.33
471.601	4.7
471.803	5.39
472.005	5.84
472.208	6.65
472.41	6.49
472.612	7.2
472.814	6.88
473.016	6.75
473.218	6.28
473.421	6
473.623	7.12
473.825	7.13
474.027	7.03
474.229	6.01
474.431	5.27
474.633	4.72
474.835	4.65
475.037	4.95
475.239	4.8
475.441	4.68
475.643	4.75
475.845	4.45
476.047	4.37
476.249	4.08
476.451	4.43
476.653	4.24
476.855	4.7
477.057	4.59
477.258	4.29
477.46	4.22
477.662	4.12
477.864	4.42
478.066	4.73
478.268	5.01
478.469	5.14
478.671	4.41
478.873	4.15
479.075	3.89
479.276	4.05
479.478	4.34
479.68	4.55
479.882	5.07
480.083	4.87
480.285	4.52
480.487	4.48
480.688	4.09
480.89	4.66
481.091	5.18
481.293	5.36
481.495	5.44
481.696	5.32
481.898	5.08
482.099	4.88
482.301	4.83
482.502	5
482.704	4.9
482.905	5.13
483.107	5.13
483.308	5.05
483.51	4.95
483.711	4.7
483.913	4.71
484.114	4.82
484.315	4.85
484.517	5.03
484.718	4.82
484.92	4.87
485.121	4.71
485.322	4.62
485.524	4.62
485.725	4.88
485.926	4.87
486.127	4.99
486.329	4.72
486.53	4.91
486.731	4.76
486.932	4.98
487.134	5.04
487.335	4.96
487.536	5.31
487.737	5.14
487.938	5.09
488.139	5.12
488.341	5.36
488.542	5.68
488.743	5.39
488.944	5.42
489.145	5.25
489.346	5.3
489.547	5.35
489.748	5.11
489.949	5.21
490.15	4.9
490.351	4.86
490.552	4.55
490.753	4.68
490.954	4.76
491.155	4.76
491.356	5.12
491.557	5.08
491.758	5.14
491.959	5.17
492.159	5.24
492.36	5.7
492.561	6.08
492.762	6.4
492.963	6.37
493.164	6.51
493.364	6.77
493.565	6.39
493.766	6.06
493.967	5.82
494.167	5.56
494.368	5.39
494.569	5.26
494.769	4.78
494.97	4.32
495.171	4.19
495.371	4.1
495.572	3.9
495.773	4.01
495.973	4.4
496.174	4.99
496.375	5.19
496.575	5.35
496.776	5.2
496.976	5.21
497.177	5.46
497.377	5.32
497.578	4.81
497.778	4.6
497.979	4.33
498.179	4.46
498.38	3.88
498.58	3.96
498.78	4.09
498.981	4.09
499.181	3.88
499.382	4.17
499.582	4.3
499.782	5.36
499.983	6.17
500.183	6.64
500.383	6.93
500.584	7.45
500.784	7.69
500.984	7.24
501.184	7.04
501.385	7.29
501.585	7.05
501.785	6.69
501.985	6.19
502.185	5.55
502.386	5.08
502.586	4.69
502.786	4.34
502.986	3.87
503.186	3.86
503.386	4.49
503.586	4.46
503.786	4.65
503.987	5.48
504.187	5.46
504.387	5.44
504.587	5.79
504.787	5.59
504.987	5.65
505.187	5.72
505.387	5.9
505.587	5.54
505.786	5.2
505.986	5.11
506.186	4.66
506.386	4.9
506.586	5.46
506.786	5.36
506.986	5.79
507.186	5.74
507.386	5.92
507.585	5.91
507.785	5.8
507.985	6.37
508.185	6.52
508.384	6.78
508.584	6.18
508.784	6.32
508.984	5.83
509.183	5.44
509.383	5.89
509.583	5.53
509.782	5.72
509.982	5.94
510.182	5.98
510.381	5.61
510.581	5.19
510.781	5.47
510.98	5.32
511.18	5.75
511.379	5.82
511.579	5.76
511.778	5.91
511.978	6.07
512.177	6.62
512.377	6.84
512.576	7.34
512.776	7.82
512.975	7.81
513.175	7.9
513.374	7.83
513.573	8.3
513.773	8.46
513.972	9.01
514.172	8.73
514.371	8.53
514.57	8.28
514.77	7.9
514.969	7.9
515.168	8.46
515.367	7.95
515.567	7.95
515.766	7.82
515.965	7.53
516.164	7.17
516.364	7.2
516.563	6.59
516.762	6.71
516.961	7.13
517.16	7.11
517.359	6.93
517.559	7.12
517.758	7.68
517.957	7.48
518.156	7.39
518.355	7.36
518.554	7.86
518.753	7.85
518.952	7.64
519.151	7.64
519.35	7.29
519.549	7.37
519.748	7.47
519.947	7.41
520.146	7.91
520.345	8.03
520.544	8.03
520.743	7.97
520.942	8.16
521.141	8.79
521.339	8.45
521.538	8.91
521.737	9.43
521.936	9.74
522.135	9.56
522.333	9.1
522.532	9.66
522.731	9.92
522.93	9.24
523.129	9.21
523.327	9.02
523.526	9.02
523.725	8.8
523.923	8.34
524.122	8.26
524.321	8
524.519	8.2
524.718	7.9
524.917	7.89
525.115	8.04
525.314	8.18
525.512	8.02
525.711	7.99
525.909	7.87
526.108	7.83
526.306	8.01
526.505	8.27
526.703	8.28
526.902	8.34
527.1	8.15
527.299	8.22
527.497	8.32
527.696	8.38
527.894	8.43
528.092	8.63
528.291	8.77
528.489	8.65
528.688	8.51
528.886	8.39
529.084	8.48
529.283	8.73
529.481	8.83
529.679	8.88
529.877	9.04
530.076	9.24
530.274	9.39
530.472	9.28
530.67	9.63
530.869	9.61
531.067	9.91
531.265	9.84
531.463	9.8
531.661	9.94
531.859	9.87
532.057	9.82
532.255	9.85
532.454	9.7
532.652	9.79
532.85	9.5
533.048	9.86
533.246	9.95
533.444	10.19
533.642	10.05
533.84	9.83
534.038	9.82
534.236	10.07
534.434	10.24
534.632	10.47
534.83	10.82
535.027	11.04
535.225	10.7
535.423	10.56
535.621	10.31
535.819	10.63
536.017	10.71
536.215	11.07
536.412	10.81
536.61	10.53
536.808	10.55
537.006	10.49
537.203	10.38
537.401	10.55
537.599	10.7
537.797	10.83
537.994	10.61
538.192	10.61
538.39	10.58
538.587	10.97
538.785	11.2
538.983	11.19
539.18	11.08
539.378	11.27
539.575	11.4
539.773	11.16
539.97	11.04
540.168	11.12
540.366	11.39
540.563	11.12
540.761	10.85
540.958	10.96
541.155	11.01
541.353	11.06
541.55	11.13
541.748	11.11
541.945	11.47
542.143	11.35
542.34	11.57
542.537	11.44
542.735	11.8
542.932	12.2
543.129	11.94
543.327	12.12
543.524	12.15
543.721	11.82
543.919	12.25
544.116	11.96
544.313	12.8
544.51	12.82
544.708	13.16
544.905	13.14
545.102	13.01
545.299	12.59
545.496	12.4
545.693	12.07
545.891	12.33
546.088	11.95
546.285	12.01
546.482	11.1
546.679	11.08
546.876	11.19
547.073	11.4
547.27	11.19
547.467	12.16
547.664	12.44
547.861	12.81
548.058	13.01
548.255	13.28
548.452	13.7
548.649	14.43
548.846	14.71
549.043	14.55
549.24	14.28
549.437	14.29
549.633	13.85
549.83	13.41
550.027	13.43
550.224	12.64
550.421	12.42
550.618	12.86
550.814	12.98
551.011	12.36
551.208	12.04
551.405	12.42
551.601	13.15
551.798	13.4
551.995	14.01
552.191	14.1
552.388	14.48
552.585	14.84
552.781	14.8
552.978	15.05
553.175	15.56
553.371	15.52
553.568	15.33
553.764	14.97
553.961	15.18
554.157	14.3
554.354	14.45
554.55	14.38
554.747	14.59
554.943	13.97
555.14	13.8
555.336	13.79
555.533	14.72
555.729	15.1
555.926	14.56
556.122	14.35
556.318	14.64
556.515	15.51
556.711	16.01
556.907	14.93
557.104	14.57
557.3	14.64
557.496	14.97
557.693	14.45
557.889	14.56
558.085	14.99
558.281	15.77
558.478	16.14
558.674	14.84
558.87	14.76
559.066	15.35
559.262	15.41
559.459	14.97
559.655	15.22
559.851	14.75
560.047	15.38
560.243	15.89
560.439	15.73
560.635	16.2
560.831	17.09
561.027	16.89
561.223	17.54
561.419	18.1
561.615	18.67
561.811	18.42
562.007	18.78
562.203	18.21
562.399	17.93
562.595	17.7
562.791	17.56
562.987	17.09
563.183	17.59
563.379	16.76
563.575	16.7
563.771	16.73
563.966	16.14
564.162	16.38
564.358	15.89
564.554	16.16
564.75	16.78
564.945	16.77
565.141	17.14
565.337	16.77
565.533	17.74
565.728	17.67
565.924	17.77
566.12	18.39
566.315	18.65
566.511	19.24
566.707	19.71
566.902	19.49
567.098	19.63
567.293	19.85
567.489	20.13
567.684	19.58
567.88	19.74
568.076	19.66
568.271	19.52
568.467	19.99
568.662	19.92
568.858	19.49
569.053	19.21
569.248	18.99
569.444	18.49
569.639	18.6
569.835	18.76
570.03	19.27
570.225	19.03
570.421	19.36
570.616	18.56
570.812	18.56
571.007	18.57
571.202	18.44
571.397	18.49
571.593	19.47
571.788	18.65
571.983	18.38
572.178	18.18
572.374	18.2
572.569	17.56
572.764	17.78
572.959	17.51
573.154	17.7
573.35	18.28
573.545	18.09
573.74	17.7
573.935	18.58
574.13	19.11
574.325	18.37
574.52	18.59
574.715	18.81
574.91	18.93
575.105	19.57
575.3	19.32
575.495	18.42
575.69	18.58
575.885	17.96
576.08	18.21
576.275	17.54
576.47	18.27
576.665	18.22
576.86	18.57
577.055	18.51
577.25	18.16
577.444	17.8
577.639	18.34
577.834	19.09
578.029	20.1
578.224	19.65
578.418	19.66
578.613	19.67
578.808	19.99
579.003	20.04
579.197	19.49
579.392	19.03
579.587	19.9
579.781	19.97
579.976	19.79
580.171	19.25
580.365	19.61
580.56	20.65
580.755	20.39
580.949	20.28
581.144	20.05
581.338	19.99
581.533	20.25
581.727	19.97
581.922	19.98
582.116	19.33
582.311	19.03
582.505	18.4
582.7	17.44
582.894	17.66
583.089	17.4
583.283	17.54
583.478	17.87
583.672	17.29
583.866	16.57
584.061	16.67
584.255	16.86
584.449	16.02
584.644	16.09
584.838	16.51
585.032	16.45
585.226	16.8
585.421	16.76
585.615	17.12
585.809	18.03
586.003	18.66
586.198	18.17
586.392	18.29
586.586	19.16
586.78	19.29
586.974	20.13
587.168	19.75
587.363	19.46
587.557	19.71
587.751	19.72
587.945	20.26
588.139	20.53
588.333	20.39
588.527	20.07
588.721	20.21
588.915	20.02
589.109	19.36
589.303	19.33
589.497	19.39
589.691	19.11
589.885	18.81
590.079	17.77
590.273	17.46
590.466	18.47
590.66	19.2
590.854	19.85
591.048	20.38
591.242	20.06
591.436	20.79
591.629	21.5
591.823	21.3
592.017	22.29
592.211	22.71
592.404	22.89
592.598	22.62
592.792	21.64
592.986	21.3
593.179	21.19
593.373	21.21
593.567	20.62
593.76	20.08
593.954	19.99
594.147	19.33
594.341	19.13
594.535	18.31
594.728	18.16
594.922	18.02
595.115	17.42
595.309	17.49
595.502	17.48
595.696	17.08
595.889	17.11
596.083	17.45
596.276	17.9
596.47	18.05
596.663	18.06
596.856	18.31
597.05	18.58
597.243	18.91
597.437	18.87
597.63	19.11
597.823	20.19
598.017	20.56
598.21	20.82
598.403	19.8
598.596	19.86
598.79	20.55
598.983	19.91
599.176	20.8
599.369	20.79
599.563	21.05
599.756	20.96
599.949	20.07
600.142	19.42
600.335	19.54
600.528	19.19
600.722	19.93
600.915	19.34
601.108	18.91
601.301	17.98
601.494	18.54
601.687	18.94
601.88	18.78
602.073	19.05
602.266	19.06
602.459	18.37
602.652	19.47
602.845	19.59
603.038	20.7
603.231	22.01
603.424	23.04
603.617	22.32
603.809	21.79
604.002	21.55
604.195	21.52
604.388	21.26
604.581	21.29
604.774	21.02
604.966	20.25
605.159	19.49
605.352	18.54
605.545	18.18
605.737	18.92
605.93	19.06
606.123	19.63
606.316	20.49
606.508	21.11
606.701	21.34
606.894	21.38
607.086	21.29
607.279	21.8
607.471	22.14
607.664	22.04
607.857	21.73
608.049	21.48
608.242	21.71
608.434	21
608.627	21.4
608.819	22.22
609.012	22.61
609.204	22.29
609.397	22.14
609.589	22.24
609.782	21.92
609.974	21.58
610.166	21.93
610.359	21.8
610.551	21.94
610.743	21.52
610.936	20.98
611.128	19.86
611.32	21.34
611.513	21.77
611.705	20.51
611.897	21.57
612.09	22.33
612.282	22.68
612.474	23.29
612.666	23.57
612.858	23.31
613.051	23.4
613.243	24.29
613.435	23.31
613.627	22.04
613.819	23.7
614.011	22.51
614.203	22.33
614.395	22.02
614.588	21.26
614.78	21.93
614.972	22.83
615.164	22.97
615.356	23.46
615.548	23.47
615.74	24.47
615.932	23.68
616.124	24.27
616.315	24.52
616.507	26.06
616.699	26.14
616.891	26.3
617.083	25.6
617.275	25.45
617.467	24.71
617.659	25.64
617.85	25.92
618.042	26.49
618.234	25.78
618.426	26.51
618.618	24.76
618.809	25.52
619.001	25.49
619.193	24.9
619.384	25.94
619.576	25.94
619.768	25.03
619.959	23.42
620.151	23.07
620.343	23.54
620.534	22.89
620.726	23.66
620.917	22.73
621.109	22
621.301	23.54
621.492	22.98
621.684	22.71
621.875	23.41
622.067	23.92
622.258	23.32
622.45	22.38
622.641	22.87
622.832	22.23
623.024	22.56
623.215	22.7
623.407	21.19
623.598	20.88
623.789	22.05
623.981	21.27
624.172	21.57
624.363	21.49
624.555	22.32
624.746	21.66
624.937	21.58
625.129	20.86
625.32	20.41
625.511	20.92
625.702	19.96
625.893	19.36
626.085	19.38
626.276	18.89
626.467	19.51
626.658	19.83
626.849	19.33
627.04	20.05
627.231	20.49
627.422	20.94
627.614	21.31
627.805	21.42
627.996	21.47
628.187	21.74
628.378	22
628.569	21.34
628.76	19.99
628.951	19.36
629.142	18.36
629.332	17.94
629.523	18.32
629.714	18.25
629.905	18.96
630.096	19.65
630.287	19.09
630.478	19.49
630.669	20.33
630.859	21.73
631.05	23.67
631.241	23.62
631.432	24.73
631.623	24.63
631.813	24.66
632.004	24.84
632.195	24.91
632.385	25.06
632.576	24.8
632.767	24.88
632.957	24.5
633.148	24.67
633.339	24.78
633.529	24.1
633.72	24.14
633.91	23.86
634.101	22.48
634.292	22.01
634.482	22.1
634.673	21.85
634.863	21.38
635.054	20.98
635.244	20.18
635.435	21.29
635.625	21.48
635.815	20.74
636.006	21.42
636.196	22.04
636.387	21.96
636.577	21.57
636.767	21
636.958	21.49
637.148	23.2
637.338	23.45
637.529	22.53
637.719	22.93
637.909	23.95
638.099	23.17
638.29	22.88
638.48	22.84
638.67	23.53
638.86	24.47
639.05	25
639.241	24.12
639.431	23.74
639.621	24.05
639.811	23.9
640.001	23.94
640.191	25.53
640.381	27.2
640.571	27.49
640.761	27.28
640.951	28.46
641.141	27.49
641.331	27.48
641.521	28.18
641.711	28.4
641.901	27.51
642.091	26.75
642.281	25.05
642.471	24.42
642.661	23.29
642.851	24.08
643.041	24.05
643.231	23.54
643.42	22.54
643.61	20.82
643.8	21.01
643.99	21.87
644.18	21.46
644.369	21.54
644.559	21.97
644.749	22.43
644.939	22.08
645.128	20.57
645.318	20.86
645.508	22.16
645.697	23.94
645.887	23.93
646.076	24.02
646.266	24.07
646.456	23.89
646.645	24.25
646.835	24.67
647.024	25.65
647.214	27.5
647.403	27.72
647.593	26.86
647.782	25.58
647.972	25.64
648.161	25.78
648.351	26.09
648.54	26.43
648.73	25.89
648.919	24.9
649.108	24.5
649.298	23.04
649.487	23.16
649.677	23.58
649.866	23.99
650.055	24.24
650.244	23.76
650.434	24.5
650.623	24.55
650.812	25.21
651.002	26.53
651.191	25.68
651.38	26.48
651.569	27.02
651.758	26.55
651.947	26.53
652.137	25.78
652.326	25.52
652.515	24.8
652.704	24.56
652.893	23.53
653.082	22.84
653.271	24.04
653.46	23.2
653.649	22.32
653.838	22.06
654.027	21.74
654.216	21.19
654.405	21.9
654.594	21.89
654.783	21.85
654.972	23.05
655.161	22.87
655.35	23.39
655.539	22.51
655.728	23.04
655.916	24.22
656.105	24.25
656.294	24.37
656.483	23.26
656.672	24.13
656.86	24.95
657.049	23.81
657.238	24.71
657.427	24.21
657.615	25.04
657.804	25.37
657.993	24.51
658.181	24.33
658.37	24.09
658.559	24.33
658.747	23.37
658.936	23.07
659.125	26
659.313	25.02
659.502	24.52
659.69	24.15
659.879	24.08
660.067	24.89
660.256	25.78
660.444	26.66
660.633	26.15
660.821	26.47
661.01	26.77
661.198	23.85
661.387	24.2
661.575	24.2
661.763	24.66
661.952	24.78
662.14	26.87
662.328	27.34
662.517	27.23
662.705	27.91
662.893	28.88
663.082	28.69
663.27	29.02
663.458	28.65
663.646	29.25
663.834	29.14
664.023	29.7
664.211	26.72
664.399	25.59
664.587	26.32
664.775	26.83
664.963	26.17
665.152	25.98
665.34	25.14
665.528	25.14
665.716	24.02
665.904	24.98
666.092	24.7
666.28	25.3
666.468	26.51
666.656	26.33
666.844	26.16
667.032	25.7
667.22	26.19
667.408	27.74
667.596	29.34
667.784	29.88
667.971	29.71
668.159	28.09
668.347	28.11
668.535	26.52
668.723	25.94
668.911	26.22
669.098	26.99
669.286	27.87
669.474	27.82
669.662	27.47
669.849	28.22
670.037	28.58
670.225	28.88
670.413	28.3
670.6	28.85
670.788	29.35
670.976	27.9
671.163	28.2
671.351	27.58
671.538	26.35
671.726	25.44
671.913	24.93
672.101	24.29
672.289	25.46
672.476	27.01
672.664	27.29
672.851	26.96
673.039	26.76
673.226	27.22
673.413	26.63
673.601	27.62
673.788	28.54
673.976	29.02
674.163	29.47
674.35	28.23
674.538	26.7
674.725	26.23
674.912	25.79
675.1	27.7
675.287	25.33
675.474	25.53
675.662	23.42
675.849	22.52
676.036	21.13
676.223	20.45
676.411	22.3
676.598	22.19
676.785	21.61
676.972	22.83
677.159	22.45
677.346	23.44
677.533	24.46
677.721	25.69
677.908	25.02
678.095	25.85
678.282	26.88
678.469	25.6
678.656	26.47
678.843	26.79
679.03	26.6
679.217	25.92
679.404	24.49
679.591	23.92
679.778	23.07
679.964	24.67
680.151	24.04
680.338	22.92
680.525	23.51
680.712	24.1
680.899	25.03
681.086	23.92
681.272	24.39
681.459	25.93
681.646	24.05
681.833	25.17
682.02	24.69
682.206	23.25
682.393	21.91
682.58	22.2
682.766	21.45
682.953	21.37
683.14	23.06
683.326	23.36
683.513	24.34
683.7	25.3
683.886	26.5
684.073	26.55
684.259	27.47
684.446	28.6
684.632	27.57
684.819	26.29
685.005	25.27
685.192	24.04
685.378	24.58
685.565	24.76
685.751	25.69
685.938	25.07
686.124	25.61
686.31	27.28
686.497	28.46
686.683	29.04
686.87	30.38
687.056	29.56
687.242	28.71
687.429	26.83
687.615	25.88
687.801	25.61
687.987	24.6
688.174	24.52
688.36	22.95
688.546	21.6
688.732	20.46
688.918	21.93
689.105	23.62
689.291	24.23
689.477	26.59
689.663	27.79
689.849	29.32
690.035	30.72
690.221	30.55
690.407	33.01
690.593	34.31
690.779	34.73
690.965	32.6
691.151	32.04
691.337	31.9
691.523	30.77
691.709	28.79
691.895	27.91
692.081	25.69
692.267	24.64
692.453	23.1
692.639	23.6
692.825	25.17
693.011	26.11
693.196	26.65
693.382	26.55
693.568	26.06
693.754	29.2
693.94	27.4
694.125	29.05
694.311	29.18
694.497	29.14
694.682	27.47
694.868	25.37
695.054	24.69
695.239	26
695.425	25.13
695.611	26.03
695.796	24.2
695.982	24.58
696.168	22.47
696.353	21.35
696.539	22.1
696.724	22.53
696.91	23.63
697.095	23.41
697.281	23.31
697.466	24.41
697.652	24.5
697.837	24.88
698.023	24.38
698.208	24.89
698.393	26.28
698.579	25.24
698.764	25.29
698.949	24.67
699.135	24.6
699.32	24.08
699.505	23.59
699.691	23.38
699.876	23.04
700.061	24.46
700.246	25.69
700.432	26.36
700.617	27.22
700.802	26.58
700.987	27.6
701.172	29.29
701.358	29.49
701.543	30.85
701.728	30.68
701.913	32.07
702.098	32.52
702.283	31.99
702.468	29.71
702.653	30.09
702.838	32.7
703.023	31.67
703.208	27.66
703.393	25.38
703.578	23.98
703.763	23.91
703.948	21.77
704.133	20.99
704.318	21.74
704.503	26.27
704.688	25.56
704.873	23.32
705.057	23.7
705.242	26.99
705.427	29.36
705.612	29.46
705.797	28.99
705.981	29.33
706.166	30.87
706.351	31.63
706.536	30.4
706.72	29.27
706.905	29.91
707.09	29.98
707.274	28.33
707.459	26.14
707.644	28.12
707.828	28.54
708.013	28.51
708.197	27.38
708.382	26.36
708.567	24.11
708.751	25.89
708.936	25.33
709.12	25.57
709.305	26.52
709.489	29.2
709.673	26.48
709.858	25.54
710.042	24.6
710.227	23.84
710.411	22.32
710.596	23.14
710.78	21.63
710.964	23.3
711.149	22.94
711.333	23.99
711.517	21.28
711.702	22.98
711.886	25.59
712.07	27.3
712.254	26.71
712.438	28.35
712.623	29.85
712.807	28.48
712.991	27.53
713.175	28.46
713.359	25.59
713.544	28.17
713.728	28.05
713.912	25.73
714.096	25.12
714.28	25.04
714.464	22.75
714.648	19.65
714.832	21.73
715.016	21.63
715.2	22.89
715.384	23.31
715.568	20.91
715.752	19.13
715.936	21.05
716.12	22.39
716.304	23.28
716.488	25.15
716.671	25.5
716.855	26.05
717.039	24.32
717.223	23.33
717.407	23.76
717.59	25.76
717.774	27.54
717.958	23.45
718.142	19.34
718.325	18.71
718.509	19.39
718.693	19.02
718.877	16.87
719.06	18.9
719.244	20.13
719.428	22.87
719.611	21.94
719.795	20.69
719.978	24.35
720.162	28.66
720.345	30.44
720.529	31.96
720.713	35.33
720.896	36.96
721.08	37.24
721.263	32.93
721.446	31.9
721.63	31.68
721.813	33.11
721.997	32.06
722.18	31.79
722.364	28.2
722.547	26.37
722.73	23.52
722.914	23.63
723.097	23.09
723.28	26.33
723.464	24.37
723.647	25.62
723.83	24.32
724.013	25.47
724.197	22.75
724.38	25.13
724.563	23.8
724.746	22.38
724.929	21.31
725.112	19.11
725.296	17.63
725.479	19.83
725.662	17.32
725.845	18.28
726.028	19.01
726.211	18.29
726.394	19.35
726.577	19.58
726.76	23.29
726.943	25.72
727.126	26.6
727.309	28.55
727.492	26.28
727.675	28.47
727.858	29.31
728.041	26.79
728.224	29.06
728.407	30.54
728.589	30.34
728.772	26.35
728.955	25.85
729.138	27.4
729.321	25.39
729.503	27.52
729.686	26.56
729.869	26.06
730.052	28.35
730.234	28.19
730.417	27.16
730.6	27
730.782	30.41
730.965	27.01
731.148	26.67
731.33	28.56
731.513	28.4
731.695	28.41
731.878	26.92
732.061	27.03
732.243	24.91
732.426	24.32
732.608	25.94
732.791	24.87
732.973	27.52
733.156	26.31
733.338	26.84
733.52	27.21
733.703	27.03
733.885	28.36
734.068	27.72
734.25	30.06
734.432	28.24
734.615	27.38
734.797	26.28
734.979	25.22
735.162	26.11
735.344	21.8
735.526	21.82
735.708	24.48
735.891	23.49
736.073	24.43
736.255	25.63
736.437	28.45
736.619	28.25
736.802	30.17
736.984	32.65
737.166	34.33
737.348	35.96
737.53	36.36
737.712	37.77
737.894	36.85
738.076	35.21
738.258	35.12
738.44	35.68
738.622	38.04
738.804	36.65
738.986	36.28
739.168	35.31
739.35	35.49
739.532	35.19
739.714	29.5
739.896	32.38
740.078	31.41
740.259	28.95
740.441	27.47
740.623	24.37
740.805	30
740.987	27.19
741.168	28.81
741.35	31.14
741.532	31.39
741.714	33.74
741.895	30.35
742.077	29.79
742.259	33.87
742.44	31.15
742.622	33.74
742.804	29.34
742.985	30.38
743.167	29.14
743.348	29.97
743.53	27.22
743.711	30.06
743.893	35.59
744.075	41.16
744.256	37.01
744.438	38.44
744.619	36.4
744.8	38.5
744.982	40.15
745.163	44.46
745.345	44.4
745.526	42.98
745.707	38.69
745.889	34.72
746.07	32.62
746.252	36.66
746.433	39.91
746.614	39.99
746.795	38.86
746.977	39.68
747.158	37.31
747.339	36.29
747.52	37.22
747.702	40.94
747.883	43.88
748.064	43.16
748.245	40.72
748.426	37.45
748.607	36.11
748.788	36.61
748.97	34.17
749.151	28.43
749.332	31.11
749.513	31.91
749.694	27.25
749.875	26.48
750.056	30.08
750.237	27.11
750.418	27.95
750.599	26.21
750.78	25.56
750.96	21.58
751.141	25.71
751.322	24.47
751.503	29.42
751.684	33.23
751.865	32.68
752.046	30.21
752.226	33.89
752.407	34.18
752.588	37.36
752.769	39.15
752.949	42.95
753.13	40.9
753.311	39.21
753.492	35.64
753.672	33.78
753.853	34.5
754.034	36.14
754.214	36.81
754.395	40.46
754.575	40.61
754.756	38.97
754.937	39.19
755.117	43.09
755.298	43.05
755.478	47.61
755.659	47.27
755.839	47.48
756.02	43.32
756.2	39.39
756.381	37.31
756.561	39.74
756.741	38.88
756.922	36.82
757.102	30.65
757.283	29.75
757.463	27.04
757.643	25.8
757.823	22.16
758.004	18.2
758.184	19.43
758.364	18.77
758.545	14.7
758.725	15.55
758.905	13.03
759.085	15.17
759.265	14.87
759.446	14.74
759.626	16.56
759.806	15.53
759.986	19.42
760.166	21.31
760.346	21.04
760.526	23.89
760.706	24.53
760.886	27.32
761.066	26.21
761.246	25.76
761.426	24.1
761.606	23.49
761.786	25.19
761.966	23.16
762.146	23.23
762.326	25.27
762.506	24.6
762.686	24.12
762.866	23.26
763.046	25.22
763.225	27.04
763.405	23.47
763.585	25.52
763.765	23.79
763.945	28.35
764.124	29.46
764.304	26.17
764.484	27.31
764.664	30.96
764.843	35.75
765.023	35.21
765.203	32.53
765.382	37.95
765.562	37.23
765.741	40.01
765.921	37.02
766.101	39.34
766.28	43.01
766.46	41.58
766.639	41.4
766.819	38.51
766.998	38.68
767.178	41.43
767.357	41.91
767.537	43.44
767.716	45.16
767.896	46.87
768.075	42.13
768.254	43.34
768.434	45.65
768.613	41.98
768.792	43.43
768.972	41.9
769.151	36.67
769.33	36.88
769.51	39.31
769.689	37.19
769.868	36.25
770.047	36.6
770.226	36.94
770.406	35.26
770.585	36.26
770.764	35.21
770.943	41.02
771.122	43.78
771.301	45.34
771.48	43.52
771.66	46.22
771.839	50.26
772.018	52.04
772.197	47.31
772.376	51.4
772.555	51.38
772.734	51.35
772.913	50.07
773.092	60.03
773.271	61.38
773.449	65.6
773.628	61.6
773.807	55.47
773.986	59.65
774.165	62.63
774.344	59.94
774.523	64.93
774.701	60.4
774.88	57.47
775.059	56.54
775.238	52.31
775.417	49.66
775.595	43.58
775.774	49.94
775.953	42.97
776.131	44.21
776.31	45.87
776.489	39.91
776.667	46.43
776.846	42.56
777.025	37.01
777.203	43.95
777.382	43.85
777.56	49.14
777.739	46.53
777.917	45.23
778.096	45.25
778.274	44.3
778.453	45.96
778.631	43.38
778.81	45.06
778.988	46.42
779.166	36.94
779.345	36.78
779.523	34.82
779.702	29.01
779.88	34.54
780.058	34.96
780.237	31.88
780.415	31.22
780.593	24.11
780.771	31.15
780.95	32.99
781.128	34.66
781.306	33.94
781.484	35.62
781.662	46.66
781.841	43.53
782.019	44.78
782.197	47.39
782.375	50.77
782.553	60.15
782.731	56.87
782.909	52.86
783.087	55.2
783.265	54.18
783.443	51.06
783.621	48.94
783.799	56.78
783.977	48.37
784.155	50.24
784.333	49.96
784.511	49.43
784.689	48.53
784.867	42.75
785.045	41.8
785.223	41.11
785.4	39.52
785.578	36.47
785.756	38.35
785.934	39.5
786.112	39.05
786.289	32.99
786.467	38.44
786.645	38.98
786.823	50.52
787	51.15
787.178	56.52
787.356	57.92
787.533	56.92
787.711	46.1
787.889	43
788.066	40.36
788.244	38.26
788.421	34.07
788.599	30.67
788.776	22.34
788.954	22.03
789.131	14.1
789.309	21.52
789.486	18.48
789.664	24.17
789.841	21.42
790.019	26.26
790.196	31.18
790.373	25.12
790.551	27.64
790.728	26.5
790.906	26.57
791.083	29.08
791.26	25.05
791.437	30.07
791.615	29.42
791.792	34.73
791.969	31.5
792.146	28.02
792.324	31.05
792.501	30.18
792.678	36.25
792.855	27.26
793.032	28.43
793.209	31.25
793.387	24.83
793.564	27.37
793.741	28.98
793.918	30.43
794.095	30
794.272	30.48
794.449	34.46
794.626	32.65
794.803	40.63
794.98	40.13
795.157	40.2
795.334	39.15
795.511	37.68
795.688	36.25
795.864	35.93
796.041	37.31
796.218	32.84
796.395	30.93
796.572	26.51
796.749	25.94
796.925	27.78
797.102	19.81
797.279	29.9
797.456	32.38
797.632	28.32
797.809	27.2
797.986	20.86
798.162	18.64
798.339	10.49
798.516	22.2
798.692	19.74
798.869	6.99
799.046	19.19
799.222	12.48
799.399	4.51
799.575	22.97
799.752	30.95
799.928	35.24
800.105	34.37
800.281	35.3
800.458	35.96
800.634	30.31
800.811	30.31
800.987	27.1
801.163	25.65
801.34	29.47
801.516	25.42
801.692	19.93
801.869	27.86
802.045	33.96
802.221	36.56
802.398	34.92
802.574	41.58
802.75	54.47
802.926	57.18
803.103	66.06
803.279	71.85
803.455	71.52
803.631	64.35
803.807	64.31
803.983	64.56
804.16	65
804.336	63.77
804.512	62
804.688	49.03
804.864	48.55
805.04	41.76
805.216	48.32
805.392	48.3
805.568	51.26
805.744	50.6
805.92	61.62
806.096	63.57
806.272	63.99
806.448	57.18
806.623	59.46
806.799	57.26
806.975	66.26
807.151	60.06
807.327	61.64
807.503	56.43
807.678	56.34
807.854	54.91
808.03	51.83
808.206	53.88
808.381	65.18
808.557	60.59
808.733	65.72
808.908	57.82
809.084	60.35
809.26	59.89
809.435	59.81
809.611	59.18
809.787	57.2
809.962	57.25
810.138	60.95
810.313	70.35
810.489	81.28
810.664	77.49
810.84	69.86
811.015	74.3
811.191	65.82
811.366	68.52
811.542	63.81
811.717	61.03
811.892	61.59
812.068	50.59
812.243	20.09
812.419	-13.29
812.594	5.17
812.769	27.14
812.944	34.29
813.12	30.37
813.295	30.99
813.47	28.21
813.645	29.58
813.821	37.27
813.996	32.27
814.171	40.45
814.346	45.17
814.521	46.62
814.697	39.3
814.872	31.86
815.047	43.07
815.222	45.16
815.397	47.3
815.572	44.87
815.747	38.52
815.922	37.29
816.097	26.61
816.272	32.32
816.447	23.47
816.622	27.89
816.797	25.72
816.972	19.15
817.147	15.51
817.322	23.33
817.496	19.73
817.671	27.51
817.846	35.55
818.021	44.95
818.196	41.92
818.371	48.02
818.545	47.35
818.72	51.45
818.895	53.56
819.069	51.5
819.244	47
819.419	46.88
819.594	39.43
819.768	36.03
819.943	27.63
820.117	26.47
820.292	23.81
820.467	22.46
820.641	20.62
820.816	18.15
820.99	18.79
821.165	18.62
821.339	17.06
821.514	17.96
821.688	18.62
821.863	20.91
822.037	21.25
822.212	21.27
822.386	21.47
822.56	22.94
822.735	24.84
822.909	28.46
823.084	29.87
823.258	32.88
823.432	30.62
823.606	27.3
823.781	27.04
823.955	27.78
824.129	31.87
824.303	28.63
824.478	25.58
824.652	21.04
824.826	11.06
825	10.68
825.174	10.14
825.348	15.16
825.523	16.91
825.697	17.15
825.871	16.61
826.045	15.49
826.219	18.42
826.393	18.97
826.567	20.5
826.741	24.39
826.915	26.39
827.089	25.64
827.263	25.61
827.437	26.61
827.611	29.48
827.784	25.87
827.958	20.44
828.132	19.8
828.306	25.53
828.48	25.66
828.654	26.63
828.827	24.49
829.001	31.17
829.175	31.56
829.349	32.61
829.522	21.35
829.696	34.57
829.87	47.15
830.044	45.36
830.217	24.09
830.391	27.73
830.565	30.18
830.738	38.68
830.912	31.23
831.085	39.56
831.259	38.26
831.432	32.46
831.606	35.79
831.779	34.34
831.953	30.85
832.126	32.85
832.3	33.27
832.473	35.29
832.647	27.18
832.82	26.2
832.994	21.56
833.167	23.9
833.34	28.38
833.514	27.97
833.687	26.56
833.86	28.6
834.034	31.58
834.207	28.31
834.38	27.63
834.553	33.98
834.727	43.81
834.9	42.75
835.073	28.86
835.246	31.17
835.419	11.78
835.593	10.66
835.766	34.52
835.939	49.6
836.112	61.5
836.285	67.44
836.458	82.41
836.631	51.49
836.804	82.86
836.977	96.68
837.15	71.83
837.323	73.41
837.496	60.2
837.669	52.34
837.842	46.07
838.015	43.17
838.188	23.38
838.361	12.57
838.533	10.05
838.706	13.92
838.879	11.15
839.052	16.73
839.225	10.94
839.398	13.6
839.57	16.59
839.743	18.64
839.916	28.29
840.088	30.96
840.261	38.58
840.434	38.51
840.607	25.99
840.779	23.35
840.952	13.74
841.124	31.78
841.297	14.64
841.47	47.5
841.642	27.52
841.815	-25.22
841.987	-12.13
842.16	-507.84
842.332	-361.76
842.505	348.08
842.677	140.28
842.85	-47.06
843.022	160
843.194	141.94
843.367	90.55
843.539	100
843.712	54.62
843.884	-23.69
844.056	-79.73
844.229	-94.29
844.401	-458.41
844.573	-737.35
844.745	659.77
844.918	311.9
845.09	196.69
845.262	137.84
845.434	147.13
845.606	124.33
845.779	103.4
845.951	90.7
846.123	81.08
846.295	72.51
846.467	73.25
846.639	86.12
846.811	102.3
846.983	138.81
847.155	160.58
847.327	216.34
847.499	302.86
847.671	219.25
847.843	-947.37
848.015	-561.29
848.187	477.59
848.359	1641.67
848.531	176.15
848.703	91.41
848.875	68.36
849.047	94.39
849.218	143.48
849.39	201.92
849.562	-1640
849.734	113.43
849.905	713.33
850.077	109.72
850.249	50
850.421	71.57
850.592	14.34
850.764	-9.51
850.936	-88.6
851.107	-118.26
851.279	-176.47
851.451	-118.62
851.622	-3.27
851.794	-8.76
851.965	-24.27
852.137	-100.78
852.308	-76.59
852.48	29.45
852.651	76.67
852.823	165.24
852.994	129.7
853.166	156.54
853.337	167.58
853.509	301.51
853.68	511.81
853.851	-2314.29
854.023	599.17
854.194	538.05
854.365	-17250
854.537	-3209.09
854.708	1309.52
854.879	280.85
855.05	52.35
855.222	25.29
855.393	-18.56
855.564	15.81
855.735	32.13
855.906	36.78
856.078	48.47
856.249	65.68
856.42	53.3
856.591	55.46
856.762	60.5
856.933	84.94
857.104	124.06
857.275	47.63
857.446	67.03
857.617	101.08
857.788	113.79
857.959	50
858.13	203.57
858.301	71.07
858.472	192.65
858.643	153.06
858.814	60.36
858.985	72.73
859.155	138.52
859.326	96.19
859.497	60.2
859.668	83.73
859.839	98.37
860.009	87.71
860.18	119.01
860.351	88.66
860.522	60.65
860.692	83.41
860.863	78.85
861.034	88.03
861.204	105.62
861.375	94.81
861.546	87.2
861.716	93.76
861.887	81.3
862.057	84.53
862.228	72.9
862.398	114.55
862.569	124.45
862.739	174.14
862.91	145.71
863.08	247.44
863.251	382.52
863.421	360.91
863.592	271.68
863.762	-336.25
863.932	-729.03
864.103	-2629.17
864.273	-429.29
864.443	1745.45
864.614	522.15
864.784	2015.38
864.954	3695.45
865.125	-2066.67
865.295	-4611.11
865.465	1350
865.635	348.03
865.805	309.01
865.976	286.03
866.146	140.04
866.316	151.7
866.486	126.76
866.656	110.7
866.826	96.16
866.996	108.06
867.166	88.96
867.336	68.4
867.506	78.65
867.676	64.16
867.846	45.51
868.016	28.88
868.186	-21.66
868.356	-54.4
868.526	-45
868.696	13.92
868.866	41.43
869.036	45.55
869.206	-1005.88
869.376	-2060
869.545	490
869.715	246.88
869.885	-532.39
870.055	-646.58
870.224	359.84
870.394	625.49
870.564	-456.34
870.734	453.91
870.903	446.9
871.073	158.65
871.243	250
871.412	261.92
871.582	154.18
871.751	122.07
871.921	140.74
872.091	211.43
872.26	154.05
872.43	99.19
872.599	105.37
872.769	108.4
872.938	116.8
873.108	99.5
873.277	82.74
873.446	110.38
873.616	90.84
873.785	88.49
873.955	84.69
874.124	84.49
874.293	84.6
874.463	55.43
874.632	43.75
874.801	37.26
874.971	43.98
875.14	108.92
875.309	199.46
875.478	161.03
875.647	89.18
875.817	117.57
875.986	83.88
876.155	97.1
876.324	131.19
876.493	159.26
876.662	134.24
876.831	119.28
877	107.01
877.17	78.84
877.339	75.54
877.508	111
877.677	90.35
877.846	117.63
878.015	100.78
878.184	79.08
878.352	72.29
878.521	62.39
878.69	86.87
878.859	76.47
879.028	98.72
879.197	91.03
879.366	53.06
879.534	57.54
879.703	52.74
879.872	54.63
880.041	51.64
880.21	51.78
880.378	50.71
880.547	46.2
880.716	47.67
880.884	46.81
881.053	44.36
881.222	49.35
881.39	49.98
881.559	49.25
881.727	46.72
881.896	41.75
882.065	33.62
882.233	32.78
882.402	36
882.57	35.38
882.739	43.11
882.907	43.47
883.076	41.87
883.244	42.4
883.412	48.46
883.581	58.81
883.749	72.16
883.918	78.13
884.086	91.16
884.254	80.42
884.423	88.22
884.591	85.24
884.759	83.6
884.927	79.02
885.096	81.81
885.264	86.18
885.432	87.17
885.6	82.9
885.769	87.75
885.937	100.15
886.105	131.87
886.273	93.83
886.441	44.3
886.609	18.55
886.777	84.24
886.945	75.45
887.113	69.38
887.281	55.92
887.449	38.67
887.617	48.72
887.785	63.7
887.953	53
888.121	23.64
888.289	61.09
888.457	90.14
888.625	71.56
888.793	74.33
888.961	101.82
889.129	68.99
889.296	108.95
889.464	188.71
889.632	-38.16
889.8	-53.85
889.967	202.06
890.135	75
