Data from JASIL_3051_Reflection_02.txt Node
Date: Mon Nov 09 11:20:18 EST 2015
User: Geneva
Spectrometer: USB4E03002
Autoset integration time: false
Trigger mode: 4
Integration Time (sec): 1.000000E-1
Scans to average: 10
Electric dark correction enabled: false
Nonlinearity correction enabled: false
Boxcar width: 5
Stray light correction enabled: false
XAxis mode: Wavelengths
Stop averaging: false
Number of Pixels in Spectrum: 3648
>>>>>Begin Spectral Data<<<<<
177.575	144.7
177.794	2444.44
178.014	-23300
178.233	-460.38
178.452	-270.13
178.672	-1623.53
178.891	533.33
179.11	223.29
179.33	110.94
179.549	-53.85
179.768	-184.37
179.987	38.41
180.207	971.43
180.426	50
180.645	55.17
180.864	104.14
181.084	127.21
181.303	-12500
181.522	-72.12
181.741	-115.79
181.96	-39.51
182.179	-13.95
182.398	-26.02
182.618	6.19
182.837	1.53
183.056	27.77
183.275	36.16
183.494	72.8
183.713	50.25
183.932	99.45
184.151	104.68
184.37	166.16
184.589	-252.54
184.808	-120
185.027	-230.34
185.246	-329.21
185.465	-269.16
185.684	619.12
185.903	442.42
186.122	205.71
186.341	242.64
186.56	195.68
186.779	158.47
186.998	136.48
187.216	112.22
187.435	132.05
187.654	102.04
187.873	85.93
188.092	119.39
188.311	141.58
188.53	181.95
188.748	109.31
188.967	79.35
189.186	76.2
189.405	51.4
189.623	24.31
189.842	-21.04
190.061	7.06
190.28	-25.33
190.498	-74.59
190.717	-71.9
190.936	-62
191.154	-53.98
191.373	-233.33
191.592	-15400
191.81	997.5
192.029	630.77
192.248	-458.24
192.466	-1097.56
192.685	993.18
192.904	-1294.74
193.122	-407.27
193.341	-272.88
193.559	731.58
193.778	25
193.996	-1320
194.215	122.76
194.433	485.71
194.652	457.14
194.87	197.59
195.089	-59.77
195.307	-312.9
195.526	100
195.744	76.14
195.963	-2200
196.181	-206.33
196.399	-144.23
196.618	-265.91
196.836	-116.38
197.055	-45.13
197.273	-129.21
197.491	-191.28
197.71	-229.19
197.928	-233.04
198.146	-87.71
198.365	-31.28
198.583	7.3
198.801	-98.28
199.019	52.45
199.238	32.49
199.456	37.39
199.674	41.52
199.892	81.55
200.111	92.86
200.329	-17.55
200.547	-414.89
200.765	-358.33
200.983	422.08
201.202	-522.92
201.42	630.19
201.638	182.81
201.856	117.48
202.074	74.51
202.292	85.95
202.51	84.62
202.728	93.51
202.946	123.23
203.165	88.32
203.383	136.67
203.601	50.89
203.819	155
204.037	166.67
204.255	134.64
204.473	337.35
204.691	770.73
204.909	-1346.88
205.127	563.79
205.345	77.94
205.562	126.87
205.78	470.37
205.998	-1157.89
206.216	-265.85
206.434	57.94
206.652	-15.13
206.87	-40.62
207.088	-58.33
207.306	279.17
207.523	72.89
207.741	33.41
207.959	22.82
208.177	9.36
208.395	-146.15
208.612	80
208.83	201.41
209.048	221.55
209.266	211.9
209.483	244.26
209.701	-285.29
209.919	197.99
210.136	154.55
210.354	362.03
210.572	220.95
210.79	260.53
211.007	-129.27
211.225	300
211.442	119.25
211.66	65.15
211.878	98.24
212.095	501.35
212.313	1328.77
212.53	625
212.748	631.62
212.966	847.17
213.183	-614.17
213.401	2316.22
213.618	-481.62
213.836	-191.62
214.053	-151.1
214.271	-164.38
214.488	133.02
214.705	90.48
214.923	55.06
215.14	21.08
215.358	26.04
215.575	35.15
215.793	37.07
216.01	16.95
216.227	32.37
216.445	5.4
216.662	-89.16
216.879	-278.23
217.097	-214.12
217.314	-202.87
217.531	644
217.749	325.93
217.966	174.81
218.183	282.63
218.4	915.49
218.618	-20633.33
218.835	-563.29
219.052	-1000
219.269	-680.33
219.487	-183.08
219.704	-445.63
219.921	-401.79
220.138	532.53
220.355	-3937.5
220.572	-3166.67
220.79	48.19
221.007	37.31
221.224	115.33
221.441	74.67
221.658	36.23
221.875	0.36
222.092	10.13
222.309	89.66
222.526	1377.78
222.743	63.64
222.96	121.74
223.177	-356.25
223.394	-496.15
223.611	215.12
223.828	269.66
224.045	346.32
224.262	455
224.479	-628.3
224.696	2531.58
224.913	-84.43
225.13	-68.18
225.347	18.42
225.564	22.68
225.781	21.43
225.997	13.61
226.214	17.2
226.431	13.83
226.648	17.59
226.865	5.24
227.082	-2.16
227.298	-1.41
227.515	-3.7
227.732	-18.21
227.949	-15.17
228.165	-10.93
228.382	-8.57
228.599	-9.43
228.816	-5.03
229.032	-6.59
229.249	-2.49
229.466	3.64
229.682	-3.25
229.899	-1.95
230.116	-1.66
230.332	-1.81
230.549	-52.59
230.765	-45.6
230.982	-43.54
231.199	-53.16
231.415	-59.11
231.632	-93.17
231.848	-58.33
232.065	-25.77
232.281	-37.07
232.498	-23.58
232.714	-28.13
232.931	-3.11
233.147	-12.71
233.364	-9.61
233.58	-6.31
233.797	3.64
234.013	-8.74
234.23	-7.26
234.446	-19.82
234.662	-0.95
234.879	-1.24
235.095	-5.94
235.312	11.36
235.528	3.94
235.744	-2.02
235.961	-16.49
236.177	-52.57
236.393	-19.68
236.61	-9.64
236.826	-3.7
237.042	-12.06
237.258	-2.35
237.475	7.37
237.691	-9.83
237.907	-15.37
238.123	-4.77
238.339	10.91
238.556	25.27
238.772	20.66
238.988	11.27
239.204	11.81
239.42	5.29
239.636	-7.69
239.853	-7.34
240.069	-6.37
240.285	1.68
240.501	-4.6
240.717	-9.25
240.933	-18.34
241.149	-21.74
241.365	-22.32
241.581	-21.87
241.797	-18.7
242.013	-16.41
242.229	-12.45
242.445	-9.49
242.661	-15.81
242.877	-5.74
243.093	-7.06
243.309	-4.61
243.525	0.88
243.741	0.36
243.957	4.37
244.173	2.63
244.388	4.49
244.604	3.12
244.82	1.09
245.036	0.57
245.252	-2.29
245.468	0.27
245.683	1.42
245.899	0.75
246.115	1.69
246.331	-0.63
246.547	-1.66
246.762	-1.34
246.978	-0.84
247.194	-0.5
247.409	2.32
247.625	2.83
247.841	-1.25
248.057	-2.17
248.272	-3.61
248.488	-5.52
248.703	-3.31
248.919	-6.22
249.135	-15.32
249.35	-25.31
249.566	-24.37
249.782	-33.93
249.997	-24.28
250.213	-18.63
250.428	-15.42
250.644	-8.26
250.859	-5.49
251.075	-7.73
251.29	-2.3
251.506	2.98
251.721	4.72
251.937	4.18
252.152	9.31
252.368	0.16
252.583	2.32
252.798	-3.86
253.014	-4
253.229	7.22
253.445	8.27
253.66	7.87
253.875	12.24
254.091	3.33
254.306	-1.64
254.521	-10.46
254.737	-1.09
254.952	-4.54
255.167	7.18
255.383	-3.43
255.598	-17.29
255.813	-17.72
256.028	-19.9
256.244	-19.26
256.459	-6.29
256.674	3.55
256.889	4.09
257.104	4.91
257.32	6.33
257.535	2.34
257.75	4.21
257.965	4.05
258.18	4.93
258.395	5.72
258.61	7.21
258.826	5.92
259.041	4.17
259.256	3.42
259.471	3.06
259.686	3.89
259.901	5.1
260.116	6.26
260.331	6.53
260.546	3.21
260.761	3.01
260.976	-1.21
261.191	-7.08
261.406	-6.99
261.621	-2.89
261.836	-4.3
262.05	-3.86
262.265	-8.59
262.48	-10.75
262.695	-11.88
262.91	-8.96
263.125	-11.36
263.34	-12.57
263.555	-1.02
263.769	-5.44
263.984	-10.84
264.199	-12.96
264.414	-19.85
264.629	-17.67
264.843	-18.07
265.058	-11.87
265.273	-9.46
265.488	-6.38
265.702	-7.08
265.917	-11.05
266.132	-6.98
266.346	-5.05
266.561	-0.89
266.776	2.27
266.99	3.99
267.205	1.24
267.42	-0.1
267.634	-0.66
267.849	-1.43
268.063	-1.01
268.278	2.52
268.492	1.79
268.707	-0.75
268.922	-1.43
269.136	-0.86
269.351	-0
269.565	0.63
269.78	-0.96
269.994	-2.13
270.209	0.22
270.423	0.02
270.637	-1.82
270.852	-3.28
271.066	-3.88
271.281	-4.47
271.495	-5.1
271.709	-8.87
271.924	-6.92
272.138	-6.97
272.353	-7.28
272.567	-14.21
272.781	-12.5
272.996	-10.03
273.21	-10.96
273.424	-7.34
273.638	-9.37
273.853	-13.47
274.067	-9.77
274.281	-6.61
274.495	-2.69
274.71	0.05
274.924	7.98
275.138	7.37
275.352	4.76
275.566	6.85
275.781	3.55
275.995	3.54
276.209	6.56
276.423	8.08
276.637	8.1
276.851	4.36
277.065	5.47
277.279	1.39
277.493	2.21
277.707	-0.25
277.921	-2.73
278.135	-4.38
278.349	-5.71
278.563	-7.37
278.777	-5.58
278.991	-7.07
279.205	-10.4
279.419	-13.75
279.633	-11.94
279.847	-13.96
280.061	-8.94
280.275	-7.98
280.489	-4.19
280.703	-2.99
280.917	-1.71
281.131	-3.73
281.344	-3.84
281.558	-2.41
281.772	-2.36
281.986	-3.45
282.2	-0.26
282.414	-3.11
282.627	-5.21
282.841	-8.25
283.055	-6.06
283.269	-7.21
283.482	-7.73
283.696	-9.81
283.91	-8.19
284.123	-7.98
284.337	-7.65
284.551	-8.88
284.764	-9.96
284.978	-8.35
285.192	-4.36
285.405	-5.65
285.619	-3.81
285.833	-6.32
286.046	-3.27
286.26	-2.06
286.473	-1.55
286.687	-1.81
286.9	-4.4
287.114	-2.61
287.327	-3.02
287.541	-3.04
287.754	-6.42
287.968	-5.92
288.181	-1.81
288.395	-3.59
288.608	-5.1
288.822	-4.31
289.035	-1.85
289.248	-1.31
289.462	1.09
289.675	0.44
289.889	-2.35
290.102	-0.63
290.315	-1.04
290.529	-0.17
290.742	-0.63
290.955	0.3
291.169	-3.35
291.382	-4.68
291.595	-3.47
291.808	-4.37
292.022	-2.59
292.235	-1.89
292.448	-0.42
292.661	0.37
292.875	-3.24
293.088	-2.67
293.301	-3.56
293.514	1.43
293.727	1.08
293.94	3.94
294.153	0.88
294.367	1.98
294.58	1.93
294.793	2.02
295.006	2.06
295.219	3.34
295.432	3.8
295.645	5.28
295.858	3.78
296.071	4.03
296.284	3.06
296.497	5.02
296.71	4.61
296.923	6.74
297.136	5.16
297.349	4.01
297.562	4.33
297.775	2.2
297.988	0.17
298.201	1.05
298.414	-0.72
298.626	-3.2
298.839	-4.91
299.052	-2.97
299.265	-5.24
299.478	-4.43
299.691	-4.76
299.903	-5.2
300.116	-2.07
300.329	-2.57
300.542	-4.54
300.755	-4.23
300.967	-2.33
301.18	-0.15
301.393	-2.85
301.605	-2.82
301.818	-1.09
302.031	-2.67
302.243	-0.74
302.456	-1.82
302.669	-0.2
302.881	-1
303.094	-0.6
303.307	0.12
303.519	-1.88
303.732	-2.64
303.944	-1.87
304.157	-2.21
304.37	0.64
304.582	-1.56
304.795	-1.71
305.007	-1.5
305.22	-1.92
305.432	-1.64
305.645	-4.73
305.857	-8.83
306.069	-4.72
306.282	-6.14
306.494	-4.62
306.707	-4.87
306.919	-2.71
307.132	-3.82
307.344	0.97
307.556	2.28
307.769	1.88
307.981	3.73
308.193	8.08
308.406	4.62
308.618	7.6
308.83	6.36
309.043	4.84
309.255	5.62
309.467	9.3
309.679	3.82
309.892	5.42
310.104	6.31
310.316	5.18
310.528	6.38
310.74	9.58
310.953	7.86
311.165	7.8
311.377	9.43
311.589	7.32
311.801	5.65
312.013	4.05
312.225	4.61
312.437	3.08
312.649	2.82
312.862	-1.68
313.074	-2.94
313.286	-3.94
313.498	-1.68
313.71	2.15
313.922	2.41
314.134	2.19
314.346	3.58
314.558	0.11
314.77	-1.11
314.982	0
315.193	5.05
315.405	4.84
315.617	5.99
315.829	6.47
316.041	3.43
316.253	6.87
316.465	3.93
316.677	6.96
316.888	8.61
317.1	9.19
317.312	10.27
317.524	9.82
317.736	10.04
317.947	9.03
318.159	8.46
318.371	5.21
318.583	2.84
318.794	3.95
319.006	3.7
319.218	5.22
319.43	4.1
319.641	1.05
319.853	-1.02
320.064	-2.95
320.276	-3.59
320.488	-8.52
320.699	-9.03
320.911	-11.55
321.123	-9.22
321.334	-13.87
321.546	-14.46
321.757	-15.14
321.969	-16.58
322.18	-14.69
322.392	-11.32
322.603	-11.8
322.815	-10.2
323.026	-7.78
323.238	-6.48
323.449	-4.4
323.661	-0.77
323.872	-1.32
324.083	1.23
324.295	3.5
324.506	3.73
324.718	2.27
324.929	4.14
325.14	5.56
325.352	5.22
325.563	4
325.774	1.88
325.986	0.63
326.197	0.33
326.408	-0.35
326.62	-0.57
326.831	-1.4
327.042	-0.24
327.253	-4.35
327.464	-5.57
327.676	-5.21
327.887	-0.28
328.098	-2.63
328.309	-3.4
328.52	-2.06
328.732	1.44
328.943	5.37
329.154	4.85
329.365	1.95
329.576	3.47
329.787	6.28
329.998	10.59
330.209	8.47
330.42	7.95
330.631	6.63
330.842	6.12
331.053	0.54
331.264	-3.13
331.475	-4.27
331.686	-0.53
331.897	3.68
332.108	3.14
332.319	-1.62
332.53	-4.94
332.741	-3.12
332.952	-1.76
333.163	-2.12
333.374	1.67
333.585	3.61
333.795	4.04
334.006	3.42
334.217	0.73
334.428	0.59
334.639	1.14
334.849	2.92
335.06	4.04
335.271	2
335.482	2.28
335.692	1.19
335.903	0.5
336.114	-0.96
336.325	0.79
336.535	3.5
336.746	4.19
336.957	6.65
337.167	5.73
337.378	7.06
337.589	8.51
337.799	7.88
338.01	9.39
338.22	7.38
338.431	7.48
338.642	6.21
338.852	4.95
339.063	8.6
339.273	5.15
339.484	6.05
339.694	6.9
339.905	7.76
340.115	7.7
340.326	7
340.536	9.29
340.746	9.95
340.957	6.7
341.167	7.21
341.378	2.91
341.588	5.68
341.799	4.81
342.009	1.56
342.219	2.71
342.43	4.58
342.64	4.44
342.85	2.28
343.061	-0.12
343.271	4.21
343.481	5.15
343.691	6.12
343.902	5.46
344.112	8.44
344.322	10.49
344.532	8.37
344.743	7.62
344.953	7.54
345.163	7.2
345.373	9.19
345.583	9.07
345.793	7.97
346.004	4.96
346.214	4.61
346.424	0.05
346.634	-3.19
346.844	-0.7
347.054	-1.4
347.264	-0.51
347.474	3.94
347.684	4.73
347.894	3.16
348.104	3.03
348.314	2.83
348.524	0.63
348.734	4.01
348.944	6.04
349.154	6.09
349.364	4.4
349.574	3.34
349.784	1.95
349.994	4.73
350.204	3.94
350.413	4.21
350.623	7.94
350.833	9.11
351.043	9.04
351.253	9.89
351.463	8.37
351.672	10.85
351.882	11.52
352.092	10.06
352.302	7.48
352.511	8.59
352.721	6.46
352.931	5.01
353.141	6.52
353.35	3.79
353.56	1.22
353.77	1.01
353.979	1.75
354.189	-0.08
354.399	-2.55
354.608	-2.77
354.818	-3.44
355.027	-1.12
355.237	-0.18
355.447	-0.28
355.656	1.18
355.866	2.94
356.075	5.25
356.285	5.63
356.494	8.04
356.704	9.89
356.913	10.64
357.123	10.24
357.332	11.06
357.542	11.73
357.751	12.33
357.96	13.05
358.17	12.1
358.379	10.13
358.589	7.35
358.798	5.3
359.007	4.32
359.217	3.24
359.426	3.51
359.635	3.04
359.845	2.17
360.054	2.82
360.263	3.02
360.472	4.5
360.682	5.69
360.891	6.7
361.1	8.34
361.309	10.51
361.519	11.33
361.728	11.73
361.937	11.71
362.146	13.11
362.355	10.92
362.564	11.04
362.774	10.7
362.983	10.8
363.192	10.71
363.401	8.77
363.61	7.41
363.819	6.87
364.028	8.21
364.237	7.99
364.446	5.8
364.655	7.78
364.864	7.45
365.073	6.8
365.282	6.27
365.491	5.06
365.7	5.59
365.909	6.07
366.118	6.4
366.327	3.12
366.536	2.46
366.745	4.87
366.954	3.87
367.162	4.78
367.371	5.79
367.58	6.3
367.789	8.56
367.998	9.05
368.207	9.51
368.415	8.79
368.624	11.1
368.833	11.11
369.042	11.08
369.25	12.39
369.459	10.32
369.668	9.14
369.877	7.65
370.085	7.59
370.294	6.57
370.503	5.86
370.711	7.16
370.92	5.7
371.129	7.67
371.337	5.7
371.546	4.37
371.754	5.97
371.963	5.84
372.171	6.21
372.38	5.67
372.589	4.11
372.797	3.7
373.006	4.22
373.214	4.84
373.423	3.21
373.631	4.14
373.84	3.29
374.048	3.4
374.256	3.81
374.465	4.74
374.673	4.89
374.882	6.66
375.09	5.61
375.298	4.61
375.507	5.88
375.715	5.74
375.923	5.31
376.132	6.49
376.34	5.87
376.548	5.94
376.757	5.58
376.965	5.57
377.173	5.18
377.381	5.59
377.59	5.72
377.798	5.32
378.006	4.4
378.214	5.31
378.423	5
378.631	3.8
378.839	3.23
379.047	3.99
379.255	5.03
379.463	6.87
379.671	6.89
379.879	7.36
380.088	8.03
380.296	8.34
380.504	8.16
380.712	8.54
380.92	8.99
381.128	9.9
381.336	8.32
381.544	7.76
381.752	8.65
381.96	10.49
382.168	9.15
382.376	8.99
382.584	8.88
382.791	9.01
382.999	7.92
383.207	6.81
383.415	6.24
383.623	6.4
383.831	5.55
384.039	4.8
384.247	4.06
384.454	4.99
384.662	4.14
384.87	4.61
385.078	3.76
385.285	4.6
385.493	7.32
385.701	8.5
385.909	8.14
386.116	8.14
386.324	6.41
386.532	5.14
386.739	3.63
386.947	3.28
387.155	3.29
387.362	3.29
387.57	5.03
387.778	5.26
387.985	4.37
388.193	4.91
388.4	5.13
388.608	5.44
388.816	5.13
389.023	5.51
389.231	6.07
389.438	5.15
389.646	5.67
389.853	3.9
390.061	3.29
390.268	3.3
390.475	3.74
390.683	3.58
390.89	3.8
391.098	4.68
391.305	4.49
391.512	3.88
391.72	5.17
391.927	3.27
392.135	3.03
392.342	1.98
392.549	1.13
392.756	0.78
392.964	-0.16
393.171	-1.2
393.378	-2.07
393.586	-1.98
393.793	-1.4
394	-2.16
394.207	-0.56
394.414	-0.46
394.622	0.16
394.829	0.31
395.036	-0.5
395.243	1.14
395.45	1.24
395.657	1.3
395.864	2.73
396.072	2.74
396.279	2.01
396.486	2.24
396.693	2.56
396.9	3.35
397.107	3.57
397.314	3.95
397.521	4.96
397.728	6.47
397.935	6.8
398.142	6.74
398.349	7.64
398.556	8.29
398.763	8.4
398.97	8.17
399.177	6.75
399.383	6.53
399.59	6.65
399.797	5.08
400.004	4.52
400.211	5.03
400.418	4.31
400.625	3.68
400.831	4.29
401.038	4.62
401.245	3.52
401.452	5.09
401.658	5.18
401.865	6.66
402.072	6.86
402.279	6.41
402.485	7.22
402.692	7.4
402.899	7.08
403.105	5.82
403.312	5.84
403.519	7.16
403.725	7
403.932	6.75
404.138	5.58
404.345	5.18
404.552	4.39
404.758	3.54
404.965	4.25
405.171	3.89
405.378	4.43
405.584	4.64
405.791	3.67
405.997	3.98
406.204	3.82
406.41	4.99
406.617	4.97
406.823	6.06
407.029	5.62
407.236	5.24
407.442	5.5
407.649	6.9
407.855	5.62
408.061	6
408.268	5.29
408.474	6.81
408.68	6.91
408.887	7.09
409.093	6.91
409.299	6.65
409.505	6.1
409.712	6.8
409.918	5.8
410.124	6.55
410.33	6.68
410.537	6.86
410.743	6.79
410.949	5.76
411.155	6.53
411.361	5.61
411.567	6.45
411.773	5.76
411.98	5.43
412.186	6.29
412.392	6.38
412.598	6.53
412.804	6.57
413.01	5.21
413.216	4.58
413.422	4.33
413.628	6.04
413.834	6.4
414.04	7.06
414.246	5.54
414.452	3.9
414.658	3.14
414.864	3.35
415.07	2.73
415.275	3.7
415.481	4.2
415.687	3.49
415.893	2.85
416.099	2.96
416.305	2.88
416.511	3.52
416.716	4.03
416.922	5.32
417.128	4.93
417.334	5.14
417.539	4.73
417.745	4.54
417.951	4.86
418.157	4.98
418.362	5.03
418.568	5.45
418.774	5.77
418.979	6.22
419.185	5.25
419.391	5.09
419.596	4.93
419.802	5.17
420.008	5.74
420.213	1.74
420.419	1.88
420.624	1.74
420.83	1.11
421.035	1.29
421.241	0.83
421.446	1.26
421.652	1.76
421.857	1.66
422.063	1.35
422.268	1.12
422.474	5.13
422.679	4.92
422.885	4.9
423.09	5.13
423.295	5.04
423.501	5.42
423.706	5.39
423.911	5.05
424.117	5.52
424.322	6.41
424.527	6.56
424.733	6.86
424.938	6.95
425.143	7.04
425.349	7.45
425.554	6.86
425.759	6.68
425.964	6.14
426.169	6.95
426.375	7.11
426.58	6.53
426.785	6
426.99	5.4
427.195	5.51
427.4	4.43
427.605	4.48
427.811	4.7
428.016	4.76
428.221	4.82
428.426	4.69
428.631	3.69
428.836	3.56
429.041	3.46
429.246	3.39
429.451	3.38
429.656	4.11
429.861	3.92
430.066	4.59
430.271	4.86
430.476	5.06
430.681	4.16
430.886	4.56
431.09	4.84
431.295	5.67
431.5	6.06
431.705	6.44
431.91	6.48
432.115	6.19
432.32	5.82
432.524	5.18
432.729	5.42
432.934	5.82
433.139	5.69
433.343	5.31
433.548	4.56
433.753	4.84
433.958	4.13
434.162	4.51
434.367	4.7
434.572	5.39
434.776	5.73
434.981	5.45
435.186	5.34
435.39	5.57
435.595	5.31
435.799	6.11
436.004	5.61
436.209	5.87
436.413	5.88
436.618	6.68
436.822	6.47
437.027	6.33
437.231	6.11
437.436	5.97
437.64	6.16
437.845	6.08
438.049	5.23
438.253	4.8
438.458	4.71
438.662	4.4
438.867	3.47
439.071	3.26
439.275	3.16
439.48	3.38
439.684	3.01
439.888	2.61
440.093	3.15
440.297	3.83
440.501	4.28
440.706	3.81
440.91	3.51
441.114	3.57
441.318	3.8
441.523	4.19
441.727	4.53
441.931	4.78
442.135	5.07
442.339	4.73
442.543	3.96
442.748	3.69
442.952	3.95
443.156	4.54
443.36	4.67
443.564	4.36
443.768	4.01
443.972	3.92
444.176	4.44
444.38	4.22
444.584	4.25
444.788	4.19
444.992	5.02
445.196	5.53
445.4	4.89
445.604	4.76
445.808	4.74
446.012	4.6
446.216	4.44
446.42	4.24
446.624	4.47
446.828	4.23
447.032	4.71
447.235	4.03
447.439	3.47
447.643	4.37
447.847	4.68
448.051	4.48
448.254	5.36
448.458	6.02
448.662	5.54
448.866	5.52
449.069	6.2
449.273	5.91
449.477	6.46
449.681	6.83
449.884	6.39
450.088	6.13
450.292	6.33
450.495	5.69
450.699	4.24
450.902	4.4
451.106	4.68
451.31	4.66
451.513	4.92
451.717	4.61
451.92	4.8
452.124	4.7
452.327	4.53
452.531	4.53
452.734	4.19
452.938	5.19
453.141	5.84
453.345	5.82
453.548	4.89
453.752	5
453.955	4.86
454.158	4.35
454.362	4.49
454.565	5.09
454.769	5.22
454.972	5.58
455.175	5.29
455.379	4.8
455.582	5.06
455.785	5.53
455.988	4.82
456.192	4.83
456.395	4.95
456.598	4.44
456.801	4.34
457.005	4.87
457.208	5.21
457.411	4.71
457.614	4.46
457.817	4.21
458.021	4.17
458.224	4.57
458.427	4.36
458.63	4.29
458.833	4.24
459.036	4.41
459.239	4.09
459.442	3.76
459.645	4.53
459.848	5.23
460.051	5
460.254	4.87
460.457	5.17
460.66	5.57
460.863	5.59
461.066	6.08
461.269	6.38
461.472	6.48
461.675	6.94
461.878	6.41
462.081	5.97
462.284	6.04
462.486	6.5
462.689	6.47
462.892	6.26
463.095	5.78
463.298	5.4
463.5	4.83
463.703	5.63
463.906	5.48
464.109	5.46
464.311	5.17
464.514	5.52
464.717	5.12
464.92	4.81
465.122	4.84
465.325	5.79
465.528	6.07
465.73	6.11
465.933	4.9
466.135	4.85
466.338	4.91
466.541	4.86
466.743	4.84
466.946	4.32
467.148	4.49
467.351	5.37
467.553	4.71
467.756	3.94
467.958	3.39
468.161	3.73
468.363	2.98
468.566	3.51
468.768	4.18
468.971	4.27
469.173	5
469.375	4.81
469.578	3.72
469.78	4.68
469.983	6.06
470.185	5.47
470.387	5.55
470.59	6.75
470.792	6.22
470.994	5.53
471.196	5.96
471.399	5.94
471.601	5.65
471.803	6.1
472.005	5.88
472.208	5.37
472.41	6.1
472.612	6.33
472.814	5.68
473.016	6.08
473.218	6.48
473.421	5.88
473.623	5.57
473.825	5.99
474.027	5.63
474.229	5.59
474.431	5.63
474.633	6.05
474.835	5.47
475.037	6.27
475.239	6.35
475.441	5.86
475.643	5.79
475.845	6.05
476.047	6.45
476.249	7.04
476.451	7.45
476.653	7.51
476.855	6.62
477.057	6.67
477.258	6.14
477.46	6.57
477.662	7.11
477.864	7.62
478.066	7.74
478.268	6.96
478.469	6.6
478.671	6.15
478.873	5.95
479.075	6.6
479.276	6.66
479.478	6.72
479.68	6.15
479.882	6.12
480.083	5.53
480.285	5.65
480.487	5.61
480.688	5.54
480.89	5.45
481.091	5.45
481.293	5.57
481.495	5.62
481.696	5.65
481.898	5.66
482.099	5.46
482.301	5.44
482.502	5.61
482.704	5.56
482.905	5.5
483.107	5.47
483.308	5.61
483.51	5.51
483.711	5.51
483.913	5.45
484.114	5.43
484.315	5.38
484.517	5.6
484.718	5.55
484.92	5.62
485.121	5.69
485.322	5.68
485.524	5.42
485.725	5.42
485.926	5.54
486.127	5.44
486.329	5.45
486.53	5.81
486.731	5.79
486.932	5.53
487.134	5.71
487.335	5.63
487.536	5.92
487.737	6.19
487.938	6.11
488.139	6.2
488.341	6.44
488.542	6.65
488.743	6.45
488.944	6.43
489.145	6.63
489.346	6.33
489.547	6.63
489.748	6.44
489.949	6.4
490.15	6.59
490.351	6.69
490.552	6.35
490.753	6.17
490.954	6
491.155	5.93
491.356	5.56
491.557	6.07
491.758	5.78
491.959	5.6
492.159	5.4
492.36	5.17
492.561	4.74
492.762	4.68
492.963	4.11
493.164	4.43
493.364	4.15
493.565	4.61
493.766	4.16
493.967	4.53
494.167	4.4
494.368	4.96
494.569	5.54
494.769	5.9
494.97	6.23
495.171	6.73
495.371	6.95
495.572	6.68
495.773	6.5
495.973	6.78
496.174	6.91
496.375	7.31
496.575	6.97
496.776	6.66
496.976	6.8
497.177	6.76
497.377	7.35
497.578	7.35
497.778	7.8
497.979	8.28
498.179	8.2
498.38	7.91
498.58	8.05
498.78	8.01
498.981	7.84
499.181	7.49
499.382	7.89
499.582	7.13
499.782	6.91
499.983	7.59
500.183	7.2
500.383	7.25
500.584	7.22
500.784	6.87
500.984	7
501.184	7.22
501.385	7.26
501.585	7.94
501.785	8.33
501.985	8.12
502.185	7.18
502.386	7.44
502.586	6.64
502.786	6.86
502.986	6.8
503.186	6.68
503.386	6.75
503.586	6.75
503.786	5.59
503.987	5.62
504.187	5.71
504.387	6.04
504.587	6.09
504.787	6.54
504.987	6.95
505.187	7.28
505.387	7.67
505.587	7.6
505.786	7.78
505.986	7.9
506.186	7.8
506.386	7.57
506.586	8.16
506.786	7.94
506.986	7.43
507.186	6.86
507.386	7.06
507.585	6.85
507.785	6.77
507.985	6.64
508.185	6.68
508.384	6.58
508.584	7.16
508.784	6.87
508.984	6.8
509.183	7.63
509.383	7.69
509.583	7.69
509.782	7.76
509.982	8.01
510.182	8.02
510.381	8.24
510.581	8.89
510.781	8.82
510.98	8.91
511.18	9.44
511.379	9.62
511.579	9.48
511.778	9.46
511.978	9.71
512.177	9.94
512.377	10.37
512.576	10.66
512.776	10.05
512.975	10.39
513.175	10.27
513.374	10.27
513.573	10.17
513.773	10.64
513.972	10.62
514.172	10.57
514.371	9.9
514.57	9.89
514.77	10
514.969	10.44
515.168	10.35
515.367	10.25
515.567	10.52
515.766	10.23
515.965	9.9
516.164	10.12
516.364	9.78
516.563	10.74
516.762	10.21
516.961	10.15
517.16	10
517.359	9.96
517.559	10.43
517.758	10.2
517.957	10.18
518.156	10.64
518.355	10.72
518.554	11.06
518.753	10.52
518.952	11.17
519.151	10.96
519.35	10.75
519.549	10.57
519.748	10.44
519.947	10.18
520.146	10.99
520.345	11.03
520.544	11.27
520.743	11.36
520.942	11.96
521.141	11.93
521.339	12.36
521.538	12.23
521.737	12.7
521.936	12.27
522.135	12.69
522.333	12.2
522.532	12.04
522.731	12.1
522.93	12.23
523.129	11.96
523.327	11.97
523.526	12.12
523.725	12.45
523.923	12.22
524.122	12.19
524.321	12.04
524.519	12.22
524.718	11.99
524.917	11.6
525.115	11.75
525.314	11.87
525.512	11.96
525.711	12.07
525.909	12.26
526.108	12.3
526.306	12.53
526.505	12.59
526.703	12.84
526.902	12.9
527.1	12.94
527.299	12.82
527.497	12.7
527.696	12.6
527.894	12.6
528.092	12.56
528.291	12.45
528.489	12.56
528.688	12.7
528.886	12.52
529.084	12.62
529.283	12.72
529.481	12.6
529.679	12.93
529.877	12.89
530.076	12.82
530.274	12.95
530.472	13.64
530.67	13.36
530.869	13.1
531.067	12.87
531.265	12.9
531.463	12.86
531.661	13.19
531.859	13.05
532.057	13.19
532.255	13.11
532.454	13.19
532.652	12.94
532.85	13.11
533.048	13.55
533.246	13.92
533.444	14.1
533.642	14.23
533.84	14.28
534.038	14.33
534.236	14.32
534.434	14.33
534.632	14.27
534.83	14.66
535.027	15.15
535.225	14.97
535.423	15.01
535.621	15.05
535.819	15.25
536.017	15
536.215	14.99
536.412	15.38
536.61	15.39
536.808	15.3
537.006	14.8
537.203	14.31
537.401	14.32
537.599	14.33
537.797	14.37
537.994	13.86
538.192	14.08
538.39	14.35
538.587	13.95
538.785	14.14
538.983	14.4
539.18	14.7
539.378	14.97
539.575	14.98
539.773	14.93
539.97	14.98
540.168	15.16
540.366	15.26
540.563	15.09
540.761	15.22
540.958	15.32
541.155	15.51
541.353	15.49
541.55	15.47
541.748	15.56
541.945	15.64
542.143	15.54
542.34	15.5
542.537	15.74
542.735	16.33
542.932	16.6
543.129	16.69
543.327	16.64
543.524	16.68
543.721	16.91
543.919	16.77
544.116	16.48
544.313	16.81
544.51	16.94
544.708	16.84
544.905	16.55
545.102	16.33
545.299	16.53
545.496	16.86
545.693	17.32
545.891	17.25
546.088	17.37
546.285	18.08
546.482	18.19
546.679	18.6
546.876	18.84
547.073	19.24
547.27	19.06
547.467	19.17
547.664	18.98
547.861	18.65
548.058	18.54
548.255	18.93
548.452	18.65
548.649	18.82
548.846	18.79
549.043	18.77
549.24	18.99
549.437	19.86
549.633	19.81
549.83	19.51
550.027	19.03
550.224	19
550.421	19.06
550.618	19
550.814	19.17
551.011	18.69
551.208	18.55
551.405	17.75
551.601	17.97
551.798	18.34
551.995	18.72
552.191	19.26
552.388	19.82
552.585	19.96
552.781	20.25
552.978	19.73
553.175	20.31
553.371	20.23
553.568	20.75
553.764	20.5
553.961	20.3
554.157	20.35
554.354	20.62
554.55	20.34
554.747	20.34
554.943	20.56
555.14	20.42
555.336	20.46
555.533	20.6
555.729	20.74
555.926	21.56
556.122	20.92
556.318	20.89
556.515	20.78
556.711	21.11
556.907	21.1
557.104	20.22
557.3	21.07
557.496	21.39
557.693	20.97
557.889	20.41
558.085	19.29
558.281	20.35
558.478	20.38
558.674	20.37
558.87	19.99
559.066	20.64
559.262	20.98
559.459	21.3
559.655	21.82
559.851	22.36
560.047	23.35
560.243	23.98
560.439	23.31
560.635	23.19
560.831	23.05
561.027	23.58
561.223	22.8
561.419	22.69
561.615	21.62
561.811	20.9
562.007	21.1
562.203	20.22
562.399	20.54
562.595	20.94
562.791	21.76
562.987	22.59
563.183	22.37
563.379	22.57
563.575	22.82
563.771	23.48
563.966	23.96
564.162	23.72
564.358	23.86
564.554	23.57
564.75	22.97
564.945	22.71
565.141	21.38
565.337	21.7
565.533	21.93
565.728	22.04
565.924	21.84
566.12	21.41
566.315	22.1
566.511	21.71
566.707	21.46
566.902	21.53
567.098	21.75
567.293	22.21
567.489	21.26
567.684	21.04
567.88	21.21
568.076	21.2
568.271	20.89
568.467	20.26
568.662	21.47
568.858	21.36
569.053	21.57
569.248	21.44
569.444	21.59
569.639	22.19
569.835	21.9
570.03	22.13
570.225	22.17
570.421	22.51
570.616	22.85
570.812	22.9
571.007	23.75
571.202	23.78
571.397	23.23
571.593	23.61
571.788	23.53
571.983	23.59
572.178	23.19
572.374	23.24
572.569	23.58
572.764	23.75
572.959	22.95
573.154	23.2
573.35	23.66
573.545	24.11
573.74	24.48
573.935	25.12
574.13	25.39
574.325	25.85
574.52	26.06
574.715	25.98
574.91	25.33
575.105	25.68
575.3	25.21
575.495	24.87
575.69	25.04
575.885	24.75
576.08	24.51
576.275	24.43
576.47	23.67
576.665	23.52
576.86	23.63
577.055	24.31
577.25	24.93
577.444	25.25
577.639	26.37
577.834	26.95
578.029	26.65
578.224	26.56
578.418	26.78
578.613	27.74
578.808	28.11
579.003	28.76
579.197	28.26
579.392	27.7
579.587	26.88
579.781	25.89
579.976	25.72
580.171	26.36
580.365	27.33
580.56	27.81
580.755	27.88
580.949	28
581.144	27.49
581.338	27.54
581.533	27.85
581.727	28.06
581.922	28.96
582.116	28.04
582.311	27.3
582.505	25.93
582.7	26.04
582.894	26.16
583.089	26.08
583.283	26.76
583.478	26.77
583.672	26.03
583.866	25.77
584.061	25.45
584.255	26.08
584.449	26.47
584.644	27.06
584.838	26.26
585.032	26.11
585.226	26.38
585.421	26.52
585.615	25.94
585.809	26.45
586.003	26.68
586.198	26.19
586.392	25.63
586.586	26.26
586.78	25.64
586.974	25.95
587.168	25.77
587.363	24.95
587.557	24.13
587.751	24.5
587.945	23.31
588.139	23.17
588.333	23.74
588.527	24.18
588.721	23.21
588.915	24.41
589.109	23.92
589.303	23.98
589.497	24.43
589.691	24.33
589.885	24.94
590.079	26.76
590.273	26.18
590.466	25.55
590.66	25.72
590.854	26.16
591.048	25.36
591.242	26
591.436	26.11
591.629	26.71
591.823	26.2
592.017	25.71
592.211	25.47
592.404	26.21
592.598	26.08
592.792	26.3
592.986	26.29
593.179	27.23
593.373	26.99
593.567	26.53
593.76	26.18
593.954	26.47
594.147	26.94
594.341	26.8
594.535	27.18
594.728	27.54
594.922	27.03
595.115	27.12
595.309	27.01
595.502	27.42
595.696	27.41
595.889	26.83
596.083	26.33
596.276	26.12
596.47	26.21
596.663	25.2
596.856	25.27
597.05	25.25
597.243	25.45
597.437	25.05
597.63	25.39
597.823	26.1
598.017	25.89
598.21	26.04
598.403	26.07
598.596	26.12
598.79	26.8
598.983	26.61
599.176	26.66
599.369	26.48
599.563	25.48
599.756	24.45
599.949	24.15
600.142	24.99
600.335	26.8
600.528	25.92
600.722	26.73
600.915	26.67
601.108	26.6
601.301	26.9
601.494	26.73
601.687	26.76
601.88	27.17
602.073	26.55
602.266	26.9
602.459	26.3
602.652	27.08
602.845	26.24
603.038	26.56
603.231	27.08
603.424	26.76
603.617	26.34
603.809	26.89
604.002	26.79
604.195	27.22
604.388	27.61
604.581	27.44
604.774	27.91
604.966	28.42
605.159	28.45
605.352	28.19
605.545	28.34
605.737	28.77
605.93	28.31
606.123	28.13
606.316	28.55
606.508	28.35
606.701	28.69
606.894	29.51
607.086	29.45
607.279	29.45
607.471	29.96
607.664	31.02
607.857	31.84
608.049	32.12
608.242	32.61
608.434	32.31
608.627	31.83
608.819	32.03
609.012	30.84
609.204	30.08
609.397	30.29
609.589	30.09
609.782	29.83
609.974	29.31
610.166	29.69
610.359	29.86
610.551	29.66
610.743	29.71
610.936	30.19
611.128	29.82
611.32	30.41
611.513	29.98
611.705	29.82
611.897	29.02
612.09	29.65
612.282	29.54
612.474	29.03
612.666	29.19
612.858	29.14
613.051	27.97
613.243	29.14
613.435	28.72
613.627	29.7
613.819	30.84
614.011	31.37
614.203	30.57
614.395	30.36
614.588	31.68
614.78	31.63
614.972	33.3
615.164	33.48
615.356	34.05
615.548	33.77
615.74	32.59
615.932	31.95
616.124	31.46
616.315	31.53
616.507	31.52
616.699	29.91
616.891	29.87
617.083	28.91
617.275	28.89
617.467	28.36
617.659	29.72
617.85	31.8
618.042	31.27
618.234	32.11
618.426	32.05
618.618	32.83
618.809	33.19
619.001	33.33
619.193	32.26
619.384	32.77
619.576	33.07
619.768	33.12
619.959	31.7
620.151	32.15
620.343	30.81
620.534	31.29
620.726	31.13
620.917	31.24
621.109	32
621.301	32.19
621.492	31.96
621.684	32.04
621.875	31.61
622.067	31.07
622.258	31.52
622.45	32.7
622.641	32.61
622.832	31.26
623.024	31.68
623.215	31.4
623.407	31.44
623.598	31.01
623.789	30.05
623.981	29.4
624.172	30.62
624.363	30.14
624.555	29.64
624.746	29.66
624.937	29.91
625.129	30.65
625.32	30.28
625.511	31.28
625.702	31.59
625.893	31.49
626.085	31.93
626.276	31.2
626.467	30.74
626.658	31.26
626.849	30.71
627.04	31.54
627.231	30.17
627.422	30.78
627.614	30.92
627.805	30.45
627.996	30.38
628.187	30.31
628.378	30.01
628.569	30.48
628.76	30.98
628.951	30.82
629.142	30.73
629.332	30.96
629.523	29.87
629.714	29.03
629.905	29.99
630.096	30.75
630.287	30.53
630.478	30.69
630.669	30.69
630.859	30.84
631.05	31.08
631.241	30.76
631.432	31.51
631.623	32.65
631.813	32.64
632.004	32.38
632.195	31.26
632.385	31.08
632.576	31.96
632.767	32.42
632.957	31.6
633.148	32.65
633.339	32.84
633.529	33.13
633.72	32.9
633.91	32.62
634.101	31.7
634.292	32.79
634.482	33.21
634.673	32.67
634.863	32.27
635.054	33.22
635.244	32.87
635.435	32.22
635.625	31.88
635.815	31.56
636.006	32.9
636.196	34.84
636.387	33.4
636.577	33.13
636.767	33.6
636.958	33.41
637.148	33.47
637.338	33.77
637.529	35.29
637.719	34.18
637.909	35.33
638.099	34.43
638.29	30.7
638.48	32.55
638.67	34.01
638.86	35.16
639.05	35.68
639.241	34.71
639.431	34.75
639.621	34.89
639.811	35.63
640.001	34.27
640.191	35.17
640.381	38.55
640.571	36.49
640.761	35.76
640.951	34.58
641.141	33.61
641.331	32.48
641.521	32.13
641.711	32.24
641.901	32.84
642.091	33.65
642.281	32.36
642.471	31.93
642.661	34.68
642.851	33.94
643.041	32.68
643.231	32.81
643.42	33.79
643.61	34.25
643.8	33.24
643.99	33.72
644.18	32.79
644.369	32.68
644.559	32.19
644.749	30.34
644.939	31.01
645.128	31.33
645.318	31.92
645.508	31.75
645.697	30.37
645.887	30.33
646.076	29.21
646.266	30.21
646.456	30.98
646.645	30.91
646.835	31.3
647.024	30.11
647.214	30.47
647.403	31.19
647.593	30.81
647.782	31.78
647.972	30.66
648.161	30.88
648.351	29.9
648.54	29.5
648.73	29.65
648.919	30.47
649.108	31.17
649.298	31.79
649.487	31.34
649.677	30.88
649.866	31.43
650.055	32.08
650.244	31.74
650.434	33.57
650.623	33.71
650.812	34.55
651.002	33.95
651.191	33.74
651.38	34.22
651.569	34.01
651.758	35.1
651.947	34.41
652.137	34.64
652.326	34.57
652.515	32.84
652.704	32.69
652.893	32.61
653.082	34.55
653.271	35.75
653.46	35.78
653.649	35.15
653.838	34.86
654.027	34.45
654.216	34.15
654.405	34.34
654.594	34.13
654.783	34.22
654.972	34.97
655.161	32.92
655.35	31.58
655.539	30.92
655.728	32.13
655.916	31.94
656.105	30.95
656.294	31.89
656.483	32.14
656.672	32.17
656.86	31.59
657.049	30.7
657.238	31.06
657.427	32.07
657.615	31.94
657.804	31.96
657.993	32.44
658.181	33.75
658.37	33.95
658.559	33.62
658.747	34.94
658.936	37.27
659.125	38.99
659.313	39.73
659.502	39.42
659.69	39.22
659.879	38.81
660.067	38.63
660.256	38.84
660.444	39.51
660.633	40.4
660.821	40.44
661.01	38.54
661.198	36.85
661.387	35.68
661.575	35.29
661.763	36.62
661.952	36.82
662.14	36.67
662.328	35.84
662.517	36.34
662.705	35.18
662.893	35.92
663.082	36.79
663.27	37.24
663.458	37.93
663.646	37.59
663.834	37.55
664.023	38.14
664.211	39.7
664.399	40.22
664.587	38.05
664.775	40.08
664.963	37.75
665.152	37.76
665.34	37.2
665.528	37.12
665.716	38.31
665.904	37.71
666.092	36.41
666.28	35.39
666.468	35.9
666.656	37.41
666.844	37.27
667.032	38.75
667.22	38.26
667.408	38.95
667.596	40.22
667.784	38.68
667.971	38.89
668.159	40.01
668.347	40.37
668.535	39.95
668.723	38.45
668.911	38.17
669.098	38.02
669.286	36.6
669.474	35.56
669.662	34.59
669.849	37.06
670.037	37.39
670.225	37.58
670.413	37.44
670.6	37.21
670.788	38.68
670.976	38.6
671.163	37.8
671.351	39.15
671.538	38.98
671.726	37.71
671.913	35.7
672.101	34.51
672.289	34.03
672.476	33.58
672.664	33.15
672.851	30.58
673.039	30.57
673.226	30.77
673.413	30.02
673.601	29.75
673.788	32.37
673.976	32.37
674.163	33.29
674.35	34.13
674.538	33.51
674.725	33.33
674.912	34.86
675.1	35.51
675.287	35.64
675.474	35.85
675.662	36.51
675.849	35.92
676.036	36.65
676.223	37.33
676.411	36.64
676.598	37.09
676.785	37.97
676.972	37.32
677.159	34.1
677.346	32.24
677.533	33.24
677.721	32.42
677.908	31.07
678.095	32.12
678.282	30.46
678.469	29.74
678.656	29.33
678.843	29.34
679.03	30.94
679.217	32.89
679.404	34.12
679.591	34.08
679.778	34.83
679.964	34.11
680.151	32.17
680.338	33.25
680.525	33.35
680.712	34.49
680.899	35.41
681.086	34.49
681.272	33.97
681.459	34.12
681.646	34.27
681.833	34.21
682.02	34.75
682.206	37.22
682.393	37.67
682.58	38.58
682.766	38.71
682.953	39.25
683.14	39.27
683.326	39.5
683.513	40.08
683.7	39.24
683.886	39.16
684.073	38.23
684.259	35.14
684.446	33.81
684.632	34.1
684.819	33.38
685.005	30.82
685.192	30.31
685.378	30.41
685.565	29.34
685.751	29.88
685.938	28.18
686.124	28.67
686.31	30.96
686.497	31.3
686.683	32.32
686.87	33.52
687.056	33.87
687.242	33.64
687.429	33.44
687.615	33.33
687.801	32.4
687.987	34.1
688.174	34.1
688.36	34.52
688.546	34.1
688.732	32.43
688.918	32.03
689.105	32.87
689.291	31.73
689.477	31.03
689.663	31.36
689.849	33.36
690.035	33.1
690.221	33.4
690.407	31.56
690.593	32.48
690.779	33.3
690.965	31.55
691.151	32.25
691.337	32.83
691.523	34.59
691.709	34.3
691.895	32.03
692.081	34
692.267	32.93
692.453	34.05
692.639	32.77
692.825	30.98
693.011	32.6
693.196	30.4
693.382	30.18
693.568	30.85
693.754	28.72
693.94	29.45
694.125	27.18
694.311	30.21
694.497	30.93
694.682	34.21
694.868	35.31
695.054	34.51
695.239	35.4
695.425	35.75
695.611	33.41
695.796	36.67
695.982	37.66
696.168	37.59
696.353	35.72
696.539	35.09
696.724	33.68
696.91	34.08
697.095	32.37
697.281	32.51
697.466	32.12
697.652	33.19
697.837	31.77
698.023	30.62
698.208	30.79
698.393	30.2
698.579	30.44
698.764	29.2
698.949	29.69
699.135	31.61
699.32	30.59
699.505	31.26
699.691	30.19
699.876	30.99
700.061	31.84
700.246	33.18
700.432	34.9
700.617	34.22
700.802	35.72
700.987	32.86
701.172	28.22
701.358	30.08
701.543	29.82
701.728	32.36
701.913	31.9
702.098	31.12
702.283	31.32
702.468	29.27
702.653	30.17
702.838	30.76
703.023	31.7
703.208	35.36
703.393	35.09
703.578	37.09
703.763	36.51
703.948	37.25
704.133	36.15
704.318	36.41
704.503	38.73
704.688	37.9
704.873	37.11
705.057	36.36
705.242	37.78
705.427	37.76
705.612	37.95
705.797	36.25
705.981	35.63
706.166	37.37
706.351	35.76
706.536	37.87
706.72	38.48
706.905	40.25
707.09	41.21
707.274	41.84
707.459	40.78
707.644	40.38
707.828	40.66
708.013	42.29
708.197	42.11
708.382	41.87
708.567	40.13
708.751	38.32
708.936	36.03
709.12	36.58
709.305	33.44
709.489	35.08
709.673	36.24
709.858	35.6
710.042	34.5
710.227	36.47
710.411	36.61
710.596	39.13
710.78	40.77
710.964	39.81
711.149	41.5
711.333	43.38
711.517	43.92
711.702	44.1
711.886	45.71
712.07	45.24
712.254	42.55
712.438	42.28
712.623	39.08
712.807	37.31
712.991	37.53
713.175	33.59
713.359	33.49
713.544	32.67
713.728	28.91
713.912	27.11
714.096	27.49
714.28	26.97
714.464	26.19
714.648	25.37
714.832	26.49
715.016	29.55
715.2	31.4
715.384	30.17
715.568	27.69
715.752	26.99
715.936	26.78
716.12	25.82
716.304	28.25
716.488	30.24
716.671	31.92
716.855	31.81
717.039	29.8
717.223	31.22
717.407	32.51
717.59	33.99
717.774	33.9
717.958	31.9
718.142	32.85
718.325	30.39
718.509	27.71
718.693	27.41
718.877	27.28
719.06	26.97
719.244	21.21
719.428	21.28
719.611	22.52
719.795	24.93
719.978	26.86
720.162	29.66
720.345	31.23
720.529	32.69
720.713	30.9
720.896	30.74
721.08	29.28
721.263	28.3
721.446	25.6
721.63	24.79
721.813	26.29
721.997	24.16
722.18	23.24
722.364	23.71
722.547	22.84
722.73	24.49
722.914	24.05
723.097	27.31
723.28	31.82
723.464	36.07
723.647	38.28
723.83	36.98
724.013	39.5
724.197	39.31
724.38	38.58
724.563	38.18
724.746	40.83
724.929	41.84
725.112	41.69
725.296	40.93
725.479	39.13
725.662	35.73
725.845	37.47
726.028	36.21
726.211	37.54
726.394	36.09
726.577	36.5
726.76	35.81
726.943	35.31
727.126	31.25
727.309	33.34
727.492	32.09
727.675	32.5
727.858	30.27
728.041	31.79
728.224	28.76
728.407	29.94
728.589	32.2
728.772	30.23
728.955	30.84
729.138	31.64
729.321	27.76
729.503	31.18
729.686	34.16
729.869	36.47
730.052	38.03
730.234	38.91
730.417	41
730.6	38.9
730.782	39.67
730.965	41.34
731.148	42.94
731.33	44.97
731.513	43.28
731.695	41.94
731.878	41.16
732.061	41.61
732.243	42.39
732.426	40.55
732.608	42.01
732.791	40.86
732.973	40.27
733.156	41.31
733.338	40
733.52	41.9
733.703	40.99
733.885	40.14
734.068	35.62
734.25	36.67
734.432	35.19
734.615	34.83
734.797	36.63
734.979	37.45
735.162	39.76
735.344	41.88
735.526	39.57
735.708	42.95
735.891	40.67
736.073	43.43
736.255	41.77
736.437	46.92
736.619	47.75
736.802	45.81
736.984	42.83
737.166	39.55
737.348	39.11
737.53	40.9
737.712	37.73
737.894	41.41
738.076	40.55
738.258	42.08
738.44	41.01
738.622	42.67
738.804	44.27
738.986	45.87
739.168	44.32
739.35	40.13
739.532	40.77
739.714	42.1
739.896	40.71
740.078	46.57
740.259	47.14
740.441	49.4
740.623	48.4
740.805	49.91
740.987	51.4
741.168	57.25
741.35	63.88
741.532	61.38
741.714	60.05
741.895	62.83
742.077	61.81
742.259	60.42
742.44	62.94
742.622	61.86
742.804	59.83
742.985	55.19
743.167	54.8
743.348	55.12
743.53	56.02
743.711	62.29
743.893	64.77
744.075	64.91
744.256	64.64
744.438	58.82
744.619	57.01
744.8	62.33
744.982	66.82
745.163	67.14
745.345	65.12
745.526	62.69
745.707	62.34
745.889	60.19
746.07	56.83
746.252	55.04
746.433	55.69
746.614	61.2
746.795	54.65
746.977	54.8
747.158	54.78
747.339	55.85
747.52	62.73
747.702	62.52
747.883	63.1
748.064	63.92
748.245	65
748.426	63.16
748.607	56.71
748.788	58.98
748.97	56.67
749.151	53.19
749.332	51.58
749.513	51.15
749.694	52.85
749.875	51.97
750.056	51.11
750.237	55.72
750.418	57.91
750.599	62.5
750.78	66.78
750.96	68.5
751.141	71.53
751.322	72.69
751.503	73.18
751.684	72.58
751.865	73.95
752.046	74.41
752.226	71.17
752.407	72.76
752.588	69.1
752.769	65.05
752.949	62.38
753.13	59.12
753.311	57.09
753.492	56.79
753.672	52.69
753.853	50.19
754.034	50.21
754.214	50.48
754.395	49.74
754.575	54.5
754.756	54.45
754.937	53.08
755.117	60.4
755.298	66.04
755.478	59.45
755.659	62.18
755.839	62.08
756.02	69.36
756.2	67.09
756.381	60.93
756.561	59.99
756.741	60.47
756.922	62.79
757.102	55.31
757.283	48.74
757.463	47.19
757.643	43.9
757.823	39.69
758.004	29.59
758.184	28.39
758.364	30.93
758.545	24.04
758.725	23.4
758.905	21.77
759.085	20.68
759.265	18.67
759.446	23.01
759.626	23.51
759.806	25.96
759.986	32.25
760.166	33.58
760.346	33.07
760.526	35.98
760.706	36.8
760.886	36.36
761.066	38.45
761.246	39.91
761.426	40.73
761.606	38.55
761.786	37.69
761.966	33.85
762.146	34.49
762.326	31.78
762.506	33.03
762.686	33.19
762.866	33.84
763.046	32.05
763.225	30.35
763.405	28.73
763.585	28.08
763.765	29.7
763.945	33.57
764.124	34.09
764.304	37.25
764.484	34.65
764.664	32.19
764.843	34.71
765.023	40.71
765.203	47.62
765.382	49.76
765.562	53.74
765.741	54.89
765.921	56.65
766.101	56.49
766.28	58.24
766.46	65.16
766.639	70.23
766.819	66.49
766.998	69.68
767.178	69.2
767.357	69.72
767.537	69.3
767.716	70.82
767.896	67.48
768.075	67.1
768.254	70.46
768.434	76.98
768.613	75.16
768.792	80.86
768.972	82.73
769.151	76.19
769.33	73.24
769.51	77.02
769.689	77.13
769.868	79.82
770.047	78.22
770.226	77.04
770.406	72.05
770.585	72.02
770.764	74.17
770.943	71.55
771.122	73.58
771.301	77.37
771.48	78.77
771.66	83.39
771.839	86.56
772.018	97
772.197	100.67
772.376	97.05
772.555	99.64
772.734	95.41
772.913	92
773.092	97.5
773.271	94.77
773.449	89.95
773.628	87.1
773.807	87.89
773.986	86.02
774.165	80.15
774.344	85.58
774.523	89.49
774.701	93.65
774.88	92.19
775.059	90.54
775.238	100.46
775.417	102.54
775.595	105.89
775.774	96.14
775.953	92.18
776.131	92.54
776.31	87.23
776.489	86.15
776.667	86.52
776.846	86.55
777.025	76.93
777.203	71.07
777.382	67.91
777.56	64.19
777.739	67.43
777.917	75.5
778.096	72.63
778.274	76.89
778.453	74.1
778.631	65.61
778.81	69.41
778.988	81.48
779.166	85.91
779.345	82.58
779.523	83.07
779.702	85.34
779.88	79.36
780.058	86.36
780.237	79.63
780.415	75.17
780.593	82.67
780.771	74.61
780.95	67.87
781.128	60.51
781.306	63.07
781.484	59.84
781.662	50.85
781.841	56.1
782.019	59.18
782.197	67.19
782.375	71.11
782.553	68.27
782.731	65.45
782.909	72.37
783.087	66.21
783.265	66.26
783.443	60.84
783.621	68.01
783.799	63.1
783.977	70.78
784.155	70.89
784.333	71.84
784.511	75.89
784.689	85.41
784.867	77.79
785.045	78.68
785.223	74.3
785.4	94.13
785.578	83.7
785.756	76.16
785.934	57.17
786.112	47.41
786.289	45.07
786.467	40.74
786.645	33.33
786.823	32.53
787	38.12
787.178	38.65
787.356	27.54
787.533	31.03
787.711	25.78
787.889	28.03
788.066	32.57
788.244	35.96
788.421	40.51
788.599	45.58
788.776	46.28
788.954	47.63
789.131	52.36
789.309	57.45
789.486	52.11
789.664	57.88
789.841	61.91
790.019	66.87
790.196	69.39
790.373	78.1
790.551	81.72
790.728	75.49
790.906	71.67
791.083	74.07
791.26	65.28
791.437	69.8
791.615	80.28
791.792	81.82
791.969	79.12
792.146	69.27
792.324	58.07
792.501	55.88
792.678	71.04
792.855	79.2
793.032	75.36
793.209	86.81
793.387	88.39
793.564	85.59
793.741	89.82
793.918	84.46
794.095	81.37
794.272	79.64
794.449	75.92
794.626	68.71
794.803	62.83
794.98	67.36
795.157	69.84
795.334	62.99
795.511	59.53
795.688	51.03
795.864	52.02
796.041	57.71
796.218	57.47
796.395	57.99
796.572	58.01
796.749	59.2
796.925	51.09
797.102	46.15
797.279	46.25
797.456	43.88
797.632	45.07
797.809	43.69
797.986	37.55
798.162	41.8
798.339	41.39
798.516	41.92
798.692	38.48
798.869	46.72
799.046	46.67
799.222	56.3
799.399	60.61
799.575	64.39
799.752	68.32
799.928	66.78
800.105	70.47
800.281	73.5
800.458	72.82
800.634	79.91
800.811	84.43
800.987	69.69
801.163	57.36
801.34	49.79
801.516	36.33
801.692	27.13
801.869	29.29
802.045	20.14
802.221	32.96
802.398	43.47
802.574	39.56
802.75	35.24
802.926	50.47
803.103	47.42
803.279	57.34
803.455	69.86
803.631	71.61
803.807	83.01
803.983	86.98
804.16	92.59
804.336	115.84
804.512	124.32
804.688	102.83
804.864	133.84
805.04	156.61
805.216	152.87
805.392	146.97
805.568	166.94
805.744	138.56
805.92	157.61
806.096	138.61
806.272	100.83
806.448	63.88
806.623	83.28
806.799	42.11
806.975	42.75
807.151	36.61
807.327	52.59
807.503	40.45
807.678	42.55
807.854	42.29
808.03	47.94
808.206	51.55
808.381	55.09
808.557	48.34
808.733	62.05
808.908	51.03
809.084	49.27
809.26	37.86
809.435	29.14
809.611	19.57
809.787	17.95
809.962	19.64
810.138	20.48
810.313	29.68
810.489	22.1
810.664	27.49
810.84	43.15
811.015	32.32
811.191	35.54
811.366	48.19
811.542	59.21
811.717	55.22
811.892	51.46
812.068	69.79
812.243	62.15
812.419	66.97
812.594	60.71
812.769	56.12
812.944	73.03
813.12	82.15
813.295	77.8
813.47	40.61
813.645	46.99
813.821	45.78
813.996	-9.06
814.171	25.59
814.346	-1.75
814.521	7.18
814.697	8.65
814.872	11.98
815.047	11.43
815.222	0.71
815.397	17.7
815.572	6.75
815.747	15.46
815.922	3.28
816.097	-6.86
816.272	0.66
816.447	2.34
816.622	16.57
816.797	18.11
816.972	23.43
817.147	37.25
817.322	48.09
817.496	51.36
817.671	42.13
817.846	52.14
818.021	51.92
818.196	59.75
818.371	62.57
818.545	45.33
818.72	45.79
818.895	37.96
819.069	34.47
819.244	18.34
819.419	19.28
819.594	16.73
819.768	17.03
819.943	12.68
820.117	16.76
820.292	19.26
820.467	20.47
820.641	19.55
820.816	19.26
820.99	20.16
821.165	22.57
821.339	21
821.514	19.94
821.688	20.6
821.863	20.58
822.037	20.45
822.212	18.56
822.386	18.82
822.56	19.51
822.735	22.65
822.909	23.12
823.084	21.4
823.258	24.09
823.432	26.12
823.606	25.3
823.781	31.91
823.955	29.39
824.129	33.44
824.303	30.48
824.478	29.9
824.652	25.63
824.826	23.23
825	22.94
825.174	20.66
825.348	16.17
825.523	14.51
825.697	10.12
825.871	10.9
826.045	12
826.219	17.77
826.393	20.65
826.567	20.57
826.741	22.82
826.915	29.15
827.089	34.42
827.263	41.73
827.437	46.8
827.611	53.6
827.784	55.7
827.958	49.71
828.132	47.55
828.306	42.82
828.48	52.32
828.654	54.74
828.827	54.59
829.001	58.65
829.175	62.97
829.349	64.65
829.522	48.99
829.696	52.71
829.87	63.84
830.044	53.36
830.217	61.04
830.391	50.77
830.565	49.75
830.738	49.43
830.912	38.05
831.085	32.43
831.259	32.53
831.432	38.47
831.606	41.81
831.779	43.47
831.953	41.95
832.126	43.05
832.3	39.42
832.473	35.26
832.647	28.75
832.82	37.8
832.994	44.46
833.167	43.28
833.34	41.95
833.514	38.77
833.687	31.83
833.86	36.31
834.034	34.45
834.207	31.76
834.38	36.47
834.553	35.96
834.727	25.94
834.9	15.64
835.073	13.97
835.246	10.58
835.419	16.55
835.593	18.85
835.766	24.83
835.939	24.6
836.112	28.01
836.285	19.48
836.458	30.69
836.631	56.75
836.804	53.81
836.977	46.2
837.15	61.78
837.323	65.61
837.496	71.25
837.669	67.57
837.842	56.7
838.015	56.56
838.188	62.08
838.361	65.37
838.533	58.18
838.706	60.33
838.879	76.88
839.052	62.18
839.225	71.63
839.398	51.84
839.57	45.96
839.743	51.19
839.916	47.99
840.088	32.47
840.261	35.46
840.434	33.41
840.607	49.63
840.779	46.01
840.952	63.25
841.124	42.09
841.297	64.29
841.47	88.65
841.642	68.09
841.815	85.13
841.987	81.16
842.16	89.23
842.332	147.4
842.505	96.71
842.677	114.12
842.85	-600
843.022	-887.5
843.194	527.27
843.367	-251.61
843.539	-175.29
843.712	-255.26
843.884	-244.44
844.056	-218.18
844.229	112.41
844.401	116.09
844.573	122.29
844.745	97.22
844.918	97.56
845.09	143.53
845.262	109.92
845.434	87.87
845.606	89.32
845.779	125.45
845.951	153.14
846.123	150.66
846.295	255.9
846.467	253.51
846.639	153.26
846.811	105.9
846.983	110
847.155	43.94
847.327	90.52
847.499	353.33
847.671	113.33
847.843	-745.45
848.015	-178.57
848.187	-39.86
848.359	-68.57
848.531	-62
848.703	-41.61
848.875	-77.39
849.047	-41.34
849.218	-57.94
849.39	-78.01
849.562	-161.64
849.734	-197.37
849.905	-124
850.077	-198.49
850.249	-820
850.421	720.97
850.592	263.01
850.764	253.25
850.936	237.46
851.107	211.22
851.279	185.71
851.451	149.6
851.622	103.68
851.794	67.96
851.965	69.98
852.137	73.8
852.308	67.81
852.48	104.41
852.651	37.16
852.823	8.93
852.994	1.37
853.166	12.47
853.337	45.07
853.509	89.79
853.68	-16.98
853.851	278.38
854.023	25.48
854.194	274.84
854.365	137.5
854.537	126.79
854.708	220.45
854.879	408.9
855.05	381.25
855.222	2169.23
855.393	150.94
855.564	421.36
855.735	921.74
855.906	79.1
856.078	124.31
856.249	112.77
856.42	113.95
856.591	397.56
856.762	172.73
856.933	52.46
857.104	62.03
857.275	6.56
857.446	52
857.617	-12.11
857.788	-15.28
857.959	222.95
858.13	191.67
858.301	1337.5
858.472	488.6
858.643	507.41
858.814	191.54
858.985	247.86
859.155	581
859.326	178.03
859.497	173.42
859.668	147.1
859.839	234.31
860.009	135.71
860.18	94.69
860.351	285
860.522	-208.33
860.692	71.43
860.863	-733.33
861.034	-143.59
861.204	-127.27
861.375	-108.25
861.546	96.03
861.716	-33.33
861.887	-2.08
862.057	-3150
862.228	227.78
862.398	2812.5
862.569	-169.62
862.739	-24.8
862.91	-363.64
863.08	-22.22
863.251	551.43
863.421	320
863.592	-166.13
863.762	-696
863.932	5.83
864.103	43.97
864.273	121.79
864.443	-16.46
864.614	52.38
864.784	96.02
864.954	-18.75
865.125	136.36
865.295	99.61
865.465	208.33
865.635	301.52
865.805	1300
865.976	467.86
866.146	58.12
866.316	133.7
866.486	115.87
866.656	134.34
866.826	140.06
866.996	128.9
867.166	150.8
867.336	160.59
867.506	161.49
867.676	129.15
867.846	152.86
868.016	339.02
868.186	101.5
868.356	40
868.526	-76.25
868.696	1183.33
868.866	23.1
869.036	-3.57
869.206	-84.02
869.376	-123.72
869.545	-128.65
869.715	-481.08
869.885	-208.33
870.055	2671.43
870.224	-12100
870.394	233.83
870.564	188.89
870.734	123.47
870.903	111.55
871.073	121.76
871.243	96.34
871.412	92.06
871.582	142.6
871.751	451.02
871.921	25.51
872.091	13.97
872.26	13.18
872.43	-5.8
872.599	9.3
872.769	13.05
872.938	48.81
873.108	60.84
873.277	48.41
873.446	61.38
873.616	74.84
873.785	37.47
873.955	44.97
874.124	77.86
874.293	78.07
874.463	63.86
874.632	70.7
874.801	38.67
874.971	17.62
875.14	39.76
875.309	26.13
875.478	24.72
875.647	56.44
875.817	38.18
875.986	20.17
876.155	-28.57
876.324	14.73
876.493	49.57
876.662	83.4
876.831	104.78
877	113.13
877.17	89.56
877.339	72.84
877.508	73.95
877.677	109.48
877.846	84.22
878.015	93.94
878.184	105.88
878.352	45.05
878.521	-34.62
878.69	-157.83
878.859	-24.44
879.028	-191.76
879.197	-90.8
879.366	-84.71
879.534	-67.23
879.703	-49.81
879.872	-28
880.041	-10.7
880.21	2.21
880.378	6.43
880.547	14.56
880.716	16.75
880.884	20.53
881.053	13.52
881.222	14.31
881.39	13.34
881.559	12.05
881.727	19.19
881.896	14.55
882.065	13.83
882.233	11.97
882.402	10.19
882.57	-1.52
882.739	-0.99
882.907	21.03
883.076	28.36
883.244	41.67
883.412	43.07
883.581	37.15
883.749	69
883.918	72.85
884.086	73.96
884.254	64.36
884.423	76.45
884.591	84.02
884.759	51.59
884.927	64.1
885.096	41.11
885.264	32.57
885.432	1.49
885.6	-11.74
885.769	29.7
885.937	-5.84
886.105	-7.25
886.273	70.53
886.441	84.31
886.609	173.77
886.777	120.3
886.945	87.54
887.113	131.63
887.281	227.59
887.449	-942.86
887.617	292.31
887.785	221.79
887.953	-548.57
888.121	39.49
888.289	97.97
888.457	-104.92
888.625	76.04
888.793	83.18
888.961	101.71
889.129	140.23
889.296	102.04
889.464	66.43
889.632	81.82
889.8	126.06
889.967	171.29
890.135	135.29
