Data from JASIL_3017_Reflection_02.txt Node
Date: Mon Nov 09 10:40:48 EST 2015
User: Geneva
Spectrometer: USB4E03002
Autoset integration time: false
Trigger mode: 4
Integration Time (sec): 1.000000E-1
Scans to average: 10
Electric dark correction enabled: false
Nonlinearity correction enabled: false
Boxcar width: 5
Stray light correction enabled: false
XAxis mode: Wavelengths
Stop averaging: false
Number of Pixels in Spectrum: 3648
>>>>>Begin Spectral Data<<<<<
177.575	68.7
177.794	67.71
178.014	65.95
178.233	74.52
178.452	53.14
178.672	68.42
178.891	360.87
179.11	-92.68
179.33	700
179.549	130.77
179.768	88.76
179.987	301.39
180.207	-306.67
180.426	-274.63
180.645	-11.42
180.864	25.9
181.084	18.42
181.303	-5.32
181.522	3.04
181.741	25.57
181.96	-26.81
182.179	19.7
182.398	23.46
182.618	41.06
182.837	36.89
183.056	-195.79
183.275	156.3
183.494	-67.78
183.713	-382.5
183.932	-138.3
184.151	-200
184.37	7.33
184.589	-983.33
184.808	174.75
185.027	102.27
185.246	64.66
185.465	19.85
185.684	57.8
185.903	69.57
186.122	11.78
186.341	19.25
186.56	-36.86
186.779	-473.47
186.998	268.13
187.216	192.8
187.435	178.65
187.654	98.96
187.873	70.05
188.092	115.36
188.311	124.31
188.53	100.51
188.748	101.13
188.967	102.72
189.186	117.2
189.405	60.11
189.623	172.9
189.842	236.51
190.061	-2180
190.28	3.19
190.498	-14.29
190.717	-1.9
190.936	-45.98
191.154	-16.33
191.373	-35.18
191.592	121.68
191.81	74.67
192.029	100.53
192.248	23.81
192.466	54.87
192.685	98.52
192.904	-21.74
193.122	39.13
193.341	820
193.559	166.67
193.778	-28.41
193.996	98.21
194.215	114.89
194.433	80.73
194.652	55.7
194.87	83.18
195.089	112.84
195.307	165.33
195.526	149.38
195.744	194.15
195.963	310.29
196.181	-1055.32
196.399	-340.36
196.618	-362.77
196.836	-196.35
197.055	-157.94
197.273	-164.56
197.491	-175
197.71	-112.45
197.928	-98.78
198.146	-82.45
198.365	-102.35
198.583	-2466.67
198.801	66.81
199.019	79.92
199.238	71.97
199.456	73.06
199.674	48.85
199.892	-0.93
200.111	-13
200.329	-217.86
200.547	1058.33
200.765	-244.16
200.983	188.74
201.202	122.62
201.42	167.41
201.638	116.57
201.856	215.56
202.074	298.99
202.292	401.59
202.51	370.83
202.728	8250
202.946	-225.76
203.165	915.79
203.383	-38.46
203.601	231.82
203.819	-17.44
204.037	57.5
204.255	34
204.473	77.44
204.691	14.71
204.909	-109.52
205.127	-603.03
205.345	-309.8
205.562	68.52
205.78	224
205.998	308.7
206.216	244.34
206.434	225.84
206.652	471.43
206.87	335.59
207.088	136.97
207.306	240.76
207.523	177.27
207.741	120.88
207.959	59.01
208.177	65.23
208.395	119.37
208.612	83.45
208.83	100.92
209.048	50.34
209.266	-36.76
209.483	21.31
209.701	155.17
209.919	2450
210.136	470.91
210.354	4033.33
210.572	-774.47
210.79	-888.89
211.007	356.93
211.225	245.03
211.442	1186.84
211.66	-368.03
211.878	-427.63
212.095	-660.38
212.313	-10333.33
212.53	-137.7
212.748	10.9
212.966	-568.29
213.183	-11650
213.401	-62.83
213.618	-18.45
213.836	35.86
214.053	77.46
214.271	110.07
214.488	125.59
214.705	92.71
214.923	86.67
215.14	212.6
215.358	240.22
215.575	186.88
215.793	651.52
216.01	1262.5
216.227	505.56
216.445	-105.21
216.662	-153.06
216.879	6.79
217.097	-75.59
217.314	-111.29
217.531	25.86
217.749	17.67
217.966	7.69
218.183	48.07
218.4	42
218.618	30.39
218.835	19.97
219.052	46.53
219.269	34.65
219.487	27.74
219.704	10.77
219.921	22.76
220.138	35.8
220.355	12.69
220.572	-7566.67
220.79	213.89
221.007	163.97
221.224	292.71
221.441	286.58
221.658	-63.98
221.875	-69.4
222.092	-0.98
222.309	13.25
222.526	-1.28
222.743	14.35
222.96	3.31
223.177	19.15
223.394	13.54
223.611	12.39
223.828	17.56
224.045	10.47
224.262	10.43
224.479	-8.04
224.696	-17.95
224.913	-17.91
225.13	-10.79
225.347	0.4
225.564	-5.98
225.781	-3.57
225.997	5.59
226.214	-4.71
226.431	-5.46
226.648	-2.37
226.865	7.58
227.082	13.34
227.298	14.73
227.515	6.82
227.732	7.31
227.949	2.2
228.165	2.94
228.382	0.65
228.599	5.16
228.816	2.71
229.032	1.36
229.249	-10.25
229.466	-10.44
229.682	-13.76
229.899	-11.17
230.116	-14.83
230.332	-5.59
230.549	-14.95
230.765	-12.87
230.982	-13.01
231.199	2.1
231.415	4.33
231.632	19.94
231.848	12.86
232.065	19.52
232.281	19.37
232.498	17.28
232.714	15.39
232.931	21.59
233.147	18.57
233.364	22.01
233.58	5.04
233.797	9.64
234.013	5.51
234.23	2.3
234.446	-0.91
234.662	13.85
234.879	13.15
235.095	8.15
235.312	13.64
235.528	9.87
235.744	11.52
235.961	22.39
236.177	7.72
236.393	13.33
236.61	19.96
236.826	25.11
237.042	22.59
237.258	25.3
237.475	25.97
237.691	14.22
237.907	11.92
238.123	4.91
238.339	4.2
238.556	7.32
238.772	3.62
238.988	-1.23
239.204	-4.48
239.42	-6.19
239.636	-7.56
239.853	-2.78
240.069	-1.53
240.285	-6.17
240.501	-4.08
240.717	-0.6
240.933	2.03
241.149	4.62
241.365	2.94
241.581	3.2
241.797	3.19
242.013	3.52
242.229	2.14
242.445	2.84
242.661	6.8
242.877	10.78
243.093	3.7
243.309	3.96
243.525	-4.21
243.741	7.33
243.957	7.82
244.173	9.63
244.388	11.73
244.604	11.67
244.82	11.21
245.036	12.51
245.252	11.92
245.468	12.48
245.683	11.65
245.899	11.62
246.115	9.47
246.331	10.07
246.547	8.94
246.762	8
246.978	6.32
247.194	5.7
247.409	3
247.625	-1.33
247.841	-2.15
248.057	-2.27
248.272	-4.55
248.488	-3.63
248.703	-5.39
248.919	-5.38
249.135	-5.05
249.35	-2.71
249.566	-0.7
249.782	-2.16
249.997	2.91
250.213	7.57
250.428	5.5
250.644	10.18
250.859	5.35
251.075	6.69
251.29	5.28
251.506	10.39
251.721	10.84
251.937	8.84
252.152	14.51
252.368	13.22
252.583	12.43
252.798	18.97
253.014	19.05
253.229	26.4
253.445	19.72
253.66	18.39
253.875	8.05
254.091	2.81
254.306	2.28
254.521	2.7
254.737	-3.65
254.952	-2.62
255.167	-5.23
255.383	-9.45
255.598	-13.59
255.813	-7.41
256.028	-7.67
256.244	-2.49
256.459	-0.48
256.674	0.8
256.889	-2.1
257.104	4.45
257.32	4.92
257.535	2.4
257.75	4.28
257.965	5.74
258.18	6.81
258.395	7.76
258.61	6.09
258.826	5.85
259.041	4.55
259.256	3.88
259.471	2.44
259.686	0.87
259.901	2.37
260.116	0.67
260.331	0.8
260.546	-0.87
260.761	-2.06
260.976	-0.72
261.191	-1.96
261.406	-3.35
261.621	0.41
261.836	1.23
262.05	-1.05
262.265	-6.19
262.48	-1.67
262.695	-6.79
262.91	-4.27
263.125	-5.47
263.34	-9.94
263.555	-6.73
263.769	1.04
263.984	3.13
264.199	6.86
264.414	7.51
264.629	7.16
264.843	4.03
265.058	4.91
265.273	0.47
265.488	3.69
265.702	6.34
265.917	5.59
266.132	5.36
266.346	0.79
266.561	1.11
266.776	1.85
266.99	3.42
267.205	6.88
267.42	6.86
267.634	8.16
267.849	7.84
268.063	5.73
268.278	8.37
268.492	8.37
268.707	11.79
268.922	7.22
269.136	8.67
269.351	8.88
269.565	3.89
269.78	2.54
269.994	2.73
270.209	0.2
270.423	2.64
270.637	0.12
270.852	1.31
271.066	0.06
271.281	-0.09
271.495	0.84
271.709	0.15
271.924	2.2
272.138	3.08
272.353	1.63
272.567	1.9
272.781	1.87
272.996	2.74
273.21	0.18
273.424	0.44
273.638	2.55
273.853	-0.02
274.067	2.35
274.281	3.24
274.495	4.22
274.71	6.23
274.924	5.45
275.138	4.24
275.352	2.92
275.566	3.92
275.781	2.73
275.995	1.94
276.209	1.5
276.423	-0.12
276.637	-1.06
276.851	-2.65
277.065	-2.93
277.279	-1.05
277.493	-0.06
277.707	-0.37
277.921	-0.34
278.135	3.17
278.349	3.58
278.563	2.54
278.777	4.38
278.991	4.72
279.205	4.98
279.419	5.58
279.633	6.38
279.847	7.77
280.061	7.03
280.275	5.48
280.489	3.87
280.703	3.77
280.917	6.43
281.131	4.71
281.344	4.94
281.558	6.9
281.772	4.85
281.986	3.16
282.2	-0.16
282.414	1.51
282.627	2.27
282.841	1.1
283.055	2.07
283.269	1.87
283.482	2.9
283.696	3.41
283.91	2.6
284.123	3.46
284.337	3.91
284.551	4.11
284.764	4.65
284.978	4.7
285.192	4.98
285.405	3.34
285.619	3.82
285.833	3.37
286.046	2.57
286.26	2.85
286.473	2.58
286.687	3.28
286.9	3.96
287.114	1.77
287.327	0.77
287.541	2.33
287.754	4.22
287.968	4.27
288.181	4.07
288.395	3.08
288.608	2.62
288.822	1.26
289.035	1.01
289.248	0.83
289.462	2.83
289.675	1.67
289.889	-1.09
290.102	-2.6
290.315	-2.2
290.529	-3.38
290.742	-1.9
290.955	-4.24
291.169	-2.17
291.382	-1.21
291.595	-2.79
291.808	-4.04
292.022	-5.03
292.235	-2.08
292.448	-0.06
292.661	-1.55
292.875	-1.3
293.088	-4.36
293.301	-1.92
293.514	-4
293.727	-3.53
293.94	-2.12
294.153	-1.3
294.367	0.14
294.58	-1.22
294.793	-1.14
295.006	-0.68
295.219	-0.06
295.432	1.15
295.645	1.66
295.858	3.24
296.071	1.57
296.284	2.36
296.497	3.38
296.71	2.71
296.923	3.41
297.136	1.05
297.349	-1.52
297.562	-1.43
297.775	-0.56
297.988	-0.5
298.201	-2.1
298.414	-2.05
298.626	-1.85
298.839	-3.58
299.052	1.12
299.265	1.82
299.478	5.39
299.691	7.96
299.903	6.45
300.116	5.92
300.329	4.86
300.542	6.82
300.755	4.96
300.967	4.49
301.18	5.28
301.393	1.97
301.605	-0.23
301.818	-3.47
302.031	-4.03
302.243	-3.11
302.456	-3.56
302.669	-3.85
302.881	-5
303.094	-3.23
303.307	-3.17
303.519	-6.24
303.732	-8.63
303.944	-9.23
304.157	-7.33
304.37	-6.66
304.582	-7.27
304.795	-7.83
305.007	-8.7
305.22	-7.57
305.432	-7.25
305.645	-6.84
305.857	-6.31
306.069	-3.03
306.282	-2.45
306.494	-1.88
306.707	-2.75
306.919	-1.23
307.132	-0.71
307.344	0.9
307.556	2.69
307.769	3.39
307.981	2.04
308.193	1.66
308.406	2.51
308.618	2.49
308.83	2.59
309.043	2.58
309.255	4.18
309.467	3.36
309.679	3.08
309.892	0.06
310.104	-0.48
310.316	0.54
310.528	0.53
310.74	-0.18
310.953	2.04
311.165	0.68
311.377	1.88
311.589	-0.89
311.801	2.1
312.013	2.9
312.225	4.64
312.437	6.12
312.649	3.71
312.862	6.28
313.074	3.88
313.286	3.11
313.498	4.81
313.71	5.83
313.922	5.45
314.134	3.43
314.346	1.15
314.558	2.27
314.77	-0.31
314.982	1.79
315.193	2.02
315.405	4.04
315.617	4.18
315.829	6.89
316.041	6.78
316.253	9.73
316.465	9.61
316.677	11.17
316.888	8.04
317.1	9.74
317.312	7.15
317.524	5.65
317.736	7.02
317.947	6.64
318.159	6.58
318.371	7.79
318.583	7.55
318.794	8.9
319.006	5.68
319.218	9.94
319.43	10.77
319.641	14.03
319.853	13.99
320.064	12.25
320.276	12.87
320.488	11.08
320.699	10
320.911	10.37
321.123	11.3
321.334	11.91
321.546	11.43
321.757	12.76
321.969	13.49
322.18	13.92
322.392	14.46
322.603	13.03
322.815	10.7
323.026	10.1
323.238	11.63
323.449	7.65
323.661	11.51
323.872	9.39
324.083	7.71
324.295	7.09
324.506	4.88
324.718	6.21
324.929	3.46
325.14	4.68
325.352	3.6
325.563	0.12
325.774	1.05
325.986	-0.8
326.197	-0.17
326.408	0.78
326.62	0.84
326.831	2.73
327.042	2.73
327.253	5.88
327.464	5.92
327.676	5.57
327.887	4.95
328.098	6.41
328.309	4.63
328.52	5.29
328.732	4.21
328.943	2.23
329.154	2.12
329.365	1.77
329.576	0.9
329.787	2.35
329.998	5.41
330.209	6.74
330.42	7.36
330.631	8.35
330.842	7.24
331.053	7.86
331.264	8.93
331.475	7.22
331.686	6.56
331.897	6.28
332.108	1.98
332.319	2.53
332.53	2.12
332.741	3.42
332.952	4.76
333.163	5.09
333.374	3.97
333.585	6.21
333.795	9.96
334.006	8.83
334.217	7.73
334.428	9.68
334.639	5.85
334.849	5.52
335.06	4.05
335.271	4.6
335.482	5.46
335.692	6.17
335.903	3.05
336.114	0.48
336.325	0.07
336.535	2.77
336.746	3.35
336.957	5.49
337.167	5.91
337.378	5.07
337.589	2.81
337.799	0.8
338.01	1.38
338.22	5.31
338.431	5.19
338.642	3.05
338.852	0.8
339.063	1.17
339.273	1.07
339.484	0.12
339.694	0.16
339.905	1.09
340.115	2.01
340.326	1.91
340.536	-0.28
340.746	1.04
340.957	4.36
341.167	6.58
341.378	6.18
341.588	5.15
341.799	6.2
342.009	7.27
342.219	6.04
342.43	7.75
342.64	7.75
342.85	7.6
343.061	5.66
343.271	4.94
343.481	3.76
343.691	1.96
343.902	2.14
344.112	1.95
344.322	0.88
344.532	2.33
344.743	0.88
344.953	0.25
345.163	2.15
345.373	4.1
345.583	4.69
345.793	5.95
346.004	8.45
346.214	9.52
346.424	9.94
346.634	9.76
346.844	10.54
347.054	10.55
347.264	11.12
347.474	9.45
347.684	8.96
347.894	8.21
348.104	9.2
348.314	8.23
348.524	8.47
348.734	10.59
348.944	11.74
349.154	12.18
349.364	13.22
349.574	12.97
349.784	12.08
349.994	13.06
350.204	14.13
350.413	10.65
350.623	9.82
350.833	7.65
351.043	3.44
351.253	1.72
351.463	-1
351.672	-2.48
351.882	0.74
352.092	2.79
352.302	3.23
352.511	3.71
352.721	5.85
352.931	8.53
353.141	9.21
353.35	11.72
353.56	12.65
353.77	12.68
353.979	11.88
354.189	9.07
354.399	9
354.608	8.74
354.818	6.4
355.027	4.83
355.237	3.02
355.447	4.3
355.656	2.81
355.866	2.69
356.075	2.63
356.285	3.72
356.494	4.04
356.704	3.75
356.913	3.85
357.123	6.73
357.332	7
357.542	6.92
357.751	6.01
357.96	6.36
358.17	7.1
358.379	8.39
358.589	9.52
358.798	9.83
359.007	10.95
359.217	9.85
359.426	8.49
359.635	9.03
359.845	9.84
360.054	10.14
360.263	8.94
360.472	7.84
360.682	7.43
360.891	6.31
361.1	6.48
361.309	5.48
361.519	4.67
361.728	4.66
361.937	4.37
362.146	3.26
362.355	2.98
362.564	3.91
362.774	5.19
362.983	5.86
363.192	6.93
363.401	5.19
363.61	4.36
363.819	5.81
364.028	5.55
364.237	5.73
364.446	6.03
364.655	5.55
364.864	8.03
365.073	8.36
365.282	6.7
365.491	7.47
365.7	9.26
365.909	8.93
366.118	9.5
366.327	9.9
366.536	10.23
366.745	11.06
366.954	10.44
367.162	9.45
367.371	9.16
367.58	10.03
367.789	7.96
367.998	6.86
368.207	8.46
368.415	8.01
368.624	7.99
368.833	7.23
369.042	6.46
369.25	6.47
369.459	6.04
369.668	4.19
369.877	4.04
370.085	3.86
370.294	5.66
370.503	5.12
370.711	5.78
370.92	4.13
371.129	4.67
371.337	3.76
371.546	6.14
371.754	6.09
371.963	7.11
372.171	7.86
372.38	7.67
372.589	6.55
372.797	6.47
373.006	5.58
373.214	6.67
373.423	7.69
373.631	9.11
373.84	7.19
374.048	6.17
374.256	6.69
374.465	6.52
374.673	7.4
374.882	6.2
375.09	5.76
375.298	3.48
375.507	5.16
375.715	4.98
375.923	5.6
376.132	6.12
376.34	7.71
376.548	6.5
376.757	6.64
376.965	6.08
377.173	6.3
377.381	7.39
377.59	9.69
377.798	7.09
378.006	5.71
378.214	4.49
378.423	5.23
378.631	3.95
378.839	3.98
379.047	4.26
379.255	5.73
379.463	4.93
379.671	4.87
379.879	4.76
380.088	7.45
380.296	9.82
380.504	9.66
380.712	8.6
380.92	8.89
381.128	8.91
381.336	7.91
381.544	6.43
381.752	7.19
381.96	6.05
382.168	5.66
382.376	5.49
382.584	3.91
382.791	3.64
382.999	3.21
383.207	3.91
383.415	4.47
383.623	5.23
383.831	5.31
384.039	6.9
384.247	8.02
384.454	8.29
384.662	7.42
384.87	7.28
385.078	7.35
385.285	7.51
385.493	6.16
385.701	5.71
385.909	5.72
386.116	4.63
386.324	3.43
386.532	2.46
386.739	2.21
386.947	3.62
387.155	3.57
387.362	2.51
387.57	4.04
387.778	4.78
387.985	4.41
388.193	3.17
388.4	4.66
388.608	4.56
388.816	4.18
389.023	4.03
389.231	3.51
389.438	2.53
389.646	2.04
389.853	1.97
390.061	0.96
390.268	2.91
390.475	3.49
390.683	3.2
390.89	1.61
391.098	1.95
391.305	2.74
391.512	1.6
391.72	2.3
391.927	4.1
392.135	2.75
392.342	4.09
392.549	2.32
392.756	2.51
392.964	3.87
393.171	5.98
393.378	6.44
393.586	6.47
393.793	6.96
394	7.65
394.207	7.69
394.414	8.69
394.622	7.62
394.829	7.22
395.036	7.91
395.243	7.23
395.45	7.46
395.657	7.54
395.864	6.97
396.072	6.33
396.279	5.09
396.486	4.7
396.693	5.03
396.9	5.65
397.107	6.7
397.314	5.9
397.521	4.95
397.728	3.39
397.935	2.89
398.142	2.82
398.349	2.89
398.556	2.49
398.763	2.12
398.97	1.31
399.177	0.44
399.383	1.62
399.59	1.67
399.797	1.88
400.004	3.18
400.211	3.89
400.418	3.47
400.625	3.44
400.831	3.94
401.038	4.56
401.245	5.22
401.452	6.38
401.658	4.77
401.865	5.68
402.072	6.58
402.279	6.7
402.485	6.05
402.692	7.13
402.899	7.3
403.105	7.64
403.312	7.89
403.519	8.13
403.725	8.16
403.932	8.67
404.138	8.9
404.345	7.26
404.552	6.14
404.758	6.42
404.965	5.28
405.171	5.31
405.378	4.94
405.584	4.03
405.791	2.99
405.997	2.71
406.204	3.19
406.41	1.83
406.617	3.14
406.823	3.94
407.029	4.37
407.236	5.59
407.442	5.36
407.649	5.94
407.855	6.51
408.061	7.09
408.268	6.81
408.474	5.04
408.68	4.88
408.887	4.95
409.093	5.44
409.299	3.87
409.505	2.58
409.712	2.31
409.918	2.41
410.124	3.78
410.33	3.36
410.537	3.42
410.743	3.39
410.949	3.24
411.155	3.65
411.361	2.77
411.567	3.83
411.773	4.39
411.98	4.49
412.186	4.12
412.392	2.18
412.598	1.98
412.804	2.1
413.01	3.02
413.216	3.66
413.422	3.7
413.628	3.48
413.834	2.76
414.04	3.26
414.246	3.61
414.452	3.07
414.658	3.32
414.864	4.45
415.07	4.04
415.275	2.92
415.481	2.46
415.687	1.59
415.893	2.19
416.099	3.34
416.305	2.59
416.511	2.77
416.716	3.35
416.922	3.31
417.128	2.48
417.334	2.95
417.539	3.55
417.745	3.16
417.951	3.29
418.157	3.5
418.362	2.91
418.568	3.12
418.774	2.65
418.979	1.9
419.185	2.39
419.391	2.29
419.596	1.84
419.802	1.85
420.008	2.07
420.213	-1.92
420.419	-2.21
420.624	-2.27
420.83	-2.18
421.035	-2.11
421.241	-1.33
421.446	-1.83
421.652	-1.62
421.857	-1.62
422.063	-1.28
422.268	-1.29
422.474	2.5
422.679	2.47
422.885	2.74
423.09	2.58
423.295	2.59
423.501	2.39
423.706	2.69
423.911	3.08
424.117	3.01
424.322	2.93
424.527	2.9
424.733	3.23
424.938	3.41
425.143	3.24
425.349	3.22
425.554	2.82
425.759	2.99
425.964	2.69
426.169	2.6
426.375	2.74
426.58	2.97
426.785	3.34
426.99	3.59
427.195	3.7
427.4	3.99
427.605	4.42
427.811	5.51
428.016	5.23
428.221	5.23
428.426	4.01
428.631	3.68
428.836	3.59
429.041	3.44
429.246	3.3
429.451	3.82
429.656	2.94
429.861	2.49
430.066	2.18
430.271	2.36
430.476	2.94
430.681	3.5
430.886	3.44
431.09	3.38
431.295	3.1
431.5	2.76
431.705	1.89
431.91	2.28
432.115	2.92
432.32	2.18
432.524	2.45
432.729	2.11
432.934	2.19
433.139	2.68
433.343	2.23
433.548	2.75
433.753	3.16
433.958	3.63
434.162	3.12
434.367	3.16
434.572	3.41
434.776	3.11
434.981	2.91
435.186	2.73
435.39	3.42
435.595	3.76
435.799	2.79
436.004	2.55
436.209	1.93
436.413	2.09
436.618	1.31
436.822	2.01
437.027	1.48
437.231	1.75
437.436	1.32
437.64	0.67
437.845	0.82
438.049	1.05
438.253	0.71
438.458	0.93
438.662	1.1
438.867	1.27
439.071	0.82
439.275	0.95
439.48	0.46
439.684	0.73
439.888	1.13
440.093	0.94
440.297	1.26
440.501	1.83
440.706	1.73
440.91	1.98
441.114	1.79
441.318	2.29
441.523	1.89
441.727	2.36
441.931	2.53
442.135	1.77
442.339	1.87
442.543	2.12
442.748	2.27
442.952	2.72
443.156	2.77
443.36	2.79
443.564	2.3
443.768	2.7
443.972	2.75
444.176	2.11
444.38	2.46
444.584	2.92
444.788	2.6
444.992	2.61
445.196	2.37
445.4	2.41
445.604	2.13
445.808	2.11
446.012	2.52
446.216	2.33
446.42	2.75
446.624	2.67
446.828	2.21
447.032	2.5
447.235	1.98
447.439	1.86
447.643	2.01
447.847	2.27
448.051	2.99
448.254	2.09
448.458	2.37
448.662	3.27
448.866	3.31
449.069	3.27
449.273	2.43
449.477	2.52
449.681	3.02
449.884	3.14
450.088	3.32
450.292	3.36
450.495	4.58
450.699	4.38
450.902	4.46
451.106	4.08
451.31	4.22
451.513	5.02
451.717	5.47
451.92	5.04
452.124	5.02
452.327	5.06
452.531	4.38
452.734	4.27
452.938	3.75
453.141	3.21
453.345	3.58
453.548	3.52
453.752	2.86
453.955	3.05
454.158	2.99
454.362	3.22
454.565	3.34
454.769	3.12
454.972	2.96
455.175	2.89
455.379	2.26
455.582	2.72
455.785	3.16
455.988	3.23
456.192	2.53
456.395	3.2
456.598	3.31
456.801	2.78
457.005	3.64
457.208	2.59
457.411	3.4
457.614	3.84
457.817	3.46
458.021	3.27
458.224	3.42
458.427	3.26
458.63	3.33
458.833	2.62
459.036	2.87
459.239	2.46
459.442	2.53
459.645	2.43
459.848	2.37
460.051	2.31
460.254	2.01
460.457	1.98
460.66	2.29
460.863	1.38
461.066	1.42
461.269	1.54
461.472	1.12
461.675	1.84
461.878	1.29
462.081	1.35
462.284	0.99
462.486	1.36
462.689	0.88
462.892	0.8
463.095	1.31
463.298	1.74
463.5	1.62
463.703	2.42
463.906	2.26
464.109	2.08
464.311	1.57
464.514	2.01
464.717	1.76
464.92	2.14
465.122	2.14
465.325	1.85
465.528	2.2
465.73	2.17
465.933	2.49
466.135	2.99
466.338	2.8
466.541	2.71
466.743	2.56
466.946	2.72
467.148	2.7
467.351	2.3
467.553	3.03
467.756	2.61
467.958	2.61
468.161	1.71
468.363	1.75
468.566	2.19
468.768	2.49
468.971	2.5
469.173	1.91
469.375	1.59
469.578	2.12
469.78	1.75
469.983	1.91
470.185	2.31
470.387	2.64
470.59	2.14
470.792	2.36
470.994	2.74
471.196	2.64
471.399	3.56
471.601	3.97
471.803	3.53
472.005	3.32
472.208	3.39
472.41	2.77
472.612	2.59
472.814	2.26
473.016	2.81
473.218	2.33
473.421	2.16
473.623	1.95
473.825	1.86
474.027	2.27
474.229	2.36
474.431	2.08
474.633	2.22
474.835	2.02
475.037	2.17
475.239	1.33
475.441	1.63
475.643	1.36
475.845	1.35
476.047	1.33
476.249	1.65
476.451	1.44
476.653	2.15
476.855	2.31
477.057	2.61
477.258	2.57
477.46	2.97
477.662	2.86
477.864	3.01
478.066	3.15
478.268	3.04
478.469	2.58
478.671	3.07
478.873	2.35
479.075	2.4
479.276	2.64
479.478	2.7
479.68	2.93
479.882	2.71
480.083	2.64
480.285	2.57
480.487	2.61
480.688	2.7
480.89	2.29
481.091	2.25
481.293	2.15
481.495	1.99
481.696	2.19
481.898	2.1
482.099	2.16
482.301	2.26
482.502	2.21
482.704	2.21
482.905	2.32
483.107	2.26
483.308	2.22
483.51	2.3
483.711	2.35
483.913	2.32
484.114	2.21
484.315	2.36
484.517	2.5
484.718	2.41
484.92	2.39
485.121	2.12
485.322	2.32
485.524	2.42
485.725	2.32
485.926	2.29
486.127	2.21
486.329	2.13
486.53	2.05
486.731	2.15
486.932	2.22
487.134	2.17
487.335	2.28
487.536	2.51
487.737	2.48
487.938	2.41
488.139	2.55
488.341	2.44
488.542	2.63
488.743	2.44
488.944	2.56
489.145	2.62
489.346	2.92
489.547	2.87
489.748	2.54
489.949	2.67
490.15	2.86
490.351	2.89
490.552	2.88
490.753	2.9
490.954	2.99
491.155	2.73
491.356	2.63
491.557	2.59
491.758	2.75
491.959	2.7
492.159	2.55
492.36	2.46
492.561	2.27
492.762	2.66
492.963	2.37
493.164	2.66
493.364	2.64
493.565	2.44
493.766	2.31
493.967	2.1
494.167	1.85
494.368	1.78
494.569	1.23
494.769	1.16
494.97	0.9
495.171	1.56
495.371	1.61
495.572	1.62
495.773	1.99
495.973	2.09
496.174	2.16
496.375	2.42
496.575	1.99
496.776	2.48
496.976	2.22
497.177	2.62
497.377	2.13
497.578	1.41
497.778	1.97
497.979	1.68
498.179	1.67
498.38	1.55
498.58	1.48
498.78	2.15
498.981	2.15
499.181	2.08
499.382	2.09
499.582	2.16
499.782	2.56
499.983	1.68
500.183	1.98
500.383	2.09
500.584	2.46
500.784	2.59
500.984	2.73
501.184	2.29
501.385	2.93
501.585	2.87
501.785	2.43
501.985	2.48
502.185	3.11
502.386	3.66
502.586	3.25
502.786	3.2
502.986	3.55
503.186	3.55
503.386	3.92
503.586	3.73
503.786	3.57
503.987	4.18
504.187	3.99
504.387	3.86
504.587	3.38
504.787	3.2
504.987	3.01
505.187	3.12
505.387	2.76
505.587	2.4
505.786	2.46
505.986	2.35
506.186	2.31
506.386	2.46
506.586	2.12
506.786	2.38
506.986	2.64
507.186	2.88
507.386	3.04
507.585	3.87
507.785	4.58
507.985	4.59
508.185	4.59
508.384	4.53
508.584	4.84
508.784	4.99
508.984	5.07
509.183	5.5
509.383	5.35
509.583	4.91
509.782	4.06
509.982	4.05
510.182	4.16
510.381	4.41
510.581	4.53
510.781	4.32
510.98	4.71
511.18	4.45
511.379	4.52
511.579	4.46
511.778	4.77
511.978	5.38
512.177	5.61
512.377	5.49
512.576	5.68
512.776	6.06
512.975	6.33
513.175	5.77
513.374	5.88
513.573	5.55
513.773	5.47
513.972	5.72
514.172	5.15
514.371	5.02
514.57	4.75
514.77	4.21
514.969	3.87
515.168	3.63
515.367	3.77
515.567	3.34
515.766	3.34
515.965	3.85
516.164	3.56
516.364	3.89
516.563	3.6
516.762	4
516.961	4.01
517.16	3.82
517.359	3.85
517.559	4.09
517.758	4.42
517.957	4.47
518.156	4.48
518.355	4.65
518.554	4.92
518.753	4.96
518.952	4.6
519.151	4.8
519.35	5.07
519.549	5.32
519.748	5.46
519.947	5.56
520.146	5.77
520.345	5.86
520.544	5.81
520.743	5.68
520.942	5.62
521.141	6.35
521.339	6.56
521.538	6.82
521.737	6.76
521.936	6.9
522.135	7.01
522.333	6.9
522.532	6.55
522.731	6.54
522.93	6.35
523.129	6.68
523.327	6.43
523.526	6.45
523.725	6.26
523.923	6.42
524.122	6.5
524.321	6.58
524.519	6.8
524.718	6.61
524.917	6.74
525.115	6.96
525.314	6.91
525.512	6.96
525.711	6.88
525.909	6.79
526.108	6.43
526.306	6.18
526.505	6.05
526.703	5.99
526.902	6.08
527.1	6.02
527.299	5.96
527.497	5.91
527.696	5.89
527.894	5.97
528.092	6.07
528.291	6.17
528.489	6.45
528.688	6.48
528.886	6.59
529.084	6.83
529.283	6.79
529.481	6.84
529.679	6.78
529.877	6.81
530.076	6.89
530.274	7
530.472	7.19
530.67	7.07
530.869	7
531.067	7.09
531.265	7.3
531.463	7.47
531.661	7.78
531.859	8.17
532.057	8.19
532.255	8.04
532.454	8.12
532.652	8.09
532.85	7.98
533.048	8.32
533.246	8.53
533.444	8.25
533.642	8.47
533.84	8.39
534.038	8.1
534.236	8.27
534.434	8.58
534.632	8.56
534.83	8.57
535.027	8.77
535.225	8.39
535.423	8.24
535.621	8.45
535.819	8.33
536.017	8.34
536.215	8.76
536.412	9.07
536.61	9.08
536.808	9.26
537.006	9.59
537.203	9.51
537.401	9.61
537.599	9.86
537.797	10.03
537.994	10.27
538.192	10.39
538.39	10.45
538.587	10.19
538.785	9.96
538.983	9.6
539.18	9.78
539.378	9.47
539.575	9.87
539.773	9.32
539.97	9.29
540.168	9.2
540.366	8.85
540.563	8.64
540.761	8.81
540.958	8.69
541.155	8.72
541.353	8.83
541.55	9.25
541.748	9.17
541.945	9.71
542.143	9.78
542.34	10.13
542.537	10.7
542.735	10.99
542.932	10.98
543.129	11.4
543.327	12.07
543.524	11.74
543.721	11.42
543.919	11.69
544.116	11.65
544.313	11.57
544.51	11.2
544.708	11.2
544.905	10.74
545.102	10.69
545.299	11
545.496	10.36
545.693	10.61
545.891	10.94
546.088	10.86
546.285	10.77
546.482	11.23
546.679	11.67
546.876	11.88
547.073	12.96
547.27	13.11
547.467	13.01
547.664	13.75
547.861	13.87
548.058	13.77
548.255	14.24
548.452	14.14
548.649	13.92
548.846	14.07
549.043	14.08
549.24	13.65
549.437	13.94
549.633	13.55
549.83	13.32
550.027	14.13
550.224	14.88
550.421	14.42
550.618	15.09
550.814	15.73
551.011	15.77
551.208	15.64
551.405	16.3
551.601	15.91
551.798	16.51
551.995	16.71
552.191	16.03
552.388	16.07
552.585	16.55
552.781	16.98
552.978	16.69
553.175	16.87
553.371	17.33
553.568	16.7
553.764	16.98
553.961	16.85
554.157	17.11
554.354	17.91
554.55	17.84
554.747	17.98
554.943	17
555.14	16.7
555.336	16.91
555.533	16.61
555.729	16.93
555.926	16.7
556.122	17.43
556.318	17.3
556.515	17.31
556.711	17.93
556.907	18.25
557.104	18.76
557.3	19.6
557.496	18.97
557.693	19.73
557.889	20.31
558.085	21.32
558.281	20.97
558.478	21.7
558.674	21.58
558.87	21.18
559.066	21.33
559.262	21.26
559.459	21.2
559.655	21.66
559.851	20.85
560.047	21.2
560.243	21.21
560.439	21.18
560.635	20.18
560.831	20.21
561.027	20.5
561.223	20.57
561.419	21.05
561.615	21.42
561.811	21.07
562.007	21.53
562.203	21.4
562.399	21.42
562.595	21.88
562.791	22.24
562.987	21.51
563.183	21.66
563.379	21.07
563.575	20.3
563.771	20.18
563.966	20.43
564.162	20.11
564.358	19.34
564.554	19.2
564.75	19.07
564.945	19.52
565.141	19.8
565.337	19.57
565.533	19.54
565.728	20.43
565.924	19.34
566.12	19.27
566.315	19.35
566.511	19.84
566.707	20.11
566.902	20.5
567.098	20.23
567.293	20.93
567.489	21.09
567.684	21.22
567.88	20.48
568.076	20.96
568.271	20.92
568.467	21.04
568.662	20.48
568.858	19.83
569.053	19.55
569.248	19.81
569.444	19.33
569.639	18.97
569.835	18.95
570.03	19.6
570.225	19.46
570.421	20.07
570.616	20.1
570.812	20.22
571.007	21.15
571.202	21.53
571.397	21.52
571.593	21.76
571.788	22.37
571.983	21.85
572.178	22
572.374	22.61
572.569	22.25
572.764	22.73
572.959	23.24
573.154	22.96
573.35	22.45
573.545	22.74
573.74	23.28
573.935	23.18
574.13	23.97
574.325	23.58
574.52	23.91
574.715	23.71
574.91	23.55
575.105	23.91
575.3	23.87
575.495	24.76
575.69	24.77
575.885	24.48
576.08	24.82
576.275	24.8
576.47	24.6
576.665	24.45
576.86	25.2
577.055	25.43
577.25	24.65
577.444	25.02
577.639	24.65
577.834	24.52
578.029	24.31
578.224	23.65
578.418	23.93
578.613	24.1
578.808	23.84
579.003	23.08
579.197	23.55
579.392	24.46
579.587	24.21
579.781	24.18
579.976	24.77
580.171	24.67
580.365	25.34
580.56	24.81
580.755	25.76
580.949	26.79
581.144	27.2
581.338	26.74
581.533	26.76
581.727	27.11
581.922	27.3
582.116	26.83
582.311	27.75
582.505	26.78
582.7	28.27
582.894	28.16
583.089	28.53
583.283	29.14
583.478	29.05
583.672	28.89
583.866	28.33
584.061	28.64
584.255	28.77
584.449	28.41
584.644	29.29
584.838	28.86
585.032	28.73
585.226	28.11
585.421	27.81
585.615	28.34
585.809	28.35
586.003	28.35
586.198	27.58
586.392	27.22
586.586	26.86
586.78	26.82
586.974	26.22
587.168	26.1
587.363	25.44
587.557	25.42
587.751	25.06
587.945	24.85
588.139	25.27
588.333	24.99
588.527	25.13
588.721	24.28
588.915	24.04
589.109	24.01
589.303	23.7
589.497	23.32
589.691	23.03
589.885	22.16
590.079	22.77
590.273	22.47
590.466	23.26
590.66	23.14
590.854	24.31
591.048	24.91
591.242	25.34
591.436	25.48
591.629	25.89
591.823	25.79
592.017	26.51
592.211	26.21
592.404	26.2
592.598	26.14
592.792	26.56
592.986	26.15
593.179	25.73
593.373	25.61
593.567	26.5
593.76	26.87
593.954	27.19
594.147	26.89
594.341	26.21
594.535	26.36
594.728	26.05
594.922	25.75
595.115	26.21
595.309	26.09
595.502	25.71
595.696	25.2
595.889	25.44
596.083	25.22
596.276	24.81
596.47	25.58
596.663	25.75
596.856	25.57
597.05	25.94
597.243	25.71
597.437	26.21
597.63	26.61
597.823	26.5
598.017	26.13
598.21	26.62
598.403	28.12
598.596	27.47
598.79	27.98
598.983	27.94
599.176	27.51
599.369	28.36
599.563	28.29
599.756	28.91
599.949	29.4
600.142	29.81
600.335	29.48
600.528	29.37
600.722	29.82
600.915	28.93
601.108	29.17
601.301	29.43
601.494	28.72
601.687	28.78
601.88	28.42
602.073	27.61
602.266	27.45
602.459	27.3
602.652	26.69
602.845	26.75
603.038	26.36
603.231	26.82
603.424	26.15
603.617	26.06
603.809	26.1
604.002	25.39
604.195	25.9
604.388	26.34
604.581	26.66
604.774	27.18
604.966	27.39
605.159	27.81
605.352	27.45
605.545	27.41
605.737	27.93
605.93	27.49
606.123	28.85
606.316	28.6
606.508	28.15
606.701	27.54
606.894	27.71
607.086	27.54
607.279	27.62
607.471	27.29
607.664	28.01
607.857	27.67
608.049	28.27
608.242	27.59
608.434	28.42
608.627	28.15
608.819	28.97
609.012	29.23
609.204	28.75
609.397	29.53
609.589	30.34
609.782	30.36
609.974	30.62
610.166	30.6
610.359	30.88
610.551	30.63
610.743	30.61
610.936	30.13
611.128	29.14
611.32	29.1
611.513	28.32
611.705	27.78
611.897	27.63
612.09	27.88
612.282	27.68
612.474	27.86
612.666	28.35
612.858	29.3
613.051	29.59
613.243	30.99
613.435	31.69
613.627	32.52
613.819	32.54
614.011	33.01
614.203	32.89
614.395	32.61
614.588	32.44
614.78	32.96
614.972	32.7
615.164	33.02
615.356	32.91
615.548	33.93
615.74	33.75
615.932	34.2
616.124	34.94
616.315	34.63
616.507	36.06
616.699	36.37
616.891	35.7
617.083	36
617.275	36.42
617.467	34.93
617.659	34.69
617.85	34.95
618.042	34.85
618.234	34.54
618.426	34.49
618.618	34.06
618.809	34.05
619.001	34.03
619.193	33.81
619.384	33.42
619.576	34.96
619.768	34.36
619.959	34.16
620.151	34.32
620.343	35
620.534	35.76
620.726	34.9
620.917	36.25
621.109	35.6
621.301	35.86
621.492	36.44
621.684	36.57
621.875	37.25
622.067	36.58
622.258	35.54
622.45	34.89
622.641	34.4
622.832	34.93
623.024	34.11
623.215	34.45
623.407	33.89
623.598	32.86
623.789	32.12
623.981	31.49
624.172	31.59
624.363	32.56
624.555	32.36
624.746	32.73
624.937	33.15
625.129	32.18
625.32	30.69
625.511	29.58
625.702	30.13
625.893	29.51
626.085	29.92
626.276	29.71
626.467	29.75
626.658	29.9
626.849	29.57
627.04	28.82
627.231	29.82
627.422	31.02
627.614	32.06
627.805	31
627.996	31.3
628.187	30.31
628.378	31.42
628.569	31.79
628.76	32.2
628.951	32.32
629.142	32.57
629.332	32.52
629.523	32.52
629.714	33.38
629.905	33.87
630.096	33.72
630.287	34.45
630.478	34.57
630.669	34.2
630.859	34.25
631.05	34.68
631.241	35.02
631.432	35.17
631.623	36.03
631.813	35.53
632.004	36.33
632.195	35.94
632.385	36.1
632.576	35.11
632.767	35.19
632.957	33.87
633.148	33.25
633.339	33.06
633.529	32.59
633.72	31.96
633.91	32.33
634.101	31.5
634.292	32.47
634.482	33.1
634.673	33.21
634.863	33.24
635.054	34.23
635.244	35.06
635.435	35.51
635.625	35.61
635.815	36.01
636.006	35.42
636.196	36.71
636.387	36.42
636.577	36.11
636.767	37.18
636.958	37.31
637.148	37.12
637.338	35.64
637.529	34.85
637.719	34.44
637.909	34.29
638.099	34.53
638.29	33.61
638.48	33.34
638.67	33.43
638.86	33.31
639.05	33.37
639.241	33.44
639.431	35
639.621	35.72
639.811	36.18
640.001	37.19
640.191	38.54
640.381	40.06
640.571	40.6
640.761	40.87
640.951	40.44
641.141	41.49
641.331	41.84
641.521	42.13
641.711	42.31
641.901	42.7
642.091	42.31
642.281	41.5
642.471	40.41
642.661	39.94
642.851	39.49
643.041	38.93
643.231	39.14
643.42	38.11
643.61	38.06
643.8	37.73
643.99	37.48
644.18	36.77
644.369	36.88
644.559	36.89
644.749	36.97
644.939	36.95
645.128	37.22
645.318	36.12
645.508	36.71
645.697	36.1
645.887	36.15
646.076	36.84
646.266	37.05
646.456	36.06
646.645	37.08
646.835	38.05
647.024	36.32
647.214	36.36
647.403	36.54
647.593	37.19
647.782	36.69
647.972	36.68
648.161	36.94
648.351	37.77
648.54	38.6
648.73	38.15
648.919	37.48
649.108	37.74
649.298	38.13
649.487	37.31
649.677	37.15
649.866	37.42
650.055	37.21
650.244	36.01
650.434	35.16
650.623	34.46
650.812	33.67
651.002	34.45
651.191	35.18
651.38	35.08
651.569	36.49
651.758	37.72
651.947	38.59
652.137	38.01
652.326	38.76
652.515	39.16
652.704	40.7
652.893	41.46
653.082	41.92
653.271	42.86
653.46	42.62
653.649	41.03
653.838	40.28
654.027	39.83
654.216	39.38
654.405	38.25
654.594	37.97
654.783	38.06
654.972	37.88
655.161	38.07
655.35	36.62
655.539	37.1
655.728	37.36
655.916	36.49
656.105	36.52
656.294	37.22
656.483	36.42
656.672	35.51
656.86	34.79
657.049	34.37
657.238	33.42
657.427	34.61
657.615	33.77
657.804	33.52
657.993	33.98
658.181	34.08
658.37	34.86
658.559	36.08
658.747	37.01
658.936	37.24
659.125	35.81
659.313	35.69
659.502	35.88
659.69	36.52
659.879	37.65
660.067	37.08
660.256	36.88
660.444	36.19
660.633	36.23
660.821	36.23
661.01	36.26
661.198	38.69
661.387	40.33
661.575	39.89
661.763	39.17
661.952	38.9
662.14	40.24
662.328	41.31
662.517	42.43
662.705	43.57
662.893	43.69
663.082	43.59
663.27	44.3
663.458	43.85
663.646	43.95
663.834	45.75
664.023	45.9
664.211	45.68
664.399	45.15
664.587	45.07
664.775	44.53
664.963	44.6
665.152	44.42
665.34	44.2
665.528	43.48
665.716	43.16
665.904	42.16
666.092	41.74
666.28	41.89
666.468	40.76
666.656	39.55
666.844	38.69
667.032	38.62
667.22	38.95
667.408	39.08
667.596	39.87
667.784	40.01
667.971	40.96
668.159	41.43
668.347	40.41
668.535	41.99
668.723	43.66
668.911	44.54
669.098	44.01
669.286	42.95
669.474	43.12
669.662	42.13
669.849	42.29
670.037	40.8
670.225	40.41
670.413	41.76
670.6	41.83
670.788	40.31
670.976	39.68
671.163	40.7
671.351	41
671.538	42.23
671.726	42.55
671.913	42.54
672.101	44.68
672.289	43.93
672.476	43.57
672.664	42.37
672.851	43.24
673.039	43
673.226	43.4
673.413	42.77
673.601	41.49
673.788	42.92
673.976	41.95
674.163	40.93
674.35	41.75
674.538	41.81
674.725	41.78
674.912	41.5
675.1	41.47
675.287	41.11
675.474	42.79
675.662	42.62
675.849	39.93
676.036	40.92
676.223	41.2
676.411	40.52
676.598	41.15
676.785	40.85
676.972	41.45
677.159	41.49
677.346	40.66
677.533	39.82
677.721	39.37
677.908	40.95
678.095	40.47
678.282	40.1
678.469	41.5
678.656	40.22
678.843	40.33
679.03	39.71
679.217	39.94
679.404	40.2
679.591	39.85
679.778	39.82
679.964	39.93
680.151	40.64
680.338	40.17
680.525	39.49
680.712	39.84
680.899	40.53
681.086	41.29
681.272	41.68
681.459	42.04
681.646	43.33
681.833	43.3
682.02	42.16
682.206	42.99
682.393	43.5
682.58	43.44
682.766	44.02
682.953	44.38
683.14	43.96
683.326	42.93
683.513	42.8
683.7	41.83
683.886	42.53
684.073	42.62
684.259	41.56
684.446	40.49
684.632	40.93
684.819	40.12
685.005	39.57
685.192	39.68
685.378	39.39
685.565	39.62
685.751	41.21
685.938	41.23
686.124	41.83
686.31	41.6
686.497	43.29
686.683	43.04
686.87	43.1
687.056	42.48
687.242	41.13
687.429	41.11
687.615	39.94
687.801	39.4
687.987	38.86
688.174	38.66
688.36	38.88
688.546	37.27
688.732	37.72
688.918	38.85
689.105	40.35
689.291	41.23
689.477	42.3
689.663	43.45
689.849	42.73
690.035	43.17
690.221	43.03
690.407	43.77
690.593	46.32
690.779	45.31
690.965	44.57
691.151	44.08
691.337	45.1
691.523	43.62
691.709	41.94
691.895	42.67
692.081	42.24
692.267	42.1
692.453	42.2
692.639	41.88
692.825	41.44
693.011	40.97
693.196	40.46
693.382	39.97
693.568	40
693.754	41.84
693.94	42.52
694.125	42.93
694.311	41.88
694.497	40.95
694.682	40.21
694.868	40.16
695.054	41.18
695.239	40.03
695.425	39.78
695.611	39.98
695.796	39.07
695.982	37.11
696.168	36.14
696.353	36.63
696.539	37.43
696.724	36.13
696.91	35.43
697.095	35.22
697.281	34.7
697.466	34.58
697.652	34.08
697.837	34.29
698.023	34.31
698.208	34.62
698.393	35.09
698.579	35.02
698.764	35.25
698.949	37.08
699.135	37.48
699.32	39.12
699.505	39.14
699.691	39.58
699.876	40.12
700.061	40.22
700.246	40.98
700.432	42.62
700.617	42.84
700.802	44.18
700.987	43.55
701.172	44.26
701.358	43.71
701.543	43.99
701.728	45.94
701.913	47.96
702.098	50.62
702.283	50.96
702.468	48.21
702.653	49.57
702.838	49.5
703.023	51.2
703.208	51.49
703.393	51.2
703.578	50.77
703.763	52.95
703.948	51.1
704.133	51.77
704.318	52.49
704.503	53.61
704.688	52.97
704.873	51.86
705.057	49.24
705.242	46.38
705.427	48.13
705.612	48.03
705.797	45.38
705.981	43.97
706.166	42.87
706.351	41.6
706.536	42.03
706.72	40.64
706.905	42.3
707.09	44.6
707.274	44.46
707.459	42.77
707.644	44.25
707.828	46.84
708.013	49.47
708.197	50.77
708.382	51.62
708.567	52.31
708.751	52.24
708.936	50.94
709.12	50.2
709.305	51.59
709.489	52.78
709.673	52.65
709.858	50.76
710.042	51.87
710.227	50.25
710.411	50.16
710.596	48.88
710.78	49.3
710.964	49.78
711.149	50.03
711.333	48.61
711.517	50.79
711.702	51.1
711.886	51.06
712.07	49.96
712.254	50.16
712.438	48.97
712.623	49.32
712.807	48.42
712.991	47.83
713.175	47.98
713.359	49.93
713.544	48.26
713.728	46.93
713.912	45.16
714.096	44.43
714.28	43.99
714.464	44.72
714.648	45.05
714.832	44.31
715.016	44.02
715.2	42.43
715.384	39.01
715.568	40.18
715.752	40.64
715.936	42.13
716.12	41.13
716.304	40.06
716.488	40.78
716.671	38.17
716.855	37.93
717.039	38.58
717.223	37.1
717.407	39.34
717.59	38.26
717.774	36.41
717.958	37.39
718.142	36.73
718.325	37.12
718.509	36.3
718.693	39.6
718.877	44.7
719.06	44.81
719.244	46.74
719.428	46.62
719.611	47.08
719.795	48.16
719.978	46.5
720.162	46.22
720.345	48.32
720.529	47.42
720.713	46.48
720.896	40.46
721.08	43.35
721.263	40.86
721.446	41.84
721.63	37.06
721.813	36.78
721.997	36.11
722.18	36.09
722.364	34.94
722.547	35.23
722.73	34.7
722.914	39.26
723.097	35.89
723.28	36.96
723.464	36.12
723.647	37.67
723.83	36.11
724.013	36.84
724.197	39.33
724.38	38.21
724.563	38.05
724.746	36.89
724.929	35.53
725.112	37.45
725.296	39.07
725.479	38.86
725.662	40.19
725.845	42.04
726.028	40.95
726.211	37.75
726.394	38.27
726.577	39
726.76	40.39
726.943	38.61
727.126	36.06
727.309	37.44
727.492	36.23
727.675	37.07
727.858	36.86
728.041	38.17
728.224	38.78
728.407	40.28
728.589	41.04
728.772	42.56
728.955	42.05
729.138	43.18
729.321	41.42
729.503	43.83
729.686	43.9
729.869	43.14
730.052	43.32
730.234	44.52
730.417	42.94
730.6	40.22
730.782	38.06
730.965	39.05
731.148	39.98
731.33	39.63
731.513	37.14
731.695	36.19
731.878	38.47
732.061	40.76
732.243	42.64
732.426	45.58
732.608	45.3
732.791	45.84
732.973	45.93
733.156	44.72
733.338	48.22
733.52	49.83
733.703	49.78
733.885	49.94
734.068	49.19
734.25	49.23
734.432	48.74
734.615	52.04
734.797	56.71
734.979	58.82
735.162	60.58
735.344	58.15
735.526	60.06
735.708	62.34
735.891	61.75
736.073	61.14
736.255	57.69
736.437	57.93
736.619	57.75
736.802	58.92
736.984	59.79
737.166	58.6
737.348	62.71
737.53	62.48
737.712	63.07
737.894	64.13
738.076	63.87
738.258	66.94
738.44	66.73
738.622	68.83
738.804	64.93
738.986	64.3
739.168	63.95
739.35	61.13
739.532	66.1
739.714	63.66
739.896	60.84
740.078	61.57
740.259	62.98
740.441	64.52
740.623	63.88
740.805	65.14
740.987	65.6
741.168	67.88
741.35	70.18
741.532	67.32
741.714	69.13
741.895	71.27
742.077	74.49
742.259	71.53
742.44	73.69
742.622	74.1
742.804	74.67
742.985	76.01
743.167	75.99
743.348	76.25
743.53	75.82
743.711	81.6
743.893	83.76
744.075	80.97
744.256	82.44
744.438	78.58
744.619	77.52
744.8	80.72
744.982	81.27
745.163	79.96
745.345	80.17
745.526	84.36
745.707	79.17
745.889	81.93
746.07	82.67
746.252	83.91
746.433	84.23
746.614	86.49
746.795	84.15
746.977	81.36
747.158	82.43
747.339	76.97
747.52	72.02
747.702	74.49
747.883	68.81
748.064	69.04
748.245	69.68
748.426	70.14
748.607	70.6
748.788	69.85
748.97	71.01
749.151	68.26
749.332	71.08
749.513	71.78
749.694	71.05
749.875	72.57
750.056	73.49
750.237	71.66
750.418	73.42
750.599	71.25
750.78	71.19
750.96	73.38
751.141	73.89
751.322	77.91
751.503	79.48
751.684	78.57
751.865	78.63
752.046	78.89
752.226	77.76
752.407	76.68
752.588	76.22
752.769	73.67
752.949	75.24
753.13	78.4
753.311	73.44
753.492	72.52
753.672	71.87
753.853	71.71
754.034	67.2
754.214	68.13
754.395	73.06
754.575	77.48
754.756	80.23
754.937	81.73
755.117	86.21
755.298	86.4
755.478	86.38
755.659	87.64
755.839	85.05
756.02	88.88
756.2	87.38
756.381	81.78
756.561	78.59
756.741	75.67
756.922	69.8
757.102	59.74
757.283	59.04
757.463	56.23
757.643	52.89
757.823	49.44
758.004	47.58
758.184	46.15
758.364	44.7
758.545	42.17
758.725	41.59
758.905	40.54
759.085	44.26
759.265	43.42
759.446	43.67
759.626	46.54
759.806	46.54
759.986	44.74
760.166	43.69
760.346	43.29
760.526	45.99
760.706	42.66
760.886	43.82
761.066	40.9
761.246	39.45
761.426	37.42
761.606	35.69
761.786	36.37
761.966	33.83
762.146	34.35
762.326	36.18
762.506	34.97
762.686	34.47
762.866	33.87
763.046	33.31
763.225	35.06
763.405	34.78
763.585	35.14
763.765	35.74
763.945	40.34
764.124	41.56
764.304	44.48
764.484	44.95
764.664	49.99
764.843	55.13
765.023	63.13
765.203	66.63
765.382	72.63
765.562	74.9
765.741	81.52
765.921	80.08
766.101	83.97
766.28	84.31
766.46	85.07
766.639	84.68
766.819	81.59
766.998	82.23
767.178	79.32
767.357	77.7
767.537	80.2
767.716	77.1
767.896	80.19
768.075	81.07
768.254	76.11
768.434	78.14
768.613	79.56
768.792	80.99
768.972	79.2
769.151	85.55
769.33	90.64
769.51	88.93
769.689	96.53
769.868	95.1
770.047	90.46
770.226	98.01
770.406	103.05
770.585	104.76
770.764	109.49
770.943	106.96
771.122	101.59
771.301	105.13
771.48	106.32
771.66	99.73
771.839	101.5
772.018	107.08
772.197	100.61
772.376	102.31
772.555	95.53
772.734	92.73
772.913	99.96
773.092	98.97
773.271	95.73
773.449	97.27
773.628	99.22
773.807	98
773.986	94.5
774.165	102.61
774.344	98.75
774.523	105.46
774.701	96.85
774.88	92.3
775.059	100.65
775.238	102.03
775.417	105.74
775.595	111.43
775.774	104.05
775.953	104.85
776.131	106.91
776.31	104.84
776.489	109.84
776.667	115.9
776.846	110.88
777.025	109.34
777.203	102.32
777.382	99.75
777.56	101.33
777.739	111.2
777.917	110.55
778.096	105.18
778.274	110.33
778.453	103.87
778.631	102.92
778.81	112.38
778.988	113.81
779.166	125.27
779.345	122.32
779.523	114.07
779.702	111.72
779.88	109.78
780.058	109.95
780.237	104.71
780.415	107.27
780.593	106.21
780.771	108.82
780.95	101.83
781.128	99.28
781.306	106.4
781.484	115.25
781.662	120.71
781.841	128.5
782.019	122.66
782.197	123.37
782.375	129.29
782.553	139.67
782.731	136.75
782.909	155.72
783.087	141.79
783.265	130.21
783.443	124.82
783.621	107.31
783.799	105.44
783.977	105.6
784.155	107.31
784.333	97.69
784.511	92.44
784.689	96.62
784.867	90.49
785.045	90.93
785.223	91.77
785.4	86.12
785.578	96.38
785.756	97.75
785.934	96.76
786.112	92.82
786.289	92.11
786.467	85.84
786.645	77.19
786.823	76.93
787	83.35
787.178	79.14
787.356	78.75
787.533	74.1
787.711	72.84
787.889	72.23
788.066	75.25
788.244	82.21
788.421	86.67
788.599	90.08
788.776	87.57
788.954	89.42
789.131	95.69
789.309	101.33
789.486	99.65
789.664	98.78
789.841	105.7
790.019	106.21
790.196	99.63
790.373	92.67
790.551	97.94
790.728	100.23
790.906	95.78
791.083	99.44
791.26	85.18
791.437	92.59
791.615	91.41
791.792	89.87
791.969	89.1
792.146	73.38
792.324	87.23
792.501	92.73
792.678	89.62
792.855	76.76
793.032	72.05
793.209	73.2
793.387	71.64
793.564	70.49
793.741	68.95
793.918	72.02
794.095	83.81
794.272	81.01
794.449	73.92
794.626	79.15
794.803	84.65
794.98	83.38
795.157	84.51
795.334	87.72
795.511	88.06
795.688	93.11
795.864	87.04
796.041	90.21
796.218	91.46
796.395	85.04
796.572	77.11
796.749	71.87
796.925	67.88
797.102	66.01
797.279	63.18
797.456	62.39
797.632	60.27
797.809	59.58
797.986	60.2
798.162	55.28
798.339	58.99
798.516	58.6
798.692	64.26
798.869	61.54
799.046	62.37
799.222	71.33
799.399	73.5
799.575	77.43
799.752	85.63
799.928	84.61
800.105	86.36
800.281	95.07
800.458	102.84
800.634	109.71
800.811	116.82
800.987	120.26
801.163	108.75
801.34	113.39
801.516	97.41
801.692	93.16
801.869	94.47
802.045	91.81
802.221	90.4
802.398	85.86
802.574	83.25
802.75	89.85
802.926	94.19
803.103	90.43
803.279	92.35
803.455	102.23
803.631	103.49
803.807	101.58
803.983	111.53
804.16	115.59
804.336	110.92
804.512	125.44
804.688	125.21
804.864	125.14
805.04	144.51
805.216	131.66
805.392	117.74
805.568	117.09
805.744	116.04
805.92	111.15
806.096	105.32
806.272	104.83
806.448	95.8
806.623	97.34
806.799	94.54
806.975	89.96
807.151	78.68
807.327	83.11
807.503	78.95
807.678	80.49
807.854	73.56
808.03	76.04
808.206	75.65
808.381	80.07
808.557	83.58
808.733	74.4
808.908	76.44
809.084	82.06
809.26	83.52
809.435	86.78
809.611	83.66
809.787	92.32
809.962	78.05
810.138	80.02
810.313	73.85
810.489	63.29
810.664	63.74
810.84	71.07
811.015	85.95
811.191	92.42
811.366	105.95
811.542	113.37
811.717	105.95
811.892	128.57
812.068	122.15
812.243	118.84
812.419	133.66
812.594	116.71
812.769	114.26
812.944	103.95
813.12	88.16
813.295	82.19
813.47	72.77
813.645	70.96
813.821	60.69
813.996	70.29
814.171	77.62
814.346	80.75
814.521	79.57
814.697	73.96
814.872	67.9
815.047	66.18
815.222	58.65
815.397	73.22
815.572	83.3
815.747	87.67
815.922	70.77
816.097	71.53
816.272	65.66
816.447	61.56
816.622	60.73
816.797	64.28
816.972	57.8
817.147	55.79
817.322	48.06
817.496	44.11
817.671	45.23
817.846	41.69
818.021	44.52
818.196	48.32
818.371	56.56
818.545	47.54
818.72	46.14
818.895	52.63
819.069	43.79
819.244	39.26
819.419	39.48
819.594	33.84
819.768	37.68
819.943	31.88
820.117	29.23
820.292	26.23
820.467	27.52
820.641	25.48
820.816	24.98
820.99	25.15
821.165	26.71
821.339	26.24
821.514	26.62
821.688	25.48
821.863	25.98
822.037	25.02
822.212	25.96
822.386	24.77
822.56	28.52
822.735	27.4
822.909	28.47
823.084	27.1
823.258	24.98
823.432	25.97
823.606	30.56
823.781	30.69
823.955	34.56
824.129	34.7
824.303	38.68
824.478	32.97
824.652	36
824.826	39.51
825	40.4
825.174	41.1
825.348	39.05
825.523	35.04
825.697	35.34
825.871	30.51
826.045	32.03
826.219	35.76
826.393	35.65
826.567	36.3
826.741	32.72
826.915	30.21
827.089	32.77
827.263	35.03
827.437	33.41
827.611	38.52
827.784	44.31
827.958	36.84
828.132	30.61
828.306	29.97
828.48	22.57
828.654	27.41
828.827	34.35
829.001	38.4
829.175	35.81
829.349	35.5
829.522	32.74
829.696	35.23
829.87	50.07
830.044	48.27
830.217	56.49
830.391	76.74
830.565	76.39
830.738	76.8
830.912	59.34
831.085	64.68
831.259	70.57
831.432	55.75
831.606	55.23
831.779	46.4
831.953	48.73
832.126	50.42
832.3	42.17
832.473	39.92
832.647	39.59
832.82	43.71
832.994	40.84
833.167	40.12
833.34	39.83
833.514	36
833.687	38.74
833.86	44.99
834.034	46.43
834.207	49.28
834.38	55.8
834.553	52.76
834.727	51.19
834.9	49.02
835.073	52.34
835.246	55.22
835.419	55.16
835.593	50.29
835.766	42.58
835.939	26.64
836.112	66.13
836.285	64.68
836.458	88.81
836.631	104.58
836.804	108.5
836.977	125.3
837.15	127.98
837.323	171.43
837.496	192.94
837.669	213.97
837.842	170
838.015	124.69
838.188	105.56
838.361	106.24
838.533	95.03
838.706	90.27
838.879	72.55
839.052	93.84
839.225	79.28
839.398	72.76
839.57	58.26
839.743	57.04
839.916	52.85
840.088	53.04
840.261	54.86
840.434	53.69
840.607	54.13
840.779	61.32
840.952	56.36
841.124	65.44
841.297	101.22
841.47	132.49
841.642	119.04
841.815	181.17
841.987	189.28
842.16	263.8
842.332	206.77
842.505	169.6
842.677	147.64
842.85	113.75
843.022	101.48
843.194	50.12
843.367	41.2
843.539	28.57
843.712	19.42
843.884	28.1
844.056	2.73
844.229	18.79
844.401	41.41
844.573	85.9
844.745	122.81
844.918	177.78
845.09	294.55
845.262	248.1
845.434	362.55
845.606	735.71
845.779	-1588.64
845.951	22275
846.123	-2708.82
846.295	1967.35
846.467	-2697.37
846.639	-4530.43
846.811	1250
846.983	536.41
847.155	1032.5
847.327	805.66
847.499	395.06
847.671	359.57
847.843	480.91
848.015	486.96
848.187	416.73
848.359	196.8
848.531	245.33
848.703	295.5
848.875	315.92
849.047	1342.5
849.218	2812.5
849.39	-465.43
849.562	8920
849.734	-1225
849.905	7414.29
850.077	-404.05
850.249	-289.29
850.421	877.78
850.592	508.13
850.764	262.65
850.936	216.72
851.107	283.98
851.279	237.72
851.451	251.89
851.622	331.28
851.794	231.85
851.965	369.94
852.137	390.06
852.308	6466.67
852.48	-437.96
852.651	-293.72
852.823	-566.67
852.994	-2740.74
853.166	5162.5
853.337	-680.56
853.509	237.69
853.68	8150
853.851	427.78
854.023	262.94
854.194	332.2
854.365	246.23
854.537	134.78
854.708	95.4
854.879	80.36
855.05	154.77
855.222	163.07
855.393	322.44
855.564	189.38
855.735	179.58
855.906	223.44
856.078	270.18
856.249	186.48
856.42	323.5
856.591	487.57
856.762	-3989.47
856.933	-2711.54
857.104	-905.33
857.275	18150
857.446	1172.31
857.617	-14250
857.788	42650
857.959	473.71
858.13	1661.22
858.301	483.14
858.472	463.33
858.643	308.33
858.814	281.11
858.985	335.92
859.155	468.75
859.326	764.36
859.497	351.5
859.668	419.58
859.839	733.04
860.009	426.19
860.18	316.14
860.351	251.01
860.522	184.14
860.692	222
860.863	221.9
861.034	218.71
861.204	231.52
861.375	457.36
861.546	212.72
861.716	196.6
861.887	251.67
862.057	764.71
862.228	880.95
862.398	-75.27
862.569	-941.18
862.739	-1006.82
862.91	565.22
863.08	4100
863.251	-1871.43
863.421	-550.67
863.592	-3837.5
863.762	-325.97
863.932	929.27
864.103	-637.78
864.273	200
864.443	-79.76
864.614	60.92
864.784	79.03
864.954	72.98
865.125	42.25
865.295	53.15
865.465	63.5
865.635	63.33
865.805	40.76
865.976	53.26
866.146	78.24
866.316	79.73
866.486	64.8
866.656	71.6
866.826	76.79
866.996	83.53
867.166	88.77
867.336	99.49
867.506	101.53
867.676	133.73
867.846	156.98
868.016	127.47
868.186	194.69
868.356	709.64
868.526	502.02
868.696	-3529.41
868.866	-965.67
869.036	-2922.22
869.206	2091.89
869.376	-2496.3
869.545	2764
869.715	3500
869.885	-979.41
870.055	-548.72
870.224	267.24
870.394	291.58
870.564	443.41
870.734	559.82
870.903	218.06
871.073	384.51
871.243	388.17
871.412	323.39
871.582	627.17
871.751	-2727.27
871.921	-367.09
872.091	-110.56
872.26	-131.86
872.43	-94.38
872.599	-112.36
872.769	-96.91
872.938	-106.19
873.108	-48.89
873.277	-193.55
873.446	2261.54
873.616	-205.38
873.785	157.2
873.955	143.91
874.124	155.37
874.293	265.46
874.463	1197.3
874.632	-424.64
874.801	-394.55
874.971	-97.32
875.14	-50.13
875.309	-31.52
875.478	-131.32
875.647	-7.43
875.817	23.68
875.986	-25
876.155	14200
876.324	166.67
876.493	165.57
876.662	206.12
876.831	108.38
877	123.58
877.17	130.54
877.339	181.25
877.508	156.76
877.677	0
877.846	-45.83
878.015	-145
878.184	-66.95
878.352	-100
878.521	-173.53
878.69	22.18
878.859	14.52
879.028	61.07
879.197	78.77
879.366	59.28
879.534	54.1
879.703	68.13
879.872	55.18
880.041	57.01
880.21	56.39
880.378	59.57
880.547	51.9
880.716	50.18
880.884	37.09
881.053	34.87
881.222	31.8
881.39	30.53
881.559	35.1
881.727	31.55
881.896	23.03
882.065	24.67
882.233	19.69
882.402	23.73
882.57	20.16
882.739	22.38
882.907	6.47
883.076	13.22
883.244	4.79
883.412	-10.49
883.581	2.95
883.749	-3.76
883.918	-6.99
884.086	-3.12
884.254	-14.31
884.423	-1.55
884.591	31.62
884.759	52.45
884.927	54.08
885.096	65.49
885.264	66.47
885.432	54.89
885.6	78.6
885.769	85.37
885.937	98.3
886.105	85.61
886.273	80.65
886.441	51.4
886.609	35.23
886.777	50.7
886.945	62.75
887.113	71.08
887.281	85.71
887.449	89.93
887.617	62.31
887.785	78.45
887.953	129.85
888.121	175.13
888.289	369.17
888.457	1044.23
888.625	448.81
888.793	-594.74
888.961	881.25
889.129	2050
889.296	268.75
889.464	488.46
889.632	216.92
889.8	13.89
889.967	59.91
890.135	29.24
