Data from JASIL_3232_Reflection_1.txt Node
Date: Mon Nov 16 20:11:30 EST 2015
User: Geneva
Spectrometer: USB4E03002
Autoset integration time: false
Trigger mode: 4
Integration Time (sec): 1.000000E-1
Scans to average: 10
Electric dark correction enabled: false
Nonlinearity correction enabled: false
Boxcar width: 5
Stray light correction enabled: false
XAxis mode: Wavelengths
Stop averaging: false
Number of Pixels in Spectrum: 3648
>>>>>Begin Spectral Data<<<<<
177.575	1447.06
177.794	2534.85
178.014	1581.06
178.233	1390.06
178.452	965
178.672	1836.87
178.891	2293.08
179.11	1975.16
179.33	2192.14
179.549	1397.77
179.768	1449.35
179.987	932.95
180.207	755.46
180.426	1017.56
180.645	1176.09
180.864	1335.32
181.084	853.6
181.303	1042.28
181.522	1193.17
181.741	902.66
181.96	771.77
182.179	964.92
182.398	1271.06
182.618	4838.24
182.837	3961.73
183.056	3460.67
183.275	2061.87
183.494	4257.33
183.713	1780.11
183.932	1012.27
184.151	1559.91
184.37	1693.3
184.589	1496.35
184.808	1612.86
185.027	1027.51
185.246	872.58
185.465	914.5
185.684	1681.11
185.903	1210.53
186.122	1346.04
186.341	5662.5
186.56	2362
186.779	-4315.58
186.998	-3465.66
187.216	-1926.74
187.435	-8190.24
187.654	-4388
187.873	-6033.93
188.092	-9063.89
188.311	-30410
188.53	-3048.98
188.748	4352.7
188.967	-5440.98
189.186	4377.63
189.405	1957.65
189.623	1637.8
189.842	3114.29
190.061	4681.16
190.28	1909.04
190.498	2522.66
190.717	4777.94
190.936	3370.3
191.154	7769.77
191.373	4201.27
191.592	3780
191.81	4508.11
192.029	3575
192.248	-8205.13
192.466	-9617.65
192.685	-1361.57
192.904	-2080.39
193.122	-1437.21
193.341	-3281.11
193.559	-1940.91
193.778	-2687.72
193.996	6130.19
194.215	-6880.43
194.433	-1659.38
194.652	-1581.16
194.87	-1607.92
195.089	-3054.95
195.307	-1723.16
195.526	-2268.71
195.744	-1616.44
195.963	-1254.01
196.181	-953.37
196.399	-578.1
196.618	-492.02
196.836	-1099.02
197.055	-1088.33
197.273	-57050
197.491	-10478.79
197.71	2586.96
197.928	8835
198.146	5577.78
198.365	2316.23
198.583	1292.36
198.801	973.26
199.019	620
199.238	816.63
199.456	739.34
199.674	1112.91
199.892	982.86
200.111	1091.22
200.329	843.26
200.547	1085.76
200.765	1725
200.983	11441.38
201.202	-3075
201.42	-2647.62
201.638	-5652.46
201.856	14069.23
202.074	3438.32
202.292	7756.52
202.51	-5956.9
202.728	6218.18
202.946	3195.33
203.165	1696.46
203.383	1657.69
203.601	1308.36
203.819	2301.35
204.037	4572.6
204.255	9588.24
204.473	-5237.1
204.691	-14281.82
204.909	-18500
205.127	-2587.5
205.345	7713.95
205.562	2333.78
205.78	1381.1
205.998	1076.8
206.216	849.52
206.434	1021.75
206.652	950.92
206.87	1127.5
207.088	880.48
207.306	1256.8
207.523	2086.34
207.741	6294.74
207.959	22418.75
208.177	-9783.33
208.395	-2075.15
208.612	-2786.89
208.83	2993.91
209.048	3013.91
209.266	335300
209.483	-3266.02
209.701	16635
209.919	2564.29
210.136	1120.72
210.354	785.84
210.572	615.71
210.79	510.7
211.007	508.68
211.225	626.23
211.442	631.33
211.66	476.81
211.878	500.26
212.095	437.32
212.313	427.45
212.53	562.35
212.748	648.38
212.966	811.95
213.183	1000
213.401	892.59
213.618	928.85
213.836	809.95
214.053	930.25
214.271	596.55
214.488	654.62
214.705	713.35
214.923	590
215.14	1084.87
215.358	810.78
215.575	1112.41
215.793	1044.03
216.01	644.84
216.227	755.77
216.445	749.26
216.662	988.95
216.879	1122.58
217.097	713.94
217.314	670.88
217.531	536.96
217.749	576.06
217.966	542.16
218.183	611.07
218.4	1326.14
218.618	992.55
218.835	900
219.052	818.94
219.269	863.32
219.487	2271.62
219.704	3240.78
219.921	1699.5
220.138	1528.51
220.355	851.94
220.572	1493.52
220.79	951.44
221.007	1053.9
221.224	1042.67
221.441	1758.38
221.658	1509.46
221.875	1432.1
222.092	2276.77
222.309	58100
222.526	3566.67
222.743	8278.57
222.96	1851.09
223.177	673.09
223.394	663.02
223.611	627.19
223.828	615.29
224.045	518.75
224.262	416.99
224.479	403.25
224.696	363.28
224.913	368.65
225.13	362.3
225.347	297.19
225.564	348.57
225.781	288.48
225.997	277.33
226.214	219.15
226.431	203.23
226.648	183.11
226.865	171.64
227.082	154.11
227.298	129.29
227.515	115.24
227.732	106.64
227.949	97.74
228.165	92.02
228.382	85.75
228.599	80.27
228.816	75.41
229.032	75.18
229.249	67.18
229.466	65.19
229.682	71.67
229.899	77.24
230.116	82.53
230.332	86.44
230.549	89.2
230.765	93.62
230.982	99.6
231.199	108.95
231.415	115.85
231.632	124.21
231.848	126.73
232.065	133.7
232.281	130.95
232.498	133.82
232.714	152.93
232.931	158.08
233.147	154.15
233.364	154.39
233.58	151.39
233.797	144.05
234.013	133.6
234.23	134.8
234.446	125.09
234.662	125.71
234.879	130.93
235.095	113.31
235.312	110.05
235.528	114.15
235.744	115.86
235.961	114.64
236.177	123.6
236.393	130.05
236.61	132.9
236.826	135.94
237.042	147.62
237.258	139.58
237.475	156.87
237.691	165.19
237.907	157.81
238.123	155.95
238.339	152.52
238.556	138.17
238.772	142.1
238.988	132.32
239.204	127.62
239.42	115.49
239.636	111.04
239.853	96.69
240.069	86.77
240.285	83.4
240.501	79.11
240.717	74.03
240.933	68.63
241.149	63.68
241.365	61.98
241.581	58.12
241.797	54.09
242.013	51.17
242.229	51.09
242.445	51.62
242.661	49.31
242.877	51.3
243.093	50.09
243.309	53.04
243.525	54.29
243.741	54.17
243.957	55.32
244.173	54.28
244.388	55.36
244.604	54.75
244.82	51.38
245.036	48.79
245.252	44
245.468	42.71
245.683	41.46
245.899	38.66
246.115	36.91
246.331	35.1
246.547	34.13
246.762	32.83
246.978	32.02
247.194	31.69
247.409	32.82
247.625	33.25
247.841	34.47
248.057	35.32
248.272	36.35
248.488	38.82
248.703	41
248.919	44.65
249.135	47.97
249.35	49.92
249.566	53.69
249.782	55.76
249.997	57.77
250.213	56.42
250.428	53.68
250.644	55.29
250.859	56.94
251.075	57.77
251.29	55.65
251.506	56.08
251.721	58.92
251.937	59.16
252.152	57.84
252.368	57.07
252.583	61.17
252.798	65.89
253.014	65.78
253.229	65.86
253.445	68.38
253.66	71.9
253.875	73.39
254.091	74.88
254.306	78.69
254.521	85.93
254.737	93.07
254.952	87.58
255.167	86.83
255.383	85.67
255.598	85.17
255.813	82.21
256.028	80.28
256.244	79
256.459	72.87
256.674	67.02
256.889	61.2
257.104	56.45
257.32	54.25
257.535	46.9
257.75	45.46
257.965	43.13
258.18	38.88
258.395	35.39
258.61	32.04
258.826	30.96
259.041	28.95
259.256	27.76
259.471	25.12
259.686	24.4
259.901	25.84
260.116	25.41
260.331	25.32
260.546	27.18
260.761	28.69
260.976	31.53
261.191	32.19
261.406	35.21
261.621	37
261.836	40.53
262.05	44.89
262.265	45.96
262.48	48.62
262.695	50.49
262.91	49.56
263.125	49.26
263.34	48.92
263.555	49.1
263.769	49.02
263.984	50.27
264.199	54.11
264.414	50.14
264.629	50.57
264.843	49.46
265.058	49.91
265.273	48.09
265.488	48.72
265.702	48.12
265.917	48.84
266.132	46.74
266.346	44.58
266.561	42.44
266.776	42.46
266.99	42.26
267.205	40.68
267.42	39.09
267.634	39.86
267.849	39.57
268.063	38.31
268.278	38.94
268.492	36.92
268.707	36.27
268.922	35.07
269.136	34.42
269.351	35.33
269.565	34.98
269.78	33.12
269.994	32.86
270.209	31.79
270.423	32.02
270.637	29.91
270.852	31.71
271.066	31.52
271.281	32.41
271.495	33.24
271.709	30.69
271.924	32.49
272.138	34.51
272.353	34.09
272.567	33.97
272.781	34.32
272.996	35.71
273.21	37.69
273.424	39.02
273.638	39.6
273.853	40.74
274.067	42.07
274.281	41.1
274.495	41.91
274.71	42.8
274.924	43.79
275.138	41.99
275.352	43.18
275.566	40.18
275.781	40.44
275.995	40.75
276.209	40.33
276.423	39.47
276.637	39.59
276.851	37.29
277.065	38.89
277.279	39.91
277.493	42.87
277.707	42.02
277.921	43.6
278.135	43.2
278.349	41
278.563	39.06
278.777	39.81
278.991	40.84
279.205	41.74
279.419	39.18
279.633	38.35
279.847	36.43
280.061	35.56
280.275	33.38
280.489	33.25
280.703	33.96
280.917	34.06
281.131	33.16
281.344	33.59
281.558	33.76
281.772	35.03
281.986	34.71
282.2	34.18
282.414	33.71
282.627	32.79
282.841	31.31
283.055	31.1
283.269	30.75
283.482	31.07
283.696	28.39
283.91	27.09
284.123	24.9
284.337	24.02
284.551	23.04
284.764	23.76
284.978	25.76
285.192	25.7
285.405	25.26
285.619	25.03
285.833	25.6
286.046	26.88
286.26	27.6
286.473	28.65
286.687	28.49
286.9	29.34
287.114	29.09
287.327	27.77
287.541	28.18
287.754	28.94
287.968	29.69
288.181	29.4
288.395	28.64
288.608	28.71
288.822	28.56
289.035	29.77
289.248	30.25
289.462	30.37
289.675	30.67
289.889	30.66
290.102	29.81
290.315	31.36
290.529	31.55
290.742	32.63
290.955	32.31
291.169	33.07
291.382	33.97
291.595	34.39
291.808	34.63
292.022	34.37
292.235	35.64
292.448	36.61
292.661	34.99
292.875	34.17
293.088	33.05
293.301	32.18
293.514	31.43
293.727	31.26
293.94	30.08
294.153	29.78
294.367	29.62
294.58	28.54
294.793	27.08
295.006	27.57
295.219	26.03
295.432	25.8
295.645	25.8
295.858	25.05
296.071	23.97
296.284	23.91
296.497	23.24
296.71	23.23
296.923	22.88
297.136	23.44
297.349	23.75
297.562	24.4
297.775	25.02
297.988	25.26
298.201	26.58
298.414	27.39
298.626	27.69
298.839	28.02
299.052	28.88
299.265	30.2
299.478	30.87
299.691	31.02
299.903	31.97
300.116	32.26
300.329	32.74
300.542	32.41
300.755	31.59
300.967	32.49
301.18	32.9
301.393	32.27
301.605	32.42
301.818	31.35
302.031	30.4
302.243	30.29
302.456	30.76
302.669	31.43
302.881	31.38
303.094	31.33
303.307	30.72
303.519	30.64
303.732	31.64
303.944	32.37
304.157	33.91
304.37	33.84
304.582	33.41
304.795	32.77
305.007	33.53
305.22	33.73
305.432	34.7
305.645	34.55
305.857	35.14
306.069	35.45
306.282	34.46
306.494	32.83
306.707	33
306.919	33.61
307.132	32.51
307.344	31.34
307.556	30.47
307.769	30.05
307.981	30.54
308.193	30.64
308.406	28.85
308.618	29.32
308.83	29.65
309.043	29.2
309.255	29.36
309.467	30.21
309.679	29.48
309.892	29.13
310.104	28.66
310.316	27.8
310.528	27.38
310.74	28.75
310.953	28.54
311.165	29.44
311.377	29.39
311.589	29.24
311.801	28.16
312.013	29.69
312.225	30.46
312.437	30.63
312.649	31.74
312.862	32.03
313.074	32.35
313.286	32.92
313.498	33.47
313.71	35.92
313.922	35.95
314.134	38.11
314.346	36.54
314.558	37.48
314.77	40.01
314.982	40.18
315.193	41.43
315.405	40.39
315.617	39.4
315.829	39.45
316.041	37.68
316.253	39.51
316.465	38.58
316.677	39.57
316.888	38.53
317.1	38.16
317.312	38.32
317.524	37.77
317.736	39.35
317.947	39.61
318.159	40.15
318.371	40.78
318.583	40.17
318.794	42.09
319.006	42.35
319.218	44.52
319.43	44.26
319.641	43.34
319.853	43.06
320.064	43.22
320.276	42.92
320.488	41.92
320.699	41.71
320.911	41.11
321.123	40.19
321.334	40.13
321.546	39.6
321.757	39.4
321.969	41.2
322.18	40.76
322.392	39.58
322.603	40.68
322.815	40.79
323.026	41.11
323.238	39.53
323.449	38.06
323.661	39.08
323.872	37.46
324.083	36.62
324.295	35.93
324.506	35.65
324.718	35.66
324.929	34.63
325.14	33.99
325.352	34.05
325.563	34.75
325.774	35.88
325.986	35.02
326.197	35.89
326.408	35.92
326.62	35.65
326.831	35.59
327.042	36.14
327.253	36.91
327.464	38.1
327.676	37.9
327.887	38.4
328.098	38.51
328.309	38.13
328.52	37.24
328.732	36.88
328.943	37.52
329.154	39.61
329.365	40.12
329.576	40.14
329.787	39.25
329.998	40.72
330.209	40.41
330.42	40.77
330.631	41.61
330.842	42.78
331.053	43.24
331.264	43.26
331.475	42.95
331.686	42.27
331.897	42.1
332.108	41.69
332.319	42.06
332.53	42.91
332.741	42.38
332.952	43.1
333.163	43.21
333.374	43.16
333.585	43.67
333.795	42.37
334.006	43.95
334.217	44.82
334.428	45.1
334.639	44.88
334.849	44.89
335.06	44.36
335.271	43.65
335.482	44.23
335.692	44.44
335.903	43.57
336.114	43.21
336.325	41.5
336.535	41.15
336.746	42.28
336.957	40.77
337.167	40.6
337.378	40.49
337.589	40.49
337.799	39.04
338.01	40.22
338.22	41.26
338.431	41.47
338.642	43.37
338.852	43.11
339.063	42.41
339.273	41.78
339.484	41.8
339.694	43.8
339.905	44.91
340.115	46.56
340.326	45.28
340.536	44.53
340.746	46.08
340.957	43.82
341.167	44.61
341.378	44.17
341.588	45.6
341.799	45.5
342.009	44.77
342.219	43.91
342.43	43.62
342.64	44.48
342.85	43.72
343.061	42.48
343.271	44.22
343.481	43.45
343.691	44.08
343.902	43.32
344.112	43.18
344.322	42.39
344.532	41.49
344.743	40.47
344.953	39.31
345.163	39.38
345.373	39.57
345.583	38.6
345.793	38.44
346.004	37.3
346.214	37
346.424	36.97
346.634	36.92
346.844	37.8
347.054	38.91
347.264	39.96
347.474	40.29
347.684	39.97
347.894	40.1
348.104	40.43
348.314	41.34
348.524	41.81
348.734	42.26
348.944	42.92
349.154	42.51
349.364	41.5
349.574	41.02
349.784	41.46
349.994	41.46
350.204	41.07
350.413	41.19
350.623	41.57
350.833	41.56
351.043	40.44
351.253	39.06
351.463	38.76
351.672	40.19
351.882	39.81
352.092	39.37
352.302	40.37
352.511	39.61
352.721	38.84
352.931	38.36
353.141	37.63
353.35	37.42
353.56	37.12
353.77	36.81
353.979	36.71
354.189	36.5
354.399	35.57
354.608	34.37
354.818	34.52
355.027	35.19
355.237	34.79
355.447	36.13
355.656	36.76
355.866	36.85
356.075	36.6
356.285	35.61
356.494	35.62
356.704	36.89
356.913	36.9
357.123	37.05
357.332	36.22
357.542	36.67
357.751	35.72
357.96	35.32
358.17	35.98
358.379	36.67
358.589	36.17
358.798	36.02
359.007	34.32
359.217	34.55
359.426	34.7
359.635	34.44
359.845	33.83
360.054	32.82
360.263	32.82
360.472	32.8
360.682	32.33
360.891	32.56
361.1	32.25
361.309	32.42
361.519	31.74
361.728	31.54
361.937	32.03
362.146	31.76
362.355	32.71
362.564	32.18
362.774	31.82
362.983	32.25
363.192	32.37
363.401	32.08
363.61	32.65
363.819	33.7
364.028	32.93
364.237	32.64
364.446	33.45
364.655	33.25
364.864	33.92
365.073	34.1
365.282	33.72
365.491	33.14
365.7	33.47
365.909	34.03
366.118	34.02
366.327	34.88
366.536	33.89
366.745	33.73
366.954	33.61
367.162	34.33
367.371	34.02
367.58	34.42
367.789	34.64
367.998	35.5
368.207	34.74
368.415	34.97
368.624	35.79
368.833	36.38
369.042	36.25
369.25	37.02
369.459	36.6
369.668	37.42
369.877	36.97
370.085	36.97
370.294	36.42
370.503	36.5
370.711	36.1
370.92	34.75
371.129	34.63
371.337	33.92
371.546	32.16
371.754	32.76
371.963	31.93
372.171	31.56
372.38	31.13
372.589	30.93
372.797	30.95
373.006	30.47
373.214	31.42
373.423	32.19
373.631	32.65
373.84	34.1
374.048	33.23
374.256	33.43
374.465	33.8
374.673	34.55
374.882	34.6
375.09	34.47
375.298	33.99
375.507	33.82
375.715	33.15
375.923	32.77
376.132	32.06
376.34	32.35
376.548	32.01
376.757	31.77
376.965	31.64
377.173	31.44
377.381	31.48
377.59	32.82
377.798	32.48
378.006	32.94
378.214	33.45
378.423	34.21
378.631	33.98
378.839	34.01
379.047	34.57
379.255	34
379.463	34.6
379.671	34.49
379.879	33.11
380.088	33.19
380.296	33.59
380.504	33.93
380.712	33.97
380.92	34.01
381.128	34.74
381.336	34.35
381.544	34.25
381.752	33.69
381.96	33.87
382.168	34.2
382.376	34.68
382.584	34.33
382.791	33.41
382.999	33.22
383.207	33.3
383.415	33.35
383.623	33.18
383.831	33.4
384.039	33.13
384.247	33.3
384.454	33.89
384.662	33.03
384.87	33.12
385.078	33.38
385.285	32.83
385.493	32.11
385.701	31.74
385.909	31.59
386.116	31.37
386.324	31.52
386.532	31.12
386.739	30.17
386.947	30.91
387.155	31.65
387.362	32.05
387.57	32.52
387.778	33.19
387.985	32.89
388.193	33.58
388.4	34.19
388.608	34.62
388.816	34.66
389.023	35.04
389.231	35.23
389.438	33.93
389.646	32.98
389.853	32.28
390.061	31.93
390.268	31.72
390.475	30.99
390.683	30.78
390.89	30.12
391.098	30.04
391.305	29.66
391.512	28.67
391.72	28.47
391.927	28.27
392.135	28.62
392.342	28.4
392.549	28.68
392.756	28.64
392.964	28.79
393.171	29.34
393.378	29.5
393.586	29.15
393.793	29.47
394	29.29
394.207	29.7
394.414	29.54
394.622	29.68
394.829	29.9
395.036	30.26
395.243	30.4
395.45	30.23
395.657	30.2
395.864	30.74
396.072	30.97
396.279	31.51
396.486	31.28
396.693	31.53
396.9	31.81
397.107	31.54
397.314	31.39
397.521	31.1
397.728	30.81
397.935	30.4
398.142	30.49
398.349	30.35
398.556	30.39
398.763	31.16
398.97	31.16
399.177	31.29
399.383	32.01
399.59	31.39
399.797	31.53
400.004	31.05
400.211	31.28
400.418	31.13
400.625	30.98
400.831	30.93
401.038	30.63
401.245	30.23
401.452	30.11
401.658	29.37
401.865	29.96
402.072	29.94
402.279	29.86
402.485	29.82
402.692	29.74
402.899	29.36
403.105	29.37
403.312	29.18
403.519	28.96
403.725	28.24
403.932	27.63
404.138	27.1
404.345	26.68
404.552	27.06
404.758	27.03
404.965	27.41
405.171	27.78
405.378	27.69
405.584	27.77
405.791	28.16
405.997	28.91
406.204	30.35
406.41	31.05
406.617	31.24
406.823	31.27
407.029	31.42
407.236	31.64
407.442	31.42
407.649	31.96
407.855	31.9
408.061	31.96
408.268	31.67
408.474	30.42
408.68	30.14
408.887	30.59
409.093	30.95
409.299	30.71
409.505	29.43
409.712	29.41
409.918	28.71
410.124	28.36
410.33	27.76
410.537	27.6
410.743	28.1
410.949	28.87
411.155	29.02
411.361	28.51
411.567	28.35
411.773	29.9
411.98	29.81
412.186	30.2
412.392	30.57
412.598	31.44
412.804	31.33
413.01	30.92
413.216	30.56
413.422	29.53
413.628	29.48
413.834	29.32
414.04	28.47
414.246	28.96
414.452	28.42
414.658	28.34
414.864	27.83
415.07	28.12
415.275	28.22
415.481	27.23
415.687	27.66
415.893	27.81
416.099	27.98
416.305	27.62
416.511	26.77
416.716	26.72
416.922	26.39
417.128	26.11
417.334	26.01
417.539	25.37
417.745	25.41
417.951	24.77
418.157	24.42
418.362	24.3
418.568	24.48
418.774	24.58
418.979	24.51
419.185	24.38
419.391	24.27
419.596	24.16
419.802	24.14
420.008	24.12
420.213	25.95
420.419	26.02
420.624	25.77
420.83	25.54
421.035	25.26
421.241	25.15
421.446	25.13
421.652	25.11
421.857	24.81
422.063	25.15
422.268	25.21
422.474	23.44
422.679	23.52
422.885	23.75
423.09	23.6
423.295	23.72
423.501	23.66
423.706	23.69
423.911	23.86
424.117	24.11
424.322	24.04
424.527	24.07
424.733	24.16
424.938	24.1
425.143	23.87
425.349	23.75
425.554	24.01
425.759	24.37
425.964	24.51
426.169	24.66
426.375	24.79
426.58	24.97
426.785	25.26
426.99	25.66
427.195	25.87
427.4	26.55
427.605	27.12
427.811	27.22
428.016	27.11
428.221	27.39
428.426	27.28
428.631	27.02
428.836	26.93
429.041	26.83
429.246	26.43
429.451	26.3
429.656	25.88
429.861	25.93
430.066	26.18
430.271	26.34
430.476	26.1
430.681	26.01
430.886	25.99
431.09	25.79
431.295	25.53
431.5	25.91
431.705	25.84
431.91	25.96
432.115	25.78
432.32	25.67
432.524	25.52
432.729	25.48
432.934	25.32
433.139	25.18
433.343	25.25
433.548	25.17
433.753	24.98
433.958	25.01
434.162	25.07
434.367	25.06
434.572	24.74
434.776	24.84
434.981	24.97
435.186	25.34
435.39	25.88
435.595	25.7
435.799	25.55
436.004	25.57
436.209	25.59
436.413	25.37
436.618	25.31
436.822	25.46
437.027	25.35
437.231	25.21
437.436	24.93
437.64	24.59
437.845	24.73
438.049	24.9
438.253	24.83
438.458	24.75
438.662	24.45
438.867	24.42
439.071	24.23
439.275	24.24
439.48	24.33
439.684	24.24
439.888	24.1
440.093	24.14
440.297	24.1
440.501	24.29
440.706	24.45
440.91	24.82
441.114	24.88
441.318	24.98
441.523	24.78
441.727	24.8
441.931	25.06
442.135	25.29
442.339	25.11
442.543	25.11
442.748	24.92
442.952	24.83
443.156	24.72
443.36	24.63
443.564	24.52
443.768	24.49
443.972	24.55
444.176	24.27
444.38	24.16
444.584	24.7
444.788	24.97
444.992	24.53
445.196	24.4
445.4	24.09
445.604	23.93
445.808	24.1
446.012	24.06
446.216	23.74
446.42	23.95
446.624	23.78
446.828	23.42
447.032	23.38
447.235	23.79
447.439	23.74
447.643	23.78
447.847	24.22
448.051	24.24
448.254	24.61
448.458	24.96
448.662	25.01
448.866	25.24
449.069	25.54
449.273	25.49
449.477	25.42
449.681	25.33
449.884	25.6
450.088	25.53
450.292	25.46
450.495	25.33
450.699	25.36
450.902	25.19
451.106	25.26
451.31	25.29
451.513	25.13
451.717	25.01
451.92	25.56
452.124	25.74
452.327	25.34
452.531	25.33
452.734	25.31
452.938	25.6
453.141	25.42
453.345	25.3
453.548	25.04
453.752	25.26
453.955	25.45
454.158	25.25
454.362	24.93
454.565	25.31
454.769	25.41
454.972	25.51
455.175	25.14
455.379	25.48
455.582	25.64
455.785	25.33
455.988	25.21
456.192	25.03
456.395	25.01
456.598	25.12
456.801	25.09
457.005	25.03
457.208	24.66
457.411	24.66
457.614	24.67
457.817	24.28
458.021	24.5
458.224	24.23
458.427	24.2
458.63	23.85
458.833	23.84
459.036	23.72
459.239	23.63
459.442	23.65
459.645	23.53
459.848	23.23
460.051	23.44
460.254	23.27
460.457	23.59
460.66	23.63
460.863	23.92
461.066	24.15
461.269	24.13
461.472	24.38
461.675	24.54
461.878	24.79
462.081	25.17
462.284	25.27
462.486	25.6
462.689	25.46
462.892	25.68
463.095	25.73
463.298	25.67
463.5	26.41
463.703	26.54
463.906	26.48
464.109	26.35
464.311	26.41
464.514	26.69
464.717	26.57
464.92	26.57
465.122	26.49
465.325	26.25
465.528	26.36
465.73	26.01
465.933	25.3
466.135	25.34
466.338	25.24
466.541	25.43
466.743	25.29
466.946	25.38
467.148	25.79
467.351	25.57
467.553	26.01
467.756	26.06
467.958	25.71
468.161	26.13
468.363	26.34
468.566	26.23
468.768	26
468.971	26.01
469.173	25.92
469.375	25.59
469.578	25.92
469.78	25.69
469.983	25.56
470.185	25.64
470.387	25.69
470.59	25.61
470.792	25.97
470.994	26.02
471.196	26.07
471.399	26.13
471.601	25.95
471.803	25.54
472.005	25.65
472.208	25.75
472.41	25.77
472.612	25.6
472.814	25.88
473.016	25.9
473.218	25.72
473.421	25.53
473.623	25.46
473.825	25.6
474.027	26.28
474.229	26
474.431	25.74
474.633	25.65
474.835	25.11
475.037	24.69
475.239	24.7
475.441	24.68
475.643	24.82
475.845	24.92
476.047	24.6
476.249	23.9
476.451	24.21
476.653	24.18
476.855	24.31
477.057	24.96
477.258	24.82
477.46	24.55
477.662	24.64
477.864	24.34
478.066	24.16
478.268	24.3
478.469	24.58
478.671	24.27
478.873	24.36
479.075	24.45
479.276	24.2
479.478	24.26
479.68	24.14
479.882	24.01
480.083	24.1
480.285	24.04
480.487	24.1
480.688	23.85
480.89	23.99
481.091	23.56
481.293	23.32
481.495	23.2
481.696	23.01
481.898	22.7
482.099	22.42
482.301	22.08
482.502	21.78
482.704	21.39
482.905	21.12
483.107	20.69
483.308	20.58
483.51	20.36
483.711	20.27
483.913	20.11
484.114	20.01
484.315	20
484.517	20.01
484.718	19.98
484.92	20.05
485.121	20.16
485.322	20.27
485.524	20.35
485.725	20.49
485.926	20.46
486.127	20.5
486.329	20.65
486.53	20.64
486.731	20.68
486.932	20.75
487.134	20.94
487.335	20.91
487.536	20.91
487.737	20.95
487.938	20.98
488.139	20.96
488.341	21.01
488.542	21.15
488.743	21.18
488.944	21.16
489.145	21.2
489.346	21.1
489.547	21.15
489.748	21.36
489.949	21.41
490.15	21.34
490.351	21.35
490.552	21.49
490.753	21.32
490.954	21.21
491.155	21.16
491.356	21.16
491.557	21.15
491.758	21.27
491.959	21.2
492.159	21.24
492.36	21.32
492.561	21.64
492.762	21.68
492.963	21.92
493.164	22.33
493.364	22.74
493.565	23.25
493.766	23.54
493.967	23.62
494.167	23.81
494.368	23.85
494.569	23.97
494.769	23.65
494.97	23.85
495.171	23.94
495.371	23.63
495.572	23.53
495.773	23.15
495.973	22.89
496.174	23.01
496.375	23.06
496.575	23.12
496.776	23.13
496.976	23.39
497.177	23.09
497.377	23.14
497.578	23.28
497.778	23.49
497.979	23.48
498.179	23.68
498.38	23.76
498.58	23.97
498.78	24.05
498.981	24.29
499.181	24.52
499.382	24.95
499.582	25.04
499.782	25.25
499.983	25.32
500.183	25.66
500.383	25.81
500.584	25.71
500.784	25.63
500.984	25.86
501.184	25.57
501.385	25.33
501.585	25.45
501.785	25.07
501.985	24.9
502.185	24.82
502.386	24.65
502.586	24.55
502.786	24.59
502.986	24.52
503.186	24.48
503.386	24.73
503.586	24.66
503.786	24.51
503.987	24.74
504.187	24.81
504.387	24.96
504.587	24.81
504.787	24.87
504.987	25.07
505.187	25.06
505.387	24.93
505.587	24.94
505.786	25.05
505.986	24.87
506.186	24.69
506.386	24.7
506.586	24.66
506.786	24.86
506.986	24.85
507.186	24.81
507.386	24.85
507.585	24.51
507.785	24.3
507.985	24.45
508.185	24.63
508.384	24.59
508.584	24.66
508.784	24.17
508.984	24.49
509.183	24.3
509.383	24.25
509.583	24.51
509.782	24.84
509.982	25.29
510.182	25.06
510.381	24.89
510.581	25.22
510.781	25.38
510.98	25.86
511.18	25.78
511.379	26.03
511.579	26.27
511.778	26.12
511.978	26.24
512.177	26.11
512.377	26.37
512.576	26.71
512.776	26.68
512.975	26.48
513.175	26.31
513.374	26.16
513.573	26.21
513.773	26.07
513.972	26.18
514.172	26.09
514.371	26.26
514.57	26.18
514.77	26.14
514.969	26.25
515.168	26.12
515.367	26.21
515.567	26.5
515.766	26.32
515.965	26.72
516.164	26.53
516.364	26.69
516.563	26.58
516.762	26.69
516.961	26.49
517.16	26.43
517.359	26.56
517.559	26.55
517.758	26.27
517.957	26.37
518.156	26
518.355	26.12
518.554	26.1
518.753	25.8
518.952	25.56
519.151	25.66
519.35	25.74
519.549	25.88
519.748	25.81
519.947	25.99
520.146	25.92
520.345	26.12
520.544	26.09
520.743	26.06
520.942	26.45
521.141	26.69
521.339	26.65
521.538	26.61
521.737	26.57
521.936	26.51
522.135	26.53
522.333	26.65
522.532	26.62
522.731	26.75
522.93	26.98
523.129	26.9
523.327	27.21
523.526	27.25
523.725	27.34
523.923	27.46
524.122	27.69
524.321	27.67
524.519	27.38
524.718	27.26
524.917	27.17
525.115	26.77
525.314	26.63
525.512	26.41
525.711	26.42
525.909	26.51
526.108	26.42
526.306	26.38
526.505	26.26
526.703	26.4
526.902	26.29
527.1	26.32
527.299	26.4
527.497	26.42
527.696	26.32
527.894	26.22
528.092	26.02
528.291	25.95
528.489	26
528.688	26.02
528.886	25.9
529.084	25.97
529.283	25.95
529.481	25.95
529.679	26.03
529.877	26.21
530.076	26.29
530.274	26.51
530.472	26.58
530.67	26.58
530.869	26.81
531.067	27.18
531.265	27.39
531.463	27.49
531.661	27.54
531.859	27.57
532.057	27.51
532.255	27.45
532.454	27.35
532.652	27.44
532.85	27.4
533.048	27.43
533.246	27.46
533.444	27.51
533.642	27.52
533.84	27.69
534.038	27.86
534.236	27.97
534.434	28.31
534.632	28.55
534.83	28.67
535.027	28.97
535.225	28.97
535.423	29.1
535.621	28.91
535.819	29.03
536.017	29.09
536.215	28.87
536.412	28.91
536.61	29.01
536.808	29.04
537.006	29.24
537.203	29.14
537.401	29.1
537.599	29.18
537.797	29.5
537.994	29.73
538.192	29.95
538.39	30.29
538.587	30.16
538.785	30.23
538.983	30.08
539.18	29.93
539.378	30.01
539.575	30.34
539.773	30.23
539.97	30.18
540.168	29.94
540.366	29.61
540.563	29.66
540.761	29.76
540.958	29.56
541.155	29.68
541.353	29.72
541.55	29.77
541.748	29.63
541.945	29.64
542.143	29.55
542.34	29.62
542.537	29.85
542.735	29.72
542.932	29.82
543.129	30.13
543.327	30.28
543.524	30.35
543.721	30.29
543.919	30.29
544.116	30.54
544.313	30.66
544.51	31.01
544.708	31.04
544.905	31.3
545.102	31.44
545.299	31.45
545.496	31.48
545.693	31.52
545.891	31.78
546.088	32.08
546.285	32.19
546.482	32.14
546.679	32.29
546.876	32.68
547.073	32.8
547.27	32.82
547.467	33.12
547.664	33.28
547.861	33.67
548.058	33.75
548.255	34
548.452	34.27
548.649	34.94
548.846	34.82
549.043	35.04
549.24	35.28
549.437	35.67
549.633	35.92
549.83	36.08
550.027	36.26
550.224	36.66
550.421	36.49
550.618	36.51
550.814	36.52
551.011	36.53
551.208	36.31
551.405	36.17
551.601	36.3
551.798	35.82
551.995	35.75
552.191	35.79
552.388	35.61
552.585	35.69
552.781	35.49
552.978	35.76
553.175	36.11
553.371	36.42
553.568	36.55
553.764	36.74
553.961	36.87
554.157	37.06
554.354	37.08
554.55	37.7
554.747	38
554.943	38.21
555.14	38.18
555.336	38.31
555.533	38.51
555.729	38.94
555.926	38.85
556.122	39.28
556.318	39.31
556.515	39.37
556.711	39.1
556.907	39.35
557.104	39.61
557.3	39.78
557.496	39.57
557.693	39.46
557.889	39.21
558.085	39.02
558.281	39.22
558.478	39.47
558.674	39.55
558.87	39.13
559.066	39.2
559.262	38.76
559.459	38.46
559.655	38.5
559.851	38.73
560.047	39.18
560.243	39.53
560.439	39.47
560.635	39.35
560.831	39.01
561.027	39.67
561.223	39.23
561.419	39.83
561.615	39.95
561.811	40.65
562.007	40.53
562.203	40.03
562.399	39.93
562.595	39.95
562.791	40.03
562.987	40.47
563.183	40.18
563.379	40.55
563.575	40.52
563.771	40.74
563.966	40.3
564.162	40.21
564.358	40.48
564.554	40.52
564.75	40.2
564.945	40.3
565.141	40.03
565.337	40.26
565.533	39.99
565.728	39.89
565.924	39.94
566.12	40.03
566.315	40.17
566.511	40.35
566.707	40.35
566.902	40.64
567.098	40.55
567.293	41.08
567.489	40.97
567.684	41.1
567.88	41.39
568.076	41.31
568.271	41.18
568.467	41.2
568.662	41.54
568.858	41.77
569.053	41.63
569.248	41.97
569.444	41.88
569.639	41.91
569.835	42.02
570.03	41.62
570.225	41.56
570.421	41.49
570.616	41.13
570.812	40.88
571.007	40.48
571.202	40.71
571.397	40.31
571.593	39.87
571.788	40.31
571.983	40.45
572.178	40.68
572.374	40.96
572.569	41.11
572.764	41.35
572.959	41.18
573.154	41.5
573.35	41.33
573.545	41.32
573.74	42
573.935	41.65
574.13	41.55
574.325	41.38
574.52	41.32
574.715	41.47
574.91	41.5
575.105	41.83
575.3	41.95
575.495	42.24
575.69	42.65
575.885	42.3
576.08	42.53
576.275	42.45
576.47	42.76
576.665	43.14
576.86	42.89
577.055	42.87
577.25	42.78
577.444	43.03
577.639	42.89
577.834	43.1
578.029	43.43
578.224	43.59
578.418	44.26
578.613	44.55
578.808	44.27
579.003	44.9
579.197	45.23
579.392	45.48
579.587	45.5
579.781	45.71
579.976	45.87
580.171	46.12
580.365	46.03
580.56	45.62
580.755	45.82
580.949	45.81
581.144	45.71
581.338	46.04
581.533	46.07
581.727	46.33
581.922	46.45
582.116	46.44
582.311	46.37
582.505	46.53
582.7	46.66
582.894	46.61
583.089	46.88
583.283	46.96
583.478	46.78
583.672	46.63
583.866	46.1
584.061	46.23
584.255	45.96
584.449	45.74
584.644	45.82
584.838	45.73
585.032	45.95
585.226	45.71
585.421	45.67
585.615	45.93
585.809	46.12
586.003	46.83
586.198	46.56
586.392	46.61
586.586	46.84
586.78	47.03
586.974	47.29
587.168	46.64
587.363	46.65
587.557	46.4
587.751	46.72
587.945	46.62
588.139	46.44
588.333	46.26
588.527	46.7
588.721	46.99
588.915	46.77
589.109	46.8
589.303	47.32
589.497	47.54
589.691	48.15
589.885	47.54
590.079	47.88
590.273	47.8
590.466	48.29
590.66	48.15
590.854	48.34
591.048	48.57
591.242	48.47
591.436	48.05
591.629	47.82
591.823	47.71
592.017	47.95
592.211	47.68
592.404	47.84
592.598	47.82
592.792	47.85
592.986	47.29
593.179	47.21
593.373	47.54
593.567	48.1
593.76	48
593.954	48.1
594.147	48.16
594.341	48.16
594.535	48.17
594.728	48.22
594.922	47.99
595.115	47.81
595.309	47.67
595.502	47.3
595.696	46.78
595.889	46.9
596.083	46.61
596.276	46.67
596.47	46.5
596.663	46.49
596.856	46.77
597.05	47.09
597.243	47.09
597.437	47.01
597.63	47.08
597.823	47.07
598.017	47.54
598.21	47.66
598.403	47.75
598.596	48.06
598.79	47.97
598.983	47.95
599.176	47.85
599.369	48.35
599.563	48.2
599.756	48.66
599.949	48.74
600.142	48.85
600.335	49.05
600.528	49.13
600.722	49.38
600.915	49.54
601.108	49.43
601.301	49.12
601.494	48.94
601.687	48.84
601.88	48.62
602.073	49.03
602.266	48.36
602.459	47.69
602.652	47.38
602.845	47.18
603.038	47.3
603.231	47.26
603.424	47.07
603.617	47.25
603.809	47.54
604.002	47.15
604.195	47.25
604.388	47.6
604.581	48.17
604.774	48.51
604.966	48.86
605.159	48.5
605.352	48.27
605.545	48.93
605.737	49.16
605.93	49.42
606.123	50.12
606.316	50.27
606.508	50.33
606.701	50.28
606.894	49.71
607.086	50.13
607.279	50.43
607.471	50.79
607.664	50.33
607.857	50.18
608.049	49.73
608.242	49.43
608.434	48.77
608.627	48.8
608.819	48.89
609.012	49.26
609.204	49
609.397	48.97
609.589	49.59
609.782	49.95
609.974	49.9
610.166	50.52
610.359	50.79
610.551	51.24
610.743	51.6
610.936	51.83
611.128	52.41
611.32	52.87
611.513	52.98
611.705	53.07
611.897	52.95
612.09	53.79
612.282	54
612.474	54.57
612.666	55.42
612.858	55.29
613.051	55.69
613.243	55.65
613.435	55.08
613.627	55.35
613.819	55.07
614.011	55.98
614.203	55.86
614.395	56.11
614.588	55.81
614.78	55.08
614.972	55.5
615.164	55.16
615.356	55.09
615.548	55.18
615.74	55.31
615.932	55.23
616.124	53.86
616.315	53.83
616.507	53.86
616.699	54.44
616.891	54.84
617.083	54.37
617.275	53.94
617.467	54.03
617.659	54.12
617.85	54.33
618.042	54.68
618.234	56.03
618.426	55.95
618.618	55.55
618.809	55.14
619.001	55.3
619.193	55.72
619.384	56.5
619.576	56.3
619.768	56.35
619.959	55.89
620.151	55.68
620.343	55.46
620.534	55.43
620.726	55.52
620.917	55.73
621.109	55.67
621.301	55.23
621.492	55.19
621.684	55.84
621.875	55.52
622.067	55.45
622.258	55.02
622.45	55.04
622.641	54.82
622.832	54.77
623.024	54.38
623.215	55.07
623.407	55.24
623.598	55.46
623.789	55.09
623.981	55.14
624.172	55.71
624.363	55.71
624.555	55.14
624.746	55.29
624.937	55.7
625.129	55.69
625.32	54.52
625.511	54.75
625.702	54.12
625.893	54.27
626.085	54.25
626.276	53.54
626.467	53.87
626.658	53.62
626.849	53.3
627.04	52.84
627.231	53.11
627.422	53.78
627.614	53.19
627.805	53.69
627.996	52.89
628.187	53.11
628.378	54
628.569	54.01
628.76	54.76
628.951	54.78
629.142	55.2
629.332	54.71
629.523	54.24
629.714	54.88
629.905	54.64
630.096	55.77
630.287	55.92
630.478	55.26
630.669	55.09
630.859	54.84
631.05	54.93
631.241	54.43
631.432	54.8
631.623	55.09
631.813	54.85
632.004	54.49
632.195	54.26
632.385	54.27
632.576	54.69
632.767	54.53
632.957	54.55
633.148	54.63
633.339	55.15
633.529	55.26
633.72	54.75
633.91	54.94
634.101	55.2
634.292	55.08
634.482	54.92
634.673	55.35
634.863	55.2
635.054	55.73
635.244	56.26
635.435	55.49
635.625	55.49
635.815	56.13
636.006	56.25
636.196	56.52
636.387	56.74
636.577	56.96
636.767	56.55
636.958	56.87
637.148	56.58
637.338	56.32
637.529	57.23
637.719	57.69
637.909	57.52
638.099	57.38
638.29	58.18
638.48	58.51
638.67	58.66
638.86	59.03
639.05	59.81
639.241	60.22
639.431	60.78
639.621	60.2
639.811	59.99
640.001	60.32
640.191	60.23
640.381	58.95
640.571	58.99
640.761	59.39
640.951	59.77
641.141	59.48
641.331	59.49
641.521	59.29
641.711	59.79
641.901	59.84
642.091	60.36
642.281	61.11
642.471	61.43
642.661	61.3
642.851	61.17
643.041	60.93
643.231	60.85
643.42	60.95
643.61	60.38
643.8	60.68
643.99	60.51
644.18	60.18
644.369	60.21
644.559	60.49
644.749	59.55
644.939	59.69
645.128	59.33
645.318	59.1
645.508	58.05
645.697	59.46
645.887	59.24
646.076	59.53
646.266	59.73
646.456	59.76
646.645	59.95
646.835	61.72
647.024	61.47
647.214	61.54
647.403	61.83
647.593	62.45
647.782	61.26
647.972	62.07
648.161	62.32
648.351	61.85
648.54	61.22
648.73	61.33
648.919	60.49
649.108	60.58
649.298	60.77
649.487	60.42
649.677	60.8
649.866	60.76
650.055	59.82
650.244	59.62
650.434	59.67
650.623	59.31
650.812	59.1
651.002	58.06
651.191	58.22
651.38	57.83
651.569	58.67
651.758	58.23
651.947	58.28
652.137	58.57
652.326	58.44
652.515	58.9
652.704	58.96
652.893	59.03
653.082	59.54
653.271	59.34
653.46	59.05
653.649	58.89
653.838	59.5
654.027	60.57
654.216	60.84
654.405	60.22
654.594	59.79
654.783	61.5
654.972	62.45
655.161	62.84
655.35	62.91
655.539	63.83
655.728	63.97
655.916	63.46
656.105	62.7
656.294	62.88
656.483	63.38
656.672	63.02
656.86	61.37
657.049	60.52
657.238	60.92
657.427	60.77
657.615	60.26
657.804	59.44
657.993	59.41
658.181	59.13
658.37	57.93
658.559	57.05
658.747	57.13
658.936	57.87
659.125	57.31
659.313	57.26
659.502	56.98
659.69	56.92
659.879	57.19
660.067	56.97
660.256	56.92
660.444	57.71
660.633	58.88
660.821	59.55
661.01	59.48
661.198	60.45
661.387	60.44
661.575	60.66
661.763	61.01
661.952	61.2
662.14	62.74
662.328	62.89
662.517	63.01
662.705	62.58
662.893	62.48
663.082	62.34
663.27	62.57
663.458	62.3
663.646	63.16
663.834	63.8
664.023	63.55
664.211	62.45
664.399	63.48
664.587	64.13
664.775	63.94
664.963	64.29
665.152	64.42
665.34	64.31
665.528	64.03
665.716	63.13
665.904	63.42
666.092	63.49
666.28	63.84
666.468	62.68
666.656	61.75
666.844	63.49
667.032	62.15
667.22	62.87
667.408	62.84
667.596	64.15
667.784	64.61
667.971	63.73
668.159	64.19
668.347	63.94
668.535	64.17
668.723	64.06
668.911	63.64
669.098	64.92
669.286	64.57
669.474	64.26
669.662	63.7
669.849	64.32
670.037	64.62
670.225	64.75
670.413	64.67
670.6	65.35
670.788	65.95
670.976	65.44
671.163	66.35
671.351	66.61
671.538	66.99
671.726	67.12
671.913	67.32
672.101	67.92
672.289	67.23
672.476	68.52
672.664	68.21
672.851	67.93
673.039	67.72
673.226	66.82
673.413	66.73
673.601	67.17
673.788	67.7
673.976	66.91
674.163	66.19
674.35	66.68
674.538	65.07
674.725	65.29
674.912	65.15
675.1	66.61
675.287	66.81
675.474	67.06
675.662	66.73
675.849	66.23
676.036	65.9
676.223	65.87
676.411	66.11
676.598	66.28
676.785	66.61
676.972	67.15
677.159	66.87
677.346	66.49
677.533	66.03
677.721	65.77
677.908	65.71
678.095	66.09
678.282	66.02
678.469	65.45
678.656	65.19
678.843	64.38
679.03	64.4
679.217	63.68
679.404	63.49
679.591	63.7
679.778	63.71
679.964	63.73
680.151	63.08
680.338	63.15
680.525	63.29
680.712	63.57
680.899	63.16
681.086	63.16
681.272	63.8
681.459	64.09
681.646	64.22
681.833	63.72
682.02	63.57
682.206	64.55
682.393	64.81
682.58	65.17
682.766	65.37
682.953	66.74
683.14	66.57
683.326	67.24
683.513	67.58
683.7	66.92
683.886	67.62
684.073	68.74
684.259	69.22
684.446	69.99
684.632	70.01
684.819	70.3
685.005	70.01
685.192	70.59
685.378	70.19
685.565	70.29
685.751	69.94
685.938	69.48
686.124	68.68
686.31	67.03
686.497	66.66
686.683	65.79
686.87	65.67
687.056	66.13
687.242	65.78
687.429	64.79
687.615	63.87
687.801	65.37
687.987	65.62
688.174	65.31
688.36	66.5
688.546	65.75
688.732	67.41
688.918	67.53
689.105	66.9
689.291	67.91
689.477	68.28
689.663	69.61
689.849	68.96
690.035	69.55
690.221	70.9
690.407	70.88
690.593	72.04
690.779	70.47
690.965	71.65
691.151	71.51
691.337	71.88
691.523	72.28
691.709	72.97
691.895	73.42
692.081	73.35
692.267	72.39
692.453	72.12
692.639	71.92
692.825	74.21
693.011	73.42
693.196	73.85
693.382	73.14
693.568	73.47
693.754	72.36
693.94	72.8
694.125	73.41
694.311	74.12
694.497	74.72
694.682	74.82
694.868	73.41
695.054	73.69
695.239	74.29
695.425	73.54
695.611	73.01
695.796	72.34
695.982	71.27
696.168	69.91
696.353	69.07
696.539	68.81
696.724	69.03
696.91	68.97
697.095	68.25
697.281	66.95
697.466	66.89
697.652	65.99
697.837	65.34
698.023	65.37
698.208	65.27
698.393	65.2
698.579	64.65
698.764	63.6
698.949	63.21
699.135	63.69
699.32	64.21
699.505	64.07
699.691	64.29
699.876	64.75
700.061	65.08
700.246	65.86
700.432	65.92
700.617	66.77
700.802	67.59
700.987	69.48
701.172	69.29
701.358	69.88
701.543	70.64
701.728	71.49
701.913	73.35
702.098	73.44
702.283	74.2
702.468	74.7
702.653	74.7
702.838	75.17
703.023	74.81
703.208	75.11
703.393	76.52
703.578	77.83
703.763	78.77
703.948	77.73
704.133	78.16
704.318	78.45
704.503	78.79
704.688	79.44
704.873	78.95
705.057	79.1
705.242	78.85
705.427	77.95
705.612	77.93
705.797	78.13
705.981	79.14
706.166	78.85
706.351	78.27
706.536	78.38
706.72	78.26
706.905	79.34
707.09	79.18
707.274	79.65
707.459	80.31
707.644	79.53
707.828	79.99
708.013	78.36
708.197	77.37
708.382	77.1
708.567	77.1
708.751	77.33
708.936	76.64
709.12	76.84
709.305	76.75
709.489	76.01
709.673	76.3
709.858	75.57
710.042	75.93
710.227	77.53
710.411	77.03
710.596	76.78
710.78	76.11
710.964	76.51
711.149	75.54
711.333	74.25
711.517	74.96
711.702	75.1
711.886	74.84
712.07	74.81
712.254	74.45
712.438	75.02
712.623	74.82
712.807	74.52
712.991	74.1
713.175	75.08
713.359	77.56
713.544	76.23
713.728	74.97
713.912	73.98
714.096	75.48
714.28	75.93
714.464	76.88
714.648	76.74
714.832	78.04
715.016	77.74
715.2	77.75
715.384	75.89
715.568	76.5
715.752	76.9
715.936	77.93
716.12	76.34
716.304	77.34
716.488	76.26
716.671	77.78
716.855	77.24
717.039	78.39
717.223	78.34
717.407	79.57
717.59	79.33
717.774	79.91
717.958	80
718.142	81.38
718.325	80.34
718.509	80.5
718.693	79.8
718.877	78.61
719.06	78.17
719.244	78.1
719.428	77.96
719.611	79.42
719.795	79.68
719.978	80.66
720.162	82.53
720.345	82.39
720.529	82.83
720.713	83.82
720.896	86.38
721.08	85.19
721.263	85.26
721.446	85.67
721.63	87.18
721.813	87.85
721.997	87.42
722.18	85.52
722.364	87.35
722.547	87.17
722.73	86.2
722.914	86.03
723.097	87.81
723.28	88.07
723.464	89.12
723.647	87.84
723.83	87.89
724.013	88.36
724.197	90.29
724.38	87.64
724.563	87.48
724.746	88.33
724.929	88.01
725.112	89.09
725.296	88.71
725.479	87.85
725.662	85.32
725.845	86.15
726.028	85.87
726.211	82.27
726.394	83.67
726.577	84.59
726.76	82.2
726.943	82.01
727.126	79.67
727.309	80.71
727.492	79.42
727.675	79.47
727.858	77.95
728.041	77.36
728.224	80.07
728.407	79.69
728.589	78.96
728.772	79.65
728.955	81.11
729.138	81.02
729.321	78.92
729.503	79.77
729.686	82.32
729.869	82.78
730.052	83.44
730.234	82.98
730.417	83.47
730.6	83.54
730.782	85.01
730.965	84.23
731.148	85.72
731.33	86.69
731.513	86.43
731.695	83.82
731.878	84.7
732.061	85.07
732.243	84.6
732.426	85.3
732.608	85.53
732.791	85.28
732.973	85.39
733.156	84.76
733.338	85.2
733.52	85.23
733.703	86.04
733.885	86.5
734.068	85.14
734.25	86.03
734.432	84.69
734.615	85.83
734.797	87.25
734.979	86.56
735.162	86.52
735.344	86.33
735.526	87.7
735.708	88.51
735.891	86.88
736.073	88.81
736.255	88.52
736.437	88.74
736.619	88.83
736.802	86.6
736.984	88.31
737.166	89.52
737.348	90.12
737.53	89.84
737.712	89.21
737.894	89.51
738.076	90.25
738.258	89.6
738.44	88.74
738.622	88.27
738.804	89.47
738.986	87.5
739.168	86.04
739.35	87.08
739.532	88.07
739.714	91.25
739.896	92.22
740.078	92.33
740.259	93.19
740.441	96.14
740.623	97.52
740.805	98.4
740.987	98.52
741.168	100.44
741.35	98.56
741.532	98.22
741.714	98.8
741.895	99.11
742.077	97.52
742.259	99.37
742.44	98.6
742.622	98.55
742.804	99.29
742.985	100.81
743.167	99.42
743.348	103.05
743.53	103.79
743.711	100.54
743.893	101.92
744.075	102.79
744.256	102.29
744.438	104.04
744.619	104.58
744.8	100.85
744.982	102.1
745.163	104.08
745.345	100.12
745.526	100.97
745.707	101.75
745.889	101.67
746.07	102.65
746.252	101.31
746.433	99.39
746.614	98.95
746.795	101.31
746.977	99.72
747.158	99.16
747.339	101.98
747.52	102.17
747.702	100.73
747.883	100.69
748.064	100.01
748.245	99.5
748.426	100.32
748.607	97.83
748.788	98.49
748.97	99.26
749.151	98.71
749.332	97.1
749.513	95
749.694	97.43
749.875	97.91
750.056	98.04
750.237	99.91
750.418	101.2
750.599	105.63
750.78	105.95
750.96	105.38
751.141	106.75
751.322	110.92
751.503	112.7
751.684	111.46
751.865	107.47
752.046	108.08
752.226	105
752.407	103.37
752.588	104.05
752.769	103.62
752.949	105.44
753.13	105.65
753.311	100.17
753.492	100.26
753.672	100.84
753.853	101.72
754.034	102.06
754.214	104.27
754.395	102.8
754.575	104.08
754.756	104.96
754.937	105.86
755.117	103.9
755.298	105.6
755.478	104.92
755.659	103.07
755.839	106.48
756.02	106.08
756.2	107.42
756.381	107.84
756.561	105.84
756.741	104.16
756.922	102.73
757.102	105.87
757.283	108.3
757.463	107.55
757.643	109.15
757.823	106.33
758.004	105.01
758.184	104.05
758.364	105.94
758.545	105.35
758.725	106.53
758.905	106.18
759.085	103.02
759.265	103.42
759.446	102.55
759.626	101.32
759.806	101.42
759.986	104.18
760.166	106.07
760.346	102.05
760.526	99.09
760.706	97.75
760.886	94.85
761.066	95.69
761.246	92.36
761.426	88.82
761.606	87.43
761.786	87.59
761.966	86.17
762.146	82.13
762.326	82.13
762.506	82
762.686	79.95
762.866	80.15
763.046	78.78
763.225	79.06
763.405	79.72
763.585	80.87
763.765	79.84
763.945	79.84
764.124	80.04
764.304	81.72
764.484	83.62
764.664	85.83
764.843	87.34
765.023	90.95
765.203	91.62
765.382	95.51
765.562	96.28
765.741	97.46
765.921	99.72
766.101	101.68
766.28	101.12
766.46	102.27
766.639	100.65
766.819	103.52
766.998	102.22
767.178	102.02
767.357	101.74
767.537	101.42
767.716	104.17
767.896	104.04
768.075	106.34
768.254	106.99
768.434	105.32
768.613	109.23
768.792	107.21
768.972	108.7
769.151	112.5
769.33	113.64
769.51	115.8
769.689	113.79
769.868	115.27
770.047	114.76
770.226	115.95
770.406	116.82
770.585	119.5
770.764	119.34
770.943	118.53
771.122	116.28
771.301	115.56
771.48	115.44
771.66	117.57
771.839	114.77
772.018	116.99
772.197	114.62
772.376	115.8
772.555	114.86
772.734	116.31
772.913	115.71
773.092	117.58
773.271	115.1
773.449	119.44
773.628	118.12
773.807	117.35
773.986	118.55
774.165	123.63
774.344	121.44
774.523	118.16
774.701	119.57
774.88	126.03
775.059	125.11
775.238	129.95
775.417	125.64
775.595	131.64
775.774	136.25
775.953	131.64
776.131	130.43
776.31	132.08
776.489	140.79
776.667	136.8
776.846	130.16
777.025	130
777.203	127.59
777.382	125.6
777.56	120.63
777.739	115.61
777.917	118.56
778.096	120.06
778.274	121.58
778.453	115.92
778.631	117.22
778.81	116.17
778.988	117.22
779.166	120.09
779.345	123.33
779.523	122.77
779.702	124.81
779.88	124.49
780.058	122.5
780.237	124.5
780.415	125.3
780.593	129.48
780.771	134.5
780.95	139.77
781.128	142.32
781.306	141.45
781.484	145.45
781.662	161.1
781.841	157.5
782.019	159.07
782.197	157.12
782.375	147.79
782.553	146.38
782.731	142.51
782.909	131.91
783.087	134.09
783.265	136.1
783.443	137.62
783.621	126.8
783.799	132.14
783.977	135.43
784.155	141.72
784.333	155
784.511	146.77
784.689	150.63
784.867	154.89
785.045	149.42
785.223	153.49
785.4	151.1
785.578	149.77
785.756	146.48
785.934	141.87
786.112	133.86
786.289	131.4
786.467	131.39
786.645	128.39
786.823	124.76
787	122.06
787.178	120.66
787.356	116.61
787.533	119.17
787.711	118.34
787.889	121.07
788.066	120.77
788.244	117.6
788.421	121.23
788.599	119.18
788.776	119.09
788.954	122.9
789.131	117.86
789.309	121.37
789.486	117.45
789.664	120.8
789.841	116
790.019	116.3
790.196	123.08
790.373	123.98
790.551	134.71
790.728	138.14
790.906	139.4
791.083	143.08
791.26	139.31
791.437	142.36
791.615	143.62
791.792	149.21
791.969	148.21
792.146	142.96
792.324	140.04
792.501	131.48
792.678	137.22
792.855	131.5
793.032	133.58
793.209	135.95
793.387	135.83
793.564	132.79
793.741	132.96
793.918	134.76
794.095	137.3
794.272	142.1
794.449	141.61
794.626	139.6
794.803	142.38
794.98	142.54
795.157	139.65
795.334	139.43
795.511	137.32
795.688	135.86
795.864	133.34
796.041	132.93
796.218	131.58
796.395	133.37
796.572	137.42
796.749	141.97
796.925	142.56
797.102	148.99
797.279	150.55
797.456	151.37
797.632	151.92
797.809	155.09
797.986	158.06
798.162	164.15
798.339	164.52
798.516	162.17
798.692	161.43
798.869	150.12
799.046	148.82
799.222	145.49
799.399	150.73
799.575	158.19
799.752	159.21
799.928	156.04
800.105	150.19
800.281	156.97
800.458	152.94
800.634	149.34
800.811	172.07
800.987	185.8
801.163	197.36
801.34	196.81
801.516	195
801.692	209.21
801.869	210.04
802.045	225.76
802.221	214.03
802.398	217.63
802.574	215.58
802.75	195.61
802.926	186.22
803.103	182.85
803.279	177.48
803.455	172.82
803.631	168.83
803.807	165.17
803.983	159.7
804.16	164.98
804.336	161.56
804.512	163.38
804.688	164.47
804.864	163.26
805.04	162.54
805.216	172.66
805.392	174.9
805.568	182.53
805.744	185.39
805.92	194.23
806.096	190.62
806.272	198.3
806.448	200.76
806.623	206.82
806.799	202.69
806.975	206.48
807.151	201.25
807.327	211.12
807.503	199.72
807.678	205.8
807.854	197.17
808.03	201.48
808.206	194.2
808.381	184.78
808.557	174.01
808.733	172.18
808.908	169.51
809.084	172.23
809.26	160.87
809.435	161.03
809.611	163.41
809.787	162.71
809.962	164.64
810.138	167.47
810.313	172.98
810.489	176.11
810.664	179.68
810.84	187.47
811.015	193.42
811.191	204
811.366	199.65
811.542	188.72
811.717	181.66
811.892	174.34
812.068	182.97
812.243	184.19
812.419	181.73
812.594	182.72
812.769	175.39
812.944	163.72
813.12	162.98
813.295	168.4
813.47	167.24
813.645	178.29
813.821	181.19
813.996	174.13
814.171	176.34
814.346	175.57
814.521	177.56
814.697	181.65
814.872	184.84
815.047	188.41
815.222	185.24
815.397	184.61
815.572	179.11
815.747	172.55
815.922	172.42
816.097	173.66
816.272	173.24
816.447	167.56
816.622	165.73
816.797	172.87
816.972	164.57
817.147	162.5
817.322	167.27
817.496	168.84
817.671	165.41
817.846	167.28
818.021	161.42
818.196	159.33
818.371	153.84
818.545	148.91
818.72	143.4
818.895	141.71
819.069	141.4
819.244	136.58
819.419	130.45
819.594	132.52
819.768	124.41
819.943	117.01
820.117	110.96
820.292	105.42
820.467	97.69
820.641	91.37
820.816	88.1
820.99	84.1
821.165	79.81
821.339	77.24
821.514	75
821.688	72.63
821.863	71.26
822.037	69.99
822.212	68.51
822.386	67.83
822.56	66.26
822.735	66.66
822.909	65.06
823.084	65.71
823.258	65.32
823.432	66.16
823.606	67.48
823.781	68.69
823.955	69.72
824.129	72.61
824.303	76.41
824.478	79.81
824.652	79.21
824.826	84.04
825	85.1
825.174	88.82
825.348	87.7
825.523	90.77
825.697	92.62
825.871	94.9
826.045	95.17
826.219	94.94
826.393	96.32
826.567	96.44
826.741	97.24
826.915	95.89
827.089	95.69
827.263	93.02
827.437	90.6
827.611	89.79
827.784	90.96
827.958	90.55
828.132	91.88
828.306	94.43
828.48	99.65
828.654	99.43
828.827	104.62
829.001	105.24
829.175	112.9
829.349	117.08
829.522	126.34
829.696	132.86
829.87	140
830.044	141.62
830.217	143.01
830.391	142.77
830.565	145.07
830.738	140.91
830.912	142.02
831.085	151.49
831.259	163.43
831.432	156.41
831.606	150.22
831.779	148.5
831.953	150.2
832.126	141.57
832.3	136.63
832.473	130.37
832.647	134.57
832.82	132.99
832.994	122.41
833.167	119.46
833.34	114.26
833.514	109.46
833.687	108.36
833.86	107.15
834.034	109.19
834.207	110.71
834.38	111.7
834.553	109.45
834.727	111.59
834.9	115.56
835.073	117.93
835.246	122.82
835.419	130.65
835.593	132.57
835.766	130.63
835.939	134.68
836.112	133.86
836.285	141.48
836.458	153.81
836.631	159.77
836.804	165.83
836.977	158.65
837.15	166.45
837.323	172.42
837.496	174.23
837.669	175.1
837.842	174.41
838.015	195.16
838.188	194.13
838.361	196.18
838.533	191.67
838.706	195.61
838.879	209.72
839.052	208.31
839.225	209.37
839.398	210.44
839.57	213.93
839.743	218.89
839.916	205.41
840.088	211.95
840.261	215.07
840.434	206.84
840.607	212.87
840.779	206.28
840.952	207.7
841.124	227.51
841.297	266.54
841.47	286.5
841.642	290.98
841.815	297
841.987	295.36
842.16	277.55
842.332	349.87
842.505	359.79
842.677	336.73
842.85	295.7
843.022	272.86
843.194	254.91
843.367	300.08
843.539	295.43
843.712	299.25
843.884	304.75
844.056	328.81
844.229	306.71
844.401	288.66
844.573	324.17
844.745	424.7
844.918	463.57
845.09	415.54
845.262	380.34
845.434	404.44
845.606	418.73
845.779	523.17
845.951	523.6
846.123	694.79
846.295	659.17
846.467	539.42
846.639	562.56
846.811	541.6
846.983	549.07
847.155	485.97
847.327	521.03
847.499	554.26
847.671	540.35
847.843	504.65
848.015	398.37
848.187	497.79
848.359	500.43
848.531	421.9
848.703	339.78
848.875	423.17
849.047	378.49
849.218	367.44
849.39	356.1
849.562	289.6
849.734	301.75
849.905	369.32
850.077	333.39
850.249	358.28
850.421	375.61
850.592	404.39
850.764	381.51
850.936	405.17
851.107	414.81
851.279	398.55
851.451	528.34
851.622	475.2
851.794	414.29
851.965	438.42
852.137	429.21
852.308	412.82
852.48	446.37
852.651	358.48
852.823	386.76
852.994	390.93
853.166	397.16
853.337	392.15
853.509	427.23
853.68	482.47
853.851	413.25
854.023	357.32
854.194	327.02
854.365	326.49
854.537	373.41
854.708	349.9
854.879	372.4
855.05	378.26
855.222	326.73
855.393	318.87
855.564	279.83
855.735	287.19
855.906	342.11
856.078	466.06
856.249	444.91
856.42	445.38
856.591	458.29
856.762	455.29
856.933	396.69
857.104	458.94
857.275	449.54
857.446	517.37
857.617	473.52
857.788	448.96
857.959	353.67
858.13	372.11
858.301	358.1
858.472	341
858.643	315.59
858.814	356.62
858.985	385.21
859.155	455.39
859.326	494.25
859.497	862.86
859.668	1578.08
859.839	1697.44
860.009	1774.05
860.18	8761.11
860.351	-9637.5
860.522	8942.86
860.692	-16747.37
860.863	5029.03
861.034	1984.62
861.204	1320.8
861.375	643.26
861.546	464.2
861.716	498.36
861.887	444.23
862.057	433.76
862.228	437.85
862.398	512.47
862.569	430.66
862.739	455.64
862.91	434.86
863.08	424.94
863.251	489.8
863.421	602.69
863.592	766.82
863.762	1612.25
863.932	1052.22
864.103	909.9
864.273	802.09
864.443	929.59
864.614	1173.78
864.784	630.7
864.954	545.33
865.125	456.15
865.295	444.01
865.465	356.9
865.635	331.11
865.805	336.02
865.976	356
866.146	369.3
866.316	388.66
866.486	339.4
866.656	431.79
866.826	456.83
866.996	461.1
867.166	386.07
867.336	425.05
867.506	363.65
867.676	363.19
867.846	375.81
868.016	381.05
868.186	348.42
868.356	356.62
868.526	326.89
868.696	361.62
868.866	360.47
869.036	451.57
869.206	438.22
869.376	493.09
869.545	427.9
869.715	424.43
869.885	373.54
870.055	351.62
870.224	369.33
870.394	393.25
870.564	343.02
870.734	377.77
870.903	356.69
871.073	359.79
871.243	315.03
871.412	369.75
871.582	362.49
871.751	409.52
871.921	502.73
872.091	497.11
872.26	488.68
872.43	532.43
872.599	456.73
872.769	398.8
872.938	480.97
873.108	603.99
873.277	594.63
873.446	520.47
873.616	489.89
873.785	455.81
873.955	477.06
874.124	348.68
874.293	349.21
874.463	372.95
874.632	329.69
874.801	315.17
874.971	369.7
875.14	370.86
875.309	359.78
875.478	385.83
875.647	368.83
875.817	327.64
875.986	437.24
876.155	415.29
876.324	445.11
876.493	589.98
876.662	424.73
876.831	328.58
877	345.77
877.17	392.96
877.339	412.14
877.508	461.72
877.677	476.88
877.846	388.53
878.015	440.54
878.184	455.68
878.352	402.75
878.521	441.32
878.69	467
878.859	413.21
879.028	366.99
879.197	352.81
879.366	383.68
879.534	361.24
879.703	343.1
879.872	298.35
880.041	250.03
880.21	236.14
880.378	227.5
880.547	215.48
880.716	180.86
880.884	170.32
881.053	153.62
881.222	135.43
881.39	129.78
881.559	123.89
881.727	118.74
881.896	112.01
882.065	104.48
882.233	102.65
882.402	99.41
882.57	100.97
882.739	99.81
882.907	99.98
883.076	100.7
883.244	102.63
883.412	106.84
883.581	107.85
883.749	109.48
883.918	119.74
884.086	127.51
884.254	132.06
884.423	138.99
884.591	148.79
884.759	155.84
884.927	169
885.096	172.87
885.264	188.29
885.432	205.33
885.6	221.67
885.769	248.22
885.937	258.5
886.105	276.68
886.273	287.32
886.441	307.25
886.609	337.14
886.777	338.24
886.945	361.87
887.113	403.15
887.281	458.16
887.449	451.94
887.617	381.13
887.785	369.37
887.953	399.07
888.121	510.76
888.289	480.66
888.457	425.44
888.625	436.87
888.793	540.85
888.961	473.68
889.129	475.5
889.296	443.15
889.464	455.77
889.632	497.24
889.8	462.39
889.967	412.74
890.135	405.28
