Data from JASIL_3058_Reflection_01.txt Node
Date: Mon Nov 09 11:27:53 EST 2015
User: Geneva
Spectrometer: USB4E03002
Autoset integration time: false
Trigger mode: 4
Integration Time (sec): 1.000000E-1
Scans to average: 10
Electric dark correction enabled: false
Nonlinearity correction enabled: false
Boxcar width: 5
Stray light correction enabled: false
XAxis mode: Wavelengths
Stop averaging: false
Number of Pixels in Spectrum: 3648
>>>>>Begin Spectral Data<<<<<
177.575	-62.32
177.794	5.69
178.014	52.74
178.233	67.72
178.452	104.08
178.672	94.89
178.891	120.48
179.11	105.98
179.33	95.61
179.549	102.68
179.768	109.7
179.987	89.02
180.207	72.16
180.426	58.06
180.645	120.27
180.864	253.45
181.084	47.1
181.303	60
181.522	-8.33
181.741	-51.47
181.96	214.86
182.179	-93.75
182.398	22.73
182.618	74.77
182.837	95
183.056	63.7
183.275	101.31
183.494	107.39
183.713	140.73
183.932	104.1
184.151	97.03
184.37	121.43
184.589	300
184.808	99.28
185.027	-318.52
185.246	-347.06
185.465	338.1
185.684	477.27
185.903	264.29
186.122	262.26
186.341	254
186.56	341.53
186.779	244.58
186.998	1094.44
187.216	420.73
187.435	232.23
187.654	229.3
187.873	1032.43
188.092	243.09
188.311	235.48
188.53	209.94
188.748	235.23
188.967	173.57
189.186	324.18
189.405	-6550
189.623	1136.84
189.842	146.89
190.061	259.32
190.28	-69.13
190.498	-155.13
190.717	-289.19
190.936	182.52
191.154	107.32
191.373	97.45
191.592	163.72
191.81	227.12
192.029	204.55
192.248	195.26
192.466	331.07
192.685	76.64
192.904	49.74
193.122	-1.61
193.341	32.93
193.559	-388.89
193.778	1127.78
193.996	-153.28
194.215	-128.24
194.433	-172.94
194.652	-590.36
194.87	-150.22
195.089	-324.8
195.307	339.57
195.526	-687.88
195.744	2061.54
195.963	458.95
196.181	239.78
196.399	124.72
196.618	126.09
196.836	497.62
197.055	-6.94
197.273	-41.14
197.491	-98.52
197.71	54.98
197.928	65.14
198.146	124.04
198.365	81.5
198.583	62.46
198.801	-31.98
199.019	-129.3
199.238	-104.5
199.456	-96.28
199.674	-73.62
199.892	-3.73
200.111	-50.82
200.329	-57.6
200.547	-21.79
200.765	-18.58
200.983	-60.32
201.202	-10.53
201.42	48.37
201.638	22.48
201.856	281.43
202.074	320.72
202.292	277.69
202.51	-7850
202.728	-597.73
202.946	345.45
203.165	3722.22
203.383	-940
203.601	244.36
203.819	242.11
204.037	88.24
204.255	60
204.473	380.95
204.691	88.44
204.909	105.36
205.127	1203.57
205.345	150.32
205.562	-66
205.78	-91.67
205.998	148.7
206.216	-193.94
206.434	245.16
206.652	-100
206.87	273.56
207.088	169.23
207.306	166.91
207.523	700
207.741	268.75
207.959	2471.43
208.177	241.18
208.395	176.07
208.612	123.38
208.83	97.02
209.048	105.52
209.266	70.94
209.483	23.48
209.701	9.41
209.919	22.25
210.136	-5.5
210.354	43.69
210.572	76.68
210.79	-398.21
211.007	8266.67
211.225	1210.34
211.442	-17500
211.66	-102.59
211.878	-28.87
212.095	-56.16
212.313	-59.09
212.53	-205.15
212.748	-124.79
212.966	-60.06
213.183	-672.73
213.401	948.15
213.618	-74.16
213.836	-41.89
214.053	-152.94
214.271	-8566.67
214.488	326.26
214.705	-261.26
214.923	-41.79
215.14	-0
215.358	-67.68
215.575	-26.42
215.793	-19.38
216.01	-45.49
216.227	-46.73
216.445	-95.26
216.662	-111.65
216.879	-128.9
217.097	-414.81
217.314	-1000
217.531	984.31
217.749	304.03
217.966	151.42
218.183	127.43
218.4	74.91
218.618	198.87
218.835	89.03
219.052	99.4
219.269	238.61
219.487	1725
219.704	807.41
219.921	153.75
220.138	156.86
220.355	170.28
220.572	203.86
220.79	338.35
221.007	249.77
221.224	-895.31
221.441	-4500
221.658	336.08
221.875	209.17
222.092	180.21
222.309	767.14
222.526	-8128.57
222.743	574.6
222.96	279.37
223.177	233.01
223.394	277.03
223.611	117.31
223.828	124.23
224.045	144.3
224.262	120.17
224.479	112.16
224.696	99.65
224.913	73.48
225.13	72.7
225.347	89.71
225.564	66.28
225.781	53.85
225.997	68.55
226.214	62.42
226.431	43.45
226.648	35.97
226.865	31.55
227.082	17.5
227.298	21.71
227.515	8.18
227.732	13.81
227.949	22.34
228.165	14.24
228.382	3.35
228.599	9.26
228.816	20.33
229.032	20.61
229.249	27.38
229.466	30.76
229.682	31.47
229.899	35.26
230.116	28.69
230.332	25.41
230.549	38.22
230.765	42.92
230.982	36.12
231.199	33.05
231.415	34.14
231.632	31.56
231.848	38.67
232.065	38.28
232.281	47.03
232.498	48.05
232.714	37.88
232.931	34.12
233.147	29.43
233.364	23.57
233.58	32.02
233.797	34.14
234.013	30.72
234.23	31.82
234.446	24.13
234.662	12.27
234.879	24.49
235.095	42.14
235.312	44.92
235.528	52.67
235.744	54.31
235.961	49.81
236.177	50.09
236.393	54.23
236.61	47.12
236.826	52.04
237.042	48.31
237.258	48.9
237.475	58.45
237.691	64.71
237.907	67.88
238.123	65.63
238.339	65.24
238.556	58.47
238.772	49.58
238.988	43.61
239.204	44.28
239.42	39.82
239.636	31.93
239.853	24.99
240.069	23.34
240.285	18.18
240.501	15.94
240.717	12.25
240.933	13.27
241.149	11.2
241.365	16.71
241.581	17.03
241.797	15.8
242.013	14.42
242.229	13.13
242.445	8.77
242.661	8.84
242.877	12.45
243.093	6.36
243.309	6.05
243.525	5.44
243.741	8.09
243.957	12.54
244.173	14.72
244.388	17.01
244.604	19.13
244.82	15.51
245.036	15.46
245.252	16.46
245.468	18.5
245.683	18.37
245.899	18.5
246.115	14.38
246.331	10.87
246.547	9.9
246.762	10.4
246.978	6.89
247.194	8.56
247.409	5.47
247.625	6.63
247.841	6.75
248.057	8.91
248.272	9.15
248.488	15.13
248.703	19.52
248.919	16.86
249.135	20.78
249.35	24.25
249.566	28.12
249.782	26.27
249.997	23.41
250.213	18.75
250.428	19.48
250.644	17.73
250.859	21.88
251.075	22.82
251.29	22.13
251.506	21.88
251.721	24.44
251.937	21.9
252.152	26.83
252.368	28.35
252.583	31.88
252.798	31.49
253.014	34.16
253.229	26.24
253.445	25.37
253.66	35.07
253.875	33.32
254.091	34.08
254.306	37.25
254.521	35.58
254.737	35.16
254.952	34.76
255.167	34.27
255.383	36.07
255.598	33.02
255.813	30.61
256.028	20.88
256.244	20.66
256.459	17.95
256.674	10.87
256.889	11.63
257.104	8.26
257.32	8.51
257.535	6.76
257.75	4.82
257.965	4.21
258.18	1.92
258.395	6.23
258.61	3.38
258.826	2.22
259.041	3.58
259.256	2.45
259.471	-0.27
259.686	-1.95
259.901	-3.44
260.116	-4.74
260.331	-3.36
260.546	-0.2
260.761	-5.43
260.976	-3.72
261.191	-1.07
261.406	-0.11
261.621	2.01
261.836	9.51
262.05	8.14
262.265	12.27
262.48	16.9
262.695	15.1
262.91	16.26
263.125	15.15
263.34	14.7
263.555	12.4
263.769	7.34
263.984	3.57
264.199	-1.2
264.414	3.89
264.629	2.9
264.843	-0.66
265.058	2.7
265.273	2.08
265.488	5.44
265.702	8.54
265.917	9.66
266.132	13.62
266.346	14.97
266.561	12.92
266.776	9.35
266.99	8.88
267.205	6.96
267.42	3.19
267.634	4.47
267.849	2.39
268.063	-2.02
268.278	-2.03
268.492	-4.61
268.707	-1.18
268.922	0.13
269.136	3.38
269.351	3.9
269.565	3.72
269.78	7.35
269.994	4.7
270.209	6.54
270.423	7.23
270.637	5.13
270.852	2.54
271.066	2.57
271.281	5.37
271.495	6.1
271.709	4.21
271.924	5.63
272.138	3.31
272.353	2.25
272.567	1.86
272.781	1.03
272.996	1.8
273.21	5.41
273.424	6.04
273.638	7.9
273.853	5.1
274.067	6.08
274.281	8.06
274.495	7.93
274.71	12.95
274.924	14.33
275.138	15.06
275.352	14.28
275.566	14.75
275.781	14.77
275.995	13.98
276.209	14.49
276.423	13.78
276.637	13.69
276.851	14.34
277.065	10.5
277.279	9.43
277.493	9.66
277.707	10.89
277.921	10.79
278.135	12.47
278.349	10.58
278.563	9.81
278.777	12.44
278.991	12.78
279.205	11.74
279.419	12.24
279.633	13.81
279.847	13.56
280.061	11.21
280.275	12.88
280.489	9.08
280.703	8.4
280.917	10.16
281.131	9.31
281.344	9.4
281.558	6.49
281.772	6.04
281.986	4.33
282.2	4.98
282.414	4.54
282.627	4.9
282.841	8.4
283.055	8.94
283.269	8.43
283.482	5.69
283.696	4.08
283.91	5.06
284.123	4.68
284.337	5.05
284.551	4.22
284.764	5.83
284.978	1.08
285.192	-2.13
285.405	-2.34
285.619	-1.45
285.833	-1.72
286.046	-0.95
286.26	4.33
286.473	5.22
286.687	6.32
286.9	7.97
287.114	6.69
287.327	6.19
287.541	7.41
287.754	10.31
287.968	11.11
288.181	13.36
288.395	11.09
288.608	9.06
288.822	9.84
289.035	7.97
289.248	6.99
289.462	7.76
289.675	9.76
289.889	10.14
290.102	7.08
290.315	1.57
290.529	1.16
290.742	2.02
290.955	0.37
291.169	1.04
291.382	0.47
291.595	1.17
291.808	3.91
292.022	9.12
292.235	9.33
292.448	10.7
292.661	14.45
292.875	15.32
293.088	15.54
293.301	15.09
293.514	14.85
293.727	15.15
293.94	17.98
294.153	14.51
294.367	10.31
294.58	7.55
294.793	5.15
295.006	4.19
295.219	4.74
295.432	5.74
295.645	5.15
295.858	2.79
296.071	2.69
296.284	0
296.497	2.74
296.71	3.51
296.923	4.84
297.136	6.87
297.349	7.99
297.562	6.2
297.775	7.17
297.988	9.01
298.201	9.55
298.414	10.82
298.626	13.2
298.839	8.25
299.052	6.75
299.265	6.7
299.478	5.89
299.691	5.01
299.903	7.8
300.116	8.39
300.329	5.96
300.542	8.22
300.755	6.85
300.967	6
301.18	11
301.393	11.57
301.605	12.33
301.818	11.76
302.031	12.13
302.243	11.55
302.456	10.39
302.669	12.71
302.881	11.27
303.094	10.81
303.307	9.58
303.519	7.42
303.732	7.52
303.944	6.45
304.157	8.83
304.37	10.19
304.582	9.48
304.795	9.65
305.007	5.52
305.22	4.47
305.432	7.71
305.645	7.04
305.857	9.07
306.069	10.36
306.282	10.66
306.494	8.51
306.707	7.61
306.919	7.28
307.132	4.77
307.344	7.93
307.556	8.8
307.769	9.18
307.981	12.57
308.193	12.04
308.406	11.03
308.618	11.01
308.83	12.86
309.043	11.02
309.255	10.88
309.467	10.93
309.679	12.96
309.892	13.74
310.104	12.02
310.316	10.44
310.528	10.45
310.74	9.01
310.953	8.81
311.165	7.64
311.377	9.65
311.589	9.12
311.801	12.53
312.013	9.2
312.225	9.01
312.437	12.05
312.649	12.38
312.862	11.57
313.074	14.85
313.286	14.96
313.498	13.88
313.71	13.94
313.922	15.75
314.134	13.48
314.346	14.42
314.558	14.54
314.77	10
314.982	10.84
315.193	11.09
315.405	11.91
315.617	8.9
315.829	8.91
316.041	7.82
316.253	4.89
316.465	4.31
316.677	6.43
316.888	5.26
317.1	7.51
317.312	7.67
317.524	6.21
317.736	1.22
317.947	6.57
318.159	5.1
318.371	4.58
318.583	5.78
318.794	8.13
319.006	6.97
319.218	6.92
319.43	7.84
319.641	8.12
319.853	12.36
320.064	14.84
320.276	14.11
320.488	17.7
320.699	18.58
320.911	21.75
321.123	22.09
321.334	19.51
321.546	19.94
321.757	18.2
321.969	19.99
322.18	18.33
322.392	18.61
322.603	14.48
322.815	12.72
323.026	10.99
323.238	8.18
323.449	5.34
323.661	7.03
323.872	8.05
324.083	6.97
324.295	5.93
324.506	5.58
324.718	5.59
324.929	8.87
325.14	9.52
325.352	9.35
325.563	9.15
325.774	11.1
325.986	8.3
326.197	7.51
326.408	10.09
326.62	10.3
326.831	9.68
327.042	8.39
327.253	7.52
327.464	8.92
327.676	10.51
327.887	13.76
328.098	12.62
328.309	17.35
328.52	18.39
328.732	18.09
328.943	14.08
329.154	18.54
329.365	18.49
329.576	20.41
329.787	19.75
329.998	19.27
330.209	16.04
330.42	17.38
330.631	15.47
330.842	14.93
331.053	14.12
331.264	14.33
331.475	11.81
331.686	14.06
331.897	12.83
332.108	13.54
332.319	14.18
332.53	14.83
332.741	16.11
332.952	15.04
333.163	12.73
333.374	14.16
333.585	15.15
333.795	13.38
334.006	11.73
334.217	10.54
334.428	11.52
334.639	10.21
334.849	9.26
335.06	8.28
335.271	8.24
335.482	9.82
335.692	6.76
335.903	6.75
336.114	5.58
336.325	5.91
336.535	8.38
336.746	6.81
336.957	9.2
337.167	11.01
337.378	13.97
337.589	14.99
337.799	16.66
338.01	16.68
338.22	17.09
338.431	18.01
338.642	17.85
338.852	18.77
339.063	19.27
339.273	18.04
339.484	16.23
339.694	13.94
339.905	13.09
340.115	11.67
340.326	13.24
340.536	13
340.746	13.59
340.957	12.58
341.167	11.82
341.378	14.52
341.588	15.17
341.799	15.36
342.009	14.61
342.219	15.92
342.43	16.11
342.64	16.8
342.85	15.18
343.061	17.17
343.271	18.04
343.481	17.76
343.691	15.97
343.902	16.53
344.112	16.67
344.322	16.07
344.532	14.61
344.743	15.21
344.953	15.85
345.163	19.1
345.373	17.36
345.583	17.69
345.793	17.79
346.004	16.79
346.214	13.4
346.424	15.69
346.634	15.03
346.844	15.66
347.054	15.19
347.264	13.38
347.474	11.5
347.684	11.62
347.894	11.15
348.104	9.25
348.314	9.27
348.524	11.86
348.734	8.49
348.944	10.23
349.154	10.66
349.364	11.14
349.574	9.9
349.784	10.28
349.994	8.55
350.204	10.65
350.413	12.91
350.623	12.99
350.833	13.07
351.043	13.68
351.253	13.26
351.463	12.23
351.672	9.32
351.882	11.29
352.092	10.99
352.302	11.84
352.511	11.26
352.721	9.19
352.931	7.12
353.141	6.25
353.35	5.35
353.56	5.26
353.77	5.33
353.979	8.36
354.189	9.12
354.399	8.66
354.608	9.21
354.818	9.11
355.027	10.78
355.237	11.88
355.447	13.62
355.656	14.61
355.866	14.83
356.075	15.94
356.285	16.1
356.494	15.4
356.704	16.47
356.913	17.36
357.123	16.58
357.332	17.09
357.542	15.9
357.751	14.92
357.96	15.41
358.17	13.6
358.379	15.1
358.589	14.44
358.798	13.71
359.007	13.96
359.217	12.1
359.426	12.68
359.635	13.06
359.845	14.04
360.054	14.06
360.263	13.42
360.472	13.84
360.682	12.63
360.891	11.02
361.1	11.63
361.309	10.34
361.519	12.01
361.728	10.32
361.937	10
362.146	10.24
362.355	10.25
362.564	11.07
362.774	11.11
362.983	9.92
363.192	12.14
363.401	13.35
363.61	14.38
363.819	13.13
364.028	13.71
364.237	12.97
364.446	13.09
364.655	12.45
364.864	12.54
365.073	13.6
365.282	14.37
365.491	13.19
365.7	13.55
365.909	12.06
366.118	11.77
366.327	12.3
366.536	11.54
366.745	12.33
366.954	12.56
367.162	11.7
367.371	12.18
367.58	12.19
367.789	12.19
367.998	10.21
368.207	9.91
368.415	10.94
368.624	9.22
368.833	9.06
369.042	6.75
369.25	7.5
369.459	7.28
369.668	6.78
369.877	4.6
370.085	6.37
370.294	6.76
370.503	8.03
370.711	6.45
370.92	8.32
371.129	8.64
371.337	9.66
371.546	8.86
371.754	8.66
371.963	8.97
372.171	10.18
372.38	10.67
372.589	10.65
372.797	9.24
373.006	10.88
373.214	10.62
373.423	10.82
373.631	12.56
373.84	12.76
374.048	12.4
374.256	10.58
374.465	12.27
374.673	9.68
374.882	9.73
375.09	9.83
375.298	9.73
375.507	10.96
375.715	12.35
375.923	9.79
376.132	10.72
376.34	11.89
376.548	11.86
376.757	11.83
376.965	13.35
377.173	13.59
377.381	14.39
377.59	14.32
377.798	13.1
378.006	12.04
378.214	14.09
378.423	14.07
378.631	13.59
378.839	14.51
379.047	12.17
379.255	11.42
379.463	10.1
379.671	9.43
379.879	9.37
380.088	10.32
380.296	8.34
380.504	7.18
380.712	5.65
380.92	5.1
381.128	6.98
381.336	8.82
381.544	9.15
381.752	10.27
381.96	11.34
382.168	10.82
382.376	9.76
382.584	11.27
382.791	11.54
382.999	12.07
383.207	12.71
383.415	10.63
383.623	9.54
383.831	10.13
384.039	8.24
384.247	7.8
384.454	6.47
384.662	5.86
384.87	6.4
385.078	6.28
385.285	6.45
385.493	6.81
385.701	7.63
385.909	8.01
386.116	7.01
386.324	8.07
386.532	8.48
386.739	8.99
386.947	9.47
387.155	8.71
387.362	8.94
387.57	8.78
387.778	8.42
387.985	8.23
388.193	8.76
388.4	9.34
388.608	10.04
388.816	10.86
389.023	11.82
389.231	12.51
389.438	13.03
389.646	12.11
389.853	11.07
390.061	11.11
390.268	9.73
390.475	9.69
390.683	9.24
390.89	9.17
391.098	8.34
391.305	8.08
391.512	7.5
391.72	6.47
391.927	7.29
392.135	7.59
392.342	7.24
392.549	8.44
392.756	7.67
392.964	7.24
393.171	6.98
393.378	7.16
393.586	6.83
393.793	6.77
394	7.97
394.207	7.18
394.414	7.52
394.622	6.55
394.829	5.48
395.036	5.58
395.243	5.83
395.45	5.65
395.657	5.25
395.864	6.28
396.072	6.92
396.279	7.02
396.486	7.98
396.693	7.96
396.9	8.52
397.107	9.09
397.314	9.96
397.521	8.23
397.728	9.4
397.935	10.16
398.142	9.38
398.349	7.59
398.556	6.28
398.763	5.07
398.97	5.04
399.177	5.28
399.383	4.98
399.59	3.76
399.797	5.5
400.004	4.62
400.211	2.71
400.418	3.2
400.625	3.51
400.831	4.57
401.038	4.09
401.245	3.6
401.452	3.93
401.658	5.33
401.865	6.09
402.072	5.68
402.279	5.03
402.485	6.42
402.692	6.53
402.899	8.3
403.105	8.24
403.312	8.54
403.519	9.36
403.725	8.82
403.932	8.82
404.138	7.76
404.345	7.99
404.552	8.78
404.758	8.66
404.965	7.98
405.171	7.17
405.378	7.75
405.584	8.61
405.791	7.61
405.997	8.16
406.204	8
406.41	8.79
406.617	8.68
406.823	8.75
407.029	7.65
407.236	8.07
407.442	7.2
407.649	6.32
407.855	7.33
408.061	7.85
408.268	7.85
408.474	7.6
408.68	8.41
408.887	8.52
409.093	8.74
409.299	8.79
409.505	9.09
409.712	9.79
409.918	9.29
410.124	9.58
410.33	9.65
410.537	8.39
410.743	9.21
410.949	8.25
411.155	8.18
411.361	6.72
411.567	7.7
411.773	7.8
411.98	7.51
412.186	8.38
412.392	7.36
412.598	7.82
412.804	9.66
413.01	8.37
413.216	8.85
413.422	8.83
413.628	10.03
413.834	9.8
414.04	9.32
414.246	8.46
414.452	8.54
414.658	7.56
414.864	7.52
415.07	5.81
415.275	5.71
415.481	5.4
415.687	5.27
415.893	4.47
416.099	3.94
416.305	4.71
416.511	6.15
416.716	5.82
416.922	6.15
417.128	6.7
417.334	7.3
417.539	7.64
417.745	8.18
417.951	7.88
418.157	8.33
418.362	8.14
418.568	8.24
418.774	7.51
418.979	7.77
419.185	7.76
419.391	6.95
419.596	7.04
419.802	6.47
420.008	6.07
420.213	6.48
420.419	5.98
420.624	6.34
420.83	5.44
421.035	5.71
421.241	5.6
421.446	5.85
421.652	5.75
421.857	5.47
422.063	5.84
422.268	5.76
422.474	5.45
422.679	5.38
422.885	5.45
423.09	5.98
423.295	5.9
423.501	5.39
423.706	5.39
423.911	5.39
424.117	5.27
424.322	5.09
424.527	5.15
424.733	4.88
424.938	5.29
425.143	4.8
425.349	4.2
425.554	3.65
425.759	3.8
425.964	2.74
426.169	2.7
426.375	2.88
426.58	3.04
426.785	2.99
426.99	3.4
427.195	3.32
427.4	3.88
427.605	3.92
427.811	4.47
428.016	4.75
428.221	5.94
428.426	6.91
428.631	7.18
428.836	7.44
429.041	6.75
429.246	7.16
429.451	7.28
429.656	7.64
429.861	8.01
430.066	7.98
430.271	7.47
430.476	6.64
430.681	5.67
430.886	4.92
431.09	4.74
431.295	5.1
431.5	5.59
431.705	5.46
431.91	4.37
432.115	4.17
432.32	4.6
432.524	4.48
432.729	4.91
432.934	5.39
433.139	5.3
433.343	5.2
433.548	5.56
433.753	5.35
433.958	4.86
434.162	5.58
434.367	6.04
434.572	5.64
434.776	5.85
434.981	6.55
435.186	6.28
435.39	7.45
435.595	6.92
435.799	6.75
436.004	6.51
436.209	6.11
436.413	6.17
436.618	6.1
436.822	6.24
437.027	6.46
437.231	5.58
437.436	6.17
437.64	5.72
437.845	6.24
438.049	6.22
438.253	6.17
438.458	6.47
438.662	5.87
438.867	5.9
439.071	5.7
439.275	5.6
439.48	6.06
439.684	5.37
439.888	5.08
440.093	5.28
440.297	5.46
440.501	5.23
440.706	5.36
440.91	5.86
441.114	5.46
441.318	5.64
441.523	6.06
441.727	5.94
441.931	6.55
442.135	6.64
442.339	6.55
442.543	6.2
442.748	6.59
442.952	6.73
443.156	6.56
443.36	7.14
443.564	7.27
443.768	6.82
443.972	6.41
444.176	6.02
444.38	6.54
444.584	5.93
444.788	6.03
444.992	5.87
445.196	5.86
445.4	6.03
445.604	5.59
445.808	5.62
446.012	5.86
446.216	6.19
446.42	6.35
446.624	6.04
446.828	6.53
447.032	6.6
447.235	6.66
447.439	6.39
447.643	5.98
447.847	6.29
448.051	6.22
448.254	6.05
448.458	6.33
448.662	5.82
448.866	6.52
449.069	6.26
449.273	5.9
449.477	6.15
449.681	6.65
449.884	6.86
450.088	6.65
450.292	5.73
450.495	5.99
450.699	5.46
450.902	6.09
451.106	5.83
451.31	5.79
451.513	5.98
451.717	5.36
451.92	5.27
452.124	5.21
452.327	4.47
452.531	5.63
452.734	5.57
452.938	5.63
453.141	4.91
453.345	4.43
453.548	4.02
453.752	4.64
453.955	4.4
454.158	4
454.362	4.73
454.565	5.31
454.769	4.92
454.972	3.78
455.175	3.37
455.379	3.66
455.582	3.82
455.785	4.51
455.988	3.9
456.192	4.13
456.395	4.65
456.598	4.3
456.801	3.91
457.005	4.51
457.208	5.3
457.411	5.71
457.614	5.93
457.817	5.99
458.021	5.79
458.224	5.74
458.427	5.86
458.63	5.56
458.833	5.26
459.036	5.21
459.239	4.78
459.442	4.62
459.645	4.63
459.848	4.72
460.051	4.46
460.254	4.69
460.457	4.82
460.66	4.9
460.863	5.29
461.066	5.52
461.269	6.12
461.472	6.32
461.675	6.71
461.878	6.44
462.081	6.11
462.284	5.84
462.486	5.12
462.689	5.17
462.892	5.18
463.095	5.13
463.298	5.23
463.5	5.51
463.703	5.68
463.906	6.13
464.109	6.78
464.311	6.46
464.514	6.67
464.717	7.1
464.92	7.06
465.122	7.05
465.325	6.88
465.528	7.71
465.73	7.91
465.933	7.49
466.135	6.54
466.338	6.29
466.541	6.4
466.743	6.21
466.946	5.76
467.148	6.26
467.351	5.86
467.553	6.19
467.756	5.48
467.958	4.31
468.161	4.16
468.363	4.55
468.566	4.69
468.768	4.3
468.971	4.93
469.173	5.45
469.375	4.61
469.578	4.97
469.78	4.62
469.983	4.13
470.185	5.09
470.387	5.25
470.59	4.91
470.792	4.77
470.994	5.56
471.196	5.27
471.399	5.06
471.601	5.28
471.803	5.6
472.005	5.44
472.208	6.19
472.41	5.96
472.612	5.84
472.814	5.64
473.016	5.85
473.218	6.37
473.421	6.07
473.623	5.98
473.825	5.86
474.027	6.2
474.229	5.96
474.431	6
474.633	5.78
474.835	6.5
475.037	6.65
475.239	6.33
475.441	6.21
475.643	5.78
475.845	5.68
476.047	5.9
476.249	5.12
476.451	5.54
476.653	5.1
476.855	4.58
477.057	4.39
477.258	4.4
477.46	4.63
477.662	4.19
477.864	4.88
478.066	5.35
478.268	5.13
478.469	5.47
478.671	5.21
478.873	4.93
479.075	5.16
479.276	4.94
479.478	5.39
479.68	5.43
479.882	5.35
480.083	5.26
480.285	5.14
480.487	5.4
480.688	4.63
480.89	5.03
481.091	5.52
481.293	5.77
481.495	5.95
481.696	5.95
481.898	5.73
482.099	5.74
482.301	5.56
482.502	5.55
482.704	5.49
482.905	5.67
483.107	5.49
483.308	5.26
483.51	5.18
483.711	5.07
483.913	4.87
484.114	5.1
484.315	5.09
484.517	5.4
484.718	5.32
484.92	5.18
485.121	5.16
485.322	5.15
485.524	5.31
485.725	5.42
485.926	5.45
486.127	5.41
486.329	4.97
486.53	5.09
486.731	4.85
486.932	4.97
487.134	4.93
487.335	5.2
487.536	5.27
487.737	5.31
487.938	5.31
488.139	5.12
488.341	5.34
488.542	5.54
488.743	5.34
488.944	5.29
489.145	5.12
489.346	5.25
489.547	4.83
489.748	4.73
489.949	4.45
490.15	4.28
490.351	4.3
490.552	4.15
490.753	4.08
490.954	4.06
491.155	4.05
491.356	4.29
491.557	4.25
491.758	4.36
491.959	4.46
492.159	4.47
492.36	4.77
492.561	5.04
492.762	5.19
492.963	5.24
493.164	5.58
493.364	6
493.565	5.77
493.766	5.99
493.967	5.76
494.167	5.93
494.368	5.96
494.569	5.73
494.769	5.44
494.97	5.35
495.171	5.6
495.371	5.35
495.572	4.98
495.773	5.02
495.973	4.84
496.174	5.3
496.375	5.23
496.575	5.59
496.776	5.51
496.976	5.56
497.177	5.44
497.377	5.19
497.578	4.89
497.778	5.06
497.979	5.03
498.179	4.86
498.38	4.2
498.58	4.27
498.78	3.99
498.981	4.27
499.181	4.06
499.382	4.22
499.582	4.33
499.782	4.62
499.983	4.52
500.183	4.35
500.383	4.12
500.584	4.59
500.784	4.79
500.984	4.84
501.184	4.55
501.385	5.06
501.585	5.53
501.785	6
501.985	5.88
502.185	5.32
502.386	5.61
502.586	6.2
502.786	6.1
502.986	6
503.186	5.81
503.386	5.78
503.586	5.58
503.786	5.56
503.987	5.51
504.187	5.6
504.387	6.25
504.587	6.37
504.787	6.05
504.987	6.44
505.187	6.53
505.387	6.74
505.587	6.82
505.786	6.61
505.986	6.57
506.186	6.05
506.386	6.21
506.586	6.32
506.786	6.04
506.986	6.33
507.186	6.15
507.386	5.67
507.585	5.74
507.785	5.56
507.985	6.17
508.185	6.3
508.384	6.59
508.584	6.49
508.784	6.57
508.984	6.3
509.183	6.07
509.383	6.07
509.583	6.16
509.782	6.06
509.982	6.46
510.182	6.23
510.381	5.9
510.581	5.76
510.781	6.21
510.98	6.09
511.18	6.42
511.379	6.72
511.579	6.76
511.778	6.95
511.978	6.79
512.177	7.27
512.377	7.05
512.576	6.77
512.776	6.43
512.975	6.12
513.175	6.05
513.374	6.03
513.573	6.22
513.773	6.35
513.972	6.78
514.172	6.89
514.371	6.29
514.57	7.12
514.77	7.52
514.969	8.05
515.168	8
515.367	8.13
515.567	8.38
515.766	8.12
515.965	8.14
516.164	8.09
516.364	8.38
516.563	8.1
516.762	7.37
516.961	7.3
517.16	7.36
517.359	7.24
517.559	7.46
517.758	7.63
517.957	7.57
518.156	7.32
518.355	7.08
518.554	7.45
518.753	7.47
518.952	7.66
519.151	7.75
519.35	7.56
519.549	7.7
519.748	7.39
519.947	7.17
520.146	7.75
520.345	8.2
520.544	8.03
520.743	7.86
520.942	8.34
521.141	8.57
521.339	8.85
521.538	9.13
521.737	9.34
521.936	9.33
522.135	9.45
522.333	8.96
522.532	8.86
522.731	9.06
522.93	8.79
523.129	8.65
523.327	8.46
523.526	8.68
523.725	8.37
523.923	8.24
524.122	8.69
524.321	8.83
524.519	8.91
524.718	8.46
524.917	8.54
525.115	8.71
525.314	8.78
525.512	8.66
525.711	8.63
525.909	8.43
526.108	8.51
526.306	8.61
526.505	8.44
526.703	8.56
526.902	8.99
527.1	8.83
527.299	8.81
527.497	8.81
527.696	8.87
527.894	8.69
528.092	9.05
528.291	8.96
528.489	8.88
528.688	8.89
528.886	8.8
529.084	8.81
529.283	8.94
529.481	9.09
529.679	9.38
529.877	9.6
530.076	9.48
530.274	9.62
530.472	9.92
530.67	10.02
530.869	9.94
531.067	10.09
531.265	10.22
531.463	10.21
531.661	10.32
531.859	10.09
532.057	10.08
532.255	10.41
532.454	10
532.652	9.85
532.85	9.79
533.048	10.17
533.246	10.19
533.444	10.06
533.642	9.91
533.84	9.78
534.038	9.67
534.236	9.78
534.434	9.83
534.632	10.3
534.83	10.65
535.027	10.64
535.225	10.23
535.423	10.46
535.621	10.24
535.819	10.65
536.017	10.53
536.215	10.8
536.412	10.81
536.61	10.8
536.808	10.94
537.006	10.76
537.203	10.81
537.401	11.34
537.599	11.26
537.797	11.32
537.994	11.36
538.192	11.14
538.39	11.03
538.587	11.3
538.785	11.42
538.983	11.39
539.18	11.14
539.378	11.07
539.575	10.96
539.773	10.67
539.97	10.87
540.168	10.78
540.366	11.17
540.563	11.43
540.761	11.19
540.958	11.15
541.155	11.06
541.353	11.18
541.55	11.37
541.748	11.19
541.945	11.18
542.143	11.07
542.34	11.19
542.537	11.04
542.735	10.69
542.932	10.85
543.129	11
543.327	11.1
543.524	11.49
543.721	11.42
543.919	11.86
544.116	12.26
544.313	12.79
544.51	13.12
544.708	13.06
544.905	13.45
545.102	13.22
545.299	13.2
545.496	13.03
545.693	12.67
545.891	12.84
546.088	12.32
546.285	12.31
546.482	11.79
546.679	10.99
546.876	11.28
547.073	11.62
547.27	12.08
547.467	11.87
547.664	12.34
547.861	12.98
548.058	12.53
548.255	13.33
548.452	13.6
548.649	14.16
548.846	15.21
549.043	15.05
549.24	14.52
549.437	14.31
549.633	14.27
549.83	14.44
550.027	14.27
550.224	14.16
550.421	14.13
550.618	14.6
550.814	14.4
551.011	13.84
551.208	14.01
551.405	13.96
551.601	14.05
551.798	14.23
551.995	14.27
552.191	14.24
552.388	15.11
552.585	15.25
552.781	15
552.978	15.31
553.175	15.5
553.371	15.63
553.568	15.68
553.764	16.13
553.961	16.78
554.157	15.92
554.354	16.19
554.55	15.69
554.747	15.98
554.943	16.04
555.14	16.21
555.336	16.74
555.533	17.41
555.729	17.9
555.926	17.48
556.122	16.88
556.318	17.68
556.515	18.26
556.711	19.37
556.907	18.86
557.104	18.61
557.3	18.61
557.496	18.62
557.693	17.87
557.889	18.22
558.085	18.16
558.281	18.65
558.478	18.54
558.674	17.82
558.87	17.57
559.066	17.47
559.262	17.77
559.459	17.86
559.655	18.44
559.851	18.39
560.047	18.01
560.243	18.49
560.439	18.51
560.635	18.56
560.831	19.04
561.027	18.39
561.223	19.23
561.419	18.99
561.615	19.28
561.811	18.28
562.007	18.47
562.203	17.92
562.399	17.66
562.595	18.02
562.791	18.41
562.987	18.01
563.183	18.35
563.379	17.68
563.575	18.18
563.771	18.06
563.966	18.1
564.162	18.5
564.358	19.1
564.554	19.31
564.75	19.37
564.945	19.29
565.141	19.51
565.337	19.28
565.533	19.9
565.728	20.28
565.924	20.29
566.12	21.05
566.315	21.27
566.511	21.25
566.707	21.45
566.902	21.98
567.098	22.19
567.293	21.78
567.489	22.13
567.684	21.94
567.88	21.64
568.076	21.45
568.271	21.39
568.467	21.72
568.662	21.8
568.858	21.82
569.053	20.58
569.248	20.5
569.444	20.74
569.639	21.04
569.835	20.95
570.03	21.88
570.225	22.11
570.421	22.13
570.616	21.52
570.812	21.5
571.007	21.29
571.202	21.53
571.397	21.41
571.593	22.01
571.788	21.78
571.983	21.98
572.178	20.63
572.374	20.24
572.569	19.91
572.764	19.87
572.959	19.9
573.154	20.4
573.35	20.74
573.545	20.42
573.74	20.23
573.935	20.14
574.13	20.56
574.325	21.23
574.52	21.55
574.715	21.32
574.91	21.24
575.105	21.07
575.3	21.3
575.495	21.51
575.69	21.95
575.885	21.89
576.08	22.28
576.275	22.02
576.47	22.24
576.665	22.34
576.86	23.3
577.055	23.04
577.25	23.83
577.444	23.29
577.639	23.57
577.834	23.38
578.029	24.44
578.224	24.2
578.418	24.08
578.613	23.33
578.808	23.47
579.003	23.05
579.197	24.21
579.392	23.8
579.587	24.37
579.781	24.07
579.976	24.7
580.171	23.32
580.365	23.56
580.56	23.96
580.755	24.19
580.949	24.05
581.144	23.92
581.338	23.4
581.533	22.58
581.727	22.44
581.922	22.48
582.116	21.86
582.311	21.78
582.505	21.5
582.7	20.92
582.894	20.88
583.089	21.18
583.283	21.19
583.478	20.96
583.672	21.88
583.866	21.16
584.061	21.05
584.255	21.1
584.449	21.21
584.644	21.09
584.838	21.81
585.032	22.08
585.226	21.23
585.421	21.32
585.615	22.27
585.809	22.09
586.003	22.07
586.198	21.51
586.392	21.87
586.586	22.52
586.78	22.75
586.974	23.32
587.168	23.77
587.363	24.47
587.557	23.57
587.751	23.22
587.945	23.73
588.139	24.18
588.333	24.29
588.527	24.47
588.721	24.33
588.915	24.35
589.109	23.69
589.303	23.22
589.497	23.11
589.691	23.82
589.885	23.3
590.079	23.16
590.273	23.23
590.466	23.95
590.66	23.94
590.854	24.42
591.048	23.96
591.242	23.61
591.436	23.85
591.629	24.12
591.823	24.26
592.017	25.28
592.211	25.34
592.404	25.24
592.598	24.63
592.792	24.43
592.986	23.82
593.179	24.67
593.373	25.03
593.567	25.06
593.76	24.84
593.954	24.13
594.147	23.22
594.341	22.65
594.535	21.88
594.728	22.06
594.922	21.51
595.115	21.65
595.309	21.53
595.502	20.95
595.696	20.55
595.889	21
596.083	21.92
596.276	22.98
596.47	23.05
596.663	23.76
596.856	23.71
597.05	24.28
597.243	24.03
597.437	23.96
597.63	24.48
597.823	25.16
598.017	24.68
598.21	24.87
598.403	23.22
598.596	24.15
598.79	23.81
598.983	23.64
599.176	24.35
599.369	24.71
599.563	24.85
599.756	24.99
599.949	24.33
600.142	24.28
600.335	24.35
600.528	25.08
600.722	24.72
600.915	24.88
601.108	25.17
601.301	25.1
601.494	24.54
601.687	24.82
601.88	24.61
602.073	24.69
602.266	25.02
602.459	24.51
602.652	24.19
602.845	24.51
603.038	24.68
603.231	24.65
603.424	24.6
603.617	24.64
603.809	23.89
604.002	23.8
604.195	24.01
604.388	23.52
604.581	24.01
604.774	24.71
604.966	23.95
605.159	23.25
605.352	23.25
605.545	23.02
605.737	23.37
605.93	24.08
606.123	24.06
606.316	24.61
606.508	25.04
606.701	24.29
606.894	24.21
607.086	24.34
607.279	25.52
607.471	25.92
607.664	25.82
607.857	25.52
608.049	25.02
608.242	25.65
608.434	25.11
608.627	25.73
608.819	26.37
609.012	26.12
609.204	26.23
609.397	26.28
609.589	25.99
609.782	25.7
609.974	25.59
610.166	26.13
610.359	25.76
610.551	25.81
610.743	25.26
610.936	24.98
611.128	24.45
611.32	25.08
611.513	24.87
611.705	24.51
611.897	25.24
612.09	26.47
612.282	26.29
612.474	26.81
612.666	26.33
612.858	26.01
613.051	26.95
613.243	27.57
613.435	28.09
613.627	27.35
613.819	28.85
614.011	28.84
614.203	28.9
614.395	29.07
614.588	28.9
614.78	29.27
614.972	29.89
615.164	29.28
615.356	29.86
615.548	29.1
615.74	29.92
615.932	28.17
616.124	28.23
616.315	27.44
616.507	28.26
616.699	28.02
616.891	28.77
617.083	28.36
617.275	27.61
617.467	26.9
617.659	27.48
617.85	27.84
618.042	29.39
618.234	29.78
618.426	31.23
618.618	30.27
618.809	30.73
619.001	30.91
619.193	30.35
619.384	31.4
619.576	31.32
619.768	30.58
619.959	29.62
620.151	29.28
620.343	28.87
620.534	28.3
620.726	28.06
620.917	27.64
621.109	26.51
621.301	27.74
621.492	27.01
621.684	26.16
621.875	26.75
622.067	26.64
622.258	26.15
622.45	25.59
622.641	25.81
622.832	25.85
623.024	25.9
623.215	26.14
623.407	26.02
623.598	26.85
623.789	28.23
623.981	28.04
624.172	29.41
624.363	28.97
624.555	29.82
624.746	28.67
624.937	28.76
625.129	28.76
625.32	28.59
625.511	27.81
625.702	25.61
625.893	25.83
626.085	25.17
626.276	24.37
626.467	24.64
626.658	23.98
626.849	24.68
627.04	25
627.231	24.51
627.422	24.81
627.614	25.15
627.805	26.48
627.996	26.51
628.187	26.63
628.378	25.88
628.569	26.05
628.76	25.51
628.951	24.31
629.142	24.67
629.332	25.14
629.523	25.43
629.714	26.05
629.905	26.12
630.096	26.72
630.287	27.02
630.478	27.61
630.669	27.48
630.859	28.06
631.05	28.79
631.241	28.05
631.432	27.86
631.623	27.69
631.813	26.86
632.004	27.16
632.195	26.15
632.385	25.51
632.576	25.79
632.767	25.99
632.957	26.56
633.148	26.91
633.339	26.4
633.529	26.42
633.72	26.6
633.91	26.8
634.101	25.67
634.292	25.19
634.482	25.98
634.673	24.99
634.863	24.21
635.054	22.79
635.244	22.08
635.435	22.54
635.625	22.8
635.815	21.58
636.006	22.08
636.196	23.11
636.387	24.22
636.577	24.08
636.767	24.21
636.958	24.85
637.148	25.93
637.338	27.53
637.529	27.51
637.719	28.17
637.909	29.67
638.099	29.65
638.29	29.61
638.48	29.3
638.67	28.88
638.86	29.99
639.05	30.93
639.241	31.01
639.431	30.29
639.621	30.6
639.811	30.33
640.001	30.87
640.191	30.62
640.381	31.06
640.571	29.76
640.761	30.79
640.951	31.75
641.141	31.14
641.331	30.75
641.521	31.6
641.711	32.38
641.901	30.55
642.091	29.32
642.281	29.09
642.471	29.45
642.661	31.11
642.851	30.56
643.041	30.07
643.231	30.78
643.42	32.32
643.61	30.77
643.8	31.35
643.99	32.27
644.18	31.64
644.369	31.76
644.559	30.75
644.749	29.54
644.939	30.56
645.128	30.19
645.318	28.36
645.508	27.12
645.697	29.02
645.887	28.61
646.076	29.53
646.266	29.8
646.456	29.04
646.645	29.32
646.835	30.16
647.024	30.18
647.214	31
647.403	32.5
647.593	32.56
647.782	31.35
647.972	30.67
648.161	29.68
648.351	30.11
648.54	29.8
648.73	29.53
648.919	29.54
649.108	28.58
649.298	27.82
649.487	27.3
649.677	28.26
649.866	27.13
650.055	27.27
650.244	28.15
650.434	29.28
650.623	29.93
650.812	30.94
651.002	31.01
651.191	31.73
651.38	31.8
651.569	32.16
651.758	32.17
651.947	32.64
652.137	32.18
652.326	31.3
652.515	31.01
652.704	31.76
652.893	30.62
653.082	29.63
653.271	29.65
653.46	30.09
653.649	29.63
653.838	28.48
654.027	29.11
654.216	29.9
654.405	30.55
654.594	30.03
654.783	29.52
654.972	30.16
655.161	31.42
655.35	31.23
655.539	30.34
655.728	29.84
655.916	29.8
656.105	29.63
656.294	29.6
656.483	30.46
656.672	30.08
656.86	29.87
657.049	30.37
657.238	31.06
657.427	31.33
657.615	30.65
657.804	31.03
657.993	30.87
658.181	30.82
658.37	30.77
658.559	30.56
658.747	30.82
658.936	31.6
659.125	33.38
659.313	32.65
659.502	32.57
659.69	32.54
659.879	33.03
660.067	33.3
660.256	32.71
660.444	33.61
660.633	33.13
660.821	32.51
661.01	31.58
661.198	29.1
661.387	29.26
661.575	29.3
661.763	31.58
661.952	32.04
662.14	34.55
662.328	34.85
662.517	32.8
662.705	32.15
662.893	33.8
663.082	35
663.27	34.53
663.458	33.21
663.646	33.84
663.834	33.09
664.023	32.44
664.211	30.41
664.399	31.07
664.587	32.43
664.775	32.11
664.963	31.73
665.152	30.11
665.34	29.99
665.528	30.6
665.716	28.79
665.904	29.96
666.092	30.59
666.28	30.49
666.468	30.3
666.656	30.64
666.844	31.61
667.032	29.81
667.22	31.11
667.408	31.42
667.596	33.36
667.784	34.17
667.971	32.32
668.159	31.47
668.347	30.48
668.535	30.17
668.723	29.55
668.911	28.18
669.098	30.06
669.286	30.6
669.474	29.78
669.662	27.56
669.849	27.61
670.037	27.6
670.225	26.51
670.413	26.78
670.6	26.05
670.788	25.84
670.976	27.67
671.163	27.1
671.351	25.92
671.538	25.83
671.726	27.67
671.913	27.06
672.101	27.5
672.289	29.36
672.476	32.08
672.664	33.92
672.851	32.85
673.039	30.8
673.226	30.93
673.413	31.83
673.601	32.96
673.788	32.16
673.976	33.13
674.163	32.07
674.35	31.87
674.538	29.9
674.725	29.96
674.912	31.42
675.1	32.61
675.287	31.96
675.474	31.37
675.662	31.53
675.849	30.62
676.036	29.98
676.223	32.05
676.411	32.26
676.598	30.22
676.785	28.05
676.972	28.81
677.159	28.92
677.346	29.73
677.533	29.44
677.721	29.16
677.908	30.38
678.095	30.56
678.282	29.68
678.469	30.15
678.656	32.43
678.843	35.22
679.03	33.83
679.217	34.07
679.404	33
679.591	34.36
679.778	34.66
679.964	34.53
680.151	34.51
680.338	34.17
680.525	33.4
680.712	32.66
680.899	31.23
681.086	32.44
681.272	32.72
681.459	32.94
681.646	31.43
681.833	31.25
682.02	29.31
682.206	27.57
682.393	27.36
682.58	26.56
682.766	27.7
682.953	27.38
683.14	26.55
683.326	24.91
683.513	26.41
683.7	25.7
683.886	26.34
684.073	27.56
684.259	27.34
684.446	27.23
684.632	27.33
684.819	26.06
685.005	25.71
685.192	25.2
685.378	27.1
685.565	25.89
685.751	27.21
685.938	26.87
686.124	27.83
686.31	30.59
686.497	31.03
686.683	31.22
686.87	30.97
687.056	30.12
687.242	30.95
687.429	29.97
687.615	30.13
687.801	30.86
687.987	30.6
688.174	30.87
688.36	29.87
688.546	28.98
688.732	28.61
688.918	29.8
689.105	29.65
689.291	29.61
689.477	29.65
689.663	30.5
689.849	31.69
690.035	33.12
690.221	31.8
690.407	33.13
690.593	34.54
690.779	34.11
690.965	33.63
691.151	35.29
691.337	34.86
691.523	34.98
691.709	33.85
691.895	30.75
692.081	28.59
692.267	27.72
692.453	26.91
692.639	26.09
692.825	26.47
693.011	26.44
693.196	27.41
693.382	27.67
693.568	28.24
693.754	28.59
693.94	30.93
694.125	31.28
694.311	32.7
694.497	31.05
694.682	31.46
694.868	31.71
695.054	32.87
695.239	31.42
695.425	31.95
695.611	32.2
695.796	32.33
695.982	32.17
696.168	32.74
696.353	31.07
696.539	32.39
696.724	31.46
696.91	30.95
697.095	29.1
697.281	29.45
697.466	28.26
697.652	27.76
697.837	27.85
698.023	26.89
698.208	26.7
698.393	29.11
698.579	28.34
698.764	28.54
698.949	29.7
699.135	29.85
699.32	29.09
699.505	30.84
699.691	30.62
699.876	29.92
700.061	29.51
700.246	30.17
700.432	28.88
700.617	28.73
700.802	28.92
700.987	29.14
701.172	31.08
701.358	33.66
701.543	32.49
701.728	31.29
701.913	32.69
702.098	34.09
702.283	33.03
702.468	32.2
702.653	34.05
702.838	35.61
703.023	34.15
703.208	30.57
703.393	27.33
703.578	27.33
703.763	28.8
703.948	28.12
704.133	26.43
704.318	27.46
704.503	29.42
704.688	29.39
704.873	29.08
705.057	28.76
705.242	30.2
705.427	32.94
705.612	31.62
705.797	32.87
705.981	32.75
706.166	33.87
706.351	35.57
706.536	36.54
706.72	34.02
706.905	33.94
707.09	36.35
707.274	39.45
707.459	37.79
707.644	39.34
707.828	38.22
708.013	37.78
708.197	37.61
708.382	34.57
708.567	32.4
708.751	35.46
708.936	32.15
709.12	30.36
709.305	27.68
709.489	28.09
709.673	26.27
709.858	28.53
710.042	30.06
710.227	29.94
710.411	30.93
710.596	30.63
710.78	27.84
710.964	30.35
711.149	29.9
711.333	31.04
711.517	30.26
711.702	34.59
711.886	33.73
712.07	32.38
712.254	33.77
712.438	34.01
712.623	34.9
712.807	36.95
712.991	38.22
713.175	39.45
713.359	37.58
713.544	36.85
713.728	33.58
713.912	31.61
714.096	32.25
714.28	31.77
714.464	30.99
714.648	29.95
714.832	28.61
715.016	26.21
715.2	26.15
715.384	25.84
715.568	26.42
715.752	26.54
715.936	28.5
716.12	28.94
716.304	28.2
716.488	27.42
716.671	28.06
716.855	28.84
717.039	27.6
717.223	25.85
717.407	27.41
717.59	29.74
717.774	29.52
717.958	28.57
718.142	25.73
718.325	25.83
718.509	26.45
718.693	24.91
718.877	24.98
719.06	26.33
719.244	28.61
719.428	27.39
719.611	27.18
719.795	27.89
719.978	29.5
720.162	33.05
720.345	32.09
720.529	32.5
720.713	35.72
720.896	34.28
721.08	38.32
721.263	38.58
721.446	39.61
721.63	36.58
721.813	36.07
721.997	32.28
722.18	31.91
722.364	28.78
722.547	30.2
722.73	27.44
722.914	27.5
723.097	25.65
723.28	24.54
723.464	22.28
723.647	24.55
723.83	23.66
724.013	27.34
724.197	26.68
724.38	32.17
724.563	30.2
724.746	30.58
724.929	30.25
725.112	29.11
725.296	29.5
725.479	31.02
725.662	32.71
725.845	33.21
726.028	32.55
726.211	32.67
726.394	30.75
726.577	29.86
726.76	31.73
726.943	33.77
727.126	31.16
727.309	31.75
727.492	31.03
727.675	31.94
727.858	33
728.041	31.35
728.224	31.13
728.407	30.54
728.589	31.06
728.772	28.73
728.955	28
729.138	28.67
729.321	27.45
729.503	29.63
729.686	27.84
729.869	28.15
730.052	30
730.234	29.98
730.417	31.79
730.6	33.2
730.782	33.77
730.965	33.32
731.148	34.69
731.33	36.24
731.513	34
731.695	35.48
731.878	34.11
732.061	33.48
732.243	32.68
732.426	32.83
732.608	31.79
732.791	31.19
732.973	31.72
733.156	30.8
733.338	30.57
733.52	31.91
733.703	28.79
733.885	28.25
734.068	30.26
734.25	29.41
734.432	30.18
734.615	30.44
734.797	30.24
734.979	30.38
735.162	30.4
735.344	28.52
735.526	27.64
735.708	32.5
735.891	33.51
736.073	30.27
736.255	36.13
736.437	34.13
736.619	34.35
736.802	33.28
736.984	34.24
737.166	36.25
737.348	36.83
737.53	40.42
737.712	39.91
737.894	40.5
738.076	42.6
738.258	38.74
738.44	39.83
738.622	40.03
738.804	41.53
738.986	38.91
739.168	39.66
739.35	44.03
739.532	45.15
739.714	39.94
739.896	42.05
740.078	42.18
740.259	41.54
740.441	41.26
740.623	42.45
740.805	45.63
740.987	49.23
741.168	47.24
741.35	42.48
741.532	36.45
741.714	40.02
741.895	38.44
742.077	36.65
742.259	39.99
742.44	39.69
742.622	42.26
742.804	42
742.985	40.27
743.167	42.96
743.348	47.34
743.53	46.88
743.711	49.18
743.893	51.32
744.075	54.05
744.256	51.9
744.438	53.49
744.619	51.79
744.8	52.09
744.982	57
745.163	56.68
745.345	54.68
745.526	55.8
745.707	50.52
745.889	47.47
746.07	49.38
746.252	49.84
746.433	50.52
746.614	50.42
746.795	50.3
746.977	48.83
747.158	49.03
747.339	49.85
747.52	49.92
747.702	54.62
747.883	55.81
748.064	51.09
748.245	55.34
748.426	53.8
748.607	53.47
748.788	53.79
748.97	48.48
749.151	44.25
749.332	46.44
749.513	48.23
749.694	44.73
749.875	47.7
750.056	50.36
750.237	46.04
750.418	47.51
750.599	46.15
750.78	42.78
750.96	44.67
751.141	46.57
751.322	46.35
751.503	47.82
751.684	50.16
751.865	42.93
752.046	41.32
752.226	43.03
752.407	40.31
752.588	41.72
752.769	43.6
752.949	43.11
753.13	43.25
753.311	39.1
753.492	37.02
753.672	38.11
753.853	40.04
754.034	41.97
754.214	42.69
754.395	44.89
754.575	44.75
754.756	43.53
754.937	44.35
755.117	44.55
755.298	44.55
755.478	43.69
755.659	40.78
755.839	43.96
756.02	39.31
756.2	33.91
756.381	28.4
756.561	27.16
756.741	25.97
756.922	27.43
757.102	28.07
757.283	29.13
757.463	29.33
757.643	30.59
757.823	26.28
758.004	28.33
758.184	30.61
758.364	30.1
758.545	30.2
758.725	33.18
758.905	35.24
759.085	37.71
759.265	37.61
759.446	37.05
759.626	35.43
759.806	38.54
759.986	38.61
760.166	37.62
760.346	42.69
760.526	42.89
760.706	38.89
760.886	33.51
761.066	29.52
761.246	28.54
761.426	31.31
761.606	33.25
761.786	32.24
761.966	30.9
762.146	31.74
762.326	29.84
762.506	30.67
762.686	32.99
762.866	33.8
763.046	32.56
763.225	34.17
763.405	30.41
763.585	28.05
763.765	26.2
763.945	28.54
764.124	29.14
764.304	30.33
764.484	28.25
764.664	26.78
764.843	30.94
765.023	36.13
765.203	33.87
765.382	36.19
765.562	35.86
765.741	38.38
765.921	39.59
766.101	40.04
766.28	41.86
766.46	42.99
766.639	47.89
766.819	48.01
766.998	48.86
767.178	54.45
767.357	58.74
767.537	60.05
767.716	63.41
767.896	60.73
768.075	63.82
768.254	64.54
768.434	65.83
768.613	64.28
768.792	64.57
768.972	63.69
769.151	63.01
769.33	61.39
769.51	66.63
769.689	66.84
769.868	69.7
770.047	72.14
770.226	73.98
770.406	71.41
770.585	72.61
770.764	69.4
770.943	71.08
771.122	66.9
771.301	65.13
771.48	64.38
771.66	60.27
771.839	63.6
772.018	56.62
772.197	56.52
772.376	60.27
772.555	57.37
772.734	59.11
772.913	69.65
773.092	72.59
773.271	75.75
773.449	81.78
773.628	79.79
773.807	80.5
773.986	82.13
774.165	75.47
774.344	70.18
774.523	73.69
774.701	76.57
774.88	65.85
775.059	66.33
775.238	66.23
775.417	62.79
775.595	63.36
775.774	60.57
775.953	62.2
776.131	62.03
776.31	68.86
776.489	63.74
776.667	63.1
776.846	63.39
777.025	62.05
777.203	64.84
777.382	65.01
777.56	64.72
777.739	59.71
777.917	58.61
778.096	63.04
778.274	60.14
778.453	58.99
778.631	57.35
778.81	54.37
778.988	53.13
779.166	49.72
779.345	43.79
779.523	39.47
779.702	43.89
779.88	42.25
780.058	39.58
780.237	37.5
780.415	44.16
780.593	43.07
780.771	51.07
780.95	57.29
781.128	59.76
781.306	62.35
781.484	68.7
781.662	74.57
781.841	73.31
782.019	79.06
782.197	86.65
782.375	82.99
782.553	94.35
782.731	93.92
782.909	84.27
783.087	79.14
783.265	83.8
783.443	75.07
783.621	71.62
783.799	87.32
783.977	73.49
784.155	70.79
784.333	73.44
784.511	66.26
784.689	63.06
784.867	68.27
785.045	67.32
785.223	60.54
785.4	69.53
785.578	66.01
785.756	55.85
785.934	52.24
786.112	53.84
786.289	50.51
786.467	52.03
786.645	52.54
786.823	48.41
787	49.25
787.178	53.83
787.356	50.64
787.533	54.85
787.711	58.3
787.889	64.5
788.066	63.36
788.244	58.61
788.421	55.23
788.599	53.22
788.776	53.42
788.954	56.05
789.131	51.3
789.309	51.56
789.486	44.82
789.664	43.81
789.841	43.86
790.019	49.12
790.196	56.53
790.373	56.09
790.551	54.28
790.728	54.84
790.906	57.4
791.083	58.97
791.26	58.83
791.437	66.18
791.615	64.21
791.792	67.63
791.969	59.25
792.146	56.77
792.324	62.4
792.501	62.37
792.678	58.75
792.855	50.21
793.032	51.18
793.209	47.4
793.387	43.32
793.564	40.59
793.741	39.34
793.918	38.81
794.095	32.74
794.272	28.68
794.449	28.92
794.626	30.41
794.803	31.2
794.98	35.38
795.157	36.39
795.334	30.11
795.511	40.32
795.688	40.22
795.864	46.61
796.041	50.11
796.218	52.66
796.395	61.67
796.572	63.63
796.749	64.09
796.925	61.77
797.102	58.41
797.279	73.86
797.456	69.98
797.632	73.17
797.809	73.57
797.986	78.56
798.162	80.44
798.339	74.37
798.516	69.85
798.692	75.97
798.869	61.62
799.046	69.26
799.222	59.13
799.399	54.15
799.575	55.61
799.752	61.2
799.928	59.77
800.105	57.26
800.281	58.04
800.458	64.88
800.634	57.38
800.811	65.98
800.987	60.97
801.163	53.02
801.34	42.31
801.516	44.08
801.692	39.95
801.869	43.94
802.045	52.01
802.221	49.3
802.398	47.55
802.574	45.5
802.75	51.12
802.926	64.7
803.103	63.1
803.279	73.84
803.455	70.17
803.631	70.86
803.807	75.83
803.983	72.89
804.16	68.56
804.336	68.25
804.512	71.14
804.688	56.51
804.864	42.5
805.04	44.1
805.216	47.45
805.392	45.21
805.568	36.44
805.744	21.67
805.92	16.02
806.096	25.79
806.272	31.96
806.448	26.36
806.623	37.25
806.799	45.52
806.975	51.44
807.151	52.43
807.327	51.28
807.503	49.76
807.678	63.67
807.854	68.21
808.03	71.28
808.206	69.78
808.381	81.49
808.557	75.98
808.733	70.8
808.908	65.63
809.084	61.75
809.26	58.9
809.435	65.67
809.611	51.08
809.787	47.98
809.962	52.19
810.138	49.93
810.313	42.14
810.489	43.41
810.664	40
810.84	41.71
811.015	42.87
811.191	50.71
811.366	45
811.542	43.56
811.717	47.2
811.892	31.38
812.068	30.06
812.243	43.18
812.419	42.25
812.594	66.99
812.769	70.66
812.944	81.84
813.12	65.91
813.295	49.63
813.47	54.47
813.645	50.72
813.821	55.64
813.996	56.83
814.171	51.83
814.346	46.11
814.521	43.19
814.697	34.96
814.872	26.69
815.047	24.72
815.222	40.87
815.397	47.44
815.572	52.95
815.747	51.7
815.922	41.34
816.097	48.77
816.272	56.06
816.447	48.84
816.622	43.05
816.797	26.69
816.972	39.45
817.147	37.04
817.322	36.68
817.496	31.98
817.671	40.42
817.846	46.15
818.021	48.95
818.196	43.29
818.371	40.57
818.545	50.28
818.72	55.26
818.895	52.75
819.069	50.06
819.244	46.19
819.419	43.56
819.594	40.04
819.768	38.17
819.943	31.63
820.117	29.51
820.292	30.47
820.467	27.53
820.641	26.29
820.816	24.67
820.99	23.53
821.165	23.47
821.339	23.23
821.514	22.36
821.688	21.22
821.863	22.34
822.037	22.24
822.212	21.91
822.386	23.07
822.56	24.8
822.735	27.04
822.909	28.78
823.084	28.36
823.258	29.68
823.432	28.2
823.606	26.13
823.781	27.41
823.955	32.59
824.129	36.78
824.303	36.48
824.478	31.01
824.652	26.01
824.826	21
825	19.72
825.174	17.92
825.348	21.54
825.523	23.05
825.697	20.79
825.871	22.96
826.045	21.79
826.219	21.42
826.393	25.72
826.567	26.33
826.741	30.96
826.915	35.8
827.089	36.98
827.263	39.7
827.437	43.58
827.611	46.09
827.784	37.68
827.958	38.12
828.132	41.14
828.306	36.34
828.48	33.53
828.654	35.18
828.827	30.8
829.001	30.11
829.175	21.06
829.349	24.2
829.522	27.72
829.696	40.69
829.87	40.33
830.044	35.21
830.217	24.68
830.391	35.4
830.565	28.01
830.738	40.99
830.912	38.65
831.085	43.23
831.259	27.8
831.432	23.52
831.606	23.68
831.779	24.28
831.953	29.03
832.126	29.47
832.3	31.12
832.473	34.79
832.647	24.47
832.82	23.44
832.994	23.34
833.167	28.5
833.34	27.82
833.514	33.35
833.687	29.73
833.86	25.56
834.034	32.34
834.207	30.77
834.38	23.62
834.553	28.99
834.727	31.15
834.9	29.35
835.073	16.72
835.246	18.16
835.419	16.44
835.593	13.57
835.766	28.1
835.939	53.91
836.112	69.7
836.285	109.56
836.458	115.81
836.631	93.85
836.804	76.73
836.977	100.95
837.15	92.76
837.323	52.1
837.496	62.27
837.669	64.89
837.842	48.94
838.015	38.41
838.188	25.43
838.361	20.34
838.533	21.93
838.706	29.28
838.879	21.15
839.052	29.55
839.225	41.88
839.398	50.69
839.57	45.41
839.743	48.56
839.916	45.76
840.088	40.03
840.261	47.52
840.434	51.86
840.607	46.76
840.779	57.92
840.952	49.57
841.124	45.03
841.297	20.5
841.47	12.06
841.642	-25.34
841.815	-14.2
841.987	-0.37
842.16	-315.69
842.332	-291.18
842.505	169.23
842.677	65.28
842.85	-150
843.022	-560
843.194	-974.19
843.367	128.96
843.539	183.54
843.712	146.64
843.884	87.95
844.056	42.19
844.229	25.14
844.401	-15.93
844.573	3.61
844.745	11.49
844.918	37.14
845.09	100.55
845.262	75.36
845.434	91.63
845.606	88.02
845.779	85.8
845.951	61
846.123	55.53
846.295	49.29
846.467	54.18
846.639	55.76
846.811	68.37
846.983	49.52
847.155	22.63
847.327	37.25
847.499	-42.86
847.671	11.8
847.843	-194.74
848.015	-116.13
848.187	437.93
848.359	1891.67
848.531	233.03
848.703	203.91
848.875	304.52
849.047	285.51
849.218	236.09
849.39	387.5
849.562	-6760
849.734	541.79
849.905	2693.33
850.077	215.97
850.249	102.54
850.421	145.18
850.592	96.6
850.764	61.6
850.936	12.5
851.107	17.43
851.279	77.01
851.451	-0.69
851.622	37.21
851.794	36.94
851.965	32.16
852.137	37.89
852.308	69.05
852.48	90.75
852.651	100.67
852.823	155.49
852.994	111.78
853.166	123.1
853.337	154.83
853.509	239.25
853.68	388.89
853.851	-1950
854.023	403.31
854.194	408.85
854.365	-16450
854.537	-3236.36
854.708	1452.38
854.879	623.4
855.05	91.76
855.222	86.78
855.393	135.05
855.564	96.22
855.735	69.57
855.906	72.69
856.078	73.33
856.249	74.16
856.42	51.56
856.591	64.11
856.762	78.42
856.933	144.42
857.104	164.37
857.275	92.17
857.446	117.71
857.617	159.86
857.788	265.02
857.959	216.67
858.13	432.14
858.301	289.31
858.472	308.09
858.643	214.29
858.814	94.37
858.985	105.53
859.155	179.77
859.326	104.03
859.497	120.88
859.668	111.53
859.839	116.89
860.009	102.77
860.18	116.23
860.351	119.1
860.522	127.37
860.692	155.97
860.863	120
861.034	135.74
861.204	124.56
861.375	102.1
861.546	100.46
861.716	114.23
861.887	114.19
862.057	170.41
862.228	122.9
862.398	127.82
862.569	169.21
862.739	288.79
862.91	181.9
863.08	660.26
863.251	568.93
863.421	444.55
863.592	216.18
863.762	-201.25
863.932	-108.06
864.103	-833.33
864.273	-155.71
864.443	540.91
864.614	225.32
864.784	969.23
864.954	1668.18
865.125	-887.88
865.295	-2000
865.465	801.85
865.635	212.23
865.805	235.19
865.976	210.04
866.146	106.64
866.316	101.14
866.486	88.73
866.656	83.53
866.826	51.86
866.996	53.81
867.166	47.43
867.336	16.16
867.506	22.66
867.676	7.36
867.846	-2.25
868.016	-33.62
868.186	-50.38
868.356	-229.67
868.526	-478
868.696	-217.72
868.866	-52.59
869.036	-4.31
869.206	152.94
869.376	-1280
869.545	580
869.715	235.94
869.885	-147.89
870.055	-253.42
870.224	368.5
870.394	641.18
870.564	-500
870.734	476.52
870.903	389.38
871.073	143.78
871.243	248.53
871.412	193.46
871.582	146.9
871.751	126.58
871.921	117.2
872.091	127.35
872.26	101.04
872.43	66.72
872.599	88.29
872.769	95.7
872.938	89.96
873.108	76.9
873.277	69.19
873.446	67.4
873.616	69.41
873.785	88.32
873.955	84.69
874.124	97.38
874.293	101.04
874.463	38.01
874.632	30.36
874.801	30.89
874.971	-5.42
875.14	53.28
875.309	70.27
875.478	59.19
875.647	37.23
875.817	31.59
875.986	44.52
876.155	49.65
876.324	76.9
876.493	102.92
876.662	105.85
876.831	115.03
877	107.18
877.17	90.74
877.339	88.7
877.508	96.24
877.677	94.79
877.846	139.12
878.015	119.01
878.184	114.84
878.352	101.5
878.521	85.93
878.69	103.58
878.859	90.76
879.028	136.22
879.197	98.47
879.366	81.62
879.534	67.95
879.703	44.52
879.872	44.16
880.041	39.44
880.21	33.37
880.378	29.88
880.547	27.51
880.716	30.64
880.884	29.08
881.053	36.88
881.222	40.59
881.39	45.99
881.559	50.04
881.727	47.18
881.896	44.55
882.065	44.5
882.233	48.28
882.402	54.7
882.57	52.02
882.739	54.66
882.907	46.11
883.076	49.13
883.244	47.6
883.412	56.48
883.581	63.12
883.749	70.72
883.918	62.79
884.086	67.43
884.254	50.28
884.423	56.79
884.591	39.72
884.759	42.97
884.927	29.06
885.096	37.14
885.264	33.16
885.432	40.65
885.6	50.3
885.769	66.67
885.937	82.86
886.105	108.35
886.273	95.76
886.441	164.25
886.609	200.36
886.777	157.98
886.945	134.18
887.113	126.65
887.281	88.85
887.449	101.56
887.617	87.78
887.785	73.84
887.953	73.5
888.121	90.65
888.289	79.03
888.457	98.44
888.625	138.86
888.793	173.43
888.961	189.39
889.129	223.18
889.296	264.21
889.464	633.87
889.632	467.11
889.8	3000
889.967	372.16
890.135	432.14
