Data from JASIL_3307_Reflection_2.txt Node
Date: Tue Nov 17 19:51:21 EST 2015
User: Geneva
Spectrometer: USB4E03002
Autoset integration time: false
Trigger mode: 4
Integration Time (sec): 1.000000E-1
Scans to average: 10
Electric dark correction enabled: false
Nonlinearity correction enabled: false
Boxcar width: 5
Stray light correction enabled: false
XAxis mode: Wavelengths
Stop averaging: false
Number of Pixels in Spectrum: 3648
>>>>>Begin Spectral Data<<<<<
177.575	-153.47
177.794	-359.78
178.014	-542.7
178.233	-1103.77
178.452	-1030
178.672	-635.43
178.891	-1751.72
179.11	10350
179.33	2584.78
179.549	2429.41
179.768	-12345.45
179.987	1103.79
180.207	634.84
180.426	1010.96
180.645	1252.8
180.864	9788.24
181.084	978.31
181.303	703.57
181.522	953.45
181.741	937.64
181.96	1567.68
182.179	8752.94
182.398	-1833.77
182.618	-600.5
182.837	-536.19
183.056	-544.26
183.275	-431.67
183.494	-143.96
183.713	-125.65
183.932	-103.4
184.151	-59.88
184.37	-54.83
184.589	-80.43
184.808	-50.47
185.027	-63.16
185.246	-107.78
185.465	-105.82
185.684	-190.3
185.903	-379.61
186.122	-507.5
186.341	-1119.47
186.56	-810.71
186.779	-4507.41
186.998	-569.84
187.216	-625.56
187.435	-612.73
187.654	-535.15
187.873	-347.32
188.092	-371.79
188.311	-402.14
188.53	-253.26
188.748	-95.42
188.967	-109.43
189.186	-101.6
189.405	-217.94
189.623	-138.75
189.842	-120.67
190.061	-156.51
190.28	-108.56
190.498	-167.43
190.717	-122.74
190.936	-147.01
191.154	-352.75
191.373	-804.6
191.592	1551.16
191.81	588.35
192.029	757.89
192.248	399.02
192.466	371.82
192.685	179.37
192.904	331.19
193.122	223.44
193.341	273.11
193.559	452.54
193.778	460.22
193.996	403.32
194.215	1063.77
194.433	590.71
194.652	588.11
194.87	496.25
195.089	493.08
195.307	914.04
195.526	-557.14
195.744	-432.37
195.963	-489.33
196.181	-623.14
196.399	-1098.85
196.618	1309.21
196.836	719.15
197.055	692.57
197.273	816.42
197.491	916.22
197.71	534.13
197.928	450.33
198.146	408.22
198.365	2140.48
198.583	1568.25
198.801	-670.16
199.019	-227.03
199.238	-194.87
199.456	-172.61
199.674	-214.5
199.892	-204.63
200.111	-171.83
200.329	-245.43
200.547	-303.85
200.765	2054.9
200.983	-808.55
201.202	1413.16
201.42	441.43
201.638	294.79
201.856	453.85
202.074	627.33
202.292	344.29
202.51	290.69
202.728	320.43
202.946	2810.71
203.165	1575
203.383	354.15
203.601	482.74
203.819	840
204.037	-2754.55
204.255	-3996.3
204.473	-731.47
204.691	-675.88
204.909	-424.78
205.127	-1968.75
205.345	606.06
205.562	-734.11
205.78	-141.84
205.998	-119.14
206.216	-95.95
206.434	-145.55
206.652	-122.02
206.87	-327.54
207.088	-220.48
207.306	-410.98
207.523	-358.82
207.741	-263.19
207.959	-473.42
208.177	-576.17
208.395	-525.98
208.612	-557.87
208.83	-355.11
209.048	-403.5
209.266	-378.45
209.483	-258.74
209.701	-290.5
209.919	-251.17
210.136	-277.35
210.354	-263.68
210.572	-324.22
210.79	-398.33
211.007	-754.23
211.225	-7566.67
211.442	1820.34
211.66	4284
211.878	434.22
212.095	1190.05
212.313	1870.34
212.53	1053.08
212.748	861.35
212.966	633.91
213.183	754.47
213.401	-10061.11
213.618	-698.41
213.836	-562.12
214.053	-705.05
214.271	-456.73
214.488	-171.43
214.705	-135.15
214.923	-83.09
215.14	-53.85
215.358	-47.12
215.575	-43.99
215.793	-84.82
216.01	-243.6
216.227	-488.79
216.445	-399.31
216.662	-212.93
216.879	-251.74
217.097	-135.17
217.314	-210.12
217.531	8262.5
217.749	793.07
217.966	537.36
218.183	384.08
218.4	658.06
218.618	578.29
218.835	405.62
219.052	338.6
219.269	308.75
219.487	179.14
219.704	175.19
219.921	190.56
220.138	240.23
220.355	185.13
220.572	172.56
220.79	138.2
221.007	210.19
221.224	254.37
221.441	249.62
221.658	298.72
221.875	-1340
222.092	-573.86
222.309	2021.21
222.526	392.73
222.743	372.95
222.96	451.8
223.177	1616.28
223.394	990.79
223.611	718.18
223.828	456.8
224.045	351.14
224.262	267.66
224.479	274.63
224.696	434.62
224.913	640.5
225.13	634.91
225.347	440.69
225.564	185.35
225.781	104.62
225.997	54.2
226.214	48.54
226.431	32.11
226.648	14.67
226.865	5.27
227.082	7.21
227.298	25.84
227.515	25.94
227.732	26.33
227.949	29.37
228.165	30.9
228.382	36.6
228.599	42.11
228.816	49.79
229.032	53.81
229.249	69.05
229.466	66.5
229.682	56.55
229.899	61.3
230.116	79.37
230.332	83.39
230.549	89.21
230.765	76.21
230.982	70.06
231.199	62.23
231.415	63.73
231.632	63.21
231.848	63.54
232.065	73.13
232.281	63.03
232.498	64.59
232.714	64.54
232.931	66.38
233.147	81.05
233.364	92.38
233.58	102.61
233.797	110.45
234.013	111.31
234.23	133.03
234.446	138.85
234.662	187.94
234.879	233.62
235.095	185.66
235.312	159.91
235.528	151.77
235.744	163.9
235.961	231.31
236.177	197.87
236.393	247.44
236.61	164.11
236.826	139.17
237.042	107.34
237.258	123.72
237.475	120.1
237.691	162.5
237.907	133.93
238.123	108.69
238.339	105.83
238.556	97.43
238.772	76.85
238.988	76.02
239.204	69.5
239.42	62.7
239.636	54.21
239.853	56.29
240.069	48.83
240.285	43.13
240.501	39.94
240.717	31.6
240.933	31.08
241.149	32.12
241.365	31.61
241.581	28.91
241.797	30.23
242.013	32.08
242.229	28.49
242.445	27.83
242.661	29.63
242.877	30.06
243.093	33.15
243.309	31.59
243.525	29.08
243.741	28.34
243.957	31.23
244.173	25.91
244.388	25.14
244.604	29.58
244.82	28.49
245.036	25.62
245.252	24.09
245.468	25.61
245.683	26.49
245.899	24.54
246.115	25.66
246.331	21.02
246.547	23.47
246.762	21.74
246.978	21
247.194	20.35
247.409	19.97
247.625	19.19
247.841	16.84
248.057	15.65
248.272	18.16
248.488	16.12
248.703	21.79
248.919	25.65
249.135	30.14
249.35	29.1
249.566	30.46
249.782	32.07
249.997	32.76
250.213	35.93
250.428	38.7
250.644	38.12
250.859	36.94
251.075	33.19
251.29	29.04
251.506	27.04
251.721	30.65
251.937	32.14
252.152	34.01
252.368	37.19
252.583	34.48
252.798	30.66
253.014	28.45
253.229	27.55
253.445	35.58
253.66	33.57
253.875	34.8
254.091	23.9
254.306	28.28
254.521	22.16
254.737	15.04
254.952	13.8
255.167	10.83
255.383	12.53
255.598	21.18
255.813	14.5
256.028	13.08
256.244	13.46
256.459	20.51
256.674	16.61
256.889	17.68
257.104	17.88
257.32	16.97
257.535	17.54
257.75	15.06
257.965	12.73
258.18	12.62
258.395	11.58
258.61	9.81
258.826	7.67
259.041	8.3
259.256	8.07
259.471	6.55
259.686	7.28
259.901	6.99
260.116	8.71
260.331	8.67
260.546	12
260.761	12.05
260.976	13.48
261.191	15.41
261.406	17.21
261.621	16.44
261.836	20.91
262.05	19.5
262.265	26.73
262.48	27.38
262.695	29.49
262.91	23.94
263.125	30.44
263.34	31.65
263.555	26.49
263.769	19.48
263.984	18.23
264.199	20.64
264.414	22.47
264.629	17.74
264.843	22.42
265.058	23.13
265.273	23.92
265.488	22.3
265.702	20.63
265.917	25.42
266.132	26.04
266.346	27.58
266.561	28.06
266.776	28.4
266.99	25.55
267.205	21.6
267.42	15.94
267.634	14.36
267.849	15.65
268.063	16.38
268.278	12.41
268.492	12.08
268.707	12.82
268.922	10.92
269.136	10.09
269.351	11.96
269.565	10.89
269.78	14.97
269.994	14.32
270.209	13.15
270.423	13.24
270.637	14.83
270.852	17.31
271.066	18.15
271.281	18.83
271.495	18.38
271.709	18.01
271.924	18.72
272.138	18.94
272.353	20.32
272.567	20.04
272.781	19.34
272.996	19.13
273.21	17.33
273.424	15.81
273.638	15.2
273.853	15.79
274.067	17.28
274.281	17.38
274.495	18.61
274.71	18.35
274.924	17.98
275.138	19.67
275.352	20.25
275.566	19.23
275.781	20.54
275.995	21.43
276.209	19.73
276.423	17.05
276.637	16.83
276.851	12.45
277.065	13.82
277.279	12.19
277.493	12.36
277.707	10.59
277.921	9.64
278.135	12.03
278.349	10.87
278.563	11.63
278.777	11.15
278.991	12.05
279.205	17.68
279.419	14.4
279.633	14.6
279.847	14.12
280.061	15.48
280.275	17.45
280.489	12.44
280.703	11.52
280.917	13.77
281.131	15.73
281.344	16.54
281.558	13.44
281.772	13.89
281.986	16.03
282.2	16.41
282.414	15.85
282.627	15.17
282.841	16.84
283.055	14.7
283.269	13.07
283.482	12.56
283.696	11.79
283.91	11.28
284.123	10.81
284.337	10.55
284.551	9.69
284.764	9.27
284.978	9.02
285.192	6.95
285.405	7.81
285.619	9.13
285.833	10.1
286.046	11.84
286.26	13.56
286.473	15.65
286.687	14.67
286.9	15.03
287.114	15.7
287.327	16.11
287.541	18.62
287.754	20.99
287.968	20.68
288.181	18.45
288.395	16.97
288.608	15.08
288.822	14.24
289.035	15.3
289.248	15.54
289.462	15.29
289.675	15.66
289.889	15.28
290.102	13.22
290.315	12.33
290.529	13.8
290.742	12.11
290.955	14.19
291.169	15.33
291.382	14.36
291.595	14.98
291.808	14.59
292.022	14.78
292.235	13.91
292.448	14.4
292.661	15.88
292.875	16.54
293.088	17.58
293.301	15.09
293.514	12.95
293.727	12.82
293.94	11.23
294.153	12.15
294.367	11.88
294.58	12.01
294.793	10.96
295.006	10
295.219	9.73
295.432	9.07
295.645	9.91
295.858	11.44
296.071	12.12
296.284	12.51
296.497	12.95
296.71	13.46
296.923	13.4
297.136	14.36
297.349	14.26
297.562	13.32
297.775	14.46
297.988	13.76
298.201	13.57
298.414	14.03
298.626	13.77
298.839	13.07
299.052	12.67
299.265	13.27
299.478	13.92
299.691	15.14
299.903	15.52
300.116	14.51
300.329	15.46
300.542	15.12
300.755	13.45
300.967	14.09
301.18	13.6
301.393	13.58
301.605	14.25
301.818	13.76
302.031	14.1
302.243	14.19
302.456	15.54
302.669	14.99
302.881	13.69
303.094	14.63
303.307	15.55
303.519	16.55
303.732	16.09
303.944	16.28
304.157	17.3
304.37	16.8
304.582	18.08
304.795	17.42
305.007	19.44
305.22	19.07
305.432	18.89
305.645	18.17
305.857	16.78
306.069	16.05
306.282	16.71
306.494	16.49
306.707	16.29
306.919	14.24
307.132	15.16
307.344	12.3
307.556	13.49
307.769	13.68
307.981	14
308.193	14.35
308.406	14.43
308.618	12.33
308.83	11.65
309.043	10.96
309.255	11.92
309.467	10.64
309.679	10.52
309.892	11.59
310.104	11.99
310.316	12.73
310.528	12.58
310.74	12.63
310.953	13.27
311.165	13.57
311.377	15.56
311.589	16.34
311.801	15.9
312.013	17.38
312.225	16.73
312.437	16.15
312.649	15.02
312.862	15.57
313.074	16.62
313.286	16.51
313.498	16.99
313.71	13.55
313.922	11.49
314.134	13.49
314.346	13.4
314.558	12.27
314.77	12.94
314.982	13.74
315.193	12.74
315.405	12.66
315.617	13.71
315.829	13.38
316.041	15.42
316.253	16.35
316.465	17.74
316.677	17.5
316.888	20.13
317.1	19.81
317.312	20.51
317.524	24.17
317.736	24.6
317.947	24.07
318.159	24.88
318.371	24.92
318.583	23.9
318.794	21.36
319.006	22.01
319.218	22.32
319.43	22.58
319.641	24.26
319.853	23.57
320.064	22.96
320.276	23.56
320.488	23.62
320.699	23.12
320.911	23.57
321.123	23.98
321.334	23.14
321.546	21.91
321.757	22.1
321.969	21.67
322.18	19.75
322.392	19.46
322.603	19.08
322.815	18.48
323.026	17.74
323.238	18.38
323.449	18.2
323.661	20.48
323.872	19.64
324.083	19.22
324.295	17.81
324.506	17.9
324.718	17.34
324.929	17.28
325.14	17.8
325.352	18.78
325.563	18.56
325.774	18.49
325.986	17.64
326.197	17.35
326.408	16.67
326.62	14.57
326.831	14.67
327.042	15.1
327.253	15.51
327.464	15.75
327.676	15.51
327.887	14.99
328.098	15.66
328.309	15.2
328.52	17.1
328.732	17.82
328.943	20.5
329.154	20.41
329.365	21.29
329.576	20.96
329.787	21.43
329.998	21.8
330.209	23.01
330.42	22.8
330.631	23.88
330.842	23.31
331.053	24.17
331.264	23.78
331.475	25.16
331.686	24.94
331.897	23.6
332.108	23.28
332.319	21.22
332.53	21.12
332.741	21.7
332.952	20.08
333.163	19.23
333.374	20.79
333.585	20.14
333.795	20.79
334.006	21.83
334.217	23.75
334.428	22.92
334.639	24.94
334.849	25.89
335.06	25.79
335.271	26.5
335.482	27
335.692	25.89
335.903	24.2
336.114	24.35
336.325	25.32
336.535	24.62
336.746	24.56
336.957	23.29
337.167	22.16
337.378	22.77
337.589	22.1
337.799	21.15
338.01	20.78
338.22	23.29
338.431	22.55
338.642	20.74
338.852	21.2
339.063	21.88
339.273	23.17
339.484	22.95
339.694	21.68
339.905	22.82
340.115	23.7
340.326	24.6
340.536	23.5
340.746	23.49
340.957	23.82
341.167	23.48
341.378	23.76
341.588	23.27
341.799	23.64
342.009	23.69
342.219	23.39
342.43	23.48
342.64	21.55
342.85	21.6
343.061	20.56
343.271	19.5
343.481	18.38
343.691	17.7
343.902	17.76
344.112	18.35
344.322	17.58
344.532	17.71
344.743	18.92
344.953	19.85
345.163	19.15
345.373	20.3
345.583	20.29
345.793	22.79
346.004	23.4
346.214	23.75
346.424	23.77
346.634	25.07
346.844	25.66
347.054	23.59
347.264	24.2
347.474	24.42
347.684	24.89
347.894	26.24
348.104	24.18
348.314	22.51
348.524	21.49
348.734	21.05
348.944	21.36
349.154	19.29
349.364	19.87
349.574	18.27
349.784	18.22
349.994	17.07
350.204	15.8
350.413	16.11
350.623	16.35
350.833	17.23
351.043	17.62
351.253	19.28
351.463	19.15
351.672	18.87
351.882	19.63
352.092	19.58
352.302	19.04
352.511	19.97
352.721	20.29
352.931	20.69
353.141	21.58
353.35	19.85
353.56	17.34
353.77	17.59
353.979	17.36
354.189	16.92
354.399	17.29
354.608	16.65
354.818	15.7
355.027	15.54
355.237	15.46
355.447	13.97
355.656	14.44
355.866	14.49
356.075	14.9
356.285	14.2
356.494	14.46
356.704	15.29
356.913	15.53
357.123	15.77
357.332	15.56
357.542	16.33
357.751	17.57
357.96	17.13
358.17	16.89
358.379	16.17
358.589	16.9
358.798	17.55
359.007	16.87
359.217	17.51
359.426	16.54
359.635	16.57
359.845	16.6
360.054	15.29
360.263	16.25
360.472	17.02
360.682	17.29
360.891	16.88
361.1	15.94
361.309	17.08
361.519	16.77
361.728	17.82
361.937	18.07
362.146	17.64
362.355	17.81
362.564	16.99
362.774	16.61
362.983	17.42
363.192	18.09
363.401	18.75
363.61	17.61
363.819	18.23
364.028	17.66
364.237	17.38
364.446	17.28
364.655	17.29
364.864	17.85
365.073	17.27
365.282	16.78
365.491	16.67
365.7	17.12
365.909	16.08
366.118	15.77
366.327	16.21
366.536	15.82
366.745	16.59
366.954	17.05
367.162	17.26
367.371	16.94
367.58	17.59
367.789	18.95
367.998	18.45
368.207	19.1
368.415	19.31
368.624	18.97
368.833	19.92
369.042	18.76
369.25	18.57
369.459	18.92
369.668	19.53
369.877	19.31
370.085	18.24
370.294	18.22
370.503	18.6
370.711	18.43
370.92	18.56
371.129	18.25
371.337	17.83
371.546	17.28
371.754	16.22
371.963	16.2
372.171	14.58
372.38	13.84
372.589	13.1
372.797	12.2
373.006	11.76
373.214	10.89
373.423	10.33
373.631	10.65
373.84	10.18
374.048	10.45
374.256	10.27
374.465	11.96
374.673	13.16
374.882	12.06
375.09	12.22
375.298	12.64
375.507	13.06
375.715	12.72
375.923	12.93
376.132	13.39
376.34	12.47
376.548	12.43
376.757	11.39
376.965	10.8
377.173	12.26
377.381	13.16
377.59	12.39
377.798	12.16
378.006	11.7
378.214	12.12
378.423	12.27
378.631	13.01
378.839	13.94
379.047	15.43
379.255	16.49
379.463	16.43
379.671	16.63
379.879	16.76
380.088	16.87
380.296	18.67
380.504	17.98
380.712	18.05
380.92	18.28
381.128	17.72
381.336	16.77
381.544	14.89
381.752	14.06
381.96	12.27
382.168	12.31
382.376	12.91
382.584	11.18
382.791	10.95
382.999	11.05
383.207	10.59
383.415	11.08
383.623	10.88
383.831	11.22
384.039	11.78
384.247	12.65
384.454	12.76
384.662	12.31
384.87	13.23
385.078	12.98
385.285	12.56
385.493	13.28
385.701	12.49
385.909	12.75
386.116	13.3
386.324	12.72
386.532	12.37
386.739	12.83
386.947	12.58
387.155	11.94
387.362	12.28
387.57	12.32
387.778	11.43
387.985	11.27
388.193	11.14
388.4	10.27
388.608	10.23
388.816	10.31
389.023	10.65
389.231	11.31
389.438	11.29
389.646	11.79
389.853	12.19
390.061	12.13
390.268	11.55
390.475	10.98
390.683	11.48
390.89	12.22
391.098	12.23
391.305	11.65
391.512	11.42
391.72	11.27
391.927	10.91
392.135	10.8
392.342	10.66
392.549	11.13
392.756	11.15
392.964	10.98
393.171	11.76
393.378	11.48
393.586	11.2
393.793	10.69
394	10.57
394.207	10.21
394.414	10.38
394.622	10.63
394.829	11.01
395.036	11.36
395.243	11.35
395.45	10.24
395.657	10.12
395.864	10.51
396.072	11.32
396.279	11.36
396.486	11.89
396.693	11.32
396.9	11.64
397.107	11.55
397.314	11.53
397.521	11.59
397.728	11.54
397.935	11.35
398.142	11.09
398.349	9.61
398.556	9.76
398.763	9.77
398.97	10.07
399.177	9.96
399.383	10.3
399.59	10.71
399.797	10.83
400.004	10.74
400.211	10.84
400.418	10.65
400.625	11.73
400.831	11.62
401.038	10.99
401.245	10.9
401.452	10.76
401.658	10.49
401.865	10.4
402.072	9.95
402.279	9.85
402.485	10.53
402.692	10.35
402.899	9.93
403.105	10.22
403.312	10.07
403.519	10.11
403.725	9.74
403.932	9.56
404.138	9.29
404.345	9.18
404.552	9.53
404.758	9.46
404.965	9.96
405.171	9.67
405.378	10.24
405.584	11.07
405.791	10.73
405.997	11.68
406.204	12.19
406.41	11.87
406.617	12.26
406.823	11.68
407.029	10.96
407.236	10.56
407.442	10.92
407.649	10.34
407.855	9.93
408.061	10.05
408.268	8.73
408.474	8.39
408.68	7.91
408.887	7.98
409.093	8.05
409.299	8.95
409.505	8.97
409.712	9.1
409.918	9.08
410.124	8.42
410.33	8.02
410.537	8.66
410.743	8.19
410.949	9.35
411.155	8.89
411.361	9.1
411.567	8.05
411.773	7.83
411.98	7.8
412.186	8.32
412.392	8.89
412.598	9.22
412.804	8.8
413.01	8.88
413.216	8.66
413.422	8.46
413.628	8.65
413.834	8.41
414.04	8.22
414.246	7.97
414.452	7.3
414.658	6.73
414.864	6.76
415.07	6.89
415.275	6.85
415.481	6.67
415.687	7.34
415.893	6.74
416.099	7.48
416.305	7.54
416.511	7.31
416.716	7.07
416.922	7.72
417.128	7.36
417.334	7.4
417.539	7.46
417.745	7.47
417.951	6.86
418.157	7.55
418.362	7.51
418.568	7.61
418.774	7.52
418.979	7.71
419.185	7.4
419.391	7.5
419.596	7.24
419.802	6.94
420.008	6.4
420.213	3.81
420.419	3.21
420.624	3.2
420.83	3.3
421.035	3.37
421.241	3.44
421.446	3.44
421.652	3.63
421.857	4.09
422.063	4.47
422.268	4.83
422.474	7.51
422.679	7.84
422.885	7.69
423.09	7.63
423.295	7.78
423.501	7.63
423.706	7.55
423.911	7.47
424.117	7.22
424.322	7.1
424.527	6.69
424.733	6.99
424.938	6.63
425.143	6.47
425.349	6.17
425.554	5.83
425.759	5.82
425.964	5.94
426.169	5.79
426.375	5.68
426.58	5.75
426.785	6.13
426.99	5.83
427.195	6.09
427.4	6.29
427.605	6.79
427.811	7.26
428.016	7.21
428.221	7.19
428.426	7.68
428.631	7.89
428.836	7.64
429.041	7.91
429.246	7.89
429.451	7.97
429.656	7.98
429.861	8.01
430.066	7.93
430.271	8.34
430.476	8.6
430.681	8.05
430.886	8.09
431.09	7.98
431.295	7.75
431.5	7.94
431.705	7.81
431.91	7.82
432.115	7.27
432.32	7.37
432.524	6.99
432.729	6.71
432.934	6.63
433.139	6.32
433.343	6.27
433.548	6.4
433.753	6.05
433.958	6.05
434.162	6.02
434.367	6.33
434.572	6.03
434.776	5.81
434.981	5.87
435.186	6.04
435.39	6.05
435.595	6.14
435.799	6.08
436.004	6.17
436.209	6.1
436.413	6.05
436.618	5.66
436.822	5.79
437.027	6.03
437.231	5.8
437.436	5.53
437.64	5.57
437.845	5.6
438.049	5.49
438.253	5.2
438.458	5.25
438.662	5.32
438.867	5.56
439.071	5.79
439.275	5.8
439.48	5.85
439.684	6.16
439.888	6.49
440.093	6.42
440.297	6.65
440.501	7.13
440.706	7.28
440.91	7.34
441.114	7.38
441.318	7.24
441.523	7.3
441.727	7.28
441.931	7.33
442.135	6.99
442.339	7.19
442.543	6.99
442.748	6.97
442.952	6.68
443.156	6.61
443.36	6.63
443.564	6.36
443.768	6.28
443.972	6.74
444.176	6.56
444.38	6.47
444.584	6.21
444.788	6.2
444.992	5.92
445.196	6.04
445.4	5.94
445.604	5.77
445.808	5.81
446.012	5.75
446.216	5.5
446.42	5.51
446.624	5.68
446.828	5.87
447.032	5.92
447.235	6.15
447.439	6.08
447.643	6.37
447.847	6.69
448.051	6.67
448.254	6.82
448.458	6.43
448.662	6.34
448.866	6.27
449.069	6.11
449.273	6.07
449.477	6.06
449.681	6.16
449.884	6.05
450.088	5.82
450.292	5.94
450.495	5.88
450.699	6.44
450.902	6.57
451.106	6.35
451.31	6.45
451.513	6.63
451.717	6.43
451.92	6.49
452.124	6.47
452.327	6.31
452.531	6.5
452.734	6.14
452.938	5.7
453.141	5.65
453.345	5.88
453.548	5.74
453.752	5.32
453.955	5.33
454.158	5.38
454.362	5.29
454.565	5.42
454.769	5.5
454.972	5.98
455.175	6.16
455.379	6.26
455.582	6.4
455.785	6.53
455.988	6.78
456.192	6.75
456.395	6.21
456.598	5.99
456.801	6.2
457.005	6.03
457.208	5.65
457.411	5.49
457.614	5.46
457.817	5.32
458.021	5.07
458.224	5
458.427	4.77
458.63	5.06
458.833	5.48
459.036	5.36
459.239	5.32
459.442	5.37
459.645	5.4
459.848	5.28
460.051	5.27
460.254	5.54
460.457	5.74
460.66	6.07
460.863	6.18
461.066	5.76
461.269	5.58
461.472	5.66
461.675	5.8
461.878	5.99
462.081	6.14
462.284	6.04
462.486	5.76
462.689	5.34
462.892	5.53
463.095	5.62
463.298	5.78
463.5	6.27
463.703	6.05
463.906	5.88
464.109	6.16
464.311	6.13
464.514	6.18
464.717	6.02
464.92	6.39
465.122	6.32
465.325	6.22
465.528	6.29
465.73	5.98
465.933	6.09
466.135	6.28
466.338	6.07
466.541	6.28
466.743	6.4
466.946	6.83
467.148	6.93
467.351	6.82
467.553	6.73
467.756	6.73
467.958	6.88
468.161	7.06
468.363	6.92
468.566	6.57
468.768	6.04
468.971	6.15
469.173	6.4
469.375	6.44
469.578	5.97
469.78	5.86
469.983	5.68
470.185	5.6
470.387	5.9
470.59	6.07
470.792	6.41
470.994	6.72
471.196	6.39
471.399	5.96
471.601	5.72
471.803	5.91
472.005	5.91
472.208	5.81
472.41	5.66
472.612	5.13
472.814	5.21
473.016	5.11
473.218	5.32
473.421	5.19
473.623	5.19
473.825	5.24
474.027	5.43
474.229	5.88
474.431	5.84
474.633	6.11
474.835	6.22
475.037	6.15
475.239	6.19
475.441	6.23
475.643	6.79
475.845	6.76
476.047	6.64
476.249	6.42
476.451	5.99
476.653	6.25
476.855	5.9
477.057	6.01
477.258	5.69
477.46	5.75
477.662	5.41
477.864	5.28
478.066	5.22
478.268	5.46
478.469	5.74
478.671	5.69
478.873	5.59
479.075	5.39
479.276	5.41
479.478	5.31
479.68	5.47
479.882	5.38
480.083	5.51
480.285	5.72
480.487	5.7
480.688	5.65
480.89	5.7
481.091	5.54
481.293	5.47
481.495	5.17
481.696	5.04
481.898	4.74
482.099	4.68
482.301	4.37
482.502	4.16
482.704	3.94
482.905	3.82
483.107	3.77
483.308	3.7
483.51	3.75
483.711	3.69
483.913	3.82
484.114	3.85
484.315	3.77
484.517	3.89
484.718	3.89
484.92	4.09
485.121	4.1
485.322	4.02
485.524	3.99
485.725	4.06
485.926	4.21
486.127	4.19
486.329	4.1
486.53	4.21
486.731	4.16
486.932	4.26
487.134	4.11
487.335	4.11
487.536	4.1
487.737	4.26
487.938	4.29
488.139	4.3
488.341	4.14
488.542	4.29
488.743	4.39
488.944	4.38
489.145	4.24
489.346	4.21
489.547	4.25
489.748	4.46
489.949	4.41
490.15	4.25
490.351	4.24
490.552	4.34
490.753	4.25
490.954	4.19
491.155	4.26
491.356	4.27
491.557	4.38
491.758	4.53
491.959	4.62
492.159	4.64
492.36	4.88
492.561	4.95
492.762	5.07
492.963	5.09
493.164	5.07
493.364	5.08
493.565	5.21
493.766	5.16
493.967	5.04
494.167	5.11
494.368	4.92
494.569	4.8
494.769	4.6
494.97	4.46
495.171	4.69
495.371	4.51
495.572	4.86
495.773	5.03
495.973	4.99
496.174	4.83
496.375	5.02
496.575	5.29
496.776	5.43
496.976	5.34
497.177	5.61
497.377	5.49
497.578	5.62
497.778	5.33
497.979	5.49
498.179	5.6
498.38	5.75
498.58	5.4
498.78	5.28
498.981	5.32
499.181	5.59
499.382	5.59
499.582	5.79
499.782	6.21
499.983	6.42
500.183	6.4
500.383	6.78
500.584	6.85
500.784	6.92
500.984	7.18
501.184	7
501.385	7.04
501.585	7.06
501.785	7.04
501.985	6.77
502.185	7.16
502.386	6.95
502.586	6.84
502.786	7.16
502.986	7.03
503.186	6.91
503.386	7.06
503.586	7.3
503.786	7.43
503.987	7.4
504.187	7.35
504.387	7.01
504.587	7.15
504.787	6.82
504.987	6.8
505.187	6.88
505.387	6.94
505.587	6.92
505.786	6.71
505.986	6.65
506.186	6.7
506.386	7.18
506.586	7.22
506.786	7.43
506.986	7.63
507.186	7.72
507.386	7.88
507.585	8.08
507.785	8.12
507.985	8.15
508.185	8.38
508.384	8.82
508.584	8.8
508.784	8.91
508.984	9.1
509.183	9.13
509.383	8.91
509.583	9.15
509.782	8.79
509.982	9.02
510.182	9.32
510.381	8.88
510.581	8.46
510.781	8.47
510.98	8.33
511.18	8.15
511.379	8.1
511.579	7.99
511.778	7.96
511.978	8.3
512.177	7.94
512.377	7.71
512.576	7.81
512.776	7.58
512.975	7.31
513.175	7.4
513.374	7.54
513.573	7.85
513.773	8.45
513.972	8.51
514.172	8.79
514.371	8.95
514.57	9.39
514.77	9.67
514.969	10.05
515.168	10.43
515.367	10.38
515.567	10.13
515.766	10.24
515.965	9.88
516.164	9.66
516.364	9.49
516.563	9.62
516.762	9.72
516.961	9.88
517.16	9.95
517.359	9.87
517.559	9.91
517.758	9.95
517.957	9.86
518.156	10
518.355	10.21
518.554	10.24
518.753	10.19
518.952	9.89
519.151	9.83
519.35	9.98
519.549	10.06
519.748	10.31
519.947	10.38
520.146	10.64
520.345	10.63
520.544	10.54
520.743	10.56
520.942	10.71
521.141	10.81
521.339	10.95
521.538	11.27
521.737	11.37
521.936	11.37
522.135	11.27
522.333	11.14
522.532	11.37
522.731	11.37
522.93	11.75
523.129	11.99
523.327	12.09
523.526	12
523.725	11.79
523.923	11.95
524.122	11.91
524.321	12.05
524.519	12.09
524.718	12.09
524.917	12.34
525.115	12.23
525.314	11.95
525.512	12.08
525.711	12.17
525.909	12.2
526.108	12.2
526.306	12.03
526.505	12.05
526.703	11.96
526.902	11.8
527.1	11.76
527.299	11.73
527.497	11.81
527.696	11.83
527.894	11.75
528.092	11.76
528.291	11.65
528.489	11.81
528.688	11.97
528.886	12.03
529.084	12.11
529.283	12.14
529.481	12.16
529.679	12.38
529.877	12.43
530.076	12.65
530.274	12.79
530.472	12.9
530.67	13.1
530.869	13.25
531.067	13.49
531.265	13.64
531.463	13.77
531.661	14.05
531.859	14.12
532.057	14.12
532.255	14.2
532.454	14.16
532.652	14.2
532.85	14.01
533.048	13.95
533.246	13.89
533.444	13.81
533.642	13.92
533.84	13.86
534.038	13.85
534.236	13.87
534.434	13.92
534.632	14.29
534.83	14.53
535.027	14.9
535.225	15.05
535.423	15.2
535.621	15.33
535.819	15.32
536.017	15.42
536.215	15.55
536.412	15.73
536.61	15.64
536.808	15.41
537.006	15.3
537.203	15.34
537.401	15.27
537.599	15.34
537.797	15.62
537.994	15.41
538.192	15.48
538.39	15.24
538.587	15.43
538.785	15.49
538.983	15.56
539.18	15.81
539.378	15.65
539.575	15.59
539.773	15.51
539.97	15.67
540.168	15.79
540.366	15.83
540.563	15.81
540.761	15.74
540.958	15.8
541.155	15.83
541.353	15.82
541.55	15.86
541.748	15.86
541.945	16.11
542.143	15.87
542.34	16.03
542.537	16.12
542.735	16.54
542.932	16.65
543.129	16.92
543.327	16.93
543.524	16.77
543.721	17.01
543.919	17.06
544.116	16.96
544.313	17.16
544.51	17.3
544.708	17.26
544.905	17.07
545.102	16.86
545.299	16.93
545.496	17.04
545.693	17.3
545.891	17.2
546.088	17.39
546.285	17.54
546.482	17.8
546.679	17.52
546.876	17.54
547.073	17.74
547.27	18.37
547.467	18.26
547.664	18.4
547.861	18.52
548.058	18.78
548.255	19.07
548.452	19.22
548.649	19.36
548.846	20.07
549.043	20.3
549.24	20.26
549.437	19.86
549.633	19.8
549.83	19.89
550.027	20.06
550.224	19.97
550.421	19.98
550.618	20.13
550.814	19.82
551.011	19.26
551.208	19.09
551.405	19.21
551.601	19.13
551.798	19.18
551.995	19.47
552.191	19.56
552.388	19.62
552.585	20.03
552.781	20.06
552.978	20.37
553.175	20.63
553.371	20.71
553.568	20.73
553.764	21.45
553.961	21.53
554.157	21.15
554.354	20.97
554.55	21.38
554.747	20.96
554.943	20.98
555.14	21.31
555.336	21.27
555.533	21.24
555.729	21.24
555.926	20.61
556.122	20.77
556.318	21.22
556.515	21.77
556.711	21.7
556.907	21.78
557.104	21.78
557.3	21.54
557.496	21.8
557.693	21.86
557.889	21.86
558.085	21.73
558.281	22.13
558.478	22.08
558.674	21.93
558.87	21.67
559.066	21.85
559.262	21.88
559.459	21.54
559.655	21.58
559.851	21.68
560.047	21.77
560.243	22.11
560.439	21.65
560.635	21.95
560.831	21.82
561.027	21.91
561.223	22.04
561.419	22.24
561.615	22.28
561.811	22.11
562.007	22.27
562.203	22.28
562.399	22.67
562.595	22.77
562.791	22.68
562.987	22.44
563.183	22.47
563.379	22.29
563.575	22.07
563.771	22.3
563.966	22.68
564.162	22.64
564.358	23.03
564.554	22.46
564.75	22.71
564.945	22.55
565.141	22.9
565.337	23.02
565.533	23.24
565.728	23.11
565.924	22.94
566.12	22.78
566.315	22.74
566.511	22.58
566.707	22.94
566.902	22.89
567.098	23.02
567.293	22.83
567.489	23.22
567.684	22.98
567.88	23.07
568.076	23.33
568.271	23.65
568.467	23.88
568.662	23.39
568.858	23.6
569.053	23.42
569.248	23.39
569.444	23.28
569.639	22.96
569.835	23.34
570.03	23.36
570.225	23.55
570.421	23.45
570.616	23.83
570.812	24.44
571.007	24.63
571.202	25.1
571.397	25.2
571.593	25.25
571.788	25.2
571.983	24.8
572.178	24.94
572.374	24.5
572.569	24.16
572.764	23.7
572.959	23.54
573.154	23.19
573.35	23.07
573.545	23.05
573.74	23.07
573.935	22.89
574.13	23.07
574.325	23.03
574.52	23.24
574.715	23.8
574.91	23.9
575.105	24.11
575.3	24.41
575.495	24.19
575.69	24.53
575.885	24.64
576.08	25.1
576.275	25.39
576.47	26.02
576.665	26.63
576.86	26.4
577.055	26.74
577.25	26.2
577.444	26.48
577.639	26.43
577.834	25.83
578.029	25.91
578.224	25.6
578.418	25.66
578.613	25.17
578.808	25.17
579.003	25.43
579.197	25.17
579.392	25.31
579.587	24.57
579.781	24.64
579.976	24.93
580.171	25.41
580.365	25.69
580.56	25.47
580.755	25.23
580.949	24.61
581.144	24.64
581.338	24.56
581.533	24.55
581.727	25.08
581.922	25.49
582.116	25.72
582.311	25.69
582.505	25.87
582.7	25.8
582.894	26.1
583.089	26.22
583.283	25.81
583.478	26.16
583.672	26.4
583.866	26.15
584.061	25.7
584.255	25.57
584.449	25.79
584.644	25.88
584.838	25.89
585.032	26.27
585.226	26.17
585.421	26.34
585.615	26.3
585.809	26.36
586.003	26.53
586.198	27.22
586.392	27.15
586.586	27.16
586.78	26.92
586.974	26.75
587.168	26.05
587.363	26.29
587.557	26.52
587.751	26.09
587.945	26.23
588.139	26.14
588.333	25.91
588.527	25.92
588.721	25.35
588.915	25.19
589.109	25.16
589.303	25.81
589.497	25.89
589.691	25.53
589.885	25.99
590.079	26.12
590.273	26.24
590.466	26.12
590.66	26.42
590.854	26.64
591.048	26.87
591.242	27.33
591.436	27.1
591.629	27.14
591.823	27.72
592.017	27.72
592.211	27.58
592.404	27.66
592.598	27.15
592.792	27.46
592.986	27.52
593.179	27.4
593.373	27.02
593.567	27.11
593.76	27.53
593.954	27.37
594.147	26.91
594.341	26.82
594.535	26.91
594.728	27.68
594.922	27.56
595.115	27.19
595.309	27.26
595.502	27.18
595.696	27.27
595.889	26.99
596.083	26.72
596.276	26.81
596.47	26.65
596.663	26.66
596.856	26.64
597.05	26.11
597.243	26.4
597.437	26.45
597.63	26.69
597.823	26.86
598.017	26.66
598.21	26.73
598.403	26.98
598.596	27.57
598.79	27.82
598.983	27.8
599.176	27.8
599.369	27.94
599.563	28.05
599.756	28.15
599.949	27.92
600.142	28.43
600.335	28.21
600.528	28.51
600.722	28.81
600.915	28.41
601.108	28.42
601.301	28.63
601.494	28.69
601.687	29.01
601.88	29.08
602.073	28.77
602.266	28.8
602.459	29.04
602.652	28.59
602.845	28.57
603.038	28.14
603.231	27.87
603.424	27.77
603.617	27.47
603.809	27.08
604.002	26.98
604.195	27.12
604.388	26.81
604.581	26.88
604.774	27.39
604.966	27.1
605.159	27.47
605.352	27.47
605.545	27.94
605.737	28.14
605.93	28.19
606.123	28.03
606.316	27.9
606.508	28
606.701	27.91
606.894	27.5
607.086	27.72
607.279	27.71
607.471	27.49
607.664	27.36
607.857	27.82
608.049	27.99
608.242	27.94
608.434	28.48
608.627	28.7
608.819	28.74
609.012	28.9
609.204	28.5
609.397	28.54
609.589	29.04
609.782	29.07
609.974	28.78
610.166	28.85
610.359	29.09
610.551	28.67
610.743	28.73
610.936	28.34
611.128	28.85
611.32	28.79
611.513	28.95
611.705	29.15
611.897	29.51
612.09	29.71
612.282	30.19
612.474	30.58
612.666	30.97
612.858	30.71
613.051	31.45
613.243	30.59
613.435	31.71
613.627	31.95
613.819	31.76
614.011	31.25
614.203	31.3
614.395	30.64
614.588	31.04
614.78	31.56
614.972	32.41
615.164	32.74
615.356	33.17
615.548	32.12
615.74	32.4
615.932	32.89
616.124	33.24
616.315	32.92
616.507	33.08
616.699	32.72
616.891	32.18
617.083	31.99
617.275	31.66
617.467	31.54
617.659	32.17
617.85	31.9
618.042	32.02
618.234	31.59
618.426	32.06
618.618	32.26
618.809	32.23
619.001	31.76
619.193	31.51
619.384	31.23
619.576	31.27
619.768	30.91
619.959	31.27
620.151	30.76
620.343	31.17
620.534	30.66
620.726	30.61
620.917	31.22
621.109	32.28
621.301	32.32
621.492	32.37
621.684	32.47
621.875	32.9
622.067	31.95
622.258	32.01
622.45	31.76
622.641	32.05
622.832	32.66
623.024	31.8
623.215	31.3
623.407	31.06
623.598	30.81
623.789	30.62
623.981	30.41
624.172	31.43
624.363	31.11
624.555	30.83
624.746	30.93
624.937	31.07
625.129	30.98
625.32	30.66
625.511	31.03
625.702	31.2
625.893	31.71
626.085	31.38
626.276	30.94
626.467	31.22
626.658	31.2
626.849	31.5
627.04	31.61
627.231	32.13
627.422	32.48
627.614	32.09
627.805	32.28
627.996	32.2
628.187	32.45
628.378	32.67
628.569	33.05
628.76	33.74
628.951	33.39
629.142	32.46
629.332	32.35
629.523	32.3
629.714	32.83
629.905	33.45
630.096	33.44
630.287	33.88
630.478	33.18
630.669	32.54
630.859	32.34
631.05	32.21
631.241	31.44
631.432	30.88
631.623	30.8
631.813	30.75
632.004	30.56
632.195	30.66
632.385	29.91
632.576	29.99
632.767	30.58
632.957	30.9
633.148	30.76
633.339	30.91
633.529	31.43
633.72	31.49
633.91	30.73
634.101	30.44
634.292	30.22
634.482	30.51
634.673	31.02
634.863	30.52
635.054	29.99
635.244	31.44
635.435	32.7
635.625	32.53
635.815	32.8
636.006	33.03
636.196	33.4
636.387	33.49
636.577	33.84
636.767	33.96
636.958	33.88
637.148	34.53
637.338	33.11
637.529	33.35
637.719	33.01
637.909	32.67
638.099	33.12
638.29	32.88
638.48	33.13
638.67	33.18
638.86	33.11
639.05	33.39
639.241	32.96
639.431	32.93
639.621	31.98
639.811	32.53
640.001	33.38
640.191	33.39
640.381	33.66
640.571	34.07
640.761	34.47
640.951	34.79
641.141	35.43
641.331	35.35
641.521	35.8
641.711	36.3
641.901	36.61
642.091	36.65
642.281	36.29
642.471	35.84
642.661	35.77
642.851	35.41
643.041	34.94
643.231	34.77
643.42	34.99
643.61	35.81
643.8	36.06
643.99	35.97
644.18	35.46
644.369	36.26
644.559	36.7
644.749	36.05
644.939	35.3
645.128	35.64
645.318	35.75
645.508	35.97
645.697	34.84
645.887	34.68
646.076	34.79
646.266	34.57
646.456	33.59
646.645	34.08
646.835	34.73
647.024	35.88
647.214	36.14
647.403	35.48
647.593	35.54
647.782	36.07
647.972	35.52
648.161	35.85
648.351	36.35
648.54	37.11
648.73	36.52
648.919	35.98
649.108	35.41
649.298	35.05
649.487	35.33
649.677	35.32
649.866	35.56
650.055	35.97
650.244	35.86
650.434	35.17
650.623	34.54
650.812	34.17
651.002	34.03
651.191	34.85
651.38	34.77
651.569	35.04
651.758	35.17
651.947	34.89
652.137	34.71
652.326	34.55
652.515	35.21
652.704	35.46
652.893	35.57
653.082	35.48
653.271	34.71
653.46	34.75
653.649	34.59
653.838	33.99
654.027	34.37
654.216	34.64
654.405	35.38
654.594	35.37
654.783	35.52
654.972	35.52
655.161	35.77
655.35	36.26
655.539	36.33
655.728	36.18
655.916	36.12
656.105	36.21
656.294	36.69
656.483	35.41
656.672	34.38
656.86	33.79
657.049	34.22
657.238	34.29
657.427	34.11
657.615	33.77
657.804	34.23
657.993	34.01
658.181	33.82
658.37	33
658.559	32.84
658.747	33.74
658.936	34.07
659.125	32.96
659.313	32.4
659.502	32.21
659.69	32.46
659.879	32.2
660.067	32.2
660.256	31.95
660.444	32.62
660.633	33.06
660.821	33.14
661.01	33.21
661.198	34.26
661.387	35.13
661.575	35.53
661.763	35.43
661.952	35.4
662.14	35.95
662.328	36.61
662.517	36.84
662.705	36.68
662.893	37.03
663.082	37.15
663.27	36.57
663.458	36
663.646	35.95
663.834	36.05
664.023	36.41
664.211	35.86
664.399	36.01
664.587	35.52
664.775	36
664.963	36
665.152	36.49
665.34	36.91
665.528	37.91
665.716	38.81
665.904	39.92
666.092	39.53
666.28	40.63
666.468	39.47
666.656	39.54
666.844	39.52
667.032	38.91
667.22	39.68
667.408	39.56
667.596	38.76
667.784	38.3
667.971	38.03
668.159	37.88
668.347	37.51
668.535	37.83
668.723	36.8
668.911	35.47
669.098	34.91
669.286	34.4
669.474	35.37
669.662	35.43
669.849	34.24
670.037	33.07
670.225	33.86
670.413	33.25
670.6	33.43
670.788	34.64
670.976	35.74
671.163	36.35
671.351	36.26
671.538	35.92
671.726	36.49
671.913	37.36
672.101	38.07
672.289	37.34
672.476	38.48
672.664	38.48
672.851	38.18
673.039	38.22
673.226	38.72
673.413	37.72
673.601	37.27
673.788	37.5
673.976	37.37
674.163	37.21
674.35	36.79
674.538	36.78
674.725	36.88
674.912	37.08
675.1	37.23
675.287	36.71
675.474	37.24
675.662	37.19
675.849	36.85
676.036	37.53
676.223	37.21
676.411	37.6
676.598	36.43
676.785	36.01
676.972	35.78
677.159	36.08
677.346	36.06
677.533	36.55
677.721	36.5
677.908	35.97
678.095	36.07
678.282	36.28
678.469	34.93
678.656	35.19
678.843	35.55
679.03	35.61
679.217	34.61
679.404	34.33
679.591	34.3
679.778	35.09
679.964	36.48
680.151	36.19
680.338	36.29
680.525	38.23
680.712	38.69
680.899	39.31
681.086	40.02
681.272	41.33
681.459	41.9
681.646	41.78
681.833	40.8
682.02	39.78
682.206	39.17
682.393	39.85
682.58	39.28
682.766	42.29
682.953	41.95
683.14	41.26
683.326	41.46
683.513	42
683.7	42.29
683.886	43.4
684.073	43.87
684.259	44.25
684.446	43.66
684.632	43.55
684.819	39.77
685.005	40.27
685.192	40.84
685.378	41.03
685.565	40.88
685.751	40.45
685.938	40.46
686.124	39.77
686.31	39.13
686.497	39.19
686.683	39.66
686.87	41.07
687.056	40.62
687.242	38.89
687.429	39.69
687.615	39.29
687.801	39.67
687.987	38.73
688.174	39.56
688.36	40.48
688.546	40.66
688.732	41.33
688.918	39.3
689.105	38.68
689.291	40.37
689.477	39.76
689.663	39.7
689.849	40.24
690.035	40.4
690.221	40.04
690.407	40.73
690.593	40.03
690.779	39.71
690.965	41.34
691.151	42.08
691.337	42.33
691.523	41.64
691.709	42.24
691.895	41.16
692.081	42.06
692.267	42.05
692.453	41.69
692.639	42.18
692.825	41.24
693.011	40.25
693.196	40.69
693.382	39.82
693.568	40.22
693.754	40.69
693.94	42.52
694.125	42.08
694.311	42.21
694.497	42
694.682	42.16
694.868	43.39
695.054	43.81
695.239	43.9
695.425	44.64
695.611	43.6
695.796	41.4
695.982	40.34
696.168	41.12
696.353	41.57
696.539	41.38
696.724	41.17
696.91	40.19
697.095	40.48
697.281	40.51
697.466	40.16
697.652	40.02
697.837	40.54
698.023	40.62
698.208	40.34
698.393	40.31
698.579	41
698.764	40.32
698.949	40.3
699.135	40.2
699.32	40.82
699.505	40.63
699.691	40.89
699.876	41.23
700.061	41.55
700.246	41.94
700.432	42.49
700.617	41.41
700.802	42.25
700.987	43.27
701.172	43.44
701.358	41.84
701.543	42.99
701.728	44.86
701.913	44.34
702.098	44.35
702.283	43.99
702.468	43.25
702.653	44.31
702.838	45.1
703.023	44.68
703.208	44.8
703.393	45.77
703.578	45.56
703.763	44.49
703.948	45.47
704.133	45.14
704.318	45.04
704.503	44.51
704.688	44.71
704.873	44.89
705.057	45.34
705.242	45.07
705.427	43.97
705.612	43.6
705.797	43.8
705.981	44.79
706.166	45.93
706.351	45.12
706.536	45.78
706.72	44.8
706.905	43.96
707.09	44.29
707.274	46.12
707.459	45.68
707.644	45.99
707.828	45.74
708.013	44.18
708.197	41.51
708.382	42.21
708.567	41.28
708.751	42.49
708.936	43.76
709.12	42.66
709.305	41.32
709.489	40.98
709.673	40.17
709.858	40.35
710.042	40.63
710.227	42.51
710.411	42.95
710.596	43.74
710.78	42.39
710.964	42.75
711.149	43.14
711.333	43.53
711.517	43.93
711.702	45.14
711.886	44.73
712.07	44.28
712.254	43.36
712.438	44.51
712.623	43.05
712.807	43.79
712.991	42.68
713.175	43.53
713.359	43.59
713.544	44.42
713.728	44.88
713.912	46.39
714.096	47.27
714.28	46.85
714.464	44.61
714.648	46.59
714.832	46.6
715.016	47.2
715.2	46.85
715.384	45.86
715.568	46.95
715.752	46.18
715.936	44.82
716.12	45.14
716.304	45.05
716.488	45.03
716.671	45.31
716.855	46.64
717.039	45.82
717.223	44.91
717.407	46.94
717.59	45.04
717.774	46.25
717.958	46.78
718.142	47.62
718.325	49.35
718.509	50.87
718.693	51.16
718.877	49.76
719.06	52.48
719.244	53.67
719.428	52.16
719.611	53.35
719.795	50.07
719.978	52.06
720.162	50.65
720.345	49.99
720.529	48.86
720.713	47.99
720.896	48.48
721.08	45.38
721.263	45.93
721.446	46.79
721.63	46.96
721.813	49.69
721.997	48.41
722.18	47.69
722.364	48.82
722.547	49.69
722.73	50.36
722.914	49.84
723.097	51.22
723.28	51.66
723.464	52.56
723.647	52.39
723.83	52.13
724.013	52.76
724.197	52.84
724.38	52.59
724.563	52.11
724.746	51.27
724.929	51.02
725.112	51.72
725.296	49.6
725.479	47.19
725.662	48.72
725.845	47.85
726.028	46.61
726.211	46.36
726.394	45.85
726.577	45.55
726.76	44.81
726.943	44.76
727.126	43.64
727.309	43.91
727.492	43.68
727.675	42.66
727.858	42.96
728.041	42.74
728.224	42.93
728.407	41.93
728.589	41.6
728.772	42.44
728.955	43.47
729.138	44.77
729.321	44.42
729.503	44.98
729.686	43.85
729.869	43.79
730.052	44.59
730.234	46.75
730.417	46.7
730.6	49.08
730.782	49.21
730.965	49.46
731.148	48.77
731.33	48.78
731.513	48.8
731.695	50.1
731.878	49.01
732.061	48.14
732.243	46.36
732.426	47.32
732.608	46.6
732.791	45.43
732.973	44.35
733.156	45.01
733.338	46.16
733.52	46.92
733.703	46.69
733.885	49.56
734.068	50.27
734.25	51.85
734.432	53.52
734.615	52.86
734.797	53.96
734.979	54.78
735.162	54.32
735.344	55.01
735.526	55.72
735.708	55.19
735.891	54.97
736.073	54.45
736.255	53.22
736.437	51.13
736.619	50.36
736.802	50.91
736.984	50.78
737.166	50.07
737.348	49.74
737.53	51.09
737.712	50.25
737.894	48.1
738.076	49.61
738.258	49.72
738.44	50.62
738.622	52.89
738.804	53.71
738.986	53.76
739.168	54.97
739.35	54.67
739.532	52
739.714	55.04
739.896	58.62
740.078	56.77
740.259	56.69
740.441	56.83
740.623	56.32
740.805	54.24
740.987	55.08
741.168	52.68
741.35	54.44
741.532	55.24
741.714	53.92
741.895	49.97
742.077	51.88
742.259	53.48
742.44	52.67
742.622	52.93
742.804	54.62
742.985	54.38
743.167	54.95
743.348	51.68
743.53	53.08
743.711	51.59
743.893	54.05
744.075	54.45
744.256	53.37
744.438	54.91
744.619	55.12
744.8	53.29
744.982	52.6
745.163	56.14
745.345	59.52
745.526	57.51
745.707	60.17
745.889	59.07
746.07	57.73
746.252	58.85
746.433	58.92
746.614	57.36
746.795	60.09
746.977	63.51
747.158	62.1
747.339	60.8
747.52	61.74
747.702	61.48
747.883	60.47
748.064	63.7
748.245	63.16
748.426	64.56
748.607	64.25
748.788	63.66
748.97	61.07
749.151	60.38
749.332	61.92
749.513	62.42
749.694	61.53
749.875	63.93
750.056	61.14
750.237	61.04
750.418	58.94
750.599	60.68
750.78	56.59
750.96	56.75
751.141	54.36
751.322	52.44
751.503	53.27
751.684	55.73
751.865	54.11
752.046	54.92
752.226	53.03
752.407	51.17
752.588	49.69
752.769	51.79
752.949	51.57
753.13	54.49
753.311	53.9
753.492	51.03
753.672	47.48
753.853	51.44
754.034	51.64
754.214	53.82
754.395	55.06
754.575	54.11
754.756	54.16
754.937	54.14
755.117	53.15
755.298	55.59
755.478	58.12
755.659	58.34
755.839	55.03
756.02	52.96
756.2	50.88
756.381	50.12
756.561	53.82
756.741	55.79
756.922	55.23
757.102	53.55
757.283	50.51
757.463	50.71
757.643	51.73
757.823	53.21
758.004	54.3
758.184	56.27
758.364	57.76
758.545	56.08
758.725	54.96
758.905	52.73
759.085	55.31
759.265	56.51
759.446	54.08
759.626	55.1
759.806	54.01
759.986	53.96
760.166	53.82
760.346	54.66
760.526	52.51
760.706	53.02
760.886	53.81
761.066	53.19
761.246	52.89
761.426	53.52
761.606	50.87
761.786	50.3
761.966	50.45
762.146	48.7
762.326	48.54
762.506	48.68
762.686	48.6
762.866	50.34
763.046	49.44
763.225	49.13
763.405	49.59
763.585	49.24
763.765	48.39
763.945	48.04
764.124	49.03
764.304	49.91
764.484	51.27
764.664	50.21
764.843	50.68
765.023	51.47
765.203	51.65
765.382	51.44
765.562	53.92
765.741	57.58
765.921	57.82
766.101	59.24
766.28	58.44
766.46	58.82
766.639	59.38
766.819	57.84
766.998	60.94
767.178	60.65
767.357	60.79
767.537	60.63
767.716	60.37
767.896	60.17
768.075	61.08
768.254	59.86
768.434	59.75
768.613	61.37
768.792	63.43
768.972	60.87
769.151	62.93
769.33	60.8
769.51	62.64
769.689	59.85
769.868	58.1
770.047	56.41
770.226	58.26
770.406	59.05
770.585	59.44
770.764	56.49
770.943	56.77
771.122	56.68
771.301	61.24
771.48	59.98
771.66	61.02
771.839	64.07
772.018	66.53
772.197	66.3
772.376	66.47
772.555	66.51
772.734	67.9
772.913	67.71
773.092	66.55
773.271	64.61
773.449	67.45
773.628	68.73
773.807	70.3
773.986	67.5
774.165	64
774.344	65.03
774.523	62.38
774.701	63.28
774.88	62.55
775.059	63.19
775.238	65.9
775.417	63.1
775.595	64.72
775.774	64.68
775.953	66.06
776.131	71
776.31	68.05
776.489	68.78
776.667	69.65
776.846	73.5
777.025	74.14
777.203	72.32
777.382	70.14
777.56	67.8
777.739	63.99
777.917	62.63
778.096	59.93
778.274	62.3
778.453	60.35
778.631	58.58
778.81	57.82
778.988	59.72
779.166	60.3
779.345	62.41
779.523	61.36
779.702	67.32
779.88	69.31
780.058	68.06
780.237	66.85
780.415	69.36
780.593	67.57
780.771	64.75
780.95	63.46
781.128	62.77
781.306	65.79
781.484	66.59
781.662	65.37
781.841	61.92
782.019	64.35
782.197	69.81
782.375	71.81
782.553	72.9
782.731	75.98
782.909	72.59
783.087	70.85
783.265	68.49
783.443	70.83
783.621	73.4
783.799	77.76
783.977	78.36
784.155	69.46
784.333	67.51
784.511	68.61
784.689	66.35
784.867	71.41
785.045	73.11
785.223	71.77
785.4	68.61
785.578	65.37
785.756	64.54
785.934	64.29
786.112	66.4
786.289	67.99
786.467	64.59
786.645	64.46
786.823	61.06
787	57.06
787.178	56.52
787.356	58.53
787.533	55.52
787.711	56.29
787.889	54.09
788.066	51.46
788.244	48.94
788.421	52.6
788.599	51.05
788.776	50.96
788.954	55.84
789.131	56.88
789.309	57.98
789.486	59.88
789.664	59.54
789.841	64.58
790.019	69.56
790.196	72.26
790.373	69.69
790.551	73.06
790.728	74.84
790.906	71.41
791.083	68.54
791.26	67.05
791.437	69.6
791.615	74.41
791.792	70.8
791.969	66.94
792.146	67.76
792.324	71.14
792.501	71.7
792.678	72.63
792.855	73.09
793.032	76.35
793.209	75.77
793.387	77.69
793.564	72.86
793.741	75.67
793.918	76.36
794.095	73.71
794.272	71.7
794.449	67.71
794.626	66.32
794.803	70.32
794.98	69.44
795.157	71.35
795.334	68.38
795.511	67.99
795.688	64.87
795.864	68.2
796.041	69.99
796.218	72.58
796.395	76.99
796.572	72.31
796.749	71.02
796.925	67.18
797.102	60.34
797.279	60.27
797.456	60.71
797.632	62.08
797.809	57.27
797.986	58.02
798.162	59.84
798.339	59.45
798.516	64.63
798.692	63.16
798.869	66.62
799.046	73.24
799.222	77.59
799.399	73.89
799.575	71.49
799.752	72.79
799.928	73.13
800.105	70.15
800.281	69.54
800.458	66.77
800.634	64.83
800.811	60.44
800.987	60.12
801.163	56.54
801.34	61.24
801.516	60.61
801.692	62.55
801.869	63.1
802.045	65.68
802.221	64.78
802.398	67.08
802.574	71.37
802.75	74.68
802.926	70.78
803.103	72.23
803.279	73.84
803.455	77.23
803.631	76.8
803.807	76.4
803.983	73.8
804.16	74.9
804.336	74.09
804.512	73.95
804.688	72.26
804.864	76.39
805.04	73.28
805.216	68.43
805.392	66.42
805.568	64.78
805.744	64.44
805.92	66
806.096	67.06
806.272	71.19
806.448	67.8
806.623	69.89
806.799	68.39
806.975	72.69
807.151	75.12
807.327	72.76
807.503	72.39
807.678	66.9
807.854	68.55
808.03	66.45
808.206	64.25
808.381	64.95
808.557	67.34
808.733	65.95
808.908	69.18
809.084	68.33
809.26	72.36
809.435	77.67
809.611	85.71
809.787	80.23
809.962	79.19
810.138	81.65
810.313	80.03
810.489	83.21
810.664	85.23
810.84	82.87
811.015	82.24
811.191	82.98
811.366	84.15
811.542	84.32
811.717	88.03
811.892	94.26
812.068	90.66
812.243	91.01
812.419	82.93
812.594	85.13
812.769	84.36
812.944	91.24
813.12	91.7
813.295	87.66
813.47	85.97
813.645	87.27
813.821	83.84
813.996	79.93
814.171	77.49
814.346	75.59
814.521	73.17
814.697	74.69
814.872	74.48
815.047	71.03
815.222	70.61
815.397	68.59
815.572	66.77
815.747	67.8
815.922	70.44
816.097	73.55
816.272	81.33
816.447	82.82
816.622	78.18
816.797	78.56
816.972	78.85
817.147	75.59
817.322	78.48
817.496	74.73
817.671	74.82
817.846	76.44
818.021	72.52
818.196	73.71
818.371	72.13
818.545	74.2
818.72	70.92
818.895	70.92
819.069	69.86
819.244	64.81
819.419	61.02
819.594	57.01
819.768	51.72
819.943	52.67
820.117	47.89
820.292	46.59
820.467	44.42
820.641	42.09
820.816	41.22
820.99	39.82
821.165	38.03
821.339	38.49
821.514	37.47
821.688	37.94
821.863	36.81
822.037	36.68
822.212	35.91
822.386	35.68
822.56	35.25
822.735	35.79
822.909	36.23
823.084	36.6
823.258	37.03
823.432	38.22
823.606	38.82
823.781	39.57
823.955	39.8
824.129	40.7
824.303	40.58
824.478	41.69
824.652	41.28
824.826	40.58
825	42.52
825.174	42.3
825.348	42.63
825.523	41.87
825.697	41.53
825.871	42.13
826.045	41.59
826.219	42.35
826.393	42.77
826.567	43.44
826.741	45.59
826.915	44.97
827.089	44.58
827.263	42.49
827.437	43.83
827.611	43.15
827.784	43.07
827.958	44.32
828.132	43.05
828.306	43.72
828.48	44.8
828.654	44.91
828.827	45.19
829.001	47.75
829.175	50.64
829.349	51.85
829.522	53.66
829.696	57.44
829.87	59.81
830.044	64.15
830.217	64.37
830.391	63.2
830.565	64.26
830.738	66.58
830.912	66.95
831.085	67.83
831.259	64.45
831.432	64.18
831.606	60.53
831.779	58.11
831.953	55.47
832.126	54.79
832.3	56.03
832.473	55.07
832.647	52.2
832.82	49.36
832.994	46.56
833.167	47.49
833.34	48.4
833.514	45.84
833.687	44.3
833.86	45.72
834.034	45.58
834.207	41.81
834.38	42.81
834.553	41.66
834.727	44.57
834.9	45.2
835.073	45.5
835.246	45.19
835.419	45.55
835.593	43.89
835.766	42.99
835.939	45.33
836.112	48.02
836.285	46.22
836.458	49.88
836.631	50.42
836.804	57.02
836.977	55.56
837.15	55.86
837.323	58.65
837.496	64.23
837.669	67.38
837.842	62.79
838.015	66.95
838.188	67.22
838.361	63.74
838.533	65.68
838.706	63.31
838.879	65.09
839.052	66.49
839.225	66.24
839.398	71.17
839.57	74.33
839.743	76.86
839.916	76.87
840.088	78.9
840.261	86.44
840.434	82.73
840.607	83.08
840.779	82.19
840.952	84.05
841.124	89.29
841.297	86.83
841.47	90.66
841.642	96.7
841.815	91.15
841.987	99.52
842.16	92
842.332	96.56
842.505	97.51
842.677	103.83
842.85	108.39
843.022	111.61
843.194	104.02
843.367	102.26
843.539	103.46
843.712	112.29
843.884	106.58
844.056	108.15
844.229	110.42
844.401	120.8
844.573	108.76
844.745	102.1
844.918	110.12
845.09	113.62
845.262	114.42
845.434	121.16
845.606	114.38
845.779	110.87
845.951	105.97
846.123	100.59
846.295	90.84
846.467	125.44
846.639	129.48
846.811	147.14
846.983	164.3
847.155	164.45
847.327	156.79
847.499	166.4
847.671	176.05
847.843	169.73
848.015	166.61
848.187	160.91
848.359	157.35
848.531	165.45
848.703	136.58
848.875	157.67
849.047	145.05
849.218	142.77
849.39	127.85
849.562	138.29
849.734	167.34
849.905	163.52
850.077	188.05
850.249	180.28
850.421	168.11
850.592	176.88
850.764	147.24
850.936	142.03
851.107	135.41
851.279	147.61
851.451	131.93
851.622	134.18
851.794	140.06
851.965	135.44
852.137	128.44
852.308	125.27
852.48	124.3
852.651	127.75
852.823	138.48
852.994	141.67
853.166	142.38
853.337	153.02
853.509	145.06
853.68	139.21
853.851	140.67
854.023	139.46
854.194	137.05
854.365	149.09
854.537	134.02
854.708	141.18
854.879	138.07
855.05	146.88
855.222	126.67
855.393	132.87
855.564	131.37
855.735	133.69
855.906	132.52
856.078	134.04
856.249	109.27
856.42	116.67
856.591	107.61
856.762	109.57
856.933	110.49
857.104	109.6
857.275	98.19
857.446	107.65
857.617	104.84
857.788	106.75
857.959	110.58
858.13	138.07
858.301	122
858.472	123.74
858.643	120.44
858.814	124.73
858.985	142.18
859.155	179.03
859.326	158.14
859.497	163.32
859.668	251.2
859.839	213.54
860.009	154.26
860.18	209.34
860.351	205.02
860.522	165.86
860.692	138.18
860.863	125.65
861.034	126.24
861.204	117.07
861.375	101.22
861.546	98.87
861.716	99.31
861.887	108.43
862.057	118.58
862.228	121.04
862.398	114.81
862.569	117.62
862.739	140.28
862.91	125.35
863.08	144.9
863.251	159.63
863.421	137.77
863.592	163.16
863.762	146.43
863.932	117.06
864.103	106.12
864.273	119.27
864.443	105.86
864.614	96.5
864.784	89.49
864.954	89.24
865.125	97.39
865.295	101.35
865.465	107.89
865.635	104.62
865.805	105.36
865.976	112.02
866.146	111.76
866.316	157.43
866.486	182.62
866.656	189.46
866.826	180.19
866.996	166.92
867.166	200
867.336	151.99
867.506	121.13
867.676	111.32
867.846	107.7
868.016	115.87
868.186	101.25
868.356	103.28
868.526	104.95
868.696	94.88
868.866	92.26
869.036	102.79
869.206	101.46
869.376	105.4
869.545	117.88
869.715	134.32
869.885	114.43
870.055	121.07
870.224	104.67
870.394	109.35
870.564	134.27
870.734	129.08
870.903	125.78
871.073	124.67
871.243	128.78
871.412	132.2
871.582	123.71
871.751	154.4
871.921	150.55
872.091	184.16
872.26	141.15
872.43	121.34
872.599	118.83
872.769	129.3
872.938	149.34
873.108	146.75
873.277	123.76
873.446	111.27
873.616	117.54
873.785	126.8
873.955	127.31
874.124	137.36
874.293	143.89
874.463	140.75
874.632	130.28
874.801	114.13
874.971	112.51
875.14	148.58
875.309	142.35
875.478	109.52
875.647	91.75
875.817	92.83
875.986	97.46
876.155	102.59
876.324	108.13
876.493	97.27
876.662	103.96
876.831	111.98
877	100.33
877.17	101.3
877.339	114.6
877.508	129.9
877.677	138.57
877.846	139.45
878.015	127.43
878.184	117.18
878.352	123.82
878.521	118.09
878.69	108.51
878.859	96.77
879.028	100.84
879.197	96.92
879.366	92.93
879.534	80.61
879.703	69.38
879.872	68.08
880.041	61.75
880.21	56.23
880.378	49.31
880.547	47.96
880.716	51.08
880.884	47.47
881.053	44.92
881.222	41.94
881.39	40.53
881.559	38.62
881.727	38.48
881.896	38.49
882.065	39.43
882.233	41.29
882.402	38.73
882.57	40
882.739	37.65
882.907	38.31
883.076	39.09
883.244	38.97
883.412	40.08
883.581	41.09
883.749	41.17
883.918	41.12
884.086	41.69
884.254	45.22
884.423	47.04
884.591	52.18
884.759	50.82
884.927	52.69
885.096	55.32
885.264	58.51
885.432	58.66
885.6	66.03
885.769	69.71
885.937	71.63
886.105	78.29
886.273	75.67
886.441	75.74
886.609	84.89
886.777	77.84
886.945	81.35
887.113	88.57
887.281	86.07
887.449	87.96
887.617	91.06
887.785	95.77
887.953	91.63
888.121	97.62
888.289	103.16
888.457	97.11
888.625	104.92
888.793	109.54
888.961	105.63
889.129	106.08
889.296	103.24
889.464	98.41
889.632	90.61
889.8	86.15
889.967	72.2
890.135	59.69
