Data from JASIL_3337_Reflection_2.txt Node
Date: Tue Nov 17 20:23:17 EST 2015
User: Geneva
Spectrometer: USB4E03002
Autoset integration time: false
Trigger mode: 4
Integration Time (sec): 1.000000E-1
Scans to average: 10
Electric dark correction enabled: false
Nonlinearity correction enabled: false
Boxcar width: 5
Stray light correction enabled: false
XAxis mode: Wavelengths
Stop averaging: false
Number of Pixels in Spectrum: 3648
>>>>>Begin Spectral Data<<<<<
177.575	71.29
177.794	-44.57
178.014	22.47
178.233	-98.11
178.452	-153.33
178.672	-149.61
178.891	-613.79
179.11	4720
179.33	1250
179.549	1192.16
179.768	-5409.09
179.987	568.94
180.207	292.62
180.426	596.58
180.645	752.8
180.864	5911.76
181.084	652.41
181.303	535.71
181.522	654.02
181.741	685.96
181.96	1196.97
182.179	7100
182.398	-1531.17
182.618	-605.97
182.837	-513.33
183.056	-555.74
183.275	-530.56
183.494	-201.8
183.713	-141.81
183.932	-117.17
184.151	-63.92
184.37	-54.11
184.589	-78.78
184.808	-57.76
185.027	-34.5
185.246	-68.68
185.465	-75.66
185.684	-101.29
185.903	-194.17
186.122	-291.25
186.341	-677.88
186.56	-554.76
186.779	-2948.15
186.998	-329.63
187.216	-381.11
187.435	-396.97
187.654	-369.09
187.873	-215.18
188.092	-274.36
188.311	-319.29
188.53	-191.3
188.748	-64.69
188.967	-63.3
189.186	-51.83
189.405	-174.05
189.623	-134.38
189.842	-160.89
190.061	-167.81
190.28	-108.02
190.498	-137.55
190.717	-113.86
190.936	-124.79
191.154	-446.15
191.373	-787.36
191.592	1809.3
191.81	655.34
192.029	642.11
192.248	363.73
192.466	339.78
192.685	151.79
192.904	357.43
193.122	182.42
193.341	238.24
193.559	234.46
193.778	402.21
193.996	362.09
194.215	940.58
194.433	519.29
194.652	454.55
194.87	396.88
195.089	534.62
195.307	915.79
195.526	-653.06
195.744	-466.91
195.963	-520
196.181	-623.97
196.399	-929.89
196.618	980.26
196.836	675.18
197.055	702.7
197.273	749.25
197.491	887.39
197.71	479.76
197.928	452.98
198.146	411.64
198.365	2492.86
198.583	1563.49
198.801	-729.03
199.019	-279.94
199.238	-188.46
199.456	-155.3
199.674	-251.78
199.892	-190.24
200.111	-145.54
200.329	-144.62
200.547	-228.21
200.765	1801.96
200.983	-788.89
201.202	1423.68
201.42	433.21
201.638	349.13
201.856	600
202.074	907.33
202.292	521.07
202.51	468.47
202.728	572.04
202.946	4882.14
203.165	2436.54
203.383	470.4
203.601	637.06
203.819	1034.55
204.037	-2869.7
204.255	-3496.3
204.473	-525.87
204.691	-426.47
204.909	-313.72
205.127	-1439.58
205.345	365.45
205.562	-478.29
205.78	-112.53
205.998	-79.05
206.216	-74.84
206.434	-123.3
206.652	-81.65
206.87	-172.46
207.088	-100.95
207.306	-129.48
207.523	-152.49
207.741	-170.55
207.959	-192.79
208.177	-215.54
208.395	-235.78
208.612	-266.67
208.83	-161.3
209.048	-185.13
209.266	-167.13
209.483	-94.89
209.701	-136.82
209.919	-82.8
210.136	-91.33
210.354	-114.68
210.572	-147.52
210.79	-172.67
211.007	-375.35
211.225	-3966.67
211.442	1089.83
211.66	3200
211.878	341.2
212.095	410.47
212.313	666.1
212.53	322.27
212.748	275.7
212.966	166.38
213.183	157.59
213.401	-1333.33
213.618	-51.98
213.836	-39.93
214.053	-9.17
214.271	-16.67
214.488	-117.86
214.705	-116.32
214.923	-85.46
215.14	-49.06
215.358	-60.68
215.575	-62.46
215.793	-110.12
216.01	-332.7
216.227	-667.24
216.445	-570.83
216.662	-338.79
216.879	-335.22
217.097	-186.05
217.314	-364.59
217.531	13150
217.749	1045.54
217.966	590.11
218.183	405.54
218.4	633.55
218.618	621.05
218.835	413.65
219.052	333.09
219.269	323.91
219.487	189.64
219.704	184.5
219.921	215
220.138	296.09
220.355	277.19
220.572	254.07
220.79	255.28
221.007	334.36
221.224	458.94
221.441	508.33
221.658	536.75
221.875	-3168.57
222.092	-1190.91
222.309	3151.52
222.526	615.76
222.743	557
222.96	760.43
223.177	2213.95
223.394	1410.53
223.611	851.75
223.828	462.8
224.045	348.21
224.262	219.95
224.479	219.4
224.696	358.17
224.913	549.59
225.13	381.13
225.347	349.66
225.564	166.88
225.781	99.8
225.997	74.62
226.214	76.28
226.431	66.23
226.648	65.98
226.865	37.16
227.082	38.14
227.298	47.28
227.515	42.65
227.732	36.07
227.949	36.07
228.165	29.81
228.382	27.22
228.599	28.15
228.816	32.82
229.032	35.91
229.249	45.49
229.466	43.54
229.682	37.06
229.899	44.68
230.116	53.48
230.332	61.53
230.549	68.05
230.765	69.3
230.982	64.5
231.199	67.31
231.415	63.28
231.632	70.45
231.848	69.46
232.065	70.45
232.281	60.22
232.498	68.65
232.714	63.01
232.931	56.42
233.147	57.18
233.364	69.18
233.58	64.86
233.797	67.44
234.013	74.82
234.23	98.98
234.446	107.46
234.662	138.65
234.879	176.2
235.095	163.77
235.312	153.14
235.528	164.16
235.744	178.38
235.961	235.35
236.177	203.83
236.393	247.16
236.61	175.52
236.826	158.58
237.042	119.89
237.258	124.12
237.475	113.07
237.691	161.54
237.907	91.85
238.123	82.62
238.339	72.21
238.556	71.4
238.772	62.6
238.988	65.53
239.204	53.08
239.42	44.92
239.636	42.39
239.853	43.54
240.069	39.62
240.285	41.26
240.501	37.7
240.717	34.99
240.933	37.08
241.149	35.08
241.365	33.37
241.581	33.69
241.797	39.13
242.013	37.46
242.229	35.39
242.445	30.33
242.661	34.36
242.877	35.81
243.093	42.48
243.309	41.58
243.525	43.18
243.741	42.45
243.957	38.41
244.173	33.12
244.388	35.52
244.604	33.22
244.82	33.59
245.036	28.8
245.252	27.16
245.468	23.68
245.683	21.05
245.899	21.11
246.115	20.4
246.331	19.32
246.547	19.36
246.762	16.71
246.978	16.19
247.194	15.47
247.409	16.24
247.625	12.44
247.841	11.76
248.057	14.63
248.272	12.54
248.488	13.52
248.703	14.12
248.919	16.71
249.135	17.34
249.35	16.97
249.566	22.73
249.782	26.59
249.997	30.63
250.213	34.2
250.428	33.43
250.644	32.69
250.859	28.93
251.075	28.03
251.29	24.32
251.506	24.4
251.721	26.58
251.937	23.01
252.152	21.14
252.368	22.07
252.583	25.09
252.798	22.2
253.014	19.41
253.229	20.63
253.445	28.09
253.66	35.89
253.875	32.15
254.091	29.09
254.306	31.4
254.521	29.75
254.737	21.42
254.952	15.63
255.167	15.61
255.383	17.93
255.598	21.27
255.813	18.92
256.028	10.2
256.244	17.84
256.459	22.72
256.674	21.82
256.889	23.25
257.104	22.66
257.32	19.98
257.535	17.67
257.75	17.16
257.965	13.79
258.18	12.27
258.395	10.88
258.61	8.93
258.826	6.6
259.041	7.46
259.256	5.83
259.471	6.67
259.686	7.31
259.901	7.89
260.116	9.67
260.331	12.04
260.546	13.92
260.761	16.08
260.976	17.3
261.191	18.58
261.406	20.25
261.621	18.33
261.836	20.69
262.05	16.51
262.265	21.66
262.48	18.11
262.695	16.42
262.91	11.86
263.125	13.13
263.34	15.03
263.555	11.09
263.769	11.75
263.984	16.56
264.199	22.85
264.414	26.12
264.629	21.87
264.843	25.41
265.058	25.5
265.273	22.86
265.488	22.46
265.702	22.75
265.917	26.38
266.132	24.12
266.346	26.47
266.561	24.3
266.776	25.86
266.99	25.37
267.205	24.11
267.42	22.61
267.634	22.74
267.849	23.61
268.063	20.4
268.278	21.62
268.492	21.78
268.707	17.69
268.922	15.61
269.136	13.7
269.351	14.95
269.565	17.47
269.78	17.66
269.994	20.14
270.209	18.65
270.423	19.57
270.637	16.83
270.852	16.98
271.066	18.15
271.281	17.6
271.495	16.6
271.709	17.3
271.924	15.53
272.138	14.83
272.353	15.18
272.567	15.92
272.781	14.65
272.996	14.84
273.21	13.28
273.424	13.25
273.638	14.4
273.853	16.72
274.067	12.46
274.281	12.83
274.495	14.15
274.71	15.56
274.924	14.81
275.138	16.81
275.352	17.18
275.566	17.54
275.781	15.47
275.995	16.29
276.209	13.38
276.423	14.35
276.637	12.7
276.851	12.62
277.065	10.56
277.279	11.75
277.493	8.37
277.707	8.04
277.921	9.22
278.135	14.77
278.349	14.34
278.563	14.98
278.777	13.47
278.991	14.12
279.205	14.32
279.419	12.06
279.633	11.72
279.847	15.95
280.061	16.24
280.275	17.67
280.489	12.04
280.703	11.03
280.917	12.97
281.131	16.71
281.344	16.76
281.558	15.95
281.772	16.19
281.986	16.06
282.2	14.16
282.414	14.39
282.627	12.34
282.841	13.55
283.055	11.51
283.269	11.5
283.482	8.51
283.696	7.94
283.91	8.71
284.123	9.53
284.337	9.21
284.551	9.18
284.764	8.88
284.978	9.63
285.192	9.28
285.405	9.74
285.619	8.9
285.833	10.16
286.046	10.88
286.26	10.22
286.473	11.37
286.687	12.11
286.9	13.22
287.114	14.06
287.327	13.22
287.541	13.65
287.754	15.68
287.968	17.08
288.181	16.48
288.395	17.31
288.608	18.9
288.822	18.24
289.035	18.09
289.248	17.65
289.462	17.38
289.675	17.29
289.889	18.1
290.102	16.6
290.315	13.91
290.529	13.43
290.742	11.36
290.955	10.66
291.169	11.1
291.382	8.76
291.595	9.68
291.808	9.26
292.022	10.25
292.235	10.21
292.448	10.11
292.661	13.01
292.875	14.76
293.088	16.67
293.301	14.89
293.514	11.23
293.727	12.06
293.94	10.28
294.153	9.08
294.367	9.09
294.58	8.29
294.793	8.38
295.006	6.31
295.219	6.4
295.432	3.71
295.645	6.07
295.858	8.83
296.071	9.04
296.284	9.28
296.497	10.1
296.71	10.7
296.923	10.86
297.136	11.3
297.349	12.42
297.562	12.53
297.775	13.48
297.988	12.89
298.201	12.74
298.414	13.77
298.626	12.88
298.839	14.26
299.052	13.92
299.265	15.06
299.478	16.63
299.691	17.66
299.903	17.29
300.116	18.08
300.329	15.77
300.542	15.8
300.755	15
300.967	16.81
301.18	15.29
301.393	13.89
301.605	12.43
301.818	10.23
302.031	10.42
302.243	9.94
302.456	8.95
302.669	10.94
302.881	11.45
303.094	12.81
303.307	11.89
303.519	11.85
303.732	12.71
303.944	14.68
304.157	17.38
304.37	16.82
304.582	17.21
304.795	18.34
305.007	19.06
305.22	18.51
305.432	17.02
305.645	17.61
305.857	17.36
306.069	16.85
306.282	16.03
306.494	15.24
306.707	14.97
306.919	15.39
307.132	15.35
307.344	15.07
307.556	14.85
307.769	13.06
307.981	14.6
308.193	15.54
308.406	14.88
308.618	15.8
308.83	14.68
309.043	14.89
309.255	14.21
309.467	13.37
309.679	12.28
309.892	12.49
310.104	14.22
310.316	13.3
310.528	13.05
310.74	13.11
310.953	11.92
311.165	11.2
311.377	12.68
311.589	13.15
311.801	13.36
312.013	13.06
312.225	13.1
312.437	12.7
312.649	11.28
312.862	11.77
313.074	13.47
313.286	14.32
313.498	16.04
313.71	11.99
313.922	10.56
314.134	11.48
314.346	12.13
314.558	11.14
314.77	11.09
314.982	13.38
315.193	13.42
315.405	13.22
315.617	11.81
315.829	12.19
316.041	15.11
316.253	16.13
316.465	15.11
316.677	14.36
316.888	16.4
317.1	16.59
317.312	17.74
317.524	17.99
317.736	18.14
317.947	19.87
318.159	18.82
318.371	17.87
318.583	18.29
318.794	17.94
319.006	21.13
319.218	19.71
319.43	20.09
319.641	20.63
319.853	21.06
320.064	22.26
320.276	22.55
320.488	22.51
320.699	22.53
320.911	22.71
321.123	23.11
321.334	20.63
321.546	18.89
321.757	18.83
321.969	18.15
322.18	17.46
322.392	15.41
322.603	13.43
322.815	13.32
323.026	12.91
323.238	12.7
323.449	13.31
323.661	14.26
323.872	15.62
324.083	14.99
324.295	13.3
324.506	12.92
324.718	13.22
324.929	15.04
325.14	16.31
325.352	17.43
325.563	17.66
325.774	17.46
325.986	18.04
326.197	16.99
326.408	17.72
326.62	18.12
326.831	18.3
327.042	19.07
327.253	18.02
327.464	17.36
327.676	16.18
327.887	15.08
328.098	14.72
328.309	13.26
328.52	15.02
328.732	15.63
328.943	15.96
329.154	15.48
329.365	14.19
329.576	15.25
329.787	15.23
329.998	15.83
330.209	17.91
330.42	18.7
330.631	19.15
330.842	18.62
331.053	17.67
331.264	18.31
331.475	19.68
331.686	21.75
331.897	20.23
332.108	20.25
332.319	20.05
332.53	18.71
332.741	18.98
332.952	18.26
333.163	18.86
333.374	20.2
333.585	20.32
333.795	19.21
334.006	17.09
334.217	18.12
334.428	18.23
334.639	18.42
334.849	20.28
335.06	19.83
335.271	21.33
335.482	20.44
335.692	20.78
335.903	18.89
336.114	20.22
336.325	21.08
336.535	20.43
336.746	20.13
336.957	19.96
337.167	18.74
337.378	19.43
337.589	19.43
337.799	18.66
338.01	16.73
338.22	19.31
338.431	17.18
338.642	17.45
338.852	18.14
339.063	17.2
339.273	18.71
339.484	19.48
339.694	20.09
339.905	19.96
340.115	22.18
340.326	22.55
340.536	20.7
340.746	21.72
340.957	21.16
341.167	21.91
341.378	23.51
341.588	22.18
341.799	21.61
342.009	20.05
342.219	19.49
342.43	18.3
342.64	18.99
342.85	18.48
343.061	17.42
343.271	18.2
343.481	14.81
343.691	13.26
343.902	14.01
344.112	14.65
344.322	15.14
344.532	15.95
344.743	16.27
344.953	14.95
345.163	15.28
345.373	16.96
345.583	16.03
345.793	18.73
346.004	19.98
346.214	21.14
346.424	21
346.634	20.27
346.844	20.14
347.054	19.52
347.264	20.94
347.474	20.35
347.684	18.65
347.894	18.49
348.104	17.02
348.314	16.89
348.524	14.58
348.734	14.62
348.944	15.11
349.154	14.42
349.364	13.86
349.574	13.59
349.784	14.08
349.994	14.48
350.204	15.35
350.413	15.24
350.623	14.79
350.833	16.76
351.043	17.06
351.253	17.65
351.463	17.44
351.672	18.54
351.882	17.81
352.092	17.76
352.302	18.06
352.511	17.51
352.721	18.59
352.931	18.68
353.141	17.55
353.35	17.04
353.56	17.03
353.77	15.99
353.979	15.8
354.189	16
354.399	16.68
354.608	16.37
354.818	16.35
355.027	15.71
355.237	14.79
355.447	15.43
355.656	14.24
355.866	13.23
356.075	14.71
356.285	14.92
356.494	14.95
356.704	14.29
356.913	14.27
357.123	13.56
357.332	14.11
357.542	14.99
357.751	14.52
357.96	14.71
358.17	14.34
358.379	13.33
358.589	13.35
358.798	14.22
359.007	15.16
359.217	15.77
359.426	15.57
359.635	15.1
359.845	14.9
360.054	13.84
360.263	14
360.472	15.19
360.682	15.81
360.891	15.69
361.1	15.26
361.309	15.24
361.519	14.55
361.728	14.61
361.937	15.23
362.146	15.39
362.355	15.84
362.564	16.21
362.774	15.61
362.983	16.01
363.192	16.6
363.401	17.12
363.61	16.21
363.819	16.99
364.028	17.94
364.237	17.21
364.446	17.77
364.655	17.7
364.864	18.02
365.073	17.52
365.282	16.1
365.491	15.54
365.7	15.57
365.909	15.11
366.118	14.91
366.327	14.55
366.536	13.63
366.745	12.87
366.954	13.25
367.162	13.37
367.371	14.34
367.58	15.59
367.789	15.74
367.998	15.37
368.207	15.8
368.415	16.1
368.624	16.28
368.833	17.55
369.042	17.78
369.25	17.88
369.459	17.39
369.668	17.35
369.877	16.77
370.085	16.2
370.294	16.17
370.503	17.03
370.711	16.55
370.92	16.23
371.129	16.11
371.337	15.01
371.546	14.35
371.754	14.02
371.963	13.43
372.171	13.37
372.38	13.45
372.589	13.53
372.797	12.48
373.006	12.64
373.214	11.86
373.423	10.91
373.631	11.54
373.84	10.12
374.048	9.78
374.256	10.18
374.465	11.09
374.673	11.65
374.882	10.65
375.09	10.94
375.298	10.94
375.507	11.22
375.715	11.24
375.923	11
376.132	12.23
376.34	10.96
376.548	11.23
376.757	10.65
376.965	9.86
377.173	10.39
377.381	10.77
377.59	10.87
377.798	10.87
378.006	10.66
378.214	11.65
378.423	11.11
378.631	12.39
378.839	12.08
379.047	12.66
379.255	13.5
379.463	13.58
379.671	14.27
379.879	13.47
380.088	14.02
380.296	15.4
380.504	14.52
380.712	15.33
380.92	15.79
381.128	16.22
381.336	15.42
381.544	14.27
381.752	13.9
381.96	12.4
382.168	12.28
382.376	12.77
382.584	11.84
382.791	12.07
382.999	11.16
383.207	10.43
383.415	10.13
383.623	10.01
383.831	10.39
384.039	11.04
384.247	11.21
384.454	11.94
384.662	11.03
384.87	12.11
385.078	11.94
385.285	12.22
385.493	13.19
385.701	12.69
385.909	13.17
386.116	12.82
386.324	12.02
386.532	12.21
386.739	12.29
386.947	12.57
387.155	11.38
387.362	11.79
387.57	11.5
387.778	9.81
387.985	9.69
388.193	9.59
388.4	9.96
388.608	10.27
388.816	10.81
389.023	11.05
389.231	11.2
389.438	11.72
389.646	11.69
389.853	12.53
390.061	13.15
390.268	12.8
390.475	12.85
390.683	12.91
390.89	12.98
391.098	12.62
391.305	11.98
391.512	12.2
391.72	11.78
391.927	11.76
392.135	11.53
392.342	11.59
392.549	11.76
392.756	11.23
392.964	10.43
393.171	10.71
393.378	10.25
393.586	10.16
393.793	9.8
394	10.15
394.207	9.46
394.414	9.79
394.622	9.86
394.829	10.48
395.036	10.52
395.243	10.82
395.45	10.25
395.657	9.79
395.864	10.03
396.072	10.63
396.279	11.03
396.486	11.23
396.693	10.79
396.9	10.56
397.107	10.46
397.314	10.57
397.521	10.53
397.728	10.69
397.935	10.85
398.142	10.92
398.349	10.2
398.556	10.04
398.763	9.95
398.97	10.22
399.177	10.63
399.383	10.98
399.59	11.18
399.797	11.87
400.004	12.04
400.211	12.17
400.418	11.89
400.625	11.93
400.831	11.72
401.038	11.17
401.245	11.46
401.452	11.37
401.658	11.55
401.865	11.04
402.072	10.13
402.279	9.65
402.485	9.94
402.692	9.75
402.899	9.31
403.105	9.44
403.312	10.24
403.519	9.82
403.725	9.43
403.932	8.64
404.138	8.81
404.345	9.35
404.552	9.84
404.758	10.26
404.965	10.67
405.171	11.01
405.378	11.04
405.584	11.19
405.791	10.93
405.997	11.5
406.204	12.11
406.41	12.16
406.617	12.19
406.823	11.51
407.029	10.81
407.236	10.84
407.442	10.26
407.649	10.02
407.855	9.8
408.061	10.2
408.268	9.94
408.474	9.94
408.68	9.46
408.887	9.34
409.093	9.75
409.299	10.22
409.505	9.57
409.712	10.62
409.918	10.25
410.124	9.2
410.33	9.07
410.537	8.97
410.743	8.07
410.949	9.41
411.155	9.43
411.361	8.98
411.567	8.15
411.773	8.66
411.98	7.78
412.186	8.66
412.392	9.22
412.598	8.85
412.804	8.95
413.01	9.64
413.216	8.96
413.422	8.45
413.628	8.73
413.834	9.08
414.04	8.39
414.246	8.55
414.452	7.69
414.658	7.7
414.864	7.93
415.07	7.74
415.275	7.11
415.481	7
415.687	7.57
415.893	7.8
416.099	7.91
416.305	8.2
416.511	8.1
416.716	9
416.922	9.28
417.128	9.09
417.334	8.97
417.539	9.19
417.745	9.72
417.951	9.28
418.157	9.47
418.362	9.74
418.568	9.87
418.774	9.66
418.979	8.88
419.185	8.57
419.391	8.77
419.596	8.87
419.802	8.86
420.008	8.14
420.213	8.49
420.419	8.09
420.624	8
420.83	8
421.035	8.15
421.241	8.43
421.446	8.7
421.652	8.6
421.857	8.66
422.063	8.68
422.268	8.84
422.474	8.58
422.679	8.73
422.885	8.41
423.09	8.39
423.295	8.41
423.501	8.24
423.706	8.22
423.911	8.48
424.117	8.28
424.322	8.36
424.527	8.56
424.733	9.06
424.938	8.8
425.143	8.74
425.349	8.36
425.554	8.34
425.759	8.46
425.964	8.35
426.169	8.01
426.375	8.19
426.58	7.97
426.785	7.66
426.99	7.6
427.195	7.86
427.4	8.43
427.605	9.02
427.811	9.07
428.016	8.95
428.221	9.27
428.426	9.62
428.631	9.35
428.836	9.63
429.041	9.98
429.246	9.71
429.451	9.76
429.656	9.55
429.861	9.37
430.066	9.55
430.271	10.06
430.476	9.95
430.681	9.2
430.886	9.28
431.09	8.54
431.295	8.25
431.5	8.17
431.705	8.48
431.91	8.77
432.115	8.56
432.32	8.27
432.524	7.79
432.729	7.69
432.934	8.1
433.139	8.06
433.343	8.52
433.548	8.74
433.753	8.47
433.958	7.91
434.162	7.83
434.367	8.18
434.572	8.22
434.776	8.55
434.981	8.93
435.186	8.7
435.39	8.94
435.595	8.7
435.799	8.67
436.004	8.82
436.209	9.24
436.413	9.17
436.618	8.77
436.822	9
437.027	8.85
437.231	8.44
437.436	8.64
437.64	8.63
437.845	8.65
438.049	8.54
438.253	8.41
438.458	8.15
438.662	8.22
438.867	8.26
439.071	8.24
439.275	8.4
439.48	8.59
439.684	8.72
439.888	8.76
440.093	8.76
440.297	8.87
440.501	8.97
440.706	9.16
440.91	9.07
441.114	9.38
441.318	9.55
441.523	9.45
441.727	9.15
441.931	9.3
442.135	9.12
442.339	9.08
442.543	8.91
442.748	9.11
442.952	8.86
443.156	8.74
443.36	8.73
443.564	8.21
443.768	8.28
443.972	8.95
444.176	8.63
444.38	8.57
444.584	8.54
444.788	8.39
444.992	8.37
445.196	8.31
445.4	8.22
445.604	7.74
445.808	7.85
446.012	7.56
446.216	7.02
446.42	6.71
446.624	6.98
446.828	7.34
447.032	7.35
447.235	7.05
447.439	6.87
447.643	7.09
447.847	7.72
448.051	8.22
448.254	8.51
448.458	8.67
448.662	8.82
448.866	8.79
449.069	8.43
449.273	8.52
449.477	8.81
449.681	9.33
449.884	8.9
450.088	8.64
450.292	8.07
450.495	7.9
450.699	7.94
450.902	8.64
451.106	8.11
451.31	8.55
451.513	8.62
451.717	8.61
451.92	8.5
452.124	8.5
452.327	8.3
452.531	8.48
452.734	8.43
452.938	8.63
453.141	7.99
453.345	8.13
453.548	7.62
453.752	7.64
453.955	7.95
454.158	7.62
454.362	8.03
454.565	8.26
454.769	8.6
454.972	8.79
455.175	8.55
455.379	9.15
455.582	9.38
455.785	9.54
455.988	9.56
456.192	9.1
456.395	9.4
456.598	9.5
456.801	9.74
457.005	9.4
457.208	8.97
457.411	8.74
457.614	8.13
457.817	7.74
458.021	7.85
458.224	7.44
458.427	7.79
458.63	7.63
458.833	7.8
459.036	7.51
459.239	7.32
459.442	7.27
459.645	7.27
459.848	7.62
460.051	8.03
460.254	8.02
460.457	8.42
460.66	8.13
460.863	8.45
461.066	8.05
461.269	8.16
461.472	8.73
461.675	9.36
461.878	9.71
462.081	9.56
462.284	9.69
462.486	9.37
462.689	9.21
462.892	8.85
463.095	8.9
463.298	8.63
463.5	8.88
463.703	8.32
463.906	7.91
464.109	7.91
464.311	7.87
464.514	7.87
464.717	7.85
464.92	7.81
465.122	8.4
465.325	8.44
465.528	8.64
465.73	8.38
465.933	8.44
466.135	8.43
466.338	8.38
466.541	8.22
466.743	7.83
466.946	8.12
467.148	8.74
467.351	8.59
467.553	8.27
467.756	8.65
467.958	8.51
468.161	8.32
468.363	8.3
468.566	8.31
468.768	8.67
468.971	9.03
469.173	9.37
469.375	9.01
469.578	8.95
469.78	8.95
469.983	8.59
470.185	8.62
470.387	8.98
470.59	8.8
470.792	8.71
470.994	8.42
471.196	8.14
471.399	7.45
471.601	7.43
471.803	7.23
472.005	7.59
472.208	7.98
472.41	7.92
472.612	7.78
472.814	8.34
473.016	7.91
473.218	7.99
473.421	8
473.623	8.16
473.825	7.79
474.027	8.09
474.229	8.39
474.431	8.04
474.633	7.85
474.835	7.6
475.037	7.49
475.239	7.74
475.441	7.76
475.643	8.11
475.845	7.9
476.047	8.17
476.249	7.84
476.451	7.18
476.653	6.94
476.855	7.01
477.057	7.36
477.258	6.98
477.46	7.14
477.662	7.2
477.864	6.91
478.066	7.51
478.268	7.52
478.469	7.9
478.671	7.8
478.873	7.94
479.075	8.14
479.276	8.08
479.478	7.98
479.68	8.25
479.882	8.03
480.083	7.95
480.285	7.68
480.487	7.65
480.688	7.58
480.89	7.58
481.091	7.45
481.293	7.22
481.495	6.95
481.696	6.94
481.898	6.79
482.099	6.77
482.301	6.63
482.502	6.44
482.704	6.38
482.905	6.2
483.107	6.15
483.308	6.1
483.51	6.16
483.711	6.19
483.913	6.26
484.114	6.13
484.315	6.03
484.517	6.19
484.718	6.27
484.92	6.37
485.121	6.44
485.322	6.42
485.524	6.47
485.725	6.45
485.926	6.38
486.127	6.35
486.329	6.3
486.53	6.22
486.731	6.13
486.932	6.1
487.134	6.04
487.335	5.96
487.536	6.07
487.737	6.13
487.938	6.22
488.139	6.36
488.341	6.32
488.542	6.45
488.743	6.7
488.944	6.83
489.145	6.81
489.346	6.76
489.547	6.92
489.748	7.06
489.949	7.03
490.15	6.86
490.351	6.75
490.552	6.78
490.753	6.77
490.954	6.61
491.155	6.56
491.356	6.63
491.557	6.64
491.758	6.88
491.959	6.79
492.159	6.78
492.36	6.95
492.561	7.14
492.762	7.26
492.963	7.22
493.164	7.5
493.364	7.68
493.565	7.84
493.766	7.81
493.967	7.51
494.167	7.51
494.368	7.22
494.569	7.2
494.769	7.19
494.97	7.09
495.171	7.35
495.371	7.17
495.572	6.99
495.773	6.97
495.973	7.12
496.174	7.21
496.375	7.6
496.575	7.94
496.776	7.87
496.976	7.74
497.177	7.77
497.377	7.66
497.578	7.63
497.778	7.65
497.979	7.63
498.179	7.53
498.38	7.68
498.58	7.27
498.78	7.34
498.981	7.52
499.181	7.43
499.382	7.25
499.582	7.53
499.782	7.88
499.983	8.25
500.183	8.47
500.383	8.66
500.584	8.55
500.784	8.45
500.984	8.59
501.184	8.28
501.385	8.53
501.585	8.93
501.785	8.66
501.985	8.43
502.185	8.34
502.386	8.54
502.586	8.55
502.786	8.55
502.986	8.31
503.186	8.31
503.386	8.64
503.586	8.94
503.786	9.04
503.987	9.52
504.187	9.66
504.387	9.67
504.587	9.28
504.787	9.23
504.987	9.16
505.187	9.61
505.387	9.73
505.587	9.77
505.786	9.52
505.986	9.55
506.186	9.13
506.386	9.66
506.586	9.58
506.786	9.85
506.986	9.71
507.186	9.86
507.386	9.97
507.585	10.03
507.785	10.02
507.985	10.13
508.185	10.44
508.384	10.68
508.584	10.66
508.784	10.78
508.984	10.87
509.183	11.07
509.383	11
509.583	11.23
509.782	10.94
509.982	11.11
510.182	11.08
510.381	10.74
510.581	10.44
510.781	10.36
510.98	10.46
511.18	10.52
511.379	10.53
511.579	10.55
511.778	10.69
511.978	11.03
512.177	10.99
512.377	11.03
512.576	10.73
512.776	10.61
512.975	10.54
513.175	10.54
513.374	10.39
513.573	10.62
513.773	10.58
513.972	10.3
514.172	10.37
514.371	10.1
514.57	10.31
514.77	10.9
514.969	11.09
515.168	11.19
515.367	11.19
515.567	11.09
515.766	11.27
515.965	11.49
516.164	11.5
516.364	11.3
516.563	11.56
516.762	11.5
516.961	11.39
517.16	11.61
517.359	11.53
517.559	11.28
517.758	11.4
517.957	11.39
518.156	11.41
518.355	11.52
518.554	11.66
518.753	11.63
518.952	11.61
519.151	11.51
519.35	11.71
519.549	11.77
519.748	12.17
519.947	12.2
520.146	12.09
520.345	12.19
520.544	12.07
520.743	12.1
520.942	12.05
521.141	12.22
521.339	12.54
521.538	12.6
521.737	12.64
521.936	12.55
522.135	12.52
522.333	12.79
522.532	13.18
522.731	13.19
522.93	13.26
523.129	13.53
523.327	13.63
523.526	13.45
523.725	13.21
523.923	13.15
524.122	13.17
524.321	13.28
524.519	13.13
524.718	12.9
524.917	13.03
525.115	13.25
525.314	13.19
525.512	13.16
525.711	13.31
525.909	13.23
526.108	13.12
526.306	13.04
526.505	13.09
526.703	12.91
526.902	12.7
527.1	12.64
527.299	12.42
527.497	12.33
527.696	12.27
527.894	12.16
528.092	12.18
528.291	12.28
528.489	12.3
528.688	12.3
528.886	12.44
529.084	12.54
529.283	12.62
529.481	12.72
529.679	12.85
529.877	12.88
530.076	13.15
530.274	13.25
530.472	13.13
530.67	13.41
530.869	13.48
531.067	13.55
531.265	13.63
531.463	13.84
531.661	13.86
531.859	13.88
532.057	13.96
532.255	13.92
532.454	13.98
532.652	14.06
532.85	13.88
533.048	13.86
533.246	13.92
533.444	13.92
533.642	13.69
533.84	13.85
534.038	13.88
534.236	13.9
534.434	14.08
534.632	14.2
534.83	14.42
535.027	14.68
535.225	14.74
535.423	14.86
535.621	15.06
535.819	15.22
536.017	15.19
536.215	15.34
536.412	15.37
536.61	15.27
536.808	15.24
537.006	15.15
537.203	15.19
537.401	15.13
537.599	15.1
537.797	15.31
537.994	15.54
538.192	15.7
538.39	15.59
538.587	15.56
538.785	15.4
538.983	15.36
539.18	15.53
539.378	15.46
539.575	15.46
539.773	15.19
539.97	15.27
540.168	15.19
540.366	15.13
540.563	15.06
540.761	15.03
540.958	15.06
541.155	15.07
541.353	15.07
541.55	15.12
541.748	15.26
541.945	15.44
542.143	15.2
542.34	15.22
542.537	15.37
542.735	15.84
542.932	16.03
543.129	16.27
543.327	16.53
543.524	16.23
543.721	16.29
543.919	16.22
544.116	16.32
544.313	16.5
544.51	16.47
544.708	16.46
544.905	16.12
545.102	15.86
545.299	15.99
545.496	16.03
545.693	16.53
545.891	16.51
546.088	16.37
546.285	16.53
546.482	16.68
546.679	16.68
546.876	16.75
547.073	16.9
547.27	17.63
547.467	17.62
547.664	17.66
547.861	17.87
548.058	17.99
548.255	18.67
548.452	18.97
548.649	19.18
548.846	19.5
549.043	19.42
549.24	19.46
549.437	19.1
549.633	19.15
549.83	19.06
550.027	18.97
550.224	19.27
550.421	19.09
550.618	19.01
550.814	18.87
551.011	18.73
551.208	18.86
551.405	19.14
551.601	18.93
551.798	19.14
551.995	19.18
552.191	19.22
552.388	19.28
552.585	19.52
552.781	19.71
552.978	19.7
553.175	19.57
553.371	19.39
553.568	19.26
553.764	19.73
553.961	19.31
554.157	19.65
554.354	19.59
554.55	19.58
554.747	19.69
554.943	19.69
555.14	20
555.336	20.74
555.533	20.79
555.729	20.76
555.926	20.95
556.122	21.58
556.318	22.12
556.515	22.65
556.711	22.79
556.907	22.56
557.104	22.66
557.3	22.78
557.496	22.76
557.693	23.05
557.889	23.27
558.085	23.14
558.281	23.38
558.478	23.24
558.674	23.39
558.87	23.29
559.066	23.27
559.262	23.1
559.459	22.78
559.655	22.57
559.851	22.35
560.047	22.63
560.243	22.86
560.439	22.61
560.635	22.55
560.831	22.38
561.027	22.34
561.223	22.54
561.419	22.65
561.615	22.58
561.811	22.51
562.007	22.7
562.203	22.38
562.399	22.19
562.595	22.3
562.791	22.5
562.987	22.4
563.183	22.48
563.379	22.56
563.575	22.52
563.771	22.55
563.966	23.13
564.162	23.36
564.358	23.85
564.554	23.94
564.75	23.88
564.945	23.6
565.141	23.84
565.337	23.62
565.533	23.92
565.728	23.93
565.924	24.32
566.12	24.07
566.315	24.23
566.511	24.2
566.707	24.44
566.902	24.66
567.098	25.02
567.293	24.9
567.489	25.59
567.684	25.52
567.88	26.18
568.076	26.09
568.271	26.58
568.467	26.63
568.662	26.19
568.858	26.18
569.053	25.76
569.248	25.74
569.444	26.07
569.639	25.78
569.835	26.02
570.03	26.08
570.225	26.32
570.421	26.23
570.616	26.46
570.812	26.77
571.007	27.12
571.202	27.46
571.397	27.34
571.593	27.34
571.788	27.75
571.983	27.56
572.178	27.33
572.374	27.21
572.569	27.12
572.764	27.1
572.959	26.84
573.154	26.38
573.35	26.76
573.545	27.09
573.74	26.91
573.935	26.61
574.13	26.7
574.325	26.76
574.52	26.91
574.715	26.87
574.91	26.82
575.105	27.61
575.3	28.19
575.495	27.82
575.69	28.11
575.885	28.23
576.08	28.23
576.275	28.6
576.47	29.06
576.665	29.35
576.86	29.4
577.055	29.42
577.25	29.07
577.444	29.09
577.639	29.17
577.834	28.9
578.029	29.4
578.224	29.79
578.418	29.69
578.613	29.39
578.808	29.12
579.003	29.4
579.197	29.84
579.392	30.14
579.587	30.45
579.781	30.5
579.976	30.66
580.171	30.87
580.365	30.56
580.56	30.06
580.755	30.2
580.949	29.84
581.144	30.14
581.338	29.97
581.533	29.76
581.727	29.47
581.922	29.76
582.116	29.59
582.311	29.21
582.505	29.71
582.7	30.3
582.894	30.19
583.089	30.68
583.283	30.44
583.478	30.5
583.672	30.7
583.866	30.89
584.061	30.96
584.255	30.93
584.449	31.1
584.644	30.88
584.838	31.09
585.032	31.39
585.226	31.47
585.421	31.99
585.615	31.9
585.809	31.72
586.003	31.38
586.198	31.72
586.392	31.91
586.586	32.16
586.78	31.79
586.974	31.56
587.168	31.25
587.363	31.48
587.557	31.03
587.751	31.21
587.945	31.62
588.139	32.21
588.333	31.93
588.527	31.86
588.721	31.52
588.915	31.73
589.109	31.68
589.303	31.98
589.497	32.12
589.691	31.9
589.885	31.87
590.079	32.03
590.273	31.68
590.466	32.03
590.66	32.05
590.854	31.69
591.048	32.5
591.242	32.7
591.436	32.54
591.629	33.03
591.823	33.49
592.017	33.65
592.211	33.79
592.404	34.1
592.598	33.82
592.792	34.11
592.986	34.91
593.179	34.65
593.373	34.84
593.567	34.82
593.76	34.46
593.954	34.58
594.147	34.32
594.341	34.05
594.535	34.17
594.728	34.02
594.922	34.11
595.115	33.79
595.309	33.66
595.502	33.43
595.696	33.84
595.889	34.11
596.083	33.98
596.276	34.04
596.47	34.02
596.663	33.66
596.856	33.75
597.05	33.55
597.243	33.9
597.437	34.35
597.63	34.53
597.823	34.32
598.017	33.87
598.21	33.78
598.403	33.97
598.596	34
598.79	34.5
598.983	34.74
599.176	34.3
599.369	33.8
599.563	33.34
599.756	33.04
599.949	32.53
600.142	32.67
600.335	32.8
600.528	33.25
600.722	33.61
600.915	33.27
601.108	33.73
601.301	34.36
601.494	34.54
601.687	34.77
601.88	35.11
602.073	35.61
602.266	35.82
602.459	35.48
602.652	34.77
602.845	34.74
603.038	34.61
603.231	34.17
603.424	34.12
603.617	34.06
603.809	34.03
604.002	33.76
604.195	33.64
604.388	33.29
604.581	33.8
604.774	34.65
604.966	34.74
605.159	34.78
605.352	35.03
605.545	35.22
605.737	35.19
605.93	35.26
606.123	35.52
606.316	36.03
606.508	36.55
606.701	35.95
606.894	35.63
607.086	35.3
607.279	35.92
607.471	35.85
607.664	35.58
607.857	35.98
608.049	35.89
608.242	36.07
608.434	35.8
608.627	36.06
608.819	36.83
609.012	36.66
609.204	36.48
609.397	36.73
609.589	36.98
609.782	37.34
609.974	37.17
610.166	36.97
610.359	36.96
610.551	36.91
610.743	36.18
610.936	35.95
611.128	36.32
611.32	36.81
611.513	35.77
611.705	36.12
611.897	36.43
612.09	36.56
612.282	36.99
612.474	37.22
612.666	37.78
612.858	37.81
613.051	37.66
613.243	37.19
613.435	37.39
613.627	37.8
613.819	37.51
614.011	36.73
614.203	36.88
614.395	37.37
614.588	37.1
614.78	37.19
614.972	38.45
615.164	38.74
615.356	39.28
615.548	38.46
615.74	38.71
615.932	38.1
616.124	38.79
616.315	39.2
616.507	39.16
616.699	39.55
616.891	38.53
617.083	38.4
617.275	38.36
617.467	38.14
617.659	38.81
617.85	39.23
618.042	40.06
618.234	39.18
618.426	38.64
618.618	38.21
618.809	38.47
619.001	39.3
619.193	38.61
619.384	38.7
619.576	38.38
619.768	38.44
619.959	37.84
620.151	37.36
620.343	37.56
620.534	37.54
620.726	37.72
620.917	37.62
621.109	37.39
621.301	37.64
621.492	37.81
621.684	38.23
621.875	38.02
622.067	38
622.258	38.65
622.45	38.9
622.641	39.06
622.832	40.02
623.024	39.14
623.215	38.82
623.407	38.38
623.598	38.47
623.789	38.56
623.981	38.7
624.172	38.86
624.363	37.75
624.555	37.67
624.746	37.69
624.937	36.98
625.129	37.71
625.32	37.81
625.511	38.21
625.702	38.1
625.893	38.26
626.085	38.14
626.276	38.09
626.467	38.76
626.658	38.98
626.849	38.96
627.04	39.11
627.231	39.17
627.422	39.51
627.614	39.46
627.805	39.38
627.996	39.57
628.187	39.63
628.378	40.11
628.569	40.12
628.76	39.78
628.951	40.07
629.142	40.26
629.332	39.95
629.523	40.11
629.714	40.27
629.905	40.6
630.096	40.17
630.287	40.03
630.478	39.65
630.669	39.5
630.859	39.63
631.05	40
631.241	39.36
631.432	39.56
631.623	39.38
631.813	39.29
632.004	39.16
632.195	38.72
632.385	38.96
632.576	39.31
632.767	39.3
632.957	39.67
633.148	38.82
633.339	38.68
633.529	39.03
633.72	38.83
633.91	38.35
634.101	38.18
634.292	39.09
634.482	39.09
634.673	39.18
634.863	39
635.054	38.84
635.244	39.38
635.435	39.94
635.625	39.87
635.815	39.84
636.006	39.97
636.196	40.74
636.387	40.48
636.577	40.96
636.767	41.2
636.958	41.41
637.148	41.61
637.338	41.86
637.529	41.59
637.719	40.68
637.909	41.32
638.099	42.05
638.29	41.12
638.48	41
638.67	40.87
638.86	40.01
639.05	39.94
639.241	40.18
639.431	40.07
639.621	40.16
639.811	41.21
640.001	40.55
640.191	40.41
640.381	40.82
640.571	40.5
640.761	40.32
640.951	41.36
641.141	41.22
641.331	41.18
641.521	41.15
641.711	41.69
641.901	41.16
642.091	41.86
642.281	41.06
642.471	40.92
642.661	42.32
642.851	42.03
643.041	41.18
643.231	41.37
643.42	41.17
643.61	41.1
643.8	41.04
643.99	40.64
644.18	40.28
644.369	41.42
644.559	41.71
644.749	40.52
644.939	40.74
645.128	41.2
645.318	41.51
645.508	41.82
645.697	41.76
645.887	41.91
646.076	43.1
646.266	43.74
646.456	43.01
646.645	42.87
646.835	43.48
647.024	43.23
647.214	42.98
647.403	42.9
647.593	42.21
647.782	42.11
647.972	42.04
648.161	42.15
648.351	41.57
648.54	42.16
648.73	41.95
648.919	41.49
649.108	42.47
649.298	42.99
649.487	44.11
649.677	44.77
649.866	45.57
650.055	45.28
650.244	44.25
650.434	44.16
650.623	44.1
650.812	44.46
651.002	44.86
651.191	43.79
651.38	43.07
651.569	41.99
651.758	41.83
651.947	41.1
652.137	40.25
652.326	40.49
652.515	40.9
652.704	40.93
652.893	40.57
653.082	40.31
653.271	40.58
653.46	40.64
653.649	40.1
653.838	40.23
654.027	40.93
654.216	41.33
654.405	41.54
654.594	41.82
654.783	41.02
654.972	41.56
655.161	41.4
655.35	42.3
655.539	42.22
655.728	42.61
655.916	42.54
656.105	41.96
656.294	42.91
656.483	43.42
656.672	43.08
656.86	43.56
657.049	43.07
657.238	42.84
657.427	42.16
657.615	42.81
657.804	43.2
657.993	42.7
658.181	43.3
658.37	42.62
658.559	41.53
658.747	41.44
658.936	41.54
659.125	42.05
659.313	41.78
659.502	41.74
659.69	41.68
659.879	42.06
660.067	42.47
660.256	41.91
660.444	42.77
660.633	43.59
660.821	43.61
661.01	42.96
661.198	41.64
661.387	43.03
661.575	43.69
661.763	44.42
661.952	43.87
662.14	44.1
662.328	43.86
662.517	43.77
662.705	43.94
662.893	44.66
663.082	45.36
663.27	46.68
663.458	46.33
663.646	45.81
663.834	43.69
664.023	44.17
664.211	44.23
664.399	45.07
664.587	44.66
664.775	44.46
664.963	43.65
665.152	44.01
665.34	44
665.528	43.97
665.716	44.26
665.904	46.07
666.092	46.2
666.28	45.99
666.468	45.37
666.656	45.51
666.844	46.19
667.032	45.66
667.22	45.9
667.408	45.09
667.596	45.02
667.784	45.43
667.971	45.56
668.159	43.89
668.347	43.84
668.535	43.56
668.723	43.63
668.911	42.4
669.098	42.69
669.286	41.93
669.474	42.96
669.662	43.29
669.849	42.75
670.037	41.85
670.225	42.89
670.413	42.94
670.6	43.18
670.788	43.37
670.976	43.61
671.163	43.24
671.351	43.51
671.538	42.47
671.726	42.61
671.913	42
672.101	41.98
672.289	41.78
672.476	42.3
672.664	42.68
672.851	42.42
673.039	43.11
673.226	44.89
673.413	44.46
673.601	44.81
673.788	44.03
673.976	44.68
674.163	44.82
674.35	44.34
674.538	44.13
674.725	43.65
674.912	43.03
675.1	42.81
675.287	41.58
675.474	42.25
675.662	42.47
675.849	42.86
676.036	42.59
676.223	41.73
676.411	41.53
676.598	41.02
676.785	42.53
676.972	43.16
677.159	43.37
677.346	43.78
677.533	43.64
677.721	43.21
677.908	42.71
678.095	43.09
678.282	43.67
678.469	43.84
678.656	44.69
678.843	43.66
679.03	43.62
679.217	43.94
679.404	42.82
679.591	42.46
679.778	43.03
679.964	43.3
680.151	42.97
680.338	42.81
680.525	43.28
680.712	42.64
680.899	42.54
681.086	42.13
681.272	42.38
681.459	42.92
681.646	42.89
681.833	42.51
682.02	42.7
682.206	43.93
682.393	44.77
682.58	45.25
682.766	48.53
682.953	49.13
683.14	50.25
683.326	49.27
683.513	50.83
683.7	52.25
683.886	52.48
684.073	53.03
684.259	52.31
684.446	52.35
684.632	51.83
684.819	48.95
685.005	48.44
685.192	46.79
685.378	46.56
685.565	45.1
685.751	45.08
685.938	44.72
686.124	44.1
686.31	44
686.497	43.64
686.683	44.99
686.87	45.11
687.056	45.2
687.242	45.48
687.429	46.36
687.615	47.01
687.801	47.04
687.987	47.22
688.174	46.8
688.36	46.37
688.546	46.87
688.732	46.76
688.918	45.78
689.105	45.73
689.291	45.85
689.477	45.41
689.663	45.7
689.849	45.32
690.035	45.71
690.221	46.33
690.407	46.97
690.593	46.48
690.779	45.3
690.965	47.01
691.151	47.03
691.337	48.21
691.523	48.11
691.709	47.4
691.895	47
692.081	47
692.267	47.4
692.453	48.04
692.639	48.61
692.825	48.7
693.011	47.74
693.196	49.39
693.382	48.61
693.568	49.09
693.754	50.53
693.94	50.53
694.125	50.56
694.311	50.17
694.497	49.81
694.682	49.62
694.868	50.03
695.054	49.28
695.239	48.19
695.425	48.64
695.611	47.4
695.796	45.56
695.982	44.54
696.168	45.28
696.353	44.95
696.539	44.71
696.724	44.08
696.91	43.67
697.095	43.56
697.281	43.52
697.466	43.1
697.652	43.51
697.837	43.61
698.023	44.14
698.208	44.45
698.393	44.56
698.579	43.97
698.764	43.91
698.949	43.81
699.135	44.2
699.32	44.26
699.505	44.98
699.691	44.78
699.876	45.06
700.061	46.32
700.246	45.48
700.432	46.95
700.617	47.74
700.802	48.12
700.987	48.58
701.172	49.39
701.358	49.08
701.543	48.07
701.728	50.91
701.913	50.82
702.098	51.24
702.283	51.27
702.468	49.33
702.653	50.21
702.838	50.79
703.023	50.32
703.208	49.52
703.393	51.35
703.578	51.74
703.763	50.78
703.948	51.7
704.133	50.7
704.318	51.29
704.503	51.67
704.688	50.9
704.873	50.28
705.057	52.09
705.242	52.22
705.427	49.76
705.612	48.79
705.797	47.23
705.981	48.16
706.166	48.36
706.351	48.21
706.536	50
706.72	49.54
706.905	50.43
707.09	50.42
707.274	50.93
707.459	51.71
707.644	53.81
707.828	53.18
708.013	52.16
708.197	51.3
708.382	49.94
708.567	47.95
708.751	48.41
708.936	46.65
709.12	46.87
709.305	46.22
709.489	44.01
709.673	42.69
709.858	45.04
710.042	44.91
710.227	46.43
710.411	47.4
710.596	47.73
710.78	46.92
710.964	47.54
711.149	45.83
711.333	47.29
711.517	48.97
711.702	50.23
711.886	48.93
712.07	48.52
712.254	46.79
712.438	47.12
712.623	47.1
712.807	47.56
712.991	48.25
713.175	48.74
713.359	47.77
713.544	48.85
713.728	48.76
713.912	48.76
714.096	50.49
714.28	49.58
714.464	48.85
714.648	48.69
714.832	49.71
715.016	49.81
715.2	50.06
715.384	50.02
715.568	50.3
715.752	50.46
715.936	51.37
716.12	50.75
716.304	52.29
716.488	52.02
716.671	54.56
716.855	55.75
717.039	55.21
717.223	56.08
717.407	57.86
717.59	56.24
717.774	55.95
717.958	56.63
718.142	56.67
718.325	58.23
718.509	58.85
718.693	57.62
718.877	55.81
719.06	58.8
719.244	57.32
719.428	57.19
719.611	58.69
719.795	57.55
719.978	57.81
720.162	58.52
720.345	57.51
720.529	58.84
720.713	56.67
720.896	56.67
721.08	55.5
721.263	54.98
721.446	53.47
721.63	54.39
721.813	54.35
721.997	52.36
722.18	52.1
722.364	53.28
722.547	54.52
722.73	57.29
722.914	57.9
723.097	57.52
723.28	58.42
723.464	59.34
723.647	57.58
723.83	59.38
724.013	62.54
724.197	59.72
724.38	58.85
724.563	56.14
724.746	55.01
724.929	54.96
725.112	53.45
725.296	52.8
725.479	51.51
725.662	53.08
725.845	52.66
726.028	50.39
726.211	51.66
726.394	51.59
726.577	52.08
726.76	50.38
726.943	50.61
727.126	52.06
727.309	51.67
727.492	53.53
727.675	52.41
727.858	52.95
728.041	52.62
728.224	53.23
728.407	52.33
728.589	52.47
728.772	53.83
728.955	54.46
729.138	53.27
729.321	55.73
729.503	53.88
729.686	53.73
729.869	52.08
730.052	52.91
730.234	53.8
730.417	54.5
730.6	55.24
730.782	54.03
730.965	53.01
731.148	53.43
731.33	52.32
731.513	52.45
731.695	53.24
731.878	54.14
732.061	52.63
732.243	51.77
732.426	51.71
732.608	51.39
732.791	53.45
732.973	53.87
733.156	54.19
733.338	54.74
733.52	54.74
733.703	54.09
733.885	55.04
734.068	55.89
734.25	55.63
734.432	58.02
734.615	57.32
734.797	56.42
734.979	55.64
735.162	56.2
735.344	54.23
735.526	54.25
735.708	54.24
735.891	51.85
736.073	52.67
736.255	53.99
736.437	52.15
736.619	51.11
736.802	50.34
736.984	50.45
737.166	50.1
737.348	51.76
737.53	53.66
737.712	51.92
737.894	53.6
738.076	53.51
738.258	51.75
738.44	49.16
738.622	49.98
738.804	51.54
738.986	52.17
739.168	51.25
739.35	51.17
739.532	50.64
739.714	54.49
739.896	54.65
740.078	55.28
740.259	55.54
740.441	56.99
740.623	59.09
740.805	58.18
740.987	58.84
741.168	59.42
741.35	60.69
741.532	62.43
741.714	61.36
741.895	60.15
742.077	58.81
742.259	60.43
742.44	60.97
742.622	61.54
742.804	61.89
742.985	63.28
743.167	63.35
743.348	62.83
743.53	60.74
743.711	59.36
743.893	58.43
744.075	60.21
744.256	58.22
744.438	58.14
744.619	56.07
744.8	54.84
744.982	52.49
745.163	54.15
745.345	54.29
745.526	53.52
745.707	55.87
745.889	57.52
746.07	58.91
746.252	62.47
746.433	62.01
746.614	62.37
746.795	63.77
746.977	64.15
747.158	64.48
747.339	63.2
747.52	64.33
747.702	64.56
747.883	63.6
748.064	62.76
748.245	60.69
748.426	62.93
748.607	61.48
748.788	60.7
748.97	60.92
749.151	59.42
749.332	62.12
749.513	59.29
749.694	57.27
749.875	58.51
750.056	57.64
750.237	59.82
750.418	58.94
750.599	59.63
750.78	57.78
750.96	57.29
751.141	58.44
751.322	55.97
751.503	57.89
751.684	59.5
751.865	57.82
752.046	59.06
752.226	55.37
752.407	53.11
752.588	52.29
752.769	53.5
752.949	53.77
753.13	51.12
753.311	52.74
753.492	53.61
753.672	51.22
753.853	54.34
754.034	50.82
754.214	51.87
754.395	53.95
754.575	54.04
754.756	55.19
754.937	56.04
755.117	57.21
755.298	58.64
755.478	57.95
755.659	60.14
755.839	59.7
756.02	60.42
756.2	60.39
756.381	61
756.561	61.2
756.741	61.51
756.922	61.59
757.102	59.1
757.283	55.53
757.463	58.94
757.643	58.76
757.823	58.16
758.004	59.49
758.184	59.59
758.364	59.17
758.545	61.18
758.725	61.14
758.905	60.51
759.085	63.66
759.265	64.21
759.446	59.4
759.626	61.05
759.806	61.92
759.986	62.73
760.166	62.98
760.346	63.95
760.526	60.99
760.706	61.36
760.886	61.19
761.066	60.58
761.246	59.64
761.426	60.21
761.606	56.28
761.786	55.17
761.966	53.86
762.146	51.36
762.326	50.86
762.506	51.5
762.686	49.89
762.866	50.3
763.046	50.29
763.225	49.97
763.405	50.15
763.585	52.07
763.765	53.35
763.945	53.52
764.124	54.12
764.304	54.41
764.484	54.2
764.664	54.72
764.843	54.81
765.023	55.61
765.203	55.79
765.382	55.68
765.562	56.47
765.741	57.03
765.921	57.68
766.101	59.68
766.28	59.32
766.46	60.89
766.639	62.41
766.819	62.65
766.998	63.47
767.178	66.66
767.357	67.69
767.537	68.29
767.716	67.44
767.896	65.97
768.075	65.06
768.254	64.48
768.434	63.56
768.613	64.23
768.792	62.26
768.972	62.17
769.151	60.44
769.33	59.57
769.51	58.39
769.689	58.77
769.868	60.45
770.047	61.68
770.226	61.66
770.406	63.83
770.585	65.51
770.764	66.91
770.943	65.13
771.122	67.47
771.301	70.41
771.48	71.29
771.66	71.96
771.839	73.69
772.018	75.4
772.197	78.17
772.376	79.56
772.555	77.65
772.734	78.04
772.913	78.14
773.092	76.32
773.271	75.28
773.449	78.8
773.628	75.03
773.807	72.48
773.986	72.2
774.165	73.08
774.344	70.26
774.523	68.03
774.701	69.54
774.88	75.74
775.059	77.85
775.238	80.12
775.417	75.94
775.595	77.46
775.774	78.11
775.953	76.01
776.131	78.18
776.31	77.73
776.489	77.5
776.667	76.64
776.846	72.78
777.025	70.05
777.203	68.7
777.382	67.43
777.56	67.47
777.739	62.73
777.917	62.76
778.096	60.41
778.274	62.54
778.453	62.77
778.631	65.14
778.81	64.89
778.988	68.27
779.166	69.14
779.345	69.46
779.523	67.54
779.702	76.72
779.88	78.08
780.058	77.2
780.237	76.68
780.415	77.4
780.593	75.52
780.771	75.38
780.95	72.8
781.128	70.98
781.306	74.69
781.484	77.39
781.662	76.14
781.841	71.5
782.019	73.74
782.197	72.46
782.375	73.15
782.553	73.28
782.731	75.9
782.909	74.2
783.087	74.83
783.265	73.55
783.443	71.24
783.621	68.4
783.799	73.64
783.977	72.88
784.155	69.22
784.333	70.71
784.511	68.64
784.689	62.31
784.867	63.54
785.045	63.89
785.223	62.67
785.4	65.55
785.578	67.39
785.756	68.83
785.934	66.55
786.112	70.63
786.289	72.41
786.467	73.06
786.645	76.63
786.823	78.14
787	77.78
787.178	79.78
787.356	77.18
787.533	73.22
787.711	70.92
787.889	71.21
788.066	70.13
788.244	64.46
788.421	66.44
788.599	64.3
788.776	62.95
788.954	61.91
789.131	61.73
789.309	62.97
789.486	62.45
789.664	64.1
789.841	64.72
790.019	63.04
790.196	69.56
790.373	69.59
790.551	69.97
790.728	70.57
790.906	71.19
791.083	67.66
791.26	66.72
791.437	72.52
791.615	72.74
791.792	72.15
791.969	73.75
792.146	68.54
792.324	65.82
792.501	63.76
792.678	68.12
792.855	66.53
793.032	68.24
793.209	72.69
793.387	73.67
793.564	73.62
793.741	73.88
793.918	74.13
794.095	78.34
794.272	80.35
794.449	81.41
794.626	78.2
794.803	79.47
794.98	77.34
795.157	72.87
795.334	69.16
795.511	67.3
795.688	66.75
795.864	68.71
796.041	67.05
796.218	65.62
796.395	69.89
796.572	70.13
796.749	74.11
796.925	75.57
797.102	74.47
797.279	76.07
797.456	78.33
797.632	78.81
797.809	80.07
797.986	77.75
798.162	78.85
798.339	79.9
798.516	78.85
798.692	73.5
798.869	75.54
799.046	78.04
799.222	78.6
799.399	72.83
799.575	68.61
799.752	65.01
799.928	70.46
800.105	70.66
800.281	65.96
800.458	66.84
800.634	64.42
800.811	62.56
800.987	61.01
801.163	60.29
801.34	63.63
801.516	66.89
801.692	72.16
801.869	71
802.045	65.6
802.221	68.06
802.398	67.47
802.574	72.89
802.75	69.23
802.926	71.66
803.103	75.1
803.279	78.14
803.455	81.2
803.631	79.87
803.807	79.67
803.983	88.6
804.16	83.38
804.336	83.99
804.512	82.46
804.688	84.41
804.864	80.09
805.04	76.15
805.216	75.89
805.392	71.69
805.568	68.55
805.744	65.51
805.92	62.81
806.096	64.74
806.272	71.43
806.448	72.98
806.623	74.49
806.799	76.5
806.975	76.5
807.151	74.6
807.327	72.73
807.503	72.1
807.678	67.18
807.854	67.93
808.03	75.37
808.206	70.53
808.381	72.13
808.557	71.01
808.733	73.23
808.908	74.01
809.084	75.81
809.26	82.53
809.435	83.58
809.611	89.57
809.787	88.87
809.962	83.29
810.138	84.66
810.313	84.16
810.489	91.52
810.664	92.02
810.84	92.06
811.015	89.23
811.191	84.69
811.366	86.11
811.542	90.3
811.717	87.1
811.892	89.14
812.068	89.91
812.243	86.09
812.419	83.38
812.594	81.8
812.769	80.04
812.944	86.54
813.12	85.04
813.295	83.37
813.47	79.45
813.645	78.96
813.821	72.07
813.996	64.53
814.171	68.3
814.346	65.03
814.521	66.87
814.697	70.82
814.872	67.48
815.047	70.28
815.222	70.99
815.397	69.81
815.572	69.01
815.747	72.7
815.922	78.16
816.097	75.66
816.272	76.63
816.447	77.18
816.622	75.26
816.797	73.3
816.972	72.8
817.147	71.68
817.322	73.73
817.496	77.46
817.671	82.02
817.846	85.14
818.021	83.73
818.196	85.59
818.371	82.14
818.545	80.73
818.72	79.44
818.895	78.26
819.069	76.13
819.244	69.72
819.419	64.97
819.594	58.44
819.768	52.03
819.943	50.07
820.117	46.07
820.292	44.61
820.467	42.61
820.641	41.03
820.816	41.52
820.99	40.6
821.165	39.94
821.339	39.13
821.514	38.41
821.688	38.39
821.863	38.19
822.037	37.44
822.212	36.99
822.386	36.97
822.56	36.47
822.735	36.28
822.909	36.64
823.084	37.43
823.258	37.67
823.432	37.82
823.606	37.11
823.781	37.02
823.955	38.02
824.129	38.05
824.303	38.56
824.478	39.32
824.652	40.6
824.826	40.96
825	41.39
825.174	41.94
825.348	42.53
825.523	43.77
825.697	44.25
825.871	44.19
826.045	45.26
826.219	45.45
826.393	46.14
826.567	43.91
826.741	42.48
826.915	40.76
827.089	39.97
827.263	39.93
827.437	40.6
827.611	39.98
827.784	42.09
827.958	41.54
828.132	41.48
828.306	40.71
828.48	42.41
828.654	44.99
828.827	46.56
829.001	50.96
829.175	51.41
829.349	52.62
829.522	52.82
829.696	51.7
829.87	54.05
830.044	57.15
830.217	59.82
830.391	60.38
830.565	59.09
830.738	61.48
830.912	59.62
831.085	59.7
831.259	55.63
831.432	57.1
831.606	55.41
831.779	52.93
831.953	49.95
832.126	50.97
832.3	49.46
832.473	49.68
832.647	48.8
832.82	47.44
832.994	48.09
833.167	50.89
833.34	51.05
833.514	51.27
833.687	50.83
833.86	49.9
834.034	48.11
834.207	48.87
834.38	48.48
834.553	48.55
834.727	48.54
834.9	49.66
835.073	49.08
835.246	50.81
835.419	49.41
835.593	47.42
835.766	49.09
835.939	49.98
836.112	52.28
836.285	56.07
836.458	54.19
836.631	53.25
836.804	55.32
836.977	61.28
837.15	61.07
837.323	68.85
837.496	77.51
837.669	79.7
837.842	84.12
838.015	82.68
838.188	81.98
838.361	82.25
838.533	88.38
838.706	88.53
838.879	85.82
839.052	83.18
839.225	80.01
839.398	81.61
839.57	84.15
839.743	81.46
839.916	83.44
840.088	83.83
840.261	91.25
840.434	91.62
840.607	92.83
840.779	87.65
840.952	90.83
841.124	97.52
841.297	93.51
841.47	93.74
841.642	94.75
841.815	88.53
841.987	89.63
842.16	91.21
842.332	87
842.505	80.11
842.677	84.13
842.85	94.69
843.022	98.11
843.194	102.92
843.367	110.18
843.539	114.81
843.712	120.3
843.884	129.7
844.056	120.5
844.229	123.78
844.401	140.81
844.573	145.8
844.745	131.83
844.918	142.22
845.09	135.66
845.262	129.3
845.434	130.34
845.606	140.42
845.779	124.43
845.951	130.33
846.123	148.09
846.295	139.75
846.467	170.93
846.639	180.38
846.811	181.73
846.983	196.68
847.155	205.64
847.327	197.15
847.499	201.93
847.671	205.99
847.843	198.04
848.015	185.54
848.187	172.81
848.359	157.98
848.531	161.43
848.703	142.43
848.875	164.15
849.047	155.52
849.218	146.82
849.39	138.57
849.562	147.55
849.734	168.12
849.905	155.67
850.077	187.69
850.249	177.13
850.421	162.87
850.592	182.04
850.764	151.99
850.936	140.69
851.107	146.24
851.279	148.27
851.451	130.8
851.622	129.38
851.794	135.32
851.965	127.07
852.137	132.89
852.308	134.07
852.48	133.74
852.651	137.87
852.823	144.29
852.994	131.88
853.166	136.47
853.337	155.58
853.509	158.52
853.68	152.13
853.851	145.67
854.023	142.08
854.194	128.41
854.365	126.56
854.537	115.98
854.708	121.27
854.879	119.49
855.05	127.13
855.222	112.42
855.393	113.25
855.564	117.67
855.735	130.01
855.906	122.59
856.078	128.38
856.249	116.57
856.42	124.49
856.591	116.51
856.762	130.55
856.933	120.91
857.104	108.99
857.275	94.86
857.446	101.04
857.617	96.54
857.788	99.93
857.959	100.99
858.13	117.95
858.301	112.07
858.472	110.94
858.643	102.92
858.814	112.5
858.985	137
859.155	179.03
859.326	152.76
859.497	145.5
859.668	198.49
859.839	182.32
860.009	125.91
860.18	128.84
860.351	129.18
860.522	105.46
860.692	84.68
860.863	81.74
861.034	85.25
861.204	88.04
861.375	85.31
861.546	78.72
861.716	76.09
861.887	86.87
862.057	89.87
862.228	97.41
862.398	110.28
862.569	124.87
862.739	144.79
862.91	127.42
863.08	124.15
863.251	129.5
863.421	150.32
863.592	183.53
863.762	150.32
863.932	137.64
864.103	133.36
864.273	135.38
864.443	124.33
864.614	109.92
864.784	111.38
864.954	127.88
865.125	131.18
865.295	122.01
865.465	128.47
865.635	148.46
865.805	143.6
865.976	151.03
866.146	137.75
866.316	156.15
866.486	186.14
866.656	179.96
866.826	189.81
866.996	177.74
867.166	231.1
867.336	182.11
867.506	123.05
867.676	115.33
867.846	111.23
868.016	125.77
868.186	116.92
868.356	116.19
868.526	120.8
868.696	100.17
868.866	102.6
869.036	101.14
869.206	102.59
869.376	116.25
869.545	124.85
869.715	127.58
869.885	124.15
870.055	127.15
870.224	108.2
870.394	111.17
870.564	147.22
870.734	151.84
870.903	157.6
871.073	165.68
871.243	170.27
871.412	176.87
871.582	171.44
871.751	159.61
871.921	166.92
872.091	224.79
872.26	175.57
872.43	143.34
872.599	139.53
872.769	127.57
872.938	130.93
873.108	129.83
873.277	114.59
873.446	111.92
873.616	137.55
873.785	129.55
873.955	120.83
874.124	118.54
874.293	127.81
874.463	125.63
874.632	134.96
874.801	133.42
874.971	135.23
875.14	157.21
875.309	152.23
875.478	114.36
875.647	105.63
875.817	107.37
875.986	118.99
876.155	122.55
876.324	124.6
876.493	110.3
876.662	110.3
876.831	111.54
877	103.56
877.17	102.61
877.339	111.57
877.508	125.68
877.677	132.43
877.846	125.48
878.015	121.19
878.184	103.13
878.352	116.72
878.521	106.82
878.69	100.15
878.859	94.16
879.028	93.74
879.197	85.15
879.366	76.12
879.534	66.09
879.703	55.52
879.872	50.95
880.041	48.45
880.21	41.21
880.378	35.8
880.547	32.44
880.716	31.52
880.884	30.93
881.053	30.56
881.222	31.04
881.39	32.75
881.559	33.49
881.727	35.23
881.896	34.4
882.065	35.36
882.233	38.25
882.402	39.24
882.57	41.73
882.739	40.33
882.907	40.97
883.076	40.11
883.244	40.01
883.412	41
883.581	39.33
883.749	42.26
883.918	42.72
884.086	43.47
884.254	43.12
884.423	46.69
884.591	49.05
884.759	50.98
884.927	56.83
885.096	59.89
885.264	62.67
885.432	71.22
885.6	73.91
885.769	78.12
885.937	83.85
886.105	104.11
886.273	102.85
886.441	107.68
886.609	121.21
886.777	109.54
886.945	108.13
887.113	107.97
887.281	101.86
887.449	98.99
887.617	99.51
887.785	100.23
887.953	90.07
888.121	94.44
888.289	101.19
888.457	91.45
888.625	101.76
888.793	104.59
888.961	125.85
889.129	135.12
889.296	155.55
889.464	165.86
889.632	179.86
889.8	207.28
889.967	194.06
890.135	188.76
