Data from JASIL_3161_Reflection_1.txt Node
Date: Thu Nov 12 21:51:02 EST 2015
User: Geneva
Spectrometer: USB4E03002
Autoset integration time: false
Trigger mode: 4
Integration Time (sec): 1.000000E-1
Scans to average: 10
Electric dark correction enabled: true
Nonlinearity correction enabled: false
Boxcar width: 5
Stray light correction enabled: false
XAxis mode: Wavelengths
Stop averaging: false
Number of Pixels in Spectrum: 3648
>>>>>Begin Spectral Data<<<<<
177.575	45.61
177.794	70.71
178.014	54.08
178.233	161.44
178.452	65.66
178.672	45.33
178.891	71.94
179.11	36.07
179.33	19.25
179.549	25.76
179.768	-199.69
179.987	-75.24
180.207	-69.04
180.426	-415.69
180.645	294.67
180.864	363.52
181.084	243.29
181.303	769.14
181.522	210.42
181.741	85.73
181.96	179.04
182.179	134.68
182.398	386.6
182.618	167.75
182.837	49.49
183.056	-3.38
183.275	66.7
183.494	47.82
183.713	60.76
183.932	60.09
184.151	47.15
184.37	65.29
184.589	99.92
184.808	102.42
185.027	86.28
185.246	105.75
185.465	154.29
185.684	152.06
185.903	145.16
186.122	97.99
186.341	85.5
186.56	72.17
186.779	-179.19
186.998	-180.83
187.216	-37.66
187.435	-85.53
187.654	-444.13
187.873	-549.04
188.092	567.78
188.311	1071.35
188.53	4044.94
188.748	-6145.22
188.967	-272.87
189.186	-45.06
189.405	-45.6
189.623	-5.85
189.842	25.9
190.061	61.37
190.28	32.51
190.498	28.98
190.717	16.07
190.936	39.13
191.154	50.23
191.373	-138.2
191.592	13.28
191.81	-21.55
192.029	-339.06
192.248	-249.63
192.466	-245.93
192.685	-211.57
192.904	-145.61
193.122	-8.64
193.341	18.48
193.559	-32.74
193.778	97.25
193.996	92.34
194.215	52.39
194.433	60.62
194.652	128.08
194.87	102.5
195.089	177.52
195.307	164.7
195.526	152.03
195.744	-683.33
195.963	-39.53
196.181	42.96
196.399	78.12
196.618	71.05
196.836	101.25
197.055	135.29
197.273	153.87
197.491	159.03
197.71	119.19
197.928	120.5
198.146	168.36
198.365	205.79
198.583	-43.23
198.801	-106.32
199.019	269.19
199.238	170.49
199.456	300.78
199.674	177.88
199.892	199.73
200.111	78.57
200.329	125.92
200.547	85.01
200.765	108.62
200.983	36.46
201.202	11.13
201.42	-13.41
201.638	4.38
201.856	14.28
202.074	3.35
202.292	48.84
202.51	59.11
202.728	44.22
202.946	58.05
203.165	73.54
203.383	45.39
203.601	46.65
203.819	18.22
204.037	-7.11
204.255	2.44
204.473	7.15
204.691	-15.12
204.909	-6.46
205.127	-14.24
205.345	-20.09
205.562	-44.28
205.78	-6.09
205.998	12.52
206.216	8.28
206.434	6.9
206.652	-72.14
206.87	-88.03
207.088	-4779.69
207.306	-677.3
207.523	686.26
207.741	490.23
207.959	-1375.68
208.177	-292.35
208.395	-474.87
208.612	-227.18
208.83	-87.66
209.048	-38.02
209.266	-23.89
209.483	25.47
209.701	4.11
209.919	2.75
210.136	5.33
210.354	19.07
210.572	24.4
210.79	37.07
211.007	36.09
211.225	20.38
211.442	2.69
211.66	-3.76
211.878	-10.69
212.095	1.73
212.313	-9.93
212.53	-8.24
212.748	18.96
212.966	23.84
213.183	47.33
213.401	54.54
213.618	45.53
213.836	37.63
214.053	47.04
214.271	35.22
214.488	-3162.34
214.705	-655.29
214.923	-423.49
215.14	-148.65
215.358	-103.59
215.575	56.52
215.793	167.34
216.01	-133.07
216.227	-4800
216.445	169.41
216.662	28.86
216.879	6.04
217.097	14.67
217.314	32.42
217.531	31.53
217.749	25.79
217.966	30.38
218.183	24.48
218.4	21.19
218.618	57.71
218.835	46.58
219.052	68.83
219.269	78.2
219.487	97.17
219.704	122.93
219.921	136.53
220.138	176.85
220.355	158.52
220.572	74.21
220.79	66.88
221.007	39.41
221.224	52.76
221.441	10.87
221.658	17.02
221.875	22.32
222.092	-21.51
222.309	1.74
222.526	-8.76
222.743	-2.51
222.96	3.86
223.177	-40.97
223.394	-76.94
223.611	-52.75
223.828	-40.71
224.045	-31.98
224.262	-46.79
224.479	-24.52
224.696	0.52
224.913	-6.74
225.13	-30.81
225.347	-36.92
225.564	-14.29
225.781	6.03
225.997	11.49
226.214	15.36
226.431	4.16
226.648	4.98
226.865	-1.7
227.082	-12.84
227.298	-5.41
227.515	2.85
227.732	8.5
227.949	6.68
228.165	0.55
228.382	1.72
228.599	-0.34
228.816	-0.84
229.032	-3.77
229.249	7.97
229.466	7.62
229.682	6.08
229.899	3.61
230.116	-7.36
230.332	-17.25
230.549	-14.45
230.765	-10.39
230.982	-15.03
231.199	-5.83
231.415	-5.54
231.632	-10.35
231.848	-7.72
232.065	15.92
232.281	20.96
232.498	23.54
232.714	29.44
232.931	25.59
233.147	21.56
233.364	43.06
233.58	35.3
233.797	31.04
234.013	27.71
234.23	16.45
234.446	-10.31
234.662	-20.56
234.879	-8.49
235.095	-8.73
235.312	-12.61
235.528	1.41
235.744	-2.48
235.961	-5.77
236.177	-12.12
236.393	-14.05
236.61	-14.84
236.826	-9.33
237.042	1.79
237.258	-10.2
237.475	-21.28
237.691	-19.23
237.907	-19.79
238.123	-17.56
238.339	-9.19
238.556	-4.6
238.772	-2.79
238.988	20.88
239.204	35.73
239.42	31.56
239.636	41.61
239.853	48.11
240.069	45.3
240.285	41.73
240.501	33.85
240.717	39.43
240.933	37.12
241.149	38.85
241.365	31.95
241.581	23.93
241.797	22.69
242.013	18.9
242.229	20.86
242.445	22.7
242.661	21.15
242.877	23.31
243.093	20.35
243.309	26.17
243.525	25.3
243.741	28
243.957	26.37
244.173	22.35
244.388	21.04
244.604	17.29
244.82	15.1
245.036	15.15
245.252	16.01
245.468	15.24
245.683	12.29
245.899	12.56
246.115	10.7
246.331	13.02
246.547	13.64
246.762	15.16
246.978	15.34
247.194	12.89
247.409	11.96
247.625	10.19
247.841	11.41
248.057	11.75
248.272	10.31
248.488	13.27
248.703	15.74
248.919	17.38
249.135	15.35
249.35	11.67
249.566	12.95
249.782	10.55
249.997	14.38
250.213	9.91
250.428	10.9
250.644	4.98
250.859	1.41
251.075	-3.69
251.29	-4.72
251.506	-8.03
251.721	-7.19
251.937	-3.27
252.152	-0.63
252.368	-8.87
252.583	-8.53
252.798	-9.26
253.014	-6.96
253.229	-7.87
253.445	-9.28
253.66	-6.35
253.875	-2.07
254.091	-6.71
254.306	-4.33
254.521	-10.17
254.737	-1.33
254.952	-5.5
255.167	-10.65
255.383	-3.29
255.598	-4.38
255.813	-1.07
256.028	-10.57
256.244	-7.88
256.459	-5.18
256.674	-5.06
256.889	0.11
257.104	5.12
257.32	11.48
257.535	14.36
257.75	9.42
257.965	12.29
258.18	11.28
258.395	11.87
258.61	10.68
258.826	12.79
259.041	12.13
259.256	9.96
259.471	7.17
259.686	4.88
259.901	4.61
260.116	5.44
260.331	4.23
260.546	3.45
260.761	6.51
260.976	9.62
261.191	9.92
261.406	11.34
261.621	8.69
261.836	7
262.05	6.42
262.265	2.63
262.48	6.22
262.695	5.49
262.91	9.14
263.125	6.8
263.34	5.79
263.555	5.51
263.769	-2.43
263.984	2.27
264.199	6.65
264.414	9.85
264.629	15.97
264.843	15.7
265.058	17.38
265.273	13.33
265.488	12.08
265.702	11.11
265.917	7.63
266.132	6.62
266.346	10.46
266.561	8.78
266.776	5.56
266.99	1.84
267.205	2.44
267.42	1.55
267.634	1.88
267.849	4.37
268.063	-0.6
268.278	1.98
268.492	4.46
268.707	4.72
268.922	3.35
269.136	6.29
269.351	12.61
269.565	11.53
269.78	11.75
269.994	11.43
270.209	13.29
270.423	15.31
270.637	14.15
270.852	14.8
271.066	14.61
271.281	16.11
271.495	13.51
271.709	6.39
271.924	4.67
272.138	4.08
272.353	2.4
272.567	-0.71
272.781	-2.28
272.996	-1.02
273.21	-0.65
273.424	-2.26
273.638	-2.3
273.853	-2.08
274.067	0.96
274.281	4.12
274.495	5.26
274.71	10.85
274.924	8.21
275.138	10.2
275.352	5.41
275.566	3.63
275.781	0.94
275.995	1.98
276.209	-3.35
276.423	-4.66
276.637	-7.48
276.851	-9.65
277.065	-17.93
277.279	-14.33
277.493	-13.73
277.707	-12.34
277.921	-10.02
278.135	-9.66
278.349	-4.61
278.563	3.33
278.777	3.73
278.991	4.49
279.205	3.4
279.419	7.36
279.633	9.25
279.847	9.39
280.061	10.2
280.275	11.14
280.489	10.55
280.703	1.68
280.917	4.16
281.131	7.52
281.344	6.13
281.558	8.17
281.772	10.02
281.986	6.89
282.2	5.73
282.414	5.35
282.627	6.67
282.841	7.22
283.055	14.15
283.269	11.5
283.482	8.93
283.696	8.91
283.91	9.94
284.123	6.1
284.337	6.13
284.551	4.02
284.764	6.65
284.978	5.5
285.192	6.72
285.405	3.34
285.619	5.11
285.833	7.91
286.046	9.2
286.26	9.06
286.473	11.8
286.687	13.16
286.9	17.44
287.114	17.05
287.327	15.8
287.541	16.77
287.754	18.8
287.968	14.43
288.181	11.48
288.395	9.62
288.608	10.88
288.822	8.44
289.035	7.27
289.248	4.72
289.462	3.09
289.675	5.38
289.889	4.53
290.102	6.89
290.315	10.26
290.529	9.91
290.742	9.7
290.955	7.95
291.169	9.98
291.382	10.27
291.595	10.95
291.808	12.75
292.022	10.36
292.235	11.38
292.448	6.95
292.661	5.04
292.875	3.51
293.088	3.61
293.301	2.8
293.514	-1.48
293.727	-0.86
293.94	-3.29
294.153	-4.98
294.367	-4.5
294.58	-6.31
294.793	-6.18
295.006	-6.75
295.219	-4.04
295.432	-2.35
295.645	-1.31
295.858	0.73
296.071	-0.26
296.284	1.36
296.497	2.43
296.71	2.02
296.923	4.36
297.136	5.15
297.349	4.06
297.562	5.32
297.775	4.77
297.988	2.85
298.201	1.51
298.414	2.96
298.626	3.4
298.839	2.76
299.052	4.62
299.265	3.46
299.478	4.45
299.691	4.59
299.903	4.89
300.116	7.76
300.329	10.01
300.542	12.16
300.755	11.94
300.967	9.56
301.18	9.36
301.393	9.6
301.605	10.96
301.818	9.84
302.031	10.6
302.243	8.64
302.456	7.26
302.669	9.11
302.881	6.19
303.094	6.98
303.307	8.7
303.519	11.56
303.732	8.86
303.944	5.8
304.157	4.53
304.37	5.35
304.582	6.01
304.795	3.93
305.007	1.95
305.22	6.29
305.432	4.96
305.645	5
305.857	4.45
306.069	6.16
306.282	7.41
306.494	9.41
306.707	9.75
306.919	8.65
307.132	7.14
307.344	6.01
307.556	3.86
307.769	1.86
307.981	0.84
308.193	-1.89
308.406	-1.37
308.618	-0.85
308.83	-2.4
309.043	-0.67
309.255	-0.82
309.467	0.68
309.679	1.88
309.892	3.65
310.104	4.12
310.316	5.32
310.528	6.31
310.74	5.87
310.953	5.53
311.165	6.15
311.377	5.53
311.589	6.2
311.801	6.11
312.013	3.76
312.225	1.39
312.437	0.81
312.649	0.2
312.862	1.32
313.074	1.52
313.286	0.91
313.498	3.98
313.71	-2.89
313.922	-4.55
314.134	-7.71
314.346	-9.19
314.558	-10.14
314.77	-6.82
314.982	-5.78
315.193	-8.58
315.405	-8.4
315.617	-4.07
315.829	-9.67
316.041	-2.74
316.253	1.47
316.465	4.38
316.677	4.55
316.888	6.71
317.1	8.45
317.312	9.58
317.524	9.23
317.736	8.06
317.947	3.51
318.159	6.74
318.371	9.24
318.583	6.81
318.794	6.08
319.006	8.79
319.218	8.75
319.43	5.05
319.641	3.62
319.853	6.57
320.064	8.62
320.276	10.55
320.488	9.36
320.699	6.67
320.911	5.8
321.123	6.8
321.334	3.83
321.546	4.28
321.757	6.79
321.969	8.59
322.18	6.96
322.392	5.64
322.603	3.51
322.815	4.9
323.026	4.88
323.238	5.09
323.449	4.52
323.661	6.18
323.872	5.87
324.083	4.23
324.295	4.61
324.506	3.43
324.718	3.66
324.929	6.73
325.14	7.11
325.352	4.8
325.563	7.93
325.774	10.27
325.986	11.22
326.197	10.76
326.408	11.54
326.62	9.68
326.831	9.51
327.042	9.06
327.253	7.92
327.464	6
327.676	7.75
327.887	5.19
328.098	4.47
328.309	4.49
328.52	5.03
328.732	3.94
328.943	5.18
329.154	7.4
329.365	6.32
329.576	4.84
329.787	5.92
329.998	6.38
330.209	5.92
330.42	4.92
330.631	5.2
330.842	4.83
331.053	4.79
331.264	3.28
331.475	1.75
331.686	2.89
331.897	3.29
332.108	1.71
332.319	2.13
332.53	4.03
332.741	4.94
332.952	6.64
333.163	5.22
333.374	7.29
333.585	6.18
333.795	5.74
334.006	5.38
334.217	7.23
334.428	7.72
334.639	6.89
334.849	5.62
335.06	7.06
335.271	3.52
335.482	6.68
335.692	6.88
335.903	7.97
336.114	9.28
336.325	10.79
336.535	9.17
336.746	9.55
336.957	10.74
337.167	11.24
337.378	7.11
337.589	10.71
337.799	10.7
338.01	9.16
338.22	9.7
338.431	12.04
338.642	9.93
338.852	11.4
339.063	10.85
339.273	9.21
339.484	9.27
339.694	11.66
339.905	8.45
340.115	5.06
340.326	4.21
340.536	2.86
340.746	0.39
340.957	2.21
341.167	0.93
341.378	1.69
341.588	3.61
341.799	2.94
342.009	1.78
342.219	4.77
342.43	7.08
342.64	8.96
342.85	10.66
343.061	10.23
343.271	8.31
343.481	8.19
343.691	6.81
343.902	4.46
344.112	4.87
344.322	6.21
344.532	5.22
344.743	6.34
344.953	5.38
345.163	5.35
345.373	4.38
345.583	4.84
345.793	3.09
346.004	2.43
346.214	3.68
346.424	5.41
346.634	5.93
346.844	5.68
347.054	5.8
347.264	7.02
347.474	7.4
347.684	8.88
347.894	8.23
348.104	8.7
348.314	9.52
348.524	11.47
348.734	11.48
348.944	11.01
349.154	12.5
349.364	11.33
349.574	10.77
349.784	9.59
349.994	10.03
350.204	10.24
350.413	10.32
350.623	10.95
350.833	8.23
351.043	7.82
351.253	7.66
351.463	8.17
351.672	8.16
351.882	8.34
352.092	8.11
352.302	7.64
352.511	7.99
352.721	7.75
352.931	7.43
353.141	9.23
353.35	8.56
353.56	9.09
353.77	6.78
353.979	5.92
354.189	5.14
354.399	5.41
354.608	4.08
354.818	5.13
355.027	6.69
355.237	5.92
355.447	4.78
355.656	3.31
355.866	1.81
356.075	2.14
356.285	2.98
356.494	1.83
356.704	2.71
356.913	3.62
357.123	3.81
357.332	2.33
357.542	2.53
357.751	3.5
357.96	4.95
358.17	6.03
358.379	6.69
358.589	6.23
358.798	6.92
359.007	6.96
359.217	8.83
359.426	7.69
359.635	7.83
359.845	9.07
360.054	7.72
360.263	7.39
360.472	7.95
360.682	7.55
360.891	8.48
361.1	8.73
361.309	9.02
361.519	7.49
361.728	6.77
361.937	8.45
362.146	7.78
362.355	9.36
362.564	9.04
362.774	7.55
362.983	6.97
363.192	5.87
363.401	6.11
363.61	4.21
363.819	3.21
364.028	5.81
364.237	5.01
364.446	5.58
364.655	4.62
364.864	4.77
365.073	7.07
365.282	7.57
365.491	7.54
365.7	6.48
365.909	8.27
366.118	8.76
366.327	7.65
366.536	7.91
366.745	8.22
366.954	7.35
367.162	6.22
367.371	4.58
367.58	4.15
367.789	5.51
367.998	7.13
368.207	7.53
368.415	7.58
368.624	8.31
368.833	7.5
369.042	6.02
369.25	7.41
369.459	8.36
369.668	8.67
369.877	9.36
370.085	9.58
370.294	8.39
370.503	6.33
370.711	6.76
370.92	5.7
371.129	6.35
371.337	6.53
371.546	6.4
371.754	6.86
371.963	5.65
372.171	5.11
372.38	4.28
372.589	4.37
372.797	5.85
373.006	4.2
373.214	4.88
373.423	3.34
373.631	4.58
373.84	4.79
374.048	4.41
374.256	5.7
374.465	5.39
374.673	4.57
374.882	4.68
375.09	4.25
375.298	5.84
375.507	6.3
375.715	7.1
375.923	8.48
376.132	8.68
376.34	9.84
376.548	9.74
376.757	9
376.965	8.94
377.173	7.92
377.381	6.51
377.59	5.84
377.798	4.08
378.006	3.93
378.214	2.56
378.423	2.1
378.631	1.68
378.839	0.62
379.047	1.53
379.255	1.89
379.463	3.58
379.671	3.51
379.879	4.49
380.088	5.35
380.296	6.29
380.504	5.03
380.712	4.6
380.92	3.83
381.128	5.16
381.336	5.46
381.544	4.62
381.752	3.07
381.96	5.93
382.168	5.14
382.376	5.26
382.584	4.21
382.791	4.22
382.999	3.98
383.207	4.45
383.415	4.27
383.623	3.94
383.831	4.85
384.039	5.54
384.247	3.67
384.454	5.43
384.662	5.32
384.87	6.77
385.078	6.83
385.285	7.44
385.493	6.37
385.701	6.21
385.909	5.78
386.116	5.71
386.324	6.57
386.532	7.73
386.739	5.88
386.947	5.43
387.155	4.65
387.362	4.42
387.57	3.85
387.778	4.44
387.985	4.91
388.193	5.44
388.4	4.61
388.608	4.4
388.816	3.24
389.023	4.62
389.231	5.03
389.438	4.19
389.646	3.85
389.853	3.15
390.061	3.65
390.268	2.68
390.475	3.5
390.683	4.12
390.89	3.55
391.098	4.21
391.305	3.53
391.512	3.21
391.72	3.32
391.927	5.39
392.135	5.93
392.342	5.65
392.549	5.82
392.756	5.71
392.964	6.17
393.171	5.99
393.378	5.09
393.586	4.72
393.793	5.26
394	6.01
394.207	5.1
394.414	5.91
394.622	5.16
394.829	4.54
395.036	3.86
395.243	2.96
395.45	3.06
395.657	3.71
395.864	3.99
396.072	4
396.279	4.05
396.486	3.64
396.693	3.5
396.9	4.27
397.107	4.73
397.314	5.43
397.521	6.38
397.728	6.42
397.935	5.69
398.142	5.14
398.349	5.06
398.556	4.87
398.763	5.56
398.97	4.5
399.177	3.99
399.383	4.99
399.59	4.75
399.797	4.16
400.004	4.67
400.211	4.78
400.418	5.18
400.625	5.03
400.831	3.93
401.038	3.37
401.245	3.78
401.452	3.94
401.658	3.25
401.865	3.55
402.072	4
402.279	2.98
402.485	2.49
402.692	2.51
402.899	1.39
403.105	2.81
403.312	3.37
403.519	2.8
403.725	2.4
403.932	1.99
404.138	1.2
404.345	1.43
404.552	2.17
404.758	2.69
404.965	2.22
405.171	3.85
405.378	3.14
405.584	2.44
405.791	2.64
405.997	2.93
406.204	3.89
406.41	3.18
406.617	2.23
406.823	1.19
407.029	1.72
407.236	1.57
407.442	-0.06
407.649	-0.82
407.855	-0.73
408.061	-1.73
408.268	-0.38
408.474	-0.1
408.68	1.1
408.887	1.93
409.093	2.79
409.299	1.17
409.505	2.54
409.712	2.98
409.918	4.01
410.124	3.85
410.33	4.66
410.537	3.33
410.743	2.49
410.949	2.2
411.155	2.22
411.361	3.06
411.567	4.35
411.773	3.91
411.98	4.85
412.186	3.7
412.392	4.18
412.598	4.94
412.804	5.31
413.01	4.99
413.216	4.91
413.422	4.02
413.628	3.03
413.834	2.86
414.04	1.87
414.246	1.98
414.452	2.18
414.658	2.4
414.864	1.73
415.07	2.44
415.275	3.09
415.481	3.75
415.687	3.12
415.893	2.98
416.099	3.6
416.305	4.31
416.511	4.07
416.716	4.53
416.922	4.03
417.128	3.63
417.334	3.46
417.539	2.31
417.745	2.43
417.951	3.42
418.157	3.84
418.362	3.03
418.568	2.77
418.774	2.27
418.979	2.19
419.185	2.11
419.391	2.73
419.596	2.3
419.802	3.3
420.008	3.08
420.213	2.86
420.419	2.68
420.624	3.08
420.83	3.47
421.035	3.4
421.241	4.14
421.446	4.37
421.652	4.23
421.857	4.59
422.063	4.3
422.268	3.75
422.474	3.36
422.679	3.61
422.885	3.66
423.09	3.19
423.295	3.87
423.501	2.94
423.706	3.07
423.911	3.38
424.117	3.4
424.322	3.13
424.527	3.73
424.733	3.99
424.938	3.54
425.143	3.01
425.349	3.68
425.554	3.34
425.759	3.65
425.964	3.04
426.169	3.13
426.375	2.92
426.58	3.45
426.785	2.87
426.99	3
427.195	3.19
427.4	3.43
427.605	2.83
427.811	3.52
428.016	3.28
428.221	3
428.426	2.66
428.631	1.93
428.836	1.68
429.041	1.97
429.246	1.69
429.451	1.54
429.656	1.87
429.861	1.74
430.066	1.73
430.271	3.15
430.476	3.52
430.681	3.1
430.886	3.6
431.09	3.7
431.295	3.83
431.5	3.64
431.705	4.04
431.91	4.01
432.115	4.92
432.32	4.51
432.524	3.73
432.729	3.78
432.934	3.86
433.139	4.3
433.343	4.44
433.548	4.1
433.753	4.17
433.958	4.25
434.162	4.09
434.367	3.87
434.572	3.08
434.776	2.95
434.981	2.59
435.186	2.83
435.39	2.36
435.595	2.08
435.799	2.39
436.004	2.73
436.209	2.86
436.413	2.85
436.618	2.39
436.822	2.77
437.027	1.99
437.231	2.92
437.436	3
437.64	2.5
437.845	2.37
438.049	2.17
438.253	2.28
438.458	1.72
438.662	1.84
438.867	1.7
439.071	1.58
439.275	2.25
439.48	1.73
439.684	1.3
439.888	1.27
440.093	1.43
440.297	1.32
440.501	1.11
440.706	1.13
440.91	1.16
441.114	0.7
441.318	0.51
441.523	0.18
441.727	1.13
441.931	1.22
442.135	2.39
442.339	2.25
442.543	2.4
442.748	2.77
442.952	3.01
443.156	2.76
443.36	3.18
443.564	3.74
443.768	3.68
443.972	2.54
444.176	3.37
444.38	3.39
444.584	3.42
444.788	3.48
444.992	3.31
445.196	3.13
445.4	3.14
445.604	3.39
445.808	3.22
446.012	3.76
446.216	4.38
446.42	3.52
446.624	2.8
446.828	2.58
447.032	2.6
447.235	2.83
447.439	2.8
447.643	3.09
447.847	2.89
448.051	2.59
448.254	2.54
448.458	2.54
448.662	2.93
448.866	3.25
449.069	3.04
449.273	3.22
449.477	2.78
449.681	3.08
449.884	2.68
450.088	2.69
450.292	3.66
450.495	3.21
450.699	2.77
450.902	3.56
451.106	3.62
451.31	4.33
451.513	3.58
451.717	3.9
451.92	3.5
452.124	3.46
452.327	3.37
452.531	2.68
452.734	2.71
452.938	2.84
453.141	2.21
453.345	2.27
453.548	2.45
453.752	3.08
453.955	2.39
454.158	3.27
454.362	2.73
454.565	3.51
454.769	3.25
454.972	3.44
455.175	3.67
455.379	4.07
455.582	3.7
455.785	2.7
455.988	2.49
456.192	2.98
456.395	2.49
456.598	2.74
456.801	2.25
457.005	2.63
457.208	2.83
457.411	2.52
457.614	2.5
457.817	2.35
458.021	2.8
458.224	2.79
458.427	3.23
458.63	2.97
458.833	3.34
459.036	3
459.239	3.03
459.442	2.4
459.645	2.5
459.848	2.33
460.051	2.57
460.254	2.87
460.457	2.61
460.66	2.15
460.863	2.62
461.066	2.7
461.269	3.23
461.472	3.17
461.675	3.64
461.878	3.4
462.081	3.78
462.284	3.63
462.486	3.33
462.689	3.43
462.892	3.35
463.095	2.97
463.298	2.57
463.5	2.3
463.703	2.26
463.906	2.47
464.109	2.17
464.311	1.48
464.514	1.75
464.717	2.24
464.92	2.83
465.122	3.27
465.325	3.31
465.528	3.49
465.73	3.57
465.933	3.89
466.135	3.09
466.338	3.68
466.541	3.68
466.743	4.07
466.946	3.57
467.148	3.62
467.351	3.62
467.553	3.06
467.756	3.44
467.958	3.04
468.161	3.01
468.363	3.45
468.566	2.81
468.768	2.97
468.971	2.44
469.173	2.74
469.375	2.9
469.578	1.94
469.78	2.24
469.983	1.67
470.185	2.05
470.387	1.82
470.59	2.39
470.792	2.88
470.994	2.85
471.196	2.04
471.399	1.62
471.601	1.24
471.803	2.05
472.005	2.64
472.208	2.55
472.41	2.48
472.612	2.91
472.814	2.3
473.016	1.73
473.218	1.6
473.421	2.25
473.623	2.41
473.825	2.8
474.027	2.74
474.229	2.63
474.431	2.59
474.633	2.98
474.835	2.43
475.037	2.72
475.239	3.06
475.441	3.38
475.643	3.17
475.845	2.88
476.047	2.32
476.249	1.71
476.451	2.33
476.653	2.58
476.855	2.75
477.057	2.86
477.258	2.97
477.46	3.17
477.662	3.25
477.864	3.75
478.066	3.48
478.268	3.67
478.469	3.64
478.671	3.19
478.873	3.5
479.075	3.23
479.276	3.55
479.478	3.62
479.68	3.37
479.882	3.16
480.083	3.72
480.285	4.26
480.487	4.32
480.688	4.68
480.89	4.32
481.091	4.01
481.293	3.83
481.495	3.53
481.696	3.27
481.898	3.37
482.099	3.28
482.301	2.93
482.502	2.94
482.704	2.96
482.905	3.02
483.107	3.16
483.308	3.22
483.51	3.2
483.711	3.25
483.913	3.35
484.114	3.44
484.315	3.46
484.517	3.55
484.718	3.73
484.92	3.78
485.121	3.74
485.322	3.66
485.524	3.76
485.725	3.7
485.926	3.74
486.127	3.66
486.329	3.66
486.53	3.63
486.731	3.3
486.932	3.01
487.134	2.95
487.335	3.09
487.536	3.02
487.737	3.07
487.938	3.38
488.139	3.31
488.341	3.47
488.542	3.22
488.743	3.32
488.944	3.46
489.145	3.48
489.346	3.27
489.547	3.14
489.748	3.12
489.949	2.99
490.15	2.53
490.351	2.58
490.552	2.58
490.753	2.78
490.954	2.6
491.155	2.91
491.356	3.01
491.557	3.05
491.758	2.86
491.959	2.93
492.159	2.7
492.36	2.73
492.561	2.69
492.762	2.3
492.963	2.08
493.164	2.38
493.364	2.07
493.565	2.22
493.766	2.29
493.967	2.55
494.167	2.31
494.368	2.59
494.569	2.84
494.769	2.87
494.97	3.04
495.171	3.15
495.371	2.75
495.572	2.59
495.773	2.27
495.973	2.4
496.174	2.02
496.375	2.49
496.575	2.63
496.776	2.7
496.976	2.84
497.177	3
497.377	3.03
497.578	3.07
497.778	3.15
497.979	3.18
498.179	3.27
498.38	3.63
498.58	3.13
498.78	3.01
498.981	3.06
499.181	2.8
499.382	2.65
499.582	2.76
499.782	2.67
499.983	2.51
500.183	3.17
500.383	3.46
500.584	3.32
500.784	3.42
500.984	3.54
501.184	3.62
501.385	3.65
501.585	3.72
501.785	3.61
501.985	4.3
502.185	4.21
502.386	3.58
502.586	3.68
502.786	4.03
502.986	4.37
503.186	4.02
503.386	3.52
503.586	3.23
503.786	3.09
503.987	3.12
504.187	2.58
504.387	3.18
504.587	2.93
504.787	2.68
504.987	2.34
505.187	2.09
505.387	2.47
505.587	3
505.786	2.99
505.986	2.76
506.186	2.64
506.386	3.04
506.586	2.99
506.786	3.44
506.986	3.87
507.186	4.04
507.386	3.97
507.585	3.8
507.785	3.46
507.985	4.07
508.185	4.67
508.384	4.34
508.584	3.68
508.784	3.63
508.984	3.45
509.183	2.87
509.383	3.11
509.583	3.13
509.782	3.73
509.982	3.99
510.182	3.73
510.381	3.47
510.581	3.98
510.781	4.52
510.98	4.61
511.18	4.86
511.379	4.86
511.579	4.63
511.778	4.88
511.978	4.45
512.177	4.33
512.377	4.15
512.576	4.45
512.776	4.4
512.975	4.59
513.175	4.37
513.374	4.19
513.573	4.21
513.773	4.62
513.972	4.68
514.172	4.86
514.371	4.94
514.57	5.18
514.77	4.95
514.969	4.75
515.168	4.69
515.367	4.88
515.567	5.12
515.766	5.31
515.965	4.75
516.164	4.78
516.364	4.72
516.563	5.06
516.762	5.25
516.961	5.33
517.16	5.58
517.359	5.6
517.559	5.5
517.758	5.37
517.957	5.74
518.156	6.11
518.355	6.45
518.554	6.77
518.753	6.63
518.952	6.84
519.151	6.87
519.35	7.22
519.549	7.27
519.748	7.35
519.947	7.37
520.146	6.94
520.345	6.9
520.544	6.67
520.743	6.46
520.942	7.03
521.141	6.8
521.339	7.24
521.538	6.8
521.737	6.94
521.936	7.18
522.135	7.19
522.333	7.42
522.532	7.29
522.731	7.33
522.93	7.39
523.129	6.89
523.327	6.98
523.526	6.71
523.725	7.03
523.923	7.18
524.122	6.98
524.321	7.63
524.519	8
524.718	8.37
524.917	8.26
525.115	8.2
525.314	8.02
525.512	8.17
525.711	8.26
525.909	8.31
526.108	8.22
526.306	8.24
526.505	8.09
526.703	7.87
526.902	7.63
527.1	7.55
527.299	7.65
527.497	7.69
527.696	7.52
527.894	7.52
528.092	7.49
528.291	7.48
528.489	7.48
528.688	7.49
528.886	7.63
529.084	7.77
529.283	8.03
529.481	8.1
529.679	8.14
529.877	8.37
530.076	8.35
530.274	8.51
530.472	8.57
530.67	8.61
530.869	8.49
531.067	8.19
531.265	8.18
531.463	8.11
531.661	7.99
531.859	7.78
532.057	8.1
532.255	8.18
532.454	8.04
532.652	8.1
532.85	8.3
533.048	8.51
533.246	8.64
533.444	8.62
533.642	8.55
533.84	8.65
534.038	9.13
534.236	8.96
534.434	9.02
534.632	9.23
534.83	9.24
535.027	9.5
535.225	9.45
535.423	9.39
535.621	9.91
535.819	9.96
536.017	10.02
536.215	9.92
536.412	9.93
536.61	9.91
536.808	9.92
537.006	9.9
537.203	9.76
537.401	9.43
537.599	9.77
537.797	9.38
537.994	9.53
538.192	9.34
538.39	9.82
538.587	9.85
538.785	9.69
538.983	9.81
539.18	9.79
539.378	9.88
539.575	10.02
539.773	9.69
539.97	9.72
540.168	9.73
540.366	9.64
540.563	9.43
540.761	9.44
540.958	9.53
541.155	9.41
541.353	9.51
541.55	9.44
541.748	9.53
541.945	9.86
542.143	9.93
542.34	9.77
542.537	10.13
542.735	10.08
542.932	10.01
543.129	10.02
543.327	9.97
543.524	9.93
543.721	10.03
543.919	9.98
544.116	9.47
544.313	9.23
544.51	9.26
544.708	9.07
544.905	9.06
545.102	9.04
545.299	9.17
545.496	9.39
545.693	9.55
545.891	9.46
546.088	9.54
546.285	9.93
546.482	9.92
546.679	10.22
546.876	10.53
547.073	10.8
547.27	10.72
547.467	10.93
547.664	11.16
547.861	11.06
548.058	11.58
548.255	11.55
548.452	11.37
548.649	11.84
548.846	11.94
549.043	11.55
549.24	11.7
549.437	12.34
549.633	12.29
549.83	12.12
550.027	12.01
550.224	11.39
550.421	11.66
550.618	11.93
550.814	11.74
551.011	11.77
551.208	11.78
551.405	11.73
551.601	11.38
551.798	11.43
551.995	11.22
552.191	11.57
552.388	11.63
552.585	11.3
552.781	11.4
552.978	11.58
553.175	11.66
553.371	11.44
553.568	12.03
553.764	11.82
553.961	11.7
554.157	11.56
554.354	11.43
554.55	11.99
554.747	12.48
554.943	12.19
555.14	11.58
555.336	11.84
555.533	12.08
555.729	11.66
555.926	11.87
556.122	11.92
556.318	12.51
556.515	13.17
556.711	12.47
556.907	12.37
557.104	12.68
557.3	13.46
557.496	13
557.693	13.14
557.889	12.54
558.085	12.79
558.281	12.79
558.478	12.4
558.674	12.01
558.87	12.35
559.066	12.92
559.262	12.92
559.459	12.77
559.655	13.1
559.851	13.07
560.047	13.1
560.243	13.38
560.439	13.3
560.635	13.73
560.831	13.55
561.027	13.45
561.223	12.71
561.419	13.01
561.615	12.7
561.811	12.16
562.007	12.47
562.203	13.26
562.399	12.53
562.595	12.46
562.791	12.09
562.987	12.52
563.183	12.86
563.379	12.9
563.575	12.56
563.771	12.74
563.966	13.31
564.162	13.44
564.358	13.46
564.554	13.8
564.75	13.7
564.945	14.05
565.141	13.95
565.337	13.78
565.533	13.54
565.728	13.76
565.924	14.21
566.12	14.01
566.315	13.21
566.511	13.06
566.707	13.33
566.902	13.67
567.098	13.8
567.293	13.78
567.489	13.74
567.684	14.23
567.88	13.51
568.076	12.91
568.271	13.29
568.467	13.83
568.662	13.49
568.858	12.89
569.053	12.66
569.248	12.22
569.444	12.41
569.639	12.69
569.835	12.58
570.03	13.07
570.225	13.39
570.421	13.13
570.616	13.26
570.812	13.4
571.007	13.77
571.202	13.73
571.397	14.08
571.593	13.39
571.788	13.4
571.983	13.19
572.178	13.11
572.374	12.94
572.569	12.38
572.764	12.58
572.959	12.88
573.154	12.89
573.35	13.47
573.545	13.71
573.74	14.13
573.935	13.88
574.13	14.05
574.325	14.27
574.52	14.27
574.715	14.59
574.91	14.08
575.105	13.51
575.3	13.45
575.495	13.3
575.69	12.72
575.885	12.97
576.08	12.92
576.275	13.06
576.47	13.28
576.665	13.58
576.86	13.79
577.055	13.7
577.25	14.11
577.444	13.86
577.639	14.13
577.834	14.21
578.029	14.4
578.224	14.45
578.418	14.43
578.613	13.67
578.808	13.66
579.003	13.6
579.197	14.72
579.392	15.2
579.587	16
579.781	15.62
579.976	16.26
580.171	16.26
580.365	16.37
580.56	16.92
580.755	17.26
580.949	17.52
581.144	17.93
581.338	17.35
581.533	17.02
581.727	15.9
581.922	16.17
582.116	15.98
582.311	15.3
582.505	15.67
582.7	15.29
582.894	14.91
583.089	14.56
583.283	12.76
583.478	12.19
583.672	11.96
583.866	12.59
584.061	12.26
584.255	12.08
584.449	12.86
584.644	12.38
584.838	12.81
585.032	12.95
585.226	12.86
585.421	14.65
585.615	14.77
585.809	14.54
586.003	14.74
586.198	14.28
586.392	14.65
586.586	14.46
586.78	14.59
586.974	13.76
587.168	14.86
587.363	14.76
587.557	14.84
587.751	15.04
587.945	15.64
588.139	16.35
588.333	16.6
588.527	16.04
588.721	15.73
588.915	15.84
589.109	16.51
589.303	16.29
589.497	16.9
589.691	16.63
589.885	17.2
590.079	16.71
590.273	15.66
590.466	15.96
590.66	16.04
590.854	16.1
591.048	15.37
591.242	15.22
591.436	14.84
591.629	14.19
591.823	13.87
592.017	13.51
592.211	13.82
592.404	14.27
592.598	14.11
592.792	14.23
592.986	14.53
593.179	15.6
593.373	15.85
593.567	16.1
593.76	16.21
593.954	16.4
594.147	16.17
594.341	16.47
594.535	16.81
594.728	16.42
594.922	15.68
595.115	15.33
595.309	14.97
595.502	14.68
595.696	14.42
595.889	14.44
596.083	14.6
596.276	14.83
596.47	14.84
596.663	14.81
596.856	15.67
597.05	16.05
597.243	15.61
597.437	15.23
597.63	14.7
597.823	14.82
598.017	15.36
598.21	15.76
598.403	15.28
598.596	15
598.79	14.75
598.983	14.23
599.176	14.95
599.369	15.96
599.563	16.36
599.756	17
599.949	16.7
600.142	16.11
600.335	15.99
600.528	16.3
600.722	15.88
600.915	15.81
601.108	16.05
601.301	16.22
601.494	16.06
601.687	15.43
601.88	15.76
602.073	15.31
602.266	15.11
602.459	14.91
602.652	15.34
602.845	15
603.038	15.1
603.231	14.67
603.424	13.67
603.617	13.88
603.809	14.59
604.002	14.03
604.195	14.49
604.388	14.47
604.581	14.96
604.774	14.89
604.966	15.35
605.159	14.85
605.352	15.53
605.545	15.87
605.737	15.66
605.93	15.15
606.123	15.51
606.316	15.23
606.508	15.74
606.701	15.03
606.894	14.93
607.086	15.15
607.279	15.64
607.471	16.11
607.664	16.57
607.857	15.76
608.049	16.08
608.242	15.82
608.434	16.69
608.627	16.75
608.819	16.63
609.012	16.3
609.204	16.33
609.397	16.01
609.589	15.44
609.782	15.72
609.974	16.03
610.166	16.33
610.359	16.5
610.551	16.58
610.743	16.64
610.936	17.24
611.128	17.59
611.32	17.66
611.513	17.66
611.705	17.32
611.897	17.6
612.09	18.61
612.282	18.64
612.474	19.36
612.666	18.13
612.858	17.84
613.051	16.85
613.243	16.48
613.435	15.83
613.627	16.76
613.819	16.33
614.011	16.13
614.203	16.23
614.395	15.63
614.588	14.04
614.78	14.9
614.972	15.46
615.164	16.22
615.356	16.92
615.548	16.84
615.74	16.43
615.932	16.59
616.124	15.88
616.315	15.74
616.507	15.62
616.699	16.14
616.891	16.12
617.083	15.2
617.275	15.42
617.467	14.39
617.659	15.27
617.85	14.23
618.042	14.68
618.234	15.5
618.426	15.36
618.618	16.02
618.809	16.8
619.001	16.32
619.193	16.08
619.384	16.04
619.576	16.48
619.768	16.4
619.959	17.01
620.151	16.95
620.343	16
620.534	15.32
620.726	14.93
620.917	15.06
621.109	15.53
621.301	16.48
621.492	15.65
621.684	15.58
621.875	15.44
622.067	15.63
622.258	15.06
622.45	15.38
622.641	15.46
622.832	15.86
623.024	14.75
623.215	14.61
623.407	13.68
623.598	14.02
623.789	14.04
623.981	13.97
624.172	14.2
624.363	14.17
624.555	14.14
624.746	14.37
624.937	14.42
625.129	14.91
625.32	15.02
625.511	15.28
625.702	15.62
625.893	15.39
626.085	15.91
626.276	15.97
626.467	16.34
626.658	15.94
626.849	16.05
627.04	16.18
627.231	16.45
627.422	16.7
627.614	17.2
627.805	16.74
627.996	18
628.187	17.33
628.378	17.05
628.569	16.6
628.76	16.89
628.951	17.33
629.142	17.4
629.332	17.26
629.523	15.96
629.714	16.14
629.905	17.33
630.096	16.23
630.287	17.36
630.478	17.45
630.669	17.33
630.859	16.16
631.05	17.02
631.241	17.58
631.432	17.64
631.623	18.22
631.813	18.27
632.004	17.55
632.195	18.03
632.385	17.92
632.576	18.59
632.767	20.88
632.957	22.4
633.148	20.98
633.339	20.04
633.529	20.04
633.72	20.91
633.91	20.91
634.101	20.89
634.292	21.42
634.482	21.58
634.673	21.41
634.863	20.11
635.054	19.46
635.244	19.12
635.435	19.75
635.625	20.41
635.815	19.9
636.006	19.56
636.196	19.22
636.387	17.82
636.577	16.47
636.767	16.49
636.958	16.46
637.148	17.22
637.338	18.02
637.529	17.73
637.719	18.14
637.909	18.59
638.099	18.08
638.29	19.59
638.48	19.8
638.67	19.72
638.86	20.11
639.05	20.31
639.241	19.93
639.431	19.58
639.621	20.07
639.811	18.11
640.001	17.86
640.191	18.51
640.381	17.27
640.571	18.38
640.761	18.39
640.951	16.8
641.141	17.48
641.331	17.69
641.521	17.56
641.711	16.81
641.901	17.28
642.091	16.43
642.281	16.06
642.471	15.55
642.661	15.23
642.851	16.05
643.041	17.51
643.231	16.1
643.42	17.03
643.61	16.17
643.8	16.42
643.99	16.63
644.18	17.21
644.369	17.36
644.559	18.38
644.749	17.74
644.939	17.92
645.128	17.13
645.318	18.56
645.508	17.74
645.697	19.35
645.887	19.82
646.076	20.66
646.266	20.26
646.456	20.26
646.645	20.45
646.835	21.51
647.024	20.96
647.214	19.58
647.403	17.51
647.593	17.2
647.782	15.77
647.972	16.16
648.161	15.34
648.351	16.38
648.54	17.36
648.73	16.39
648.919	16.5
649.108	16.57
649.298	17.82
649.487	18.51
649.677	20.02
649.866	21.53
650.055	20.62
650.244	21.05
650.434	22.08
650.623	21.83
650.812	21.79
651.002	21.62
651.191	21.55
651.38	21.73
651.569	21.75
651.758	20.12
651.947	20.6
652.137	20.89
652.326	20.66
652.515	19.14
652.704	18.13
652.893	18.91
653.082	18.54
653.271	18.89
653.46	19.65
653.649	21.31
653.838	21.53
654.027	19.91
654.216	18.83
654.405	18.99
654.594	18.44
654.783	19.38
654.972	19.32
655.161	19.27
655.35	19
655.539	19.02
655.728	17.11
655.916	17.6
656.105	18.5
656.294	19.5
656.483	18.91
656.672	19.45
656.86	18.56
657.049	18.19
657.238	18.71
657.427	19.14
657.615	18.73
657.804	18.43
657.993	17.59
658.181	17.17
658.37	17.05
658.559	16.7
658.747	17.48
658.936	17.26
659.125	18.9
659.313	18.47
659.502	17.57
659.69	18.5
659.879	19.89
660.067	21.44
660.256	22.44
660.444	22.71
660.633	24.16
660.821	23.21
661.01	22.97
661.198	20.84
661.387	22.02
661.575	22.82
661.763	21.95
661.952	20.89
662.14	19.67
662.328	19.18
662.517	19.47
662.705	18.76
662.893	18.87
663.082	20.32
663.27	21.59
663.458	20.66
663.646	21.13
663.834	20.2
664.023	19.37
664.211	19.12
664.399	19.07
664.587	18.26
664.775	18.95
664.963	19.72
665.152	19.39
665.34	19.14
665.528	18.22
665.716	17.45
665.904	17.38
666.092	19.41
666.28	19.04
666.468	18.17
666.656	18.95
666.844	18.77
667.032	18.3
667.22	19.24
667.408	18.37
667.596	19.01
667.784	20.47
667.971	20.92
668.159	19.46
668.347	20.09
668.535	20.33
668.723	20.27
668.911	19.65
669.098	19.21
669.286	18.92
669.474	20.77
669.662	20.79
669.849	20.03
670.037	19.56
670.225	20.83
670.413	21.6
670.6	21.47
670.788	22.21
670.976	22.74
671.163	22.97
671.351	21.56
671.538	20.59
671.726	20.95
671.913	20.02
672.101	21.26
672.289	20.96
672.476	20.1
672.664	20.53
672.851	19.74
673.039	18.32
673.226	18.62
673.413	20.02
673.601	19.68
673.788	19.16
673.976	19.96
674.163	19.72
674.35	20.09
674.538	20.38
674.725	20.81
674.912	20.36
675.1	21.38
675.287	21.88
675.474	21.29
675.662	21.26
675.849	21.03
676.036	21.56
676.223	21.46
676.411	21.24
676.598	21.24
676.785	20.16
676.972	19.61
677.159	19.62
677.346	19.74
677.533	20.85
677.721	20.6
677.908	20.64
678.095	20.23
678.282	19.69
678.469	18.82
678.656	17.4
678.843	18.17
679.03	19.32
679.217	20.05
679.404	19.3
679.591	18.41
679.778	18.16
679.964	18.73
680.151	19.03
680.338	19.71
680.525	20.86
680.712	21.68
680.899	21.93
681.086	21.03
681.272	21.45
681.459	21.32
681.646	22.35
681.833	23.23
682.02	22.84
682.206	22.97
682.393	21.53
682.58	20.65
682.766	21.52
682.953	20.87
683.14	22.12
683.326	22.07
683.513	22.17
683.7	20.72
683.886	20.16
684.073	19.05
684.259	18.97
684.446	21.24
684.632	21.71
684.819	22.18
685.005	21.43
685.192	21.05
685.378	21.24
685.565	21.32
685.751	22.02
685.938	21.82
686.124	24.04
686.31	24.11
686.497	23.65
686.683	24.12
686.87	22.85
687.056	24.22
687.242	24.12
687.429	23.16
687.615	22.61
687.801	22.49
687.987	22.17
688.174	23.2
688.36	22.58
688.546	22.94
688.732	22.01
688.918	22.71
689.105	22.37
689.291	23.13
689.477	21.61
689.663	22.1
689.849	21.49
690.035	21.43
690.221	20.16
690.407	20.03
690.593	19.64
690.779	19.64
690.965	19.94
691.151	20.72
691.337	19.53
691.523	20.94
691.709	21.69
691.895	22.19
692.081	23.17
692.267	20.4
692.453	21.25
692.639	20.93
692.825	21.74
693.011	21.18
693.196	19.23
693.382	19.05
693.568	18.83
693.754	18.46
693.94	19.15
694.125	19.78
694.311	22.08
694.497	22.18
694.682	21.33
694.868	20.06
695.054	19.8
695.239	21.44
695.425	22.08
695.611	21.66
695.796	20.93
695.982	21.18
696.168	19.94
696.353	19.47
696.539	19.98
696.724	20.69
696.91	22.14
697.095	21.35
697.281	21.02
697.466	21.34
697.652	21.89
697.837	22.07
698.023	20.94
698.208	20.83
698.393	20.68
698.579	20.43
698.764	19.71
698.949	19.55
699.135	20.44
699.32	20.61
699.505	19.74
699.691	19.44
699.876	19.85
700.061	22.85
700.246	23.8
700.432	23.7
700.617	23.85
700.802	25.93
700.987	25.53
701.172	25.8
701.358	24.98
701.543	24.3
701.728	23.32
701.913	24.93
702.098	21.16
702.283	20.73
702.468	21.15
702.653	21.72
702.838	20.96
703.023	20.59
703.208	20.08
703.393	20.88
703.578	22.24
703.763	24.64
703.948	25.6
704.133	27.46
704.318	26.59
704.503	26.22
704.688	25.62
704.873	25.86
705.057	27.59
705.242	28.07
705.427	27.88
705.612	27.5
705.797	26.77
705.981	25.02
706.166	23.9
706.351	25.76
706.536	26.94
706.72	25.66
706.905	24.03
707.09	22.59
707.274	21.74
707.459	20.32
707.644	19.93
707.828	18.86
708.013	19.64
708.197	22.02
708.382	21.33
708.567	21
708.751	21.82
708.936	23.65
709.12	24.42
709.305	26.45
709.489	26.7
709.673	26.6
709.858	28.55
710.042	28.79
710.227	26.94
710.411	27.12
710.596	26.53
710.78	26.46
710.964	25.63
711.149	26.18
711.333	23.75
711.517	24.4
711.702	24.5
711.886	22.36
712.07	19.79
712.254	19.56
712.438	19.42
712.623	19.62
712.807	20.66
712.991	22.21
713.175	21.53
713.359	21.98
713.544	22.68
713.728	23.01
713.912	25.73
714.096	27.1
714.28	27.96
714.464	24.99
714.648	25.27
714.832	24.23
715.016	22.68
715.2	21.75
715.384	22.68
715.568	21.32
715.752	21.67
715.936	20.7
716.12	18.95
716.304	18.13
716.488	20.3
716.671	20.43
716.855	20.02
717.039	22.02
717.223	22.11
717.407	22.69
717.59	24.79
717.774	25.54
717.958	24.01
718.142	25.17
718.325	27.93
718.509	26.35
718.693	25.24
718.877	24.24
719.06	20.82
719.244	20.09
719.428	20.62
719.611	20.83
719.795	20.87
719.978	21.67
720.162	22.74
720.345	19.9
720.529	21.98
720.713	24.7
720.896	26.23
721.08	28.76
721.263	28.88
721.446	27.51
721.63	25.25
721.813	25.51
721.997	25.72
722.18	24.1
722.364	24.12
722.547	24.73
722.73	24.99
722.914	24.92
723.097	23.8
723.28	25.4
723.464	26.93
723.647	26.54
723.83	25.98
724.013	26.12
724.197	26.31
724.38	26.32
724.563	24.8
724.746	23.97
724.929	23.19
725.112	22.71
725.296	20.41
725.479	21.57
725.662	23.26
725.845	23.5
726.028	22.12
726.211	21.96
726.394	21.29
726.577	22.04
726.76	21.28
726.943	22.44
727.126	23.81
727.309	25.51
727.492	22.22
727.675	22.32
727.858	19.04
728.041	17.61
728.224	17.96
728.407	19.52
728.589	18.8
728.772	18.23
728.955	15.63
729.138	13
729.321	12.06
729.503	13.72
729.686	15.18
729.869	15.89
730.052	17.8
730.234	18.71
730.417	17.85
730.6	19.67
730.782	17.94
730.965	20.38
731.148	19.66
731.33	19.94
731.513	20.05
731.695	20.34
731.878	21.85
732.061	20.25
732.243	19.9
732.426	20.63
732.608	18.57
732.791	19.15
732.973	18.47
733.156	22.34
733.338	23.3
733.52	21.14
733.703	17.89
733.885	18.89
734.068	23.91
734.25	24.96
734.432	26.23
734.615	27.22
734.797	29.46
734.979	28.77
735.162	25.85
735.344	24.77
735.526	27.03
735.708	31.97
735.891	32.51
736.073	29.89
736.255	28.19
736.437	25.06
736.619	26.1
736.802	25.01
736.984	27.42
737.166	27.71
737.348	27.74
737.53	26.08
737.712	20.71
737.894	17.1
738.076	12.02
738.258	9.75
738.44	12.16
738.622	12.63
738.804	11.36
738.986	9.81
739.168	13.07
739.35	10.45
739.532	8.1
739.714	11.96
739.896	14.98
740.078	20.8
740.259	24.27
740.441	23.17
740.623	20.76
740.805	23.35
740.987	22.05
741.168	19.79
741.35	23.46
741.532	27.6
741.714	27.8
741.895	27.68
742.077	27.44
742.259	25.87
742.44	24.28
742.622	24.69
742.804	23.5
742.985	23.47
743.167	24.02
743.348	21.68
743.53	23.23
743.711	20.09
743.893	22.46
744.075	19.33
744.256	23.59
744.438	24.94
744.619	24.3
744.8	23.28
744.982	28.33
745.163	28.65
745.345	27.54
745.526	24.82
745.707	27.5
745.889	21.85
746.07	23.31
746.252	23.88
746.433	25.82
746.614	27.82
746.795	26.93
746.977	24.8
747.158	22.55
747.339	27.51
747.52	27.74
747.702	25.59
747.883	29.52
748.064	31.94
748.245	29.67
748.426	29.95
748.607	24.54
748.788	26.76
748.97	24.34
749.151	24.17
749.332	23.53
749.513	22.23
749.694	18.92
749.875	17.3
750.056	15.22
750.237	12.28
750.418	11.51
750.599	14.92
750.78	15.5
750.96	17.36
751.141	20.28
751.322	20.15
751.503	16.72
751.684	20.97
751.865	21.38
752.046	20.81
752.226	23.45
752.407	21.41
752.588	21.9
752.769	24.3
752.949	20.33
753.13	24.29
753.311	22.76
753.492	27
753.672	27.49
753.853	28.56
754.034	28.48
754.214	26.64
754.395	28.49
754.575	29.64
754.756	24.74
754.937	25.27
755.117	21.67
755.298	24.07
755.478	21.29
755.659	20.19
755.839	20.93
756.02	22.33
756.2	25.26
756.381	23.92
756.561	21.78
756.741	23.62
756.922	25.48
757.102	26.14
757.283	23.99
757.463	27.64
757.643	27.04
757.823	25.3
758.004	26.02
758.184	24.79
758.364	26.3
758.545	26.99
758.725	25.68
758.905	25.04
759.085	24.53
759.265	23.34
759.446	23.66
759.626	22.43
759.806	24.25
759.986	23.25
760.166	19.48
760.346	18.27
760.526	18.38
760.706	17.38
760.886	21.1
761.066	18.65
761.246	20.3
761.426	21.02
761.606	22.03
761.786	19.67
761.966	17.86
762.146	22.05
762.326	21.77
762.506	23.24
762.686	25.01
762.866	24.22
763.046	25.57
763.225	27.6
763.405	25.86
763.585	26.89
763.765	26.95
763.945	28.81
764.124	29.02
764.304	28.91
764.484	27.66
764.664	26.15
764.843	25.19
765.023	24.76
765.203	21.97
765.382	23.06
765.562	21.62
765.741	22.55
765.921	22.76
766.101	21.39
766.28	23.25
766.46	23.54
766.639	24.71
766.819	24.75
766.998	23.03
767.178	25.75
767.357	28.17
767.537	27.82
767.716	26.23
767.896	25.94
768.075	25.31
768.254	25.6
768.434	24.73
768.613	22.24
768.792	18.97
768.972	18.15
769.151	19.09
769.33	18.48
769.51	22.13
769.689	25.23
769.868	24.41
770.047	24.15
770.226	25.39
770.406	29.17
770.585	33.17
770.764	36.95
770.943	39.79
771.122	34.47
771.301	31.77
771.48	31.39
771.66	32.53
771.839	31.85
772.018	31.96
772.197	32.79
772.376	29.06
772.555	27.62
772.734	28.1
772.913	28.61
773.092	31.41
773.271	28.71
773.449	30.96
773.628	27.25
773.807	28.62
773.986	32.66
774.165	33.19
774.344	34.14
774.523	33.94
774.701	32.06
774.88	32.01
775.059	32.29
775.238	35.83
775.417	31.21
775.595	33.88
775.774	32.96
775.953	29.81
776.131	24.3
776.31	23.26
776.489	23.56
776.667	20.21
776.846	20.28
777.025	20.25
777.203	21.05
777.382	21.35
777.56	18.71
777.739	22.65
777.917	21.18
778.096	21.55
778.274	23.8
778.453	24.97
778.631	31.31
778.81	32.33
778.988	31.03
779.166	33.85
779.345	32.36
779.523	33.83
779.702	31.29
779.88	31.9
780.058	33.22
780.237	30.47
780.415	33.39
780.593	34.34
780.771	34.93
780.95	39.44
781.128	34.43
781.306	34.52
781.484	38.06
781.662	41.48
781.841	39.95
782.019	42.97
782.197	44.56
782.375	43
782.553	37.41
782.731	41.16
782.909	35.92
783.087	34.96
783.265	37.19
783.443	34.2
783.621	31.73
783.799	34.49
783.977	31.99
784.155	35.58
784.333	33.21
784.511	39.15
784.689	36.34
784.867	38.52
785.045	41.2
785.223	43.22
785.4	44.74
785.578	45.03
785.756	41.61
785.934	38.5
786.112	33.45
786.289	34.07
786.467	29.89
786.645	28.67
786.823	30.69
787	30.83
787.178	32.24
787.356	31.54
787.533	31.32
787.711	32.84
787.889	36.83
788.066	39.96
788.244	38.11
788.421	38.58
788.599	39.19
788.776	38.74
788.954	37.63
789.131	33.2
789.309	30.27
789.486	25.94
789.664	29.43
789.841	29.12
790.019	29.67
790.196	30.66
790.373	31.19
790.551	31.68
790.728	31.57
790.906	32.11
791.083	35.27
791.26	38.68
791.437	39
791.615	38.75
791.792	38.7
791.969	31.97
792.146	37.06
792.324	38.1
792.501	35.75
792.678	37.93
792.855	36.32
793.032	37.86
793.209	39.2
793.387	43.03
793.564	43.95
793.741	41.82
793.918	43.71
794.095	42.96
794.272	41.45
794.449	39.2
794.626	39.21
794.803	40.65
794.98	36.45
795.157	33.06
795.334	29.62
795.511	23.61
795.688	21.37
795.864	21.45
796.041	17.99
796.218	15.49
796.395	20.54
796.572	16.69
796.749	15.55
796.925	18.04
797.102	18.95
797.279	21.24
797.456	19.81
797.632	21.9
797.809	22.93
797.986	23.88
798.162	30.64
798.339	28.93
798.516	30.04
798.692	31.26
798.869	33
799.046	36.83
799.222	38.5
799.399	43.89
799.575	44.75
799.752	42.28
799.928	38.84
800.105	34.58
800.281	32.84
800.458	29.55
800.634	31.99
800.811	33.35
800.987	34.29
801.163	34.3
801.34	31.05
801.516	25.72
801.692	28.05
801.869	30.97
802.045	31.41
802.221	29.48
802.398	27.89
802.574	26.51
802.75	22.81
802.926	16.65
803.103	16.73
803.279	25.13
803.455	39.15
803.631	39.16
803.807	38.57
803.983	35.99
804.16	36.59
804.336	40.39
804.512	39.48
804.688	38.13
804.864	40.43
805.04	42.26
805.216	39.71
805.392	32.22
805.568	34.68
805.744	38.15
805.92	40.61
806.096	42.54
806.272	43.71
806.448	49.58
806.623	47.7
806.799	46.43
806.975	41.11
807.151	35.33
807.327	39.41
807.503	39.27
807.678	35.33
807.854	37.73
808.03	37.39
808.206	36.7
808.381	31.18
808.557	29.5
808.733	25.75
808.908	30.4
809.084	30.29
809.26	26.45
809.435	25.67
809.611	27.5
809.787	20.72
809.962	25.39
810.138	23.17
810.313	18.89
810.489	22.6
810.664	27.07
810.84	27.46
811.015	24.91
811.191	23.1
811.366	23.24
811.542	24.39
811.717	36
811.892	34.17
812.068	35.59
812.243	40.43
812.419	35.08
812.594	30.68
812.769	26.35
812.944	29.86
813.12	30.98
813.295	33.94
813.47	29.33
813.645	24.56
813.821	19.98
813.996	21.86
814.171	19.82
814.346	30.08
814.521	34.62
814.697	30.44
814.872	28.15
815.047	25.02
815.222	20.08
815.397	22.39
815.572	24.62
815.747	25.62
815.922	28.32
816.097	29.3
816.272	27.34
816.447	27.08
816.622	24.78
816.797	30.82
816.972	36.14
817.147	38.89
817.322	33.21
817.496	36.62
817.671	29.33
817.846	26.76
818.021	36.62
818.196	35.82
818.371	35.07
818.545	36.27
818.72	29.72
818.895	25.01
819.069	25.32
819.244	33.04
819.419	30.1
819.594	37.35
819.768	36.42
819.943	30.05
820.117	26.02
820.292	23.05
820.467	23.5
820.641	24.57
820.816	24.58
820.99	23.67
821.165	21.64
821.339	19.47
821.514	18.06
821.688	18.03
821.863	19.12
822.037	20.58
822.212	20.99
822.386	20.16
822.56	19.95
822.735	19.36
822.909	19.34
823.084	20.34
823.258	20.74
823.432	21.15
823.606	20.43
823.781	18.87
823.955	18.55
824.129	19.07
824.303	20.18
824.478	19.93
824.652	21.38
824.826	20.67
825	19.87
825.174	21.91
825.348	22.18
825.523	23.59
825.697	23.39
825.871	23.28
826.045	21.95
826.219	22.77
826.393	23.55
826.567	25.57
826.741	25.99
826.915	27.08
827.089	25.22
827.263	24.1
827.437	24.98
827.611	25.27
827.784	24.04
827.958	24.13
828.132	22.7
828.306	23.14
828.48	18.25
828.654	18.38
828.827	14.59
829.001	14.7
829.175	14.23
829.349	13.72
829.522	10.58
829.696	13.08
829.87	13.57
830.044	17.62
830.217	14.7
830.391	15.99
830.565	18.9
830.738	20.55
830.912	25.02
831.085	27.45
831.259	23.42
831.432	26
831.606	26.37
831.779	24.95
831.953	19.45
832.126	25.37
832.3	22.62
832.473	14.25
832.647	17.67
832.82	13.47
832.994	9.61
833.167	12.24
833.34	12.1
833.514	9.49
833.687	12.77
833.86	15.58
834.034	11.9
834.207	13.66
834.38	18.27
834.553	19.4
834.727	21.91
834.9	25.83
835.073	26.23
835.246	28.38
835.419	33.23
835.593	29.71
835.766	31.18
835.939	31.13
836.112	35.04
836.285	37.43
836.458	38.08
836.631	35.38
836.804	32.57
836.977	27.41
837.15	20.76
837.323	15.44
837.496	22.11
837.669	14.07
837.842	13.17
838.015	7.16
838.188	3.04
838.361	-4.72
838.533	-3.33
838.706	3.31
838.879	10.91
839.052	18.5
839.225	19
839.398	21.21
839.57	36.86
839.743	39.11
839.916	39.75
840.088	39.38
840.261	49.55
840.434	56.12
840.607	62.65
840.779	66.23
840.952	68.64
841.124	67.63
841.297	69.67
841.47	64.17
841.642	66.52
841.815	65.67
841.987	75.39
842.16	69.99
842.332	61.95
842.505	51.93
842.677	50.49
842.85	51.96
843.022	54.68
843.194	36.88
843.367	28.14
843.539	22.85
843.712	29.16
843.884	19.56
844.056	18.95
844.229	10.65
844.401	14.2
844.573	12.15
844.745	12.79
844.918	8.81
845.09	34.35
845.262	46.07
845.434	50.83
845.606	29.86
845.779	20.04
845.951	22.79
846.123	32.48
846.295	24.64
846.467	38.19
846.639	39.17
846.811	36.69
846.983	37.76
847.155	39
847.327	43.45
847.499	60.74
847.671	64.95
847.843	64
848.015	50.63
848.187	57.09
848.359	34.87
848.531	36.22
848.703	47.64
848.875	33.71
849.047	35.22
849.218	26.28
849.39	7.96
849.562	6.79
849.734	-2.03
849.905	20.35
850.077	23.97
850.249	37.73
850.421	19.81
850.592	10.35
850.764	-2.29
850.936	-17.67
851.107	-5.53
851.279	9.69
851.451	26.1
851.622	58.45
851.794	37.61
851.965	19.93
852.137	13.63
852.308	38.1
852.48	14.48
852.651	11.11
852.823	13.6
852.994	-13.44
853.166	-11.41
853.337	-9.51
853.509	-10.78
853.68	-30.26
853.851	-0.07
854.023	9.31
854.194	8.92
854.365	27.37
854.537	49.93
854.708	60.35
854.879	70.79
855.05	60.76
855.222	51.14
855.393	28.79
855.564	31
855.735	12.44
855.906	12.66
856.078	3.19
856.249	12
856.42	0.03
856.591	-12.67
856.762	1.43
856.933	7.24
857.104	11.68
857.275	40.02
857.446	50.08
857.617	54.96
857.788	57.76
857.959	61.9
858.13	53.5
858.301	51.53
858.472	54.36
858.643	37.76
858.814	18.22
858.985	21.92
859.155	7.05
859.326	6.57
859.497	0.33
859.668	-19.06
859.839	-19.87
860.009	-24.34
860.18	-4.71
860.351	1.26
860.522	20
860.692	23.37
860.863	3.44
861.034	32.67
861.204	19.93
861.375	34.48
861.546	64.27
861.716	38.76
861.887	23.33
862.057	2.17
862.228	27.38
862.398	33.06
862.569	36.15
862.739	32.8
862.91	21.53
863.08	29.41
863.251	42.26
863.421	34.76
863.592	41.36
863.762	47.04
863.932	49.04
864.103	38.52
864.273	19.31
864.443	16.63
864.614	41.75
864.784	32.13
864.954	41.24
865.125	6.88
865.295	-3.43
865.465	4.05
865.635	5.52
865.805	11.4
865.976	14.01
866.146	25.8
866.316	33.92
866.486	30.71
866.656	35.74
866.826	18.19
866.996	49.68
867.166	42.26
867.336	55.73
867.506	34.15
867.676	0.06
867.846	-18.46
868.016	-15.78
868.186	-32.99
868.356	-45.9
868.526	-95.45
868.696	-48.45
868.866	-232.47
869.036	-35.33
869.206	-29.13
869.376	8.33
869.545	72.03
869.715	102.91
869.885	101.34
870.055	82.01
870.224	94.06
870.394	67.05
870.564	62.3
870.734	52.04
870.903	55.36
871.073	39.53
871.243	19.94
871.412	6.42
871.582	-9.34
871.751	7.13
871.921	9.56
872.091	14.6
872.26	25.05
872.43	13.06
872.599	38.24
872.769	38.87
872.938	25.04
873.108	47.25
873.277	40.63
873.446	31.47
873.616	25.38
873.785	30.06
873.955	29.93
874.124	38.09
874.293	45.9
874.463	30.1
874.632	28.01
874.801	53.64
874.971	43.73
875.14	51.64
875.309	60.79
875.478	60.69
875.647	60.34
875.817	63.09
875.986	63.76
876.155	82.65
876.324	85.69
876.493	89.2
876.662	80.51
876.831	69.79
877	73.59
877.17	80.55
877.339	65.79
877.508	56.99
877.677	40.66
877.846	32.83
878.015	12.79
878.184	5.31
878.352	5.9
878.521	-6.71
878.69	-1.09
878.859	5.22
879.028	10.27
879.197	21.73
879.366	27.3
879.534	27.56
879.703	33.42
879.872	34.05
880.041	32.42
880.21	20.49
880.378	27.99
880.547	26.25
880.716	19.5
880.884	14.51
881.053	13.1
881.222	11.84
881.39	12.83
881.559	14.23
881.727	15.89
881.896	16.92
882.065	18.93
882.233	17.17
882.402	15.91
882.57	16.52
882.739	20.11
882.907	19.59
883.076	17.13
883.244	19.4
883.412	18.4
883.581	17.44
883.749	20.84
883.918	17.99
884.086	16.6
884.254	21.67
884.423	24.96
884.591	23.04
884.759	23.49
884.927	28.41
885.096	25.02
885.264	18.8
885.432	25.85
885.6	16.16
885.769	23.01
885.937	37.39
886.105	32.21
886.273	23.59
886.441	23.72
886.609	17.32
886.777	22.11
886.945	23.13
887.113	39.43
887.281	1.6
887.449	6.07
887.617	21.39
887.785	-1.28
887.953	-4.78
888.121	-12.89
888.289	-31.62
888.457	18.71
888.625	-14.5
888.793	-8.84
888.961	-1.81
889.129	21.86
889.296	34.4
889.464	26.59
889.632	32.24
889.8	42.27
889.967	48.61
890.135	44.46
