Data from JASIL_3905_Reflection_2.txt Node
Date: Sat Nov 07 20:18:11 EST 2015
User: Geneva
Spectrometer: USB4E03002
Autoset integration time: false
Trigger mode: 4
Integration Time (sec): 1.000000E-1
Scans to average: 10
Electric dark correction enabled: true
Nonlinearity correction enabled: false
Boxcar width: 5
Stray light correction enabled: false
XAxis mode: Wavelengths
Stop averaging: false
Number of Pixels in Spectrum: 3648
>>>>>Begin Spectral Data<<<<<
177.575	98.88
177.794	81.68
178.014	45.45
178.233	72.65
178.452	13.53
178.672	-111.35
178.891	-1527.91
179.11	110.69
179.33	87.97
179.549	66.76
179.768	79.02
179.987	81.31
180.207	83.86
180.426	57.84
180.645	82.53
180.864	81.36
181.084	67.56
181.303	70.38
181.522	92.5
181.741	101.81
181.96	104.09
182.179	103.17
182.398	129.14
182.618	111.33
182.837	128.75
183.056	114.99
183.275	99.02
183.494	106.33
183.713	107.62
183.932	99.11
184.151	93.08
184.37	96.29
184.589	94.98
184.808	87.34
185.027	94.64
185.246	88.69
185.465	89.27
185.684	85.37
185.903	89.03
186.122	95.78
186.341	92.02
186.56	90.78
186.779	91.72
186.998	91.04
187.216	87.12
187.435	78.89
187.654	83.59
187.873	81.96
188.092	90.53
188.311	84.03
188.53	85.37
188.748	80.94
188.967	87.72
189.186	92.53
189.405	92.4
189.623	93.08
189.842	105.56
190.061	110.14
190.28	110.2
190.498	102.48
190.717	104.95
190.936	109.67
191.154	119.21
191.373	111.01
191.592	110.02
191.81	118.32
192.029	102.11
192.248	96.3
192.466	87.77
192.685	83.78
192.904	91.82
193.122	92.92
193.341	85.64
193.559	78.78
193.778	79.97
193.996	74.48
194.215	72.95
194.433	77.57
194.652	71.46
194.87	72.41
195.089	76.8
195.307	78.74
195.526	74.16
195.744	65.29
195.963	73.9
196.181	70.71
196.399	70.74
196.618	71.68
196.836	75.3
197.055	75.67
197.273	75.27
197.491	80.75
197.71	73.96
197.928	71.82
198.146	82.82
198.365	78.52
198.583	75.63
198.801	74.23
199.019	69.47
199.238	68.56
199.456	67.32
199.674	68.9
199.892	62.63
200.111	77.41
200.329	79.03
200.547	77.75
200.765	80.04
200.983	85.04
201.202	88.83
201.42	96.09
201.638	92.28
201.856	88.69
202.074	86.15
202.292	84.21
202.51	76.26
202.728	88.14
202.946	84.24
203.165	80.19
203.383	79.46
203.601	82.4
203.819	79.54
204.037	83.64
204.255	93.38
204.473	82.89
204.691	86.08
204.909	83.21
205.127	80.74
205.345	81.78
205.562	91.39
205.78	87.93
205.998	86.62
206.216	86.62
206.434	85.72
206.652	85.37
206.87	95.25
207.088	91.17
207.306	96.42
207.523	91.69
207.741	100.08
207.959	98.34
208.177	107.44
208.395	104.66
208.612	101.9
208.83	96.29
209.048	92.35
209.266	83.5
209.483	82.8
209.701	76.61
209.919	75.89
210.136	64.88
210.354	70.36
210.572	68.29
210.79	65.75
211.007	66.21
211.225	67.23
211.442	66.16
211.66	72.79
211.878	75.98
212.095	70.94
212.313	66.99
212.53	64.84
212.748	47.69
212.966	43.62
213.183	38.7
213.401	43.22
213.618	44.32
213.836	43.73
214.053	45.22
214.271	42.4
214.488	57.34
214.705	56.92
214.923	58.95
215.14	60.58
215.358	66.84
215.575	70.63
215.793	69.05
216.01	69.85
216.227	69.58
216.445	72.91
216.662	73.41
216.879	72.11
217.097	71.34
217.314	69.74
217.531	72.64
217.749	67.61
217.966	72.58
218.183	67.87
218.4	62.74
218.618	61.5
218.835	55.5
219.052	50.54
219.269	45.29
219.487	45.69
219.704	46.1
219.921	37.83
220.138	35.93
220.355	30.26
220.572	33.51
220.79	35.41
221.007	37.86
221.224	37.25
221.441	41.09
221.658	45.03
221.875	43.81
222.092	40.62
222.309	41.49
222.526	40.94
222.743	41.01
222.96	42.14
223.177	40.73
223.394	37.04
223.611	39.13
223.828	36.09
224.045	35.34
224.262	32.18
224.479	31.99
224.696	34.03
224.913	32.23
225.13	30.86
225.347	28.87
225.564	28.49
225.781	26.7
225.997	24.99
226.214	23.91
226.431	21.12
226.648	21.89
226.865	21.11
227.082	19.99
227.298	19.74
227.515	19.52
227.732	19.13
227.949	18.56
228.165	18.73
228.382	17.75
228.599	17.68
228.816	18.06
229.032	17.94
229.249	18.37
229.466	18.42
229.682	18.44
229.899	18.32
230.116	18.5
230.332	18.22
230.549	18.16
230.765	20.05
230.982	19.8
231.199	19.91
231.415	20.27
231.632	19.4
231.848	18.75
232.065	18.66
232.281	18.45
232.498	18.25
232.714	18.28
232.931	19.16
233.147	18.24
233.364	18.23
233.58	18.27
233.797	18.75
234.013	19.15
234.23	19.47
234.446	18.99
234.662	18.79
234.879	18.85
235.095	19.44
235.312	19.03
235.528	19.22
235.744	20.12
235.961	20.26
236.177	18.73
236.393	18.91
236.61	19.98
236.826	20.29
237.042	20.26
237.258	19.24
237.475	19.31
237.691	19.04
237.907	17.52
238.123	16.67
238.339	16.14
238.556	16.9
238.772	16.67
238.988	15.61
239.204	15.29
239.42	15.85
239.636	16.09
239.853	15.14
240.069	14.71
240.285	15.22
240.501	14.72
240.717	14.71
240.933	14.05
241.149	13.56
241.365	13.51
241.581	13.51
241.797	13.07
242.013	12.67
242.229	12.88
242.445	12.61
242.661	12.39
242.877	12.69
243.093	12.58
243.309	12.34
243.525	12.46
243.741	12.56
243.957	12.67
244.173	12.23
244.388	12.14
244.604	11.57
244.82	11.37
245.036	10.77
245.252	10.45
245.468	10.5
245.683	10.74
245.899	10.53
246.115	10.43
246.331	10.37
246.547	10.46
246.762	10.6
246.978	10.68
247.194	10.68
247.409	10.78
247.625	10.99
247.841	10.72
248.057	10.83
248.272	10.9
248.488	10.53
248.703	10.18
248.919	10.42
249.135	10.17
249.35	10.1
249.566	10.64
249.782	11.06
249.997	10.75
250.213	10.88
250.428	10.26
250.644	10.92
250.859	11.46
251.075	12
251.29	11.57
251.506	11.57
251.721	11.55
251.937	11.51
252.152	11.43
252.368	11.69
252.583	12.09
252.798	12.65
253.014	12.42
253.229	12.1
253.445	12.11
253.66	12.54
253.875	12.34
254.091	12.35
254.306	11.61
254.521	11.42
254.737	10.98
254.952	10.22
255.167	9.74
255.383	9.66
255.598	10.05
255.813	9.08
256.028	9.08
256.244	9.22
256.459	9.57
256.674	9.21
256.889	8.43
257.104	8.26
257.32	8.63
257.535	8.85
257.75	8.41
257.965	8.53
258.18	8.63
258.395	8.38
258.61	8.34
258.826	8.04
259.041	8.19
259.256	8.41
259.471	8.41
259.686	8.2
259.901	8.1
260.116	8.39
260.331	7.91
260.546	8.02
260.761	8.05
260.976	7.9
261.191	7.96
261.406	7.9
261.621	7.74
261.836	7.85
262.05	7.8
262.265	7.58
262.48	7.21
262.695	7.59
262.91	7.8
263.125	8.14
263.34	8.81
263.555	9.36
263.769	9.59
263.984	10.02
264.199	9.75
264.414	9.94
264.629	10.21
264.843	10.06
265.058	10.25
265.273	9.38
265.488	9.14
265.702	8.89
265.917	8.35
266.132	8.32
266.346	8.18
266.561	8.27
266.776	8.62
266.99	8.34
267.205	8.44
267.42	8.36
267.634	8.53
267.849	8.64
268.063	8.48
268.278	8.82
268.492	8.65
268.707	8.44
268.922	8.39
269.136	7.93
269.351	7.83
269.565	7.79
269.78	7.59
269.994	7.41
270.209	7.38
270.423	7.62
270.637	7.42
270.852	7.3
271.066	7.35
271.281	7.5
271.495	7.54
271.709	7.51
271.924	7.33
272.138	7.33
272.353	7.63
272.567	7.4
272.781	7.13
272.996	7.23
273.21	7.33
273.424	7.3
273.638	6.9
273.853	7.18
274.067	7.44
274.281	7.93
274.495	8.11
274.71	7.98
274.924	8.08
275.138	8.19
275.352	8.11
275.566	8.13
275.781	8.25
275.995	8.43
276.209	8.25
276.423	7.98
276.637	7.54
276.851	7.35
277.065	7.13
277.279	6.94
277.493	6.81
277.707	6.83
277.921	6.7
278.135	6.43
278.349	6.26
278.563	6.03
278.777	6.21
278.991	6.62
279.205	6.48
279.419	6.65
279.633	7.07
279.847	7.3
280.061	7.48
280.275	7.36
280.489	7.65
280.703	7.68
280.917	7.76
281.131	7.71
281.344	7.37
281.558	7.13
281.772	7.16
281.986	6.74
282.2	6.47
282.414	6.01
282.627	6.17
282.841	6.06
283.055	6.33
283.269	6.32
283.482	6.26
283.696	6.35
283.91	6.61
284.123	6.53
284.337	6.78
284.551	6.72
284.764	6.92
284.978	6.92
285.192	6.85
285.405	6.59
285.619	6.55
285.833	6.64
286.046	6.51
286.26	6.59
286.473	6.56
286.687	6.48
286.9	6.78
287.114	6.67
287.327	6.55
287.541	6.54
287.754	6.69
287.968	6.54
288.181	6.56
288.395	6.57
288.608	6.63
288.822	6.71
289.035	6.53
289.248	6.4
289.462	6.7
289.675	6.62
289.889	6.68
290.102	6.49
290.315	6.74
290.529	6.72
290.742	6.83
290.955	6.77
291.169	6.78
291.382	6.82
291.595	6.77
291.808	6.44
292.022	6.59
292.235	6.68
292.448	6.8
292.661	6.6
292.875	6.37
293.088	6.29
293.301	6.21
293.514	6.23
293.727	6.32
293.94	6.3
294.153	6.18
294.367	6.17
294.58	5.92
294.793	6.08
295.006	6.18
295.219	6.3
295.432	6.3
295.645	6.31
295.858	6.1
296.071	6.06
296.284	5.98
296.497	6.07
296.71	6.04
296.923	6.19
297.136	6.04
297.349	6.06
297.562	6.05
297.775	5.96
297.988	6.08
298.201	6.23
298.414	6.46
298.626	6.51
298.839	6.53
299.052	6.71
299.265	6.71
299.478	6.62
299.691	6.77
299.903	6.74
300.116	6.86
300.329	6.66
300.542	6.73
300.755	6.73
300.967	6.65
301.18	6.59
301.393	6.37
301.605	6.22
301.818	6.33
302.031	6.15
302.243	6.14
302.456	6.26
302.669	6.29
302.881	6.35
303.094	5.98
303.307	6.05
303.519	5.96
303.732	5.98
303.944	6.18
304.157	6.27
304.37	6.31
304.582	6.29
304.795	6.13
305.007	6.23
305.22	6.34
305.432	6.68
305.645	6.77
305.857	7.06
306.069	6.79
306.282	6.69
306.494	6.76
306.707	6.65
306.919	6.65
307.132	6.42
307.344	6.38
307.556	6.28
307.769	6.25
307.981	6.22
308.193	6.06
308.406	6.3
308.618	6.29
308.83	5.97
309.043	5.97
309.255	6.02
309.467	6.06
309.679	6.2
309.892	6.14
310.104	5.92
310.316	5.96
310.528	6
310.74	5.96
310.953	5.91
311.165	6.08
311.377	6.01
311.589	5.96
311.801	6.18
312.013	6.11
312.225	6.24
312.437	6.44
312.649	6.5
312.862	6.54
313.074	6.35
313.286	6.35
313.498	6.37
313.71	6.48
313.922	6.61
314.134	6.59
314.346	6.53
314.558	6.4
314.77	6.44
314.982	6.34
315.193	6.28
315.405	6.45
315.617	6.28
315.829	6.13
316.041	6.24
316.253	6.13
316.465	6.1
316.677	6.27
316.888	6.41
317.1	6.44
317.312	6.49
317.524	6.59
317.736	6.92
317.947	7.35
318.159	7.59
318.371	7.34
318.583	7.55
318.794	7.36
319.006	7.16
319.218	7.21
319.43	6.88
319.641	6.98
319.853	7.22
320.064	7.24
320.276	7.31
320.488	7.27
320.699	7.56
320.911	7.36
321.123	7.84
321.334	8.05
321.546	8.01
321.757	8.52
321.969	8.32
322.18	8.06
322.392	7.72
322.603	7.5
322.815	7.72
323.026	7.6
323.238	7.27
323.449	6.98
323.661	6.89
323.872	6.76
324.083	6.6
324.295	6.77
324.506	6.69
324.718	6.85
324.929	6.94
325.14	6.95
325.352	6.84
325.563	7.3
325.774	7.29
325.986	7.21
326.197	7.45
326.408	7.51
326.62	7.48
326.831	7.66
327.042	7.75
327.253	7.72
327.464	7.69
327.676	7.88
327.887	7.81
328.098	7.88
328.309	8.03
328.52	7.97
328.732	7.94
328.943	8.02
329.154	8.06
329.365	8.15
329.576	8.13
329.787	7.95
329.998	7.94
330.209	7.92
330.42	7.93
330.631	8.02
330.842	7.87
331.053	8
331.264	7.81
331.475	7.81
331.686	7.55
331.897	7.5
332.108	7.5
332.319	7.38
332.53	7.35
332.741	7.33
332.952	7.35
333.163	7.43
333.374	7.28
333.585	7.35
333.795	7.47
334.006	7.64
334.217	7.61
334.428	7.78
334.639	7.91
334.849	7.77
335.06	7.99
335.271	7.92
335.482	7.94
335.692	7.85
335.903	7.91
336.114	7.68
336.325	7.63
336.535	7.69
336.746	7.73
336.957	7.65
337.167	7.7
337.378	7.59
337.589	7.58
337.799	7.48
338.01	7.52
338.22	7.53
338.431	7.42
338.642	7.54
338.852	7.52
339.063	7.14
339.273	7.38
339.484	7.35
339.694	7.35
339.905	7.36
340.115	7.41
340.326	7.49
340.536	7.31
340.746	7.45
340.957	7.31
341.167	7.48
341.378	7.69
341.588	7.56
341.799	7.61
342.009	7.53
342.219	7.32
342.43	7.28
342.64	7.13
342.85	7.15
343.061	6.99
343.271	6.89
343.481	6.81
343.691	6.73
343.902	6.6
344.112	6.64
344.322	6.6
344.532	6.74
344.743	6.53
344.953	6.52
345.163	6.4
345.373	6.48
345.583	6.68
345.793	6.45
346.004	6.6
346.214	6.74
346.424	6.81
346.634	6.92
346.844	7.02
347.054	7.17
347.264	7.47
347.474	7.71
347.684	7.65
347.894	7.62
348.104	7.78
348.314	7.63
348.524	7.45
348.734	7.22
348.944	7.1
349.154	7.1
349.364	7.01
349.574	6.83
349.784	6.77
349.994	6.77
350.204	6.57
350.413	6.48
350.623	6.54
350.833	6.59
351.043	6.55
351.253	6.43
351.463	6.13
351.672	6.09
351.882	6.08
352.092	6.03
352.302	6.14
352.511	6.23
352.721	6.23
352.931	6.09
353.141	6.19
353.35	6.43
353.56	6.47
353.77	6.76
353.979	6.76
354.189	6.64
354.399	6.46
354.608	6.36
354.818	6.34
355.027	6.38
355.237	6.45
355.447	6.36
355.656	6.27
355.866	6.24
356.075	6.16
356.285	6.13
356.494	6.18
356.704	6.39
356.913	6.37
357.123	6.35
357.332	6.32
357.542	6.4
357.751	6.32
357.96	6.3
358.17	6.29
358.379	6.14
358.589	6.2
358.798	6.03
359.007	6.02
359.217	6.05
359.426	5.99
359.635	5.98
359.845	5.96
360.054	5.92
360.263	5.83
360.472	5.85
360.682	5.9
360.891	5.81
361.1	5.89
361.309	5.75
361.519	5.72
361.728	5.75
361.937	5.72
362.146	5.64
362.355	5.62
362.564	5.67
362.774	5.69
362.983	5.64
363.192	5.73
363.401	5.84
363.61	5.86
363.819	5.89
364.028	5.83
364.237	5.77
364.446	5.73
364.655	5.8
364.864	5.82
365.073	5.82
365.282	5.85
365.491	5.79
365.7	5.74
365.909	5.88
366.118	5.8
366.327	5.74
366.536	5.86
366.745	5.96
366.954	6.02
367.162	6.05
367.371	5.98
367.58	6.03
367.789	6.08
367.998	6.04
368.207	5.91
368.415	5.96
368.624	6.08
368.833	6.02
369.042	6.04
369.25	6.01
369.459	5.91
369.668	5.94
369.877	5.9
370.085	5.74
370.294	5.67
370.503	5.65
370.711	5.67
370.92	5.62
371.129	5.58
371.337	5.47
371.546	5.43
371.754	5.56
371.963	5.47
372.171	5.39
372.38	5.47
372.589	5.6
372.797	5.56
373.006	5.49
373.214	5.53
373.423	5.48
373.631	5.53
373.84	5.43
374.048	5.33
374.256	5.3
374.465	5.35
374.673	5.29
374.882	5.18
375.09	5.24
375.298	5.3
375.507	5.13
375.715	5.2
375.923	5.07
376.132	5.1
376.34	5.01
376.548	5.1
376.757	5.11
376.965	5.12
377.173	5.23
377.381	5.3
377.59	5.29
377.798	5.34
378.006	5.28
378.214	5.34
378.423	5.27
378.631	5.28
378.839	5.31
379.047	5.25
379.255	5.28
379.463	5.22
379.671	5.05
379.879	5.04
380.088	5.04
380.296	5.12
380.504	5.14
380.712	5.26
380.92	5.35
381.128	5.37
381.336	5.24
381.544	5.3
381.752	5.27
381.96	5.37
382.168	5.35
382.376	5.45
382.584	5.42
382.791	5.5
382.999	5.52
383.207	5.47
383.415	5.44
383.623	5.58
383.831	5.53
384.039	5.52
384.247	5.39
384.454	5.37
384.662	5.2
384.87	5.21
385.078	5.18
385.285	5.04
385.493	4.96
385.701	4.91
385.909	4.87
386.116	4.89
386.324	4.83
386.532	4.88
386.739	4.79
386.947	4.87
387.155	4.83
387.362	4.77
387.57	4.85
387.778	4.94
387.985	5.06
388.193	5.09
388.4	5.18
388.608	5.21
388.816	5.14
389.023	5.11
389.231	5.08
389.438	5.1
389.646	4.98
389.853	4.97
390.061	4.89
390.268	4.76
390.475	4.71
390.683	4.67
390.89	4.62
391.098	4.7
391.305	4.79
391.512	4.77
391.72	4.68
391.927	4.76
392.135	4.7
392.342	4.71
392.549	4.7
392.756	4.75
392.964	4.73
393.171	4.81
393.378	4.81
393.586	4.72
393.793	4.71
394	4.69
394.207	4.71
394.414	4.69
394.622	4.77
394.829	4.82
395.036	4.81
395.243	4.75
395.45	4.62
395.657	4.63
395.864	4.75
396.072	4.68
396.279	4.77
396.486	4.74
396.693	4.74
396.9	4.65
397.107	4.51
397.314	4.48
397.521	4.45
397.728	4.49
397.935	4.53
398.142	4.44
398.349	4.48
398.556	4.42
398.763	4.3
398.97	4.36
399.177	4.32
399.383	4.43
399.59	4.45
399.797	4.44
400.004	4.43
400.211	4.43
400.418	4.42
400.625	4.52
400.831	4.51
401.038	4.6
401.245	4.62
401.452	4.66
401.658	4.57
401.865	4.47
402.072	4.48
402.279	4.51
402.485	4.36
402.692	4.34
402.899	4.25
403.105	4.25
403.312	4.29
403.519	4.26
403.725	4.23
403.932	4.29
404.138	4.3
404.345	4.26
404.552	4.17
404.758	4.25
404.965	4.24
405.171	4.27
405.378	4.22
405.584	4.22
405.791	4.11
405.997	4.14
406.204	4.09
406.41	4.15
406.617	4.14
406.823	4.18
407.029	4.17
407.236	4.21
407.442	4.19
407.649	4.28
407.855	4.15
408.061	4.28
408.268	4.29
408.474	4.28
408.68	4.21
408.887	4.31
409.093	4.27
409.299	4.29
409.505	4.27
409.712	4.23
409.918	4.17
410.124	4.24
410.33	4.24
410.537	4.2
410.743	4.26
410.949	4.25
411.155	4.15
411.361	4.19
411.567	4.2
411.773	4.21
411.98	4.23
412.186	4.3
412.392	4.38
412.598	4.29
412.804	4.27
413.01	4.21
413.216	4.2
413.422	4.24
413.628	4.25
413.834	4.14
414.04	4.16
414.246	4.15
414.452	4.13
414.658	4.11
414.864	4.05
415.07	4.01
415.275	4.05
415.481	4.02
415.687	4.03
415.893	4.02
416.099	4.08
416.305	3.94
416.511	3.96
416.716	3.86
416.922	3.8
417.128	3.81
417.334	3.84
417.539	3.76
417.745	3.72
417.951	3.69
418.157	3.65
418.362	3.58
418.568	3.61
418.774	3.59
418.979	3.58
419.185	3.61
419.391	3.57
419.596	3.57
419.802	3.58
420.008	3.61
420.213	3.3
420.419	3.34
420.624	3.36
420.83	3.4
421.035	3.36
421.241	3.38
421.446	3.35
421.652	3.36
421.857	3.35
422.063	3.31
422.268	3.32
422.474	3.6
422.679	3.59
422.885	3.58
423.09	3.52
423.295	3.51
423.501	3.51
423.706	3.48
423.911	3.46
424.117	3.47
424.322	3.52
424.527	3.54
424.733	3.47
424.938	3.44
425.143	3.43
425.349	3.44
425.554	3.5
425.759	3.46
425.964	3.5
426.169	3.52
426.375	3.5
426.58	3.52
426.785	3.48
426.99	3.58
427.195	3.59
427.4	3.63
427.605	3.67
427.811	3.63
428.016	3.73
428.221	3.77
428.426	3.77
428.631	3.8
428.836	3.72
429.041	3.72
429.246	3.68
429.451	3.75
429.656	3.76
429.861	3.73
430.066	3.77
430.271	3.69
430.476	3.65
430.681	3.67
430.886	3.67
431.09	3.7
431.295	3.67
431.5	3.63
431.705	3.53
431.91	3.48
432.115	3.5
432.32	3.46
432.524	3.48
432.729	3.45
432.934	3.38
433.139	3.39
433.343	3.37
433.548	3.42
433.753	3.5
433.958	3.53
434.162	3.56
434.367	3.52
434.572	3.54
434.776	3.53
434.981	3.52
435.186	3.55
435.39	3.49
435.595	3.49
435.799	3.47
436.004	3.4
436.209	3.4
436.413	3.37
436.618	3.32
436.822	3.32
437.027	3.26
437.231	3.28
437.436	3.28
437.64	3.29
437.845	3.27
438.049	3.27
438.253	3.2
438.458	3.18
438.662	3.15
438.867	3.19
439.071	3.21
439.275	3.26
439.48	3.29
439.684	3.3
439.888	3.32
440.093	3.32
440.297	3.28
440.501	3.38
440.706	3.39
440.91	3.44
441.114	3.47
441.318	3.42
441.523	3.41
441.727	3.36
441.931	3.36
442.135	3.38
442.339	3.39
442.543	3.46
442.748	3.38
442.952	3.38
443.156	3.35
443.36	3.32
443.564	3.28
443.768	3.24
443.972	3.27
444.176	3.25
444.38	3.24
444.584	3.2
444.788	3.17
444.992	3.19
445.196	3.18
445.4	3.15
445.604	3.16
445.808	3.19
446.012	3.18
446.216	3.17
446.42	3.2
446.624	3.2
446.828	3.2
447.032	3.19
447.235	3.19
447.439	3.19
447.643	3.25
447.847	3.27
448.051	3.24
448.254	3.27
448.458	3.28
448.662	3.29
448.866	3.29
449.069	3.25
449.273	3.28
449.477	3.25
449.681	3.26
449.884	3.21
450.088	3.24
450.292	3.24
450.495	3.23
450.699	3.26
450.902	3.22
451.106	3.21
451.31	3.28
451.513	3.24
451.717	3.26
451.92	3.27
452.124	3.28
452.327	3.21
452.531	3.25
452.734	3.24
452.938	3.2
453.141	3.2
453.345	3.2
453.548	3.14
453.752	3.2
453.955	3.22
454.158	3.26
454.362	3.26
454.565	3.32
454.769	3.31
454.972	3.35
455.175	3.36
455.379	3.37
455.582	3.35
455.785	3.38
455.988	3.34
456.192	3.32
456.395	3.29
456.598	3.29
456.801	3.22
457.005	3.21
457.208	3.18
457.411	3.14
457.614	3.07
457.817	3.06
458.021	3.03
458.224	3.04
458.427	3.01
458.63	3.01
458.833	3.01
459.036	2.98
459.239	2.98
459.442	2.99
459.645	3
459.848	3.09
460.051	3.09
460.254	3.14
460.457	3.12
460.66	3.16
460.863	3.19
461.066	3.18
461.269	3.22
461.472	3.27
461.675	3.25
461.878	3.28
462.081	3.23
462.284	3.24
462.486	3.25
462.689	3.31
462.892	3.26
463.095	3.26
463.298	3.3
463.5	3.32
463.703	3.28
463.906	3.35
464.109	3.35
464.311	3.33
464.514	3.38
464.717	3.41
464.92	3.36
465.122	3.38
465.325	3.35
465.528	3.32
465.73	3.34
465.933	3.3
466.135	3.15
466.338	3.14
466.541	3.14
466.743	3.05
466.946	3.04
467.148	3.08
467.351	3.12
467.553	3.14
467.756	3.18
467.958	3.14
468.161	3.15
468.363	3.23
468.566	3.2
468.768	3.18
468.971	3.24
469.173	3.25
469.375	3.21
469.578	3.08
469.78	3.08
469.983	3.01
470.185	3.02
470.387	3.01
470.59	3.06
470.792	3.11
470.994	3.13
471.196	3.12
471.399	3.12
471.601	3.1
471.803	3.17
472.005	3.15
472.208	3.18
472.41	3.18
472.612	3.16
472.814	3.16
473.016	3.16
473.218	3.19
473.421	3.14
473.623	3.15
473.825	3.17
474.027	3.21
474.229	3.19
474.431	3.18
474.633	3.24
474.835	3.28
475.037	3.24
475.239	3.24
475.441	3.18
475.643	3.23
475.845	3.19
476.047	3.19
476.249	3.16
476.451	3.19
476.653	3.15
476.855	3.1
477.057	3.08
477.258	3.05
477.46	3.05
477.662	3.07
477.864	3.05
478.066	3.02
478.268	3.05
478.469	3.03
478.671	3
478.873	3.04
479.075	3.05
479.276	3.03
479.478	3.09
479.68	3.04
479.882	3.04
480.083	3.04
480.285	3.07
480.487	3.03
480.688	3.03
480.89	3.06
481.091	3.02
481.293	3.02
481.495	3.03
481.696	3.02
481.898	3.02
482.099	2.98
482.301	2.95
482.502	2.92
482.704	2.89
482.905	2.88
483.107	2.85
483.308	2.86
483.51	2.85
483.711	2.86
483.913	2.87
484.114	2.86
484.315	2.89
484.517	2.92
484.718	2.94
484.92	2.97
485.121	2.98
485.322	2.99
485.524	3
485.725	2.98
485.926	2.96
486.127	2.94
486.329	2.93
486.53	2.91
486.731	2.88
486.932	2.88
487.134	2.88
487.335	2.87
487.536	2.89
487.737	2.89
487.938	2.9
488.139	2.92
488.341	2.92
488.542	2.94
488.743	2.95
488.944	2.97
489.145	2.95
489.346	2.96
489.547	2.97
489.748	2.95
489.949	2.95
490.15	2.95
490.351	2.93
490.552	2.94
490.753	2.93
490.954	2.91
491.155	2.9
491.356	2.93
491.557	2.94
491.758	2.95
491.959	2.98
492.159	3
492.36	3.03
492.561	3.04
492.762	3.05
492.963	3.09
493.164	3.14
493.364	3.2
493.565	3.22
493.766	3.24
493.967	3.26
494.167	3.26
494.368	3.24
494.569	3.22
494.769	3.22
494.97	3.24
495.171	3.24
495.371	3.19
495.572	3.15
495.773	3.11
495.973	3.1
496.174	3.11
496.375	3.13
496.575	3.13
496.776	3.15
496.976	3.16
497.177	3.12
497.377	3.13
497.578	3.21
497.778	3.24
497.979	3.28
498.179	3.28
498.38	3.28
498.58	3.27
498.78	3.3
498.981	3.32
499.181	3.32
499.382	3.34
499.582	3.31
499.782	3.29
499.983	3.32
500.183	3.33
500.383	3.35
500.584	3.35
500.784	3.34
500.984	3.36
501.184	3.33
501.385	3.35
501.585	3.4
501.785	3.41
501.985	3.4
502.185	3.43
502.386	3.45
502.586	3.43
502.786	3.46
502.986	3.49
503.186	3.52
503.386	3.52
503.586	3.57
503.786	3.54
503.987	3.56
504.187	3.58
504.387	3.56
504.587	3.53
504.787	3.58
504.987	3.55
505.187	3.55
505.387	3.49
505.587	3.51
505.786	3.5
505.986	3.53
506.186	3.51
506.386	3.52
506.586	3.51
506.786	3.53
506.986	3.48
507.186	3.49
507.386	3.5
507.585	3.52
507.785	3.55
507.985	3.55
508.185	3.55
508.384	3.57
508.584	3.57
508.784	3.57
508.984	3.57
509.183	3.62
509.383	3.59
509.583	3.57
509.782	3.58
509.982	3.57
510.182	3.57
510.381	3.59
510.581	3.61
510.781	3.63
510.98	3.67
511.18	3.66
511.379	3.66
511.579	3.73
511.778	3.8
511.978	3.85
512.177	3.87
512.377	3.89
512.576	3.91
512.776	3.93
512.975	3.96
513.175	3.93
513.374	4.01
513.573	4.04
513.773	4.04
513.972	4.04
514.172	4.05
514.371	4.06
514.57	4.12
514.77	4.14
514.969	4.15
515.168	4.17
515.367	4.22
515.567	4.19
515.766	4.19
515.965	4.18
516.164	4.17
516.364	4.16
516.563	4.14
516.762	4.1
516.961	4.11
517.16	4.13
517.359	4.12
517.559	4.12
517.758	4.13
517.957	4.14
518.156	4.19
518.355	4.2
518.554	4.26
518.753	4.31
518.952	4.31
519.151	4.33
519.35	4.35
519.549	4.4
519.748	4.43
519.947	4.45
520.146	4.47
520.345	4.44
520.544	4.51
520.743	4.48
520.942	4.46
521.141	4.49
521.339	4.52
521.538	4.53
521.737	4.5
521.936	4.5
522.135	4.5
522.333	4.51
522.532	4.56
522.731	4.54
522.93	4.6
523.129	4.64
523.327	4.7
523.526	4.69
523.725	4.75
523.923	4.8
524.122	4.81
524.321	4.82
524.519	4.85
524.718	4.85
524.917	4.86
525.115	4.86
525.314	4.85
525.512	4.86
525.711	4.89
525.909	4.87
526.108	4.87
526.306	4.88
526.505	4.91
526.703	4.9
526.902	4.92
527.1	4.92
527.299	4.93
527.497	4.94
527.696	4.95
527.894	4.96
528.092	4.96
528.291	4.99
528.489	5.01
528.688	5.03
528.886	5.06
529.084	5.09
529.283	5.13
529.481	5.16
529.679	5.19
529.877	5.23
530.076	5.27
530.274	5.32
530.472	5.36
530.67	5.39
530.869	5.39
531.067	5.44
531.265	5.43
531.463	5.48
531.661	5.47
531.859	5.5
532.057	5.51
532.255	5.51
532.454	5.51
532.652	5.52
532.85	5.52
533.048	5.56
533.246	5.58
533.444	5.63
533.642	5.63
533.84	5.68
534.038	5.73
534.236	5.75
534.434	5.79
534.632	5.84
534.83	5.88
535.027	5.92
535.225	5.94
535.423	5.95
535.621	5.98
535.819	5.99
536.017	6.01
536.215	5.96
536.412	5.97
536.61	6.01
536.808	6.03
537.006	6.03
537.203	6.05
537.401	6.07
537.599	6.13
537.797	6.15
537.994	6.14
538.192	6.2
538.39	6.26
538.587	6.27
538.785	6.29
538.983	6.3
539.18	6.32
539.378	6.33
539.575	6.35
539.773	6.33
539.97	6.32
540.168	6.37
540.366	6.34
540.563	6.38
540.761	6.43
540.958	6.45
541.155	6.46
541.353	6.5
541.55	6.54
541.748	6.55
541.945	6.59
542.143	6.63
542.34	6.66
542.537	6.68
542.735	6.7
542.932	6.69
543.129	6.72
543.327	6.75
543.524	6.79
543.721	6.79
543.919	6.85
544.116	6.88
544.313	6.95
544.51	6.96
544.708	7.03
544.905	7.05
545.102	7.15
545.299	7.18
545.496	7.2
545.693	7.22
545.891	7.29
546.088	7.3
546.285	7.35
546.482	7.36
546.679	7.39
546.876	7.44
547.073	7.48
547.27	7.5
547.467	7.54
547.664	7.61
547.861	7.64
548.058	7.68
548.255	7.77
548.452	7.82
548.649	7.9
548.846	7.96
549.043	7.97
549.24	8.01
549.437	8.02
549.633	8.03
549.83	8.03
550.027	8.13
550.224	8.17
550.421	8.1
550.618	8.05
550.814	8.06
551.011	8.1
551.208	8.09
551.405	8.07
551.601	8.1
551.798	8.11
551.995	8.12
552.191	8.13
552.388	8.1
552.585	8.17
552.781	8.2
552.978	8.26
553.175	8.33
553.371	8.4
553.568	8.52
553.764	8.62
553.961	8.67
554.157	8.73
554.354	8.77
554.55	8.83
554.747	8.87
554.943	8.96
555.14	8.98
555.336	8.97
555.533	9
555.729	9.03
555.926	9.03
556.122	9.07
556.318	9.07
556.515	9.08
556.711	9.09
556.907	9.11
557.104	9.11
557.3	9.14
557.496	9.2
557.693	9.21
557.889	9.23
558.085	9.2
558.281	9.31
558.478	9.4
558.674	9.44
558.87	9.52
559.066	9.57
559.262	9.63
559.459	9.67
559.655	9.69
559.851	9.76
560.047	9.82
560.243	9.86
560.439	9.83
560.635	9.8
560.831	9.85
561.027	9.87
561.223	9.9
561.419	9.91
561.615	9.94
561.811	9.96
562.007	9.99
562.203	9.95
562.399	9.95
562.595	9.98
562.791	10.03
562.987	10.05
563.183	10.08
563.379	10.11
563.575	10.14
563.771	10.15
563.966	10.16
564.162	10.19
564.358	10.2
564.554	10.26
564.75	10.27
564.945	10.33
565.141	10.37
565.337	10.39
565.533	10.39
565.728	10.39
565.924	10.46
566.12	10.49
566.315	10.5
566.511	10.53
566.707	10.52
566.902	10.56
567.098	10.59
567.293	10.59
567.489	10.61
567.684	10.66
567.88	10.71
568.076	10.72
568.271	10.8
568.467	10.81
568.662	10.86
568.858	10.92
569.053	10.94
569.248	10.97
569.444	11
569.639	11
569.835	10.96
570.03	10.99
570.225	10.97
570.421	11.01
570.616	11.05
570.812	11.1
571.007	11.08
571.202	11.14
571.397	11.12
571.593	11.11
571.788	11.16
571.983	11.23
572.178	11.24
572.374	11.31
572.569	11.28
572.764	11.27
572.959	11.25
573.154	11.26
573.35	11.25
573.545	11.26
573.74	11.27
573.935	11.3
574.13	11.3
574.325	11.32
574.52	11.32
574.715	11.33
574.91	11.38
575.105	11.43
575.3	11.51
575.495	11.54
575.69	11.55
575.885	11.63
576.08	11.66
576.275	11.7
576.47	11.74
576.665	11.73
576.86	11.78
577.055	11.78
577.25	11.75
577.444	11.76
577.639	11.81
577.834	11.87
578.029	11.93
578.224	11.9
578.418	11.98
578.613	12
578.808	11.94
579.003	11.92
579.197	11.96
579.392	11.97
579.587	11.98
579.781	11.9
579.976	11.92
580.171	11.89
580.365	11.88
580.56	11.8
580.755	11.79
580.949	11.85
581.144	11.85
581.338	11.87
581.533	11.98
581.727	11.97
581.922	12.01
582.116	11.98
582.311	11.94
582.505	11.95
582.7	11.97
582.894	11.98
583.089	12.01
583.283	12.03
583.478	12.09
583.672	12.04
583.866	12.05
584.061	12.06
584.255	12.18
584.449	12.21
584.644	12.24
584.838	12.27
585.032	12.31
585.226	12.29
585.421	12.33
585.615	12.32
585.809	12.33
586.003	12.31
586.198	12.29
586.392	12.25
586.586	12.28
586.78	12.3
586.974	12.35
587.168	12.27
587.363	12.3
587.557	12.28
587.751	12.27
587.945	12.34
588.139	12.47
588.333	12.5
588.527	12.54
588.721	12.56
588.915	12.56
589.109	12.48
589.303	12.59
589.497	12.58
589.691	12.57
589.885	12.62
590.079	12.58
590.273	12.49
590.466	12.53
590.66	12.48
590.854	12.46
591.048	12.54
591.242	12.56
591.436	12.52
591.629	12.58
591.823	12.6
592.017	12.6
592.211	12.57
592.404	12.64
592.598	12.59
592.792	12.61
592.986	12.61
593.179	12.6
593.373	12.67
593.567	12.66
593.76	12.67
593.954	12.67
594.147	12.62
594.341	12.66
594.535	12.61
594.728	12.65
594.922	12.68
595.115	12.69
595.309	12.63
595.502	12.61
595.696	12.65
595.889	12.6
596.083	12.63
596.276	12.63
596.47	12.65
596.663	12.73
596.856	12.72
597.05	12.7
597.243	12.68
597.437	12.75
597.63	12.78
597.823	12.82
598.017	12.86
598.21	12.89
598.403	12.93
598.596	12.9
598.79	12.87
598.983	12.89
599.176	12.9
599.369	12.91
599.563	12.93
599.756	12.9
599.949	12.91
600.142	12.89
600.335	12.83
600.528	12.88
600.722	12.91
600.915	12.97
601.108	12.97
601.301	13.03
601.494	13.1
601.687	13.04
601.88	13.05
602.073	12.97
602.266	12.96
602.459	12.99
602.652	12.94
602.845	12.95
603.038	12.85
603.231	12.84
603.424	12.8
603.617	12.81
603.809	12.79
604.002	12.84
604.195	12.93
604.388	12.97
604.581	12.96
604.774	12.97
604.966	12.92
605.159	13
605.352	13.02
605.545	13.04
605.737	13.04
605.93	13.12
606.123	13.1
606.316	13
606.508	13.05
606.701	13.16
606.894	13.14
607.086	13.23
607.279	13.15
607.471	13.14
607.664	13.15
607.857	13.18
608.049	13.23
608.242	13.19
608.434	13.2
608.627	13.12
608.819	13.1
609.012	13.16
609.204	13.19
609.397	13.21
609.589	13.26
609.782	13.29
609.974	13.24
610.166	13.28
610.359	13.35
610.551	13.37
610.743	13.44
610.936	13.48
611.128	13.42
611.32	13.38
611.513	13.38
611.705	13.37
611.897	13.34
612.09	13.35
612.282	13.26
612.474	13.16
612.666	13.18
612.858	13.26
613.051	13.17
613.243	13.2
613.435	13.2
613.627	13.23
613.819	13.27
614.011	13.46
614.203	13.44
614.395	13.51
614.588	13.57
614.78	13.65
614.972	13.65
615.164	13.67
615.356	13.68
615.548	13.64
615.74	13.7
615.932	13.59
616.124	13.38
616.315	13.44
616.507	13.39
616.699	13.41
616.891	13.33
617.083	13.34
617.275	13.31
617.467	13.35
617.659	13.44
617.85	13.45
618.042	13.53
618.234	13.62
618.426	13.64
618.618	13.64
618.809	13.58
619.001	13.62
619.193	13.59
619.384	13.55
619.576	13.6
619.768	13.58
619.959	13.59
620.151	13.57
620.343	13.59
620.534	13.5
620.726	13.56
620.917	13.63
621.109	13.64
621.301	13.64
621.492	13.73
621.684	13.73
621.875	13.74
622.067	13.78
622.258	13.74
622.45	13.76
622.641	13.76
622.832	13.68
623.024	13.68
623.215	13.71
623.407	13.69
623.598	13.68
623.789	13.7
623.981	13.67
624.172	13.71
624.363	13.73
624.555	13.72
624.746	13.79
624.937	13.84
625.129	13.79
625.32	13.75
625.511	13.77
625.702	13.69
625.893	13.6
626.085	13.61
626.276	13.45
626.467	13.51
626.658	13.5
626.849	13.53
627.04	13.52
627.231	13.57
627.422	13.61
627.614	13.55
627.805	13.68
627.996	13.72
628.187	13.71
628.378	13.85
628.569	13.84
628.76	13.88
628.951	13.87
629.142	13.9
629.332	13.95
629.523	13.94
629.714	13.98
629.905	14
630.096	13.98
630.287	14.02
630.478	13.98
630.669	13.93
630.859	13.83
631.05	13.79
631.241	13.79
631.432	13.77
631.623	13.77
631.813	13.8
632.004	13.72
632.195	13.74
632.385	13.71
632.576	13.74
632.767	13.73
632.957	13.72
633.148	13.75
633.339	13.75
633.529	13.71
633.72	13.63
633.91	13.61
634.101	13.57
634.292	13.61
634.482	13.6
634.673	13.64
634.863	13.71
635.054	13.81
635.244	13.82
635.435	13.81
635.625	13.82
635.815	13.82
636.006	13.8
636.196	13.9
636.387	13.83
636.577	13.86
636.767	13.83
636.958	13.85
637.148	13.84
637.338	13.82
637.529	13.8
637.719	13.89
637.909	14.02
638.099	14.08
638.29	13.99
638.48	14.01
638.67	14.04
638.86	14.08
639.05	14.09
639.241	14.02
639.431	13.97
639.621	14.01
639.811	13.98
640.001	13.97
640.191	13.9
640.381	13.92
640.571	13.98
640.761	13.94
640.951	13.93
641.141	13.88
641.331	13.93
641.521	14.03
641.711	14.04
641.901	14.01
642.091	13.94
642.281	13.99
642.471	14.04
642.661	14.05
642.851	14.16
643.041	14.07
643.231	14.1
643.42	14.14
643.61	14.13
643.8	14.18
643.99	14.15
644.18	14.17
644.369	14.27
644.559	14.33
644.749	14.38
644.939	14.32
645.128	14.39
645.318	14.39
645.508	14.4
645.697	14.43
645.887	14.43
646.076	14.46
646.266	14.41
646.456	14.45
646.645	14.38
646.835	14.35
647.024	14.28
647.214	14.28
647.403	14.27
647.593	14.18
647.782	14.18
647.972	14.21
648.161	14.28
648.351	14.34
648.54	14.2
648.73	14.26
648.919	14.26
649.108	14.26
649.298	14.31
649.487	14.38
649.677	14.42
649.866	14.39
650.055	14.35
650.244	14.24
650.434	14.31
650.623	14.32
650.812	14.28
651.002	14.22
651.191	14.28
651.38	14.32
651.569	14.28
651.758	14.26
651.947	14.38
652.137	14.45
652.326	14.53
652.515	14.53
652.704	14.61
652.893	14.59
653.082	14.72
653.271	14.74
653.46	14.68
653.649	14.7
653.838	14.83
654.027	14.75
654.216	14.63
654.405	14.73
654.594	14.69
654.783	14.69
654.972	14.75
655.161	14.73
655.35	14.68
655.539	14.61
655.728	14.59
655.916	14.55
656.105	14.55
656.294	14.68
656.483	14.58
656.672	14.6
656.86	14.52
657.049	14.56
657.238	14.52
657.427	14.53
657.615	14.5
657.804	14.49
657.993	14.52
658.181	14.5
658.37	14.41
658.559	14.43
658.747	14.48
658.936	14.52
659.125	14.57
659.313	14.56
659.502	14.63
659.69	14.7
659.879	14.72
660.067	14.74
660.256	14.72
660.444	14.74
660.633	14.76
660.821	14.73
661.01	14.84
661.198	14.79
661.387	14.8
661.575	14.71
661.763	14.83
661.952	14.8
662.14	14.78
662.328	14.78
662.517	14.78
662.705	14.73
662.893	14.74
663.082	14.82
663.27	14.74
663.458	14.79
663.646	14.85
663.834	14.8
664.023	14.88
664.211	14.82
664.399	14.9
664.587	14.87
664.775	14.77
664.963	14.74
665.152	14.66
665.34	14.68
665.528	14.62
665.716	14.73
665.904	14.72
666.092	14.75
666.28	14.77
666.468	14.72
666.656	14.81
666.844	14.97
667.032	15.01
667.22	14.99
667.408	14.94
667.596	15.11
667.784	15
667.971	14.98
668.159	14.88
668.347	14.87
668.535	14.93
668.723	14.9
668.911	14.88
669.098	14.91
669.286	14.91
669.474	15.07
669.662	14.97
669.849	15.06
670.037	15.03
670.225	15.03
670.413	15.04
670.6	14.94
670.788	14.96
670.976	14.99
671.163	14.92
671.351	14.89
671.538	14.76
671.726	14.88
671.913	14.85
672.101	14.84
672.289	14.87
672.476	14.92
672.664	15.04
672.851	15.04
673.039	15.09
673.226	15.09
673.413	15.15
673.601	15.24
673.788	15.07
673.976	15.05
674.163	15.16
674.35	15.28
674.538	15.26
674.725	15.17
674.912	15.1
675.1	15.05
675.287	15.1
675.474	15.08
675.662	15.04
675.849	15.14
676.036	15.1
676.223	14.99
676.411	14.92
676.598	14.86
676.785	14.99
676.972	15.06
677.159	15.06
677.346	14.91
677.533	14.97
677.721	14.99
677.908	15.05
678.095	15.01
678.282	15.07
678.469	15.08
678.656	15.23
678.843	15.18
679.03	15.36
679.217	15.42
679.404	15.55
679.591	15.47
679.778	15.56
679.964	15.47
680.151	15.58
680.338	15.66
680.525	15.71
680.712	15.7
680.899	15.69
681.086	15.53
681.272	15.47
681.459	15.44
681.646	15.5
681.833	15.4
682.02	15.37
682.206	15.32
682.393	15.29
682.58	15.21
682.766	15.26
682.953	15.28
683.14	15.33
683.326	15.4
683.513	15.55
683.7	15.55
683.886	15.52
684.073	15.67
684.259	15.74
684.446	15.8
684.632	15.76
684.819	15.62
685.005	15.6
685.192	15.63
685.378	15.65
685.565	15.57
685.751	15.47
685.938	15.42
686.124	15.4
686.31	15.35
686.497	15.18
686.683	15.17
686.87	15.17
687.056	15.22
687.242	15.16
687.429	15.14
687.615	15.12
687.801	15.3
687.987	15.4
688.174	15.37
688.36	15.28
688.546	15.4
688.732	15.5
688.918	15.38
689.105	15.42
689.291	15.5
689.477	15.63
689.663	15.64
689.849	15.53
690.035	15.61
690.221	15.7
690.407	15.94
690.593	16.01
690.779	15.94
690.965	16.09
691.151	16.19
691.337	16.07
691.523	15.92
691.709	16.06
691.895	15.98
692.081	15.94
692.267	15.8
692.453	15.57
692.639	15.64
692.825	15.73
693.011	15.78
693.196	15.72
693.382	15.71
693.568	15.62
693.754	15.64
693.94	15.66
694.125	15.61
694.311	15.72
694.497	15.87
694.682	15.7
694.868	15.75
695.054	15.75
695.239	15.66
695.425	15.65
695.611	15.84
695.796	15.74
695.982	15.73
696.168	15.71
696.353	15.55
696.539	15.6
696.724	15.6
696.91	15.7
697.095	15.74
697.281	15.81
697.466	15.76
697.652	15.63
697.837	15.61
698.023	15.67
698.208	15.7
698.393	15.86
698.579	15.84
698.764	15.75
698.949	15.63
699.135	15.63
699.32	15.54
699.505	15.68
699.691	15.63
699.876	15.49
700.061	15.48
700.246	15.47
700.432	15.35
700.617	15.34
700.802	15.45
700.987	15.61
701.172	15.56
701.358	15.62
701.543	15.73
701.728	15.82
701.913	16.13
702.098	16.22
702.283	16.31
702.468	16.3
702.653	16.36
702.838	16.54
703.023	16.4
703.208	16.43
703.393	16.44
703.578	16.32
703.763	16.39
703.948	16.34
704.133	16.29
704.318	16.34
704.503	16.41
704.688	16.39
704.873	16.11
705.057	15.92
705.242	15.87
705.427	15.72
705.612	15.71
705.797	15.82
705.981	15.81
706.166	15.74
706.351	15.45
706.536	15.33
706.72	15.32
706.905	15.39
707.09	15.55
707.274	15.57
707.459	15.79
707.644	15.76
707.828	15.6
708.013	15.6
708.197	15.62
708.382	15.85
708.567	15.99
708.751	16.13
708.936	15.99
709.12	16.01
709.305	16.09
709.489	15.89
709.673	15.88
709.858	15.98
710.042	16.09
710.227	16.22
710.411	16.25
710.596	16.18
710.78	16.04
710.964	16.24
711.149	16.41
711.333	16.48
711.517	16.55
711.702	16.62
711.886	16.57
712.07	16.51
712.254	16.52
712.438	16.43
712.623	16.55
712.807	16.68
712.991	16.69
713.175	16.55
713.359	16.47
713.544	16.57
713.728	16.56
713.912	16.68
714.096	16.62
714.28	16.57
714.464	16.63
714.648	16.52
714.832	16.38
715.016	16.39
715.2	16.34
715.384	16.4
715.568	16.37
715.752	16.36
715.936	16.3
716.12	16.36
716.304	16.39
716.488	16.24
716.671	16.37
716.855	16.38
717.039	16.45
717.223	16.55
717.407	16.54
717.59	16.68
717.774	16.67
717.958	16.87
718.142	16.82
718.325	16.79
718.509	17.02
718.693	16.84
718.877	16.8
719.06	16.79
719.244	16.68
719.428	16.71
719.611	16.55
719.795	16.55
719.978	16.49
720.162	16.48
720.345	16.52
720.529	16.46
720.713	16.74
720.896	16.94
721.08	16.78
721.263	16.88
721.446	16.83
721.63	16.9
721.813	16.96
721.997	16.82
722.18	17
722.364	17.01
722.547	16.95
722.73	16.7
722.914	16.57
723.097	16.59
723.28	16.57
723.464	16.53
723.647	16.66
723.83	16.83
724.013	16.93
724.197	16.9
724.38	16.89
724.563	16.96
724.746	17.11
724.929	17.4
725.112	17.51
725.296	17.65
725.479	17.58
725.662	17.36
725.845	17.19
726.028	17.05
726.211	17.04
726.394	17
726.577	17
726.76	16.95
726.943	16.65
727.126	16.6
727.309	16.52
727.492	16.62
727.675	16.65
727.858	16.75
728.041	16.87
728.224	16.88
728.407	16.74
728.589	16.84
728.772	16.87
728.955	16.99
729.138	17.06
729.321	17.03
729.503	17.15
729.686	17.29
729.869	17.23
730.052	17.22
730.234	17.1
730.417	17.24
730.6	17.25
730.782	17.24
730.965	17.1
731.148	17.17
731.33	17.19
731.513	17.23
731.695	17.17
731.878	17.09
732.061	16.87
732.243	16.97
732.426	16.88
732.608	17.03
732.791	17.28
732.973	17.46
733.156	17.31
733.338	17.16
733.52	16.99
733.703	17.09
733.885	17.32
734.068	17.51
734.25	17.58
734.432	17.67
734.615	17.4
734.797	16.88
734.979	16.63
735.162	16.58
735.344	16.86
735.526	17.07
735.708	16.73
735.891	16.7
736.073	16.81
736.255	16.83
736.437	16.8
736.619	17.01
736.802	17.46
736.984	17.62
737.166	17.95
737.348	17.9
737.53	17.66
737.712	17.81
737.894	17.82
738.076	17.84
738.258	17.76
738.44	17.96
738.622	17.77
738.804	17.53
738.986	17.74
739.168	17.51
739.35	17.52
739.532	17.64
739.714	17.95
739.896	17.97
740.078	17.98
740.259	17.91
740.441	17.66
740.623	17.58
740.805	17.85
740.987	17.74
741.168	17.66
741.35	17.72
741.532	17.77
741.714	17.56
741.895	17.42
742.077	17.44
742.259	17.47
742.44	17.57
742.622	17.73
742.804	17.46
742.985	17.48
743.167	17.55
743.348	17.5
743.53	17.4
743.711	17.31
743.893	17.54
744.075	17.39
744.256	17.53
744.438	17.41
744.619	17.46
744.8	17.8
744.982	18.03
745.163	17.7
745.345	17.73
745.526	17.95
745.707	18.46
745.889	18.16
746.07	18.43
746.252	18.49
746.433	18.51
746.614	18.39
746.795	17.77
746.977	17.71
747.158	18.4
747.339	18.54
747.52	18.41
747.702	17.96
747.883	18.21
748.064	18.16
748.245	17.84
748.426	17.89
748.607	17.96
748.788	18.32
748.97	18.23
749.151	18
749.332	17.81
749.513	17.73
749.694	18
749.875	18.04
750.056	17.81
750.237	17.81
750.418	17.9
750.599	18.13
750.78	18.41
750.96	18.4
751.141	18.47
751.322	18.54
751.503	18.98
751.684	18.75
751.865	18.37
752.046	18.53
752.226	18.73
752.407	18.89
752.588	18.71
752.769	18.31
752.949	18.31
753.13	18.18
753.311	18.05
753.492	17.59
753.672	17.97
753.853	18.66
754.034	18.59
754.214	18.65
754.395	18.3
754.575	18.5
754.756	18.63
754.937	18.54
755.117	18.59
755.298	18.88
755.478	18.73
755.659	18.49
755.839	17.82
756.02	17.85
756.2	17.71
756.381	17.82
756.561	17.78
756.741	18.13
756.922	18.16
757.102	18
757.283	18.27
757.463	18.58
757.643	18.65
757.823	18.57
758.004	18.48
758.184	18.56
758.364	18.89
758.545	18.86
758.725	18.59
758.905	18.68
759.085	18.91
759.265	18.47
759.446	18.42
759.626	18.37
759.806	18.5
759.986	18.75
760.166	18.73
760.346	18.67
760.526	18.72
760.706	18.92
760.886	18.87
761.066	18.83
761.246	18.71
761.426	18.78
761.606	18.57
761.786	18.48
761.966	18.39
762.146	18.43
762.326	18.33
762.506	18.1
762.686	18.12
762.866	18.06
763.046	18.09
763.225	18.24
763.405	18.27
763.585	18.25
763.765	18.35
763.945	18.29
764.124	18.24
764.304	18.27
764.484	18.32
764.664	18.19
764.843	18.25
765.023	18.15
765.203	18.15
765.382	17.92
765.562	17.88
765.741	17.86
765.921	17.91
766.101	17.98
766.28	18.12
766.46	18.3
766.639	18.3
766.819	18.33
766.998	18.37
767.178	18.36
767.357	18.44
767.537	18.55
767.716	18.81
767.896	18.79
768.075	18.82
768.254	18.26
768.434	18.37
768.613	18.59
768.792	19.03
768.972	19.14
769.151	18.75
769.33	18.72
769.51	19.17
769.689	19.05
769.868	19.3
770.047	19.9
770.226	20.46
770.406	20.26
770.585	20.16
770.764	19.66
770.943	19.48
771.122	19.47
771.301	20.07
771.48	20.09
771.66	19.82
771.839	19.48
772.018	18.76
772.197	18.59
772.376	18.69
772.555	18.35
772.734	18.48
772.913	18.5
773.092	18.86
773.271	17.99
773.449	17.76
773.628	18.5
773.807	18.69
773.986	18.8
774.165	18.78
774.344	18.84
774.523	18.79
774.701	18.3
774.88	18.5
775.059	17.84
775.238	18.47
775.417	18.68
775.595	18.2
775.774	18.2
775.953	18.01
776.131	18.11
776.31	17.94
776.489	17.79
776.667	18.18
776.846	18.03
777.025	18.58
777.203	18.21
777.382	18.36
777.56	18.1
777.739	17.95
777.917	18.03
778.096	18.2
778.274	18.58
778.453	18.99
778.631	18.92
778.81	18.87
778.988	18.98
779.166	18.64
779.345	18.17
779.523	18.7
779.702	18.85
779.88	18.97
780.058	19.06
780.237	19.03
780.415	19.49
780.593	19.51
780.771	19.73
780.95	20.1
781.128	20.81
781.306	21.07
781.484	21.2
781.662	20.98
781.841	21.14
782.019	21.06
782.197	21.1
782.375	20.68
782.553	21
782.731	21.11
782.909	20.77
783.087	21
783.265	21.01
783.443	20.66
783.621	20.93
783.799	21.23
783.977	21.05
784.155	20.85
784.333	21.22
784.511	20.56
784.689	20.78
784.867	21.08
785.045	20.92
785.223	20.63
785.4	20.83
785.578	20.27
785.756	19.74
785.934	19.68
786.112	19.83
786.289	19.6
786.467	20.06
786.645	19.38
786.823	19.26
787	19.35
787.178	19.01
787.356	18.85
787.533	19.35
787.711	19.54
787.889	19.62
788.066	19.44
788.244	19.17
788.421	19.23
788.599	19.78
788.776	19.91
788.954	19.93
789.131	20.48
789.309	20.87
789.486	20.74
789.664	20.65
789.841	20.63
790.019	20.56
790.196	21.18
790.373	21.05
790.551	21.36
790.728	20.83
790.906	20.83
791.083	20.5
791.26	20.35
791.437	20.46
791.615	20.45
791.792	20.59
791.969	20.69
792.146	20.61
792.324	21.13
792.501	21.1
792.678	21.18
792.855	20.41
793.032	20.79
793.209	20.5
793.387	20.36
793.564	20.6
793.741	20.51
793.918	20.92
794.095	20.43
794.272	19.87
794.449	19.01
794.626	19.74
794.803	20.69
794.98	20.86
795.157	21.18
795.334	21.29
795.511	21.08
795.688	20.96
795.864	20.58
796.041	20.7
796.218	21.52
796.395	22
796.572	21.46
796.749	21.13
796.925	21.16
797.102	21.13
797.279	20.93
797.456	21.04
797.632	20.88
797.809	21.13
797.986	21.47
798.162	20.54
798.339	20.21
798.516	20.84
798.692	21.47
798.869	21.06
799.046	20.91
799.222	21.76
799.399	21.56
799.575	21.99
799.752	21.74
799.928	21.57
800.105	22.16
800.281	22.04
800.458	21.98
800.634	20.92
800.811	20.92
800.987	20.62
801.163	19.69
801.34	19.6
801.516	19.7
801.692	19.83
801.869	20.13
802.045	19.73
802.221	19.94
802.398	19.55
802.574	20.28
802.75	20.4
802.926	21.21
803.103	21.82
803.279	22.32
803.455	22.12
803.631	22.19
803.807	22.24
803.983	22.79
804.16	23.26
804.336	22.86
804.512	22.58
804.688	22.73
804.864	23.19
805.04	22.87
805.216	22.92
805.392	22.93
805.568	22.78
805.744	22.56
805.92	23.02
806.096	23.13
806.272	23.91
806.448	24.46
806.623	24.87
806.799	23.85
806.975	24.13
807.151	23.71
807.327	23.43
807.503	23.52
807.678	23.25
807.854	22.34
808.03	22.32
808.206	22.46
808.381	22.58
808.557	22.18
808.733	22.04
808.908	21.47
809.084	22.43
809.26	22.62
809.435	22.87
809.611	23.14
809.787	23.42
809.962	23.31
810.138	22.68
810.313	22.08
810.489	21.43
810.664	21.93
810.84	22.1
811.015	22.42
811.191	22.47
811.366	22.44
811.542	22.71
811.717	22.58
811.892	23.32
812.068	23.82
812.243	23.85
812.419	24.31
812.594	24.19
812.769	24.53
812.944	23.62
813.12	23.86
813.295	23.93
813.47	23.43
813.645	24.14
813.821	23.03
813.996	23.11
814.171	23.3
814.346	23.71
814.521	23.95
814.697	24.22
814.872	24.36
815.047	24.48
815.222	25.16
815.397	24.68
815.572	24.25
815.747	24.77
815.922	24.69
816.097	24.93
816.272	25.22
816.447	24.73
816.622	24.1
816.797	23.97
816.972	23.58
817.147	23.08
817.322	23.5
817.496	23.23
817.671	23.18
817.846	23.14
818.021	22.73
818.196	23.06
818.371	22.9
818.545	22.93
818.72	23.23
818.895	23.3
819.069	22.74
819.244	23
819.419	22.9
819.594	22.51
819.768	22.32
819.943	21.91
820.117	21.54
820.292	21.59
820.467	21.7
820.641	21.3
820.816	21.24
820.99	21.08
821.165	21.07
821.339	21.06
821.514	21.14
821.688	20.97
821.863	20.87
822.037	20.67
822.212	20.63
822.386	20.52
822.56	20.55
822.735	20.64
822.909	20.74
823.084	20.58
823.258	20.58
823.432	20.46
823.606	20.54
823.781	20.8
823.955	20.88
824.129	20.76
824.303	20.82
824.478	20.93
824.652	20.62
824.826	20.52
825	20.52
825.174	20.67
825.348	20.53
825.523	20.41
825.697	20.33
825.871	20.51
826.045	20.94
826.219	20.97
826.393	21.02
826.567	21.15
826.741	21.63
826.915	21.73
827.089	21.41
827.263	21.64
827.437	21.83
827.611	21.99
827.784	22.06
827.958	21.72
828.132	21.8
828.306	21.84
828.48	21.91
828.654	21.43
828.827	21.26
829.001	21.08
829.175	21.16
829.349	21.65
829.522	21.35
829.696	21.43
829.87	22.4
830.044	23.16
830.217	23.5
830.391	24.05
830.565	23.97
830.738	25.05
830.912	25.62
831.085	25.48
831.259	25.59
831.432	25.5
831.606	25.68
831.779	24.64
831.953	23.85
832.126	23.39
832.3	22.98
832.473	23.16
832.647	22.38
832.82	22.44
832.994	22.45
833.167	21.75
833.34	21.63
833.514	21.13
833.687	21.28
833.86	21.53
834.034	21.4
834.207	21.58
834.38	21.73
834.553	21.87
834.727	21.94
834.9	21.99
835.073	22.5
835.246	22.9
835.419	23.58
835.593	23.44
835.766	23.04
835.939	23.49
836.112	23.78
836.285	23.91
836.458	24.48
836.631	24.39
836.804	24.76
836.977	24.55
837.15	25.07
837.323	24.76
837.496	25.17
837.669	24.31
837.842	25.01
838.015	24.53
838.188	24.46
838.361	22.89
838.533	22.25
838.706	22.84
838.879	23.01
839.052	22.7
839.225	23.24
839.398	23.56
839.57	25.27
839.743	25.19
839.916	24.88
840.088	25.3
840.261	26.63
840.434	27.87
840.607	26.49
840.779	27.59
840.952	28.06
841.124	27.65
841.297	28.7
841.47	29.08
841.642	28.62
841.815	29.01
841.987	28.52
842.16	28.18
842.332	28.11
842.505	30.04
842.677	27.49
842.85	26.96
843.022	26.4
843.194	24.49
843.367	24.51
843.539	24.16
843.712	25.16
843.884	25.55
844.056	27.81
844.229	29.12
844.401	28.47
844.573	29.67
844.745	31.07
844.918	31.58
845.09	33
845.262	32.6
845.434	33.43
845.606	32.07
845.779	31.66
845.951	31.31
846.123	29.73
846.295	29.97
846.467	31.12
846.639	29.89
846.811	30.8
846.983	30.29
847.155	29.54
847.327	29.74
847.499	30.32
847.671	30.49
847.843	28.29
848.015	28.95
848.187	28.6
848.359	28.18
848.531	27.97
848.703	27.13
848.875	28.01
849.047	28.1
849.218	28.61
849.39	28.35
849.562	28.41
849.734	29.64
849.905	30.12
850.077	30.89
850.249	32.03
850.421	32.33
850.592	31.9
850.764	30.72
850.936	30.73
851.107	29.57
851.279	30.02
851.451	30.21
851.622	30.25
851.794	28.77
851.965	28.79
852.137	26.74
852.308	29.63
852.48	32.7
852.651	33.55
852.823	36.39
852.994	36
853.166	36.79
853.337	39.01
853.509	36.36
853.68	36.52
853.851	36.72
854.023	35.48
854.194	32.49
854.365	30.88
854.537	29.27
854.708	27.27
854.879	30.14
855.05	30.03
855.222	28.26
855.393	30.8
855.564	29.96
855.735	28.94
855.906	29.99
856.078	30.81
856.249	31.74
856.42	34.18
856.591	35.22
856.762	33.38
856.933	33.73
857.104	33.41
857.275	32.87
857.446	35.42
857.617	34.78
857.788	35.56
857.959	34.28
858.13	34.79
858.301	34.41
858.472	31.98
858.643	33.11
858.814	34.58
858.985	35.4
859.155	35.21
859.326	33.92
859.497	35.05
859.668	36.14
859.839	39.12
860.009	39.46
860.18	39.32
860.351	40.41
860.522	40.1
860.692	37.35
860.863	37
861.034	38.08
861.204	38.49
861.375	41.75
861.546	42.21
861.716	40.81
861.887	40.83
862.057	40.98
862.228	40.39
862.398	40.07
862.569	40.57
862.739	41.93
862.91	42.7
863.08	43.44
863.251	42.7
863.421	42.22
863.592	42.52
863.762	42.2
863.932	41.41
864.103	40.67
864.273	39.92
864.443	39.67
864.614	38.2
864.784	36.25
864.954	36.92
865.125	35.77
865.295	36.98
865.465	35.79
865.635	33.7
865.805	35.36
865.976	36.1
866.146	37.55
866.316	37.91
866.486	39.91
866.656	39.28
866.826	36.89
866.996	35.1
867.166	34.71
867.336	35.13
867.506	36.77
867.676	36.99
867.846	36.95
868.016	34.82
868.186	34.44
868.356	33.07
868.526	34.73
868.696	35.84
868.866	35.88
869.036	35.49
869.206	35.45
869.376	34.9
869.545	33.2
869.715	33.94
869.885	36.28
870.055	35.84
870.224	35.18
870.394	36.62
870.564	36.76
870.734	37.59
870.903	37.37
871.073	35.43
871.243	36.58
871.412	36.96
871.582	36.04
871.751	35.91
871.921	36.49
872.091	34.56
872.26	34.04
872.43	33.35
872.599	32.9
872.769	32.19
872.938	35.37
873.108	34.17
873.277	33.48
873.446	34.72
873.616	34.22
873.785	34.91
873.955	36.13
874.124	36.29
874.293	36.78
874.463	39
874.632	40.92
874.801	41.01
874.971	40.09
875.14	39.49
875.309	38.79
875.478	38.17
875.647	36.9
875.817	37.35
875.986	37.35
876.155	39.15
876.324	36.9
876.493	35.22
876.662	33.23
876.831	33.43
877	34.02
877.17	34.62
877.339	35.03
877.508	38.08
877.677	39.41
877.846	37.55
878.015	37.07
878.184	37.51
878.352	37.77
878.521	37.39
878.69	39
878.859	38.78
879.028	36.74
879.197	34.89
879.366	32.76
879.534	30.73
879.703	29.66
879.872	27.83
880.041	27.53
880.21	26.44
880.378	25.55
880.547	24.21
880.716	23.98
880.884	24.04
881.053	24.24
881.222	23.87
881.39	23.92
881.559	24.03
881.727	24.2
881.896	23.95
882.065	24.24
882.233	24.59
882.402	25
882.57	24.86
882.739	24.71
882.907	24.45
883.076	24.28
883.244	24.06
883.412	24.06
883.581	24.2
883.749	24.28
883.918	24.22
884.086	24.91
884.254	25.14
884.423	26.27
884.591	26.93
884.759	27.88
884.927	29.02
885.096	29.84
885.264	31.84
885.432	33.34
885.6	32.94
885.769	32.06
885.937	31.19
886.105	31.99
886.273	30.62
886.441	28.66
886.609	29.28
886.777	27.57
886.945	28.79
887.113	29
887.281	26.3
887.449	28.25
887.617	31.49
887.785	31.38
887.953	29.69
888.121	31.33
888.289	34.08
888.457	34.55
888.625	36.79
888.793	38.4
888.961	36
889.129	37.9
889.296	39.67
889.464	39.08
889.632	40.4
889.8	41.96
889.967	41.43
890.135	44.29
