Data from JASIL_2927_Reflection_2.txt Node
Date: Sat Nov 07 20:42:07 EST 2015
User: Geneva
Spectrometer: USB4E03002
Autoset integration time: false
Trigger mode: 4
Integration Time (sec): 1.000000E-1
Scans to average: 10
Electric dark correction enabled: true
Nonlinearity correction enabled: false
Boxcar width: 5
Stray light correction enabled: false
XAxis mode: Wavelengths
Stop averaging: false
Number of Pixels in Spectrum: 3648
>>>>>Begin Spectral Data<<<<<
177.575	-955.29
177.794	-198.31
178.014	-241.58
178.233	-14.81
178.452	-42.81
178.672	31.24
178.891	92.01
179.11	0
179.33	50.46
179.549	655.9
179.768	-45.25
179.987	453.85
180.207	194.77
180.426	136
180.645	94.4
180.864	85.2
181.084	100.14
181.303	99.01
181.522	98.67
181.741	90.14
181.96	87.88
182.179	89.39
182.398	80.23
182.618	72.34
182.837	77.84
183.056	83.92
183.275	86.84
183.494	78.55
183.713	63.52
183.932	70.44
184.151	43.23
184.37	54.5
184.589	34.93
184.808	32.05
185.027	24.21
185.246	12.54
185.465	15.26
185.684	15.71
185.903	21.32
186.122	31.25
186.341	36
186.56	37.53
186.779	26.58
186.998	25.86
187.216	32.72
187.435	29
187.654	23.16
187.873	48.67
188.092	50.58
188.311	40.39
188.53	38.53
188.748	32.66
188.967	24.71
189.186	37.37
189.405	61.7
189.623	58.66
189.842	66.1
190.061	74
190.28	29.42
190.498	24.39
190.717	17.4
190.936	21.63
191.154	0.2
191.373	-6.37
191.592	-38.52
191.81	-69.99
192.029	-55.95
192.248	-74.05
192.466	-46.74
192.685	-9.66
192.904	4.88
193.122	8.42
193.341	3.93
193.559	23.59
193.778	29.49
193.996	33.8
194.215	32.16
194.433	36.3
194.652	32.3
194.87	30.62
195.089	40.45
195.307	49.71
195.526	57.39
195.744	54.35
195.963	57.14
196.181	62.27
196.399	68.71
196.618	82.32
196.836	73.62
197.055	78.14
197.273	83.03
197.491	70.36
197.71	50.98
197.928	37.67
198.146	31.02
198.365	28.91
198.583	35.35
198.801	29.82
199.019	22.86
199.238	22.98
199.456	7.6
199.674	11.05
199.892	5.74
200.111	-6.56
200.329	21.94
200.547	18.7
200.765	0.19
200.983	-22.91
201.202	-16.92
201.42	5
201.638	-6.74
201.856	-4.55
202.074	1.44
202.292	9.17
202.51	10.92
202.728	-11.54
202.946	-19.9
203.165	-23.54
203.383	-29.87
203.601	-16.57
203.819	-15
204.037	-4.48
204.255	17.7
204.473	23.04
204.691	19.05
204.909	18.72
205.127	23.31
205.345	32.7
205.562	36.62
205.78	39.22
205.998	33.95
206.216	31.27
206.434	23.87
206.652	16.11
206.87	19.82
207.088	17.79
207.306	12.04
207.523	18.53
207.741	7.6
207.959	9.9
208.177	18.79
208.395	-2.26
208.612	-27.14
208.83	-9.29
209.048	-27.65
209.266	-77.57
209.483	-98.7
209.701	-96.95
209.919	-83.48
210.136	-75.18
210.354	-49.56
210.572	-31.59
210.79	-15.75
211.007	-4.67
211.225	-4.96
211.442	6.54
211.66	19.35
211.878	21.69
212.095	87.07
212.313	84.28
212.53	83.84
212.748	88.27
212.966	85.37
213.183	78.9
213.401	76.9
213.618	73.99
213.836	82.02
214.053	82.95
214.271	89.1
214.488	21.68
214.705	9.73
214.923	6.87
215.14	8.25
215.358	6.09
215.575	12.87
215.793	20.16
216.01	26.18
216.227	14.44
216.445	7.13
216.662	0.97
216.879	2.88
217.097	11.64
217.314	16.22
217.531	10.44
217.749	4.25
217.966	2.55
218.183	-0.77
218.4	-5.51
218.618	2.39
218.835	14.16
219.052	17.87
219.269	20.87
219.487	12.44
219.704	10.49
219.921	11.17
220.138	14.84
220.355	16.55
220.572	15.32
220.79	14.42
221.007	15.91
221.224	16.96
221.441	16.25
221.658	12.66
221.875	16.41
222.092	17.5
222.309	19.57
222.526	18.93
222.743	17.33
222.96	12.94
223.177	13.19
223.394	11.33
223.611	9.53
223.828	10.66
224.045	12.28
224.262	11.08
224.479	8.74
224.696	7
224.913	6.74
225.13	8.87
225.347	11.65
225.564	10.78
225.781	12.62
225.997	12.01
226.214	11.48
226.431	11.89
226.648	10.92
226.865	10.27
227.082	9.8
227.298	9.15
227.515	8.15
227.732	7.91
227.949	8.41
228.165	7.8
228.382	6.64
228.599	6.29
228.816	6.04
229.032	6.01
229.249	6.31
229.466	6.66
229.682	6.88
229.899	7.5
230.116	7.5
230.332	7.85
230.549	8.84
230.765	10.85
230.982	11.79
231.199	11.93
231.415	12.08
231.632	12.23
231.848	12.68
232.065	13.02
232.281	12.99
232.498	12.75
232.714	12.64
232.931	10.97
233.147	11.05
233.364	10.5
233.58	10.93
233.797	10.69
234.013	10.88
234.23	11.21
234.446	12.1
234.662	12.5
234.879	13.76
235.095	13.09
235.312	13.86
235.528	12.8
235.744	12.67
235.961	12.73
236.177	12.87
236.393	13.2
236.61	12.94
236.826	12.08
237.042	11.7
237.258	11.15
237.475	10.92
237.691	10.44
237.907	11.35
238.123	11.04
238.339	10.79
238.556	10.79
238.772	10.31
238.988	10.16
239.204	9.79
239.42	9.71
239.636	9.28
239.853	9.61
240.069	9.54
240.285	9.15
240.501	8.94
240.717	8.45
240.933	8.49
241.149	8.34
241.365	8.39
241.581	8.15
241.797	7.96
242.013	7.77
242.229	7.82
242.445	7.54
242.661	7.36
242.877	7.23
243.093	7.26
243.309	6.99
243.525	6.84
243.741	6.49
243.957	6.77
244.173	7.14
244.388	7.2
244.604	7.04
244.82	7.24
245.036	7.25
245.252	7.59
245.468	7.5
245.683	7.65
245.899	7.74
246.115	7.5
246.331	7.59
246.547	7.34
246.762	7.24
246.978	7.07
247.194	7.1
247.409	7.04
247.625	6.64
247.841	6.6
248.057	6.44
248.272	6.29
248.488	6.48
248.703	6.21
248.919	6.45
249.135	6.48
249.35	6.34
249.566	6.04
249.782	6
249.997	6.19
250.213	6.52
250.428	6.74
250.644	6.68
250.859	6.55
251.075	6.55
251.29	6.21
251.506	6.02
251.721	6.57
251.937	6.62
252.152	6.97
252.368	7.35
252.583	7.13
252.798	6.83
253.014	6.95
253.229	7.32
253.445	7.2
253.66	7.17
253.875	7.36
254.091	6.19
254.306	6.28
254.521	5.61
254.737	5.25
254.952	4.95
255.167	5.28
255.383	5.46
255.598	5.47
255.813	5.6
256.028	5.65
256.244	5.49
256.459	5.77
256.674	5.45
256.889	5.58
257.104	5.56
257.32	5.63
257.535	5.34
257.75	5.21
257.965	4.97
258.18	4.94
258.395	5.01
258.61	4.95
258.826	5.03
259.041	5.09
259.256	5.09
259.471	5.02
259.686	4.93
259.901	5.06
260.116	5.05
260.331	5.18
260.546	5.13
260.761	5.03
260.976	5.18
261.191	5.16
261.406	5.14
261.621	5.11
261.836	4.86
262.05	5
262.265	4.47
262.48	4.2
262.695	3.96
262.91	3.92
263.125	3.79
263.34	3.78
263.555	4.04
263.769	3.53
263.984	3.66
264.199	4.09
264.414	4.41
264.629	4.43
264.843	4.4
265.058	4.42
265.273	4.77
265.488	4.86
265.702	4.97
265.917	5.15
266.132	5.34
266.346	5.24
266.561	5.31
266.776	5.14
266.99	5.54
267.205	5.75
267.42	5.67
267.634	5.26
267.849	5.3
268.063	4.98
268.278	4.48
268.492	4.68
268.707	4.85
268.922	4.84
269.136	4.69
269.351	4.53
269.565	4.59
269.78	4.34
269.994	4.26
270.209	4.27
270.423	4.67
270.637	4.69
270.852	4.52
271.066	4.44
271.281	4.35
271.495	4.37
271.709	4.49
271.924	4.45
272.138	4.41
272.353	4.72
272.567	4.59
272.781	4.24
272.996	4.38
273.21	4.3
273.424	3.97
273.638	3.95
273.853	3.94
274.067	3.87
274.281	3.87
274.495	4.25
274.71	4.07
274.924	4.07
275.138	4.16
275.352	4.1
275.566	4.48
275.781	4.6
275.995	4.81
276.209	4.99
276.423	4.55
276.637	4.46
276.851	4.29
277.065	4.43
277.279	4.44
277.493	4.8
277.707	4.77
277.921	4.71
278.135	4.85
278.349	4.61
278.563	4.22
278.777	4.31
278.991	4.33
279.205	4.61
279.419	4.72
279.633	4.65
279.847	4.39
280.061	4.38
280.275	4.35
280.489	4.39
280.703	4.34
280.917	4.33
281.131	4.65
281.344	4.43
281.558	4.24
281.772	3.94
281.986	4.12
282.2	4.1
282.414	4.24
282.627	4.19
282.841	4.21
283.055	4.09
283.269	4.06
283.482	3.88
283.696	4.07
283.91	4.22
284.123	4.35
284.337	4.15
284.551	4.09
284.764	3.99
284.978	4.06
285.192	3.91
285.405	4.1
285.619	4.32
285.833	4.21
286.046	4.24
286.26	4.32
286.473	4.2
286.687	4.29
286.9	4.31
287.114	4.23
287.327	4.32
287.541	4.39
287.754	4.24
287.968	4.09
288.181	4.26
288.395	4.21
288.608	3.9
288.822	4.01
289.035	4.15
289.248	4.25
289.462	4.42
289.675	4.43
289.889	4.54
290.102	4.65
290.315	4.79
290.529	4.83
290.742	4.69
290.955	4.79
291.169	4.78
291.382	4.6
291.595	4.48
291.808	4.41
292.022	4.32
292.235	4.15
292.448	4.39
292.661	4.34
292.875	4.35
293.088	4.43
293.301	4.46
293.514	4.35
293.727	4.45
293.94	4.59
294.153	4.57
294.367	4.36
294.58	4.5
294.793	4.2
295.006	4.01
295.219	4.01
295.432	4.07
295.645	4.21
295.858	4.24
296.071	4.19
296.284	4.02
296.497	3.96
296.71	4.1
296.923	3.95
297.136	3.9
297.349	4.08
297.562	3.94
297.775	3.84
297.988	3.64
298.201	3.61
298.414	3.71
298.626	3.78
298.839	3.78
299.052	3.78
299.265	3.6
299.478	3.58
299.691	3.44
299.903	3.55
300.116	3.53
300.329	3.69
300.542	3.72
300.755	3.54
300.967	3.52
301.18	3.49
301.393	3.47
301.605	3.67
301.818	3.78
302.031	4.13
302.243	4
302.456	4.54
302.669	4.35
302.881	4.41
303.094	4.44
303.307	4.73
303.519	4.78
303.732	4.65
303.944	4.84
304.157	4.71
304.37	4.51
304.582	4.64
304.795	4.29
305.007	4.44
305.22	4.5
305.432	4.45
305.645	4.24
305.857	4.37
306.069	4.57
306.282	4.38
306.494	4.69
306.707	4.67
306.919	4.69
307.132	4.53
307.344	4.27
307.556	4.42
307.769	4.57
307.981	4.52
308.193	4.48
308.406	4.16
308.618	4.27
308.83	4.12
309.043	4.17
309.255	4.18
309.467	4.29
309.679	4.61
309.892	4.37
310.104	4.41
310.316	4.37
310.528	4.42
310.74	4.84
310.953	5.01
311.165	5.07
311.377	4.95
311.589	4.96
311.801	4.95
312.013	4.79
312.225	4.86
312.437	4.8
312.649	4.95
312.862	4.9
313.074	4.55
313.286	4.15
313.498	4.19
313.71	4.38
313.922	4.37
314.134	4.56
314.346	4.55
314.558	4.66
314.77	4.56
314.982	4.29
315.193	4.25
315.405	4.07
315.617	4.26
315.829	4.08
316.041	4.08
316.253	3.97
316.465	3.91
316.677	3.83
316.888	4.01
317.1	4.07
317.312	4.49
317.524	4.69
317.736	4.93
317.947	5.11
318.159	5.51
318.371	5.42
318.583	5.73
318.794	5.65
319.006	6.15
319.218	5.75
319.43	5.74
319.641	5.5
319.853	5.32
320.064	5.6
320.276	5.56
320.488	5.25
320.699	5.52
320.911	5.49
321.123	5.9
321.334	5.68
321.546	5.88
321.757	5.84
321.969	5.88
322.18	5.86
322.392	5.55
322.603	5.39
322.815	5.43
323.026	5.26
323.238	5.04
323.449	4.72
323.661	4.69
323.872	4.88
324.083	4.87
324.295	5.02
324.506	5.18
324.718	5.19
324.929	5.51
325.14	5.53
325.352	5.75
325.563	5.95
325.774	6.07
325.986	5.98
326.197	5.82
326.408	6.05
326.62	5.98
326.831	6.07
327.042	6.27
327.253	6.32
327.464	6.57
327.676	6.28
327.887	6.19
328.098	6.17
328.309	6.29
328.52	6.31
328.732	6.49
328.943	6.71
329.154	6.79
329.365	6.68
329.576	6.64
329.787	6.29
329.998	6.4
330.209	6.58
330.42	6.57
330.631	6.54
330.842	6.56
331.053	6.42
331.264	6.39
331.475	6.25
331.686	6.42
331.897	6.34
332.108	6.39
332.319	6.28
332.53	6.33
332.741	6.32
332.952	6.23
333.163	6.41
333.374	6.38
333.585	6.4
333.795	6.4
334.006	6.29
334.217	6.21
334.428	6.54
334.639	6.52
334.849	6.48
335.06	6.64
335.271	6.57
335.482	6.47
335.692	6.42
335.903	6.21
336.114	6.22
336.325	6.37
336.535	6.44
336.746	6.11
336.957	6.12
337.167	6.03
337.378	5.93
337.589	5.87
337.799	6
338.01	6.1
338.22	6.24
338.431	6.24
338.642	6.21
338.852	6.02
339.063	6.02
339.273	6.12
339.484	6.18
339.694	5.99
339.905	6.24
340.115	6.01
340.326	5.87
340.536	5.91
340.746	5.85
340.957	5.57
341.167	5.77
341.378	5.95
341.588	6.02
341.799	5.94
342.009	6.04
342.219	5.99
342.43	6.03
342.64	5.88
342.85	5.67
343.061	5.66
343.271	5.78
343.481	5.76
343.691	5.72
343.902	5.68
344.112	5.69
344.322	5.82
344.532	5.83
344.743	5.9
344.953	5.91
345.163	6.01
345.373	5.94
345.583	6.06
345.793	5.93
346.004	5.9
346.214	5.89
346.424	5.97
346.634	6
346.844	6.06
347.054	6.07
347.264	6.32
347.474	6.29
347.684	6.26
347.894	6.3
348.104	6.45
348.314	6.4
348.524	6.48
348.734	6.57
348.944	6.35
349.154	6.26
349.364	6.21
349.574	6.19
349.784	6.26
349.994	6.39
350.204	6.2
350.413	6.02
350.623	6.01
350.833	5.82
351.043	5.52
351.253	5.71
351.463	5.73
351.672	5.4
351.882	5.33
352.092	5.24
352.302	5.27
352.511	5.26
352.721	5.52
352.931	5.65
353.141	5.64
353.35	5.64
353.56	5.45
353.77	5.53
353.979	5.89
354.189	5.91
354.399	6.07
354.608	5.92
354.818	6.06
355.027	5.94
355.237	5.87
355.447	5.86
355.656	5.86
355.866	6.02
356.075	5.88
356.285	5.68
356.494	5.57
356.704	5.42
356.913	5.49
357.123	5.29
357.332	5.21
357.542	5.29
357.751	5.41
357.96	5.36
358.17	5.28
358.379	5.38
358.589	5.46
358.798	5.61
359.007	5.6
359.217	5.43
359.426	5.47
359.635	5.46
359.845	5.38
360.054	5.23
360.263	5.34
360.472	5.25
360.682	5.27
360.891	5.3
361.1	5.22
361.309	5.21
361.519	5.36
361.728	5.47
361.937	5.53
362.146	5.5
362.355	5.69
362.564	5.65
362.774	5.72
362.983	5.53
363.192	5.53
363.401	5.51
363.61	5.47
363.819	5.42
364.028	5.36
364.237	5.29
364.446	5.35
364.655	5.2
364.864	5.18
365.073	5.31
365.282	5.44
365.491	5.43
365.7	5.5
365.909	5.59
366.118	5.69
366.327	5.64
366.536	5.65
366.745	5.54
366.954	5.6
367.162	5.66
367.371	5.33
367.58	5.21
367.789	5.11
367.998	5.03
368.207	5.03
368.415	4.87
368.624	4.86
368.833	4.82
369.042	4.92
369.25	4.91
369.459	4.98
369.668	5.19
369.877	5.37
370.085	5.47
370.294	5.42
370.503	5.37
370.711	5.39
370.92	5.26
371.129	5.32
371.337	5.27
371.546	5.14
371.754	5
371.963	5.06
372.171	4.94
372.38	4.81
372.589	4.86
372.797	4.8
373.006	4.72
373.214	4.87
373.423	4.84
373.631	4.82
373.84	4.92
374.048	4.87
374.256	4.76
374.465	4.69
374.673	4.72
374.882	4.59
375.09	4.57
375.298	4.68
375.507	4.59
375.715	4.58
375.923	4.56
376.132	4.5
376.34	4.47
376.548	4.47
376.757	4.51
376.965	4.59
377.173	4.78
377.381	4.88
377.59	4.78
377.798	4.85
378.006	4.84
378.214	4.91
378.423	4.93
378.631	4.95
378.839	4.9
379.047	4.94
379.255	4.75
379.463	4.61
379.671	4.45
379.879	4.5
380.088	4.44
380.296	4.33
380.504	4.26
380.712	4.23
380.92	4.31
381.128	4.23
381.336	4.14
381.544	4.24
381.752	4.26
381.96	4.23
382.168	4.14
382.376	4.09
382.584	4.1
382.791	4.06
382.999	4.03
383.207	4.01
383.415	4.04
383.623	4.03
383.831	3.96
384.039	3.94
384.247	4.01
384.454	4.11
384.662	4.22
384.87	4.26
385.078	4.25
385.285	4.35
385.493	4.33
385.701	4.4
385.909	4.42
386.116	4.4
386.324	4.4
386.532	4.34
386.739	4.32
386.947	4.19
387.155	4.07
387.362	4.07
387.57	4.02
387.778	3.98
387.985	3.98
388.193	3.99
388.4	4.12
388.608	4.05
388.816	4.17
389.023	4.08
389.231	4.07
389.438	4.12
389.646	4.11
389.853	4.09
390.061	4.12
390.268	4.13
390.475	4.11
390.683	4
390.89	4.05
391.098	3.93
391.305	3.92
391.512	3.92
391.72	3.88
391.927	3.79
392.135	3.71
392.342	3.6
392.549	3.55
392.756	3.52
392.964	3.51
393.171	3.47
393.378	3.49
393.586	3.53
393.793	3.55
394	3.53
394.207	3.58
394.414	3.65
394.622	3.72
394.829	3.64
395.036	3.59
395.243	3.61
395.45	3.56
395.657	3.52
395.864	3.49
396.072	3.48
396.279	3.56
396.486	3.44
396.693	3.46
396.9	3.45
397.107	3.4
397.314	3.45
397.521	3.4
397.728	3.4
397.935	3.45
398.142	3.45
398.349	3.43
398.556	3.38
398.763	3.5
398.97	3.45
399.177	3.44
399.383	3.56
399.59	3.47
399.797	3.45
400.004	3.45
400.211	3.39
400.418	3.31
400.625	3.33
400.831	3.33
401.038	3.26
401.245	3.13
401.452	3.05
401.658	3.03
401.865	3.12
402.072	3.16
402.279	3.19
402.485	3.23
402.692	3.28
402.899	3.23
403.105	3.27
403.312	3.26
403.519	3.28
403.725	3.31
403.932	3.3
404.138	3.21
404.345	3.1
404.552	3.06
404.758	2.99
404.965	2.96
405.171	2.94
405.378	2.84
405.584	2.87
405.791	2.84
405.997	2.85
406.204	2.84
406.41	2.85
406.617	2.96
406.823	2.9
407.029	2.93
407.236	2.93
407.442	2.89
407.649	3.07
407.855	3.11
408.061	3.11
408.268	3.07
408.474	2.97
408.68	3
408.887	2.88
409.093	2.97
409.299	2.97
409.505	3.01
409.712	3.03
409.918	2.91
410.124	2.8
410.33	2.87
410.537	2.88
410.743	2.94
410.949	2.92
411.155	3.02
411.361	2.99
411.567	2.95
411.773	2.91
411.98	2.9
412.186	2.86
412.392	2.88
412.598	2.81
412.804	2.82
413.01	2.76
413.216	2.69
413.422	2.67
413.628	2.72
413.834	2.71
414.04	2.69
414.246	2.7
414.452	2.67
414.658	2.62
414.864	2.62
415.07	2.63
415.275	2.67
415.481	2.74
415.687	2.67
415.893	2.58
416.099	2.59
416.305	2.6
416.511	2.59
416.716	2.61
416.922	2.62
417.128	2.66
417.334	2.63
417.539	2.58
417.745	2.57
417.951	2.54
418.157	2.55
418.362	2.56
418.568	2.51
418.774	2.46
418.979	2.44
419.185	2.43
419.391	2.44
419.596	2.44
419.802	2.43
420.008	2.38
420.213	2.76
420.419	2.73
420.624	2.72
420.83	2.74
421.035	2.75
421.241	2.78
421.446	2.85
421.652	2.83
421.857	2.8
422.063	2.82
422.268	2.8
422.474	2.42
422.679	2.44
422.885	2.43
423.09	2.47
423.295	2.46
423.501	2.41
423.706	2.33
423.911	2.32
424.117	2.34
424.322	2.36
424.527	2.41
424.733	2.43
424.938	2.43
425.143	2.44
425.349	2.39
425.554	2.45
425.759	2.48
425.964	2.5
426.169	2.5
426.375	2.48
426.58	2.44
426.785	2.45
426.99	2.45
427.195	2.41
427.4	2.4
427.605	2.42
427.811	2.36
428.016	2.37
428.221	2.38
428.426	2.35
428.631	2.34
428.836	2.33
429.041	2.29
429.246	2.33
429.451	2.38
429.656	2.38
429.861	2.36
430.066	2.37
430.271	2.37
430.476	2.31
430.681	2.31
430.886	2.31
431.09	2.35
431.295	2.34
431.5	2.28
431.705	2.26
431.91	2.22
432.115	2.26
432.32	2.26
432.524	2.17
432.729	2.15
432.934	2.19
433.139	2.16
433.343	2.17
433.548	2.17
433.753	2.22
433.958	2.2
434.162	2.2
434.367	2.14
434.572	2.08
434.776	2.15
434.981	2.21
435.186	2.16
435.39	2.17
435.595	2.19
435.799	2.18
436.004	2.17
436.209	2.17
436.413	2.18
436.618	2.19
436.822	2.22
437.027	2.17
437.231	2.16
437.436	2.12
437.64	2.13
437.845	2.09
438.049	2.1
438.253	2.05
438.458	2.07
438.662	2.07
438.867	2.09
439.071	2.14
439.275	2.18
439.48	2.17
439.684	2.19
439.888	2.17
440.093	2.14
440.297	2.13
440.501	2.12
440.706	2.13
440.91	2.17
441.114	2.15
441.318	2.12
441.523	2.09
441.727	2.12
441.931	2.18
442.135	2.21
442.339	2.2
442.543	2.23
442.748	2.27
442.952	2.26
443.156	2.23
443.36	2.21
443.564	2.2
443.768	2.19
443.972	2.17
444.176	2.13
444.38	2.11
444.584	2.12
444.788	2.08
444.992	2.05
445.196	2.04
445.4	2.04
445.604	2.08
445.808	2.1
446.012	2.09
446.216	2.08
446.42	2.07
446.624	2.1
446.828	2.09
447.032	2.1
447.235	2.11
447.439	2.1
447.643	2.12
447.847	2.08
448.051	2.04
448.254	2.05
448.458	2.01
448.662	2.03
448.866	1.99
449.069	2.02
449.273	2.06
449.477	2.1
449.681	2.11
449.884	2.1
450.088	2.13
450.292	2.14
450.495	2.19
450.699	2.23
450.902	2.21
451.106	2.23
451.31	2.19
451.513	2.16
451.717	2.08
451.92	2.09
452.124	2.03
452.327	2.04
452.531	2.03
452.734	1.97
452.938	1.94
453.141	1.96
453.345	1.97
453.548	2
453.752	1.99
453.955	1.97
454.158	1.95
454.362	1.99
454.565	1.96
454.769	1.97
454.972	1.98
455.175	1.98
455.379	1.97
455.582	1.92
455.785	1.9
455.988	1.89
456.192	1.87
456.395	1.85
456.598	1.87
456.801	1.86
457.005	1.87
457.208	1.83
457.411	1.81
457.614	1.78
457.817	1.83
458.021	1.82
458.224	1.82
458.427	1.88
458.63	1.92
458.833	1.91
459.036	1.94
459.239	1.91
459.442	1.92
459.645	1.94
459.848	1.98
460.051	1.97
460.254	1.96
460.457	1.98
460.66	1.95
460.863	1.9
461.066	1.91
461.269	1.9
461.472	1.96
461.675	1.99
461.878	2
462.081	1.97
462.284	2.01
462.486	2
462.689	1.98
462.892	2.03
463.095	2.09
463.298	2.04
463.5	2.06
463.703	2
463.906	2.02
464.109	2.01
464.311	2.09
464.514	2.03
464.717	2
464.92	2.01
465.122	1.97
465.325	1.99
465.528	2
465.73	1.98
465.933	1.96
466.135	1.99
466.338	2.01
466.541	1.96
466.743	2.03
466.946	2.07
467.148	2.08
467.351	2.09
467.553	2.06
467.756	2.11
467.958	2.13
468.161	2.18
468.363	2.09
468.566	2.05
468.768	2.02
468.971	1.96
469.173	2
469.375	2
469.578	2.04
469.78	2
469.983	1.98
470.185	1.94
470.387	1.95
470.59	1.96
470.792	1.97
470.994	2.02
471.196	2.07
471.399	1.99
471.601	1.97
471.803	1.94
472.005	1.95
472.208	1.96
472.41	1.97
472.612	1.92
472.814	1.93
473.016	1.99
473.218	1.98
473.421	1.93
473.623	1.97
473.825	1.99
474.027	2.03
474.229	2
474.431	1.98
474.633	1.98
474.835	2
475.037	1.97
475.239	1.93
475.441	1.93
475.643	1.89
475.845	1.89
476.047	1.89
476.249	1.85
476.451	1.88
476.653	1.92
476.855	1.89
477.057	1.86
477.258	1.88
477.46	1.88
477.662	1.88
477.864	1.9
478.066	1.88
478.268	1.89
478.469	1.92
478.671	1.91
478.873	1.82
479.075	1.84
479.276	1.85
479.478	1.87
479.68	1.87
479.882	1.9
480.083	1.94
480.285	1.94
480.487	1.93
480.688	1.89
480.89	1.93
481.091	1.95
481.293	1.96
481.495	1.95
481.696	1.93
481.898	1.92
482.099	1.91
482.301	1.89
482.502	1.88
482.704	1.86
482.905	1.86
483.107	1.83
483.308	1.83
483.51	1.82
483.711	1.82
483.913	1.82
484.114	1.82
484.315	1.8
484.517	1.82
484.718	1.83
484.92	1.84
485.121	1.85
485.322	1.87
485.524	1.86
485.725	1.88
485.926	1.89
486.127	1.91
486.329	1.9
486.53	1.91
486.731	1.91
486.932	1.9
487.134	1.88
487.335	1.86
487.536	1.85
487.737	1.87
487.938	1.86
488.139	1.84
488.341	1.83
488.542	1.84
488.743	1.84
488.944	1.81
489.145	1.82
489.346	1.83
489.547	1.87
489.748	1.89
489.949	1.88
490.15	1.87
490.351	1.88
490.552	1.89
490.753	1.86
490.954	1.84
491.155	1.84
491.356	1.83
491.557	1.83
491.758	1.83
491.959	1.82
492.159	1.82
492.36	1.83
492.561	1.83
492.762	1.83
492.963	1.86
493.164	1.88
493.364	1.89
493.565	1.92
493.766	1.93
493.967	1.93
494.167	1.92
494.368	1.95
494.569	1.96
494.769	1.96
494.97	1.95
495.171	1.98
495.371	1.96
495.572	1.97
495.773	2
495.973	1.99
496.174	2
496.375	2.03
496.575	2
496.776	1.99
496.976	2.03
497.177	2.07
497.377	2.05
497.578	2.09
497.778	2.07
497.979	2.04
498.179	2.08
498.38	2.08
498.58	2.09
498.78	2.09
498.981	2.16
499.181	2.15
499.382	2.1
499.582	2.13
499.782	2.15
499.983	2.14
500.183	2.2
500.383	2.18
500.584	2.17
500.784	2.18
500.984	2.2
501.184	2.12
501.385	2.1
501.585	2.13
501.785	2.15
501.985	2.14
502.185	2.15
502.386	2.12
502.586	2.14
502.786	2.2
502.986	2.22
503.186	2.25
503.386	2.3
503.586	2.32
503.786	2.3
503.987	2.3
504.187	2.32
504.387	2.37
504.587	2.42
504.787	2.42
504.987	2.4
505.187	2.4
505.387	2.38
505.587	2.36
505.786	2.4
505.986	2.4
506.186	2.39
506.386	2.39
506.586	2.4
506.786	2.37
506.986	2.36
507.186	2.35
507.386	2.36
507.585	2.4
507.785	2.43
507.985	2.44
508.185	2.5
508.384	2.5
508.584	2.51
508.784	2.49
508.984	2.52
509.183	2.56
509.383	2.59
509.583	2.59
509.782	2.62
509.982	2.61
510.182	2.61
510.381	2.62
510.581	2.68
510.781	2.69
510.98	2.71
511.18	2.69
511.379	2.72
511.579	2.74
511.778	2.77
511.978	2.76
512.177	2.79
512.377	2.81
512.576	2.79
512.776	2.82
512.975	2.83
513.175	2.86
513.374	2.92
513.573	2.93
513.773	2.98
513.972	3
514.172	3.06
514.371	3.06
514.57	3.06
514.77	3.12
514.969	3.12
515.168	3.18
515.367	3.19
515.567	3.18
515.766	3.19
515.965	3.19
516.164	3.18
516.364	3.19
516.563	3.22
516.762	3.26
516.961	3.24
517.16	3.25
517.359	3.27
517.559	3.3
517.758	3.31
517.957	3.3
518.156	3.3
518.355	3.33
518.554	3.31
518.753	3.31
518.952	3.3
519.151	3.33
519.35	3.35
519.549	3.35
519.748	3.35
519.947	3.39
520.146	3.45
520.345	3.46
520.544	3.49
520.743	3.54
520.942	3.56
521.141	3.61
521.339	3.59
521.538	3.6
521.737	3.63
521.936	3.66
522.135	3.65
522.333	3.66
522.532	3.68
522.731	3.69
522.93	3.68
523.129	3.68
523.327	3.68
523.526	3.69
523.725	3.69
523.923	3.68
524.122	3.68
524.321	3.72
524.519	3.72
524.718	3.71
524.917	3.72
525.115	3.73
525.314	3.76
525.512	3.78
525.711	3.83
525.909	3.86
526.108	3.86
526.306	3.86
526.505	3.86
526.703	3.86
526.902	3.89
527.1	3.9
527.299	3.92
527.497	3.94
527.696	3.96
527.894	3.97
528.092	3.96
528.291	3.98
528.489	4.01
528.688	4.01
528.886	4.04
529.084	4.06
529.283	4.07
529.481	4.09
529.679	4.09
529.877	4.1
530.076	4.11
530.274	4.15
530.472	4.2
530.67	4.23
530.869	4.27
531.067	4.28
531.265	4.29
531.463	4.33
531.661	4.33
531.859	4.37
532.057	4.39
532.255	4.41
532.454	4.42
532.652	4.42
532.85	4.42
533.048	4.43
533.246	4.42
533.444	4.46
533.642	4.48
533.84	4.51
534.038	4.53
534.236	4.58
534.434	4.62
534.632	4.64
534.83	4.66
535.027	4.7
535.225	4.74
535.423	4.79
535.621	4.79
535.819	4.81
536.017	4.82
536.215	4.84
536.412	4.81
536.61	4.81
536.808	4.82
537.006	4.83
537.203	4.86
537.401	4.88
537.599	4.87
537.797	4.91
537.994	4.96
538.192	5.01
538.39	5.02
538.587	5.01
538.785	5.05
538.983	5.1
539.18	5.13
539.378	5.14
539.575	5.15
539.773	5.19
539.97	5.22
540.168	5.21
540.366	5.21
540.563	5.22
540.761	5.26
540.958	5.28
541.155	5.3
541.353	5.31
541.55	5.33
541.748	5.35
541.945	5.37
542.143	5.35
542.34	5.39
542.537	5.41
542.735	5.46
542.932	5.5
543.129	5.52
543.327	5.57
543.524	5.61
543.721	5.64
543.919	5.67
544.116	5.72
544.313	5.8
544.51	5.86
544.708	5.89
544.905	5.87
545.102	5.85
545.299	5.87
545.496	5.88
545.693	5.91
545.891	5.93
546.088	5.94
546.285	5.93
546.482	5.94
546.679	5.95
546.876	5.98
547.073	6.03
547.27	6.13
547.467	6.16
547.664	6.18
547.861	6.21
548.058	6.21
548.255	6.25
548.452	6.28
548.649	6.32
548.846	6.37
549.043	6.35
549.24	6.42
549.437	6.4
549.633	6.41
549.83	6.45
550.027	6.47
550.224	6.51
550.421	6.55
550.618	6.57
550.814	6.59
551.011	6.6
551.208	6.72
551.405	6.75
551.601	6.81
551.798	6.84
551.995	6.86
552.191	6.86
552.388	6.87
552.585	6.92
552.781	7.01
552.978	7.08
553.175	7.08
553.371	7.04
553.568	7.06
553.764	7.1
553.961	7.16
554.157	7.17
554.354	7.25
554.55	7.35
554.747	7.37
554.943	7.39
555.14	7.41
555.336	7.5
555.533	7.55
555.729	7.61
555.926	7.61
556.122	7.63
556.318	7.71
556.515	7.76
556.711	7.76
556.907	7.8
557.104	7.84
557.3	7.8
557.496	7.83
557.693	7.87
557.889	7.83
558.085	7.89
558.281	7.94
558.478	7.94
558.674	7.97
558.87	8.02
559.066	8.06
559.262	8.08
559.459	8.17
559.655	8.15
559.851	8.17
560.047	8.21
560.243	8.21
560.439	8.19
560.635	8.26
560.831	8.24
561.027	8.29
561.223	8.32
561.419	8.38
561.615	8.4
561.811	8.48
562.007	8.5
562.203	8.5
562.399	8.59
562.595	8.62
562.791	8.6
562.987	8.61
563.183	8.59
563.379	8.6
563.575	8.57
563.771	8.58
563.966	8.58
564.162	8.62
564.358	8.7
564.554	8.68
564.75	8.74
564.945	8.76
565.141	8.82
565.337	8.86
565.533	8.92
565.728	8.96
565.924	8.99
566.12	9.05
566.315	9.12
566.511	9.14
566.707	9.16
566.902	9.15
567.098	9.22
567.293	9.25
567.489	9.27
567.684	9.27
567.88	9.23
568.076	9.26
568.271	9.27
568.467	9.24
568.662	9.31
568.858	9.34
569.053	9.41
569.248	9.39
569.444	9.36
569.639	9.41
569.835	9.49
570.03	9.58
570.225	9.56
570.421	9.6
570.616	9.65
570.812	9.61
571.007	9.57
571.202	9.61
571.397	9.6
571.593	9.65
571.788	9.66
571.983	9.64
572.178	9.66
572.374	9.69
572.569	9.72
572.764	9.71
572.959	9.75
573.154	9.83
573.35	9.85
573.545	9.92
573.74	9.92
573.935	9.91
574.13	9.94
574.325	9.92
574.52	9.94
574.715	9.91
574.91	9.97
575.105	9.98
575.3	10
575.495	10.02
575.69	10.07
575.885	10.07
576.08	10.12
576.275	10.14
576.47	10.21
576.665	10.29
576.86	10.32
577.055	10.33
577.25	10.36
577.444	10.41
577.639	10.36
577.834	10.34
578.029	10.43
578.224	10.43
578.418	10.47
578.613	10.4
578.808	10.42
579.003	10.46
579.197	10.46
579.392	10.52
579.587	10.53
579.781	10.57
579.976	10.59
580.171	10.52
580.365	10.55
580.56	10.52
580.755	10.57
580.949	10.56
581.144	10.56
581.338	10.55
581.533	10.49
581.727	10.46
581.922	10.47
582.116	10.52
582.311	10.53
582.505	10.58
582.7	10.62
582.894	10.66
583.089	10.68
583.283	10.64
583.478	10.65
583.672	10.75
583.866	10.79
584.061	10.84
584.255	10.82
584.449	10.87
584.644	10.85
584.838	10.88
585.032	10.91
585.226	10.84
585.421	10.87
585.615	10.91
585.809	10.89
586.003	10.88
586.198	10.88
586.392	10.93
586.586	10.97
586.78	11.01
586.974	10.98
587.168	10.99
587.363	11.08
587.557	11.08
587.751	11.09
587.945	10.98
588.139	11
588.333	10.96
588.527	10.94
588.721	10.92
588.915	10.89
589.109	10.86
589.303	10.82
589.497	10.83
589.691	10.85
589.885	10.87
590.079	11.03
590.273	11.05
590.466	11.11
590.66	11.14
590.854	11.17
591.048	11.13
591.242	11.22
591.436	11.24
591.629	11.21
591.823	11.23
592.017	11.26
592.211	11.2
592.404	11.18
592.598	11.15
592.792	11.19
592.986	11.2
593.179	11.27
593.373	11.22
593.567	11.23
593.76	11.24
593.954	11.2
594.147	11.15
594.341	11.18
594.535	11.21
594.728	11.23
594.922	11.25
595.115	11.2
595.309	11.2
595.502	11.26
595.696	11.25
595.889	11.28
596.083	11.33
596.276	11.33
596.47	11.33
596.663	11.34
596.856	11.31
597.05	11.26
597.243	11.29
597.437	11.29
597.63	11.26
597.823	11.31
598.017	11.35
598.21	11.34
598.403	11.39
598.596	11.41
598.79	11.46
598.983	11.55
599.176	11.57
599.369	11.6
599.563	11.59
599.756	11.58
599.949	11.53
600.142	11.49
600.335	11.49
600.528	11.44
600.722	11.48
600.915	11.48
601.108	11.45
601.301	11.47
601.494	11.43
601.687	11.43
601.88	11.49
602.073	11.53
602.266	11.52
602.459	11.54
602.652	11.57
602.845	11.56
603.038	11.54
603.231	11.52
603.424	11.53
603.617	11.52
603.809	11.53
604.002	11.55
604.195	11.55
604.388	11.55
604.581	11.55
604.774	11.5
604.966	11.56
605.159	11.55
605.352	11.62
605.545	11.61
605.737	11.68
605.93	11.66
606.123	11.63
606.316	11.68
606.508	11.7
606.701	11.76
606.894	11.91
607.086	11.85
607.279	11.86
607.471	11.88
607.664	11.9
607.857	11.93
608.049	11.99
608.242	12.03
608.434	12.04
608.627	12.1
608.819	12.11
609.012	12.08
609.204	12.05
609.397	12.11
609.589	12.1
609.782	12.11
609.974	12.13
610.166	12.19
610.359	12.16
610.551	12.21
610.743	12.21
610.936	12.18
611.128	12.18
611.32	12.25
611.513	12.24
611.705	12.31
611.897	12.3
612.09	12.3
612.282	12.28
612.474	12.3
612.666	12.32
612.858	12.28
613.051	12.25
613.243	12.17
613.435	12.2
613.627	12.18
613.819	12.09
614.011	12.12
614.203	12.05
614.395	11.97
614.588	11.88
614.78	11.8
614.972	11.8
615.164	11.83
615.356	11.91
615.548	11.89
615.74	11.88
615.932	11.85
616.124	11.87
616.315	11.87
616.507	11.86
616.699	11.95
616.891	11.95
617.083	12.01
617.275	12.09
617.467	12.03
617.659	11.92
617.85	11.89
618.042	11.95
618.234	11.93
618.426	11.93
618.618	12.06
618.809	12.07
619.001	12.07
619.193	12.03
619.384	12.03
619.576	12.16
619.768	12.29
619.959	12.32
620.151	12.34
620.343	12.31
620.534	12.3
620.726	12.19
620.917	12.22
621.109	12.2
621.301	12.21
621.492	12.08
621.684	11.95
621.875	11.83
622.067	11.83
622.258	11.86
622.45	11.84
622.641	11.91
622.832	11.99
623.024	11.95
623.215	11.95
623.407	12
623.598	12.09
623.789	12.16
623.981	12.2
624.172	12.32
624.363	12.29
624.555	12.34
624.746	12.33
624.937	12.35
625.129	12.34
625.32	12.34
625.511	12.34
625.702	12.29
625.893	12.28
626.085	12.28
626.276	12.28
626.467	12.21
626.658	12.23
626.849	12.24
627.04	12.16
627.231	12.2
627.422	12.27
627.614	12.24
627.805	12.28
627.996	12.23
628.187	12.25
628.378	12.18
628.569	12.26
628.76	12.2
628.951	12.23
629.142	12.3
629.332	12.26
629.523	12.24
629.714	12.24
629.905	12.24
630.096	12.28
630.287	12.32
630.478	12.32
630.669	12.35
630.859	12.4
631.05	12.41
631.241	12.37
631.432	12.38
631.623	12.38
631.813	12.43
632.004	12.4
632.195	12.53
632.385	12.44
632.576	12.46
632.767	12.45
632.957	12.47
633.148	12.48
633.339	12.5
633.529	12.52
633.72	12.49
633.91	12.4
634.101	12.38
634.292	12.27
634.482	12.26
634.673	12.18
634.863	12.13
635.054	12.09
635.244	12.08
635.435	12.11
635.625	12.09
635.815	12.11
636.006	12.14
636.196	12.23
636.387	12.29
636.577	12.37
636.767	12.48
636.958	12.54
637.148	12.56
637.338	12.47
637.529	12.45
637.719	12.48
637.909	12.47
638.099	12.53
638.29	12.46
638.48	12.54
638.67	12.59
638.86	12.51
639.05	12.5
639.241	12.46
639.431	12.51
639.621	12.46
639.811	12.5
640.001	12.39
640.191	12.42
640.381	12.45
640.571	12.28
640.761	12.22
640.951	12.23
641.141	12.28
641.331	12.32
641.521	12.34
641.711	12.35
641.901	12.26
642.091	12.38
642.281	12.34
642.471	12.29
642.661	12.41
642.851	12.45
643.041	12.5
643.231	12.43
643.42	12.47
643.61	12.45
643.8	12.42
643.99	12.46
644.18	12.47
644.369	12.48
644.559	12.51
644.749	12.47
644.939	12.25
645.128	12.18
645.318	12.19
645.508	12.25
645.697	12.25
645.887	12.37
646.076	12.36
646.266	12.37
646.456	12.44
646.645	12.41
646.835	12.35
647.024	12.52
647.214	12.61
647.403	12.63
647.593	12.62
647.782	12.65
647.972	12.58
648.161	12.45
648.351	12.54
648.54	12.46
648.73	12.45
648.919	12.59
649.108	12.56
649.298	12.46
649.487	12.51
649.677	12.49
649.866	12.48
650.055	12.53
650.244	12.68
650.434	12.57
650.623	12.64
650.812	12.65
651.002	12.56
651.191	12.57
651.38	12.6
651.569	12.52
651.758	12.5
651.947	12.51
652.137	12.44
652.326	12.38
652.515	12.31
652.704	12.37
652.893	12.42
653.082	12.45
653.271	12.54
653.46	12.57
653.649	12.67
653.838	12.64
654.027	12.69
654.216	12.71
654.405	12.81
654.594	12.9
654.783	12.83
654.972	12.76
655.161	12.74
655.35	12.72
655.539	12.74
655.728	12.73
655.916	12.67
656.105	12.69
656.294	12.7
656.483	12.6
656.672	12.59
656.86	12.53
657.049	12.61
657.238	12.6
657.427	12.59
657.615	12.57
657.804	12.5
657.993	12.59
658.181	12.46
658.37	12.49
658.559	12.57
658.747	12.58
658.936	12.57
659.125	12.44
659.313	12.48
659.502	12.47
659.69	12.46
659.879	12.52
660.067	12.51
660.256	12.63
660.444	12.71
660.633	12.68
660.821	12.62
661.01	12.73
661.198	12.88
661.387	12.88
661.575	12.95
661.763	13.03
661.952	13.03
662.14	13.02
662.328	13.02
662.517	12.91
662.705	12.93
662.893	13.04
663.082	13.05
663.27	13
663.458	13
663.646	12.94
663.834	12.92
664.023	12.92
664.211	12.93
664.399	12.84
664.587	12.9
664.775	12.93
664.963	12.94
665.152	12.86
665.34	12.88
665.528	12.85
665.716	12.86
665.904	12.87
666.092	12.83
666.28	12.87
666.468	13.01
666.656	13.01
666.844	13.04
667.032	13.05
667.22	13.11
667.408	13.19
667.596	13.28
667.784	13.31
667.971	13.25
668.159	13.3
668.347	13.24
668.535	13.08
668.723	13.07
668.911	13.04
669.098	12.96
669.286	12.87
669.474	12.88
669.662	12.76
669.849	12.91
670.037	12.86
670.225	12.81
670.413	12.85
670.6	12.96
670.788	12.99
670.976	12.94
671.163	13.01
671.351	13.03
671.538	13.03
671.726	13.11
671.913	12.98
672.101	13.05
672.289	13.18
672.476	13.26
672.664	13.24
672.851	13.21
673.039	13.16
673.226	13.17
673.413	13.14
673.601	13.03
673.788	12.96
673.976	12.93
674.163	12.94
674.35	12.93
674.538	12.87
674.725	12.92
674.912	12.95
675.1	13.13
675.287	13.1
675.474	13.22
675.662	13.4
675.849	13.46
676.036	13.55
676.223	13.62
676.411	13.5
676.598	13.46
676.785	13.46
676.972	13.5
677.159	13.49
677.346	13.56
677.533	13.56
677.721	13.56
677.908	13.52
678.095	13.48
678.282	13.47
678.469	13.55
678.656	13.56
678.843	13.51
679.03	13.42
679.217	13.41
679.404	13.3
679.591	13.26
679.778	13.1
679.964	13.11
680.151	13.2
680.338	13.18
680.525	13.19
680.712	13.1
680.899	13.12
681.086	13.11
681.272	13.07
681.459	13.24
681.646	13.3
681.833	13.37
682.02	13.39
682.206	13.32
682.393	13.23
682.58	13.12
682.766	13.32
682.953	13.31
683.14	13.41
683.326	13.54
683.513	13.39
683.7	13.35
683.886	13.35
684.073	13.3
684.259	13.34
684.446	13.47
684.632	13.59
684.819	13.37
685.005	13.5
685.192	13.53
685.378	13.48
685.565	13.55
685.751	13.58
685.938	13.58
686.124	13.62
686.31	13.61
686.497	13.6
686.683	13.64
686.87	13.9
687.056	13.76
687.242	13.66
687.429	13.61
687.615	13.56
687.801	13.59
687.987	13.53
688.174	13.58
688.36	13.6
688.546	13.54
688.732	13.47
688.918	13.35
689.105	13.41
689.291	13.31
689.477	13.31
689.663	13.32
689.849	13.24
690.035	13.3
690.221	13.3
690.407	13.21
690.593	13.22
690.779	13.29
690.965	13.36
691.151	13.47
691.337	13.72
691.523	13.72
691.709	13.73
691.895	13.75
692.081	13.83
692.267	13.95
692.453	13.95
692.639	13.93
692.825	13.8
693.011	13.72
693.196	13.58
693.382	13.55
693.568	13.55
693.754	13.51
693.94	13.48
694.125	13.32
694.311	13.15
694.497	13.31
694.682	13.31
694.868	13.4
695.054	13.32
695.239	13.3
695.425	13.32
695.611	13.46
695.796	13.65
695.982	13.69
696.168	13.74
696.353	13.86
696.539	13.83
696.724	13.87
696.91	13.89
697.095	13.9
697.281	13.85
697.466	13.77
697.652	13.63
697.837	13.57
698.023	13.63
698.208	13.64
698.393	13.62
698.579	13.52
698.764	13.51
698.949	13.46
699.135	13.49
699.32	13.6
699.505	13.6
699.691	13.67
699.876	13.66
700.061	13.6
700.246	13.56
700.432	13.48
700.617	13.7
700.802	13.72
700.987	13.78
701.172	13.87
701.358	13.82
701.543	14.03
701.728	14.15
701.913	14.15
702.098	14.26
702.283	14.46
702.468	14.53
702.653	14.25
702.838	14.31
703.023	14.29
703.208	14.22
703.393	14.25
703.578	14.04
703.763	13.94
703.948	13.9
704.133	13.85
704.318	13.59
704.503	13.61
704.688	13.73
704.873	13.92
705.057	14.02
705.242	13.98
705.427	13.99
705.612	13.97
705.797	14.11
705.981	14.33
706.166	14.45
706.351	14.61
706.536	14.55
706.72	14.5
706.905	14.23
707.09	14.09
707.274	14.11
707.459	14.15
707.644	14.15
707.828	14.03
708.013	13.89
708.197	13.77
708.382	13.67
708.567	13.66
708.751	13.68
708.936	13.69
709.12	13.79
709.305	13.92
709.489	13.87
709.673	13.88
709.858	13.8
710.042	13.76
710.227	13.7
710.411	13.83
710.596	13.92
710.78	13.9
710.964	13.97
711.149	13.9
711.333	13.84
711.517	13.9
711.702	13.9
711.886	13.98
712.07	13.9
712.254	14.06
712.438	13.97
712.623	13.83
712.807	13.95
712.991	13.99
713.175	14.1
713.359	14.15
713.544	14.15
713.728	14.26
713.912	14.23
714.096	14.38
714.28	14.18
714.464	14.18
714.648	14.24
714.832	14.15
715.016	14.11
715.2	13.93
715.384	13.9
715.568	13.84
715.752	13.75
715.936	13.73
716.12	13.72
716.304	13.75
716.488	13.82
716.671	13.77
716.855	13.7
717.039	13.58
717.223	13.65
717.407	13.51
717.59	13.4
717.774	13.36
717.958	13.36
718.142	13.36
718.325	13.35
718.509	13.35
718.693	13.51
718.877	13.52
719.06	13.49
719.244	13.33
719.428	13.44
719.611	13.65
719.795	13.64
719.978	13.76
720.162	13.75
720.345	13.74
720.529	13.74
720.713	13.6
720.896	13.76
721.08	14
721.263	14.07
721.446	14.04
721.63	14.21
721.813	14.18
721.997	14.14
722.18	14.13
722.364	14.26
722.547	14.36
722.73	14.37
722.914	14.29
723.097	14.11
723.28	14.33
723.464	14.42
723.647	14.36
723.83	14.48
724.013	14.41
724.197	14.44
724.38	14.63
724.563	14.4
724.746	14.66
724.929	14.69
725.112	14.5
725.296	14.38
725.479	14.36
725.662	14.26
725.845	14.2
726.028	14.17
726.211	14.13
726.394	13.92
726.577	14.03
726.76	13.8
726.943	13.87
727.126	14.05
727.309	14.07
727.492	14.07
727.675	13.9
727.858	13.89
728.041	14.03
728.224	13.97
728.407	14.06
728.589	13.89
728.772	13.9
728.955	13.85
729.138	13.93
729.321	13.97
729.503	14.14
729.686	14.32
729.869	14.28
730.052	14.23
730.234	14.35
730.417	14.25
730.6	14.37
730.782	14.41
730.965	14.47
731.148	14.46
731.33	14.33
731.513	14.12
731.695	14.12
731.878	14.13
732.061	14.21
732.243	14.07
732.426	14.1
732.608	14.14
732.791	14.01
732.973	13.98
733.156	14.06
733.338	14.33
733.52	14.27
733.703	14.21
733.885	14.31
734.068	14.16
734.25	14.18
734.432	14.16
734.615	14.4
734.797	14.54
734.979	14.54
735.162	14.3
735.344	14.01
735.526	14.16
735.708	14.13
735.891	14.16
736.073	14.31
736.255	14.48
736.437	14.66
736.619	14.34
736.802	14.43
736.984	14.41
737.166	14.7
737.348	14.71
737.53	14.77
737.712	14.85
737.894	15.03
738.076	15.06
738.258	14.79
738.44	14.72
738.622	14.67
738.804	14.46
738.986	14.6
739.168	14.64
739.35	14.9
739.532	14.94
739.714	14.79
739.896	14.66
740.078	14.59
740.259	15.01
740.441	14.7
740.623	14.86
740.805	15.13
740.987	15.1
741.168	14.87
741.35	14.8
741.532	14.67
741.714	14.79
741.895	14.98
742.077	15.04
742.259	14.9
742.44	15.28
742.622	15.18
742.804	15.09
742.985	15.05
743.167	15.32
743.348	15.27
743.53	15.35
743.711	15.39
743.893	14.84
744.075	14.75
744.256	14.57
744.438	14.38
744.619	14.58
744.8	14.52
744.982	14.54
745.163	14.65
745.345	14.59
745.526	14.86
745.707	14.78
745.889	14.95
746.07	15.06
746.252	15.25
746.433	15.47
746.614	15.38
746.795	15.63
746.977	15.55
747.158	15.2
747.339	15.01
747.52	14.63
747.702	14.63
747.883	14.56
748.064	14.53
748.245	14.47
748.426	14.34
748.607	14.34
748.788	13.98
748.97	13.83
749.151	14.18
749.332	14.42
749.513	14.61
749.694	14.63
749.875	14.93
750.056	15.12
750.237	15.15
750.418	15.08
750.599	14.72
750.78	14.82
750.96	15.12
751.141	15.13
751.322	15.23
751.503	14.96
751.684	14.91
751.865	14.77
752.046	14.81
752.226	14.9
752.407	14.79
752.588	14.95
752.769	15.24
752.949	15.16
753.13	15.18
753.311	15.18
753.492	15.17
753.672	15.32
753.853	15.37
754.034	15.54
754.214	15.41
754.395	15.3
754.575	15.7
754.756	15.25
754.937	15.03
755.117	14.78
755.298	14.78
755.478	14.99
755.659	15.17
755.839	15.2
756.02	15.14
756.2	14.97
756.381	15.06
756.561	14.69
756.741	15.29
756.922	15.51
757.102	15.73
757.283	15.5
757.463	15.33
757.643	15.23
757.823	15
758.004	14.8
758.184	14.99
758.364	15.46
758.545	15.57
758.725	15.16
758.905	15.04
759.085	14.81
759.265	14.66
759.446	14.81
759.626	14.87
759.806	15.07
759.986	14.99
760.166	14.88
760.346	14.66
760.526	14.82
760.706	14.98
760.886	15.01
761.066	15.01
761.246	15.41
761.426	15.51
761.606	15.19
761.786	15.21
761.966	15.32
762.146	15.29
762.326	15.42
762.506	15.32
762.686	15.41
762.866	15.33
763.046	15.33
763.225	15.25
763.405	15.02
763.585	15.38
763.765	15.37
763.945	15.22
764.124	15.22
764.304	15.14
764.484	15.24
764.664	15.21
764.843	15.45
765.023	15.62
765.203	15.56
765.382	15.79
765.562	15.55
765.741	15.65
765.921	15.83
766.101	15.75
766.28	15.58
766.46	15.53
766.639	15.54
766.819	15.19
766.998	15.07
767.178	15.13
767.357	15.16
767.537	14.92
767.716	14.93
767.896	14.77
768.075	15.12
768.254	15.5
768.434	15.59
768.613	15.03
768.792	15.22
768.972	15.55
769.151	15.3
769.33	15.4
769.51	15.82
769.689	15.81
769.868	16.07
770.047	15.73
770.226	15.81
770.406	15.75
770.585	16.15
770.764	16.23
770.943	15.96
771.122	16.45
771.301	16.23
771.48	16.43
771.66	16.4
771.839	16.1
772.018	16.37
772.197	16.01
772.376	15.82
772.555	15.72
772.734	15.82
772.913	16.21
773.092	15.97
773.271	15.98
773.449	15.6
773.628	15.83
773.807	15.82
773.986	15.75
774.165	15.87
774.344	15.87
774.523	15.97
774.701	15.65
774.88	14.91
775.059	15.1
775.238	14.8
775.417	14.63
775.595	13.93
775.774	14.31
775.953	14.44
776.131	13.98
776.31	14.09
776.489	14.09
776.667	13.9
776.846	14.31
777.025	14.37
777.203	14.79
777.382	14.67
777.56	15.08
777.739	14.8
777.917	14.68
778.096	14.97
778.274	15.3
778.453	15.63
778.631	15.76
778.81	15.71
778.988	15.34
779.166	15.42
779.345	15.69
779.523	15.83
779.702	16.03
779.88	16.27
780.058	16.1
780.237	15.86
780.415	16.03
780.593	16.34
780.771	16.45
780.95	16.35
781.128	16.06
781.306	16.55
781.484	16.38
781.662	16.3
781.841	15.98
782.019	16.27
782.197	16.36
782.375	15.82
782.553	15.98
782.731	16.34
782.909	17.13
783.087	17.27
783.265	16.82
783.443	16.78
783.621	16.88
783.799	16.88
783.977	16.78
784.155	16.85
784.333	16.77
784.511	16.87
784.689	16.27
784.867	15.98
785.045	15.54
785.223	15.4
785.4	15.43
785.578	15.33
785.756	15.24
785.934	15.36
786.112	15.38
786.289	15.35
786.467	14.61
786.645	14.96
786.823	14.76
787	15.19
787.178	15.47
787.356	15.86
787.533	16.11
787.711	16.19
787.889	16.56
788.066	16.5
788.244	16.7
788.421	17.11
788.599	16.49
788.776	16.12
788.954	16.12
789.131	15.89
789.309	15.54
789.486	15.08
789.664	15.25
789.841	14.72
790.019	14.58
790.196	14.44
790.373	14.16
790.551	14.22
790.728	14.64
790.906	14.5
791.083	13.82
791.26	13.37
791.437	13.14
791.615	13.36
791.792	13.66
791.969	13.62
792.146	13.72
792.324	14.16
792.501	14.74
792.678	14.86
792.855	14.92
793.032	15.67
793.209	16.29
793.387	16.86
793.564	16.55
793.741	16.36
793.918	16.21
794.095	16.62
794.272	16.42
794.449	15.96
794.626	16.15
794.803	16.23
794.98	16.32
795.157	16.1
795.334	16.35
795.511	16.02
795.688	15.91
795.864	16.46
796.041	16.45
796.218	16.16
796.395	16.88
796.572	16.62
796.749	16.07
796.925	16.22
797.102	16.26
797.279	15.95
797.456	16.54
797.632	16.61
797.809	16.11
797.986	15.54
798.162	16.13
798.339	15.75
798.516	15.48
798.692	16.14
798.869	15.89
799.046	15.79
799.222	15.95
799.399	15.73
799.575	16.28
799.752	15.94
799.928	16.13
800.105	15.94
800.281	15.92
800.458	16.37
800.634	16.36
800.811	16.34
800.987	16.26
801.163	15.74
801.34	15.45
801.516	15.39
801.692	15.86
801.869	15.78
802.045	15.96
802.221	15.99
802.398	16.01
802.574	16.06
802.75	16.22
802.926	16.14
803.103	15.91
803.279	17.09
803.455	17.35
803.631	17.92
803.807	17.58
803.983	17.57
804.16	17.09
804.336	16.7
804.512	16.96
804.688	17.75
804.864	18.08
805.04	19.11
805.216	18.25
805.392	17.29
805.568	16.98
805.744	17.88
805.92	17.37
806.096	18.12
806.272	18.58
806.448	18.69
806.623	17.3
806.799	17.88
806.975	17.56
807.151	17.57
807.327	17.77
807.503	17.7
807.678	17.04
807.854	16.96
808.03	16.74
808.206	15.61
808.381	15.46
808.557	15.52
808.733	15.1
808.908	14.94
809.084	14.73
809.26	14.68
809.435	14.39
809.611	14.53
809.787	14.61
809.962	14.28
810.138	15.04
810.313	14.53
810.489	15.57
810.664	15.4
810.84	15.62
811.015	16.22
811.191	15.87
811.366	15.48
811.542	15.43
811.717	15.35
811.892	16.3
812.068	16.92
812.243	17.29
812.419	16.68
812.594	16.61
812.769	16.39
812.944	16.19
813.12	16.4
813.295	17.08
813.47	17.61
813.645	17.86
813.821	17.26
813.996	16.65
814.171	16.5
814.346	16.82
814.521	16.81
814.697	16.11
814.872	15.87
815.047	15.75
815.222	15.69
815.397	15.65
815.572	15.96
815.747	16.68
815.922	16.83
816.097	17.05
816.272	16.8
816.447	16.9
816.622	17.6
816.797	17.64
816.972	18.18
817.147	18.2
817.322	17.58
817.496	17.23
817.671	16.57
817.846	16.73
818.021	16.18
818.196	16.12
818.371	16.54
818.545	16.88
818.72	16.85
818.895	16.69
819.069	16.56
819.244	17.11
819.419	17.17
819.594	17.09
819.768	16.79
819.943	16.86
820.117	16.67
820.292	16.54
820.467	16.59
820.641	16.58
820.816	16.45
820.99	16.39
821.165	16.42
821.339	16.38
821.514	16.28
821.688	16.25
821.863	16.34
822.037	16.42
822.212	16.36
822.386	16.17
822.56	16.09
822.735	16.03
822.909	16.06
823.084	15.86
823.258	15.86
823.432	15.92
823.606	15.82
823.781	15.71
823.955	15.68
824.129	15.61
824.303	15.51
824.478	15.7
824.652	15.97
824.826	16
825	16.25
825.174	16.15
825.348	15.88
825.523	16.02
825.697	15.69
825.871	15.77
826.045	15.78
826.219	15.9
826.393	15.76
826.567	15.8
826.741	15.81
826.915	15.73
827.089	15.65
827.263	16.04
827.437	16.1
827.611	16.3
827.784	15.94
827.958	16.06
828.132	16.32
828.306	16.01
828.48	16.18
828.654	16.23
828.827	16.21
829.001	16.57
829.175	16.17
829.349	16.43
829.522	16.94
829.696	17.67
829.87	17.71
830.044	17.98
830.217	18.93
830.391	18.52
830.565	18.51
830.738	17.54
830.912	17.24
831.085	17.49
831.259	17.75
831.432	17.21
831.606	16.65
831.779	16.65
831.953	16.18
832.126	15.95
832.3	15.46
832.473	15.58
832.647	16.15
832.82	16.56
832.994	16.23
833.167	15.84
833.34	15.8
833.514	15.83
833.687	15.83
833.86	15.59
834.034	15.66
834.207	15.71
834.38	15.22
834.553	14.9
834.727	14.46
834.9	14.58
835.073	14.44
835.246	14.26
835.419	14.57
835.593	15.27
835.766	15.5
835.939	15.25
836.112	15.67
836.285	16.31
836.458	17.5
836.631	17.76
836.804	18.16
836.977	18.65
837.15	19.04
837.323	18.49
837.496	16.98
837.669	17.2
837.842	17.14
838.015	17.38
838.188	16.91
838.361	16.99
838.533	16.62
838.706	15.92
838.879	15.55
839.052	15.43
839.225	15.74
839.398	16.81
839.57	15.73
839.743	15.09
839.916	15.23
840.088	15.29
840.261	14.81
840.434	15.31
840.607	15.36
840.779	15.58
840.952	16.04
841.124	16
841.297	15.69
841.47	16.66
841.642	18.1
841.815	16.87
841.987	16.07
842.16	15.91
842.332	14.95
842.505	15.39
842.677	15.08
842.85	15.89
843.022	15.69
843.194	16.26
843.367	16.43
843.539	16.17
843.712	17.19
843.884	18.83
844.056	18.71
844.229	18.95
844.401	19.56
844.573	20.47
844.745	18.78
844.918	19.54
845.09	18.34
845.262	16.12
845.434	16.43
845.606	15.77
845.779	15.59
845.951	16.45
846.123	19.43
846.295	19.11
846.467	18.79
846.639	18.8
846.811	18.11
846.983	17.54
847.155	18.5
847.327	17.36
847.499	17.5
847.671	17.71
847.843	16.1
848.015	12.81
848.187	13.04
848.359	11.84
848.531	11.67
848.703	12.8
848.875	15.35
849.047	16.15
849.218	16.99
849.39	17.17
849.562	18.33
849.734	17.54
849.905	18.9
850.077	19.17
850.249	20.72
850.421	22.47
850.592	20.09
850.764	18.9
850.936	19.07
851.107	17.52
851.279	18.81
851.451	17.12
851.622	19.62
851.794	19.5
851.965	19.97
852.137	19.73
852.308	16.97
852.48	18.72
852.651	17.72
852.823	18.66
852.994	22.37
853.166	22.43
853.337	25.33
853.509	24.73
853.68	24.44
853.851	23.51
854.023	22.48
854.194	23.46
854.365	23.95
854.537	25.39
854.708	24.65
854.879	21.64
855.05	20.05
855.222	18.26
855.393	16.73
855.564	16.19
855.735	14.13
855.906	14.97
856.078	15.5
856.249	16.36
856.42	13.4
856.591	14.52
856.762	15.86
856.933	17.91
857.104	16.35
857.275	17.45
857.446	17.88
857.617	18.32
857.788	18.49
857.959	17.18
858.13	15.23
858.301	15.58
858.472	12.66
858.643	10.54
858.814	9.28
858.985	9.68
859.155	10.4
859.326	11.53
859.497	13.15
859.668	10.92
859.839	13.23
860.009	14.23
860.18	15.05
860.351	19.03
860.522	19.82
860.692	20.39
860.863	20.19
861.034	19.46
861.204	20.46
861.375	19.24
861.546	23.15
861.716	21.96
861.887	18.58
862.057	18.13
862.228	16.69
862.398	17.07
862.569	17.92
862.739	20.61
862.91	22.57
863.08	21
863.251	21.82
863.421	18.14
863.592	15.94
863.762	21.04
863.932	20.96
864.103	20.64
864.273	19.9
864.443	20.43
864.614	19.44
864.784	17.77
864.954	15.75
865.125	15.14
865.295	17.12
865.465	19.26
865.635	16.99
865.805	17.25
865.976	14.35
866.146	15.68
866.316	12.8
866.486	12.81
866.656	13.41
866.826	12.78
866.996	12.13
867.166	10.18
867.336	10.64
867.506	10.26
867.676	9.46
867.846	12.16
868.016	12.82
868.186	12.02
868.356	11.8
868.526	10.4
868.696	11.17
868.866	14.6
869.036	13.73
869.206	13.33
869.376	11.6
869.545	9.48
869.715	8.89
869.885	8.03
870.055	9.24
870.224	9.1
870.394	11.37
870.564	14.54
870.734	12.96
870.903	15.26
871.073	15.91
871.243	20.1
871.412	22.49
871.582	23.8
871.751	23.85
871.921	25.26
872.091	22.17
872.26	19.95
872.43	18.76
872.599	19.57
872.769	18.32
872.938	18.51
873.108	16.64
873.277	18.41
873.446	20.6
873.616	20.06
873.785	17.8
873.955	21.54
874.124	21.87
874.293	21.72
874.463	20.19
874.632	21.49
874.801	19.11
874.971	19.66
875.14	19.75
875.309	15.21
875.478	15.57
875.647	18.61
875.817	18.12
875.986	15.77
876.155	15.46
876.324	14.91
876.493	16.07
876.662	16.66
876.831	14.54
877	15.06
877.17	19.36
877.339	22.12
877.508	22.16
877.677	22.04
877.846	24.25
878.015	24.03
878.184	26.54
878.352	26.31
878.521	26.5
878.69	25.24
878.859	23.53
879.028	21.7
879.197	19.37
879.366	18.85
879.534	17.94
879.703	17.74
879.872	17.91
880.041	17.84
880.21	17.04
880.378	17.35
880.547	18.03
880.716	18.37
880.884	17.57
881.053	18.05
881.222	17.44
881.39	17.39
881.559	17.55
881.727	16.99
881.896	16.69
882.065	16.52
882.233	16.21
882.402	16.11
882.57	15.6
882.739	16.43
882.907	16.71
883.076	17.21
883.244	17.17
883.412	17.27
883.581	17.75
883.749	17.68
883.918	18.2
884.086	18.43
884.254	18.06
884.423	18.7
884.591	18.38
884.759	16.54
884.927	15.9
885.096	16.19
885.264	16.04
885.432	16.95
885.6	15.4
885.769	15.35
885.937	16.39
886.105	16.9
886.273	16.85
886.441	16.36
886.609	16.48
886.777	15.84
886.945	14.59
887.113	13.03
887.281	9.69
887.449	14.79
887.617	14.89
887.785	14.82
887.953	14.24
888.121	13.07
888.289	13.67
888.457	14.62
888.625	14.3
888.793	16.3
888.961	16.23
889.129	17.24
889.296	16.76
889.464	15.54
889.632	13.84
889.8	15.07
889.967	15.18
890.135	14.54
